 LCModel (Version 6.3-1N) Copyright: S.W. Provencher.          Ref.: Magn. Reson. Med. 30:672-679 (1993).                
 Slice_N1@23_12  02-Jun-2023 14:37:36
 27 lines in following concentration table = NCONC+1
    Conc.  %SD /Cr+PCr  Metabolite                                         
 1.96E-06  16% 2.4E-04 Mac                                                 
 1.69E-02  79%   2.072 Cr                                                  
 4.84E-02  27%   5.928 PCr                                                 
 5.93E-02  13%   7.257 Ins                                                 
 8.92E-02   7%  10.927 NAA                                                 
 7.25E-02  11%   8.881 Tau                                                 
 8.94E-03  57%   1.095 PCho                                                
 3.41E-03 150%   0.417 GPC                                                 
 8.32E-02  11%  10.194 Glu                                                 
 2.25E-02  30%   2.758 Gln                                                 
    0.000 999%   0.000 Ala                                                 
 3.41E-02  37%   4.171 Asc                                                 
 1.04E-02  73%   1.277 Asp                                                 
 8.75E-03  46%   1.071 GABA                                                
 4.99E-03 102%   0.611 Glc                                                 
 1.20E-02  34%   1.467 GSH                                                 
    0.000 999%   0.000 Lac                                                 
    0.000 999%   0.000 NAAG                                                
    0.000 999%   0.000 PE                                                  
 1.24E-02  17%   1.512 GPC+PCho                                            
 8.92E-02   7%  10.927 NAA+NAAG                                            
    0.106  10%  12.952 Glu+Gln                                             
 6.53E-02   9%   8.000 Cr+PCr                                              
 8.92E-02   7%  10.927 NAA+NAAG                                            
 6.53E-02   9%   8.000 Cr+PCr                                              
    0.106  10%  12.952 Glu+Gln                                             
   6 lines in following misc. output table
  FWHM = 0.041 ppm    S/N =   3                                            
  Data shift = 0.052 ppm                                                   
  Ph: -28 deg      -8.3 deg/ppm                                            
  alphaB,S = 8.4E-01,   1.6E+01                                            
   18 spline knots.   Ns = 6(1)                                            
  ( 4) 2 infls.   ( 1) 1 extrs.                                            
  654 points on ppm-axis = NY
      4.000000     3.994181     3.988363     3.982544     3.976726     3.970907     3.965088     3.959270     3.953451     3.947633
      3.941814     3.935995     3.930177     3.924358     3.918540     3.912721     3.906902     3.901084     3.895265     3.889446
      3.883628     3.877809     3.871991     3.866172     3.860353     3.854535     3.848716     3.842898     3.837079     3.831260
      3.825442     3.819623     3.813805     3.807986     3.802167     3.796349     3.790530     3.784712     3.778893     3.773074
      3.767256     3.761437     3.755619     3.749800     3.743981     3.738163     3.732344     3.726526     3.720707     3.714888
      3.709070     3.703251     3.697433     3.691614     3.685795     3.679977     3.674158     3.668339     3.662521     3.656702
      3.650884     3.645065     3.639246     3.633428     3.627609     3.621791     3.615972     3.610153     3.604335     3.598516
      3.592698     3.586879     3.581060     3.575242     3.569423     3.563605     3.557786     3.551967     3.546149     3.540330
      3.534512     3.528693     3.522874     3.517056     3.511237     3.505419     3.499600     3.493781     3.487963     3.482144
      3.476326     3.470507     3.464688     3.458870     3.453051     3.447232     3.441414     3.435595     3.429777     3.423958
      3.418139     3.412321     3.406502     3.400684     3.394865     3.389046     3.383228     3.377409     3.371591     3.365772
      3.359953     3.354135     3.348316     3.342498     3.336679     3.330860     3.325042     3.319223     3.313405     3.307586
      3.301767     3.295949     3.290130     3.284312     3.278493     3.272674     3.266856     3.261037     3.255219     3.249400
      3.243581     3.237763     3.231944     3.226125     3.220307     3.214488     3.208670     3.202851     3.197032     3.191214
      3.185395     3.179577     3.173758     3.167939     3.162121     3.156302     3.150484     3.144665     3.138846     3.133028
      3.127209     3.121391     3.115572     3.109753     3.103935     3.098116     3.092298     3.086479     3.080660     3.074842
      3.069023     3.063205     3.057386     3.051567     3.045749     3.039930     3.034111     3.028293     3.022474     3.016656
      3.010837     3.005018     2.999200     2.993381     2.987563     2.981744     2.975925     2.970107     2.964288     2.958470
      2.952651     2.946832     2.941014     2.935195     2.929377     2.923558     2.917739     2.911921     2.906102     2.900284
      2.894465     2.888646     2.882828     2.877009     2.871191     2.865372     2.859553     2.853735     2.847916     2.842098
      2.836279     2.830460     2.824642     2.818823     2.813004     2.807186     2.801367     2.795549     2.789730     2.783911
      2.778093     2.772274     2.766456     2.760637     2.754818     2.749000     2.743181     2.737363     2.731544     2.725725
      2.719907     2.714088     2.708270     2.702451     2.696632     2.690814     2.684995     2.679177     2.673358     2.667539
      2.661721     2.655902     2.650084     2.644265     2.638446     2.632628     2.626809     2.620991     2.615172     2.609353
      2.603535     2.597716     2.591897     2.586079     2.580260     2.574442     2.568623     2.562804     2.556986     2.551167
      2.545349     2.539530     2.533711     2.527893     2.522074     2.516256     2.510437     2.504618     2.498800     2.492981
      2.487163     2.481344     2.475525     2.469707     2.463888     2.458070     2.452251     2.446432     2.440614     2.434795
      2.428977     2.423158     2.417339     2.411521     2.405702     2.399884     2.394065     2.388246     2.382428     2.376609
      2.370790     2.364972     2.359153     2.353335     2.347516     2.341697     2.335879     2.330060     2.324242     2.318423
      2.312604     2.306786     2.300967     2.295149     2.289330     2.283511     2.277693     2.271874     2.266056     2.260237
      2.254418     2.248600     2.242781     2.236963     2.231144     2.225325     2.219507     2.213688     2.207870     2.202051
      2.196232     2.190414     2.184595     2.178777     2.172958     2.167139     2.161321     2.155502     2.149683     2.143865
      2.138046     2.132228     2.126409     2.120590     2.114772     2.108953     2.103135     2.097316     2.091497     2.085679
      2.079860     2.074042     2.068223     2.062404     2.056586     2.050767     2.044949     2.039130     2.033311     2.027493
      2.021674     2.015856     2.010037     2.004218     1.998400     1.992581     1.986763     1.980944     1.975126     1.969307
      1.963489     1.957670     1.951852     1.946033     1.940215     1.934397     1.928578     1.922760     1.916941     1.911123
      1.905304     1.899486     1.893667     1.887849     1.882030     1.876212     1.870393     1.864575     1.858756     1.852938
      1.847119     1.841301     1.835482     1.829664     1.823845     1.818027     1.812208     1.806390     1.800571     1.794753
      1.788934     1.783116     1.777297     1.771479     1.765660     1.759842     1.754023     1.748205     1.742386     1.736568
      1.730749     1.724931     1.719113     1.713294     1.707476     1.701657     1.695839     1.690020     1.684202     1.678383
      1.672565     1.666746     1.660928     1.655109     1.649291     1.643472     1.637654     1.631835     1.626017     1.620198
      1.614380     1.608561     1.602743     1.596924     1.591106     1.585287     1.579469     1.573650     1.567832     1.562013
      1.556195     1.550376     1.544558     1.538739     1.532921     1.527102     1.521284     1.515465     1.509647     1.503829
      1.498010     1.492192     1.486373     1.480555     1.474736     1.468918     1.463099     1.457281     1.451462     1.445644
      1.439825     1.434007     1.428188     1.422370     1.416551     1.410733     1.404914     1.399096     1.393277     1.387459
      1.381640     1.375822     1.370003     1.364185     1.358366     1.352548     1.346729     1.340911     1.335092     1.329274
      1.323455     1.317637     1.311818     1.306000     1.300182     1.294363     1.288545     1.282726     1.276908     1.271089
      1.265271     1.259452     1.253634     1.247815     1.241997     1.236178     1.230360     1.224541     1.218723     1.212904
      1.207086     1.201267     1.195449     1.189630     1.183812     1.177993     1.172175     1.166356     1.160538     1.154719
      1.148901     1.143082     1.137264     1.131445     1.125627     1.119808     1.113990     1.108171     1.102353     1.096534
      1.090716     1.084898     1.079079     1.073261     1.067442     1.061624     1.055805     1.049987     1.044168     1.038350
      1.032531     1.026713     1.020894     1.015076     1.009257     1.003439     0.997620     0.991802     0.985983     0.980165
      0.974346     0.968528     0.962709     0.956891     0.951072     0.945254     0.939435     0.933617     0.927798     0.921980
      0.916161     0.910343     0.904524     0.898706     0.892887     0.887069     0.881251     0.875432     0.869614     0.863795
      0.857977     0.852158     0.846340     0.840521     0.834703     0.828884     0.823066     0.817247     0.811429     0.805610
      0.799792     0.793973     0.788155     0.782336     0.776518     0.770699     0.764881     0.759062     0.753244     0.747425
      0.741607     0.735788     0.729970     0.724151     0.718333     0.712514     0.706696     0.700877     0.695059     0.689240
      0.683422     0.677603     0.671785     0.665967     0.660148     0.654330     0.648511     0.642693     0.636874     0.631056
      0.625237     0.619419     0.613600     0.607782     0.601963     0.596145     0.590326     0.584508     0.578689     0.572871
      0.567052     0.561234     0.555415     0.549597     0.543778     0.537960     0.532141     0.526323     0.520504     0.514686
      0.508867     0.503049     0.497230     0.491412     0.485593     0.479775     0.473956     0.468138     0.462319     0.456501
      0.450682     0.444864     0.439045     0.433227     0.427408     0.421590     0.415771     0.409953     0.404134     0.398316
      0.392497     0.386679     0.380860     0.375042     0.369223     0.363405     0.357586     0.351767     0.345949     0.340130
      0.334312     0.328493     0.322675     0.316856     0.311038     0.305219     0.299401     0.293582     0.287764     0.281945
      0.276127     0.270308     0.264490     0.258671     0.252853     0.247034     0.241216     0.235397     0.229579     0.223760
      0.217942     0.212123     0.206305     0.200486
 NY phased data points follow
  -1.35823E-02 -5.21695E-01 -1.65888E-01 -2.81847E-01  2.33468E-02  3.01971E-01  1.29708E-01 -3.17510E-01 -2.43677E-01  1.73727E-01
   2.08480E-01  6.85242E-01  1.27360E-01  3.40924E-01  4.79421E-01  1.10040E-01  4.79752E-01  2.46207E-01  2.95252E-01  1.65833E-01
  -9.16435E-02  1.33274E-01  3.59158E-02 -2.49088E-01 -1.88208E-01  4.77324E-02 -2.93099E-02 -4.02757E-02 -2.17892E-01 -2.11222E-01
  -3.40400E-02 -2.97394E-01 -2.00930E-01 -3.00279E-01 -4.45455E-01 -4.29807E-01 -3.64825E-01 -3.58539E-01 -3.38914E-01 -3.55819E-01
  -4.60016E-01  1.26895E-01  1.03689E-01  2.80464E-01  4.46490E-01  3.04972E-01  4.98678E-01  3.28767E-01  4.56387E-01  3.54679E-01
   2.58603E-01  3.42038E-01  3.34441E-01  1.13105E-01  9.28296E-02 -5.68853E-02 -2.83359E-01  2.48698E-02 -2.11149E-01 -1.80176E-01
  -9.05834E-02 -2.77599E-01 -5.35218E-02 -1.95735E-01 -2.40033E-01 -9.42081E-02 -6.14668E-03  1.49512E-01 -5.83734E-02  4.22904E-02
   2.53461E-02  1.91917E-01  3.01464E-02 -4.88453E-02  2.37177E-01 -1.95502E-01  2.63886E-02 -3.16299E-01 -2.20320E-01 -2.07888E-01
  -2.46980E-01  1.91039E-01 -4.02619E-02  2.71837E-01  1.78996E-01  3.77302E-01  3.04806E-01  4.30830E-02  2.85685E-01  2.88541E-01
   9.91309E-03  1.22051E-01  1.75291E-01  1.05338E-01  1.95536E-01 -6.87513E-02  3.48928E-01  6.81536E-02 -2.45009E-01 -2.85689E-01
  -6.16835E-01 -5.30797E-01 -1.32002E-01  3.36860E-02  5.77916E-03  2.37024E-01  1.65372E-01  1.56973E-01  1.65413E-01  4.64588E-01
   6.69444E-01  4.95803E-01  2.48984E-01  3.70492E-01  4.70071E-01  4.29110E-01  1.36536E-01  2.41530E-01  5.56940E-01  9.29351E-02
   2.85053E-01  6.67248E-02 -3.22768E-02  3.12618E-02 -6.38133E-02 -5.33003E-02  9.10864E-02  1.90029E-01 -4.07682E-01 -2.46091E-01
  -3.83772E-01 -6.33838E-01 -3.89744E-01 -6.41262E-01 -4.79319E-01 -2.89382E-01 -7.34469E-01 -5.88062E-01 -5.81874E-01 -6.36849E-01
  -3.40902E-01 -2.28254E-01 -2.04966E-01 -6.20845E-02  1.57345E-01 -1.64377E-01  1.04818E-01 -1.63085E-02 -2.72679E-01  3.13254E-01
   1.94820E-01 -1.47386E-01  1.37968E-01  2.27405E-01  9.25420E-02  1.62817E-01  2.34614E-01  2.35745E-01  1.41130E-01  3.33991E-01
   3.79744E-01  4.75687E-01  5.65163E-01  4.91456E-01  6.15184E-01  8.33232E-01  5.41077E-01  1.79743E-01 -2.76770E-02 -1.89462E-01
  -1.70459E-01 -6.26274E-01 -6.35473E-01 -7.34104E-01 -7.86113E-01 -2.58189E-01 -2.96917E-01 -5.22406E-01 -3.21108E-01 -5.06821E-01
  -3.29264E-01 -4.04988E-01 -4.99956E-01 -1.89713E-01 -4.65776E-01 -7.93950E-02 -3.44372E-01 -3.02482E-01 -5.11444E-01 -4.71629E-01
  -3.15807E-01 -4.54412E-01  1.18520E-01 -3.82658E-01 -9.29378E-02 -4.10372E-02 -4.13640E-02 -2.36223E-01 -3.22171E-01  2.42537E-02
  -2.05307E-01 -1.95191E-02 -1.50736E-01 -9.49848E-02 -5.87126E-02  1.45253E-01  8.57389E-02 -1.55420E-01  7.68864E-02 -9.04065E-03
  -9.59973E-02  4.89217E-02  8.23769E-03 -4.24338E-02 -1.43677E-01  2.94150E-03 -8.80047E-03 -1.21484E-01  2.13525E-01  2.19874E-01
   7.36218E-03 -1.38912E-01 -7.12703E-02 -2.07213E-01  1.95188E-01  2.21130E-01  3.10355E-01  3.84954E-01  1.39333E-01  6.07336E-01
   3.41365E-01  3.13789E-01  1.80395E-01  6.59406E-02  5.84027E-02  2.21424E-01  2.11922E-01 -1.24586E-01  6.78492E-02  8.95933E-02
  -3.75023E-02 -3.35832E-01 -1.23263E-01  4.73259E-02 -8.24297E-02  3.51579E-02  4.25313E-02 -2.10489E-01 -1.20046E-01 -2.37203E-01
  -7.90357E-03  4.93945E-02  1.20116E-02  4.27579E-01 -1.04956E-01 -1.42766E-01 -8.66813E-02  1.15581E-02 -1.09784E-01  1.35337E-02
   2.68308E-01  2.06228E-01 -8.63297E-03 -2.79966E-01  2.07697E-01  2.39329E-02  5.65870E-03  5.75155E-02  2.51514E-01  1.23741E-01
   1.10094E-01  1.87538E-01 -6.79192E-02  2.46071E-01  8.64883E-02  2.12460E-01 -1.74534E-02 -7.25107E-02  1.87134E-02 -3.89291E-01
  -4.69577E-01 -2.54781E-01 -3.42704E-01 -3.41853E-01 -1.07439E-01 -2.72332E-02  2.71646E-01  1.80727E-01  6.97319E-01  6.13441E-01
   4.04712E-01  6.39500E-01  3.05523E-01  2.67926E-01  1.75848E-01  3.19165E-01  1.90029E-01  1.32986E-01 -4.03448E-02  1.03667E-01
   3.96470E-01  6.86892E-02  2.35799E-01  8.39266E-02  1.49190E-01  4.78121E-01  2.13661E-01  3.56943E-01  4.29960E-01  9.25276E-02
   1.95212E-01  2.08054E-01  3.81728E-01  3.47568E-01  8.99578E-02  7.37109E-02 -1.60709E-01  6.68887E-02  1.96855E-02 -1.90622E-01
  -1.93610E-01 -2.69951E-01 -2.74682E-01 -4.06992E-01 -2.65666E-01 -5.88915E-02 -9.94874E-02  3.41188E-01  2.54647E-01 -9.41929E-02
   2.18534E-01 -2.66755E-02  2.68744E-01  1.64855E-02 -2.77938E-01 -1.24164E-01 -2.94332E-01 -6.23730E-02 -1.97760E-01  4.62080E-02
  -5.58276E-01 -1.00301E+00 -1.05380E+00 -1.16667E+00 -9.76328E-01 -1.41348E+00 -9.58346E-01 -4.05086E-01 -1.83138E-01  1.13934E-01
   6.79931E-02 -2.33537E-02 -7.65914E-02  6.48885E-02  4.02527E-01  5.71705E-02 -6.90804E-02  7.45366E-02 -6.93078E-02  7.25760E-02
   3.50231E-02  1.36816E-01  1.21497E-01  2.05352E-01  3.55910E-02 -2.25788E-02 -1.00408E-01 -1.55738E-01  1.47566E-01 -1.61578E-01
   3.37810E-01  3.17870E-01 -1.00593E-01  1.42231E-01 -1.40437E-01  2.57521E-01  3.48798E-01  2.69547E-02  2.69193E-01  6.53328E-02
   1.97772E-01  2.63529E-01  1.06055E-01  2.40985E-01  1.91374E-01 -1.15319E-01  1.30940E-02  3.06409E-01 -3.23526E-04  1.29765E-01
   1.16813E-01  3.86410E-01  3.16985E-01 -1.63904E-01  2.92523E-01  3.90271E-01  4.12707E-03 -1.93003E-01  8.17324E-02  1.21782E-01
   2.04117E-01  1.73863E-01  4.27785E-02  1.74667E-01 -2.41796E-02  5.80940E-02  6.50853E-02 -7.61195E-02 -6.82010E-02 -3.88813E-01
  -2.87120E-01 -1.44205E-01 -1.31632E-01  4.18087E-03 -1.53087E-01  1.73345E-01  1.10118E-01 -1.18307E-01 -2.05085E-01 -5.66806E-02
   1.80806E-01 -6.24796E-02 -4.85534E-02 -3.24467E-01 -2.87018E-01 -1.91391E-01 -1.74071E-01 -1.85936E-02 -2.01092E-01 -1.11514E-01
   1.30392E-01 -3.50125E-02 -1.27217E-01  4.56047E-02 -1.44995E-01  9.47059E-03  1.67300E-01 -1.03302E-01 -8.45426E-02 -8.64204E-02
   8.10602E-03 -1.07956E-01 -3.05897E-02  1.62738E-01 -5.57198E-02  2.22146E-01 -1.46178E-01  1.80650E-02  1.02116E-01 -1.63562E-01
   3.52366E-01 -3.13383E-02  1.70271E-01  2.32225E-01  1.69536E-01  3.28715E-01 -4.83008E-03  1.42603E-02  6.83511E-02 -3.36240E-01
  -1.92009E-01  1.45092E-01 -3.80169E-01 -2.75935E-01 -1.78176E-02  3.32828E-01  1.97096E-01 -3.41967E-01 -1.47512E-01 -7.50218E-02
  -1.68906E-01 -1.27190E-01 -3.88380E-02  6.49083E-02 -2.59195E-01 -2.20865E-01  1.80543E-01 -1.83862E-01 -8.05425E-02  3.49088E-02
  -6.55789E-02 -1.88051E-01 -1.29575E-01  3.65793E-02  5.88497E-02 -7.31351E-02 -1.24813E-01  9.95501E-02  1.96734E-01  1.99739E-01
   6.57281E-02  5.64991E-01  2.35897E-01  1.80553E-01  1.51016E-01  1.08400E-01  1.81712E-01 -2.85091E-01  2.01625E-02  3.25470E-02
   2.55510E-01  1.39374E-02  2.70694E-01  3.04853E-01 -1.16088E-01 -1.80846E-01 -1.03796E-01  4.70791E-02 -1.91361E-01  2.00891E-01
   9.40882E-02 -6.56688E-02 -1.17857E-01  8.26063E-02 -4.32756E-02 -9.57514E-02 -7.66812E-02 -1.36037E-01  2.92513E-01  5.70155E-03
  -2.98230E-02 -1.93532E-01 -1.31012E-01 -6.96999E-02 -1.69025E-01 -1.05545E-01 -5.04915E-01 -3.20623E-01 -8.53964E-02 -3.29736E-01
  -3.77586E-01 -4.30815E-01 -3.08757E-01 -2.44939E-01 -2.77672E-01 -3.77828E-02 -2.91492E-01 -3.77183E-01 -2.97016E-01 -2.73284E-01
  -1.59021E-01 -9.20345E-02  2.76075E-02 -3.29909E-01 -1.31756E-01  1.72670E-01 -1.80543E-01 -1.46368E-01  1.45702E-01  1.40133E-01
   1.81319E-01  3.46756E-01  1.61929E-01  3.50924E-01  6.22608E-02  1.81423E-02  3.00567E-01 -1.33557E-01  2.27512E-01  8.24210E-02
  -8.44471E-02  2.34895E-01  4.50662E-01  2.31270E-01  9.90883E-02  3.00762E-01 -2.63731E-01 -1.73445E-01  1.02315E-01  2.23024E-01
   2.50128E-01  9.03558E-03  1.27017E-01  2.17291E-01 -1.54768E-01 -2.32097E-02  7.80503E-02  2.96004E-02  5.71707E-02 -1.81569E-01
   2.93889E-01  1.77669E-02  5.62174E-02  2.08580E-01 -3.42042E-02  3.74952E-01  1.71638E-01  2.04460E-01  4.26944E-02 -1.68546E-01
   1.12007E-01 -3.01017E-01 -1.59174E-01 -5.28069E-02 -6.67699E-02  1.60285E-01 -1.25268E-01  6.70080E-02 -2.38233E-02  2.94862E-02
  -6.51957E-02 -1.70416E-02 -1.58947E-02 -2.04207E-02  2.10771E-02 -2.37457E-01  7.20373E-02 -4.64078E-02  9.60293E-02 -1.16314E-01
   2.60842E-01  1.81355E-01 -1.14591E-01  5.04336E-02 -1.18060E-01  2.42823E-01  8.72589E-03 -1.42831E-01 -1.56890E-01  7.64529E-02
  -3.09013E-01 -3.46535E-01  6.53526E-02  2.93902E-01  1.27098E-01 -3.03755E-02  1.99791E-01 -3.50074E-02  2.27312E-01 -1.24492E-01
  -2.93533E-02  2.67643E-01  4.46599E-02  2.53457E-02 -9.61718E-02 -1.16210E-01 -1.11900E-01  1.32829E-01  1.51899E-01 -1.01543E-01
  -1.87353E-02 -9.13363E-02  3.94186E-01  1.92228E-01 -3.75818E-01  3.29929E-01 -1.96590E-01 -7.01688E-02 -8.65629E-02 -2.21908E-01
   2.70815E-01 -6.63280E-02  2.89468E-01  2.37685E-01
 NY points of the fit to the data follow
   9.66010E-02  8.29514E-02  6.41441E-02  4.01717E-02  2.06342E-02  6.05698E-03  2.02299E-03 -4.67811E-03 -1.07733E-03  4.38454E-02
   1.57204E-01  2.92240E-01  3.70200E-01  3.99592E-01  4.21862E-01  4.37692E-01  3.87543E-01  2.74975E-01  1.78209E-01  1.21156E-01
   6.95183E-02  1.77744E-02 -2.12675E-02 -4.87423E-02 -7.26575E-02 -9.47485E-02 -1.14918E-01 -1.31838E-01 -1.46402E-01 -1.58862E-01
  -1.70693E-01 -1.83124E-01 -1.98375E-01 -2.17273E-01 -2.39388E-01 -2.69793E-01 -3.03068E-01 -3.16774E-01 -2.87835E-01 -2.15117E-01
  -1.26162E-01 -2.50263E-02  9.39689E-02  2.21386E-01  3.25949E-01  3.76941E-01  3.91601E-01  3.84659E-01  3.59466E-01  3.17484E-01
   2.62101E-01  2.05981E-01  1.58502E-01  1.14828E-01  6.65602E-02  2.08538E-02 -2.16117E-02 -5.84416E-02 -1.01638E-01 -1.46800E-01
  -1.80554E-01 -1.97567E-01 -2.00202E-01 -2.03813E-01 -1.64057E-01 -8.72672E-02  5.87027E-04  8.32898E-02  1.56519E-01  2.33970E-01
   2.65687E-01  2.53518E-01  2.30546E-01  1.94797E-01  1.39239E-01  7.42434E-02 -1.05173E-02 -1.15221E-01 -2.03980E-01 -2.32301E-01
  -2.19844E-01 -1.89812E-01 -1.19144E-01  2.92098E-03  1.39790E-01  2.22896E-01  2.61513E-01  2.90043E-01  2.94217E-01  2.65699E-01
   2.27392E-01  1.94464E-01  1.63548E-01  1.35764E-01  9.80994E-02  5.22090E-02 -3.46348E-02 -1.42023E-01 -2.71557E-01 -3.66598E-01
  -3.98927E-01 -3.67839E-01 -2.67316E-01 -1.50067E-01 -4.19562E-03  1.19957E-01  2.22113E-01  2.77667E-01  2.95728E-01  2.87204E-01
   2.77453E-01  2.69227E-01  2.62496E-01  2.56751E-01  2.51959E-01  2.47613E-01  2.42865E-01  2.41493E-01  2.37428E-01  2.23170E-01
   1.99163E-01  1.68504E-01  1.35569E-01  8.29956E-02  3.87326E-02  8.11365E-03 -1.85184E-02 -9.22054E-02 -2.09652E-01 -3.33367E-01
  -4.29738E-01 -4.85736E-01 -4.92726E-01 -4.72631E-01 -5.08675E-01 -5.85389E-01 -6.26792E-01 -5.88308E-01 -5.35889E-01 -4.99443E-01
  -4.50871E-01 -3.21814E-01 -1.73699E-01 -7.17666E-02 -1.88534E-02  1.86566E-02  4.80698E-02  7.23976E-02  9.32789E-02  1.12012E-01
   1.28911E-01  1.44624E-01  1.59537E-01  1.74498E-01  1.90389E-01  2.07584E-01  2.26320E-01  2.46624E-01  2.69322E-01  2.96198E-01
   3.30019E-01  3.69791E-01  4.10500E-01  5.24698E-01  6.76781E-01  7.63029E-01  5.82534E-01  2.33187E-01 -5.52325E-02 -2.42009E-01
  -4.12351E-01 -6.50539E-01 -7.33635E-01 -6.41514E-01 -5.01809E-01 -4.26186E-01 -3.79040E-01 -3.48644E-01 -3.24126E-01 -2.97660E-01
  -2.73449E-01 -2.55966E-01 -2.45184E-01 -2.34352E-01 -2.22182E-01 -2.12351E-01 -2.04997E-01 -1.98702E-01 -1.91696E-01 -1.83191E-01
  -1.73149E-01 -1.62996E-01 -1.53396E-01 -1.43550E-01 -1.33422E-01 -1.23438E-01 -1.13853E-01 -1.05018E-01 -9.62591E-02 -8.62684E-02
  -7.40980E-02 -6.27219E-02 -5.69791E-02 -5.52201E-02 -5.16691E-02 -4.33798E-02 -3.68149E-02 -3.86674E-02 -4.50399E-02 -4.94141E-02
  -5.08786E-02 -5.42081E-02 -6.03964E-02 -6.40668E-02 -6.29389E-02 -5.99206E-02 -5.73907E-02 -5.55444E-02 -5.34022E-02 -4.99468E-02
  -5.01531E-02 -4.75525E-02 -2.44612E-02  3.64348E-02  1.11813E-01  1.54839E-01  1.66924E-01  1.92754E-01  2.54583E-01  3.02238E-01
   2.87742E-01  2.39926E-01  2.02517E-01  1.72102E-01  1.22208E-01  5.03935E-02 -1.01916E-02 -4.52764E-02 -6.35208E-02 -7.63784E-02
  -8.59132E-02 -9.32073E-02 -9.95387E-02 -1.04283E-01 -1.08887E-01 -1.10791E-01 -1.11212E-01 -1.10087E-01 -1.09010E-01 -1.11226E-01
  -1.15075E-01 -1.22469E-01 -1.39745E-01 -1.58968E-01 -1.67236E-01 -1.47402E-01 -1.20211E-01 -9.98921E-02 -6.00639E-02 -1.73170E-03
   5.76384E-02  7.69226E-02  8.56783E-02  1.13519E-01  1.29296E-01  1.22271E-01  1.07608E-01  1.16835E-01  1.28008E-01  1.22358E-01
   1.12967E-01  9.69968E-02  7.80273E-02  4.71811E-02  1.04486E-02 -3.23470E-02 -7.44607E-02 -1.23486E-01 -1.80933E-01 -2.53154E-01
  -3.24881E-01 -3.69626E-01 -3.67692E-01 -2.98845E-01 -1.83679E-01 -3.14553E-02  1.26680E-01  2.61862E-01  3.58415E-01  3.98808E-01
   3.97818E-01  3.65400E-01  3.15876E-01  2.69458E-01  2.41288E-01  2.26545E-01  2.21474E-01  2.21434E-01  2.23887E-01  2.26724E-01
   2.26003E-01  2.22369E-01  2.16262E-01  2.08567E-01  2.00281E-01  1.92443E-01  1.84771E-01  1.76669E-01  1.67221E-01  1.55895E-01
   1.41302E-01  1.23246E-01  9.89296E-02  6.87361E-02  2.94415E-02 -2.01733E-02 -7.38837E-02 -1.32167E-01 -1.85115E-01 -2.40603E-01
  -2.84797E-01 -3.17598E-01 -3.32070E-01 -3.24398E-01 -2.96283E-01 -2.39148E-01 -1.72643E-01 -1.00287E-01 -4.45809E-02 -5.80014E-03
   6.43059E-03 -6.20648E-03 -3.30867E-02 -7.18478E-02 -1.00443E-01 -1.23517E-01 -1.43297E-01 -1.07233E-01 -8.57859E-02 -1.86780E-01
  -5.56335E-01 -9.90678E-01 -1.20167E+00 -1.19710E+00 -1.13425E+00 -1.11152E+00 -9.07846E-01 -5.46325E-01 -2.45000E-01 -1.11491E-01
  -5.56318E-02 -2.20208E-02  6.01281E-04  1.68511E-02  2.90317E-02  3.84832E-02  4.56744E-02  4.95457E-02  5.16602E-02  4.94375E-02
   4.48128E-02  3.55078E-02  2.49533E-02  1.48931E-02  6.89091E-03  4.15307E-03  3.93312E-03  8.93806E-03  1.58080E-02  2.51850E-02
   3.42579E-02  4.30833E-02  5.01760E-02  5.59856E-02  6.06490E-02  6.47874E-02  6.88482E-02  7.23092E-02  7.51972E-02  7.78068E-02
   8.04069E-02  8.31516E-02  8.57995E-02  8.83261E-02  9.02348E-02  9.19739E-02  9.33452E-02  9.50198E-02  9.67907E-02  9.87855E-02
   1.00966E-01  1.03092E-01  1.04841E-01  1.05488E-01  1.05293E-01  1.04316E-01  1.02719E-01  1.00333E-01  9.72430E-02  9.36585E-02
   8.97220E-02  8.51846E-02  7.96492E-02  7.34760E-02  6.73955E-02  6.15594E-02  5.57494E-02  4.96513E-02  4.40389E-02  3.89413E-02
   3.42894E-02  2.98057E-02  2.56784E-02  2.20436E-02  1.87037E-02  1.56023E-02  1.26668E-02  9.97840E-03  7.58032E-03  5.41383E-03
   3.30263E-03  1.69551E-03  8.46207E-04  5.87677E-04  8.39073E-04  1.72293E-03  3.63234E-03  6.60962E-03  1.02145E-02  1.39093E-02
   1.69924E-02  1.96197E-02  2.25103E-02  2.61511E-02  3.02037E-02  3.44367E-02  3.91694E-02  4.47370E-02  5.10852E-02  5.81021E-02
   6.55638E-02  7.34033E-02  8.18323E-02  9.08729E-02  1.00496E-01  1.10363E-01  1.19948E-01  1.28786E-01  1.36305E-01  1.42465E-01
   1.47080E-01  1.50061E-01  1.51496E-01  1.51705E-01  1.50695E-01  1.48174E-01  1.43823E-01  1.37723E-01  1.30565E-01  1.22617E-01
   1.14054E-01  1.04795E-01  9.55020E-02  8.64685E-02  7.81750E-02  7.02799E-02  6.26436E-02  5.53323E-02  4.87685E-02  4.32505E-02
   3.81525E-02  3.32257E-02  2.88737E-02  2.57474E-02  2.38448E-02  2.28257E-02  2.26019E-02  2.34701E-02  2.53980E-02  2.81663E-02
   3.14318E-02  3.53418E-02  3.95856E-02  4.36773E-02  4.74325E-02  5.06449E-02  5.32741E-02  5.55090E-02  5.78061E-02  5.99546E-02
   6.13731E-02  6.22280E-02  6.26921E-02  6.27846E-02  6.17719E-02  5.95526E-02  5.69229E-02  5.42061E-02  5.15940E-02  4.85412E-02
   4.52656E-02  4.21531E-02  3.92333E-02  3.61168E-02  3.25343E-02  2.87491E-02  2.51914E-02  2.21023E-02  1.91525E-02  1.60867E-02
   1.30475E-02  1.02144E-02  7.03921E-03  2.82740E-03 -2.25795E-03 -7.67073E-03 -1.34022E-02 -1.99034E-02 -2.77807E-02 -3.70329E-02
  -4.77606E-02 -5.96190E-02 -7.25686E-02 -8.65955E-02 -1.01099E-01 -1.15278E-01 -1.28448E-01 -1.41035E-01 -1.52931E-01 -1.63247E-01
  -1.70964E-01 -1.76602E-01 -1.80702E-01 -1.82853E-01 -1.82205E-01 -1.79174E-01 -1.74945E-01 -1.70221E-01 -1.64871E-01 -1.58947E-01
  -1.52775E-01 -1.46333E-01 -1.39731E-01 -1.32659E-01 -1.24841E-01 -1.16255E-01 -1.07193E-01 -9.81738E-02 -8.91113E-02 -8.02157E-02
  -7.14141E-02 -6.26808E-02 -5.44919E-02 -4.71713E-02 -4.03710E-02 -3.33187E-02 -2.64691E-02 -2.07837E-02 -1.61706E-02 -1.14856E-02
  -6.80063E-03 -2.75480E-03  2.36539E-04  2.72268E-03  5.37911E-03  7.72374E-03  9.45774E-03  1.05741E-02  1.13800E-02  1.24688E-02
   1.37450E-02  1.50220E-02  1.64379E-02  1.81372E-02  1.98563E-02  2.10891E-02  2.20149E-02  2.27280E-02  2.30611E-02  2.30550E-02
   2.28922E-02  2.27038E-02  2.24866E-02  2.23091E-02  2.21573E-02  2.20701E-02  2.24665E-02  2.32975E-02  2.34846E-02  2.25457E-02
   2.14868E-02  2.11321E-02  2.08473E-02  1.99920E-02  1.90559E-02  1.91602E-02  1.96141E-02  1.91624E-02  1.82902E-02  1.79649E-02
   1.83509E-02  1.84915E-02  1.84691E-02  1.89161E-02  2.00059E-02  2.11645E-02  2.19960E-02  2.26481E-02  2.36261E-02  2.47210E-02
   2.54369E-02  2.53704E-02  2.49987E-02  2.49855E-02  2.50811E-02  2.52682E-02  2.56061E-02  2.64636E-02  2.73579E-02  2.80883E-02
   2.89694E-02  3.05023E-02  3.23068E-02  3.39087E-02  3.49127E-02  3.54655E-02  3.59698E-02  3.64727E-02  3.70140E-02  3.72457E-02
   3.71964E-02  3.73248E-02  3.78627E-02  3.86548E-02  3.92078E-02  3.93050E-02  3.93873E-02  4.01201E-02  4.15064E-02  4.28221E-02
   4.36314E-02  4.45640E-02  4.61055E-02  4.77372E-02  4.87801E-02  4.99084E-02  5.20271E-02  5.49960E-02  5.81917E-02  6.13036E-02
   6.44311E-02  6.77341E-02  7.08907E-02  7.39776E-02
 NY background values follow
     1.512E-02    1.523E-02    1.534E-02    1.546E-02    1.557E-02    1.568E-02    1.579E-02    1.590E-02    1.601E-02    1.612E-02
     1.623E-02    1.634E-02    1.645E-02    1.656E-02    1.667E-02    1.678E-02    1.689E-02    1.700E-02    1.711E-02    1.722E-02
     1.733E-02    1.744E-02    1.755E-02    1.766E-02    1.777E-02    1.788E-02    1.799E-02    1.810E-02    1.821E-02    1.832E-02
     1.842E-02    1.853E-02    1.864E-02    1.875E-02    1.886E-02    1.897E-02    1.908E-02    1.918E-02    1.929E-02    1.940E-02
     1.951E-02    1.961E-02    1.972E-02    1.983E-02    1.994E-02    2.004E-02    2.015E-02    2.026E-02    2.036E-02    2.047E-02
     2.057E-02    2.068E-02    2.078E-02    2.089E-02    2.099E-02    2.110E-02    2.120E-02    2.131E-02    2.141E-02    2.151E-02
     2.162E-02    2.172E-02    2.182E-02    2.192E-02    2.202E-02    2.212E-02    2.223E-02    2.233E-02    2.243E-02    2.253E-02
