 LCModel (Version 6.3-1N) Copyright: S.W. Provencher.          Ref.: Magn. Reson. Med. 30:672-679 (1993).                
 Slice_N1@12_16  02-Jun-2023 14:36:39
 27 lines in following concentration table = NCONC+1
    Conc.  %SD /Cr+PCr  Metabolite                                         
 1.51E-06  37% 1.7E-04 Mac                                                 
 7.19E-02  15%   8.000 Cr                                                  
    0.000 999%   0.000 PCr                                                 
    0.135  12%  15.009 Ins                                                 
    0.105  10%  11.706 NAA                                                 
 7.18E-02  20%   7.981 Tau                                                 
 1.30E-02 116%   1.443 PCho                                                
 1.44E-02 109%   1.600 GPC                                                 
 6.83E-02  24%   7.591 Glu                                                 
 3.89E-02  31%   4.330 Gln                                                 
    0.000 999%   0.000 Ala                                                 
 4.32E-02  53%   4.804 Asc                                                 
 1.91E-02  57%   2.124 Asp                                                 
 1.05E-02  59%   1.169 GABA                                                
 1.22E-02  58%   1.353 Glc                                                 
 4.55E-03 151%   0.506 GSH                                                 
 3.32E-02  43%   3.693 Lac                                                 
 1.78E-02  51%   1.984 NAAG                                                
    0.000 999%   0.000 PE                                                  
 2.74E-02  14%   3.043 GPC+PCho                                            
    0.123  11%  13.690 NAA+NAAG                                            
    0.107  18%  11.921 Glu+Gln                                             
 7.19E-02  15%   8.000 Cr+PCr                                              
    0.123  11%  13.690 NAA+NAAG                                            
 7.19E-02  15%   8.000 Cr+PCr                                              
    0.107  18%  11.921 Glu+Gln                                             
   6 lines in following misc. output table
  FWHM = 0.035 ppm    S/N =   3                                            
  Data shift = 0.012 ppm                                                   
  Ph: -28 deg       7.5 deg/ppm                                            
  alphaB,S = 3.1E+01,   4.6E+01                                            
   18 spline knots.   Ns = 7(1)                                            
  ( 4) 2 infls.   ( 1) 1 extrs.                                            
  654 points on ppm-axis = NY
      4.000000     3.994181     3.988363     3.982544     3.976726     3.970907     3.965088     3.959270     3.953451     3.947633
      3.941814     3.935995     3.930177     3.924358     3.918540     3.912721     3.906902     3.901084     3.895265     3.889446
      3.883628     3.877809     3.871991     3.866172     3.860353     3.854535     3.848716     3.842898     3.837079     3.831260
      3.825442     3.819623     3.813805     3.807986     3.802167     3.796349     3.790530     3.784712     3.778893     3.773074
      3.767256     3.761437     3.755619     3.749800     3.743981     3.738163     3.732344     3.726526     3.720707     3.714888
      3.709070     3.703251     3.697433     3.691614     3.685795     3.679977     3.674158     3.668339     3.662521     3.656702
      3.650884     3.645065     3.639246     3.633428     3.627609     3.621791     3.615972     3.610153     3.604335     3.598516
      3.592698     3.586879     3.581060     3.575242     3.569423     3.563605     3.557786     3.551967     3.546149     3.540330
      3.534512     3.528693     3.522874     3.517056     3.511237     3.505419     3.499600     3.493781     3.487963     3.482144
      3.476326     3.470507     3.464688     3.458870     3.453051     3.447232     3.441414     3.435595     3.429777     3.423958
      3.418139     3.412321     3.406502     3.400684     3.394865     3.389046     3.383228     3.377409     3.371591     3.365772
      3.359953     3.354135     3.348316     3.342498     3.336679     3.330860     3.325042     3.319223     3.313405     3.307586
      3.301767     3.295949     3.290130     3.284312     3.278493     3.272674     3.266856     3.261037     3.255219     3.249400
      3.243581     3.237763     3.231944     3.226125     3.220307     3.214488     3.208670     3.202851     3.197032     3.191214
      3.185395     3.179577     3.173758     3.167939     3.162121     3.156302     3.150484     3.144665     3.138846     3.133028
      3.127209     3.121391     3.115572     3.109753     3.103935     3.098116     3.092298     3.086479     3.080660     3.074842
      3.069023     3.063205     3.057386     3.051567     3.045749     3.039930     3.034111     3.028293     3.022474     3.016656
      3.010837     3.005018     2.999200     2.993381     2.987563     2.981744     2.975925     2.970107     2.964288     2.958470
      2.952651     2.946832     2.941014     2.935195     2.929377     2.923558     2.917739     2.911921     2.906102     2.900284
      2.894465     2.888646     2.882828     2.877009     2.871191     2.865372     2.859553     2.853735     2.847916     2.842098
      2.836279     2.830460     2.824642     2.818823     2.813004     2.807186     2.801367     2.795549     2.789730     2.783911
      2.778093     2.772274     2.766456     2.760637     2.754818     2.749000     2.743181     2.737363     2.731544     2.725725
      2.719907     2.714088     2.708270     2.702451     2.696632     2.690814     2.684995     2.679177     2.673358     2.667539
      2.661721     2.655902     2.650084     2.644265     2.638446     2.632628     2.626809     2.620991     2.615172     2.609353
      2.603535     2.597716     2.591897     2.586079     2.580260     2.574442     2.568623     2.562804     2.556986     2.551167
      2.545349     2.539530     2.533711     2.527893     2.522074     2.516256     2.510437     2.504618     2.498800     2.492981
      2.487163     2.481344     2.475525     2.469707     2.463888     2.458070     2.452251     2.446432     2.440614     2.434795
      2.428977     2.423158     2.417339     2.411521     2.405702     2.399884     2.394065     2.388246     2.382428     2.376609
      2.370790     2.364972     2.359153     2.353335     2.347516     2.341697     2.335879     2.330060     2.324242     2.318423
      2.312604     2.306786     2.300967     2.295149     2.289330     2.283511     2.277693     2.271874     2.266056     2.260237
      2.254418     2.248600     2.242781     2.236963     2.231144     2.225325     2.219507     2.213688     2.207870     2.202051
      2.196232     2.190414     2.184595     2.178777     2.172958     2.167139     2.161321     2.155502     2.149683     2.143865
      2.138046     2.132228     2.126409     2.120590     2.114772     2.108953     2.103135     2.097316     2.091497     2.085679
      2.079860     2.074042     2.068223     2.062404     2.056586     2.050767     2.044949     2.039130     2.033311     2.027493
      2.021674     2.015856     2.010037     2.004218     1.998400     1.992581     1.986763     1.980944     1.975126     1.969307
      1.963489     1.957670     1.951852     1.946033     1.940215     1.934397     1.928578     1.922760     1.916941     1.911123
      1.905304     1.899486     1.893667     1.887849     1.882030     1.876212     1.870393     1.864575     1.858756     1.852938
      1.847119     1.841301     1.835482     1.829664     1.823845     1.818027     1.812208     1.806390     1.800571     1.794753
      1.788934     1.783116     1.777297     1.771479     1.765660     1.759842     1.754023     1.748205     1.742386     1.736568
      1.730749     1.724931     1.719113     1.713294     1.707476     1.701657     1.695839     1.690020     1.684202     1.678383
      1.672565     1.666746     1.660928     1.655109     1.649291     1.643472     1.637654     1.631835     1.626017     1.620198
      1.614380     1.608561     1.602743     1.596924     1.591106     1.585287     1.579469     1.573650     1.567832     1.562013
      1.556195     1.550376     1.544558     1.538739     1.532921     1.527102     1.521284     1.515465     1.509647     1.503829
      1.498010     1.492192     1.486373     1.480555     1.474736     1.468918     1.463099     1.457281     1.451462     1.445644
      1.439825     1.434007     1.428188     1.422370     1.416551     1.410733     1.404914     1.399096     1.393277     1.387459
      1.381640     1.375822     1.370003     1.364185     1.358366     1.352548     1.346729     1.340911     1.335092     1.329274
      1.323455     1.317637     1.311818     1.306000     1.300182     1.294363     1.288545     1.282726     1.276908     1.271089
      1.265271     1.259452     1.253634     1.247815     1.241997     1.236178     1.230360     1.224541     1.218723     1.212904
      1.207086     1.201267     1.195449     1.189630     1.183812     1.177993     1.172175     1.166356     1.160538     1.154719
      1.148901     1.143082     1.137264     1.131445     1.125627     1.119808     1.113990     1.108171     1.102353     1.096534
      1.090716     1.084898     1.079079     1.073261     1.067442     1.061624     1.055805     1.049987     1.044168     1.038350
      1.032531     1.026713     1.020894     1.015076     1.009257     1.003439     0.997620     0.991802     0.985983     0.980165
      0.974346     0.968528     0.962709     0.956891     0.951072     0.945254     0.939435     0.933617     0.927798     0.921980
      0.916161     0.910343     0.904524     0.898706     0.892887     0.887069     0.881251     0.875432     0.869614     0.863795
      0.857977     0.852158     0.846340     0.840521     0.834703     0.828884     0.823066     0.817247     0.811429     0.805610
      0.799792     0.793973     0.788155     0.782336     0.776518     0.770699     0.764881     0.759062     0.753244     0.747425
      0.741607     0.735788     0.729970     0.724151     0.718333     0.712514     0.706696     0.700877     0.695059     0.689240
      0.683422     0.677603     0.671785     0.665967     0.660148     0.654330     0.648511     0.642693     0.636874     0.631056
      0.625237     0.619419     0.613600     0.607782     0.601963     0.596145     0.590326     0.584508     0.578689     0.572871
      0.567052     0.561234     0.555415     0.549597     0.543778     0.537960     0.532141     0.526323     0.520504     0.514686
      0.508867     0.503049     0.497230     0.491412     0.485593     0.479775     0.473956     0.468138     0.462319     0.456501
      0.450682     0.444864     0.439045     0.433227     0.427408     0.421590     0.415771     0.409953     0.404134     0.398316
      0.392497     0.386679     0.380860     0.375042     0.369223     0.363405     0.357586     0.351767     0.345949     0.340130
      0.334312     0.328493     0.322675     0.316856     0.311038     0.305219     0.299401     0.293582     0.287764     0.281945
      0.276127     0.270308     0.264490     0.258671     0.252853     0.247034     0.241216     0.235397     0.229579     0.223760
      0.217942     0.212123     0.206305     0.200486
 NY phased data points follow
   2.38630E-01 -6.65971E-01 -5.32925E-01 -1.63590E-01 -1.13384E+00 -6.32415E-01 -5.77085E-01 -4.40396E-01 -3.61630E-01 -5.55061E-01
  -6.78103E-02  1.89232E-02 -3.44880E-01  1.26083E-01 -3.86463E-02  6.34026E-02  5.71955E-01 -1.23706E-03  6.50623E-01  6.97022E-01
   9.86586E-02  3.74247E-01  4.83847E-01 -2.25828E-01  3.23104E-02  3.44831E-01  3.65162E-01  2.86064E-01 -5.29579E-01  5.60330E-01
   4.28188E-01 -2.59268E-01 -1.43893E-01 -1.16606E-01 -1.27017E-01 -2.91182E-01  5.67069E-02 -2.08520E-01 -5.58066E-02 -2.37652E-01
  -1.96585E-01 -1.85181E-01  1.79484E-01  2.82167E-01  1.08078E-01  1.57871E-01 -5.09453E-01  2.38536E-01  1.00146E-01  4.65826E-01
   2.67707E-01  6.91133E-02  5.78498E-01 -1.69752E-01  1.76602E-01 -2.69672E-01 -5.86233E-01 -3.16337E-01  1.38542E-01 -4.39505E-01
  -5.06973E-01 -1.83823E-01 -3.55108E-01 -1.95430E-02 -5.97108E-01 -1.37202E-01 -3.40209E-01  8.87748E-02  7.78272E-01  4.44224E-02
   1.53872E-01  4.34425E-01  1.02108E-01  1.07433E-01  3.54630E-02 -2.74100E-01 -3.13078E-01 -6.29143E-01 -2.95668E-01 -7.00432E-01
  -4.55710E-01 -4.60756E-01 -1.45962E-01  5.33220E-01  1.55817E-01  1.05123E+00  5.12832E-01  6.46719E-01  8.16233E-01  2.78462E-01
   3.69874E-01 -7.99686E-02  2.76598E-01  2.53351E-01  3.00944E-01  1.49656E-01  4.26600E-02  3.25894E-01 -3.82140E-01  1.55917E-01
   4.48136E-01 -1.05123E-01  6.75161E-01  3.25871E-01  2.86475E-01  6.99769E-01  3.81384E-01  4.70434E-01  8.30205E-02  7.42734E-01
   9.49579E-01  3.18017E-01  2.79035E-01  1.48435E-01  8.71191E-01  9.31047E-01  5.06361E-01  1.99987E-01  1.77000E-01  3.79431E-01
   3.83836E-01  7.79683E-01  1.25797E-01 -1.07110E-01 -2.62959E-01 -2.50631E-01 -2.76471E-01 -5.25413E-01 -2.55856E-01 -9.04379E-01
  -8.09530E-01 -6.07993E-01 -4.52875E-01 -1.07107E+00 -9.78119E-01 -7.84068E-01 -1.51851E+00 -1.01014E+00 -8.37009E-01 -5.04513E-01
  -5.53401E-01 -1.58080E-01 -1.54826E-01 -2.66612E-01  1.08067E-01 -4.74857E-01 -1.96005E-02  5.09297E-01  2.34239E-01  2.02213E-01
  -1.15198E-01 -4.40683E-01 -2.55287E-02  1.02622E-01  3.32100E-01  6.51710E-01  1.56540E-01 -3.27851E-01  5.29526E-02 -1.04844E-02
   2.22928E-01  7.43708E-01  3.38065E-01  1.93660E-01  5.84800E-01  7.90001E-01  5.22772E-01  8.28080E-01 -9.48109E-02 -9.47710E-01
  -5.67290E-01 -1.83130E-01 -7.92128E-01 -1.00522E+00 -4.47683E-01 -5.47571E-01 -1.40923E-01 -9.68620E-01 -4.47102E-01 -5.91873E-01
  -1.10728E+00 -6.08528E-01 -7.85954E-01 -2.34509E-01 -3.59460E-01  3.50602E-02 -4.40629E-02 -1.46059E-01 -5.22866E-01 -7.20058E-01
  -5.28628E-01 -3.00761E-01 -1.02247E-01 -1.56824E-01  4.07063E-02 -3.27367E-01 -9.27002E-02 -5.10032E-01 -8.87517E-02 -2.13374E-01
  -2.61189E-02  5.72709E-01  1.56456E-01  1.40853E-01 -2.61076E-01  2.14327E-01 -2.81560E-01  8.87851E-02 -1.71967E-01 -4.44420E-01
   3.41283E-01 -3.18252E-01  3.53433E-01  2.74731E-01 -4.35868E-01 -1.75003E-01  1.24517E-01  1.63581E-01 -1.37141E-01 -8.98893E-02
   2.62304E-01 -7.38769E-02  2.78854E-01  4.15833E-01  3.72784E-02  5.97598E-01  2.34359E-01  5.42901E-01  4.05619E-01 -1.55720E-01
   6.69379E-01  5.44177E-01  5.04932E-01  5.67014E-01 -5.45352E-01 -1.33536E-01  4.07071E-01 -1.25200E-01  2.28116E-01 -1.68819E-02
  -3.57935E-01 -1.73678E-01  2.73220E-02 -2.40175E-01 -4.57566E-01 -3.49193E-01 -4.07702E-02  4.12714E-01  1.29334E-01 -1.29908E-01
  -1.74038E-02 -3.79487E-01 -2.85140E-01  1.51825E-01 -3.20658E-01  1.00445E-03 -4.26795E-01  1.65324E-01  5.59904E-02 -6.91026E-01
   3.53866E-01 -2.98429E-01  1.99432E-01 -1.70451E-01 -1.17927E-01  5.19738E-02 -1.67936E-01  4.72635E-01  5.37513E-02  6.35554E-01
   2.97601E-01  1.46814E-01  2.61702E-01  3.93262E-02 -3.18360E-01  1.60143E-01  2.57496E-01 -2.29707E-01  1.92716E-01 -1.85176E-01
   2.28556E-01 -1.13497E-01 -3.52646E-01  8.96214E-02  1.19176E-01  5.78443E-01  4.66127E-01  7.20980E-01  9.96987E-01 -1.63728E-02
  -9.73152E-02  5.18157E-01  2.68280E-01  1.98983E-01  1.71147E-01  2.66863E-02 -1.62963E-01  2.05182E-01  3.51896E-01  6.13646E-02
   1.97894E-01  3.50615E-01  4.56501E-01  7.33500E-01  6.59515E-01  2.23957E-01  3.46145E-01  4.49295E-01  1.21069E-01  1.82691E-01
   5.48616E-02 -4.02837E-01 -1.30943E-01  1.53823E-01  3.13881E-01 -2.69049E-01  1.42063E-01  2.71660E-01 -3.22982E-01  5.98486E-02
  -5.01380E-01 -4.00650E-01 -2.66816E-01  1.23165E-01 -6.27853E-02 -2.00284E-02  7.99665E-03 -1.95974E-01  5.01118E-01 -3.68988E-01
   1.07536E-01  1.61361E-01 -3.34502E-01  8.13578E-02 -3.99324E-01 -3.23930E-01 -3.16926E-01 -8.33267E-01 -2.46306E-01 -1.44825E-01
  -7.45541E-01 -4.67250E-01 -1.40561E+00 -2.58957E+00 -1.68713E+00 -7.72504E-01 -6.66810E-01 -1.02380E-03 -2.06073E-01  1.15981E-02
  -3.96178E-02 -2.22342E-01  3.70109E-01  2.56015E-01  3.05810E-01  2.75305E-01  5.99269E-01  1.63209E-01  3.82412E-01  4.79981E-01
   6.36908E-01  5.18787E-01 -1.41687E-01  7.69181E-02 -1.31200E-03  2.68560E-01 -3.45586E-01  2.93703E-01  5.29582E-01  3.24326E-01
   8.06981E-03 -1.80968E-01  3.08575E-01 -2.98978E-01  2.46435E-01  2.87415E-01  2.57392E-01  3.78220E-01 -9.14973E-02 -3.24122E-01
   6.46080E-01  6.08010E-01  2.19301E-01  5.79118E-01 -6.19817E-02  3.52558E-01  5.32105E-01  2.37217E-01  9.70781E-02  1.24397E-01
  -1.48235E-01 -1.75974E-01  4.38806E-01  8.82365E-01 -4.82251E-02 -2.30303E-01  4.85699E-01 -3.02795E-01 -1.83985E-01 -3.38398E-01
  -2.98310E-02 -2.16778E-01 -3.47746E-01  1.58116E-01 -3.25256E-01 -7.77318E-02 -1.77230E-01 -2.67013E-01 -2.53016E-01 -1.10485E-01
  -2.28627E-01 -2.11305E-01  3.86329E-01  1.00695E-01 -7.85925E-02 -1.08095E-01 -4.99104E-01  1.13181E-01 -8.90669E-02 -3.05018E-01
  -8.86169E-02 -4.35105E-01 -1.36979E-01 -3.43850E-01 -8.61356E-03 -4.10548E-01 -6.63643E-01 -3.55905E-01 -3.00233E-01 -1.81711E-01
  -5.26328E-01 -4.77868E-01 -1.62192E-01  1.54184E-01 -5.86223E-01 -5.13363E-02  2.70437E-01 -2.15716E-01 -1.30563E-01 -1.56009E-02
   1.45063E-01  7.44459E-02  1.14239E-01  3.10619E-02  1.72831E-01 -1.41714E-01 -1.00102E-01 -2.37786E-01  2.86695E-01  2.48875E-01
   2.78122E-01  6.80944E-01 -1.16405E-01  3.63699E-01  1.02997E-01  3.35581E-02  1.89773E-01  5.50967E-02  2.39664E-01  4.15782E-01
   3.57833E-01  3.90343E-01  8.28662E-01  5.12553E-01  6.51897E-02 -2.53779E-01  2.91756E-01  2.31978E-01  5.62611E-01  6.51306E-01
  -3.65017E-01 -2.10140E-01 -1.23803E-01  2.10972E-02 -1.66551E-01 -1.87840E-01  1.56710E-01 -1.62046E-01  8.34931E-02  6.60380E-01
  -4.53667E-02 -3.54084E-01  2.38221E-01  4.64062E-02 -8.60454E-02 -3.03233E-01 -1.08459E-01  1.64707E-01 -3.03753E-01 -4.51023E-01
  -2.41106E-01 -4.21387E-01 -5.68433E-01  1.11472E-01  4.12529E-03  2.34295E-01  1.49612E-01 -1.55274E-01  3.88613E-01 -1.85061E-01
   3.60269E-01  5.18430E-01 -6.76908E-03  8.02441E-02  3.61404E-01  3.96925E-01 -1.78365E-01  8.65591E-03  2.41503E-01  3.71652E-01
   1.63969E-01 -3.16246E-03 -3.62624E-01  1.39280E-01  3.40354E-01  7.10361E-02 -1.94571E-01 -3.86650E-01  3.62028E-01 -1.70032E-01
   2.61712E-01  8.23528E-02 -3.58776E-01 -1.32662E-01 -1.73596E-01 -2.56425E-01 -4.35229E-01 -3.02313E-01 -7.71480E-01 -6.70988E-02
   1.56565E-02 -3.13535E-01 -4.79117E-01  9.96488E-02  8.63231E-02 -4.88575E-01 -3.02732E-01 -4.11440E-01  2.76035E-01 -3.52488E-01
  -2.11495E-02  2.74138E-01 -2.95085E-02  6.61817E-01  5.33086E-01 -1.61273E-01 -3.59777E-01  4.17393E-01  5.07411E-01  1.24683E-01
   5.12939E-02  5.40351E-01  4.13962E-01  2.89421E-01  3.92291E-01 -1.17034E-01 -9.93831E-02  4.94116E-01 -3.25997E-02 -3.28893E-02
   5.40852E-01 -5.53758E-01 -1.85551E-01 -2.05948E-01 -1.77434E-01  1.61941E-01 -4.95607E-01  1.51300E-01  5.87529E-02 -2.78649E-01
   3.56270E-02  3.40353E-02  3.63572E-02  4.90273E-02  9.31672E-03  4.88193E-01  3.63436E-01  2.31864E-01  1.52917E-01 -1.79713E-01
   3.69374E-01  2.21719E-01 -4.41420E-03  1.42195E-01  3.62443E-01  3.34624E-01  7.65673E-02  6.49747E-02  9.36587E-02 -2.38530E-01
  -3.11325E-01 -2.11000E-03 -1.97110E-01  3.53207E-01  4.98260E-01 -7.93999E-03 -2.29290E-01  1.98757E-01  3.87893E-01 -5.20356E-03
  -5.25395E-02 -6.22447E-01 -1.59891E-01  4.52207E-01  2.40568E-01  3.72317E-02 -2.75184E-01 -1.85509E-01  6.78500E-02  1.41750E-02
   2.28382E-01  1.48376E-01 -6.31425E-01  7.42343E-02  3.55006E-01 -1.17631E-01  3.49134E-01  3.07797E-01 -1.50261E-01  1.32213E-02
   3.64166E-01  3.35258E-01 -5.16294E-02 -3.04217E-01  9.57837E-02 -3.66702E-01  3.61377E-02  2.89208E-01 -1.84278E-01  2.65216E-01
   6.87836E-02  5.47730E-02  1.35546E-02  4.54951E-01  1.33769E-01 -6.48320E-02 -6.19615E-02 -2.92926E-01  5.09787E-01  1.79279E-01
  -1.25132E-01 -4.39960E-01 -2.88543E-01 -2.64107E-02  2.85591E-01  5.24911E-01 -9.22753E-02 -1.41479E-01  2.35312E-01  6.99609E-02
  -6.86922E-01 -1.92110E-01 -6.88782E-01 -4.85579E-01
 NY points of the fit to the data follow
   1.98622E-02 -4.26601E-03 -3.48185E-02 -6.19585E-02 -7.92138E-02 -8.70746E-02 -8.99731E-02 -9.09403E-02 -8.49538E-02 -4.10517E-02
   8.21496E-03  4.99615E-02  1.18891E-01  2.42926E-01  4.02960E-01  5.62002E-01  6.43063E-01  5.86036E-01  4.41446E-01  2.90947E-01
   1.68447E-01  8.57665E-02  3.28901E-02 -1.44269E-02 -6.30177E-02 -9.79569E-02 -1.26028E-01 -1.49673E-01 -1.70753E-01 -1.90287E-01
  -2.10058E-01 -2.31405E-01 -2.55872E-01 -2.81514E-01 -3.04916E-01 -3.25092E-01 -3.33508E-01 -3.23605E-01 -2.84675E-01 -2.18075E-01
  -1.28509E-01 -3.66090E-02  4.54127E-02  1.11355E-01  1.56392E-01  1.81280E-01  1.88763E-01  1.78334E-01  1.50414E-01  1.09664E-01
   5.73927E-02 -2.30510E-03 -6.01740E-02 -1.18416E-01 -1.79459E-01 -2.42937E-01 -3.03226E-01 -3.42094E-01 -3.70268E-01 -4.04264E-01
  -4.23111E-01 -4.40409E-01 -4.55893E-01 -4.28106E-01 -3.45345E-01 -2.24857E-01 -5.27997E-02  1.48174E-01  3.12395E-01  4.23781E-01
   4.74666E-01  4.45895E-01  3.56253E-01  2.28589E-01  8.39857E-02 -4.57901E-02 -1.82354E-01 -3.42799E-01 -4.79551E-01 -5.56201E-01
  -5.41314E-01 -3.97069E-01 -1.63678E-01  7.88655E-02  3.04695E-01  4.82341E-01  5.70188E-01  5.83516E-01  5.56171E-01  5.00830E-01
   4.36191E-01  3.79411E-01  3.15921E-01  2.44015E-01  1.66851E-01  8.26784E-02 -6.78484E-03 -8.86016E-02 -1.39506E-01 -1.34756E-01
  -6.42977E-02  5.32157E-02  1.82799E-01  2.90775E-01  3.59640E-01  3.93815E-01  4.07520E-01  4.13551E-01  4.17222E-01  4.20720E-01
   4.22613E-01  4.23262E-01  4.23559E-01  4.24161E-01  4.25590E-01  4.27028E-01  4.18752E-01  4.09859E-01  4.00884E-01  3.66620E-01
   3.14982E-01  2.41328E-01  1.42819E-01  2.12320E-02 -9.03920E-02 -2.03178E-01 -3.12230E-01 -3.96079E-01 -4.67823E-01 -5.67174E-01
  -6.12961E-01 -5.82063E-01 -5.73101E-01 -6.64238E-01 -8.56431E-01 -1.10525E+00 -1.25365E+00 -1.16956E+00 -9.18462E-01 -6.44044E-01
  -4.15249E-01 -2.68963E-01 -1.90549E-01 -1.30850E-01 -7.00843E-02 -2.76939E-02  6.13683E-03  3.48170E-02  6.00376E-02  8.27792E-02
   1.03902E-01  1.24249E-01  1.44381E-01  1.64816E-01  1.86412E-01  2.10004E-01  2.36359E-01  2.66664E-01  3.03160E-01  3.50296E-01
   4.18024E-01  4.88201E-01  5.20174E-01  5.46982E-01  5.89885E-01  5.94468E-01  4.95537E-01  2.62588E-01 -8.81290E-02 -4.34622E-01
  -6.31892E-01 -6.68965E-01 -6.15958E-01 -5.31501E-01 -4.62450E-01 -4.21354E-01 -3.84577E-01 -3.43333E-01 -3.12039E-01 -2.87286E-01
  -2.65788E-01 -2.46890E-01 -2.30370E-01 -2.16480E-01 -2.04688E-01 -1.94243E-01 -1.84335E-01 -1.74532E-01 -1.65091E-01 -1.56211E-01
  -1.47626E-01 -1.39053E-01 -1.30522E-01 -1.21985E-01 -1.13346E-01 -1.03820E-01 -9.38716E-02 -8.44917E-02 -7.50346E-02 -6.41406E-02
  -5.12365E-02 -3.88937E-02 -3.16339E-02 -3.07303E-02 -3.22403E-02 -3.19289E-02 -2.96388E-02 -2.94899E-02 -3.61726E-02 -4.88581E-02
  -6.10727E-02 -6.75251E-02 -6.80105E-02 -6.32715E-02 -5.36439E-02 -4.19747E-02 -3.12674E-02 -2.36299E-02 -1.61926E-02 -4.06724E-03
   1.44632E-02  3.55839E-02  6.16485E-02  1.08875E-01  1.76777E-01  2.43415E-01  2.92659E-01  3.20714E-01  3.33487E-01  3.43688E-01
   3.47131E-01  3.17665E-01  2.48425E-01  1.60756E-01  7.80283E-02  1.58887E-02 -2.11252E-02 -4.30959E-02 -6.11176E-02 -7.64151E-02
  -8.87164E-02 -9.95159E-02 -1.09108E-01 -1.18164E-01 -1.26019E-01 -1.33778E-01 -1.42863E-01 -1.51295E-01 -1.59050E-01 -1.67078E-01
  -1.70895E-01 -1.71470E-01 -1.77452E-01 -1.79402E-01 -1.71820E-01 -1.49759E-01 -1.15229E-01 -7.29257E-02 -2.58960E-02  1.88580E-02
   6.02174E-02  8.94253E-02  1.11131E-01  1.25652E-01  1.43595E-01  1.69442E-01  1.96797E-01  2.20883E-01  2.38615E-01  2.45936E-01
   2.35869E-01  2.10984E-01  1.72754E-01  1.24764E-01  7.27425E-02  2.10760E-02 -2.92507E-02 -8.07859E-02 -1.27011E-01 -1.67906E-01
  -1.94433E-01 -1.92283E-01 -1.51787E-01 -7.32050E-02  3.50947E-02  1.50162E-01  2.45044E-01  3.04751E-01  3.25285E-01  3.13931E-01
   2.86256E-01  2.56623E-01  2.32398E-01  2.17596E-01  2.13120E-01  2.16285E-01  2.23760E-01  2.30777E-01  2.34310E-01  2.32852E-01
   2.26739E-01  2.17932E-01  2.06596E-01  1.93913E-01  1.79461E-01  1.61090E-01  1.40551E-01  1.16338E-01  8.99125E-02  6.45635E-02
   4.27743E-02  2.46283E-02  1.23927E-02  3.76099E-03 -1.08082E-02 -3.43821E-02 -7.32765E-02 -1.26724E-01 -1.86476E-01 -2.39453E-01
  -2.76163E-01 -2.87356E-01 -2.68232E-01 -2.23645E-01 -1.57691E-01 -8.18954E-02 -9.51920E-03  4.84799E-02  8.15848E-02  8.23142E-02
   5.16946E-02  1.13929E-02 -3.43673E-02 -8.66696E-02 -1.43638E-01 -2.03600E-01 -3.34883E-01 -4.29515E-01 -4.47614E-01 -5.14857E-01
  -7.33525E-01 -1.07128E+00 -1.44569E+00 -1.65428E+00 -1.51337E+00 -1.14304E+00 -7.63190E-01 -4.66842E-01 -2.92974E-01 -2.17082E-01
  -1.64530E-01 -1.02756E-01 -6.74989E-02 -4.24625E-02 -2.39008E-02 -9.59689E-03 -4.72924E-04  3.42950E-03  1.09281E-03 -7.71843E-03
  -2.24655E-02 -4.04488E-02 -5.86762E-02 -7.41719E-02 -8.36828E-02 -8.60346E-02 -8.15002E-02 -7.15338E-02 -5.86136E-02 -4.48666E-02
  -3.16854E-02 -1.93760E-02 -8.58327E-03  8.51545E-04  8.60940E-03  1.51351E-02  2.07898E-02  2.59260E-02  3.07097E-02  3.50418E-02
   3.89052E-02  4.24162E-02  4.58382E-02  4.91376E-02  5.22644E-02  5.51015E-02  5.76437E-02  6.00744E-02  6.26022E-02  6.53055E-02
   6.80171E-02  7.04105E-02  7.20979E-02  7.29041E-02  7.28845E-02  7.22755E-02  7.13410E-02  7.00024E-02  6.81655E-02  6.57697E-02
   6.28435E-02  5.93601E-02  5.54804E-02  5.13999E-02  4.72152E-02  4.31269E-02  3.92406E-02  3.54347E-02  3.16569E-02  2.80471E-02
   2.46625E-02  2.15324E-02  1.87248E-02  1.61617E-02  1.37112E-02  1.12967E-02  8.97027E-03  6.80134E-03  4.81636E-03  3.07925E-03
   1.64845E-03  5.77423E-04 -7.00066E-05 -7.42060E-05  5.04215E-04  1.47417E-03  2.85085E-03  4.63877E-03  6.70121E-03  8.84232E-03
   1.08343E-02  1.24656E-02  1.40331E-02  1.60822E-02  1.89262E-02  2.24626E-02  2.64208E-02  3.05536E-02  3.48095E-02  3.94805E-02
   4.47526E-02  5.05219E-02  5.65422E-02  6.25892E-02  6.84021E-02  7.37923E-02  7.85834E-02  8.22880E-02  8.44780E-02  8.48023E-02
   8.29594E-02  7.86888E-02  7.20942E-02  7.09801E-02  7.43235E-02  8.25181E-02  9.90752E-02  1.27682E-01  1.75003E-01  2.47145E-01
   3.30686E-01  3.95790E-01  4.21347E-01  4.00469E-01  3.44279E-01  2.79437E-01  2.25512E-01  1.86763E-01  1.60189E-01  1.42146E-01
   1.27187E-01  1.15117E-01  1.06220E-01  9.94243E-02  9.43520E-02  9.09043E-02  8.88242E-02  8.77512E-02  8.74894E-02  8.79320E-02
   8.89724E-02  9.04865E-02  9.23551E-02  9.43171E-02  9.60239E-02  9.73554E-02  9.83944E-02  9.92615E-02  1.00175E-01  1.01119E-01
   1.01742E-01  1.01803E-01  1.01305E-01  1.00274E-01  9.87784E-02  9.69628E-02  9.48756E-02  9.26284E-02  9.03766E-02  8.81165E-02
   8.57629E-02  8.33264E-02  8.08843E-02  7.83911E-02  7.58050E-02  7.31728E-02  7.06281E-02  6.82514E-02  6.60404E-02  6.38812E-02
   6.15536E-02  5.89104E-02  5.58686E-02  5.22852E-02  4.80470E-02  4.31092E-02  3.75937E-02  3.14593E-02  2.44363E-02  1.62204E-02
   6.75719E-03 -3.78758E-03 -1.49844E-02 -2.63740E-02 -3.76284E-02 -4.84379E-02 -5.86085E-02 -6.80988E-02 -7.66927E-02 -8.40096E-02
  -8.97416E-02 -9.37498E-02 -9.60895E-02 -9.70458E-02 -9.67942E-02 -9.53514E-02 -9.28614E-02 -8.97922E-02 -8.64560E-02 -8.29667E-02
  -7.92714E-02 -7.51675E-02 -7.04754E-02 -6.51854E-02 -5.95032E-02 -5.34574E-02 -4.71283E-02 -4.07394E-02 -3.44831E-02 -2.83551E-02
  -2.23495E-02 -1.64504E-02 -1.07718E-02 -5.48885E-03 -5.65851E-04  4.06852E-03  8.45678E-03  1.25693E-02  1.62439E-02  1.93952E-02
   2.22060E-02  2.48317E-02  2.71204E-02  2.90310E-02  3.06673E-02  3.20271E-02  3.31445E-02  3.41775E-02  3.51080E-02  3.59064E-02
   3.67707E-02  3.78625E-02  3.90399E-02  4.01730E-02  4.12059E-02  4.19156E-02  4.22344E-02  4.23921E-02  4.24189E-02  4.22741E-02
   4.21143E-02  4.19661E-02  4.17813E-02  4.16003E-02  4.13521E-02  4.10781E-02  4.10054E-02  4.10261E-02  4.07810E-02  4.01146E-02
   3.91192E-02  3.80335E-02  3.72120E-02  3.67746E-02  3.64641E-02  3.61091E-02  3.55812E-02  3.48118E-02  3.39018E-02  3.31411E-02
   3.27301E-02  3.26445E-02  3.27230E-02  3.28391E-02  3.29283E-02  3.30046E-02  3.30158E-02  3.30024E-02  3.29541E-02  3.28164E-02
   3.25061E-02  3.19829E-02  3.12077E-02  3.03636E-02  2.96553E-02  2.92345E-02  2.91466E-02  2.91832E-02  2.91453E-02  2.89626E-02
   2.86836E-02  2.85712E-02  2.87809E-02  2.90803E-02  2.89791E-02  2.82708E-02  2.70543E-02  2.57310E-02  2.46722E-02  2.38974E-02
   2.30838E-02  2.19576E-02  2.06720E-02  1.94441E-02  1.82820E-02  1.71056E-02  1.59263E-02  1.47129E-02  1.35582E-02  1.25561E-02
   1.14999E-02  1.03024E-02  9.08621E-03  7.84135E-03  6.60638E-03  5.52275E-03  4.70145E-03  4.10383E-03  3.73963E-03  3.30919E-03
   2.50683E-03  1.32191E-03 -9.36331E-05 -1.58511E-03
 NY background values follow
     1.774E-02    1.770E-02    1.767E-02    1.764E-02    1.760E-02    1.757E-02    1.754E-02    1.751E-02    1.747E-02    1.744E-02
     1.741E-02    1.737E-02    1.734E-02    1.731E-02    1.727E-02    1.724E-02    1.721E-02    1.717E-02    1.714E-02    1.711E-02
     1.708E-02    1.704E-02    1.701E-02    1.698E-02    1.694E-02    1.691E-02    1.688E-02    1.684E-02    1.681E-02    1.678E-02
     1.674E-02    1.671E-02    1.668E-02    1.665E-02    1.661E-02    1.658E-02    1.655E-02    1.651E-02    1.648E-02    1.645E-02
     1.641E-02    1.638E-02    1.635E-02    1.631E-02    1.628E-02    1.625E-02    1.621E-02    1.618E-02    1.615E-02    1.612E-02
     1.608E-02    1.605E-02    1.602E-02    1.598E-02    1.595E-02    1.592E-02    1.588E-02    1.585E-02    1.582E-02    1.578E-02
     1.575E-02    1.572E-02    1.568E-02    1.565E-02    1.562E-02    1.558E-02    1.555E-02    1.552E-02    1.548E-02    1.545E-02
