 
 $NMID
 ID=''
 FMTDAT='(2E13.5)'
 TRAMP=   1.00000E+0
 VOLUME=   1.00000E+0
 $END
   5.49689E+2  -4.54528E+2
   8.07748E+2   2.92840E+3
   3.67013E+3  -5.05434E+3
   2.26288E+3  -1.52804E+3
  -9.30433E+2  -2.51336E+3
   9.55269E+2  -5.76830E+3
  -4.35549E+3  -7.41256E+2
  -5.69848E+3  -2.58556E+3
  -2.73778E+3  -1.19997E+3
  -2.72523E+3  -1.38394E+2
   3.66713E+2  -4.85564E+2
   9.13373E+2   1.12361E+3
   7.10987E+2   2.99316E+3
  -1.37481E+3   2.16971E+3
  -2.59848E+3   1.28421E+3
  -5.77739E+2  -8.31595E+1
   2.21221E+3  -8.49808E+2
   4.45079E+3   1.14103E+3
   2.32388E+3   8.02930E+2
   6.45743E+2  -2.74860E+3
   3.01807E+3  -3.27314E+3
   4.21091E+3   2.11402E+3
  -1.68782E+3   9.57213E+2
  -3.20936E+3  -4.19346E+3
   7.60649E+2  -4.68575E+3
   2.22942E+3   9.77956E+2
  -2.47025E+3   2.89441E+3
  -4.60776E+3  -1.78291E+3
  -1.59083E+3  -3.85598E+3
   2.64808E+3  -2.64578E+3
   6.65586E+3   3.37428E+3
   5.17616E+2   6.66546E+3
  -4.60136E+3   2.66424E+3
  -2.94918E+2  -1.56595E+3
  -3.58214E+2   2.27510E+3
  -2.89774E+3  -3.52088E+2
  -4.19792E+1  -3.51803E+3
   3.74211E+3  -3.99128E+3
   3.83723E+3   9.83599E+2
   3.22306E+3   8.14125E+2
   1.16104E+3   2.43311E+3
  -3.80894E+3   2.36846E+3
  -1.59447E+3  -6.21947E+3
   2.13452E+3  -5.67972E+3
   3.01883E+3  -3.71020E+3
   3.01798E+3  -3.98222E+2
   2.14711E+3  -1.61089E+3
   1.99934E+3   9.76920E+2
   3.37739E+2   2.81861E+3
  -3.70555E+3  -4.60658E+2
  -3.12031E+3  -2.27128E+3
  -1.97517E+3  -2.22944E+3
   2.03913E+3  -2.49211E+3
   3.52306E+3   5.39806E+1
   7.86930E+2   1.80182E+3
   4.72185E+2  -4.92973E+2
  -1.09830E+3   1.86818E+3
  -3.13706E+3   1.71626E+1
  -3.54972E+3  -4.75015E+3
   1.92670E+2  -5.50522E+3
   3.23907E+3  -4.56017E+3
   4.60844E+3  -1.34714E+3
   4.32451E+3   2.97675E+3
  -2.59775E+2   2.68069E+3
   1.07103E+3   1.82942E+2
   3.00164E+3  -5.50397E+2
   4.68983E+2   3.72637E+3
  -2.88496E+3   1.65642E+3
  -2.35232E+3  -7.39256E+2
   1.52338E+3  -6.41769E+2
   1.16697E+3   4.89972E+2
  -3.02167E+3   1.97327E+3
  -3.61433E+3  -9.00126E+2
  -7.76298E+2  -7.93933E+2
  -1.54199E+3   9.10592E+2
  -1.08053E+3   1.88992E+3
  -1.77931E+3  -5.27897E+2
  -7.36603E+1  -2.98328E+3
  -7.45227E+2   1.63762E+2
   2.19073E+3   3.27949E+3
  -2.82085E+3   2.44734E+3
  -3.59697E+3   1.12606E+3
   1.16280E+3   1.85660E+3
  -2.79660E+2   3.57157E+3
  -1.38719E+3   1.86181E+3
  -4.49203E+3   1.98288E+3
  -2.88623E+3  -1.75850E+3
  -5.68880E+2  -3.61386E+3
   1.48332E+3   6.64531E+1
  -7.17107E+2   2.43390E+3
  -2.26905E+3   1.72194E+3
   2.03936E+3   2.09258E+3
  -7.62243E+2   3.24760E+3
  -1.07438E+3   3.15968E+3
  -1.84367E+3   9.00773E+2
  -2.12037E+3  -1.52347E+3
   5.17248E+2  -3.40489E+3
   2.25578E+3   1.06312E+3
   7.78328E+2   2.10745E+3
  -2.96579E+3  -6.21343E+2
  -5.83710E+2  -1.67240E+3
   1.93496E+3   1.39858E+3
   3.27877E+3   1.64966E+3
   1.33544E+3   3.16767E+3
  -7.07916E+2   1.52568E+3
  -2.74588E+2   1.74144E+3
   3.37044E+2   1.29602E+3
  -3.26471E+3   2.15162E+3
  -1.45818E+3  -1.64910E+3
  -2.37126E+2  -4.07210E+3
   5.79973E+2  -2.39939E+3
   1.69388E+3   1.95820E+3
  -9.74708E+2   2.23979E+3
  -6.27294E+2   2.40853E+3
  -6.74624E+2   2.65811E+3
  -1.98906E+3   1.76538E+3
  -1.52776E+3  -1.86109E+3
  -6.57758E+2   5.94870E+2
  -1.28793E+3  -1.40554E+3
  -6.25241E+1  -2.53637E+2
   1.73726E+3   2.09178E+3
  -7.76150E+2   8.66755E+2
  -8.00440E+2   6.83784E+2
  -1.27529E+3   3.55603E+1
   1.70993E+2  -2.27439E+2
  -8.05225E+2   8.92995E+1
  -5.62612E+2  -5.91242E+2
   6.75414E+2   1.01061E+3
   5.43579E+2   3.93457E+2
  -6.77067E+2   9.90794E+2
  -2.07479E+3  -7.43045E+2
  -1.64467E+3  -1.79310E+3
   2.36424E+3  -4.04478E+3
   2.63959E+3   2.18688E+3
   7.80217E+2   5.48116E+2
  -1.47569E+2   1.19992E+3
  -2.61989E+3   5.68666E+2
  -3.60703E+2  -9.35806E+2
   1.43691E+3   2.07804E+2
  -1.29301E+2  -9.61365E+0
   8.80227E+1  -9.02890E+2
   1.11337E+3  -2.46678E+1
   1.62603E+3   4.65475E+1
   2.36435E+3   2.27012E+3
  -1.61191E+2   1.49572E+3
   1.78994E+3   1.32436E+3
   9.68106E+2  -7.22272E+2
   9.79144E+2   1.34672E+3
   5.98506E+2   3.33180E+2
   1.61867E+3   4.27404E+1
  -6.38035E+2   1.72989E+3
  -1.39722E+3   8.40712E+2
   1.97335E+2   8.71468E+2
   1.19602E+3  -1.59167E+3
   1.19112E+3  -2.08454E+3
  -4.18804E+2  -1.43429E+3
   1.82943E+3  -1.26719E+3
  -1.17447E+3   5.72649E+2
   1.07117E+3  -1.59510E+2
  -2.39819E+2  -1.43309E+3
  -5.98464E+1   1.16200E+3
  -8.86389E+2   1.19280E+2
  -2.15692E+3   1.09582E+3
   2.24500E+2  -2.79371E+3
   3.52144E+1   1.03358E+3
  -5.05264E+2   2.37644E+3
  -8.18583E+2  -1.14225E+3
   2.27957E+3  -2.54733E+3
   1.62928E+3  -8.23704E+2
  -2.30357E+2   1.20723E+3
  -1.56482E+3   4.80281E+2
  -1.20274E+3  -1.20479E+3
  -1.54329E+2  -2.11883E+3
   8.11792E+2  -2.22538E+3
   1.22635E+2  -2.15999E+3
   1.56818E+3  -1.45800E+3
   1.40354E+3  -1.23251E+2
   3.02576E+3   9.96621E+2
   1.04764E+3   1.31322E+3
  -5.74373E+2   2.71619E+3
  -1.07383E+3   1.67155E+3
  -1.72765E+3  -2.55090E+3
  -5.94609E+2  -1.20758E+3
  -2.83114E+2  -5.43413E+2
   1.67646E+3   2.28367E+2
   4.47126E+2  -2.00020E+2
   8.96983E+2   1.49708E+3
  -2.84075E+2   3.14192E+2
  -6.32635E+2  -3.13217E+3
  -6.54915E+2  -1.92960E+3
  -1.33900E+3  -7.52873E+1
   2.97045E+3  -3.84595E+2
  -5.60572E+2  -9.26407E+2
   1.16837E+3  -1.72987E+2
  -1.27637E+3  -6.03606E+2
  -1.01943E+3  -1.56770E+3
  -6.47255E+2   1.49447E+3
   6.25772E+2   5.22280E+2
   9.75363E+2   4.10450E+2
   9.13045E+2  -1.56490E+2
   1.40942E+2   1.19263E+3
  -8.02270E+2   1.81722E+3
  -5.27260E+2  -8.11854E+2
  -1.18008E+3  -7.29143E+2
   2.71913E+3  -3.04384E+3
   1.59897E+3   1.55383E+3
   2.14268E+2  -6.36187E+2
   2.04101E+2   6.90941E+2
   8.99633E+2  -2.52835E+3
  -6.81410E+2   1.28562E+3
   3.33688E+2   6.08882E+2
  -1.72872E+3  -9.44049E+2
  -1.17479E+3  -6.56471E+2
   3.06647E+3  -5.98845E+2
   1.10339E+3  -3.75491E+2
  -2.19800E+3  -4.38787E+1
  -1.75212E+3   1.13559E+3
   6.32096E+2   3.75112E+2
  -7.38219E+2  -6.21772E+1
  -2.38731E+2  -3.85155E+2
  -7.63657E+1  -1.96672E+3
   1.46650E+3  -1.67910E+2
  -2.41220E+2  -2.36067E+2
   1.45959E+3   1.38323E+2
  -1.74500E+3  -1.77106E+2
   3.50640E+2  -2.16132E+3
   8.10621E+2  -7.72555E+2
   7.72577E+2   6.13382E+2
  -1.64267E+2   1.17251E+3
  -4.73101E+2   5.73981E+2
   6.11623E+2  -8.83708E+2
  -1.76930E+1   2.21968E+2
   2.90723E+2  -5.37730E+2
  -1.85922E+3   5.33470E+2
   1.18340E+3  -1.43012E+3
   2.83019E+3  -4.22615E+2
   1.42041E+3   8.92061E+1
  -2.64583E+3   1.57979E+2
  -1.70930E+3  -7.08177E+2
  -1.42277E+3  -5.29956E+2
   5.04613E+2   3.04868E+2
   9.99814E+2  -6.17797E+1
   2.39685E+2   2.10118E+3
   2.25946E+2   2.70980E+2
  -9.50074E+1  -7.34660E+2
   1.12672E+3  -2.06091E+2
  -3.00551E+3   2.56952E+2
  -9.24595E+2   9.22917E+2
   9.18897E+2  -1.75104E+3
   7.96601E+2   1.25061E+2
   2.29457E+3   1.50448E+3
   1.01118E+2   7.47381E+2
   1.88336E+2  -1.92484E+3
   6.27465E+2  -1.30709E+3
  -1.44093E+3  -1.40615E+3
  -3.88403E+2  -1.20258E+3
   2.70721E+2  -1.52403E+3
   1.89373E+3   2.11728E+2
   1.98730E+3   1.74508E+2
   2.01089E+2   5.15604E+2
  -2.89383E+3   2.28366E+2
   7.78071E+1  -1.81599E+3
   1.29031E+3   8.50205E+2
   9.57510E+1   4.55174E+2
   2.35560E+3   8.17561E+2
  -6.72922E+2   9.21048E+2
  -1.91058E+3   1.15264E+3
   1.11496E+3   2.03445E+2
   4.91409E+2   1.50598E+3
  -3.57138E+2   8.80900E+2
  -4.29834E+2   7.78240E+1
   2.14152E+3  -1.85205E+3
  -1.21137E+3   2.11417E+3
  -2.44264E+2   1.73841E+3
  -1.60087E+3   1.26609E+3
   2.08983E+3  -9.12054E+2
   3.75163E+2  -1.27593E+2
   7.48254E+2  -6.78129E+2
  -1.02868E+3   4.76495E+2
   1.23785E+3  -1.64571E+3
   2.52494E+3  -8.65582E+2
   7.39578E+2   1.14380E+3
   8.31379E+2  -8.84076E+2
  -1.61517E+3   4.47564E+1
   1.50766E+2  -3.22322E+2
   1.19694E+3  -1.92527E+2
  -7.28480E+2  -2.09952E+1
  -3.53685E+2  -1.02342E+3
   3.78228E+2  -6.37282E+2
  -2.08790E+2  -8.26927E+2
   2.60430E+2  -1.13804E+3
  -4.74544E+2  -1.89415E+3
   8.84005E+2   1.10700E+2
   2.74609E+3   4.76777E+2
  -5.26605E+2   4.01582E+3
   5.77137E+2  -1.78218E+2
  -1.89903E+3   1.59004E+1
  -7.42631E+2  -3.33953E+3
  -1.17853E+3   5.51537E+1
  -2.35311E+1   3.57157E+2
   2.37333E+2  -4.98593E+2
   5.18360E+2  -1.55916E+3
   2.84816E+2  -1.77572E+3
   4.97931E+2  -5.72248E+2
   5.95398E+0  -6.10471E+2
   5.49760E+2  -7.65058E+2
  -1.07578E+3  -1.08309E+3
  -1.36312E+2   1.31859E+2
   1.54099E+3   1.28444E+3
   1.62945E+3   5.10287E+2
  -4.17565E+2  -9.99761E+2
  -4.20228E+2  -3.34900E+2
  -1.65755E+1  -4.09874E+2
  -7.62253E+2   3.10908E+2
  -4.30870E+2  -1.45460E+3
   2.21984E+2  -7.37134E+2
   1.53242E+3  -3.69541E+1
  -6.83172E+2   5.36818E+2
  -9.02647E+2  -8.66230E+1
  -4.58109E+2   2.30142E+2
  -7.11863E+2  -2.54786E+3
   1.44339E+3   9.57552E+2
  -1.49124E+3  -6.96258E+1
   8.05331E+2   1.09778E+3
   6.90750E+2   7.13123E+2
   8.49022E+2   6.71327E+2
   9.91028E+2  -3.87708E+2
  -2.78283E+2  -9.43181E+2
  -7.17255E+1  -2.19523E+3
  -1.52157E+2  -1.60344E+3
  -2.08614E+2   1.72895E+3
   1.20231E+2   1.50885E+3
  -7.18123E+2  -3.08209E+2
  -1.75864E+3  -1.70942E+3
   5.70242E+2   1.90768E+3
   5.41176E+0   3.21280E+3
  -2.61163E+3  -1.25928E+2
   5.05470E+2  -3.31171E+2
   1.80330E+3  -6.89312E+1
  -3.38034E+2   3.99164E+2
  -8.10107E+2   1.20900E+2
   1.25133E+3  -1.73818E+3
   2.01244E+3  -8.94240E+2
   2.96960E+2   8.86626E+2
   1.51098E+3  -1.20935E+2
  -9.85772E+2   1.41305E+3
  -3.57968E+2  -5.99762E+2
  -8.07465E+2  -4.63987E+1
   8.04486E+2   8.78351E+1
  -1.76588E+2   6.85492E+2
  -1.39822E+2  -1.11891E+3
  -7.72871E+2  -2.15434E+3
  -1.53800E+3   1.72016E+2
   1.14435E+3   8.71703E+2
  -2.14932E+3  -1.18867E+3
   1.86009E+3  -1.80411E+3
   1.91587E+2  -3.23602E+2
   9.92962E+2   6.90305E+0
  -4.81590E+2   6.36663E+2
  -4.06097E+2   1.64904E+3
   1.66039E+2  -1.89639E+2
  -7.08770E+2   1.31654E+3
  -1.63187E+3   2.07062E+3
  -7.09022E+2  -1.68892E+3
  -8.89465E+2  -1.50504E+3
  -9.69695E+2  -7.57391E+2
   9.55867E+2   1.08864E+3
