 LCModel (Version 6.3-1N) Copyright: S.W. Provencher.          Ref.: Magn. Reson. Med. 30:672-679 (1993).                
 Slice_N1@25_12  02-Jun-2023 14:37:53
 27 lines in following concentration table = NCONC+1
    Conc.  %SD /Cr+PCr  Metabolite                                         
 3.07E-06  12% 3.6E-04 Mac                                                 
 4.33E-02  73%   5.020 Cr                                                  
 2.57E-02 125%   2.980 PCr                                                 
 9.85E-02  12%  11.423 Ins                                                 
    0.105   8%  12.162 NAA                                                 
 5.80E-02  19%   6.717 Tau                                                 
    0.000 999%   0.000 PCho                                                
 2.25E-02  13%   2.603 GPC                                                 
 8.47E-02  14%   9.823 Glu                                                 
 2.12E-02  39%   2.460 Gln                                                 
    0.000 999%   0.000 Ala                                                 
 6.73E-02  25%   7.796 Asc                                                 
 1.17E-02  93%   1.359 Asp                                                 
 1.77E-02  33%   2.053 GABA                                                
 3.36E-03 218%   0.390 Glc                                                 
 8.34E-03  56%   0.967 GSH                                                 
    0.000 999%   0.000 Lac                                                 
    0.000 999%   0.000 NAAG                                                
    0.000 999%   0.000 PE                                                  
 2.25E-02  13%   2.603 GPC+PCho                                            
    0.105   8%  12.162 NAA+NAAG                                            
    0.106  14%  12.284 Glu+Gln                                             
 6.90E-02  12%   8.000 Cr+PCr                                              
    0.105   8%  12.162 NAA+NAAG                                            
 6.90E-02  12%   8.000 Cr+PCr                                              
    0.106  14%  12.284 Glu+Gln                                             
   6 lines in following misc. output table
  FWHM = 0.058 ppm    S/N =   3                                            
  Data shift = 0.105 ppm                                                   
  Ph: -32 deg     -10.1 deg/ppm                                            
  alphaB,S = 3.1E-01,   7.1E+01                                            
   18 spline knots.   Ns =10(1)                                            
  ( 9) 2 infls.   ( 4) 1 extrs.                                            
  654 points on ppm-axis = NY
      4.000000     3.994181     3.988363     3.982544     3.976726     3.970907     3.965088     3.959270     3.953451     3.947633
      3.941814     3.935995     3.930177     3.924358     3.918540     3.912721     3.906902     3.901084     3.895265     3.889446
      3.883628     3.877809     3.871991     3.866172     3.860353     3.854535     3.848716     3.842898     3.837079     3.831260
      3.825442     3.819623     3.813805     3.807986     3.802167     3.796349     3.790530     3.784712     3.778893     3.773074
      3.767256     3.761437     3.755619     3.749800     3.743981     3.738163     3.732344     3.726526     3.720707     3.714888
      3.709070     3.703251     3.697433     3.691614     3.685795     3.679977     3.674158     3.668339     3.662521     3.656702
      3.650884     3.645065     3.639246     3.633428     3.627609     3.621791     3.615972     3.610153     3.604335     3.598516
      3.592698     3.586879     3.581060     3.575242     3.569423     3.563605     3.557786     3.551967     3.546149     3.540330
      3.534512     3.528693     3.522874     3.517056     3.511237     3.505419     3.499600     3.493781     3.487963     3.482144
      3.476326     3.470507     3.464688     3.458870     3.453051     3.447232     3.441414     3.435595     3.429777     3.423958
      3.418139     3.412321     3.406502     3.400684     3.394865     3.389046     3.383228     3.377409     3.371591     3.365772
      3.359953     3.354135     3.348316     3.342498     3.336679     3.330860     3.325042     3.319223     3.313405     3.307586
      3.301767     3.295949     3.290130     3.284312     3.278493     3.272674     3.266856     3.261037     3.255219     3.249400
      3.243581     3.237763     3.231944     3.226125     3.220307     3.214488     3.208670     3.202851     3.197032     3.191214
      3.185395     3.179577     3.173758     3.167939     3.162121     3.156302     3.150484     3.144665     3.138846     3.133028
      3.127209     3.121391     3.115572     3.109753     3.103935     3.098116     3.092298     3.086479     3.080660     3.074842
      3.069023     3.063205     3.057386     3.051567     3.045749     3.039930     3.034111     3.028293     3.022474     3.016656
      3.010837     3.005018     2.999200     2.993381     2.987563     2.981744     2.975925     2.970107     2.964288     2.958470
      2.952651     2.946832     2.941014     2.935195     2.929377     2.923558     2.917739     2.911921     2.906102     2.900284
      2.894465     2.888646     2.882828     2.877009     2.871191     2.865372     2.859553     2.853735     2.847916     2.842098
      2.836279     2.830460     2.824642     2.818823     2.813004     2.807186     2.801367     2.795549     2.789730     2.783911
      2.778093     2.772274     2.766456     2.760637     2.754818     2.749000     2.743181     2.737363     2.731544     2.725725
      2.719907     2.714088     2.708270     2.702451     2.696632     2.690814     2.684995     2.679177     2.673358     2.667539
      2.661721     2.655902     2.650084     2.644265     2.638446     2.632628     2.626809     2.620991     2.615172     2.609353
      2.603535     2.597716     2.591897     2.586079     2.580260     2.574442     2.568623     2.562804     2.556986     2.551167
      2.545349     2.539530     2.533711     2.527893     2.522074     2.516256     2.510437     2.504618     2.498800     2.492981
      2.487163     2.481344     2.475525     2.469707     2.463888     2.458070     2.452251     2.446432     2.440614     2.434795
      2.428977     2.423158     2.417339     2.411521     2.405702     2.399884     2.394065     2.388246     2.382428     2.376609
      2.370790     2.364972     2.359153     2.353335     2.347516     2.341697     2.335879     2.330060     2.324242     2.318423
      2.312604     2.306786     2.300967     2.295149     2.289330     2.283511     2.277693     2.271874     2.266056     2.260237
      2.254418     2.248600     2.242781     2.236963     2.231144     2.225325     2.219507     2.213688     2.207870     2.202051
      2.196232     2.190414     2.184595     2.178777     2.172958     2.167139     2.161321     2.155502     2.149683     2.143865
      2.138046     2.132228     2.126409     2.120590     2.114772     2.108953     2.103135     2.097316     2.091497     2.085679
      2.079860     2.074042     2.068223     2.062404     2.056586     2.050767     2.044949     2.039130     2.033311     2.027493
      2.021674     2.015856     2.010037     2.004218     1.998400     1.992581     1.986763     1.980944     1.975126     1.969307
      1.963489     1.957670     1.951852     1.946033     1.940215     1.934397     1.928578     1.922760     1.916941     1.911123
      1.905304     1.899486     1.893667     1.887849     1.882030     1.876212     1.870393     1.864575     1.858756     1.852938
      1.847119     1.841301     1.835482     1.829664     1.823845     1.818027     1.812208     1.806390     1.800571     1.794753
      1.788934     1.783116     1.777297     1.771479     1.765660     1.759842     1.754023     1.748205     1.742386     1.736568
      1.730749     1.724931     1.719113     1.713294     1.707476     1.701657     1.695839     1.690020     1.684202     1.678383
      1.672565     1.666746     1.660928     1.655109     1.649291     1.643472     1.637654     1.631835     1.626017     1.620198
      1.614380     1.608561     1.602743     1.596924     1.591106     1.585287     1.579469     1.573650     1.567832     1.562013
      1.556195     1.550376     1.544558     1.538739     1.532921     1.527102     1.521284     1.515465     1.509647     1.503829
      1.498010     1.492192     1.486373     1.480555     1.474736     1.468918     1.463099     1.457281     1.451462     1.445644
      1.439825     1.434007     1.428188     1.422370     1.416551     1.410733     1.404914     1.399096     1.393277     1.387459
      1.381640     1.375822     1.370003     1.364185     1.358366     1.352548     1.346729     1.340911     1.335092     1.329274
      1.323455     1.317637     1.311818     1.306000     1.300182     1.294363     1.288545     1.282726     1.276908     1.271089
      1.265271     1.259452     1.253634     1.247815     1.241997     1.236178     1.230360     1.224541     1.218723     1.212904
      1.207086     1.201267     1.195449     1.189630     1.183812     1.177993     1.172175     1.166356     1.160538     1.154719
      1.148901     1.143082     1.137264     1.131445     1.125627     1.119808     1.113990     1.108171     1.102353     1.096534
      1.090716     1.084898     1.079079     1.073261     1.067442     1.061624     1.055805     1.049987     1.044168     1.038350
      1.032531     1.026713     1.020894     1.015076     1.009257     1.003439     0.997620     0.991802     0.985983     0.980165
      0.974346     0.968528     0.962709     0.956891     0.951072     0.945254     0.939435     0.933617     0.927798     0.921980
      0.916161     0.910343     0.904524     0.898706     0.892887     0.887069     0.881251     0.875432     0.869614     0.863795
      0.857977     0.852158     0.846340     0.840521     0.834703     0.828884     0.823066     0.817247     0.811429     0.805610
      0.799792     0.793973     0.788155     0.782336     0.776518     0.770699     0.764881     0.759062     0.753244     0.747425
      0.741607     0.735788     0.729970     0.724151     0.718333     0.712514     0.706696     0.700877     0.695059     0.689240
      0.683422     0.677603     0.671785     0.665967     0.660148     0.654330     0.648511     0.642693     0.636874     0.631056
      0.625237     0.619419     0.613600     0.607782     0.601963     0.596145     0.590326     0.584508     0.578689     0.572871
      0.567052     0.561234     0.555415     0.549597     0.543778     0.537960     0.532141     0.526323     0.520504     0.514686
      0.508867     0.503049     0.497230     0.491412     0.485593     0.479775     0.473956     0.468138     0.462319     0.456501
      0.450682     0.444864     0.439045     0.433227     0.427408     0.421590     0.415771     0.409953     0.404134     0.398316
      0.392497     0.386679     0.380860     0.375042     0.369223     0.363405     0.357586     0.351767     0.345949     0.340130
      0.334312     0.328493     0.322675     0.316856     0.311038     0.305219     0.299401     0.293582     0.287764     0.281945
      0.276127     0.270308     0.264490     0.258671     0.252853     0.247034     0.241216     0.235397     0.229579     0.223760
      0.217942     0.212123     0.206305     0.200486
 NY phased data points follow
  -1.96824E-01  8.75784E-02  6.60531E-02 -2.94538E-02  4.76429E-02 -2.88287E-01  1.70216E-01  6.56083E-02  6.07817E-02  3.77117E-01
   1.97855E-01  1.72031E-01  2.81565E-01  4.37564E-01  3.30820E-01  4.11918E-01  2.19528E-01  2.61913E-01  4.73651E-01  4.10487E-01
   1.12821E-01  1.89154E-01  2.74453E-01 -2.35530E-02  2.46562E-03 -1.36349E-01  2.35425E-02 -1.55566E-01 -1.47746E-01 -3.76144E-01
  -5.14127E-01 -2.82184E-01 -6.92004E-01 -4.10871E-01 -4.21102E-01 -1.98823E-01 -3.05558E-01 -7.42204E-01 -2.40968E-01 -2.36555E-01
  -3.19538E-01 -7.62806E-02  2.92828E-01  2.01099E-01  1.97925E-01  3.36050E-01  1.35115E-01  3.00270E-01  2.95063E-01  1.70879E-01
   2.68626E-01  2.84731E-01  1.92107E-01  1.67266E-01 -1.66810E-01 -2.05316E-01 -2.43792E-04 -2.75993E-01 -2.79516E-01 -1.52005E-01
  -1.59903E-02 -9.35435E-02 -2.57554E-01 -2.33062E-01 -1.81849E-01 -1.54860E-01  4.67358E-02  1.22659E-01  9.47703E-02  2.84918E-01
  -2.83147E-02  2.85137E-01  7.36343E-01  3.60774E-01 -6.09355E-02  6.05050E-02  2.64396E-01  9.17547E-02  1.11152E-01 -1.59738E-01
  -8.72154E-02  5.83264E-02 -1.86669E-02 -1.05027E-01 -3.02636E-02  2.82882E-01  3.60921E-01  2.97654E-01  2.46914E-01  3.20439E-01
   1.63346E-01  3.73347E-01  2.83247E-01  1.02504E-01  1.47690E-01  2.10751E-01  2.61754E-01  2.09256E-01  1.18741E-01 -1.55453E-01
   1.24351E-02 -3.52160E-01  1.33903E-01  4.04235E-01  1.50392E-02  2.56816E-01  1.78509E-01  6.38331E-01  6.92673E-01  5.08945E-01
   6.34790E-01  4.53405E-01  1.85951E-01  5.29847E-01  4.47807E-01  2.82689E-01  4.05345E-01  2.29534E-01  4.22183E-01  1.17885E-01
   3.99215E-02  1.12335E-01  1.57677E-01  3.12039E-02 -1.52139E-01 -1.01057E-01 -2.81024E-01 -1.78564E-01 -1.58773E-02 -3.44420E-01
  -7.50259E-01 -4.64234E-01 -5.14464E-01 -5.98831E-01 -6.69949E-01 -7.58435E-01 -6.35702E-01 -5.34742E-01 -3.81967E-01 -7.93482E-01
  -7.25437E-01 -3.29663E-01 -6.77522E-02  5.28970E-02 -2.40010E-01 -1.73944E-01 -7.55863E-02 -3.63295E-01 -1.00071E-01  1.93284E-01
  -1.12493E-02  1.07145E-01  4.19555E-01  2.47499E-01  1.01306E-01  1.40185E-01  5.02929E-02  3.59850E-01  1.53829E-01  3.51806E-01
   4.60483E-01  2.69246E-01  8.29376E-01  6.96016E-01  6.59943E-01  2.47750E-01  1.20884E-01  2.02722E-01 -7.61612E-02 -1.04986E-01
  -2.52907E-01  8.43784E-02 -4.61359E-01 -6.67904E-01 -4.80594E-01 -7.30617E-01 -6.48338E-01 -7.80417E-01 -3.92184E-01 -2.91805E-01
  -4.94353E-01 -3.99419E-01 -1.75187E-01 -3.31794E-01 -4.69927E-01 -3.81780E-03 -3.26825E-01 -3.74783E-01 -4.45492E-02 -1.85943E-01
  -1.26259E-01 -5.57905E-01 -5.53882E-01 -1.87063E-01 -5.48218E-01 -2.41538E-01 -3.53020E-01 -5.64653E-01 -1.64071E-01 -4.07859E-01
  -2.85091E-01  2.27291E-01  1.68098E-01 -3.99075E-01 -3.34736E-03  1.16473E-01 -8.63713E-02  1.11965E-01 -1.73999E-01 -2.30290E-02
  -2.57493E-01 -4.73416E-02  1.32769E-01 -7.45037E-02  8.05144E-02 -2.46240E-02  8.04418E-02 -2.92876E-01 -1.24684E-01  2.74264E-01
   7.30710E-02 -7.67807E-02 -1.38251E-01  3.62728E-02  1.94674E-01  4.74817E-01  4.02683E-01  5.78374E-01  4.96674E-01  3.27640E-01
   4.76099E-01  1.12369E-01  2.92684E-01  1.79830E-01 -9.84209E-02 -1.96082E-01 -1.28277E-01 -1.91945E-01  5.78876E-02  1.88829E-01
  -3.21561E-01 -7.87369E-02 -2.71125E-01  6.94903E-02  5.15187E-02 -1.46146E-01 -1.40705E-01 -2.61250E-01 -8.41468E-03 -1.84915E-01
   9.04397E-02  8.63006E-02  1.00811E-01 -2.39462E-01  2.04628E-02  1.21312E-01 -9.91715E-02  8.59651E-03 -2.44982E-01 -6.51227E-02
  -2.26777E-01  2.77158E-01  1.42035E-01 -4.09369E-01 -9.58881E-02  9.24510E-02 -2.08269E-02  1.81078E-01  2.54533E-01  3.76686E-01
   2.54958E-01 -4.11880E-02  4.55827E-01  4.09448E-02  1.54063E-01 -1.55433E-01 -4.55484E-01 -7.18485E-02 -3.40817E-01 -2.24181E-01
  -2.01033E-01 -2.19641E-01 -1.78950E-01 -3.94416E-02 -3.26606E-01 -1.45839E-01  1.86772E-01  1.09664E-01  4.36284E-02  1.64194E-01
   2.89149E-01  7.19715E-02  3.36548E-01  2.40953E-01  1.96015E-01  2.83182E-01  5.57231E-02  2.64335E-01  4.34824E-01  1.53012E-01
   2.49664E-01  3.44945E-01  1.75857E-01  4.02258E-01  4.80375E-02  9.20996E-02  6.29823E-01  4.02560E-01  4.20360E-01  3.18684E-01
   6.09638E-01  6.57605E-01  1.03758E-01  5.66034E-01  4.26877E-01  1.35623E-01  2.34134E-01  1.28243E-01 -5.85848E-02 -7.52079E-02
   2.74949E-02 -2.68550E-01 -3.34111E-01 -4.39340E-01 -1.72881E-01  1.55668E-02  8.05239E-02  2.39019E-01  5.77132E-02 -2.32144E-02
  -1.02478E-01  4.93107E-02  3.77659E-02 -5.74493E-02 -1.20732E-01 -2.32245E-01 -1.46273E-01 -4.80140E-01 -7.33584E-01 -5.28569E-01
  -8.67373E-01 -1.11407E+00 -1.13390E+00 -1.11517E+00 -8.16852E-01 -9.76176E-01 -8.22051E-01 -4.32622E-01 -5.62568E-01 -4.72485E-01
  -4.36115E-02  8.06212E-02  6.93117E-02  1.70164E-01  1.78067E-01  1.95262E-01  2.50875E-01  3.40938E-01  2.31616E-01  2.76800E-01
   2.67378E-01  8.78653E-02  2.45510E-01  3.28296E-02  1.21603E-01  8.40178E-02 -2.19797E-01  1.64261E-01  2.10611E-01  1.93278E-01
   8.31121E-02 -5.41510E-03  1.80588E-01  2.57254E-01  1.64490E-01 -7.99148E-02  2.81894E-02  1.15034E-01  1.65672E-01  3.83450E-01
   2.37377E-01 -1.03038E-01  7.38570E-02  4.81085E-01  4.03010E-01  1.29576E-02  1.34341E-01  4.77440E-01  9.87249E-02 -3.15601E-02
   3.15750E-01  2.12431E-01  3.37949E-01  1.75409E-01  1.92544E-01  5.65807E-01  3.72312E-01  3.29400E-01  7.47756E-02  4.03099E-01
   2.22286E-01 -1.43181E-01  6.89138E-02 -2.30544E-01  9.94863E-02  8.69825E-02 -1.00820E-01 -1.20111E-01 -2.80002E-01 -8.20721E-02
  -1.71386E-01 -2.29568E-01 -2.92031E-01 -4.41982E-01 -2.09345E-02 -5.13416E-01 -4.69763E-01 -7.18128E-02 -3.96061E-01 -1.44128E-01
  -3.52650E-01 -9.22899E-02 -4.03740E-01 -3.47203E-01  8.48186E-02 -4.09711E-02 -4.13857E-02 -2.19026E-01 -1.21347E-02 -3.19000E-01
  -1.31307E-01 -2.87593E-04 -2.23554E-01 -2.14298E-01  3.63113E-02 -1.61322E-01 -3.73151E-01 -3.74728E-01 -4.68762E-01 -5.60757E-02
  -5.94135E-02  1.31417E-02 -1.80457E-01  9.42033E-02  6.91260E-02 -2.42945E-01  2.12390E-01  2.18594E-01  1.62220E-01  1.26544E-01
   6.77040E-02  3.98046E-01  2.64873E-01 -1.73382E-01  1.90691E-01 -1.09171E-02 -1.01419E-01 -4.32508E-02 -3.23563E-01  4.85020E-02
   1.72886E-01 -9.72422E-02 -4.85939E-02  1.23135E-01  2.70914E-01  2.98715E-01 -7.39524E-02 -1.40773E-01  1.58360E-01  8.04761E-03
  -3.21566E-01  3.30706E-02  8.74962E-02 -1.77465E-01 -2.92756E-01 -1.88788E-01 -1.12366E-01  5.01757E-02  2.13026E-01 -3.08775E-01
  -1.78356E-02 -5.23078E-02 -4.67922E-01 -8.23003E-02  2.22736E-01  4.26191E-02  1.27558E-01  2.12783E-01 -8.34846E-02  3.62869E-02
  -1.86631E-02  1.35067E-01  2.29293E-01  3.44843E-02 -5.11032E-02 -2.86458E-02 -5.84719E-02 -4.09837E-02  2.65048E-01  1.98817E-01
  -7.71112E-02  1.11049E-01  4.05335E-01  8.17151E-02 -4.36640E-02  2.96757E-01  2.26441E-01 -4.22264E-02  1.18058E-03 -1.25292E-01
   1.83850E-01  5.10934E-01  4.12193E-02 -5.64843E-03 -3.35478E-02  2.28418E-02  3.07201E-01  2.10069E-01 -1.43242E-01 -4.29856E-01
  -2.01896E-01 -1.93913E-01 -1.14541E-01 -1.76323E-01 -5.29195E-01 -2.67669E-01 -3.18738E-01 -2.85675E-01 -4.34843E-01 -8.22554E-01
  -5.36713E-01 -2.37538E-01 -2.12230E-01 -1.81850E-01 -3.29940E-01 -5.73707E-01 -3.23105E-01 -3.59967E-01 -4.20925E-01 -2.46567E-01
  -2.65018E-01 -1.90959E-01 -1.03928E-01 -2.22419E-01 -1.15730E-01 -1.16462E-01 -1.85892E-01  1.02723E-01  1.34951E-01  2.10003E-01
   1.21276E-03  6.36084E-02  2.70334E-01  2.75079E-01  4.07245E-01  3.18448E-01  2.45799E-01  8.41223E-02  4.88134E-02  5.50046E-01
   5.03863E-01  3.44287E-03  1.45320E-01  1.07355E-01  2.03808E-01  2.33293E-01  2.86903E-01  1.71594E-01  1.84219E-01  2.22893E-01
  -2.06165E-02  1.92591E-01 -1.34288E-01  7.65637E-02  2.26280E-01 -2.04703E-01 -2.10960E-01  7.69427E-02  3.58434E-02 -1.76958E-01
   9.43661E-02  2.88081E-01 -8.12538E-02 -1.06605E-01 -2.37105E-02 -1.64870E-01  2.23179E-01  1.90461E-01  2.20557E-01  5.89482E-02
  -1.58780E-01 -2.53796E-01  7.87804E-02  1.11369E-01 -2.44463E-01 -1.03033E-01  3.42277E-02  9.97710E-02 -2.23981E-01  1.28481E-01
   9.25348E-02  3.85325E-01 -9.95732E-02 -2.32994E-01  1.17302E-01 -4.22709E-01  1.31757E-01 -3.19408E-02 -9.11558E-03 -6.14433E-02
   1.29459E-01  1.05831E-01 -1.77528E-01 -6.27318E-02  5.08795E-02  1.47818E-01 -1.73763E-01 -8.98687E-02 -7.75761E-02 -4.77343E-02
  -4.23046E-01 -1.61057E-02  1.98132E-01 -1.04153E-01 -5.25975E-02 -2.21811E-01 -1.41226E-01 -7.86812E-03  8.86184E-02 -1.32911E-01
  -9.82255E-02  5.38746E-02  1.01874E-01  1.14716E-01  2.56550E-01  1.83896E-01 -3.66897E-02 -2.38286E-01 -2.92718E-02  3.67755E-01
   1.09495E-01 -1.09334E-02  6.80236E-02 -2.07257E-01 -2.03358E-01  1.24435E-01  1.62213E-01  5.11773E-01 -5.17485E-02 -1.83396E-01
  -2.70816E-02 -1.50151E-01  9.31471E-02 -4.92444E-02
 NY points of the fit to the data follow
   1.03217E-01  9.01782E-02  7.83089E-02  6.19150E-02  4.56970E-02  3.25146E-02  3.05260E-02  4.56579E-02  8.22473E-02  1.33872E-01
   1.94661E-01  2.55944E-01  3.11659E-01  3.56908E-01  3.86307E-01  3.97657E-01  3.88907E-01  3.63152E-01  3.24781E-01  2.75338E-01
   2.12949E-01  1.43138E-01  7.59834E-02  1.55420E-02 -3.61315E-02 -7.95148E-02 -1.12320E-01 -1.43737E-01 -1.73826E-01 -2.03210E-01
  -2.33708E-01 -2.64517E-01 -2.95828E-01 -3.24385E-01 -3.49945E-01 -3.66859E-01 -3.73607E-01 -3.62874E-01 -3.31986E-01 -2.79789E-01
  -2.10830E-01 -1.29046E-01 -3.92549E-02  5.20857E-02  1.37937E-01  2.08980E-01  2.60865E-01  2.91538E-01  2.98946E-01  2.81825E-01
   2.43522E-01  1.91252E-01  1.32513E-01  7.62078E-02  2.18051E-02 -2.59925E-02 -6.55821E-02 -1.01416E-01 -1.39174E-01 -1.72815E-01
  -2.00536E-01 -2.19677E-01 -2.22033E-01 -2.02399E-01 -1.65066E-01 -1.10975E-01 -4.51691E-02  2.69212E-02  9.84483E-02  1.65830E-01
   2.29457E-01  2.79435E-01  2.94237E-01  2.71890E-01  2.24070E-01  1.53181E-01  6.38772E-02 -2.37073E-02 -8.97278E-02 -1.34333E-01
  -1.47892E-01 -1.24394E-01 -7.60742E-02 -1.19416E-02  6.21250E-02  1.43921E-01  2.25264E-01  2.95121E-01  3.47813E-01  3.82222E-01
   3.85609E-01  3.56473E-01  3.02686E-01  2.38697E-01  1.68081E-01  1.02424E-01  5.20285E-02  1.77894E-02  2.14682E-03  4.59720E-03
   2.41013E-02  5.60188E-02  9.66978E-02  1.42565E-01  1.91400E-01  2.39094E-01  2.80849E-01  3.12777E-01  3.31341E-01  3.39178E-01
   3.37717E-01  3.34334E-01  3.29228E-01  3.27459E-01  3.27004E-01  3.25103E-01  3.22377E-01  3.15541E-01  3.02447E-01  2.80496E-01
   2.49283E-01  2.03073E-01  1.41224E-01  6.62929E-02 -1.53277E-02 -9.21967E-02 -1.51335E-01 -2.05229E-01 -2.68813E-01 -3.47272E-01
  -4.28509E-01 -5.05471E-01 -5.77114E-01 -6.44343E-01 -7.00322E-01 -7.30533E-01 -7.26911E-01 -6.92112E-01 -6.40815E-01 -5.88785E-01
  -5.25209E-01 -4.35490E-01 -3.28874E-01 -2.21594E-01 -1.17961E-01 -3.20555E-02  2.37277E-02  5.44067E-02  8.44160E-02  1.11720E-01
   1.36905E-01  1.60647E-01  1.83528E-01  2.06174E-01  2.29251E-01  2.53425E-01  2.79186E-01  3.08402E-01  3.63734E-01  4.38057E-01
   5.10155E-01  5.52527E-01  5.63940E-01  5.40739E-01  4.84792E-01  3.94518E-01  2.67050E-01  1.14955E-01 -4.03792E-02 -1.74538E-01
  -2.89636E-01 -3.99729E-01 -4.99070E-01 -5.59293E-01 -5.75889E-01 -5.62185E-01 -5.20466E-01 -4.62968E-01 -4.11664E-01 -3.86386E-01
  -3.61356E-01 -3.37652E-01 -3.15795E-01 -2.96953E-01 -2.79603E-01 -2.64338E-01 -2.50132E-01 -2.36496E-01 -2.23385E-01 -2.10938E-01
  -1.98952E-01 -1.86892E-01 -1.74904E-01 -1.62983E-01 -1.50864E-01 -1.38347E-01 -1.26012E-01 -1.14308E-01 -1.03313E-01 -9.26600E-02
  -8.23049E-02 -7.27264E-02 -6.46442E-02 -5.83885E-02 -5.36809E-02 -5.01620E-02 -4.79543E-02 -4.74317E-02 -4.83321E-02 -4.97788E-02
  -5.09425E-02 -5.16630E-02 -5.22838E-02 -5.28343E-02 -5.34941E-02 -5.54870E-02 -5.65629E-02 -5.11796E-02 -3.64277E-02 -1.54377E-02
   8.72608E-03  3.74680E-02  7.40467E-02  1.18097E-01  1.64570E-01  2.06523E-01  2.39780E-01  2.64154E-01  2.80848E-01  2.86173E-01
   2.73943E-01  2.45263E-01  2.08099E-01  1.67885E-01  1.25735E-01  8.36496E-02  4.49679E-02  8.99991E-03 -2.39789E-02 -5.02689E-02
  -6.75377E-02 -7.79164E-02 -8.52470E-02 -9.18544E-02 -9.75495E-02 -1.03125E-01 -1.09470E-01 -1.18751E-01 -1.28930E-01 -1.38333E-01
  -1.45756E-01 -1.51750E-01 -1.52741E-01 -1.45791E-01 -1.31724E-01 -1.10979E-01 -8.43078E-02 -5.31668E-02 -1.97167E-02  1.50290E-02
   5.00345E-02  8.09853E-02  1.06374E-01  1.27180E-01  1.43287E-01  1.50672E-01  1.49993E-01  1.46045E-01  1.39638E-01  1.25816E-01
   1.07108E-01  8.62580E-02  6.15284E-02  3.02036E-02 -7.11939E-03 -5.04294E-02 -1.01397E-01 -1.55363E-01 -2.04369E-01 -2.41580E-01
  -2.59591E-01 -2.55502E-01 -2.28624E-01 -1.81539E-01 -1.18655E-01 -4.72900E-02  2.57204E-02  9.41487E-02  1.55287E-01  2.07228E-01
   2.47730E-01  2.75328E-01  2.89625E-01  2.91952E-01  2.86110E-01  2.77801E-01  2.72399E-01  2.71199E-01  2.73929E-01  2.79960E-01
   2.85166E-01  2.88050E-01  2.88056E-01  2.84504E-01  2.78353E-01  2.69567E-01  2.59753E-01  2.48187E-01  2.34925E-01  2.18886E-01
   1.98806E-01  1.73654E-01  1.42964E-01  1.06185E-01  6.40019E-02  1.70349E-02 -3.25765E-02 -8.24514E-02 -1.28584E-01 -1.67954E-01
  -1.97186E-01 -2.13767E-01 -2.16900E-01 -2.06216E-01 -1.85254E-01 -1.56660E-01 -1.25948E-01 -9.63113E-02 -7.19263E-02 -5.43849E-02
  -4.42111E-02 -3.95662E-02 -2.16824E-02 -1.71329E-02 -5.52611E-02 -1.52982E-01 -2.86498E-01 -4.41026E-01 -5.99863E-01 -7.53723E-01
  -8.94241E-01 -9.97417E-01 -1.04348E+00 -1.02361E+00 -9.65423E-01 -8.93163E-01 -7.99076E-01 -6.58754E-01 -4.91851E-01 -3.30757E-01
  -1.83972E-01 -6.90139E-02 -3.65130E-03  1.12608E-02  2.37399E-02  3.31845E-02  3.72523E-02  3.64314E-02  3.10923E-02  2.27636E-02
   1.24915E-02  1.61135E-03 -8.44405E-03 -1.66663E-02 -2.20051E-02 -2.40221E-02 -2.24316E-02 -1.75738E-02 -9.69035E-03  4.27863E-04
   1.20863E-02  2.42420E-02  3.59343E-02  4.66127E-02  5.55822E-02  6.35095E-02  7.01186E-02  7.62016E-02  8.15495E-02  8.63845E-02
   9.08244E-02  9.49159E-02  9.87698E-02  1.02439E-01  1.06006E-01  1.09445E-01  1.12823E-01  1.16103E-01  1.19169E-01  1.21923E-01
   1.24156E-01  1.25788E-01  1.26699E-01  1.26832E-01  1.26102E-01  1.24452E-01  1.21703E-01  1.17719E-01  1.12588E-01  1.06465E-01
   9.95556E-02  9.19870E-02  8.39136E-02  7.54170E-02  6.66694E-02  5.78503E-02  4.90810E-02  4.04968E-02  3.22572E-02  2.44987E-02
   1.72423E-02  1.04403E-02  4.12945E-03 -1.72279E-03 -7.18562E-03 -1.22688E-02 -1.68530E-02 -2.09429E-02 -2.45171E-02 -2.75346E-02
  -2.99199E-02 -3.15002E-02 -3.20973E-02 -3.16430E-02 -3.03216E-02 -2.82774E-02 -2.55557E-02 -2.21704E-02 -1.81927E-02 -1.36833E-02
  -8.73063E-03 -3.36648E-03  2.47114E-03  8.92037E-03  1.60367E-02  2.37782E-02  3.22155E-02  4.15454E-02  5.18996E-02  6.33391E-02
   7.58041E-02  8.90397E-02  1.02707E-01  1.16493E-01  1.30174E-01  1.43403E-01  1.55820E-01  1.67056E-01  1.76794E-01  1.84752E-01
   1.90707E-01  1.94442E-01  1.95843E-01  1.94862E-01  1.91592E-01  1.86164E-01  1.78737E-01  1.69640E-01  1.59211E-01  1.47780E-01
   1.35568E-01  1.22797E-01  1.09801E-01  9.69689E-02  8.46250E-02  7.28951E-02  6.18719E-02  5.16245E-02  4.22725E-02  3.39114E-02
   2.67052E-02  2.06926E-02  1.59618E-02  1.25883E-02  1.06492E-02  1.00965E-02  1.09066E-02  1.30242E-02  1.62861E-02  2.04809E-02
   2.52783E-02  3.04675E-02  3.58624E-02  4.12423E-02  4.63975E-02  5.12098E-02  5.56289E-02  5.94980E-02  6.26827E-02  6.50676E-02
   6.65452E-02  6.71017E-02  6.68628E-02  6.59195E-02  6.42364E-02  6.18029E-02  5.87225E-02  5.51290E-02  5.10739E-02  4.66305E-02
   4.19245E-02  3.71182E-02  3.22817E-02  2.74288E-02  2.26053E-02  1.78437E-02  1.31639E-02  8.40957E-03  3.50254E-03 -1.64952E-03
  -7.11740E-03 -1.29683E-02 -1.93511E-02 -2.65734E-02 -3.49041E-02 -4.45175E-02 -5.55536E-02 -6.82646E-02 -8.27172E-02 -9.87697E-02
  -1.16201E-01 -1.34798E-01 -1.54313E-01 -1.74351E-01 -1.94430E-01 -2.14031E-01 -2.32607E-01 -2.49576E-01 -2.64455E-01 -2.76787E-01
  -2.86268E-01 -2.92837E-01 -2.96659E-01 -2.97915E-01 -2.96644E-01 -2.93119E-01 -2.87732E-01 -2.80872E-01 -2.72708E-01 -2.63451E-01
  -2.53305E-01 -2.42384E-01 -2.30780E-01 -2.18647E-01 -2.06103E-01 -1.93110E-01 -1.79732E-01 -1.66194E-01 -1.52688E-01 -1.39249E-01
  -1.26051E-01 -1.13330E-01 -1.01205E-01 -8.97424E-02 -7.90075E-02 -6.89600E-02 -5.95601E-02 -5.09760E-02 -4.32617E-02 -3.62571E-02
  -2.99016E-02 -2.42807E-02 -1.94636E-02 -1.53051E-02 -1.16887E-02 -8.56409E-03 -5.81070E-03 -3.27348E-03 -8.69781E-04  1.42253E-03
   3.61044E-03  5.72071E-03  7.70991E-03  9.53618E-03  1.12080E-02  1.26179E-02  1.37427E-02  1.46440E-02  1.52545E-02  1.55194E-02
   1.55855E-02  1.56794E-02  1.57603E-02  1.56946E-02  1.55618E-02  1.53971E-02  1.51489E-02  1.47752E-02  1.43076E-02  1.37380E-02
   1.31118E-02  1.24857E-02  1.18389E-02  1.10705E-02  1.02197E-02  9.46894E-03  8.90366E-03  8.49998E-03  8.26858E-03  8.35672E-03
   8.70991E-03  9.13040E-03  9.60497E-03  1.03651E-02  1.13696E-02  1.24393E-02  1.34311E-02  1.43093E-02  1.50583E-02  1.56005E-02
   1.60106E-02  1.63449E-02  1.66430E-02  1.69314E-02  1.72829E-02  1.77534E-02  1.84335E-02  1.94047E-02  2.06213E-02  2.19443E-02
   2.33266E-02  2.47996E-02  2.62409E-02  2.75037E-02  2.84806E-02  2.92655E-02  2.99008E-02  3.04735E-02  3.09897E-02  3.13180E-02
   3.13987E-02  3.13973E-02  3.15345E-02  3.19033E-02  3.24368E-02  3.30317E-02  3.37070E-02  3.44645E-02  3.53442E-02  3.63407E-02
   3.74963E-02  3.88682E-02  4.05503E-02  4.25882E-02  4.49357E-02  4.75141E-02  5.04012E-02  5.35705E-02  5.69354E-02  6.05039E-02
   6.43318E-02  6.83926E-02  7.25890E-02  7.69057E-02
 NY background values follow
     1.348E-02    1.376E-02    1.404E-02    1.432E-02    1.460E-02    1.487E-02    1.515E-02    1.543E-02    1.571E-02    1.599E-02
     1.627E-02    1.655E-02    1.682E-02    1.710E-02    1.738E-02    1.766E-02    1.794E-02    1.821E-02    1.849E-02    1.877E-02
     1.905E-02    1.932E-02    1.960E-02    1.987E-02    2.015E-02    2.042E-02    2.070E-02    2.097E-02    2.125E-02    2.152E-02
     2.180E-02    2.207E-02    2.234E-02    2.261E-02    2.288E-02    2.315E-02    2.342E-02    2.369E-02    2.396E-02    2.423E-02
     2.450E-02    2.477E-02    2.503E-02    2.530E-02    2.557E-02    2.583E-02    2.609E-02    2.636E-02    2.662E-02    2.688E-02
     2.714E-02    2.740E-02    2.766E-02    2.792E-02    2.818E-02    2.843E-02    2.869E-02    2.894E-02    2.920E-02    2.945E-02
     2.970E-02    2.995E-02    3.020E-02    3.045E-02    3.069E-02    3.094E-02    3.118E-02    3.143E-02    3.167E-02    3.191E-02
