 
 $NMID
 ID=''
 FMTDAT='(2E13.5)'
 TRAMP=   1.00000E+0
 VOLUME=   1.00000E+0
 $END
  -4.35792E+3   1.82364E+4
  -2.46788E+4   4.16225E+4
  -1.75234E+4   4.46718E+4
  -1.68835E+4   4.08652E+4
  -1.94588E+4   4.18381E+4
  -1.82132E+4   4.21924E+4
  -1.86199E+4   3.99873E+4
  -2.02532E+4   4.00545E+4
  -1.96675E+4   4.01629E+4
  -2.00706E+4   3.85672E+4
  -2.11848E+4   3.83301E+4
  -2.07415E+4   3.82304E+4
  -2.10437E+4   3.71085E+4
  -2.21421E+4   3.66761E+4
  -2.20573E+4   3.64255E+4
  -2.22521E+4   3.54253E+4
  -2.30912E+4   3.50071E+4
  -2.30088E+4   3.46746E+4
  -2.32753E+4   3.38122E+4
  -2.40043E+4   3.34172E+4
  -2.41107E+4   3.30053E+4
  -2.42298E+4   3.22970E+4
  -2.49007E+4   3.20076E+4
  -2.51366E+4   3.14951E+4
  -2.53688E+4   3.07748E+4
  -2.58448E+4   3.03219E+4
  -2.61527E+4   2.98520E+4
  -2.64820E+4   2.90058E+4
  -2.70082E+4   2.83197E+4
  -2.71519E+4   2.78004E+4
  -2.73273E+4   2.71013E+4
  -2.75905E+4   2.65697E+4
  -2.78780E+4   2.60064E+4
  -2.79443E+4   2.52898E+4
  -2.80857E+4   2.47219E+4
  -2.81522E+4   2.42503E+4
  -2.81597E+4   2.36363E+4
  -2.82563E+4   2.30912E+4
  -2.82809E+4   2.27161E+4
  -2.82883E+4   2.21537E+4
  -2.84063E+4   2.17608E+4
  -2.86515E+4   2.12304E+4
  -2.87212E+4   2.06135E+4
  -2.87683E+4   2.01180E+4
  -2.88205E+4   1.97502E+4
  -2.89499E+4   1.92222E+4
  -2.90882E+4   1.87876E+4
  -2.91220E+4   1.83515E+4
  -2.91908E+4   1.78673E+4
  -2.92971E+4   1.73787E+4
  -2.94085E+4   1.68267E+4
  -2.94102E+4   1.63119E+4
  -2.93432E+4   1.59157E+4
  -2.93449E+4   1.54184E+4
  -2.93934E+4   1.50373E+4
  -2.95246E+4   1.45347E+4
  -2.94753E+4   1.41176E+4
  -2.95605E+4   1.35775E+4
  -2.95404E+4   1.31015E+4
  -2.95451E+4   1.26609E+4
  -2.93630E+4   1.22227E+4
  -2.93923E+4   1.17866E+4
  -2.93478E+4   1.13664E+4
  -2.93699E+4   1.09667E+4
  -2.93571E+4   1.04674E+4
  -2.92525E+4   1.01167E+4
  -2.91865E+4   9.75713E+3
  -2.92833E+4   9.29539E+3
  -2.91462E+4   8.85343E+3
  -2.91716E+4   8.40791E+3
  -2.91496E+4   8.02100E+3
  -2.90728E+4   7.54049E+3
  -2.89877E+4   7.16898E+3
  -2.88469E+4   6.73954E+3
  -2.88209E+4   6.31023E+3
  -2.86201E+4   5.96995E+3
  -2.86201E+4   5.41149E+3
  -2.85294E+4   5.04749E+3
  -2.84306E+4   4.62145E+3
  -2.82488E+4   4.27442E+3
  -2.81946E+4   3.88923E+3
  -2.80325E+4   3.45090E+3
  -2.79069E+4   3.01638E+3
  -2.77582E+4   2.55422E+3
  -2.76723E+4   2.22537E+3
  -2.75434E+4   1.77356E+3
  -2.73136E+4   1.35945E+3
  -2.71053E+4   9.59897E+2
  -2.69996E+4   5.86786E+2
  -2.68086E+4   2.56900E+2
  -2.66269E+4  -1.85068E+2
  -2.63957E+4  -5.11646E+2
  -2.62222E+4  -7.64050E+2
  -2.60546E+4  -1.18965E+3
  -2.58262E+4  -1.57770E+3
  -2.55950E+4  -1.97668E+3
  -2.53687E+4  -2.25683E+3
  -2.51414E+4  -2.61172E+3
  -2.50090E+4  -3.00931E+3
  -2.47836E+4  -3.34039E+3
  -2.44724E+4  -3.73288E+3
  -2.41672E+4  -4.03981E+3
  -2.39684E+4  -4.27726E+3
  -2.38196E+4  -4.61105E+3
  -2.35221E+4  -4.99006E+3
  -2.32188E+4  -5.31011E+3
  -2.29358E+4  -5.57703E+3
  -2.26770E+4  -5.88764E+3
  -2.23951E+4  -6.15585E+3
  -2.21046E+4  -6.45751E+3
  -2.17758E+4  -6.68854E+3
  -2.15086E+4  -6.93139E+3
  -2.12748E+4  -7.27304E+3
  -2.09117E+4  -7.52005E+3
  -2.06416E+4  -7.81995E+3
  -2.02753E+4  -8.08223E+3
  -2.00057E+4  -8.27175E+3
  -1.97151E+4  -8.54351E+3
  -1.93591E+4  -8.77952E+3
  -1.89881E+4  -8.96010E+3
  -1.87055E+4  -9.20401E+3
  -1.83699E+4  -9.43847E+3
  -1.80115E+4  -9.69164E+3
  -1.77008E+4  -9.83958E+3
  -1.73790E+4  -1.00987E+4
  -1.69744E+4  -1.02056E+4
  -1.66276E+4  -1.03854E+4
  -1.62774E+4  -1.05049E+4
  -1.59564E+4  -1.06542E+4
  -1.56221E+4  -1.08300E+4
  -1.52756E+4  -1.09547E+4
  -1.48458E+4  -1.10574E+4
  -1.45109E+4  -1.11171E+4
  -1.42340E+4  -1.12757E+4
  -1.38516E+4  -1.14397E+4
  -1.35383E+4  -1.15303E+4
  -1.31125E+4  -1.15587E+4
  -1.27566E+4  -1.16602E+4
  -1.24460E+4  -1.17453E+4
  -1.21255E+4  -1.18234E+4
  -1.18142E+4  -1.18689E+4
  -1.14106E+4  -1.18717E+4
  -1.10659E+4  -1.18950E+4
  -1.07229E+4  -1.20263E+4
  -1.03988E+4  -1.19890E+4
  -1.01020E+4  -1.19954E+4
  -9.84427E+3  -1.19827E+4
  -9.49846E+3  -1.19343E+4
  -9.18279E+3  -1.19276E+4
  -8.89463E+3  -1.19318E+4
  -8.61417E+3  -1.19546E+4
  -8.22851E+3  -1.18078E+4
  -7.92259E+3  -1.17634E+4
  -7.63392E+3  -1.17931E+4
  -7.34500E+3  -1.16620E+4
  -7.11699E+3  -1.16525E+4
  -6.75317E+3  -1.15312E+4
  -6.55561E+3  -1.14643E+4
  -6.19373E+3  -1.14344E+4
  -6.00097E+3  -1.13667E+4
  -5.74555E+3  -1.12086E+4
  -5.49279E+3  -1.11499E+4
  -5.24257E+3  -1.10220E+4
  -4.96182E+3  -1.09126E+4
  -4.80681E+3  -1.08277E+4
  -4.52497E+3  -1.08595E+4
  -4.28962E+3  -1.06574E+4
  -4.05400E+3  -1.06030E+4
  -3.91066E+3  -1.03777E+4
  -3.66756E+3  -1.02914E+4
  -3.47628E+3  -1.01745E+4
  -3.20159E+3  -1.01009E+4
  -3.02780E+3  -9.97603E+3
  -2.87683E+3  -9.84254E+3
  -2.69822E+3  -9.74952E+3
  -2.54401E+3  -9.61485E+3
  -2.42672E+3  -9.50051E+3
  -2.24191E+3  -9.34736E+3
  -2.16517E+3  -9.25144E+3
  -1.92773E+3  -9.14814E+3
  -1.79287E+3  -9.00903E+3
  -1.65630E+3  -8.89836E+3
  -1.56423E+3  -8.75453E+3
  -1.38985E+3  -8.67776E+3
  -1.21319E+3  -8.48551E+3
  -1.10502E+3  -8.39571E+3
  -1.00119E+3  -8.31742E+3
  -8.26505E+2  -8.20860E+3
  -7.28820E+2  -8.04843E+3
  -5.96012E+2  -7.91575E+3
  -5.65611E+2  -7.79546E+3
  -4.45429E+2  -7.71691E+3
  -3.55447E+2  -7.57755E+3
  -1.48875E+2  -7.47670E+3
  -1.44604E+2  -7.40099E+3
  -4.86890E+0  -7.26590E+3
   7.62196E+1  -7.15425E+3
   1.54682E+2  -7.05388E+3
   2.34132E+2  -6.96252E+3
   3.48238E+2  -6.83215E+3
   3.66125E+2  -6.72571E+3
   4.25547E+2  -6.64676E+3
   5.54255E+2  -6.43755E+3
   6.18864E+2  -6.37691E+3
   6.87008E+2  -6.29902E+3
   6.92268E+2  -6.22843E+3
   7.69199E+2  -6.04013E+3
   8.13313E+2  -5.90943E+3
   8.75113E+2  -5.82215E+3
   9.72320E+2  -5.74265E+3
   1.01995E+3  -5.64926E+3
   9.83599E+2  -5.52767E+3
   1.03004E+3  -5.40972E+3
   1.07122E+3  -5.28446E+3
   1.16704E+3  -5.20196E+3
   1.24739E+3  -5.10587E+3
   1.19753E+3  -5.07085E+3
   1.23899E+3  -4.91867E+3
   1.24745E+3  -4.86973E+3
   1.24394E+3  -4.72988E+3
   1.31521E+3  -4.62796E+3
   1.37706E+3  -4.65227E+3
   1.39757E+3  -4.45904E+3
   1.32504E+3  -4.43049E+3
   1.34174E+3  -4.35880E+3
   1.40780E+3  -4.23414E+3
   1.36355E+3  -4.14700E+3
   1.41557E+3  -4.12816E+3
   1.45649E+3  -4.00438E+3
   1.44262E+3  -3.91752E+3
   1.46016E+3  -3.91000E+3
   1.50762E+3  -3.83070E+3
   1.46789E+3  -3.73002E+3
   1.48106E+3  -3.67693E+3
   1.40795E+3  -3.58025E+3
   1.49888E+3  -3.52643E+3
   1.49467E+3  -3.48515E+3
   1.55354E+3  -3.45327E+3
   1.43412E+3  -3.39087E+3
   1.47335E+3  -3.37379E+3
   1.52641E+3  -3.25158E+3
   1.56630E+3  -3.25953E+3
   1.48490E+3  -3.19011E+3
   1.53697E+3  -3.15485E+3
   1.46582E+3  -3.09662E+3
   1.49716E+3  -3.04521E+3
   1.52592E+3  -2.99692E+3
   1.50284E+3  -2.97268E+3
   1.52271E+3  -2.90867E+3
   1.46099E+3  -2.80391E+3
   1.47599E+3  -2.86123E+3
   1.50538E+3  -2.77443E+3
   1.43661E+3  -2.76272E+3
   1.50850E+3  -2.66022E+3
   1.47308E+3  -2.64183E+3
   1.43236E+3  -2.53635E+3
   1.46610E+3  -2.52094E+3
   1.42210E+3  -2.50914E+3
   1.41769E+3  -2.47901E+3
   1.50964E+3  -2.37891E+3
   1.50605E+3  -2.33892E+3
   1.49516E+3  -2.34989E+3
   1.49583E+3  -2.28229E+3
   1.39870E+3  -2.26408E+3
   1.43112E+3  -2.24633E+3
   1.47926E+3  -2.19720E+3
   1.38042E+3  -2.19577E+3
   1.38229E+3  -2.14415E+3
   1.41933E+3  -2.09502E+3
   1.41864E+3  -2.08339E+3
   1.38236E+3  -2.02714E+3
   1.35639E+3  -2.05383E+3
   1.35205E+3  -2.00135E+3
   1.36612E+3  -1.94655E+3
   1.39048E+3  -1.88710E+3
   1.37868E+3  -1.90461E+3
   1.35059E+3  -1.89541E+3
   1.37962E+3  -1.83211E+3
   1.32611E+3  -1.83995E+3
   1.27885E+3  -1.77148E+3
   1.27816E+3  -1.76552E+3
   1.24906E+3  -1.80215E+3
   1.26534E+3  -1.73876E+3
   1.29244E+3  -1.69575E+3
   1.22200E+3  -1.69499E+3
   1.21652E+3  -1.67522E+3
   1.25407E+3  -1.70769E+3
   1.26094E+3  -1.60829E+3
   1.19583E+3  -1.55494E+3
   1.25696E+3  -1.63631E+3
   1.21164E+3  -1.53576E+3
   1.16544E+3  -1.58624E+3
   1.19878E+3  -1.51998E+3
   1.21850E+3  -1.58563E+3
   1.21440E+3  -1.51166E+3
   1.13231E+3  -1.46857E+3
   1.18021E+3  -1.48257E+3
   1.13292E+3  -1.48505E+3
   1.17473E+3  -1.49128E+3
   1.19581E+3  -1.40892E+3
   1.17913E+3  -1.37655E+3
   1.19286E+3  -1.42655E+3
   1.16938E+3  -1.36358E+3
   1.15373E+3  -1.34654E+3
   1.12605E+3  -1.32974E+3
   1.13747E+3  -1.31397E+3
   1.10588E+3  -1.29062E+3
   1.09964E+3  -1.36228E+3
   1.15900E+3  -1.23980E+3
   1.17295E+3  -1.29242E+3
   1.06658E+3  -1.29208E+3
   1.06948E+3  -1.22916E+3
   1.07481E+3  -1.26366E+3
   1.01000E+3  -1.23385E+3
   1.10626E+3  -1.25683E+3
   1.03497E+3  -1.29253E+3
   1.08184E+3  -1.15942E+3
   1.09471E+3  -1.25175E+3
   1.09889E+3  -1.21635E+3
   1.04248E+3  -1.08983E+3
   1.05349E+3  -1.12037E+3
   1.09596E+3  -1.14928E+3
   1.03226E+3  -1.10139E+3
   1.10952E+3  -1.07762E+3
   1.09309E+3  -1.07735E+3
   1.06353E+3  -1.13116E+3
   1.02106E+3  -1.03302E+3
   1.00874E+3  -1.07429E+3
   1.04204E+3  -1.10072E+3
   1.02864E+3  -9.94654E+2
   9.95196E+2  -1.03920E+3
   1.10269E+3  -1.03573E+3
   1.03164E+3  -1.08725E+3
   1.04755E+3  -1.03119E+3
   9.84483E+2  -9.99124E+2
   1.02923E+3  -9.73307E+2
   1.00919E+3  -9.55424E+2
   1.01998E+3  -1.00600E+3
   1.04390E+3  -9.50636E+2
   1.02262E+3  -9.61782E+2
   1.05325E+3  -9.33627E+2
   1.01557E+3  -9.02619E+2
   1.00838E+3  -8.92986E+2
   9.51773E+2  -8.83565E+2
   9.56620E+2  -9.06765E+2
   9.87316E+2  -8.95788E+2
   9.68854E+2  -8.35593E+2
   1.02089E+3  -8.59800E+2
   9.82882E+2  -8.58766E+2
   9.89071E+2  -8.16577E+2
   9.63038E+2  -8.44897E+2
   1.02713E+3  -8.49519E+2
   9.83433E+2  -9.03163E+2
   1.02442E+3  -8.48476E+2
   9.89235E+2  -7.39023E+2
   9.38046E+2  -7.39729E+2
   1.01687E+3  -7.40648E+2
   9.91392E+2  -7.56932E+2
   1.01281E+3  -7.23010E+2
   9.30755E+2  -7.72162E+2
   9.90487E+2  -7.13067E+2
   9.87778E+2  -6.78660E+2
   9.50940E+2  -7.00909E+2
   9.47964E+2  -7.06111E+2
   9.53235E+2  -6.83158E+2
   9.96339E+2  -6.80819E+2
   9.10833E+2  -7.17716E+2
