 
 $NMID
 ID=''
 FMTDAT='(2E13.5)'
 TRAMP=   1.00000E+0
 VOLUME=   1.00000E+0
 $END
  -4.29318E+3   1.86709E+4
  -2.44746E+4   4.29255E+4
  -1.66140E+4   4.62443E+4
  -1.54261E+4   4.25240E+4
  -1.75038E+4   4.36404E+4
  -1.56350E+4   4.43107E+4
  -1.57560E+4   4.22375E+4
  -1.69838E+4   4.22667E+4
  -1.59655E+4   4.25336E+4
  -1.61085E+4   4.12037E+4
  -1.70191E+4   4.10721E+4
  -1.63182E+4   4.11496E+4
  -1.62529E+4   4.04005E+4
  -1.71303E+4   4.02702E+4
  -1.67649E+4   4.02816E+4
  -1.66903E+4   3.95072E+4
  -1.71899E+4   3.94729E+4
  -1.68370E+4   3.92991E+4
  -1.68147E+4   3.87662E+4
  -1.73383E+4   3.86468E+4
  -1.70730E+4   3.83425E+4
  -1.68934E+4   3.78463E+4
  -1.72977E+4   3.77607E+4
  -1.72355E+4   3.74796E+4
  -1.70883E+4   3.68104E+4
  -1.72932E+4   3.66155E+4
  -1.72873E+4   3.64936E+4
  -1.73857E+4   3.59357E+4
  -1.75730E+4   3.55136E+4
  -1.75280E+4   3.53037E+4
  -1.74636E+4   3.48842E+4
  -1.76480E+4   3.46761E+4
  -1.77212E+4   3.44196E+4
  -1.78122E+4   3.39768E+4
  -1.79011E+4   3.37276E+4
  -1.79861E+4   3.34210E+4
  -1.79182E+4   3.30206E+4
  -1.80096E+4   3.27527E+4
  -1.78774E+4   3.24504E+4
  -1.78848E+4   3.20494E+4
  -1.79845E+4   3.17228E+4
  -1.79957E+4   3.14353E+4
  -1.79593E+4   3.10046E+4
  -1.78392E+4   3.05563E+4
  -1.77608E+4   3.03847E+4
  -1.76581E+4   3.00601E+4
  -1.75631E+4   2.97523E+4
  -1.75066E+4   2.94868E+4
  -1.74146E+4   2.92185E+4
  -1.73788E+4   2.89650E+4
  -1.73271E+4   2.87431E+4
  -1.72224E+4   2.85325E+4
  -1.71105E+4   2.82925E+4
  -1.69374E+4   2.81710E+4
  -1.68682E+4   2.79715E+4
  -1.68839E+4   2.77534E+4
  -1.68265E+4   2.75371E+4
  -1.68088E+4   2.73107E+4
  -1.67148E+4   2.71555E+4
  -1.66203E+4   2.69371E+4
  -1.65773E+4   2.67656E+4
  -1.64626E+4   2.64706E+4
  -1.64946E+4   2.64029E+4
  -1.64847E+4   2.61073E+4
  -1.64651E+4   2.58964E+4
  -1.64077E+4   2.56878E+4
  -1.63647E+4   2.55039E+4
  -1.63358E+4   2.53343E+4
  -1.62792E+4   2.50514E+4
  -1.62433E+4   2.48391E+4
  -1.62057E+4   2.46060E+4
  -1.61610E+4   2.43629E+4
  -1.61241E+4   2.41240E+4
  -1.60131E+4   2.39076E+4
  -1.60003E+4   2.37516E+4
  -1.59063E+4   2.35941E+4
  -1.58018E+4   2.32749E+4
  -1.57673E+4   2.30668E+4
  -1.56971E+4   2.27956E+4
  -1.55563E+4   2.26190E+4
  -1.54726E+4   2.24304E+4
  -1.54165E+4   2.22702E+4
  -1.53569E+4   2.20337E+4
  -1.52811E+4   2.18792E+4
  -1.52547E+4   2.15831E+4
  -1.51734E+4   2.13127E+4
  -1.51110E+4   2.10142E+4
  -1.49308E+4   2.08403E+4
  -1.48390E+4   2.06641E+4
  -1.46777E+4   2.05105E+4
  -1.45874E+4   2.02443E+4
  -1.44035E+4   2.01299E+4
  -1.42555E+4   1.99273E+4
  -1.41773E+4   1.97740E+4
  -1.40504E+4   1.96405E+4
  -1.38268E+4   1.94129E+4
  -1.36659E+4   1.92264E+4
  -1.36071E+4   1.92531E+4
  -1.34549E+4   1.90475E+4
  -1.33985E+4   1.89129E+4
  -1.32959E+4   1.86621E+4
  -1.30771E+4   1.85663E+4
  -1.29606E+4   1.84573E+4
  -1.28376E+4   1.84594E+4
  -1.27480E+4   1.82370E+4
  -1.25751E+4   1.82462E+4
  -1.24930E+4   1.80963E+4
  -1.24540E+4   1.79939E+4
  -1.23225E+4   1.78847E+4
  -1.22383E+4   1.77617E+4
  -1.20962E+4   1.76187E+4
  -1.19860E+4   1.76109E+4
  -1.19728E+4   1.75679E+4
  -1.19476E+4   1.74547E+4
  -1.18764E+4   1.73290E+4
  -1.18697E+4   1.72438E+4
  -1.17892E+4   1.71162E+4
  -1.16852E+4   1.70324E+4
  -1.16331E+4   1.68493E+4
  -1.16623E+4   1.67785E+4
  -1.16483E+4   1.66869E+4
  -1.15786E+4   1.66094E+4
  -1.16003E+4   1.64285E+4
  -1.14985E+4   1.63586E+4
  -1.14440E+4   1.62390E+4
  -1.14621E+4   1.61290E+4
  -1.14418E+4   1.59533E+4
  -1.13575E+4   1.58316E+4
  -1.13759E+4   1.57164E+4
  -1.14019E+4   1.55856E+4
  -1.14079E+4   1.54770E+4
  -1.13323E+4   1.53335E+4
  -1.13329E+4   1.51805E+4
  -1.12932E+4   1.50372E+4
  -1.13590E+4   1.48776E+4
  -1.13157E+4   1.47072E+4
  -1.13280E+4   1.45671E+4
  -1.12241E+4   1.44419E+4
  -1.12523E+4   1.42980E+4
  -1.12429E+4   1.41137E+4
  -1.11362E+4   1.39894E+4
  -1.11225E+4   1.37651E+4
  -1.11484E+4   1.36834E+4
  -1.11187E+4   1.34998E+4
  -1.11342E+4   1.33108E+4
  -1.11164E+4   1.31423E+4
  -1.10805E+4   1.29766E+4
  -1.09494E+4   1.28277E+4
  -1.09982E+4   1.26527E+4
  -1.09731E+4   1.24559E+4
  -1.09620E+4   1.23678E+4
  -1.09430E+4   1.21267E+4
  -1.08465E+4   1.19159E+4
  -1.07718E+4   1.18060E+4
  -1.07714E+4   1.15988E+4
  -1.06941E+4   1.14618E+4
  -1.06091E+4   1.13141E+4
  -1.05565E+4   1.11059E+4
  -1.05490E+4   1.09662E+4
  -1.04770E+4   1.08241E+4
  -1.03739E+4   1.06183E+4
  -1.03876E+4   1.04699E+4
  -1.03082E+4   1.02369E+4
  -1.02613E+4   1.01806E+4
  -1.02242E+4   1.00063E+4
  -1.02183E+4   9.80234E+3
  -1.01652E+4   9.61359E+3
  -9.97440E+3   9.45225E+3
  -9.95246E+3   9.34136E+3
  -9.90543E+3   9.16547E+3
  -9.85946E+3   8.99858E+3
  -9.76772E+3   8.86820E+3
  -9.70512E+3   8.70590E+3
  -9.70387E+3   8.50508E+3
  -9.64269E+3   8.37496E+3
  -9.51847E+3   8.23258E+3
  -9.40172E+3   8.09057E+3
  -9.33934E+3   7.91561E+3
  -9.37408E+3   7.83252E+3
  -9.26441E+3   7.66861E+3
  -9.19250E+3   7.50896E+3
  -9.10748E+3   7.29769E+3
  -8.93970E+3   7.14973E+3
  -8.98496E+3   7.01270E+3
  -8.84490E+3   6.91272E+3
  -8.81518E+3   6.79765E+3
  -8.74299E+3   6.64713E+3
  -8.68583E+3   6.47087E+3
  -8.57785E+3   6.40193E+3
  -8.45043E+3   6.22226E+3
  -8.42242E+3   6.06276E+3
  -8.32605E+3   5.92488E+3
  -8.17627E+3   5.81361E+3
  -8.08510E+3   5.69859E+3
  -8.04022E+3   5.57998E+3
  -8.00671E+3   5.52905E+3
  -7.83669E+3   5.39379E+3
  -7.78429E+3   5.21180E+3
  -7.66013E+3   5.19205E+3
  -7.60015E+3   5.04265E+3
  -7.55457E+3   4.96570E+3
  -7.53302E+3   4.88148E+3
  -7.38889E+3   4.73300E+3
  -7.27418E+3   4.66798E+3
  -7.10741E+3   4.64766E+3
  -7.14179E+3   4.48328E+3
  -7.01819E+3   4.36824E+3
  -6.90101E+3   4.32267E+3
  -6.89643E+3   4.18190E+3
  -6.77849E+3   4.10409E+3
  -6.75403E+3   4.06273E+3
  -6.61985E+3   3.95767E+3
  -6.59149E+3   3.88314E+3
  -6.41208E+3   3.85144E+3
  -6.33694E+3   3.73488E+3
  -6.31533E+3   3.68076E+3
  -6.28783E+3   3.57653E+3
  -6.21761E+3   3.55692E+3
  -6.13911E+3   3.47866E+3
  -6.02937E+3   3.40972E+3
  -6.00897E+3   3.43791E+3
  -5.92077E+3   3.32262E+3
  -5.90241E+3   3.24949E+3
  -5.80208E+3   3.24981E+3
  -5.71504E+3   3.15263E+3
  -5.72613E+3   3.11018E+3
  -5.60150E+3   3.08280E+3
  -5.56534E+3   2.91778E+3
  -5.48010E+3   2.91356E+3
  -5.39505E+3   2.88641E+3
  -5.30805E+3   2.92971E+3
  -5.26861E+3   2.79735E+3
  -5.16846E+3   2.74266E+3
  -5.06359E+3   2.68359E+3
  -5.08442E+3   2.61693E+3
  -4.99100E+3   2.60773E+3
  -4.91635E+3   2.60869E+3
  -4.94079E+3   2.49021E+3
  -4.81727E+3   2.54430E+3
  -4.73001E+3   2.45906E+3
  -4.70924E+3   2.49874E+3
  -4.63870E+3   2.35395E+3
  -4.61182E+3   2.33223E+3
  -4.50580E+3   2.35974E+3
  -4.46501E+3   2.29464E+3
  -4.35602E+3   2.30286E+3
  -4.35953E+3   2.22083E+3
  -4.30133E+3   2.17351E+3
  -4.26209E+3   2.22031E+3
  -4.17965E+3   2.18235E+3
  -4.17523E+3   2.17879E+3
  -4.05436E+3   2.17058E+3
  -3.92124E+3   2.12072E+3
  -3.99921E+3   2.03186E+3
  -3.93344E+3   2.00713E+3
  -3.82881E+3   2.01414E+3
  -3.81083E+3   2.03685E+3
  -3.72589E+3   1.99166E+3
  -3.65332E+3   1.98448E+3
  -3.66204E+3   1.99259E+3
  -3.54341E+3   1.97673E+3
  -3.57211E+3   1.91493E+3
  -3.51318E+3   1.96004E+3
  -3.42599E+3   1.95222E+3
  -3.35425E+3   1.90092E+3
  -3.32195E+3   1.85370E+3
  -3.23464E+3   1.87920E+3
  -3.20413E+3   1.88326E+3
  -3.18922E+3   1.82640E+3
  -3.16752E+3   1.79715E+3
  -3.08757E+3   1.81925E+3
  -3.05790E+3   1.81111E+3
  -2.99780E+3   1.82692E+3
  -2.89404E+3   1.78869E+3
  -2.96455E+3   1.87460E+3
  -2.87750E+3   1.76933E+3
  -2.76657E+3   1.83421E+3
  -2.78148E+3   1.73551E+3
  -2.70933E+3   1.76734E+3
  -2.69421E+3   1.69884E+3
  -2.66118E+3   1.81215E+3
  -2.55893E+3   1.72444E+3
  -2.55505E+3   1.76782E+3
  -2.49907E+3   1.71525E+3
  -2.45831E+3   1.69336E+3
  -2.42192E+3   1.72165E+3
  -2.40668E+3   1.72522E+3
  -2.37724E+3   1.77421E+3
  -2.24989E+3   1.74654E+3
  -2.25285E+3   1.74205E+3
  -2.24042E+3   1.73488E+3
  -2.15399E+3   1.70547E+3
  -2.16049E+3   1.70985E+3
  -2.14074E+3   1.69128E+3
  -2.03365E+3   1.69678E+3
  -2.05254E+3   1.68302E+3
  -2.01459E+3   1.65927E+3
  -1.97598E+3   1.68618E+3
  -1.86939E+3   1.68329E+3
  -1.92444E+3   1.70613E+3
  -1.86971E+3   1.60334E+3
  -1.83006E+3   1.63167E+3
  -1.76488E+3   1.67040E+3
  -1.70674E+3   1.64060E+3
  -1.72676E+3   1.61944E+3
  -1.71398E+3   1.65879E+3
  -1.63631E+3   1.66983E+3
  -1.64890E+3   1.69762E+3
  -1.54763E+3   1.62654E+3
  -1.60190E+3   1.65531E+3
  -1.49919E+3   1.69795E+3
  -1.47526E+3   1.66772E+3
  -1.45261E+3   1.64693E+3
  -1.36012E+3   1.70398E+3
  -1.41045E+3   1.62455E+3
  -1.38593E+3   1.68494E+3
  -1.33898E+3   1.65979E+3
  -1.27866E+3   1.59454E+3
  -1.25274E+3   1.63956E+3
  -1.26197E+3   1.63543E+3
  -1.13064E+3   1.59085E+3
  -1.17029E+3   1.69791E+3
  -1.17773E+3   1.63824E+3
  -1.13145E+3   1.68417E+3
  -1.09151E+3   1.70303E+3
  -1.08429E+3   1.70459E+3
  -9.93868E+2   1.63944E+3
  -9.89808E+2   1.66119E+3
  -9.35624E+2   1.69186E+3
  -9.45877E+2   1.70181E+3
  -8.53272E+2   1.65521E+3
  -8.80424E+2   1.63340E+3
  -8.29869E+2   1.64355E+3
  -8.86488E+2   1.71470E+3
  -8.48162E+2   1.70166E+3
  -8.23286E+2   1.66585E+3
  -8.06142E+2   1.65877E+3
  -7.60858E+2   1.71675E+3
  -6.98451E+2   1.72558E+3
  -7.08510E+2   1.70721E+3
  -7.06167E+2   1.74399E+3
  -6.07866E+2   1.68996E+3
  -5.89987E+2   1.63883E+3
  -6.10792E+2   1.67707E+3
  -6.07592E+2   1.73023E+3
  -6.45975E+2   1.61669E+3
  -5.13802E+2   1.70154E+3
  -5.15198E+2   1.67650E+3
  -5.04405E+2   1.67927E+3
  -5.65443E+2   1.65665E+3
  -5.08767E+2   1.63263E+3
  -4.60958E+2   1.64622E+3
  -5.29517E+2   1.59829E+3
  -4.59372E+2   1.65759E+3
  -4.43100E+2   1.64845E+3
  -3.75462E+2   1.58899E+3
  -3.98476E+2   1.59427E+3
  -3.59577E+2   1.60512E+3
  -4.01160E+2   1.62243E+3
  -2.84146E+2   1.65832E+3
  -2.63031E+2   1.64584E+3
  -2.87470E+2   1.62589E+3
  -2.43183E+2   1.56655E+3
  -2.33982E+2   1.60480E+3
  -2.24176E+2   1.54731E+3
  -2.50006E+2   1.64693E+3
  -2.02964E+2   1.60224E+3
