 
 $NMID
 ID=''
 FMTDAT='(2E13.5)'
 TRAMP=   1.00000E+0
 VOLUME=   1.00000E+0
 $END
   8.66708E+2   8.33657E+2
   1.42841E+2   1.98375E+3
   5.29586E+3  -4.57779E+3
   7.92712E+2  -4.44581E+3
  -3.81363E+3  -3.25746E+3
   2.89283E+0  -2.51761E+3
  -3.24601E+3   3.90305E+2
  -5.24382E+3   4.48925E+2
  -9.40450E+2  -3.36358E+3
  -2.16099E+3   1.34365E+2
  -1.73492E+3  -2.30170E+3
   3.14169E+3   8.83582E+2
  -3.26757E+3   5.39697E+3
  -4.22788E+3  -5.63535E+2
   6.39952E+2  -1.85923E+3
   6.48685E+2   8.19111E+2
  -6.35029E+2   1.63870E+3
   1.24508E+3   2.40294E+3
   1.19914E+2   1.07462E+3
   3.08380E+3  -1.93767E+3
   3.57231E+3   1.69975E+3
  -2.08168E+3   2.35601E+3
  -1.19986E+3  -3.03619E+3
   5.75112E+3  -3.19086E+3
   2.15007E+3   3.20929E+3
  -3.59934E+3  -6.95356E+2
   2.00420E+2  -3.70043E+3
   1.05638E+3  -1.37193E+3
   2.53432E+3   5.10466E+2
  -7.24109E+2   2.73830E+3
  -5.45878E+3   2.32682E+2
  -2.66963E+3  -3.60544E+3
   2.62961E+3  -1.36682E+3
   1.81687E+3   3.50378E+3
  -2.88125E+3   3.34770E+3
   6.84496E+2   3.67737E+1
  -5.13390E+2   4.30790E+3
  -3.70438E+3  -3.96587E+1
   1.20785E+3  -1.99188E+3
  -1.71519E+3  -2.76202E+3
   5.12539E+2  -4.47694E+3
   5.99625E+3   2.02486E+3
  -1.67654E+2   2.21942E+3
  -2.05338E+3   1.74944E+1
  -1.81463E+3  -2.78074E+3
   8.46601E+2  -1.12884E+3
   1.62388E+3  -5.75076E+2
   4.74428E+1  -1.95459E+3
  -8.19215E+2  -1.05616E+3
   2.44760E+3   3.32056E-1
  -6.14197E+2   1.76038E+3
  -2.79930E+3  -3.28092E+2
  -1.17722E+3  -6.51872E+2
  -3.16100E+2  -1.99354E+3
   2.77979E+2   6.27618E+2
   1.30722E+3   1.79635E+3
   8.57234E+2   3.18316E+3
  -1.19278E+3   3.10884E+3
  -2.98622E+3   2.54718E+3
  -4.19898E+3  -2.34630E+3
   3.14402E+2  -2.97511E+3
   2.36324E+3  -2.12186E+3
   9.91102E+2   2.02380E+3
   1.77759E+3   1.74380E+3
   8.84725E+2  -1.98107E+2
   2.50669E+3   1.21236E+3
   7.84310E+2   2.65689E+3
  -2.11251E+3   2.89127E+3
  -2.18652E+3   7.56030E+1
  -4.62964E+2  -1.78083E+3
  -6.71305E+2  -4.84515E+2
  -1.35328E+3   1.23522E+3
  -9.69823E+2  -1.61194E+3
   9.29871E+2   1.09083E+2
   3.09523E+2  -8.07911E+2
   4.73645E+2   2.09830E+2
  -1.01847E+3  -1.46750E+3
   1.24310E+3  -3.04253E+2
   5.14523E+2   7.19075E+2
   4.57570E+2   1.80097E+3
  -1.17615E+3   1.62270E+3
   1.03343E+2   1.62242E+3
  -7.07782E+2   1.57758E+3
  -9.62959E+2   1.33075E+3
  -3.04127E+3  -1.14350E+3
   7.21104E+2  -1.96874E+3
   4.26047E+3  -2.33035E+3
   1.80399E+3   4.41956E+2
   3.28729E+1   5.22627E+2
  -2.28791E+2  -8.14878E+2
   2.23261E+3  -1.32797E+2
  -5.40435E+2   1.84877E+3
  -3.72664E+2   1.42288E+3
  -1.59375E+3  -4.14907E+2
   4.84701E+2   4.39216E+2
   1.17477E+3  -1.53450E+2
   7.22084E+2   1.41174E+3
  -1.38021E+3   2.29111E+2
  -2.28521E+3  -8.03253E+1
   1.39264E+3  -1.52696E+3
   3.04985E+3  -6.96440E+1
   1.85853E+3   4.58641E+2
   5.28947E+2   1.24951E+3
   5.52565E+2  -1.01326E+3
   1.68681E+3  -8.23499E+2
   1.79007E+3  -4.25523E+2
   9.99609E+1   8.96803E+1
   9.37793E+2   1.83168E+2
   2.66080E+3   8.41237E+2
  -3.52947E+2   1.56391E+3
  -5.77209E+2   7.93804E+2
   2.06317E+2   1.20986E+2
  -7.40747E+2  -1.67664E+3
  -1.44679E+3  -3.55083E+2
  -6.46149E+2  -1.01904E+3
  -1.49961E+2  -4.46780E+2
   9.34751E+2  -5.01381E+2
   7.07230E+2  -5.38274E+2
   5.51009E+2   7.84640E+2
   1.19366E+2  -1.03548E+3
   1.06214E+3   4.05598E+2
  -2.64534E+2  -1.45886E+3
   9.54972E+2  -8.05555E+2
   1.94050E+2   9.23186E+2
   6.88439E+2  -1.00387E+3
   1.45359E+2   1.97587E+2
  -1.60416E+3   2.70955E+3
   5.50952E+2   1.27255E+3
  -1.45744E+3  -8.61408E+2
  -1.00733E+2   9.10912E+2
   1.22120E+3  -3.61308E+2
  -2.16339E+2  -1.20457E+3
  -1.08924E+3  -6.60983E+2
   3.69160E+2  -7.27154E+2
   1.99212E+3   1.95799E+3
  -8.04354E+2  -1.61590E+3
  -6.16085E+2  -1.51571E+3
   6.54531E+2  -3.00661E+1
  -6.34573E+2  -1.93706E+1
  -3.60311E+2  -1.29461E+3
   6.89734E+2  -7.19594E+2
  -6.86267E+0  -2.24445E+3
  -8.62732E+2  -6.39964E+2
  -1.72156E+3  -8.49542E+2
  -1.71120E+2   1.33573E+3
  -2.91868E+2  -2.77020E+2
   1.48708E+3  -1.29193E+3
   1.70036E+3  -7.95657E+2
   1.08491E+3   3.11298E+2
   7.81555E+2   3.39953E+2
  -4.03588E+2  -9.03413E+2
  -6.01790E+2  -7.74785E+1
  -1.45172E+3   1.30924E+3
   6.59964E+0   9.13935E+2
  -1.58375E+3  -2.87600E+3
   2.76484E+1  -1.44577E+3
  -1.76908E+3  -1.20811E+3
   5.69696E+1  -9.79282E+2
   6.82026E+2  -7.47132E+2
  -1.54584E+3  -1.17991E+2
   6.14755E+2  -5.64097E+2
   1.94465E+3  -8.98666E+2
  -5.71015E+2  -1.21937E+3
   3.42765E+2  -6.15189E+1
  -6.88915E+2   1.27641E+3
   9.32671E+2  -1.15748E+3
   1.26335E+2   1.16482E+3
  -1.37421E+3  -1.86583E+3
  -2.03066E+2  -3.91572E+2
   8.33670E+2   1.62748E+3
   1.53541E+2   1.73011E+2
  -7.74990E+2   1.80035E+2
  -1.01714E+3   1.14044E+2
  -5.39969E+2   4.02156E+1
   2.64180E+3   2.02298E+3
   2.40611E+2   2.89538E+2
  -1.06305E+3   1.41421E+3
  -1.13431E+3   1.45640E+3
  -4.69805E+2  -3.71823E+2
   6.25044E+2  -3.50678E+2
  -8.37745E+2   1.78618E+3
   1.22523E+3   1.59669E+3
  -7.61220E+2  -1.26194E+3
  -1.63062E+2  -2.52571E+2
  -1.57128E+2   5.20862E+2
  -9.16146E+2  -1.11496E+3
  -2.44909E+3   4.21084E+2
   6.22917E+2  -1.64656E+2
   9.28149E+1  -8.99484E+2
  -2.27372E+3  -1.63059E+3
  -6.29920E+2  -1.66980E+3
   7.12758E+2   4.15504E+2
   6.79110E+2   5.95530E+2
   1.23021E+3  -1.31519E+3
  -2.71591E+2  -7.88409E+2
   1.50091E+3  -1.53590E+2
  -1.16230E+3  -3.49180E+2
   6.79350E+2  -1.35328E+3
   2.26177E+3  -1.12244E+1
   6.98242E+2   3.88819E+2
  -8.71934E+2  -6.40685E+2
  -3.00724E+2   8.09405E+1
  -1.22112E+3  -1.55206E+3
  -1.15908E+1  -1.26645E+2
  -2.02085E+3  -2.16152E+3
  -2.59051E+3  -6.37035E+2
   1.20243E+3  -1.05343E+3
  -4.88681E+2  -1.15875E+3
  -1.27317E+3  -1.61103E+2
   1.15530E+3   3.45916E+2
  -1.59764E+3  -1.67739E+3
  -2.94772E+2  -4.17825E+2
   1.01203E+3  -1.71774E+3
  -3.14285E+2   3.97672E+2
   2.44836E+1   1.11755E+3
   2.55923E+2  -1.08677E+3
  -1.14555E+3  -1.42492E+3
  -4.67859E+2  -9.91675E+2
  -1.35540E+3   1.00126E+3
  -6.36653E-1   1.35400E+3
  -7.93728E+2   1.19633E+3
   1.88703E+2   9.74605E+2
  -1.06954E+3   5.95225E+2
  -1.70042E+3  -5.66179E+0
   1.41949E+3   2.01565E+2
   5.92572E+2  -8.09758E+1
  -3.89128E+2  -1.99272E+2
   3.22603E+2  -3.76327E+2
  -4.87846E+2  -1.69093E+3
   7.28908E+2  -7.48484E+1
  -1.22655E+3  -1.29915E+3
   1.07453E+2   1.27962E+3
   6.45006E+0  -1.13443E+3
  -2.48822E+3  -4.90166E+2
  -2.65476E+2   4.02930E+2
   2.04857E+3   7.74303E+0
  -8.19476E+2  -9.99158E+2
   3.73783E+2   6.38808E+2
  -1.05332E+3  -6.30432E+2
  -3.59466E+2   4.90292E+2
  -1.48217E+2   1.23637E+3
  -8.43660E+1   1.94456E+3
  -9.64305E+2  -1.04054E+2
  -3.19927E+2  -9.72497E+2
   7.97161E+2  -1.14983E+3
   1.12772E+3  -6.59248E+2
   1.06871E+3   2.16010E+3
  -2.48424E+3  -9.16145E+2
  -1.48130E+3  -9.94366E+1
   1.44139E+2   1.49722E+3
  -1.75239E+2  -9.65529E+2
   1.01270E+2   3.31518E+1
   6.17148E+1   2.62126E+1
   2.11319E+3  -1.10752E+2
  -3.24784E+2  -6.32677E+1
   1.48751E+3  -3.67121E+2
  -7.66706E+2  -1.13257E+2
   1.27108E+3  -6.87155E+2
  -1.09742E+3  -4.61688E+2
   5.09972E+2   1.49854E+3
  -2.84501E+2  -9.99067E+2
   5.69484E+0   2.43365E+2
   1.05692E+3   8.21816E+2
   5.81351E+2   2.02959E+3
   7.79793E+2   8.65917E+2
  -5.19236E+0   5.72002E+2
  -1.24575E+3   6.33720E+2
   2.32699E+2   1.81040E+3
   2.32567E+3  -1.25233E+3
  -5.28616E+2   7.19917E+2
  -3.46041E+2  -7.20006E+2
   1.14393E+3  -1.33161E+3
   4.73847E+2   2.55090E+2
   9.45286E+1  -1.95302E+3
  -4.71955E+2  -7.08797E+2
   7.71215E+2  -7.82525E+2
   3.45782E+2   9.48040E+1
   1.26102E+3   1.63973E+2
   1.19164E+3  -1.32603E+2
   3.33684E+2  -7.48808E+2
  -6.06064E+2  -2.78493E+2
   1.92064E+3   4.00255E+1
   1.48097E+3   1.33944E+3
   1.00858E+3  -4.47138E+2
   8.24438E+2  -2.00511E+2
   3.87059E+2  -1.00834E+3
   1.85414E+2  -5.49744E+2
   2.46896E+2   2.02272E+3
   1.81212E+3   1.43094E+3
   7.57577E+2   1.99947E+3
  -2.42998E+2   1.29090E+3
   2.08729E+3  -8.28369E+1
   3.69909E+2  -9.30149E+2
   5.38025E+2   2.33938E+3
   1.19222E+3   1.91643E+3
   1.90272E+3   1.70772E+3
   1.08178E+2   4.67700E+2
   7.97519E+2  -1.49361E+3
   2.92651E+2  -4.71696E+2
  -1.30750E+2   1.53325E+3
   7.76842E+2   4.19512E+2
   8.75974E+1   1.40721E+2
   1.15179E+2   1.72500E+3
   3.75828E+2  -7.64601E+2
   1.76529E+3   1.57399E+3
  -2.78190E+2   1.21235E+3
  -1.88113E+2  -1.35477E+3
  -4.53928E+2   9.19190E+2
   1.52922E+3  -3.23218E+2
  -1.13003E+3   1.63656E+2
  -8.04582E+2   1.07814E+3
   1.73469E+2  -6.22972E+2
   6.20305E+2  -1.30671E+3
   3.44039E+2  -9.37787E+1
  -1.96914E+3  -5.28674E+2
  -1.63429E+3  -5.92581E+2
   2.97587E+2  -8.88410E+2
   3.64863E+0   2.73460E+2
  -2.27662E+2   2.85400E+2
  -1.82463E+3   1.49589E+2
  -1.33966E+3  -1.10601E+3
   4.10800E+1  -1.81248E+3
   1.69715E+3  -1.25034E+3
   9.45452E+2  -2.04161E+3
  -3.04252E+2  -3.79114E+2
  -9.94591E+2   1.53469E+3
   1.80762E+2  -1.09749E+3
  -5.66068E+2  -6.07349E+2
  -3.09265E+2   4.76074E+2
   5.99988E+2  -5.93153E+2
  -3.61990E+2  -8.04006E+2
   4.97463E+2  -2.11291E+2
   2.23717E+2  -3.86723E+2
  -1.02661E+3  -1.82220E+3
  -8.11326E+1   1.94082E+2
   9.83043E+2  -2.00079E+3
   7.06958E+2  -2.30961E+3
  -3.32731E+1  -1.91772E+3
  -1.37520E+3   8.38666E+2
  -7.82293E+1  -9.94606E+2
  -7.57046E+2  -8.84519E+1
  -5.73845E+2  -1.14691E+3
  -1.45260E+3  -1.64774E+3
  -3.59485E+2  -5.93344E+2
  -8.69180E+1  -2.74129E+2
  -1.08174E+3  -1.34315E+3
  -4.80366E+2  -1.32445E+3
  -5.40510E+2  -1.50050E+3
  -2.22202E+2  -1.44461E+3
  -1.55186E+3   1.51690E+3
   2.09445E+2  -1.37633E+2
   2.18985E+2  -1.45635E+3
  -1.36323E+3   7.08489E+2
   4.89966E+2  -1.58205E+2
   1.41722E+3  -7.89119E+2
   7.25535E+2  -3.99836E+2
   1.16219E+2  -1.89993E+3
  -2.10513E+3   4.35443E+2
   1.77730E+3   6.44092E+2
  -2.15079E+3  -1.70273E+3
   2.31016E+3  -1.10785E+3
   7.78768E+2   2.59696E+2
  -1.12955E+3  -9.12547E+2
   4.20554E+2  -1.94022E+3
  -5.02977E+1  -8.59562E+2
  -1.64994E+3  -8.94160E+2
  -5.44874E+2  -3.35828E+2
