 LCModel (Version 6.3-1N) Copyright: S.W. Provencher.          Ref.: Magn. Reson. Med. 30:672-679 (1993).                
 Slice_N1@19_19  02-Jun-2023 14:36:50
 27 lines in following concentration table = NCONC+1
    Conc.  %SD /Cr+PCr  Metabolite                                         
 3.00E-06  12% 3.3E-04 Mac                                                 
 3.61E-02  19%   4.004 Cr                                                  
 3.60E-02  18%   3.996 PCr                                                 
 8.42E-02  10%   9.345 Ins                                                 
 8.99E-02   7%   9.979 NAA                                                 
 6.39E-02  11%   7.091 Tau                                                 
 3.86E-03  53%   0.428 PCho                                                
 7.87E-03  27%   0.874 GPC                                                 
 8.83E-02  11%   9.806 Glu                                                 
 2.21E-02  31%   2.459 Gln                                                 
 3.41E-03 199%   0.378 Ala                                                 
 1.92E-02  66%   2.126 Asc                                                 
 1.29E-02  58%   1.436 Asp                                                 
 8.52E-03  48%   0.946 GABA                                                
 8.36E-03  61%   0.928 Glc                                                 
 1.29E-02  29%   1.435 GSH                                                 
    0.000 999%   0.000 Lac                                                 
 1.49E-03 283%   0.166 NAAG                                                
    0.000 999%   0.000 PE                                                  
 1.17E-02  16%   1.302 GPC+PCho                                            
 9.14E-02   8%  10.145 NAA+NAAG                                            
    0.110  10%  12.264 Glu+Gln                                             
 7.21E-02   8%   8.000 Cr+PCr                                              
 9.14E-02   8%  10.145 NAA+NAAG                                            
 7.21E-02   8%   8.000 Cr+PCr                                              
    0.110  10%  12.264 Glu+Gln                                             
   6 lines in following misc. output table
  FWHM = 0.017 ppm    S/N =   9                                            
  Data shift = 0.017 ppm                                                   
  Ph: -24 deg     -20.2 deg/ppm                                            
  alphaB,S = 1.7E-01,   5.5E+00                                            
   18 spline knots.   Ns = 5(1)                                            
  ( 3) 3 infls.   ( 3) 1 extrs.                                            
  654 points on ppm-axis = NY
      4.000000     3.994181     3.988363     3.982544     3.976726     3.970907     3.965088     3.959270     3.953451     3.947633
      3.941814     3.935995     3.930177     3.924358     3.918540     3.912721     3.906902     3.901084     3.895265     3.889446
      3.883628     3.877809     3.871991     3.866172     3.860353     3.854535     3.848716     3.842898     3.837079     3.831260
      3.825442     3.819623     3.813805     3.807986     3.802167     3.796349     3.790530     3.784712     3.778893     3.773074
      3.767256     3.761437     3.755619     3.749800     3.743981     3.738163     3.732344     3.726526     3.720707     3.714888
      3.709070     3.703251     3.697433     3.691614     3.685795     3.679977     3.674158     3.668339     3.662521     3.656702
      3.650884     3.645065     3.639246     3.633428     3.627609     3.621791     3.615972     3.610153     3.604335     3.598516
      3.592698     3.586879     3.581060     3.575242     3.569423     3.563605     3.557786     3.551967     3.546149     3.540330
      3.534512     3.528693     3.522874     3.517056     3.511237     3.505419     3.499600     3.493781     3.487963     3.482144
      3.476326     3.470507     3.464688     3.458870     3.453051     3.447232     3.441414     3.435595     3.429777     3.423958
      3.418139     3.412321     3.406502     3.400684     3.394865     3.389046     3.383228     3.377409     3.371591     3.365772
      3.359953     3.354135     3.348316     3.342498     3.336679     3.330860     3.325042     3.319223     3.313405     3.307586
      3.301767     3.295949     3.290130     3.284312     3.278493     3.272674     3.266856     3.261037     3.255219     3.249400
      3.243581     3.237763     3.231944     3.226125     3.220307     3.214488     3.208670     3.202851     3.197032     3.191214
      3.185395     3.179577     3.173758     3.167939     3.162121     3.156302     3.150484     3.144665     3.138846     3.133028
      3.127209     3.121391     3.115572     3.109753     3.103935     3.098116     3.092298     3.086479     3.080660     3.074842
      3.069023     3.063205     3.057386     3.051567     3.045749     3.039930     3.034111     3.028293     3.022474     3.016656
      3.010837     3.005018     2.999200     2.993381     2.987563     2.981744     2.975925     2.970107     2.964288     2.958470
      2.952651     2.946832     2.941014     2.935195     2.929377     2.923558     2.917739     2.911921     2.906102     2.900284
      2.894465     2.888646     2.882828     2.877009     2.871191     2.865372     2.859553     2.853735     2.847916     2.842098
      2.836279     2.830460     2.824642     2.818823     2.813004     2.807186     2.801367     2.795549     2.789730     2.783911
      2.778093     2.772274     2.766456     2.760637     2.754818     2.749000     2.743181     2.737363     2.731544     2.725725
      2.719907     2.714088     2.708270     2.702451     2.696632     2.690814     2.684995     2.679177     2.673358     2.667539
      2.661721     2.655902     2.650084     2.644265     2.638446     2.632628     2.626809     2.620991     2.615172     2.609353
      2.603535     2.597716     2.591897     2.586079     2.580260     2.574442     2.568623     2.562804     2.556986     2.551167
      2.545349     2.539530     2.533711     2.527893     2.522074     2.516256     2.510437     2.504618     2.498800     2.492981
      2.487163     2.481344     2.475525     2.469707     2.463888     2.458070     2.452251     2.446432     2.440614     2.434795
      2.428977     2.423158     2.417339     2.411521     2.405702     2.399884     2.394065     2.388246     2.382428     2.376609
      2.370790     2.364972     2.359153     2.353335     2.347516     2.341697     2.335879     2.330060     2.324242     2.318423
      2.312604     2.306786     2.300967     2.295149     2.289330     2.283511     2.277693     2.271874     2.266056     2.260237
      2.254418     2.248600     2.242781     2.236963     2.231144     2.225325     2.219507     2.213688     2.207870     2.202051
      2.196232     2.190414     2.184595     2.178777     2.172958     2.167139     2.161321     2.155502     2.149683     2.143865
      2.138046     2.132228     2.126409     2.120590     2.114772     2.108953     2.103135     2.097316     2.091497     2.085679
      2.079860     2.074042     2.068223     2.062404     2.056586     2.050767     2.044949     2.039130     2.033311     2.027493
      2.021674     2.015856     2.010037     2.004218     1.998400     1.992581     1.986763     1.980944     1.975126     1.969307
      1.963489     1.957670     1.951852     1.946033     1.940215     1.934397     1.928578     1.922760     1.916941     1.911123
      1.905304     1.899486     1.893667     1.887849     1.882030     1.876212     1.870393     1.864575     1.858756     1.852938
      1.847119     1.841301     1.835482     1.829664     1.823845     1.818027     1.812208     1.806390     1.800571     1.794753
      1.788934     1.783116     1.777297     1.771479     1.765660     1.759842     1.754023     1.748205     1.742386     1.736568
      1.730749     1.724931     1.719113     1.713294     1.707476     1.701657     1.695839     1.690020     1.684202     1.678383
      1.672565     1.666746     1.660928     1.655109     1.649291     1.643472     1.637654     1.631835     1.626017     1.620198
      1.614380     1.608561     1.602743     1.596924     1.591106     1.585287     1.579469     1.573650     1.567832     1.562013
      1.556195     1.550376     1.544558     1.538739     1.532921     1.527102     1.521284     1.515465     1.509647     1.503829
      1.498010     1.492192     1.486373     1.480555     1.474736     1.468918     1.463099     1.457281     1.451462     1.445644
      1.439825     1.434007     1.428188     1.422370     1.416551     1.410733     1.404914     1.399096     1.393277     1.387459
      1.381640     1.375822     1.370003     1.364185     1.358366     1.352548     1.346729     1.340911     1.335092     1.329274
      1.323455     1.317637     1.311818     1.306000     1.300182     1.294363     1.288545     1.282726     1.276908     1.271089
      1.265271     1.259452     1.253634     1.247815     1.241997     1.236178     1.230360     1.224541     1.218723     1.212904
      1.207086     1.201267     1.195449     1.189630     1.183812     1.177993     1.172175     1.166356     1.160538     1.154719
      1.148901     1.143082     1.137264     1.131445     1.125627     1.119808     1.113990     1.108171     1.102353     1.096534
      1.090716     1.084898     1.079079     1.073261     1.067442     1.061624     1.055805     1.049987     1.044168     1.038350
      1.032531     1.026713     1.020894     1.015076     1.009257     1.003439     0.997620     0.991802     0.985983     0.980165
      0.974346     0.968528     0.962709     0.956891     0.951072     0.945254     0.939435     0.933617     0.927798     0.921980
      0.916161     0.910343     0.904524     0.898706     0.892887     0.887069     0.881251     0.875432     0.869614     0.863795
      0.857977     0.852158     0.846340     0.840521     0.834703     0.828884     0.823066     0.817247     0.811429     0.805610
      0.799792     0.793973     0.788155     0.782336     0.776518     0.770699     0.764881     0.759062     0.753244     0.747425
      0.741607     0.735788     0.729970     0.724151     0.718333     0.712514     0.706696     0.700877     0.695059     0.689240
      0.683422     0.677603     0.671785     0.665967     0.660148     0.654330     0.648511     0.642693     0.636874     0.631056
      0.625237     0.619419     0.613600     0.607782     0.601963     0.596145     0.590326     0.584508     0.578689     0.572871
      0.567052     0.561234     0.555415     0.549597     0.543778     0.537960     0.532141     0.526323     0.520504     0.514686
      0.508867     0.503049     0.497230     0.491412     0.485593     0.479775     0.473956     0.468138     0.462319     0.456501
      0.450682     0.444864     0.439045     0.433227     0.427408     0.421590     0.415771     0.409953     0.404134     0.398316
      0.392497     0.386679     0.380860     0.375042     0.369223     0.363405     0.357586     0.351767     0.345949     0.340130
      0.334312     0.328493     0.322675     0.316856     0.311038     0.305219     0.299401     0.293582     0.287764     0.281945
      0.276127     0.270308     0.264490     0.258671     0.252853     0.247034     0.241216     0.235397     0.229579     0.223760
      0.217942     0.212123     0.206305     0.200486
 NY phased data points follow
  -2.58641E-01  6.16102E-03 -8.03333E-02 -3.70567E-01  7.43669E-02 -2.70829E-01 -1.34271E-01 -7.97593E-02  3.50232E-02  1.40322E-01
   7.21609E-02  5.84181E-01  4.69044E-01 -2.36608E-02  1.40424E-01  6.64590E-01  3.58100E-01  9.34079E-02  7.64798E-02  1.48181E-01
   1.93144E-02  4.31643E-03 -3.02541E-01 -4.25501E-01  2.32608E-01  9.93503E-02  5.12182E-02  6.56463E-02 -2.46357E-01 -4.62676E-02
   4.46715E-02 -2.97131E-01 -2.57815E-01 -3.64104E-01 -3.87341E-01 -2.87005E-01 -3.37244E-01 -4.92216E-01 -2.90827E-01  7.11361E-02
   2.42114E-01  4.43337E-01  2.41150E-01  3.61273E-01  2.00212E-01  1.24193E-01  2.21944E-01  2.15602E-01  2.50446E-01  2.59180E-01
   1.18371E-01  2.08072E-01  1.28358E-01 -2.72090E-01  2.36959E-02 -2.21940E-01 -8.94033E-02  1.17512E-01 -6.57445E-02 -1.07308E-01
  -2.05720E-02 -4.92793E-01 -3.93940E-01  5.31529E-02 -7.77968E-01 -8.28811E-03  5.51560E-01  6.34265E-02  3.78034E-01  4.80236E-01
   6.09017E-02  6.24848E-02 -8.14680E-02 -3.01194E-01 -1.15650E-01 -1.74703E-01 -3.65977E-01 -4.86592E-01 -4.11223E-01 -8.95321E-01
  -1.99128E-01  4.17464E-01 -1.30696E-01  2.31711E-01  5.76192E-01  4.80480E-01  4.53641E-01  3.32708E-01  7.36624E-02  2.76026E-01
   2.76831E-01  1.49071E-01  1.63633E-01  7.50959E-02 -4.83762E-02  8.18391E-02  1.36426E-01 -1.50923E-01 -7.39591E-02 -6.73095E-01
  -3.86364E-01  3.29442E-01  1.41610E-01  6.72018E-01  3.51353E-01  2.62720E-01  5.65623E-01  9.48175E-02  4.96602E-01  5.62663E-01
   8.11510E-02  3.40029E-01  6.45999E-02  1.00616E-01  4.98940E-01 -7.65398E-03  2.95940E-01  4.18927E-01  3.39471E-01  4.90337E-02
   1.36986E-01  6.81909E-03 -4.48942E-01  2.53120E-01 -3.86388E-01  5.92602E-02 -2.53616E-02 -6.46827E-01 -3.79271E-01 -8.94155E-01
  -7.86357E-01 -6.44503E-01 -1.62244E-01 -4.89010E-01 -6.40242E-01 -6.82196E-01 -7.34122E-01 -4.08504E-01 -3.43429E-01  3.48561E-02
  -4.50349E-01 -2.58645E-01  4.87123E-02 -3.49539E-01 -9.58921E-02  1.12560E-01  2.28455E-01  2.25569E-01  2.14492E-01  3.10985E-01
   1.44935E-01 -2.20102E-02 -4.52669E-02  1.62822E-01  1.79335E-01  5.32422E-01  3.25639E-01  1.55163E-01  6.80620E-01  3.91851E-01
   5.79683E-01  5.15285E-01  7.57311E-01  9.91799E-01  6.57353E-01  1.05039E+00  8.08547E-01 -4.28358E-01 -1.29275E+00 -1.03013E+00
  -7.64436E-01 -5.78079E-01 -1.27045E-01 -3.23770E-01 -5.67858E-01 -2.37531E-01 -4.70335E-01 -3.21290E-01 -1.89465E-01 -4.46233E-01
  -3.31979E-01 -2.99555E-01 -8.35704E-02 -4.64076E-02 -2.21537E-01 -2.81303E-01 -1.61582E-02 -1.35132E-01 -1.70570E-01 -4.84426E-01
  -3.27113E-01 -2.21844E-01 -4.98654E-01  1.29424E-01 -3.30675E-01 -2.24364E-01 -1.27531E-01 -1.96111E-01  1.38352E-01 -9.88299E-02
   2.33631E-01  2.20685E-01 -4.36278E-02 -2.85052E-02 -4.68478E-02 -2.65942E-01 -5.41063E-04  1.26592E-01 -2.66703E-02  8.82092E-02
  -1.47087E-01 -1.71301E-01 -1.71979E-01 -4.05305E-02 -5.37633E-02  1.59711E-02  1.17674E-01 -2.01311E-01  7.69859E-02  3.23336E-01
   2.54231E-01  8.72832E-02  1.02529E-01  2.57037E-02  3.63136E-01  5.95319E-01  2.93249E-01  3.38282E-01 -1.50697E-01  3.47264E-01
   6.79966E-01  3.09878E-01  1.46041E-01  8.70974E-02  3.81570E-01  2.02755E-01  7.55470E-03 -4.14760E-01 -1.79736E-01  1.13943E-01
  -1.81470E-01 -4.36716E-01 -2.18699E-02  1.37267E-01 -1.98806E-01 -1.67664E-02 -1.61214E-01 -5.06484E-02 -1.46479E-01  8.30629E-04
  -6.35431E-02 -2.69227E-01 -2.08914E-01 -1.32013E-01  7.49028E-02 -1.56888E-01  1.91142E-01  2.38379E-02 -8.38847E-02  2.90488E-01
   2.47031E-01  1.33010E-01 -7.93227E-03  2.42272E-02 -4.31814E-04  2.26622E-01  3.36472E-01  8.48127E-02  1.56567E-01  2.27508E-01
   2.85768E-01  2.29315E-01  1.95985E-02  1.13712E-02 -3.59219E-01 -3.15876E-01 -1.35149E-01  2.52214E-02 -3.21036E-01 -5.79123E-01
  -3.79108E-01 -7.24266E-01 -2.24772E-01 -3.01944E-01  1.02806E-01  4.35284E-01  2.18792E-01  5.67227E-01  4.22484E-01  4.73184E-01
  -4.80942E-02  2.80968E-01  5.17580E-01 -8.55901E-03  1.33619E-01  4.00875E-01  2.80196E-01 -1.68232E-01 -1.62219E-02  1.30792E-01
   1.92843E-01  3.49253E-01  1.62215E-01  3.80546E-02  2.47769E-01  4.27603E-01  6.66159E-01  6.34163E-01  5.60401E-01  2.91079E-01
   3.66048E-01  2.68072E-01 -4.61431E-02  3.60915E-01 -1.51242E-01 -3.25542E-03  3.09130E-03 -1.59000E-01  2.29875E-01 -1.85863E-01
  -1.94315E-01 -3.45081E-01 -2.86346E-01 -3.42864E-01 -5.31530E-01 -1.18619E-01 -2.58535E-01  4.31520E-02  5.05008E-02  4.96044E-02
   3.81497E-01  1.37423E-03  3.21213E-01  1.15034E-02 -1.53945E-01 -2.48073E-01 -2.33071E-01 -3.35492E-01 -7.50088E-01 -6.28069E-01
  -3.25408E-01 -8.33901E-01 -3.55784E+00 -1.65710E+00 -1.21013E-01 -8.35166E-01  2.15290E-01 -1.93195E-01  4.49645E-04 -6.04762E-02
   4.95897E-01  2.71130E-01  1.93834E-01  2.74081E-01 -8.15327E-02  4.67801E-01  3.29650E-01  2.14682E-01  6.88089E-02  2.76113E-01
   1.65148E-01  2.58792E-01  2.40085E-01  7.76608E-02  9.70729E-02 -3.29129E-03 -1.53909E-01 -2.19215E-01  4.52342E-02 -7.07175E-03
   3.10497E-02  3.12200E-01  1.25234E-01  2.28676E-01  4.32693E-01  1.85172E-02  2.66740E-01  2.03873E-01  3.14268E-01  1.38573E-01
   3.22021E-02  1.88359E-01  4.96880E-02  1.12683E-01  1.40462E-01  3.84247E-01  1.87435E-01  4.06979E-01 -3.66100E-03  6.88307E-02
   2.66374E-01  1.31361E-01  3.59049E-01  3.07007E-01  4.39113E-02 -6.17338E-02  4.59043E-01  1.85096E-01  1.14069E-01  1.47916E-01
   2.66743E-01  7.15797E-02 -1.49601E-02  7.13340E-02  8.93870E-02  1.76213E-01 -1.59955E-01 -2.23308E-02 -1.03004E-01  5.15317E-03
  -1.74275E-01 -3.42661E-01 -1.70656E-01 -1.34429E-01 -6.59389E-02 -1.67908E-01 -2.43433E-01 -2.80698E-01 -4.92052E-01 -3.82026E-01
  -1.85686E-01 -1.29612E-01 -2.26484E-01 -3.07216E-01  2.71343E-03 -2.47308E-01 -2.91632E-01 -6.31400E-01 -2.79396E-01  3.69036E-01
   5.62602E-02 -1.48852E-01 -7.10374E-02  3.08580E-01 -7.78134E-02 -1.05884E-01  2.01180E-01 -1.92121E-02  1.73224E-01  1.26045E-01
  -2.38785E-01  2.52969E-01 -6.27326E-02 -1.99877E-01  2.40491E-01  1.84113E-01  1.50298E-01  5.74325E-02  3.90511E-01  8.13122E-02
   2.54396E-01  4.50698E-01  2.04139E-01  1.05560E-01  2.00354E-02  1.45402E-01  2.12419E-01 -3.82825E-02 -4.16646E-01 -5.99577E-02
   6.66077E-03  7.83677E-02  1.48714E-01  2.02732E-02  4.72089E-02  5.59000E-03 -8.92434E-02 -2.22381E-01 -1.78845E-01  2.86292E-04
  -2.78539E-01 -4.21697E-01 -4.64353E-01 -3.29351E-01 -1.04433E-02 -3.77101E-01 -1.82019E-01 -2.39549E-01 -3.78014E-02 -2.91092E-01
  -4.27523E-01  1.84281E-01 -4.15908E-03  1.46506E-01  7.48466E-02  4.99077E-01  3.10599E-01 -5.38902E-02 -2.83796E-02 -1.47936E-01
   2.68808E-01  8.22018E-02  1.72715E-01  9.91465E-02 -1.18485E-01  1.53491E-01  9.94374E-02  1.08773E-01  2.49383E-01  2.34650E-01
   1.23218E-02  1.54269E-01  2.32511E-01 -1.08990E-01  4.30319E-02  1.54509E-01  1.21872E-01  4.85921E-02 -2.02127E-02  5.32920E-02
   2.55997E-01  2.85462E-01  7.95799E-02  1.31242E-01  2.22439E-01  3.42876E-01  3.47874E-02 -1.40181E-01 -1.56916E-01 -1.55992E-01
   6.03410E-03 -1.06333E-01 -3.51587E-02 -9.50859E-02 -3.05860E-01 -2.28624E-01 -1.84468E-01 -4.27337E-01 -7.45175E-01 -6.40907E-01
  -3.94203E-01 -4.26763E-01 -2.69933E-01 -2.98560E-01 -1.86146E-01 -5.76212E-02 -1.58185E-01 -4.93748E-02  3.18817E-02 -1.59943E-02
  -2.85046E-01 -2.71657E-01 -2.29294E-01 -5.71794E-02  1.90900E-02  1.68846E-03  1.68806E-01 -6.43803E-02 -7.72386E-02  1.55661E-02
   6.97216E-02  2.97213E-01  1.25824E-01  1.40139E-01  5.94738E-02  2.54781E-01  2.49865E-01 -1.25809E-01  4.44730E-01 -1.59375E-02
   4.31444E-02  4.39700E-01  1.43389E-01  3.46598E-02 -6.48727E-02  3.19478E-01  1.79393E-01  2.56706E-01  2.28519E-01  8.32206E-02
   2.16931E-01  2.30636E-01  5.45185E-02 -1.26048E-02 -4.88265E-02  4.90837E-02  1.48659E-01  7.95483E-02  2.17072E-01  1.42485E-02
   2.33926E-01  1.95799E-01 -2.35618E-02 -1.32513E-01  1.86973E-01  2.02986E-01  2.17086E-02 -5.23805E-02 -2.33426E-01  3.92465E-01
   3.08413E-01  1.86354E-01  7.94085E-02  1.61650E-01  1.19520E-02 -2.28643E-02  7.04338E-03 -4.64801E-02  3.88369E-01  7.62362E-02
  -9.17427E-02 -1.13788E-01  2.36745E-01  4.36870E-02  1.12264E-01  2.41329E-01 -6.49463E-02  1.42755E-01 -1.12625E-01 -3.17147E-01
  -4.43577E-01 -2.32591E-01  2.50626E-01  2.00981E-01  1.02302E-01  3.99361E-01 -1.37188E-01 -9.46192E-02  4.60317E-02 -1.25731E-01
   2.08059E-01  2.58645E-02  1.98286E-01  1.64470E-01  1.72788E-01 -5.35497E-02  1.09580E-01  3.88395E-01 -5.07361E-02 -2.16631E-01
   3.51970E-02  1.53255E-01 -1.22425E-01  5.53600E-02 -3.78813E-04  2.01605E-01  1.86775E-01  1.69150E-01  4.79402E-02 -1.52663E-01
   2.13836E-01  1.35994E-02  1.31382E-01  5.57167E-02 -7.28480E-02  8.61469E-02  4.44619E-02 -1.75009E-02 -5.41829E-02 -1.33938E-01
   4.13662E-02  2.64601E-01  1.51252E-01  1.87538E-01
 NY points of the fit to the data follow
  -1.74215E-02 -2.57024E-02 -4.21277E-02 -5.32836E-02 -4.39182E-02 -2.83754E-02 -1.16266E-02  3.28291E-02  8.30413E-02  7.88224E-02
   1.72743E-01  5.91803E-01  6.08072E-01  2.22217E-01  3.09589E-01  7.58081E-01  4.48810E-01  1.49825E-01  1.50189E-01 -6.96990E-04
   1.39299E-02 -1.06989E-02 -7.53800E-02 -1.04252E-01 -1.29350E-01 -1.56559E-01 -1.70061E-01 -1.82113E-01 -2.04043E-01 -2.19810E-01
  -2.25253E-01 -2.46271E-01 -2.75850E-01 -3.09350E-01 -3.42268E-01 -3.38973E-01 -3.36907E-01 -3.38045E-01 -2.72506E-01 -2.01351E-02
   7.73897E-02  1.04926E-01  1.85219E-01  2.75867E-01  3.18838E-01  3.67899E-01  3.41696E-01  1.80739E-01  1.59014E-01  1.20333E-01
   4.01725E-02  2.01326E-02 -1.87955E-02 -6.98343E-02 -1.02591E-01 -1.59829E-01 -2.15640E-01 -2.24615E-01 -2.06096E-01 -2.21290E-01
  -3.34905E-01 -4.26409E-01 -3.14170E-01 -2.56427E-01 -3.96099E-01  6.30695E-02  3.15296E-01  3.42843E-02  4.26673E-01  4.99842E-01
   2.56239E-01  2.64689E-01  1.42891E-01  5.40465E-02 -9.17322E-03 -1.46378E-01 -2.39525E-01 -2.62834E-01 -4.87807E-01 -7.73402E-01
  -3.26793E-01  1.18306E-01 -5.71371E-02  2.17783E-01  5.09003E-01  3.91561E-01  3.78646E-01  3.41883E-01  2.61360E-01  2.39955E-01
   2.41719E-01  2.06099E-01  1.58476E-01  9.85990E-02  3.53820E-02 -6.70829E-02 -1.89319E-01 -3.42200E-01 -3.43813E-01 -5.08257E-01
  -1.82657E-01 -1.52257E-02  1.19707E-01  3.67562E-01  2.50992E-01  2.87975E-01  2.81137E-01  2.60383E-01  2.78283E-01  2.78447E-01
   2.72251E-01  2.74719E-01  2.69789E-01  2.63977E-01  2.62996E-01  2.62082E-01  2.62089E-01  2.54243E-01  2.18835E-01  2.03713E-01
   1.86764E-01  6.26640E-02 -8.13457E-02 -2.88985E-02 -1.91878E-01 -3.21653E-01 -1.88970E-01 -4.42921E-01 -5.40898E-01 -5.88917E-01
  -6.50043E-01 -5.64600E-01 -4.21984E-01 -3.03670E-01 -6.62501E-01 -8.00838E-01 -6.96077E-01 -4.43321E-01 -1.74222E-01 -1.15724E-01
  -5.05711E-02 -2.61712E-02  8.06358E-03  5.15229E-02  8.19357E-02  1.11301E-01  1.35558E-01  1.55541E-01  1.76478E-01  1.91786E-01
   2.07510E-01  2.27163E-01  2.43346E-01  2.62573E-01  2.85230E-01  3.07009E-01  3.35650E-01  3.69831E-01  4.06337E-01  4.47717E-01
   5.13513E-01  6.23285E-01  7.51788E-01  7.21432E-01  6.32986E-01  8.40738E-01  8.06662E-01 -4.26306E-01 -1.28240E+00 -9.32384E-01
  -6.76874E-01 -5.37373E-01 -3.67309E-01 -4.21611E-01 -4.51454E-01 -3.66088E-01 -3.12983E-01 -3.08562E-01 -3.19795E-01 -2.98176E-01
  -2.58762E-01 -2.28231E-01 -2.36670E-01 -2.20134E-01 -2.24797E-01 -2.21176E-01 -1.98674E-01 -1.87622E-01 -1.77592E-01 -1.72288E-01
  -1.55630E-01 -1.42804E-01 -1.30079E-01 -1.17208E-01 -1.02746E-01 -9.33409E-02 -8.30090E-02 -6.59748E-02 -5.18481E-02 -4.66440E-02
  -3.41724E-02 -7.07212E-03 -2.87463E-03 -2.33898E-02 -3.12321E-02 -2.10890E-02  1.06668E-02  1.00274E-02 -3.11703E-02 -4.63618E-02
  -4.58768E-02 -3.99341E-02 -2.62949E-02 -2.37302E-02 -2.11484E-02 -1.60180E-02 -1.56183E-02 -1.44559E-02 -1.67325E-02 -1.25271E-02
   9.02556E-03  4.85235E-02  8.03923E-02  9.93828E-02  2.06861E-01  3.87649E-01  4.35567E-01  2.54104E-01  1.91832E-01  4.57884E-01
   4.85655E-01  2.43084E-01  1.24687E-01  3.21283E-02 -1.78207E-02 -4.33596E-03 -1.44959E-02 -3.27921E-02 -4.45498E-02 -5.60899E-02
  -6.78012E-02 -7.41909E-02 -7.44928E-02 -7.69679E-02 -7.23139E-02 -8.15570E-02 -7.85760E-02 -7.99577E-02 -8.47118E-02 -7.60236E-02
  -9.86546E-02 -1.10739E-01 -1.09786E-01 -1.16813E-01 -1.33476E-01 -1.34125E-01  3.67300E-02  7.82379E-02 -2.19990E-02  1.20052E-01
   1.32879E-01  2.05841E-01  1.42716E-01  2.20818E-02  2.43135E-01  1.80817E-01  1.61051E-01  1.79590E-01  1.51208E-01  1.68595E-01
   1.14395E-01  9.10348E-02  3.34353E-02 -5.25233E-03 -3.82335E-02 -8.27382E-02 -1.32716E-01 -2.00760E-01 -2.61523E-01 -3.10275E-01
  -3.79907E-01 -4.39793E-01 -3.34127E-01 -2.34055E-01  4.47625E-03  3.43163E-01  3.93423E-01  5.33596E-01  5.52533E-01  3.89268E-01
   3.69111E-01  3.09664E-01  2.94078E-01  2.84848E-01  2.93984E-01  3.09824E-01  2.95301E-01  3.10182E-01  2.93061E-01  2.79966E-01
   2.79803E-01  2.73762E-01  2.64968E-01  2.60771E-01  2.57130E-01  2.46571E-01  2.37892E-01  2.25234E-01  2.06604E-01  1.87138E-01
   1.61089E-01  1.28247E-01  9.31815E-02  3.80434E-02 -1.12716E-02 -6.48774E-02 -1.38277E-01 -2.06434E-01 -2.52171E-01 -2.74562E-01
  -3.00734E-01 -3.06018E-01 -2.71060E-01 -2.55342E-01 -1.82701E-01 -1.20469E-01 -3.16319E-02  4.93742E-02  8.42554E-02  8.54850E-02
   1.86342E-02 -1.12326E-02 -9.46286E-02 -1.29033E-01 -1.09993E-01 -1.62157E-01 -1.01565E-01 -1.27626E-01 -4.89545E-01 -6.33041E-01
  -3.10940E-01 -1.09243E+00 -3.38020E+00 -1.83739E+00 -2.91581E-01 -5.38737E-01  8.01858E-02 -1.04604E-01 -1.94851E-01 -5.13546E-02
  -1.00917E-02  1.60150E-02  3.25637E-02  4.13315E-02  5.01830E-02  5.62575E-02  5.73116E-02  5.52396E-02  5.04710E-02  3.58640E-02
   2.64044E-02  2.33143E-02  5.34481E-03  1.33559E-02  7.91784E-03  1.95390E-02  3.86804E-02  4.23239E-02  5.48161E-02  5.99730E-02
   6.67014E-02  7.21292E-02  8.08077E-02  8.79083E-02  8.79677E-02  9.14208E-02  9.56654E-02  9.89090E-02  1.06097E-01  1.08797E-01
   1.09336E-01  1.11662E-01  1.14808E-01  1.19126E-01  1.22270E-01  1.23318E-01  1.24092E-01  1.23024E-01  1.27195E-01  1.32292E-01
   1.34034E-01  1.37640E-01  1.37571E-01  1.34117E-01  1.28532E-01  1.24719E-01  1.20585E-01  1.14887E-01  1.09930E-01  1.02306E-01
   9.12680E-02  8.29199E-02  7.52317E-02  6.26556E-02  5.08885E-02  4.37432E-02  3.70042E-02  2.65511E-02  1.76816E-02  1.18236E-02
   3.83580E-03 -3.25445E-03 -5.10607E-03 -1.07266E-02 -1.68775E-02 -1.97624E-02 -2.52776E-02 -3.03983E-02 -3.27883E-02 -3.47485E-02
  -3.55377E-02 -3.79983E-02 -3.86865E-02 -3.41689E-02 -3.20136E-02 -2.86859E-02 -2.15923E-02 -1.67102E-02 -1.12264E-02  4.77398E-03
   1.46137E-02  1.78244E-02  3.23531E-02  5.95880E-02  6.23846E-02  6.90637E-02  7.17053E-02  5.05724E-02  5.56965E-02  6.78381E-02
   7.97784E-02  9.81527E-02  1.12846E-01  1.26105E-01  1.40076E-01  1.54651E-01  1.67664E-01  1.80186E-01  1.87340E-01  1.92044E-01
   1.91668E-01  1.91680E-01  1.91138E-01  1.85877E-01  1.83130E-01  1.75924E-01  1.64307E-01  1.52182E-01  1.34621E-01  1.20381E-01
   1.08113E-01  9.61320E-02  8.34576E-02  7.11222E-02  5.64515E-02  4.77652E-02  4.04692E-02  2.97922E-02  2.24741E-02  1.54516E-02
   1.09018E-02  6.43895E-03  2.79358E-03 -6.57749E-05 -7.31180E-04  4.55879E-03  9.49645E-03  1.20004E-02  1.81094E-02  2.51558E-02
   2.96019E-02  3.96288E-02  4.90896E-02  5.31874E-02  5.81319E-02  6.22130E-02  6.52169E-02  6.57208E-02  6.98653E-02  7.54755E-02
   7.73049E-02  7.71263E-02  7.42850E-02  7.14894E-02  6.99444E-02  6.70581E-02  5.96374E-02  5.60891E-02  5.36604E-02  4.94286E-02
   4.53310E-02  4.02358E-02  3.66733E-02  3.17440E-02  2.64977E-02  2.30460E-02  1.67896E-02  1.12507E-02  1.22012E-02  8.95890E-03
   1.75744E-03 -3.01664E-03 -7.61078E-03 -1.44534E-02 -2.54468E-02 -3.68384E-02 -4.66618E-02 -5.90420E-02 -7.15691E-02 -8.74831E-02
  -1.11177E-01 -1.35853E-01 -1.56856E-01 -1.74924E-01 -1.95160E-01 -2.15195E-01 -2.32427E-01 -2.45332E-01 -2.56128E-01 -2.69295E-01
  -2.76025E-01 -2.71700E-01 -2.67081E-01 -2.66622E-01 -2.61222E-01 -2.48669E-01 -2.36357E-01 -2.27687E-01 -2.16028E-01 -2.06101E-01
  -1.98684E-01 -1.86576E-01 -1.69614E-01 -1.57718E-01 -1.44706E-01 -1.27613E-01 -1.12343E-01 -9.85031E-02 -8.56328E-02 -6.89094E-02
  -5.88082E-02 -4.86512E-02 -3.19451E-02 -2.04562E-02 -1.40970E-02 -6.18081E-03  2.99344E-03  1.57872E-02  2.14871E-02  2.11430E-02
   2.95065E-02  3.66034E-02  3.82161E-02  4.33574E-02  4.56667E-02  4.40387E-02  4.97228E-02  5.40505E-02  5.12754E-02  5.05010E-02
   5.60018E-02  5.98248E-02  5.96412E-02  6.50203E-02  6.86435E-02  6.69075E-02  6.63758E-02  6.80118E-02  6.77569E-02  6.60748E-02
   6.73702E-02  6.71153E-02  6.55551E-02  6.66928E-02  6.57049E-02  6.60066E-02  6.75701E-02  6.62588E-02  6.93594E-02  7.00042E-02
   6.03034E-02  5.61264E-02  6.29955E-02  6.50310E-02  6.18515E-02  6.03941E-02  6.04675E-02  6.14840E-02  5.73753E-02  5.56777E-02
   5.75860E-02  6.27925E-02  6.43267E-02  6.24435E-02  6.40886E-02  6.50699E-02  6.75612E-02  6.95283E-02  6.86181E-02  6.93228E-02
   7.23358E-02  7.17275E-02  6.68188E-02  6.61568E-02  6.93601E-02  6.98340E-02  7.08914E-02  7.37887E-02  7.55019E-02  7.66459E-02
   7.36661E-02  7.76959E-02  8.50407E-02  8.43737E-02  8.75246E-02  8.55374E-02  7.87719E-02  8.10775E-02  8.27356E-02  8.56762E-02
   8.81099E-02  8.54348E-02  8.41459E-02  8.54553E-02  8.59705E-02  8.90730E-02  9.06970E-02  8.65896E-02  9.02870E-02  9.61773E-02
   9.66271E-02  9.59416E-02  9.84090E-02  1.00936E-01  1.03548E-01  1.07894E-01  1.08637E-01  1.16113E-01  1.24647E-01  1.27073E-01
   1.31265E-01  1.33780E-01  1.38738E-01  1.42651E-01
 NY background values follow
    -3.405E-02   -3.311E-02   -3.217E-02   -3.122E-02   -3.028E-02   -2.934E-02   -2.840E-02   -2.746E-02   -2.652E-02   -2.557E-02
    -2.464E-02   -2.370E-02   -2.276E-02   -2.182E-02   -2.089E-02   -1.996E-02   -1.902E-02   -1.809E-02   -1.717E-02   -1.624E-02
    -1.532E-02   -1.440E-02   -1.348E-02   -1.256E-02   -1.165E-02   -1.074E-02   -9.830E-03   -8.926E-03   -8.025E-03   -7.127E-03
    -6.233E-03   -5.343E-03   -4.457E-03   -3.575E-03   -2.696E-03   -1.822E-03   -9.528E-04   -8.779E-05    7.726E-04    1.628E-03
     2.479E-03    3.324E-03    4.165E-03    4.999E-03    5.829E-03    6.653E-03    7.471E-03    8.284E-03    9.091E-03    9.892E-03
     1.069E-02    1.148E-02    1.226E-02    1.304E-02    1.381E-02    1.458E-02    1.534E-02    1.610E-02    1.685E-02    1.760E-02
     1.833E-02    1.907E-02    1.979E-02    2.052E-02    2.123E-02    2.194E-02    2.264E-02    2.334E-02    2.404E-02    2.472E-02
