 LCModel (Version 6.3-1N) Copyright: S.W. Provencher.          Ref.: Magn. Reson. Med. 30:672-679 (1993).                
 Slice_N1@14_13  02-Jun-2023 14:37:08
 27 lines in following concentration table = NCONC+1
    Conc.  %SD /Cr+PCr  Metabolite                                         
 1.48E-06  22% 1.9E-04 Mac                                                 
 1.79E-02  81%   2.321 Cr                                                  
 4.39E-02  33%   5.679 PCr                                                 
 7.41E-02  11%   9.593 Ins                                                 
 7.92E-02   8%  10.250 NAA                                                 
 5.35E-02  14%   6.927 Tau                                                 
 1.38E-02  14%   1.782 PCho                                                
    0.000 999%   0.000 GPC                                                 
 6.50E-02  14%   8.415 Glu                                                 
 1.35E-02  47%   1.754 Gln                                                 
    0.000 999%   0.000 Ala                                                 
    0.000 999%   0.000 Asc                                                 
 2.18E-03 301%   0.282 Asp                                                 
 8.62E-03  42%   1.117 GABA                                                
 6.77E-03  62%   0.877 Glc                                                 
 5.67E-03  58%   0.734 GSH                                                 
    0.000 999%   0.000 Lac                                                 
    0.000 999%   0.000 NAAG                                                
    0.000 999%   0.000 PE                                                  
 1.38E-02  14%   1.782 GPC+PCho                                            
 7.92E-02   8%  10.250 NAA+NAAG                                            
 7.85E-02  13%  10.169 Glu+Gln                                             
 6.18E-02  10%   8.000 Cr+PCr                                              
 7.92E-02   8%  10.250 NAA+NAAG                                            
 6.18E-02  10%   8.000 Cr+PCr                                              
 7.85E-02  13%  10.169 Glu+Gln                                             
   6 lines in following misc. output table
  FWHM = 0.029 ppm    S/N =   3                                            
  Data shift = 0.006 ppm                                                   
  Ph: -60 deg      -9.1 deg/ppm                                            
  alphaB,S = 3.1E+01,   3.7E+01                                            
   18 spline knots.   Ns = 6(1)                                            
   2 inflections.     1 extrema                                            
  654 points on ppm-axis = NY
      4.000000     3.994181     3.988363     3.982544     3.976726     3.970907     3.965088     3.959270     3.953451     3.947633
      3.941814     3.935995     3.930177     3.924358     3.918540     3.912721     3.906902     3.901084     3.895265     3.889446
      3.883628     3.877809     3.871991     3.866172     3.860353     3.854535     3.848716     3.842898     3.837079     3.831260
      3.825442     3.819623     3.813805     3.807986     3.802167     3.796349     3.790530     3.784712     3.778893     3.773074
      3.767256     3.761437     3.755619     3.749800     3.743981     3.738163     3.732344     3.726526     3.720707     3.714888
      3.709070     3.703251     3.697433     3.691614     3.685795     3.679977     3.674158     3.668339     3.662521     3.656702
      3.650884     3.645065     3.639246     3.633428     3.627609     3.621791     3.615972     3.610153     3.604335     3.598516
      3.592698     3.586879     3.581060     3.575242     3.569423     3.563605     3.557786     3.551967     3.546149     3.540330
      3.534512     3.528693     3.522874     3.517056     3.511237     3.505419     3.499600     3.493781     3.487963     3.482144
      3.476326     3.470507     3.464688     3.458870     3.453051     3.447232     3.441414     3.435595     3.429777     3.423958
      3.418139     3.412321     3.406502     3.400684     3.394865     3.389046     3.383228     3.377409     3.371591     3.365772
      3.359953     3.354135     3.348316     3.342498     3.336679     3.330860     3.325042     3.319223     3.313405     3.307586
      3.301767     3.295949     3.290130     3.284312     3.278493     3.272674     3.266856     3.261037     3.255219     3.249400
      3.243581     3.237763     3.231944     3.226125     3.220307     3.214488     3.208670     3.202851     3.197032     3.191214
      3.185395     3.179577     3.173758     3.167939     3.162121     3.156302     3.150484     3.144665     3.138846     3.133028
      3.127209     3.121391     3.115572     3.109753     3.103935     3.098116     3.092298     3.086479     3.080660     3.074842
      3.069023     3.063205     3.057386     3.051567     3.045749     3.039930     3.034111     3.028293     3.022474     3.016656
      3.010837     3.005018     2.999200     2.993381     2.987563     2.981744     2.975925     2.970107     2.964288     2.958470
      2.952651     2.946832     2.941014     2.935195     2.929377     2.923558     2.917739     2.911921     2.906102     2.900284
      2.894465     2.888646     2.882828     2.877009     2.871191     2.865372     2.859553     2.853735     2.847916     2.842098
      2.836279     2.830460     2.824642     2.818823     2.813004     2.807186     2.801367     2.795549     2.789730     2.783911
      2.778093     2.772274     2.766456     2.760637     2.754818     2.749000     2.743181     2.737363     2.731544     2.725725
      2.719907     2.714088     2.708270     2.702451     2.696632     2.690814     2.684995     2.679177     2.673358     2.667539
      2.661721     2.655902     2.650084     2.644265     2.638446     2.632628     2.626809     2.620991     2.615172     2.609353
      2.603535     2.597716     2.591897     2.586079     2.580260     2.574442     2.568623     2.562804     2.556986     2.551167
      2.545349     2.539530     2.533711     2.527893     2.522074     2.516256     2.510437     2.504618     2.498800     2.492981
      2.487163     2.481344     2.475525     2.469707     2.463888     2.458070     2.452251     2.446432     2.440614     2.434795
      2.428977     2.423158     2.417339     2.411521     2.405702     2.399884     2.394065     2.388246     2.382428     2.376609
      2.370790     2.364972     2.359153     2.353335     2.347516     2.341697     2.335879     2.330060     2.324242     2.318423
      2.312604     2.306786     2.300967     2.295149     2.289330     2.283511     2.277693     2.271874     2.266056     2.260237
      2.254418     2.248600     2.242781     2.236963     2.231144     2.225325     2.219507     2.213688     2.207870     2.202051
      2.196232     2.190414     2.184595     2.178777     2.172958     2.167139     2.161321     2.155502     2.149683     2.143865
      2.138046     2.132228     2.126409     2.120590     2.114772     2.108953     2.103135     2.097316     2.091497     2.085679
      2.079860     2.074042     2.068223     2.062404     2.056586     2.050767     2.044949     2.039130     2.033311     2.027493
      2.021674     2.015856     2.010037     2.004218     1.998400     1.992581     1.986763     1.980944     1.975126     1.969307
      1.963489     1.957670     1.951852     1.946033     1.940215     1.934397     1.928578     1.922760     1.916941     1.911123
      1.905304     1.899486     1.893667     1.887849     1.882030     1.876212     1.870393     1.864575     1.858756     1.852938
      1.847119     1.841301     1.835482     1.829664     1.823845     1.818027     1.812208     1.806390     1.800571     1.794753
      1.788934     1.783116     1.777297     1.771479     1.765660     1.759842     1.754023     1.748205     1.742386     1.736568
      1.730749     1.724931     1.719113     1.713294     1.707476     1.701657     1.695839     1.690020     1.684202     1.678383
      1.672565     1.666746     1.660928     1.655109     1.649291     1.643472     1.637654     1.631835     1.626017     1.620198
      1.614380     1.608561     1.602743     1.596924     1.591106     1.585287     1.579469     1.573650     1.567832     1.562013
      1.556195     1.550376     1.544558     1.538739     1.532921     1.527102     1.521284     1.515465     1.509647     1.503829
      1.498010     1.492192     1.486373     1.480555     1.474736     1.468918     1.463099     1.457281     1.451462     1.445644
      1.439825     1.434007     1.428188     1.422370     1.416551     1.410733     1.404914     1.399096     1.393277     1.387459
      1.381640     1.375822     1.370003     1.364185     1.358366     1.352548     1.346729     1.340911     1.335092     1.329274
      1.323455     1.317637     1.311818     1.306000     1.300182     1.294363     1.288545     1.282726     1.276908     1.271089
      1.265271     1.259452     1.253634     1.247815     1.241997     1.236178     1.230360     1.224541     1.218723     1.212904
      1.207086     1.201267     1.195449     1.189630     1.183812     1.177993     1.172175     1.166356     1.160538     1.154719
      1.148901     1.143082     1.137264     1.131445     1.125627     1.119808     1.113990     1.108171     1.102353     1.096534
      1.090716     1.084898     1.079079     1.073261     1.067442     1.061624     1.055805     1.049987     1.044168     1.038350
      1.032531     1.026713     1.020894     1.015076     1.009257     1.003439     0.997620     0.991802     0.985983     0.980165
      0.974346     0.968528     0.962709     0.956891     0.951072     0.945254     0.939435     0.933617     0.927798     0.921980
      0.916161     0.910343     0.904524     0.898706     0.892887     0.887069     0.881251     0.875432     0.869614     0.863795
      0.857977     0.852158     0.846340     0.840521     0.834703     0.828884     0.823066     0.817247     0.811429     0.805610
      0.799792     0.793973     0.788155     0.782336     0.776518     0.770699     0.764881     0.759062     0.753244     0.747425
      0.741607     0.735788     0.729970     0.724151     0.718333     0.712514     0.706696     0.700877     0.695059     0.689240
      0.683422     0.677603     0.671785     0.665967     0.660148     0.654330     0.648511     0.642693     0.636874     0.631056
      0.625237     0.619419     0.613600     0.607782     0.601963     0.596145     0.590326     0.584508     0.578689     0.572871
      0.567052     0.561234     0.555415     0.549597     0.543778     0.537960     0.532141     0.526323     0.520504     0.514686
      0.508867     0.503049     0.497230     0.491412     0.485593     0.479775     0.473956     0.468138     0.462319     0.456501
      0.450682     0.444864     0.439045     0.433227     0.427408     0.421590     0.415771     0.409953     0.404134     0.398316
      0.392497     0.386679     0.380860     0.375042     0.369223     0.363405     0.357586     0.351767     0.345949     0.340130
      0.334312     0.328493     0.322675     0.316856     0.311038     0.305219     0.299401     0.293582     0.287764     0.281945
      0.276127     0.270308     0.264490     0.258671     0.252853     0.247034     0.241216     0.235397     0.229579     0.223760
      0.217942     0.212123     0.206305     0.200486
 NY phased data points follow
   3.21681E-02 -5.89212E-02 -3.23389E-02 -1.43213E-02 -4.36589E-02  1.89183E-02 -1.74024E-01 -1.59070E-01 -5.30576E-02 -7.09054E-02
  -2.32002E-01 -4.56970E-02  2.03792E-01  3.25732E-01  8.84215E-02  1.07218E-01  1.51183E-01  7.16276E-02 -5.79151E-02 -4.82678E-02
  -1.13621E-01 -8.27602E-02  4.74102E-02 -8.19994E-02  1.32654E-01 -1.20086E-02  3.98992E-02 -1.24793E-01 -1.10236E-01  2.77292E-01
   1.85080E-01  1.92130E-01  9.51946E-02  1.62853E-01  2.66016E-03 -2.02445E-02  1.69276E-02  1.14117E-01 -1.15114E-01 -5.13127E-01
  -1.63108E-01  1.84548E-01  2.91447E-01 -5.38214E-03  3.72510E-01  3.92339E-01  1.73681E-01  4.16602E-01  2.17091E-01  2.81488E-01
  -6.02956E-02 -2.75740E-01 -3.80610E-01 -2.34116E-02  1.16839E-01 -2.25519E-01 -2.69508E-01 -2.87868E-01 -1.18808E-01 -1.95694E-01
  -1.85988E-01 -3.97067E-01 -2.99527E-01 -3.99828E-01 -3.79110E-01 -2.00301E-01 -2.01839E-01 -7.25586E-02 -1.08198E-01  4.27238E-01
   1.13009E-01 -4.25159E-02  3.64420E-01  2.14848E-01  2.65686E-01  2.87478E-01  2.47581E-01  1.14913E-01 -1.96472E-01 -9.20043E-02
  -4.22982E-01 -3.75951E-01  5.76515E-02 -1.01316E-01  1.35520E-01  1.42678E-01  1.43635E-01  3.20598E-01  2.89878E-01  5.55654E-02
   1.58634E-01  2.78705E-02  1.06909E-01  8.34871E-02 -1.74676E-01  1.48233E-01  2.20777E-02  5.82430E-02 -2.71788E-01 -1.69917E-02
   5.76356E-03 -1.74214E-01 -6.18994E-02  8.96798E-02  3.88119E-01  2.30784E-01  4.07795E-01  1.83809E-01  4.95040E-01  4.46088E-01
   3.75593E-01  4.22549E-01  2.11293E-01  3.38542E-01  1.19592E-02  4.36702E-01  4.88225E-01  3.01127E-01  3.69036E-01  8.05033E-02
   3.16222E-01  2.96758E-01  1.03446E-02  1.59795E-01  1.92363E-01  5.43388E-02 -1.54613E-02  4.85941E-02 -1.83502E-01 -2.51066E-01
  -3.57909E-01 -5.35429E-01 -4.91631E-01 -3.54659E-01 -2.30436E-01 -5.67709E-01 -6.14795E-01 -7.65434E-01 -5.57817E-01 -4.22429E-01
  -4.88690E-01  3.89299E-02 -3.04089E-02 -1.08336E-01  3.09413E-02  8.29691E-02  2.92565E-01  1.76135E-01  8.95103E-04  5.59985E-02
   1.11742E-02  1.15645E-01  7.76767E-02 -6.21947E-02  1.04446E-01  2.67262E-01  5.65502E-02  2.69904E-01  3.12635E-01  2.18320E-01
   7.78854E-01  4.91112E-01  3.87713E-01  7.66119E-01  4.09485E-01  7.61880E-01  9.83427E-01  4.06503E-01  4.37446E-02 -7.68754E-01
  -4.31836E-01 -4.00199E-01 -8.60219E-01 -6.01195E-01 -6.63256E-01 -2.76038E-01 -3.09645E-01 -3.73295E-01 -4.92741E-01 -3.35657E-01
  -3.33400E-01 -1.81391E-01 -3.35633E-01 -5.79509E-01  2.69982E-02 -2.95276E-01 -2.06706E-01 -1.22897E-01 -4.91059E-01 -4.49484E-01
   1.10455E-02  8.56224E-02 -1.22284E-01 -1.26852E-01 -9.50983E-02 -3.48779E-01 -4.45830E-01 -1.64887E-01 -2.52573E-01 -2.44733E-01
  -4.22954E-01 -3.36115E-01 -2.88334E-02  3.39169E-01 -1.29230E-01 -3.51319E-01  6.66952E-02 -1.14891E-01 -1.83955E-01  5.27696E-02
   1.50793E-01  1.36010E-01  1.16163E-01 -2.01205E-01  9.15491E-02 -2.06221E-01  2.75174E-02  6.44244E-03 -3.10019E-01  1.94527E-01
  -2.81130E-01 -3.89999E-03 -2.32069E-02 -4.56773E-02  3.17946E-01 -6.25352E-02  1.86780E-01  2.53852E-01 -1.53105E-01  4.51880E-01
   6.13882E-01  2.73638E-01  1.39635E-01  5.91363E-02  1.24025E-01 -5.70547E-02  1.70886E-01  3.19991E-02 -2.36419E-01 -1.25159E-01
   2.00543E-01 -1.15964E-01 -1.65921E-01  2.46055E-01 -6.01008E-02 -2.32714E-02 -8.11556E-02 -1.11987E-01 -1.31567E-01 -2.10606E-01
  -1.99257E-01 -4.54744E-02 -1.17709E-01 -5.88406E-02  1.39372E-01 -1.15382E-01 -3.42503E-02  5.98877E-02 -6.31880E-02 -1.06314E-01
   1.48366E-01  2.80196E-01  1.86481E-01  2.35158E-02  2.93099E-01  3.64249E-01 -6.60395E-02  9.01263E-02  1.87350E-01 -3.66385E-02
  -2.35847E-02  2.05783E-01  8.42051E-03  2.33530E-01  1.28735E-01 -1.48858E-01  5.97496E-02 -2.99467E-02  7.05813E-02 -4.58881E-01
  -1.46719E-01 -7.36975E-02 -4.10394E-01 -6.73775E-02 -2.11656E-01  1.00510E-01  1.43857E-01  6.49735E-01  5.93749E-01  1.98739E-01
   3.83270E-01  2.05205E-01  2.57830E-01  8.69088E-02  7.01045E-02 -5.26970E-02  1.70793E-02 -8.06978E-02  2.62180E-02  3.59077E-01
   1.80455E-01  2.10255E-01  7.91827E-02  2.64622E-01  4.09208E-01  1.78300E-01  1.10890E-01  4.44381E-01  3.12674E-01  1.69530E-01
   5.71231E-01  3.77868E-01  1.91075E-01  2.40458E-01  3.74679E-01  8.03237E-02  2.50341E-02  1.64843E-01 -3.04342E-01 -1.73252E-02
  -1.82273E-01 -4.43978E-01 -2.40950E-01 -1.79044E-01  5.53817E-02 -2.08615E-01 -7.15866E-02 -1.33261E-01 -6.14088E-02  3.23987E-01
   1.76578E-02  3.51452E-02  4.67493E-02 -2.26884E-01 -1.54949E-01 -1.39107E-01 -3.28798E-01 -4.12545E-01 -4.39176E-01 -1.81390E-01
  -1.86266E-01 -3.83870E-01 -1.04561E+00 -1.25297E+00 -7.96808E-01 -9.57016E-01 -7.69242E-01 -2.58015E-01 -3.74308E-01 -1.72217E-01
   5.40527E-01  4.17233E-02  2.84919E-02  2.28458E-01  4.12562E-02 -7.69090E-02 -1.90624E-01  1.80310E-01  3.90861E-02  2.14637E-01
   2.02212E-01 -6.56649E-02 -1.38308E-01 -1.27975E-01 -1.51431E-01 -6.60061E-02  1.19128E-01  1.15925E-01 -3.81960E-02  1.12560E-01
   1.97575E-01 -6.44217E-02  2.19121E-01 -1.71391E-01 -1.79362E-01 -6.26325E-02  1.32809E-01  3.16075E-01  8.41065E-02  2.51240E-01
   1.12383E-01  1.93054E-01  3.94893E-01  4.97450E-01  1.21695E-01  2.46971E-01  2.10068E-01  2.31011E-01  3.98961E-01  2.38046E-01
   2.52456E-01  2.16343E-01  3.86149E-01  1.34595E-01  2.04618E-01  1.87105E-01  4.36834E-01  1.19981E-01  6.52514E-02  2.17766E-01
  -1.32926E-01  4.05310E-01  1.13978E-01  1.45125E-01  9.61255E-02 -1.72261E-01 -5.85982E-03  9.32524E-02  1.91643E-01 -9.42826E-03
  -1.69767E-03 -2.11679E-02  5.49751E-02  7.60127E-02 -3.60402E-01 -2.43435E-01  5.78680E-02 -7.54194E-02 -2.50550E-03 -2.10134E-01
  -2.61865E-01 -5.29066E-01 -2.67861E-01 -2.72832E-01 -4.58552E-01  9.00226E-02 -2.44420E-01  4.60153E-02 -1.48351E-01 -3.03208E-01
  -1.10303E-02  1.12843E-01 -5.95754E-02 -2.24654E-01  1.52877E-01 -8.34086E-02  4.07473E-03 -4.18896E-01 -4.13381E-01 -8.93915E-02
  -4.41612E-02 -1.89363E-01 -2.88252E-01 -8.87368E-03 -1.43953E-01  9.58383E-02 -1.08256E-01 -1.50596E-01  1.01650E-01  8.35485E-02
   2.27152E-01  2.09108E-01 -5.22327E-02  1.40490E-01 -8.87192E-02 -1.83358E-01  1.14383E-01 -5.46487E-02  3.61246E-02  4.23624E-02
   1.92331E-01 -2.26323E-01 -9.68047E-02 -8.05447E-02 -3.88639E-02  3.36029E-01  8.75689E-02  7.70138E-03  4.85103E-02  5.60405E-02
  -4.20878E-01  2.24254E-01  1.55897E-01 -6.29471E-02 -5.84173E-02 -1.91864E-01 -1.87988E-01 -4.52463E-01  3.56392E-02 -2.07145E-01
   2.48779E-01  1.89901E-01 -1.29763E-02  3.99210E-02 -1.64704E-01  1.92599E-01 -6.28036E-02  2.30009E-01  3.13496E-01  1.95896E-01
   4.65224E-01  1.66621E-01 -1.64104E-01  1.23519E-01  1.32644E-01  4.19374E-02  9.14595E-02 -1.59647E-01 -2.71892E-01 -1.60589E-01
  -1.29442E-01 -6.51713E-02  5.05777E-02  2.00834E-02  6.62018E-03 -2.92120E-03  1.63393E-01  1.02607E-01  1.26198E-02  1.46792E-01
   1.90580E-01 -1.01224E-02  9.31852E-02 -3.63197E-02 -7.97888E-03  1.38671E-01 -1.31039E-01  5.06667E-01  2.37866E-01 -2.08153E-02
   1.87232E-02 -1.30525E-01  9.65105E-02 -6.00617E-03  2.10174E-02 -2.89797E-01 -3.77151E-01 -3.69547E-01 -2.91050E-01 -4.41768E-01
  -4.99345E-01 -2.06531E-01 -1.67030E-01 -1.52544E-01 -3.68243E-01 -2.37378E-01 -2.51810E-02 -5.96406E-02 -1.18677E-01  3.23500E-02
   1.19098E-01 -5.59945E-02 -1.51844E-01  1.72702E-02 -1.79228E-01 -2.25532E-01  3.68534E-02 -2.12246E-01 -4.19471E-02 -1.75411E-01
  -2.89897E-02  9.55857E-02 -1.11427E-01  4.50779E-01  1.93643E-01  7.34967E-02  4.05839E-01  1.09946E-02  3.26809E-02  3.47129E-01
   4.56234E-02  3.50385E-02  1.73073E-01  2.21368E-01  2.07317E-01 -1.19916E-01  1.08534E-01  1.78455E-01 -1.41028E-02  2.93655E-02
  -3.75267E-02 -6.57334E-02 -1.10869E-01 -2.02649E-01 -4.23555E-02 -6.22114E-02 -2.33815E-01  2.08689E-01  1.27056E-01 -2.84949E-01
  -9.25157E-02 -2.56066E-01 -1.16941E-01  3.15716E-01  4.84971E-02 -1.35534E-01 -6.16308E-02  1.46320E-02 -5.19516E-02  7.92980E-02
   9.17396E-02  7.95465E-02  4.00329E-01  1.53086E-01  9.18176E-02  2.33684E-01  2.10669E-01 -9.11244E-03 -1.19287E-01 -2.58430E-02
  -2.39609E-02 -2.89292E-02 -1.96461E-01  6.64482E-02  1.44947E-01  6.94310E-02 -8.47189E-02 -2.02721E-01  1.87947E-01  2.99464E-01
   3.62376E-02 -2.24020E-01  2.40676E-01  3.47603E-01  1.43732E-01  2.11981E-01 -1.32195E-01  1.65186E-01 -2.74816E-01 -3.44824E-01
   3.00539E-01 -2.07566E-01  1.35942E-01  1.88221E-01 -6.33571E-03  1.78548E-01  3.47261E-01  5.15130E-01  1.63663E-01  2.63227E-01
   2.50153E-01  1.44418E-01  2.10117E-01  6.25498E-02  1.34719E-01  1.94946E-01  2.42103E-02  1.57361E-01  1.74143E-01  1.60952E-01
   2.17964E-01  1.54704E-01  3.09499E-02  1.40421E-01  3.93347E-01  7.71725E-02  5.23839E-02  3.02557E-02 -5.03283E-02  1.01064E-01
   1.17367E-01  7.87334E-02  1.97157E-01 -2.76914E-02
 NY points of the fit to the data follow
   1.37005E-02  1.64713E-02  1.89530E-02  2.10931E-02  2.30794E-02  2.57794E-02  3.53694E-02  5.38545E-02  6.75861E-02  8.58743E-02
   1.34960E-01  2.33746E-01  3.53466E-01  4.37642E-01  4.66141E-01  4.49963E-01  4.01989E-01  3.25037E-01  2.36336E-01  1.62817E-01
   1.08998E-01  6.89695E-02  4.00735E-02  1.91042E-02  1.75365E-03 -1.35055E-02 -2.64487E-02 -3.74429E-02 -4.69971E-02 -5.54196E-02
  -6.29064E-02 -7.02853E-02 -7.92114E-02 -9.10840E-02 -1.05037E-01 -1.17586E-01 -1.30719E-01 -1.39786E-01 -1.39366E-01 -1.14361E-01
  -6.09664E-02  1.33511E-02  9.43918E-02  1.65588E-01  2.14963E-01  2.30906E-01  2.14783E-01  1.78249E-01  1.34402E-01  9.26151E-02
   5.58703E-02  2.59967E-02  1.00348E-03 -2.28142E-02 -4.77325E-02 -7.51740E-02 -1.06619E-01 -1.44260E-01 -1.80733E-01 -2.15325E-01
  -2.50593E-01 -2.67481E-01 -2.67854E-01 -2.58302E-01 -2.46720E-01 -2.20661E-01 -1.52236E-01 -5.62459E-02  4.42026E-02  1.38029E-01
   2.22978E-01  2.79243E-01  2.82420E-01  2.48768E-01  1.95250E-01  1.26113E-01  5.71534E-02 -1.54139E-02 -1.05129E-01 -2.05869E-01
  -2.79463E-01 -2.87920E-01 -2.36566E-01 -1.42121E-01 -1.46418E-02  1.27961E-01  2.47192E-01  3.12710E-01  3.33706E-01  3.27475E-01
   3.01368E-01  2.61958E-01  2.20780E-01  1.76386E-01  1.32186E-01  7.71841E-02  9.89150E-03 -6.91433E-02 -1.43527E-01 -1.84522E-01
  -1.74047E-01 -1.08303E-01 -1.01020E-02  9.20921E-02  1.76349E-01  2.32090E-01  2.62947E-01  2.74445E-01  2.75328E-01  2.72632E-01
   2.70230E-01  2.68334E-01  2.66494E-01  2.64542E-01  2.62637E-01  2.61157E-01  2.60040E-01  2.56519E-01  2.52510E-01  2.49323E-01
   2.36822E-01  2.14450E-01  1.75463E-01  1.26753E-01  6.09510E-02 -1.65403E-02 -1.01877E-01 -1.91599E-01 -2.84690E-01 -3.71692E-01
  -4.44315E-01 -4.51171E-01 -3.93556E-01 -3.23608E-01 -3.40868E-01 -4.75399E-01 -6.21748E-01 -6.72401E-01 -6.12861E-01 -5.04354E-01
  -3.78480E-01 -2.41396E-01 -1.28910E-01 -5.71109E-02 -1.37633E-02  1.82393E-02  4.42779E-02  6.64663E-02  8.58924E-02  1.03344E-01
   1.19418E-01  1.34661E-01  1.49564E-01  1.64637E-01  1.80409E-01  1.97602E-01  2.17005E-01  2.39347E-01  2.65468E-01  2.97441E-01
   3.40261E-01  3.99487E-01  4.25956E-01  4.55028E-01  5.22249E-01  6.18413E-01  6.07076E-01  3.68199E-01 -9.08645E-03 -3.45742E-01
  -5.39618E-01 -6.24165E-01 -6.35279E-01 -5.73367E-01 -4.84546E-01 -4.11732E-01 -3.61664E-01 -3.24035E-01 -2.95156E-01 -2.72087E-01
  -2.51564E-01 -2.33118E-01 -2.17345E-01 -2.04287E-01 -1.93750E-01 -1.84794E-01 -1.76831E-01 -1.69136E-01 -1.61522E-01 -1.54115E-01
  -1.46700E-01 -1.39135E-01 -1.31520E-01 -1.24036E-01 -1.16696E-01 -1.09627E-01 -1.02863E-01 -9.64681E-02 -9.05109E-02 -8.50682E-02
  -7.99195E-02 -7.47980E-02 -7.02009E-02 -6.69012E-02 -6.48290E-02 -6.30095E-02 -6.07777E-02 -5.86424E-02 -5.75023E-02 -5.73077E-02
  -5.73543E-02 -5.70056E-02 -5.61287E-02 -5.47984E-02 -5.29976E-02 -5.11289E-02 -4.94999E-02 -4.81753E-02 -4.64430E-02 -4.06356E-02
  -3.21415E-02 -2.41272E-02 -1.36089E-02  1.24008E-02  6.37156E-02  1.22118E-01  1.56173E-01  1.62485E-01  1.68698E-01  1.96025E-01
   2.25547E-01  2.26289E-01  1.92634E-01  1.40874E-01  8.64033E-02  3.44107E-02 -8.75325E-03 -3.67242E-02 -5.22202E-02 -6.17908E-02
  -6.95921E-02 -7.63366E-02 -8.20260E-02 -8.68615E-02 -9.08513E-02 -9.49266E-02 -9.89335E-02 -1.02944E-01 -1.07094E-01 -1.11516E-01
  -1.17800E-01 -1.20752E-01 -1.27181E-01 -1.39388E-01 -1.47838E-01 -1.40048E-01 -1.09798E-01 -7.58595E-02 -4.13982E-02 -5.87727E-04
   4.46315E-02  8.03081E-02  9.51507E-02  1.05320E-01  1.14287E-01  1.15695E-01  1.07504E-01  9.67480E-02  8.92464E-02  8.02370E-02
   6.73690E-02  4.97817E-02  2.74212E-02  8.02634E-04 -3.00788E-02 -6.44880E-02 -9.93309E-02 -1.35563E-01 -1.72595E-01 -2.11426E-01
  -2.51716E-01 -2.78850E-01 -2.76765E-01 -2.28032E-01 -1.32658E-01 -8.58443E-03  1.17933E-01  2.18628E-01  2.77236E-01  2.93413E-01
   2.77168E-01  2.45986E-01  2.10466E-01  1.81069E-01  1.65274E-01  1.62387E-01  1.68135E-01  1.75712E-01  1.81006E-01  1.82280E-01
   1.79167E-01  1.73518E-01  1.66512E-01  1.59442E-01  1.52903E-01  1.46915E-01  1.40971E-01  1.34607E-01  1.27353E-01  1.18627E-01
   1.07916E-01  9.39312E-02  7.68748E-02  5.56200E-02  3.02999E-02 -2.33806E-03 -4.07524E-02 -8.39533E-02 -1.26099E-01 -1.64500E-01
  -1.94989E-01 -2.14652E-01 -2.21408E-01 -2.13843E-01 -1.92720E-01 -1.56871E-01 -1.12220E-01 -6.53238E-02 -2.71359E-02 -5.92957E-03
  -3.33571E-03 -1.85380E-02 -4.17771E-02 -6.73234E-02 -8.62584E-02 -9.80782E-02 -1.28005E-01 -1.68959E-01 -1.91477E-01 -2.21425E-01
  -3.51138E-01 -6.38695E-01 -9.65163E-01 -1.13799E+00 -1.08968E+00 -9.03046E-01 -6.77947E-01 -4.49932E-01 -2.54667E-01 -1.29961E-01
  -6.76489E-02 -3.59877E-02 -1.55861E-02 -1.08300E-03  9.10713E-03  1.67902E-02  2.16200E-02  2.36811E-02  2.23444E-02  1.73361E-02
   9.76846E-03  4.32398E-04 -8.45658E-03 -1.54179E-02 -1.88665E-02 -1.79738E-02 -1.34405E-02 -6.21078E-03  2.01743E-03  1.01453E-02
   1.75516E-02  2.39867E-02  2.95881E-02  3.43831E-02  3.83593E-02  4.15978E-02  4.44512E-02  4.71651E-02  4.98155E-02  5.22985E-02
   5.45185E-02  5.65278E-02  5.84357E-02  6.04264E-02  6.23535E-02  6.40861E-02  6.54968E-02  6.66898E-02  6.79168E-02  6.92979E-02
   7.09063E-02  7.25639E-02  7.39368E-02  7.46302E-02  7.44443E-02  7.35243E-02  7.21225E-02  7.03822E-02  6.82165E-02  6.55776E-02
   6.24836E-02  5.90190E-02  5.51140E-02  5.07649E-02  4.62082E-02  4.17543E-02  3.75516E-02  3.34713E-02  2.94736E-02  2.56850E-02
   2.21706E-02  1.89484E-02  1.60712E-02  1.35795E-02  1.13947E-02  9.38391E-03  7.45319E-03  5.62792E-03  4.00131E-03  2.64130E-03
   1.53977E-03  7.00450E-04  2.98526E-04  4.45157E-04  1.20948E-03  2.48581E-03  4.22510E-03  6.42300E-03  9.08192E-03  1.21605E-02
   1.52493E-02  1.79665E-02  2.02662E-02  2.27036E-02  2.57946E-02  2.96474E-02  3.40480E-02  3.87632E-02  4.37094E-02  4.89576E-02
   5.46765E-02  6.09077E-02  6.76070E-02  7.45729E-02  8.16573E-02  8.87161E-02  9.56132E-02  1.02091E-01  1.07729E-01  1.12243E-01
   1.15405E-01  1.17220E-01  1.17802E-01  1.17337E-01  1.16021E-01  1.13811E-01  1.10549E-01  1.06022E-01  1.00383E-01  9.39719E-02
   8.72751E-02  8.05067E-02  7.37669E-02  6.70900E-02  6.06430E-02  5.46658E-02  4.91602E-02  4.40539E-02  3.93371E-02  3.51650E-02
   3.16183E-02  2.85403E-02  2.58806E-02  2.37553E-02  2.24156E-02  2.19646E-02  2.23833E-02  2.35450E-02  2.52828E-02  2.74743E-02
   3.00424E-02  3.30280E-02  3.63071E-02  3.96455E-02  4.27631E-02  4.54283E-02  4.75330E-02  4.91211E-02  5.04938E-02  5.18981E-02
   5.31385E-02  5.38717E-02  5.39937E-02  5.36033E-02  5.27450E-02  5.12950E-02  4.93247E-02  4.70993E-02  4.48616E-02  4.26179E-02
   4.02569E-02  3.78225E-02  3.54108E-02  3.30308E-02  3.05447E-02  2.78822E-02  2.51368E-02  2.25472E-02  2.02394E-02  1.80509E-02
   1.57671E-02  1.33379E-02  1.07397E-02  7.74919E-03  4.06523E-03 -3.24555E-04 -5.25218E-03 -1.05664E-02 -1.64013E-02 -2.30921E-02
  -3.09728E-02 -4.00442E-02 -4.99082E-02 -6.01130E-02 -7.03898E-02 -8.04228E-02 -8.97600E-02 -9.81755E-02 -1.05767E-01 -1.12439E-01
  -1.17646E-01 -1.20922E-01 -1.22415E-01 -1.22494E-01 -1.21218E-01 -1.18441E-01 -1.14359E-01 -1.09468E-01 -1.04254E-01 -9.89050E-02
  -9.35122E-02 -8.79554E-02 -8.20750E-02 -7.58460E-02 -6.92046E-02 -6.22191E-02 -5.48998E-02 -4.74728E-02 -4.01426E-02 -3.30270E-02
  -2.61930E-02 -1.95659E-02 -1.30850E-02 -6.98054E-03 -1.46079E-03  3.61065E-03  8.51737E-03  1.32183E-02  1.73501E-02  2.08646E-02
   2.40200E-02  2.69859E-02  2.96689E-02  3.18953E-02  3.37306E-02  3.53519E-02  3.68344E-02  3.81244E-02  3.91538E-02  4.00087E-02
   4.09160E-02  4.19751E-02  4.31970E-02  4.45528E-02  4.59616E-02  4.72071E-02  4.81051E-02  4.87297E-02  4.91875E-02  4.94736E-02
   4.96517E-02  4.98081E-02  4.99868E-02  5.01945E-02  5.03724E-02  5.04993E-02  5.07470E-02  5.13300E-02  5.20468E-02  5.23586E-02
   5.20370E-02  5.15172E-02  5.13123E-02  5.14446E-02  5.16970E-02  5.20225E-02  5.25380E-02  5.29282E-02  5.29480E-02  5.28324E-02
   5.30538E-02  5.37866E-02  5.47745E-02  5.58199E-02  5.69386E-02  5.81681E-02  5.94470E-02  6.05818E-02  6.16704E-02  6.28484E-02
   6.40697E-02  6.50558E-02  6.56527E-02  6.60850E-02  6.66684E-02  6.74618E-02  6.85355E-02  6.99452E-02  7.15347E-02  7.30331E-02
   7.43045E-02  7.57085E-02  7.75785E-02  7.97763E-02  8.19019E-02  8.34841E-02  8.45046E-02  8.52565E-02  8.61788E-02  8.74616E-02
   8.89082E-02  9.03071E-02  9.16214E-02  9.30485E-02  9.46764E-02  9.64155E-02  9.81014E-02  9.98468E-02  1.01922E-01  1.04367E-01
   1.06935E-01  1.09434E-01  1.12058E-01  1.14933E-01  1.17927E-01  1.21016E-01  1.24432E-01  1.28525E-01  1.33195E-01  1.38178E-01
   1.43176E-01  1.48119E-01  1.53068E-01  1.58117E-01
 NY background values follow
     6.239E-02    6.220E-02    6.202E-02    6.183E-02    6.164E-02    6.145E-02    6.127E-02    6.108E-02    6.089E-02    6.070E-02
     6.052E-02    6.033E-02    6.014E-02    5.995E-02    5.976E-02    5.958E-02    5.939E-02    5.920E-02    5.901E-02    5.883E-02
     5.864E-02    5.845E-02    5.826E-02    5.808E-02    5.789E-02    5.770E-02    5.751E-02    5.732E-02    5.714E-02    5.695E-02
     5.676E-02    5.657E-02    5.639E-02    5.620E-02    5.601E-02    5.582E-02    5.564E-02    5.545E-02    5.526E-02    5.507E-02
     5.488E-02    5.470E-02    5.451E-02    5.432E-02    5.413E-02    5.395E-02    5.376E-02    5.357E-02    5.338E-02    5.320E-02
     5.301E-02    5.282E-02    5.263E-02    5.245E-02    5.226E-02    5.207E-02    5.188E-02    5.169E-02    5.151E-02    5.132E-02
     5.113E-02    5.094E-02    5.076E-02    5.057E-02    5.038E-02    5.019E-02    5.001E-02    4.982E-02    4.963E-02    4.944E-02
