 
 $NMID
 ID=''
 FMTDAT='(2E13.5)'
 TRAMP=   1.00000E+0
 VOLUME=   1.00000E+0
 $END
   2.62803E+2  -1.11093E+3
   1.22509E+3   7.75311E+2
  -5.73714E+3  -7.40738E+3
  -6.17304E+3   4.37683E+3
  -1.23762E+3   8.92804E+3
   5.75326E+3   4.64235E+3
   5.25350E+3   3.71174E+3
   5.26745E+3   2.87238E+2
  -3.28742E+2  -5.84204E+3
  -1.57977E+3  -5.55215E+3
  -1.49597E+3  -3.43108E+3
   3.57718E+2  -1.61618E+3
   5.87796E+2   4.02361E+3
  -3.05505E+3   5.35639E+3
  -3.63763E+3   2.22217E+3
  -9.27278E+2  -1.99428E+3
   4.66834E+2   2.38206E+2
   1.89940E+3   7.24240E+2
   1.95517E+3   2.78895E+3
  -6.81116E+2   8.96635E+2
   1.48035E+3  -3.09918E+3
   2.05644E+3   1.03896E+2
  -2.07008E+3   4.93995E+3
  -5.12701E+3  -2.14499E+2
   2.22396E+2  -4.23819E+3
   3.27344E+3   2.86228E+3
  -1.68470E+3   5.52948E+3
  -3.86224E+3   1.12852E+3
  -3.37791E+2  -3.18714E+3
   2.58996E+3  -4.18133E+3
   7.98125E+3   2.07802E+3
   1.93821E+3   5.10469E+3
  -1.66651E+3   4.64264E+3
  -1.21872E+3  -3.89891E+3
   1.00620E+3  -1.82058E+3
  -4.18905E+3  -4.12913E+3
  -1.75529E+3  -7.14323E+3
   4.33271E+3  -4.01787E+3
   2.71992E+3  -2.93879E+3
  -5.91811E+2  -4.78108E+2
  -4.84811E+2   5.26249E+2
  -6.75891E+3   1.54699E+3
  -9.41590E+3  -5.99642E+3
  -6.72059E+3  -6.34693E+3
  -1.95205E+3  -2.19073E+3
  -1.51549E+3  -5.92776E+1
  -2.03783E+3  -6.91635E+2
   1.20978E+3   2.04435E+3
  -9.46569E+1   4.19009E+3
  -1.87402E+3   2.89477E+3
  -9.09104E+2  -9.26475E+2
  -2.53977E+2  -8.67196E+2
   5.39897E+3  -4.28863E+3
   4.16902E+3   1.88390E+2
   3.54189E+3   1.04012E+3
   2.46804E+3   1.53560E+3
   1.53595E+3   3.52648E+3
  -1.59863E+3   8.41382E+2
  -5.51193E+3  -6.65638E+3
  -1.08106E+3  -5.75473E+3
   3.48552E+3  -4.77922E+3
   4.15584E+3  -1.80226E+3
   3.46768E+3   2.66937E+3
   3.66893E+2   2.33621E+3
   2.37358E+3  -1.89799E+3
   3.30927E+3  -6.90392E+2
   5.84675E+2   2.84292E+3
  -7.07605E+2   4.16969E+3
  -2.00880E+3   3.26540E+2
  -2.90834E+3   2.53340E+3
  -1.27821E+3  -9.64823E+2
  -3.09860E+3   9.55417E+2
  -4.34671E+3   9.29680E+2
  -3.64259E+3   4.41119E+2
  -1.77294E+3   1.74046E+3
  -5.81170E+2   1.13759E+3
  -6.44763E+2   8.90222E+2
  -3.46099E+3  -1.68819E+3
   3.28139E+2  -2.29703E+3
   1.52362E+3  -7.42214E+2
   1.39006E+3   1.12867E+3
  -1.60457E+3   2.27084E+3
   1.17348E+3  -6.60546E+2
   2.39475E+3  -3.67167E+2
   6.11747E+2   1.95763E+3
  -3.29290E+3   1.08550E+3
  -2.62116E+3  -2.65649E+3
  -2.37536E+3  -3.34000E+3
   3.26768E+3  -1.54540E+3
   2.59721E+3   1.76205E+3
   1.20407E+3   1.22440E+3
   2.24863E+3   1.18084E+3
   3.78237E+3   3.46450E+3
  -4.31359E+2   4.64009E+3
  -2.52602E+3   2.38050E+3
  -2.20258E+3  -1.64411E+3
   1.91153E+3  -3.17690E+3
   2.81793E+3   2.51993E+3
   2.04826E+3   2.30910E+3
  -3.11562E+3   1.24754E+3
  -6.71520E+2  -4.33824E+3
   4.32030E+3  -2.83771E+3
   4.65228E+3   2.80108E+3
   2.07710E+3   3.26137E+3
  -3.44740E+2   3.75911E+3
   6.79479E+2   2.28856E+2
   1.13490E+2   3.59932E+2
   3.52027E+2   2.28028E+3
  -9.67476E+2  -1.27040E+3
  -3.50033E+3  -3.60977E+3
   1.69227E+3  -2.10705E+3
   3.93627E+3  -1.13923E+2
   3.67421E+3   2.54959E+3
   2.47831E+3   2.43892E+3
  -1.47184E+2   2.59562E+3
  -2.97978E+2   1.92781E+3
  -1.45354E+3  -1.23831E+2
  -1.78036E+3   6.80693E+2
  -2.79119E+2  -7.64053E+2
   8.33270E+2  -1.59417E+3
   5.87343E+2   2.68632E+2
   1.35768E+3   3.85262E+2
  -2.78489E+3  -1.01655E+2
   1.19657E+3  -1.89839E+3
   7.22925E+2   3.11145E+2
   4.63540E+2  -5.01803E+2
   2.11476E+1  -4.29686E+2
   3.25634E+3  -9.34179E+2
   5.69292E+2  -1.65338E+2
   1.06700E+3  -1.82347E+2
  -5.53993E+2  -3.10389E+3
  -4.36157E+2  -2.60532E+3
   1.58265E+3  -1.91254E+3
   2.25887E+3   1.45821E+3
  -3.79545E+2   2.57784E+3
  -1.88194E+3  -6.54661E+2
  -9.79603E+2  -2.41335E+2
  -2.37062E+2  -1.50610E+3
   2.04871E+2  -5.99834E+2
  -6.17876E+2   2.91229E+2
  -2.06927E+3  -2.88794E+2
   1.11622E+2  -2.48030E+3
   2.10017E+3  -1.97004E+3
   1.39849E+3   1.20840E+3
  -7.42037E+2   4.47980E+2
  -7.06724E+2  -1.80674E+2
  -4.85753E+2   3.22357E+2
  -6.09271E+2   6.34555E+2
   9.48350E+2  -7.94850E+2
  -1.22684E+3   1.93707E+3
  -1.75853E+3   7.01185E+2
  -4.09201E+3  -7.26806E+2
  -1.38088E+3  -4.59602E+2
  -1.60670E+3  -3.40878E+3
   3.06452E+3  -5.24575E+2
  -9.26268E+1   1.32392E+3
   1.29360E+3   6.98255E+2
  -1.54173E+2   1.92117E+3
   2.10842E+1   5.64783E+2
   1.09613E+3  -6.84101E+2
  -1.08808E+3   1.87693E+1
  -1.68206E+3   2.25963E+3
  -1.50166E+3  -2.50700E+2
   2.82914E+2  -2.37197E+3
   1.43772E+3   4.25393E+2
  -2.25470E+3   5.59714E+2
  -2.14437E+3   5.94550E+2
  -6.60364E+2  -2.71407E+3
  -1.08584E+3  -1.60533E+3
  -3.10917E+2   2.06610E+3
  -6.04219E+2   2.20942E+2
  -3.32322E+3  -6.29805E+2
   5.35710E+2   4.75262E+2
  -1.16892E+3  -6.52831E+2
  -1.05065E+3   7.02916E+2
  -1.52663E+3  -1.14079E+3
  -1.98014E+3  -1.58032E+3
   1.94407E+3  -7.42824E+2
   2.85647E+3   1.41104E+3
  -1.20827E+2   1.90955E+3
  -2.36464E+3   8.33514E+2
  -6.18130E+2   8.99440E+2
   9.17945E+2   1.01296E+3
  -2.30507E+3   1.14469E+3
   4.53716E+1  -8.32025E+1
   7.72333E+2   5.71537E+2
   5.35037E+2   2.02216E+3
  -4.68398E+1   1.59522E+3
  -3.53945E+3   1.32954E+3
  -2.02066E+3  -8.19465E+2
  -7.11140E+2  -4.87113E+2
   6.65765E+2  -5.82823E+2
   1.01334E+3   2.50790E+2
  -1.65397E+3   8.00787E+2
   4.91300E+2   9.83540E+2
   1.75052E+3  -6.74809E+2
   6.61051E+2   5.52483E+2
  -5.31599E+2  -1.28542E+3
  -1.00925E+3  -1.91406E+1
   5.27253E+3   5.54403E+2
   1.20197E+3   2.30457E+3
  -1.52687E+3   2.50504E+3
  -2.50907E+3   1.17291E+3
   1.54388E+3  -2.19621E+3
   1.27480E+3  -1.05435E+3
  -1.20713E+2  -1.20667E+3
   1.14527E+3   1.79556E+3
  -2.11637E+2   5.55409E+1
   7.80040E+2  -6.07092E+2
  -1.12717E+3   1.90563E+3
  -1.80389E+3   2.58635E+3
  -1.50894E+3  -4.32879E+2
  -1.22863E+3  -4.70818E+3
   1.78293E+3  -1.22973E+3
   2.44918E+3   1.33315E+3
   1.33644E+3  -1.05615E+3
  -6.18160E+2   1.03020E+1
   1.32475E+3  -4.35214E+2
  -7.02903E+1   1.48449E+3
   2.17841E+1  -6.92297E+2
  -1.91896E+3  -4.11680E+2
  -1.98936E+2  -1.04692E+3
  -4.61631E+2   7.92664E+2
  -9.64948E+2  -8.30985E+2
   1.03739E+3   7.72366E+2
   2.73341E+3   4.29272E+1
  -3.40814E+1  -1.25106E+3
   1.41715E+3   6.78917E+2
   7.59690E+2   2.36043E+3
  -1.80326E+3   9.05265E+2
   1.26885E+3  -2.63334E+2
   1.58297E+2   9.84458E+2
   1.46306E+3   2.67827E+3
  -4.30611E+2  -2.70012E+1
  -4.75363E+1  -1.26871E+3
   6.21969E+2  -4.53304E+3
   2.58712E+3   1.11331E+3
   8.67273E+1   2.38786E+3
  -2.03451E+3   1.16141E+3
   5.83519E+2  -5.72387E+2
   2.36746E+3   7.20555E+2
   1.75246E+3   7.13377E+2
   1.51465E+3   2.62067E+3
  -1.42548E+3  -2.08614E+3
  -1.00937E+3  -7.57684E+2
  -2.11256E+2  -1.52411E+3
  -8.83984E+1   7.61674E+2
  -1.37041E+3  -1.17221E+3
   6.84211E+2  -2.03181E+3
   2.68386E+3   2.62668E+1
   2.20072E+3   6.63403E-1
  -1.88613E+1   1.62493E+3
  -8.96920E+2   9.24852E+2
   3.59036E+1   1.51486E+3
  -1.35122E+3  -4.60240E+2
   2.56769E+3  -4.95454E+2
   1.08578E+3  -1.71988E+3
  -6.02483E+2  -2.74653E+3
   1.44708E+3   8.04924E+2
   2.44449E+2   7.12247E+2
   1.10487E+3   2.14171E+3
  -1.77358E+3  -1.83138E+3
   1.81966E+2  -2.78063E+2
   1.81494E+2   6.73710E+2
   8.00460E+2   2.58111E+3
  -4.28393E+1   1.25674E+3
  -9.62516E+2   1.13932E+1
   4.61486E+2  -4.15244E+1
  -2.25706E+3   4.68006E+2
  -2.51980E+3   1.26992E+3
  -1.35556E+3  -2.35053E+3
  -4.52921E+2  -2.03926E+3
   1.28618E+3   1.02083E+3
   1.07392E+3   9.93122E+2
  -2.13721E+3   2.41143E+3
   8.75381E+1  -1.26803E+3
  -8.79015E+2   2.79882E+2
   1.15629E+3  -8.07826E+2
  -2.58552E+2  -6.15699E+2
  -7.49567E+1  -3.90939E+2
   2.57521E+1  -8.89899E+2
   7.19239E+2   1.35046E+3
   6.49989E+2   1.62742E+3
   1.21348E+3  -5.57698E+1
  -1.07520E+3  -3.87610E+2
  -7.68837E+2   5.70553E+2
   1.92769E+3  -6.30578E+1
   1.10965E+3  -1.07674E+3
  -9.27436E+2  -3.55807E+2
  -2.11185E+3  -1.47304E+3
   5.50847E+2  -1.61504E+1
   2.10546E+3   1.83381E+3
   1.23451E+3  -5.95626E+2
  -7.26775E+1   1.40353E+2
   1.24367E+3   2.37572E+2
   8.25091E+1   1.65878E+3
  -2.59635E+3   4.97628E+2
  -1.90941E+2  -2.47555E+3
   2.09256E+3  -1.89053E+3
  -2.90216E+2   2.61998E+3
   1.17479E+3   1.55827E+3
  -6.97690E+2   8.10102E+2
   8.84806E+2   3.31677E+2
   1.32298E+3   1.00443E+3
  -1.44140E+2   2.78874E+3
  -1.50075E+3   2.03867E+3
  -1.81443E+3  -1.62507E+3
   1.49797E+3  -3.17247E+2
   5.74333E+2   5.75197E+2
  -7.63870E+2  -9.96225E+0
  -7.74074E+2   3.78319E+3
  -2.69210E+2  -1.15958E+3
  -2.07900E+3   9.26501E+2
   1.67947E+3  -1.43644E+3
  -2.63985E+2  -9.47930E+2
   6.65208E+2   9.96312E+1
   7.21805E+2   1.58184E+3
  -1.05924E+2   1.87007E+3
  -1.61087E+3   1.77675E+3
  -1.62852E+3  -2.49054E+2
  -9.13060E+2  -3.70474E+2
   1.18450E+3  -2.20099E+3
   1.50219E+3   4.11274E+2
  -6.88223E+2   3.11935E+3
   2.07546E+2   6.83758E+2
  -7.18783E+2  -5.29070E+2
   1.79881E+3  -6.56314E+2
   2.18884E+2  -3.29853E+2
  -1.81147E+3  -2.17904E+3
   1.53272E+3  -2.48217E+1
   1.27241E+3  -5.58495E+2
   3.31538E+3  -6.06302E+2
   6.24642E+2   1.48143E+3
   2.52793E+2  -1.70963E+2
   2.98220E+2   1.05755E+3
   1.56840E+3  -4.21711E+2
  -1.65065E+3   1.31613E+3
  -1.85188E+2  -3.56067E+3
   1.37971E+3  -1.71312E+3
   1.41098E+3   1.81367E+2
   2.53988E+2  -1.14534E+2
  -2.27979E+3   1.18246E+3
  -8.27691E+2  -2.79570E+2
   8.41963E+2  -5.02064E+2
   1.73167E+3  -5.34895E+2
  -4.75151E+2   1.00730E+3
   1.73759E+3   8.99916E+2
   1.70911E+3   1.25956E+2
   7.59200E+2   1.51388E+3
   1.64963E+3   1.42581E+3
   5.89456E+2   1.07374E+3
  -1.53012E+3   1.36559E+2
   2.27195E+3  -1.32251E+3
   3.91005E+2  -3.69888E+2
  -2.10001E+3   3.84280E+2
  -1.21092E+3  -9.88095E+2
  -7.52563E+2  -1.75580E+3
  -1.56558E+2   1.81115E+2
   2.08546E+3  -8.83192E+1
   9.93253E+2  -4.95106E+2
   1.28621E+2   1.10262E+3
   2.86143E+2   8.92487E+2
  -2.96302E+2   1.96878E+3
  -1.00893E+3   7.45663E+2
  -1.96634E+3   5.77908E+2
  -1.67927E+2   4.19035E+2
  -2.99309E+2   1.34681E+3
