 LCModel (Version 6.3-1N) Copyright: S.W. Provencher.          Ref.: Magn. Reson. Med. 30:672-679 (1993).                
 Slice_N1@23_24  02-Jun-2023 14:38:00
 27 lines in following concentration table = NCONC+1
    Conc.  %SD /Cr+PCr  Metabolite                                         
 2.80E-06  20% 2.6E-04 Mac                                                 
 3.45E-02 107%   3.151 Cr                                                  
 5.30E-02  69%   4.849 PCr                                                 
    0.116  20%  10.623 Ins                                                 
 5.90E-02  25%   5.397 NAA                                                 
 7.88E-02  30%   7.201 Tau                                                 
    0.000 999%   0.000 PCho                                                
 2.59E-02  22%   2.367 GPC                                                 
 4.68E-02  44%   4.282 Glu                                                 
 7.48E-03 174%   0.684 Gln                                                 
    0.000 999%   0.000 Ala                                                 
    0.145  22%  13.247 Asc                                                 
 8.08E-03 117%   0.739 Asp                                                 
 5.82E-03  95%   0.532 GABA                                                
 7.05E-03  83%   0.644 Glc                                                 
 3.42E-03 164%   0.313 GSH                                                 
    0.000 999%   0.000 Lac                                                 
    0.000 999%   0.000 NAAG                                                
    0.000 999%   0.000 PE                                                  
 2.59E-02  22%   2.367 GPC+PCho                                            
 5.90E-02  25%   5.397 NAA+NAAG                                            
 5.43E-02  45%   4.966 Glu+Gln                                             
 8.75E-02  18%   8.000 Cr+PCr                                              
 5.90E-02  25%   5.397 NAA+NAAG                                            
 8.75E-02  18%   8.000 Cr+PCr                                              
 5.43E-02  45%   4.966 Glu+Gln                                             
   6 lines in following misc. output table
  FWHM = 0.093 ppm    S/N =   1                                            
  Data shift = 0.081 ppm                                                   
  Ph:   2 deg     -20.2 deg/ppm                                            
  alphaB,S = 3.1E+01,   1.0E+02                                            
   18 spline knots.   Ns = 8(2)                                            
   2 inflections.     1 extrema                                            
  654 points on ppm-axis = NY
      4.000000     3.994181     3.988363     3.982544     3.976726     3.970907     3.965088     3.959270     3.953451     3.947633
      3.941814     3.935995     3.930177     3.924358     3.918540     3.912721     3.906902     3.901084     3.895265     3.889446
      3.883628     3.877809     3.871991     3.866172     3.860353     3.854535     3.848716     3.842898     3.837079     3.831260
      3.825442     3.819623     3.813805     3.807986     3.802167     3.796349     3.790530     3.784712     3.778893     3.773074
      3.767256     3.761437     3.755619     3.749800     3.743981     3.738163     3.732344     3.726526     3.720707     3.714888
      3.709070     3.703251     3.697433     3.691614     3.685795     3.679977     3.674158     3.668339     3.662521     3.656702
      3.650884     3.645065     3.639246     3.633428     3.627609     3.621791     3.615972     3.610153     3.604335     3.598516
      3.592698     3.586879     3.581060     3.575242     3.569423     3.563605     3.557786     3.551967     3.546149     3.540330
      3.534512     3.528693     3.522874     3.517056     3.511237     3.505419     3.499600     3.493781     3.487963     3.482144
      3.476326     3.470507     3.464688     3.458870     3.453051     3.447232     3.441414     3.435595     3.429777     3.423958
      3.418139     3.412321     3.406502     3.400684     3.394865     3.389046     3.383228     3.377409     3.371591     3.365772
      3.359953     3.354135     3.348316     3.342498     3.336679     3.330860     3.325042     3.319223     3.313405     3.307586
      3.301767     3.295949     3.290130     3.284312     3.278493     3.272674     3.266856     3.261037     3.255219     3.249400
      3.243581     3.237763     3.231944     3.226125     3.220307     3.214488     3.208670     3.202851     3.197032     3.191214
      3.185395     3.179577     3.173758     3.167939     3.162121     3.156302     3.150484     3.144665     3.138846     3.133028
      3.127209     3.121391     3.115572     3.109753     3.103935     3.098116     3.092298     3.086479     3.080660     3.074842
      3.069023     3.063205     3.057386     3.051567     3.045749     3.039930     3.034111     3.028293     3.022474     3.016656
      3.010837     3.005018     2.999200     2.993381     2.987563     2.981744     2.975925     2.970107     2.964288     2.958470
      2.952651     2.946832     2.941014     2.935195     2.929377     2.923558     2.917739     2.911921     2.906102     2.900284
      2.894465     2.888646     2.882828     2.877009     2.871191     2.865372     2.859553     2.853735     2.847916     2.842098
      2.836279     2.830460     2.824642     2.818823     2.813004     2.807186     2.801367     2.795549     2.789730     2.783911
      2.778093     2.772274     2.766456     2.760637     2.754818     2.749000     2.743181     2.737363     2.731544     2.725725
      2.719907     2.714088     2.708270     2.702451     2.696632     2.690814     2.684995     2.679177     2.673358     2.667539
      2.661721     2.655902     2.650084     2.644265     2.638446     2.632628     2.626809     2.620991     2.615172     2.609353
      2.603535     2.597716     2.591897     2.586079     2.580260     2.574442     2.568623     2.562804     2.556986     2.551167
      2.545349     2.539530     2.533711     2.527893     2.522074     2.516256     2.510437     2.504618     2.498800     2.492981
      2.487163     2.481344     2.475525     2.469707     2.463888     2.458070     2.452251     2.446432     2.440614     2.434795
      2.428977     2.423158     2.417339     2.411521     2.405702     2.399884     2.394065     2.388246     2.382428     2.376609
      2.370790     2.364972     2.359153     2.353335     2.347516     2.341697     2.335879     2.330060     2.324242     2.318423
      2.312604     2.306786     2.300967     2.295149     2.289330     2.283511     2.277693     2.271874     2.266056     2.260237
      2.254418     2.248600     2.242781     2.236963     2.231144     2.225325     2.219507     2.213688     2.207870     2.202051
      2.196232     2.190414     2.184595     2.178777     2.172958     2.167139     2.161321     2.155502     2.149683     2.143865
      2.138046     2.132228     2.126409     2.120590     2.114772     2.108953     2.103135     2.097316     2.091497     2.085679
      2.079860     2.074042     2.068223     2.062404     2.056586     2.050767     2.044949     2.039130     2.033311     2.027493
      2.021674     2.015856     2.010037     2.004218     1.998400     1.992581     1.986763     1.980944     1.975126     1.969307
      1.963489     1.957670     1.951852     1.946033     1.940215     1.934397     1.928578     1.922760     1.916941     1.911123
      1.905304     1.899486     1.893667     1.887849     1.882030     1.876212     1.870393     1.864575     1.858756     1.852938
      1.847119     1.841301     1.835482     1.829664     1.823845     1.818027     1.812208     1.806390     1.800571     1.794753
      1.788934     1.783116     1.777297     1.771479     1.765660     1.759842     1.754023     1.748205     1.742386     1.736568
      1.730749     1.724931     1.719113     1.713294     1.707476     1.701657     1.695839     1.690020     1.684202     1.678383
      1.672565     1.666746     1.660928     1.655109     1.649291     1.643472     1.637654     1.631835     1.626017     1.620198
      1.614380     1.608561     1.602743     1.596924     1.591106     1.585287     1.579469     1.573650     1.567832     1.562013
      1.556195     1.550376     1.544558     1.538739     1.532921     1.527102     1.521284     1.515465     1.509647     1.503829
      1.498010     1.492192     1.486373     1.480555     1.474736     1.468918     1.463099     1.457281     1.451462     1.445644
      1.439825     1.434007     1.428188     1.422370     1.416551     1.410733     1.404914     1.399096     1.393277     1.387459
      1.381640     1.375822     1.370003     1.364185     1.358366     1.352548     1.346729     1.340911     1.335092     1.329274
      1.323455     1.317637     1.311818     1.306000     1.300182     1.294363     1.288545     1.282726     1.276908     1.271089
      1.265271     1.259452     1.253634     1.247815     1.241997     1.236178     1.230360     1.224541     1.218723     1.212904
      1.207086     1.201267     1.195449     1.189630     1.183812     1.177993     1.172175     1.166356     1.160538     1.154719
      1.148901     1.143082     1.137264     1.131445     1.125627     1.119808     1.113990     1.108171     1.102353     1.096534
      1.090716     1.084898     1.079079     1.073261     1.067442     1.061624     1.055805     1.049987     1.044168     1.038350
      1.032531     1.026713     1.020894     1.015076     1.009257     1.003439     0.997620     0.991802     0.985983     0.980165
      0.974346     0.968528     0.962709     0.956891     0.951072     0.945254     0.939435     0.933617     0.927798     0.921980
      0.916161     0.910343     0.904524     0.898706     0.892887     0.887069     0.881251     0.875432     0.869614     0.863795
      0.857977     0.852158     0.846340     0.840521     0.834703     0.828884     0.823066     0.817247     0.811429     0.805610
      0.799792     0.793973     0.788155     0.782336     0.776518     0.770699     0.764881     0.759062     0.753244     0.747425
      0.741607     0.735788     0.729970     0.724151     0.718333     0.712514     0.706696     0.700877     0.695059     0.689240
      0.683422     0.677603     0.671785     0.665967     0.660148     0.654330     0.648511     0.642693     0.636874     0.631056
      0.625237     0.619419     0.613600     0.607782     0.601963     0.596145     0.590326     0.584508     0.578689     0.572871
      0.567052     0.561234     0.555415     0.549597     0.543778     0.537960     0.532141     0.526323     0.520504     0.514686
      0.508867     0.503049     0.497230     0.491412     0.485593     0.479775     0.473956     0.468138     0.462319     0.456501
      0.450682     0.444864     0.439045     0.433227     0.427408     0.421590     0.415771     0.409953     0.404134     0.398316
      0.392497     0.386679     0.380860     0.375042     0.369223     0.363405     0.357586     0.351767     0.345949     0.340130
      0.334312     0.328493     0.322675     0.316856     0.311038     0.305219     0.299401     0.293582     0.287764     0.281945
      0.276127     0.270308     0.264490     0.258671     0.252853     0.247034     0.241216     0.235397     0.229579     0.223760
      0.217942     0.212123     0.206305     0.200486
 NY phased data points follow
   4.09495E-03 -1.99948E-01 -3.28020E-01  1.21188E-01  4.57969E-01 -1.45320E-01 -2.38288E-01 -8.98682E-04  3.42143E-01  6.31537E-01
   4.34816E-01  4.52299E-01  1.08134E+00  5.75851E-01  5.00728E-01  5.72820E-01  2.76892E-01  8.25286E-01 -8.09401E-02  7.79854E-01
   9.62658E-01 -1.75639E-01 -4.61227E-02 -1.67611E-01 -4.77914E-01 -3.14973E-01  3.03437E-01 -2.38553E-01 -8.86112E-02 -3.70239E-01
  -6.64319E-01 -2.81117E-01 -3.22940E-01 -2.78675E-01 -6.26566E-01 -6.41601E-01 -7.73121E-01 -8.87716E-01 -9.82230E-02 -3.63145E-02
  -4.29859E-01 -5.69052E-02 -3.95363E-01 -2.38550E-01 -5.59903E-02  1.12685E-01  4.46232E-01  3.54969E-02  1.03704E-01  2.91896E-01
  -1.05498E-01 -1.15413E-01  4.97831E-01  8.99176E-02  1.29509E-02  2.34793E-01  8.39669E-02  8.31872E-02  1.94375E-01 -2.51124E-01
  -2.75445E-01  4.41714E-01 -1.22996E-01 -9.19511E-02  2.85166E-01  3.01919E-01  3.71560E-01  4.81062E-01  4.13803E-01  1.94092E-01
   8.39943E-02  1.53043E-01  6.56704E-01  3.19846E-02 -1.87143E-01  2.55337E-01 -1.05324E-01 -1.44096E-01 -1.36380E-01 -9.49841E-02
   2.20712E-01  1.33125E-01  3.85360E-01  6.72982E-01  3.17810E-01  2.70820E-01  5.92943E-02 -1.78197E-01 -1.95761E-01 -2.22411E-01
   2.61141E-01  2.14694E-01 -3.53099E-02  1.87548E-01 -5.73730E-02 -2.33909E-02  4.21374E-01  3.40588E-01  1.03683E-02  2.37859E-01
   1.35934E-01  6.83388E-02  3.17519E-01 -1.58931E-01  1.04070E-01  6.63064E-01  2.60028E-01 -1.65282E-01  3.30763E-01  4.42550E-01
   1.04555E-01  4.81893E-01  4.14186E-01  1.56434E-01  4.76139E-01  3.39423E-01 -2.20960E-01  1.36519E-01  2.95105E-01  5.44629E-01
   6.45168E-01 -4.34922E-01 -6.04517E-02  1.70655E-01 -6.93652E-01 -1.13165E-01 -1.85957E-01 -5.00852E-01 -4.51903E-02 -3.60358E-01
  -5.57582E-01 -7.61781E-01 -3.41283E-01 -4.95522E-01 -6.95269E-01 -1.32747E-01 -9.29536E-01 -6.31083E-01 -4.18293E-01 -7.96508E-01
  -4.04009E-01 -5.89896E-01 -4.56316E-01 -3.55945E-01 -2.30513E-01 -1.61932E-01 -5.15756E-01 -1.64535E-02  2.78292E-01  8.72974E-02
   8.31594E-02 -1.02646E-01  7.95528E-02  3.14901E-01  2.96164E-01  3.12068E-01 -2.45640E-03 -1.20556E-01  2.49478E-01 -3.59362E-03
   1.53468E-01  6.81257E-01  4.94581E-01  6.78693E-01  5.51671E-01  6.05796E-01  5.58883E-01  1.70316E-01  2.13948E-01 -2.43691E-01
  -3.12219E-02  3.67668E-01  1.62457E-01 -1.55200E-01 -3.91292E-01 -1.95314E-01 -2.87386E-01 -3.72628E-01 -7.27108E-01 -3.19076E-01
  -5.25338E-02 -7.73520E-01 -5.98877E-02 -1.65326E-01 -2.09778E-01 -7.46807E-02 -6.58042E-01 -2.54752E-01 -4.98658E-01 -2.43690E-01
  -2.37277E-01 -3.92732E-01  1.73073E-01  3.13911E-02 -5.17759E-01 -5.75836E-01  1.56430E-01  8.01847E-03 -3.01785E-01 -4.11337E-01
  -6.76766E-01 -1.43070E-01  2.63609E-01 -4.11386E-01 -4.78028E-01 -9.85079E-02  1.80987E-02  1.03581E-01 -2.54906E-02  4.85967E-01
  -2.87583E-01 -1.06354E-01  5.57234E-01 -1.69750E-02 -1.53339E-01 -7.53091E-01 -2.21852E-02 -2.85755E-01 -4.35315E-01  1.07475E-01
  -1.49333E-01  4.53544E-01 -1.87698E-01 -1.22777E-01 -2.02321E-01 -2.43926E-01  4.29356E-01 -3.73517E-01 -3.27279E-01 -3.50200E-02
  -1.41661E-01  1.38927E-01  3.77065E-01  2.86446E-01  2.61712E-01 -7.01788E-03 -2.40655E-01  1.36112E-01 -7.72624E-02 -1.71227E-01
   3.56963E-02 -3.43766E-01 -2.03285E-01  3.23864E-01  6.92067E-02 -7.31969E-02 -4.81315E-01 -2.32497E-01  1.27473E-01 -1.86598E-01
   3.01410E-01 -1.89103E-01 -3.46028E-01  1.43803E-01 -5.04471E-01 -7.56991E-01 -1.21948E-01  8.34601E-03 -1.17593E-01  1.50809E-01
   2.57440E-01 -4.84157E-02 -2.68222E-01  9.76839E-02  1.69404E-01  2.93108E-01  2.76207E-01  5.57836E-02 -1.48206E-01 -3.21781E-01
   4.50560E-02  2.22330E-01 -7.10000E-02  3.96096E-02 -2.30166E-02 -4.16147E-01  1.83274E-01  2.46642E-01  1.48978E-03  1.21552E-01
   8.14061E-02 -1.24001E-01 -3.73683E-01 -1.43961E-01 -1.84119E-01 -7.94617E-02  2.66561E-01  1.19946E-01  1.66392E-01  3.69832E-01
   1.72766E-01  2.10387E-02  3.47529E-01  5.74003E-01 -4.77242E-01  1.03235E-01  4.98539E-01  1.13654E-01  4.31968E-01 -4.90871E-01
   2.00660E-01  2.75188E-01  1.56282E-01  4.81836E-01  3.65992E-01  5.11930E-02 -2.54138E-01  4.10001E-01  1.35624E-01  3.54194E-01
   1.87081E-01  3.35532E-01  3.54888E-01 -1.29081E-01  6.77598E-02  2.90111E-01  2.60618E-01  1.82393E-02  2.17893E-01  2.26665E-01
   2.67668E-01 -1.31685E-01 -1.94679E-01 -4.68409E-01 -4.49043E-02  2.06521E-01 -9.93088E-02  3.75927E-01  4.46817E-02  1.04316E-01
   2.42316E-01 -2.35907E-01 -4.82515E-01  8.46944E-02 -2.96060E-01 -3.07292E-01 -8.81007E-02 -3.31363E-01  1.86561E-01  3.75009E-02
  -3.60379E-01 -4.60712E-01 -2.83347E-01 -8.36613E-01 -8.39656E-01 -5.41114E-01 -3.08852E-01 -1.58351E-01 -4.53186E-01 -2.08773E-01
  -3.07723E-01 -5.47992E-02 -1.09841E-01 -1.52386E-01  2.85058E-01 -3.09258E-02 -2.05055E-01 -2.15256E-01 -3.51929E-01  2.35446E-01
   3.46138E-01  7.83141E-02  1.92857E-01  4.39798E-01  2.22103E-01 -6.53364E-02  3.68286E-01  3.54302E-02  4.13714E-01  4.10631E-01
   1.73610E-01  4.92677E-01  1.52852E-01  2.69526E-01 -2.37990E-01 -2.31064E-01 -1.21080E-01  8.91876E-02  5.68927E-01  4.39183E-01
   3.66061E-01  2.43731E-02  3.16299E-01  8.69946E-02 -1.26530E-01  3.61482E-01  1.37129E-01  5.77930E-01  5.28675E-01  5.18200E-03
   2.54569E-01  1.21353E-01  1.70671E-01 -3.51921E-01 -4.38136E-02  2.20202E-01 -7.98966E-02  1.03327E+00  4.16611E-01 -2.84659E-01
  -2.38512E-01 -1.58171E-01 -5.87248E-02 -1.60855E-01 -2.27699E-01 -3.08219E-01  2.12086E-02 -3.67791E-01 -9.35599E-02 -2.98818E-01
  -2.98166E-01 -2.74044E-01 -3.35124E-01  1.19631E-01 -2.46307E-01  9.46259E-02 -4.03092E-01 -5.16021E-01 -2.93902E-01  4.42584E-02
   4.42184E-02 -5.21045E-01  9.87551E-02 -2.32004E-01 -8.89524E-01 -3.32854E-02  1.10671E-01 -7.37451E-01 -9.37916E-02 -1.66378E-01
  -3.31410E-01 -1.66979E-01  1.53094E-01  7.19454E-02 -1.49870E-01  2.22831E-01 -5.58817E-01  1.36381E-01 -9.10913E-02  9.73640E-02
   4.25049E-01 -2.92777E-01  3.98790E-01  3.53389E-01  3.23649E-01 -1.16680E-01 -6.95621E-02  1.74078E-01  1.95124E-01  1.59060E-01
  -3.53857E-01 -2.84487E-01 -2.34192E-01 -3.89122E-02 -4.52955E-02 -8.49803E-02 -1.45267E-01 -3.41471E-01 -3.60364E-01 -1.33203E-02
   3.57317E-01 -2.33575E-01 -3.81473E-01 -1.17713E-01 -3.32913E-01 -3.10341E-01 -4.29854E-01 -2.26530E-01 -1.34428E-01 -8.35890E-02
  -6.71043E-02 -4.16270E-01 -1.71941E-01 -2.22205E-01 -1.10286E-01  2.05838E-01  1.48335E-01 -1.02572E-01 -2.26236E-02  5.17976E-01
   4.65360E-01  1.89430E-01  2.81403E-01  6.86723E-01 -1.74588E-01 -1.77342E-01  6.12854E-01 -2.43818E-01  1.88375E-01 -1.64668E-01
  -3.00491E-01  5.94105E-01  1.65706E-01  3.97810E-01  3.37205E-01  4.31923E-01  4.60917E-01  2.21335E-01 -8.61451E-02  1.21484E-02
  -4.94077E-02 -2.12726E-01 -1.09833E-01 -5.07254E-01  1.35236E-01 -1.96559E-02  1.41896E-01  4.35863E-02 -1.79512E-01  7.79934E-02
  -6.70398E-02  1.63822E-01 -3.74803E-01 -3.23442E-01 -1.20215E-01 -1.75808E-01  1.21961E-01  2.18544E-01 -1.70608E-01 -2.42112E-01
  -7.31601E-01 -3.12252E-01 -2.45272E-01 -3.57781E-01  1.23906E-01 -2.48892E-01  2.40221E-01 -3.74188E-01 -1.35006E-01 -5.00131E-01
  -6.29385E-01 -2.13099E-01 -8.34489E-01 -2.42781E-01 -2.70713E-01 -2.55501E-01 -2.52516E-01 -3.59222E-01 -4.79305E-01 -1.98296E-01
  -2.37526E-01 -2.00522E-01 -1.86057E-01 -6.59214E-01 -5.91558E-01 -1.32311E-01 -2.96812E-01 -6.07252E-01 -3.86940E-01 -5.13645E-03
   3.85027E-01 -6.10011E-02  3.48754E-01  1.54501E-01  2.14550E-01 -1.10217E-01  9.23068E-02  4.70109E-01 -2.64049E-01  3.91300E-01
   2.85504E-02  2.81046E-01  1.99492E-01 -2.29755E-01 -1.72360E-01  4.10539E-01  3.63027E-01  1.44968E-01  3.61786E-01 -1.04860E-01
   2.76407E-01  1.26675E-01  3.22476E-01 -1.43697E-01 -1.55026E-01  2.49426E-01 -1.45244E-01  1.40826E-02  2.05230E-01  3.78831E-01
   2.77791E-01 -3.88724E-02  1.42063E-01  4.03855E-01  1.01373E-01  3.29873E-01  1.00171E-01  2.54638E-02  2.69992E-01  5.77115E-02
   1.05139E-02  8.73139E-02  1.29997E-01  5.00798E-02 -1.18705E-01  6.31086E-02  3.68776E-01  2.96477E-01 -9.58357E-02 -1.06717E-01
  -1.82934E-01 -3.71794E-01  4.53894E-01 -5.74121E-02  5.95803E-03  1.88631E-01  1.85487E-01  7.93117E-02 -2.96235E-01  4.15926E-01
  -1.93952E-01 -2.34319E-03 -1.95532E-01 -2.78149E-01 -1.92879E-01 -1.45221E-01  3.44169E-01  8.84083E-02 -1.40330E-01 -1.27843E-01
   6.42084E-01 -9.11757E-02 -1.70344E-01 -8.65777E-02 -2.65683E-01  4.19365E-01 -2.56007E-01 -4.03462E-01  3.16458E-02  1.07835E-01
   6.66406E-02 -2.06886E-02 -2.21470E-03 -1.36081E-01 -1.91516E-01 -2.00857E-02  4.96082E-01 -6.71040E-02  3.92138E-04  3.78705E-01
  -2.99190E-01  5.25366E-01 -2.47779E-01 -3.58256E-01  5.44888E-01  3.74847E-01  8.02033E-01  5.38442E-01  3.35572E-02 -2.16078E-01
   4.88587E-01  3.18685E-01  1.22336E-01  1.86194E-01
 NY points of the fit to the data follow
   2.59576E-01  3.12232E-01  2.40110E-01  2.86009E-01  2.34860E-01  2.72923E-01  2.46287E-01  2.76791E-01  2.72547E-01  2.95341E-01
   3.05155E-01  3.15817E-01  3.21616E-01  3.22145E-01  3.15627E-01  3.07229E-01  2.89909E-01  2.73788E-01  2.50867E-01  2.27326E-01
   1.97615E-01  1.67140E-01  1.28888E-01  9.22238E-02  4.84883E-02  7.04495E-03 -3.65343E-02 -8.16344E-02 -1.24683E-01 -1.69029E-01
  -2.07953E-01 -2.50820E-01 -2.68654E-01 -3.13256E-01 -3.11097E-01 -3.42686E-01 -3.26099E-01 -3.39972E-01 -3.05306E-01 -2.99536E-01
  -2.47150E-01 -2.21383E-01 -1.60631E-01 -1.19795E-01 -6.12863E-02 -1.02335E-02  3.55970E-02  8.76431E-02  1.12711E-01  1.58904E-01
   1.57352E-01  1.88829E-01  1.72700E-01  1.80918E-01  1.57817E-01  1.48491E-01  1.25277E-01  1.02176E-01  8.93744E-02  5.61188E-02
   6.12994E-02  2.67125E-02  5.14007E-02  2.54616E-02  7.12536E-02  5.36894E-02  1.03083E-01  1.02684E-01  1.28265E-01  1.41405E-01
   1.39809E-01  1.54295E-01  1.31978E-01  1.47267E-01  1.08053E-01  1.28007E-01  8.04581E-02  1.07948E-01  6.67301E-02  1.02911E-01
   7.90862E-02  1.19098E-01  1.10339E-01  1.47685E-01  1.48605E-01  1.69688E-01  1.80948E-01  1.85901E-01  2.00862E-01  1.91713E-01
   2.13417E-01  1.81557E-01  2.14710E-01  1.56666E-01  2.06582E-01  1.25342E-01  1.97680E-01  9.78059E-02  1.91109E-01  8.34408E-02
   1.87726E-01  8.82387E-02  1.99558E-01  1.09358E-01  2.22365E-01  1.47626E-01  2.53434E-01  1.96186E-01  2.86234E-01  2.46889E-01
   3.16498E-01  2.89993E-01  3.38032E-01  3.17850E-01  3.41292E-01  3.13536E-01  3.17367E-01  2.63223E-01  2.64336E-01  1.76912E-01
   2.04636E-01  6.12931E-02  1.21295E-01 -7.78921E-02  1.29464E-02 -2.26757E-01 -1.11216E-01 -3.69886E-01 -2.44821E-01 -4.93051E-01
  -3.78176E-01 -5.85467E-01 -4.99553E-01 -6.41280E-01 -5.91875E-01 -6.53824E-01 -6.32462E-01 -6.16974E-01 -6.11292E-01 -5.35736E-01
  -5.41412E-01 -4.27771E-01 -4.44643E-01 -3.10171E-01 -3.29230E-01 -1.90529E-01 -2.06862E-01 -7.88908E-02 -8.78883E-02  1.45598E-02
   1.90197E-02  1.06850E-01  1.42290E-01  2.03580E-01  2.51893E-01  2.80344E-01  3.15812E-01  3.34609E-01  3.54264E-01  3.63291E-01
   3.54484E-01  3.54743E-01  3.05540E-01  3.01083E-01  2.05066E-01  2.03120E-01  6.37532E-02  7.52008E-02 -8.95933E-02 -5.81232E-02
  -2.24816E-01 -1.76491E-01 -3.29285E-01 -2.72833E-01 -4.06603E-01 -3.45189E-01 -4.52984E-01 -3.89187E-01 -4.65417E-01 -4.03074E-01
  -4.46634E-01 -3.90835E-01 -4.06935E-01 -3.56660E-01 -3.46108E-01 -3.05501E-01 -2.77594E-01 -2.56723E-01 -2.36134E-01 -2.21092E-01
  -2.03149E-01 -1.90968E-01 -1.75185E-01 -1.64122E-01 -1.50421E-01 -1.40035E-01 -1.28136E-01 -1.18507E-01 -1.08298E-01 -9.96838E-02
  -9.11539E-02 -8.35761E-02 -7.68191E-02 -7.03975E-02 -6.53701E-02 -6.00686E-02 -5.66288E-02 -5.23834E-02 -5.03184E-02 -4.79642E-02
  -4.65853E-02 -4.41381E-02 -4.26602E-02 -3.91224E-02 -3.86251E-02 -3.30347E-02 -3.10595E-02 -2.19762E-02 -1.80853E-02 -4.90741E-03
   9.92612E-05  1.70409E-02  2.23308E-02  4.13717E-02  4.51808E-02  6.39232E-02  6.45282E-02  8.07916E-02  7.65817E-02  8.86868E-02
   7.85927E-02  8.62242E-02  7.05486E-02  7.35756E-02  5.42329E-02  5.33456E-02  3.28553E-02  2.90615E-02  8.63964E-03  3.06460E-03
  -1.64002E-02 -2.46050E-02 -4.12987E-02 -4.91207E-02 -6.41650E-02 -6.78465E-02 -8.24472E-02 -8.15629E-02 -9.55248E-02 -8.90616E-02
  -9.98394E-02 -8.82011E-02 -9.68852E-02 -8.18424E-02 -8.64906E-02 -7.04446E-02 -6.89711E-02 -5.52018E-02 -4.67970E-02 -3.79938E-02
  -2.42848E-02 -2.05714E-02 -5.36511E-03 -4.71965E-03  7.83205E-03  6.77900E-03  1.45556E-02  1.12171E-02  1.28867E-02  5.67957E-03
  -1.52624E-04 -1.00094E-02 -2.33643E-02 -3.39579E-02 -5.16260E-02 -6.01806E-02 -7.92051E-02 -8.16810E-02 -9.85423E-02 -9.49365E-02
  -1.03533E-01 -9.44239E-02 -9.24439E-02 -7.91738E-02 -6.68626E-02 -5.10429E-02 -3.32048E-02 -1.60646E-02  1.40392E-03  2.03000E-02
   3.31655E-02  5.42680E-02  6.13892E-02  8.37428E-02  8.53885E-02  1.06998E-01  1.03409E-01  1.22544E-01  1.14298E-01  1.29860E-01
   1.17936E-01  1.29215E-01  1.14395E-01  1.22069E-01  1.05682E-01  1.10764E-01  9.51152E-02  9.61891E-02  8.13281E-02  7.73312E-02
   6.07312E-02  5.24999E-02  3.21609E-02  2.23445E-02 -2.70657E-03 -1.00113E-02 -3.97736E-02 -4.11231E-02 -7.45274E-02 -6.83645E-02
  -1.03259E-01 -9.00208E-02 -1.23575E-01 -1.05636E-01 -1.34863E-01 -1.15161E-01 -1.31935E-01 -1.13263E-01 -1.29757E-01 -1.18974E-01
  -1.38055E-01 -1.38263E-01 -1.60230E-01 -1.71717E-01 -1.98569E-01 -2.20659E-01 -2.50459E-01 -2.81435E-01 -3.07918E-01 -3.44654E-01
  -3.58342E-01 -3.95710E-01 -3.86874E-01 -4.18486E-01 -3.85545E-01 -4.07200E-01 -3.58258E-01 -3.69423E-01 -3.14629E-01 -3.17015E-01
  -2.59699E-01 -2.55213E-01 -1.98634E-01 -1.89701E-01 -1.38294E-01 -1.27063E-01 -8.55211E-02 -7.35317E-02 -4.12446E-02 -2.92013E-02
  -1.05813E-02 -1.43431E-03 -7.22299E-04  3.36864E-03  3.61193E-03  6.24553E-03  7.53803E-03  9.49518E-03  1.21921E-02  1.38401E-02
   1.79856E-02  1.94336E-02  2.48762E-02  2.60941E-02  3.24810E-02  3.34535E-02  4.03927E-02  4.11975E-02  4.81149E-02  4.89974E-02
   5.52425E-02  5.63902E-02  6.15577E-02  6.30006E-02  6.69981E-02  6.87659E-02  7.15410E-02  7.36049E-02  7.50849E-02  7.72057E-02
   7.73186E-02  7.91517E-02  7.78309E-02  7.90900E-02  7.62113E-02  7.66412E-02  7.22386E-02  7.16518E-02  6.58990E-02  6.41606E-02
   5.72815E-02  5.43764E-02  4.67501E-02  4.27999E-02  3.48639E-02  3.00454E-02  2.22303E-02  1.67364E-02  9.39247E-03  3.61210E-03
  -3.01562E-03 -8.71357E-03 -1.44250E-02 -1.97950E-02 -2.44830E-02 -2.92696E-02 -3.27140E-02 -3.66915E-02 -3.88107E-02 -4.18327E-02
  -4.26223E-02 -4.45423E-02 -4.39955E-02 -4.47316E-02 -4.29543E-02 -4.24901E-02 -3.95601E-02 -3.78612E-02 -3.39547E-02 -3.09681E-02
  -2.61566E-02 -2.18818E-02 -1.60968E-02 -1.04528E-02 -3.64802E-03  3.40824E-03  1.12022E-02  1.95328E-02  2.82113E-02  3.75607E-02
   4.68921E-02  5.69387E-02  6.65169E-02  7.67798E-02  8.60067E-02  9.58147E-02  1.03954E-01  1.12693E-01  1.19016E-01  1.26098E-01
   1.29914E-01  1.34768E-01  1.35596E-01  1.37865E-01  1.35616E-01  1.35154E-01  1.30038E-01  1.26869E-01  1.19400E-01  1.13767E-01
   1.04675E-01  9.71399E-02  8.72132E-02  7.83809E-02  6.84760E-02  5.90121E-02  4.98817E-02  4.05609E-02  3.27653E-02  2.42943E-02
   1.82300E-02  1.11763E-02  7.10308E-03  1.86809E-03 -2.01531E-04 -3.36298E-03 -3.59923E-03 -4.74170E-03 -3.49787E-03 -2.89955E-03
  -5.41526E-04  1.45754E-03  4.40637E-03  7.30557E-03  1.03588E-02  1.36271E-02  1.63905E-02  1.95509E-02  2.15980E-02  2.42756E-02
   2.52955E-02  2.71765E-02  2.69344E-02  2.77743E-02  2.62901E-02  2.60176E-02  2.35335E-02  2.20900E-02  1.88793E-02  1.64082E-02
   1.26465E-02  9.35532E-03  5.18667E-03  1.29517E-03 -3.15157E-03 -7.52064E-03 -1.21905E-02 -1.70604E-02 -2.20827E-02 -2.74950E-02
  -3.31130E-02 -3.93163E-02 -4.59540E-02 -5.31347E-02 -6.12478E-02 -6.95641E-02 -7.95880E-02 -8.91246E-02 -1.01102E-01 -1.11780E-01
  -1.25493E-01 -1.36998E-01 -1.51795E-01 -1.63513E-01 -1.78437E-01 -1.89624E-01 -2.03648E-01 -2.13533E-01 -2.25575E-01 -2.33409E-01
  -2.42601E-01 -2.47807E-01 -2.53558E-01 -2.55783E-01 -2.57890E-01 -2.57036E-01 -2.55584E-01 -2.51775E-01 -2.46993E-01 -2.40554E-01
  -2.32979E-01 -2.24377E-01 -2.14663E-01 -2.04368E-01 -1.93096E-01 -1.81851E-01 -1.69531E-01 -1.57998E-01 -1.45193E-01 -1.33856E-01
  -1.21108E-01 -1.10291E-01 -9.79850E-02 -8.79226E-02 -7.64679E-02 -6.73256E-02 -5.69269E-02 -4.88271E-02 -3.97196E-02 -3.26921E-02
  -2.49802E-02 -1.90042E-02 -1.26632E-02 -7.60505E-03 -2.52725E-03  1.71456E-03  5.76760E-03  9.34872E-03  1.25070E-02  1.55761E-02
   1.80466E-02  2.06071E-02  2.26058E-02  2.46529E-02  2.63071E-02  2.79530E-02  2.93053E-02  3.05804E-02  3.17368E-02  3.26392E-02
   3.36311E-02  3.42895E-02  3.51089E-02  3.55988E-02  3.62294E-02  3.65581E-02  3.69785E-02  3.72289E-02  3.74193E-02  3.76510E-02
   3.76384E-02  3.79941E-02  3.78540E-02  3.84370E-02  3.82583E-02  3.90932E-02  3.89809E-02  4.00185E-02  4.01746E-02  4.12851E-02
   4.18575E-02  4.29632E-02  4.40111E-02  4.50126E-02  4.66048E-02  4.73782E-02  4.95216E-02  4.99996E-02  5.26940E-02  5.28622E-02
   5.60451E-02  5.59640E-02  5.95411E-02  5.94389E-02  6.31942E-02  6.33086E-02  6.70988E-02  6.75818E-02  7.12054E-02  7.20621E-02
   7.54487E-02  7.67663E-02  7.98918E-02  8.15509E-02  8.43999E-02  8.63760E-02  8.90032E-02  9.12335E-02  9.37477E-02  9.61865E-02
   9.86987E-02  1.01323E-01  1.03819E-01  1.06596E-01  1.09229E-01  1.12275E-01  1.15154E-01  1.18628E-01  1.21822E-01  1.25795E-01
   1.29358E-01  1.33986E-01  1.37992E-01  1.43523E-01  1.47959E-01  1.54497E-01  1.59325E-01  1.66881E-01  1.72188E-01  1.80779E-01
   1.86709E-01  1.96301E-01  2.03072E-01  2.13742E-01
 NY background values follow
     6.217E-02    6.182E-02    6.147E-02    6.112E-02    6.077E-02    6.042E-02    6.006E-02    5.971E-02    5.936E-02    5.901E-02
     5.866E-02    5.831E-02    5.795E-02    5.760E-02    5.725E-02    5.690E-02    5.655E-02    5.619E-02    5.584E-02    5.549E-02
     5.514E-02    5.479E-02    5.443E-02    5.408E-02    5.373E-02    5.338E-02    5.303E-02    5.267E-02    5.232E-02    5.197E-02
     5.162E-02    5.126E-02    5.091E-02    5.056E-02    5.021E-02    4.986E-02    4.950E-02    4.915E-02    4.880E-02    4.845E-02
     4.809E-02    4.774E-02    4.739E-02    4.704E-02    4.668E-02    4.633E-02    4.598E-02    4.563E-02    4.528E-02    4.492E-02
     4.457E-02    4.422E-02    4.387E-02    4.351E-02    4.316E-02    4.281E-02    4.246E-02    4.210E-02    4.175E-02    4.140E-02
     4.104E-02    4.069E-02    4.034E-02    3.999E-02    3.963E-02    3.928E-02    3.893E-02    3.858E-02    3.822E-02    3.787E-02
