 
 $NMID
 ID=''
 FMTDAT='(2E13.5)'
 TRAMP=   1.00000E+0
 VOLUME=   1.00000E+0
 $END
  -7.46124E+3   1.81737E+4
  -3.18099E+4   3.94493E+4
  -2.42668E+4   4.43531E+4
  -2.21658E+4   4.10242E+4
  -2.41489E+4   4.20309E+4
  -2.21175E+4   4.31286E+4
  -2.14539E+4   4.11269E+4
  -2.23826E+4   4.10980E+4
  -2.10740E+4   4.15317E+4
  -2.08064E+4   4.01194E+4
  -2.14017E+4   3.99350E+4
  -2.04583E+4   4.00849E+4
  -2.00050E+4   3.93467E+4
  -2.06666E+4   3.92377E+4
  -2.00274E+4   3.93690E+4
  -1.95876E+4   3.87144E+4
  -1.98243E+4   3.86167E+4
  -1.92998E+4   3.87071E+4
  -1.87563E+4   3.82315E+4
  -1.90036E+4   3.80483E+4
  -1.84564E+4   3.79602E+4
  -1.79550E+4   3.76409E+4
  -1.80557E+4   3.76292E+4
  -1.77364E+4   3.76623E+4
  -1.73847E+4   3.72408E+4
  -1.72793E+4   3.71370E+4
  -1.70671E+4   3.71563E+4
  -1.68953E+4   3.66060E+4
  -1.69190E+4   3.63758E+4
  -1.66100E+4   3.62684E+4
  -1.62527E+4   3.58811E+4
  -1.62321E+4   3.57257E+4
  -1.60360E+4   3.55210E+4
  -1.58607E+4   3.51490E+4
  -1.56907E+4   3.49582E+4
  -1.53583E+4   3.48320E+4
  -1.51298E+4   3.44436E+4
  -1.50212E+4   3.43038E+4
  -1.46128E+4   3.41827E+4
  -1.44176E+4   3.39674E+4
  -1.42817E+4   3.38992E+4
  -1.41971E+4   3.38090E+4
  -1.40818E+4   3.34056E+4
  -1.38881E+4   3.32973E+4
  -1.37292E+4   3.32025E+4
  -1.35818E+4   3.30536E+4
  -1.34219E+4   3.28763E+4
  -1.34178E+4   3.27289E+4
  -1.32650E+4   3.25413E+4
  -1.31434E+4   3.23179E+4
  -1.30392E+4   3.22224E+4
  -1.29676E+4   3.19441E+4
  -1.26713E+4   3.17675E+4
  -1.25013E+4   3.16249E+4
  -1.24084E+4   3.14768E+4
  -1.23390E+4   3.12738E+4
  -1.21338E+4   3.11339E+4
  -1.20882E+4   3.08950E+4
  -1.20090E+4   3.06820E+4
  -1.18052E+4   3.03637E+4
  -1.15496E+4   3.02124E+4
  -1.14521E+4   2.99540E+4
  -1.12550E+4   2.98062E+4
  -1.11206E+4   2.96852E+4
  -1.10586E+4   2.93499E+4
  -1.08652E+4   2.91910E+4
  -1.07465E+4   2.90250E+4
  -1.06222E+4   2.87548E+4
  -1.04964E+4   2.84946E+4
  -1.03582E+4   2.82631E+4
  -1.02174E+4   2.79864E+4
  -1.00446E+4   2.77797E+4
  -9.92977E+3   2.75601E+4
  -9.74932E+3   2.72334E+4
  -9.49582E+3   2.70042E+4
  -9.29091E+3   2.68249E+4
  -9.11447E+3   2.65814E+4
  -8.96418E+3   2.63708E+4
  -8.78823E+3   2.61998E+4
  -8.58518E+3   2.59266E+4
  -8.32244E+3   2.57275E+4
  -8.18300E+3   2.54718E+4
  -7.99857E+3   2.53497E+4
  -7.85145E+3   2.50764E+4
  -7.70082E+3   2.48813E+4
  -7.53902E+3   2.47077E+4
  -7.39340E+3   2.44454E+4
  -7.19537E+3   2.41928E+4
  -6.98321E+3   2.40003E+4
  -6.76738E+3   2.38433E+4
  -6.54854E+3   2.36686E+4
  -6.42347E+3   2.34912E+4
  -6.12875E+3   2.33476E+4
  -5.94893E+3   2.31259E+4
  -5.76246E+3   2.29653E+4
  -5.55916E+3   2.27583E+4
  -5.35432E+3   2.25851E+4
  -5.11518E+3   2.25204E+4
  -4.95933E+3   2.23015E+4
  -4.80579E+3   2.21759E+4
  -4.60860E+3   2.19866E+4
  -4.30813E+3   2.17983E+4
  -4.12881E+3   2.17091E+4
  -3.96560E+3   2.15722E+4
  -3.76344E+3   2.14178E+4
  -3.56325E+3   2.12741E+4
  -3.35269E+3   2.11003E+4
  -3.24632E+3   2.09962E+4
  -3.03063E+3   2.08145E+4
  -2.88363E+3   2.06141E+4
  -2.66178E+3   2.05682E+4
  -2.45727E+3   2.03655E+4
  -2.32626E+3   2.02035E+4
  -2.18841E+3   2.01101E+4
  -2.05982E+3   1.99942E+4
  -1.91529E+3   1.98396E+4
  -1.73286E+3   1.97521E+4
  -1.63730E+3   1.96233E+4
  -1.53679E+3   1.94550E+4
  -1.39483E+3   1.93462E+4
  -1.25881E+3   1.91419E+4
  -1.09992E+3   1.90576E+4
  -1.07017E+3   1.88713E+4
  -9.06784E+2   1.86909E+4
  -7.97728E+2   1.86108E+4
  -6.87104E+2   1.84109E+4
  -6.26605E+2   1.82660E+4
  -5.35592E+2   1.80938E+4
  -3.91854E+2   1.79104E+4
  -3.47048E+2   1.78455E+4
  -2.46029E+2   1.76626E+4
  -1.38706E+2   1.74463E+4
  -6.24460E+1   1.72670E+4
   8.12390E+1   1.71859E+4
   1.42219E+2   1.70386E+4
   2.33401E+2   1.69320E+4
   2.76372E+2   1.66929E+4
   3.25522E+2   1.65393E+4
   4.79157E+2   1.63944E+4
   5.46267E+2   1.62032E+4
   5.74010E+2   1.59787E+4
   6.87964E+2   1.58889E+4
   7.11930E+2   1.56793E+4
   8.28007E+2   1.55229E+4
   8.80353E+2   1.53718E+4
   8.95620E+2   1.50982E+4
   1.05460E+3   1.50823E+4
   1.06888E+3   1.48786E+4
   1.09583E+3   1.47128E+4
   1.21469E+3   1.44850E+4
   1.22194E+3   1.43653E+4
   1.27702E+3   1.41422E+4
   1.38352E+3   1.39629E+4
   1.50608E+3   1.37326E+4
   1.57003E+3   1.36209E+4
   1.61129E+3   1.34320E+4
   1.71037E+3   1.33277E+4
   1.79767E+3   1.31814E+4
   1.77542E+3   1.30490E+4
   1.86536E+3   1.28137E+4
   1.92583E+3   1.26337E+4
   2.08296E+3   1.25289E+4
   2.14900E+3   1.23345E+4
   2.19783E+3   1.21368E+4
   2.28392E+3   1.20550E+4
   2.28684E+3   1.19374E+4
   2.33785E+3   1.17623E+4
   2.44154E+3   1.15284E+4
   2.55277E+3   1.14152E+4
   2.54710E+3   1.12673E+4
   2.69876E+3   1.11537E+4
   2.71532E+3   1.09758E+4
   2.75984E+3   1.09159E+4
   2.80826E+3   1.07071E+4
   2.82593E+3   1.05645E+4
   2.95768E+3   1.04954E+4
   3.00653E+3   1.03557E+4
   3.07152E+3   1.02485E+4
   3.13557E+3   1.01383E+4
   3.19692E+3   1.00068E+4
   3.20679E+3   9.86830E+3
   3.24370E+3   9.68872E+3
   3.32682E+3   9.59487E+3
   3.35712E+3   9.48446E+3
   3.39673E+3   9.43445E+3
   3.42335E+3   9.27233E+3
   3.50226E+3   9.11566E+3
   3.52640E+3   9.06183E+3
   3.51033E+3   8.94592E+3
   3.49684E+3   8.82904E+3
   3.72867E+3   8.72801E+3
   3.51810E+3   8.58521E+3
   3.60732E+3   8.53602E+3
   3.65193E+3   8.41872E+3
   3.69124E+3   8.27797E+3
   3.72809E+3   8.16928E+3
   3.79579E+3   8.11219E+3
   3.83551E+3   8.01501E+3
   3.89478E+3   7.88261E+3
   3.92522E+3   7.80026E+3
   3.98982E+3   7.69045E+3
   3.94352E+3   7.65300E+3
   3.97403E+3   7.52051E+3
   3.98445E+3   7.45545E+3
   4.02502E+3   7.28339E+3
   4.08200E+3   7.21773E+3
   4.10251E+3   7.10802E+3
   4.10679E+3   7.06051E+3
   4.08383E+3   6.89575E+3
   4.07690E+3   6.84800E+3
   4.18039E+3   6.88820E+3
   4.17665E+3   6.69253E+3
   4.19332E+3   6.65678E+3
   4.20623E+3   6.54880E+3
   4.21097E+3   6.49152E+3
   4.25313E+3   6.41931E+3
   4.26232E+3   6.26187E+3
   4.23251E+3   6.16193E+3
   4.21056E+3   6.16611E+3
   4.22821E+3   6.02916E+3
   4.36741E+3   6.03284E+3
   4.29070E+3   5.95773E+3
   4.29057E+3   5.89002E+3
   4.25180E+3   5.74814E+3
   4.30724E+3   5.68709E+3
   4.32103E+3   5.65514E+3
   4.33509E+3   5.54028E+3
   4.36100E+3   5.49394E+3
   4.33935E+3   5.45055E+3
   4.28523E+3   5.40160E+3
   4.38511E+3   5.23264E+3
   4.32529E+3   5.26086E+3
   4.32269E+3   5.14900E+3
   4.33288E+3   5.09194E+3
   4.32774E+3   5.11983E+3
   4.30703E+3   4.98940E+3
   4.33661E+3   4.92008E+3
   4.33395E+3   4.90171E+3
   4.24396E+3   4.90155E+3
   4.29772E+3   4.81043E+3
   4.27653E+3   4.71151E+3
   4.30442E+3   4.66842E+3
   4.35589E+3   4.60443E+3
   4.30697E+3   4.59767E+3
   4.26183E+3   4.55353E+3
   4.23158E+3   4.49674E+3
   4.24877E+3   4.43079E+3
   4.27881E+3   4.38032E+3
   4.21468E+3   4.31665E+3
   4.24791E+3   4.25071E+3
   4.17730E+3   4.31245E+3
   4.23539E+3   4.10615E+3
   4.17722E+3   4.14593E+3
   4.14230E+3   4.14166E+3
   4.16266E+3   4.08568E+3
   4.10982E+3   4.02282E+3
   4.09897E+3   3.97611E+3
   4.14542E+3   3.93781E+3
   4.15453E+3   3.81349E+3
   4.06206E+3   3.80356E+3
   4.06113E+3   3.75421E+3
   4.08758E+3   3.68997E+3
   4.04134E+3   3.62650E+3
   3.99842E+3   3.61756E+3
   4.07724E+3   3.62862E+3
   4.03092E+3   3.51266E+3
   3.97816E+3   3.57601E+3
   3.92975E+3   3.49053E+3
   3.93564E+3   3.39172E+3
   3.93495E+3   3.41121E+3
   3.92020E+3   3.37495E+3
   3.82522E+3   3.39599E+3
   3.88258E+3   3.30043E+3
   3.88220E+3   3.25549E+3
   3.88114E+3   3.18230E+3
   3.85448E+3   3.17998E+3
   3.81166E+3   3.14816E+3
   3.82360E+3   3.07932E+3
   3.73683E+3   3.09506E+3
   3.73185E+3   3.07879E+3
   3.72861E+3   3.03420E+3
   3.70670E+3   2.99113E+3
   3.65257E+3   2.91150E+3
   3.67842E+3   2.90526E+3
   3.59354E+3   2.92726E+3
   3.64625E+3   2.82058E+3
   3.61487E+3   2.77917E+3
   3.51248E+3   2.75654E+3
   3.53961E+3   2.75876E+3
   3.54655E+3   2.70411E+3
   3.51181E+3   2.59535E+3
   3.51384E+3   2.68467E+3
   3.54896E+3   2.60682E+3
   3.50149E+3   2.59003E+3
   3.45612E+3   2.58201E+3
   3.44237E+3   2.53078E+3
   3.39767E+3   2.54834E+3
   3.42412E+3   2.51456E+3
   3.36086E+3   2.39850E+3
   3.33326E+3   2.39865E+3
   3.40497E+3   2.41440E+3
   3.35424E+3   2.37595E+3
   3.38215E+3   2.41117E+3
   3.33551E+3   2.38327E+3
   3.28520E+3   2.33228E+3
   3.21501E+3   2.31476E+3
   3.24140E+3   2.31025E+3
   3.22948E+3   2.22275E+3
   3.21816E+3   2.28794E+3
   3.16511E+3   2.22941E+3
   3.14711E+3   2.22488E+3
   3.07761E+3   2.23201E+3
   3.09358E+3   2.30371E+3
   3.09316E+3   2.18745E+3
   3.07391E+3   2.13154E+3
   3.02605E+3   2.16581E+3
   2.99440E+3   2.11027E+3
   3.05569E+3   2.16308E+3
   2.97727E+3   2.07832E+3
   2.90238E+3   2.04765E+3
   2.92384E+3   2.01471E+3
   2.90990E+3   2.08375E+3
   2.88403E+3   2.04499E+3
   2.88745E+3   2.00007E+3
   2.89341E+3   1.99403E+3
   2.90242E+3   2.00386E+3
   2.82854E+3   1.94311E+3
   2.79274E+3   1.92716E+3
   2.71886E+3   1.93809E+3
   2.80545E+3   1.95743E+3
   2.75267E+3   1.94730E+3
   2.71410E+3   1.93543E+3
   2.68284E+3   1.87799E+3
   2.64379E+3   1.90337E+3
   2.63805E+3   1.87977E+3
   2.67382E+3   1.85749E+3
   2.61460E+3   1.81984E+3
   2.59168E+3   1.80796E+3
   2.64707E+3   1.81420E+3
   2.58340E+3   1.80130E+3
   2.59117E+3   1.76065E+3
   2.59385E+3   1.79474E+3
   2.55566E+3   1.72741E+3
   2.54361E+3   1.74177E+3
   2.46779E+3   1.73513E+3
   2.52576E+3   1.67510E+3
   2.47791E+3   1.71020E+3
   2.45399E+3   1.69464E+3
   2.44202E+3   1.67623E+3
   2.42503E+3   1.66790E+3
   2.38550E+3   1.65792E+3
   2.45810E+3   1.64088E+3
   2.40046E+3   1.64683E+3
   2.36292E+3   1.59254E+3
   2.39622E+3   1.60334E+3
   2.30709E+3   1.58745E+3
   2.26575E+3   1.58832E+3
   2.27573E+3   1.58417E+3
   2.29176E+3   1.54430E+3
   2.21924E+3   1.57973E+3
   2.28111E+3   1.49210E+3
   2.25015E+3   1.50918E+3
   2.19473E+3   1.46198E+3
   2.22362E+3   1.52993E+3
   2.22489E+3   1.50221E+3
   2.21548E+3   1.50720E+3
   2.15183E+3   1.42317E+3
