 
 $NMID
 ID=''
 FMTDAT='(2E13.5)'
 TRAMP=   1.00000E+0
 VOLUME=   1.00000E+0
 $END
  -1.09044E+1  -3.89468E+2
   1.18010E+3   3.11132E+2
  -1.08989E+3  -1.83473E+3
   4.08727E+2   2.60613E+2
  -5.83862E+2  -1.63272E+3
  -5.14102E+2  -4.14875E+2
  -6.54350E+2  -3.01899E+2
  -2.94142E+2  -5.64927E+2
  -1.45807E+3   7.46955E+2
  -2.35323E+3  -2.82193E+1
   5.17949E+2   5.34271E+2
   7.11769E+2  -2.11625E+3
   3.76528E+2  -5.12961E+2
   8.60720E+2   2.16564E+3
  -1.21110E+3   8.73906E+2
  -1.05025E+3  -1.83773E+3
  -7.84100E+1  -7.64397E+0
   1.76961E+3   3.67663E+2
   4.32800E+2   1.10415E+3
  -6.13014E+2  -1.63524E+3
  -4.82006E+2  -1.85301E+3
   3.53010E+3  -8.60257E+2
   1.33584E+3   1.60482E+3
  -3.10571E+3   7.12053E+2
  -4.29711E+3  -4.21830E+3
   2.67125E+3  -4.60842E+2
   9.71009E+2   3.35720E+3
  -1.65134E+3   1.77907E+3
  -5.02132E+3   1.41285E+3
  -1.36304E+3  -2.50727E+3
   3.96369E+3  -2.18127E+3
   2.99011E+3   4.15234E+3
  -9.52780E+2   4.08352E+3
  -2.03548E+3  -2.00468E+3
   5.62081E+2  -7.33312E+2
  -3.19778E+3   1.50262E+2
  -2.73880E+3   7.98080E+2
  -9.52648E+2  -1.25333E+3
   1.47644E+3  -1.96069E+3
  -2.23967E+2  -2.58357E+2
   2.45309E+3   2.34318E+3
   9.44879E+2   3.73803E+3
  -3.01862E+3   1.19501E+3
  -1.32669E+3  -1.72895E+3
   3.28645E+2  -1.56950E+3
   1.77287E+3  -1.56226E+3
   4.88302E+2  -6.65474E+2
   1.78348E+3   1.31580E+2
   1.79022E+3   2.76987E+2
   2.00392E+3   2.49821E+1
   1.11694E+3   9.22461E+2
  -1.59461E+3   1.04051E+3
  -1.17259E+3  -1.32225E+3
   1.89257E+3  -2.98239E+3
   3.04622E+2  -4.46078E+2
   1.28650E+3  -1.23222E+3
   2.18522E+3   1.32363E+3
   1.73771E+3   3.28173E+3
  -6.38807E+2   4.61032E+3
  -2.09205E+3   1.86660E+3
  -2.30602E+3   2.37086E+2
   6.38918E+2  -8.11291E+2
   1.01310E+3  -2.59972E+2
   2.13491E+3   1.70164E+3
   1.19189E+2   1.37341E+3
  -1.97911E+3  -7.77711E+2
   2.99211E+3  -2.53087E+3
   1.17051E+3   1.17692E+3
  -1.35913E+3   5.96093E+2
  -1.58337E+3  -1.08542E+3
   1.28103E+3  -2.07310E+3
   1.60821E+3  -3.18965E+2
  -2.19682E+1  -1.73838E+3
   2.29534E+2  -1.22494E+2
  -1.34083E+3  -1.34579E+3
   4.36661E+2  -1.38493E+3
   4.72532E+2  -3.34152E+2
  -1.17845E+3   6.08297E+2
  -2.88601E+2  -1.07992E+3
   5.42280E+2  -6.63644E+2
  -8.35252E+2   5.14781E+2
   5.57097E+2   1.42909E+3
  -2.36593E+2   4.02556E+2
  -1.05272E+3   5.85431E+2
  -5.29093E+2   5.51936E+2
   1.47139E+3   1.13919E+2
  -1.77145E+3  -7.60673E+2
  -3.57536E+2  -2.07513E+3
  -1.37593E+3  -2.79127E+3
  -1.88409E+2  -1.01636E+3
   5.58681E+2  -2.06164E+2
  -1.33122E+3  -1.09036E+3
   1.02875E+2  -9.01361E+2
   5.84449E+2   1.37213E+3
   1.50097E+3   5.59192E+2
  -1.63852E+3   2.08653E+3
  -1.17017E+3  -8.15528E+2
   2.17361E+2  -9.26048E+2
  -1.34311E+3   2.07735E+2
   7.07743E+2   4.11378E+2
  -8.13710E+2   1.20904E+3
  -1.10634E+3  -1.45763E+3
   7.95991E+2   1.21190E+2
   1.93355E+3   2.07516E+3
   3.47551E+2  -1.98083E+2
   3.21032E+2  -1.83795E+3
  -5.16185E+2   5.71400E+2
  -1.99689E+3  -5.65133E+2
  -5.03815E+2   6.55284E+2
  -2.26689E+3   5.31548E+2
   1.08305E+3  -1.20690E+2
   1.78354E+2   3.66379E+2
  -1.77633E+2  -1.21351E+2
   1.85887E+3   5.65868E+2
  -6.22753E+1   7.29678E+2
   5.45886E+2   6.11317E+2
  -5.22209E+2  -1.52402E+3
   3.11514E+1  -2.16661E+2
   7.11593E+2  -3.07445E+2
   7.12437E+2   6.30160E+1
   1.15101E+3   3.63649E+2
  -2.27472E+2   2.26070E+3
  -2.08901E+2   1.41354E+3
  -5.29686E+2  -2.64581E+2
  -2.29454E+3   1.36034E+3
  -7.00640E+2   1.23040E+3
  -5.97221E+2  -9.21568E+2
   1.14044E+3   6.38944E+2
  -1.24763E+3  -2.12393E+2
  -2.09919E+3  -2.37257E+3
   5.25343E+2   1.02174E+3
  -4.31117E+2   4.43875E+2
   2.83666E+2   2.08357E+2
   4.27732E+1  -3.18733E+2
   8.02231E+2   8.07160E+2
  -1.11833E+3  -1.42294E+2
  -1.10908E+3   9.47698E+2
   7.79641E+2  -1.50865E+3
  -1.54076E+3  -6.68486E+2
  -1.49860E+2   1.31631E+3
  -1.37337E+3  -9.28169E+1
   1.68706E+3  -8.94111E+2
  -5.26242E+2   1.96459E+3
   2.64680E+2   6.05916E+2
   1.33034E+3   1.25670E+3
  -6.81465E+2  -6.29249E+2
   7.40435E+2  -4.38737E+2
  -1.32645E+3   3.79642E+2
  -2.39874E+2  -1.60932E+3
   4.86628E+2  -8.87281E+2
  -1.72704E+3   1.57820E+3
   8.87494E+2  -8.32828E+2
   6.37621E+2  -4.40091E+2
   4.61504E+2  -6.93601E+2
   1.39370E+3   9.87668E+2
   4.99246E+2   9.61200E+2
   1.44464E+3  -7.33901E+2
  -2.62840E+2  -2.15690E+2
   4.84275E+2   2.50557E+3
  -8.90427E+0  -5.99595E+2
   2.36043E+3   9.21776E+2
  -8.01893E+2  -1.85137E+3
   2.41012E+3   4.93475E+2
  -2.84069E+2   1.29589E+2
   7.34591E+2   2.40220E+2
  -9.91387E+2  -3.42162E+2
  -5.45614E+2   1.39480E+3
  -1.10301E+3   3.86936E+2
  -8.62531E+2   1.68064E+2
   1.91179E+3   2.57588E+2
   1.18115E+3  -4.43642E+2
  -1.34221E+3  -5.64934E+2
  -2.37011E+2   1.57416E+3
  -4.92782E+2  -1.19945E+3
   3.52090E+3  -2.14545E+3
   4.02041E+0  -1.59217E+3
   7.85811E+2  -9.82841E+2
   2.79405E+2   4.37324E+2
   6.32746E+2   2.50720E+2
   7.68599E+2  -1.16238E+3
   2.73211E+0   1.82483E+2
  -7.78880E+2  -1.14542E+3
   1.83600E+2   1.13907E+3
  -7.70946E+2   1.09817E+3
   8.09054E+2  -1.19326E+3
   2.69237E+2  -2.14599E+2
  -7.90082E+2   6.04365E+2
  -7.81028E+2  -4.82140E+2
  -1.84119E+3  -4.54723E+2
  -4.24547E+2  -6.25800E+2
   1.04262E+3   4.42302E+2
   2.53103E+2   6.02066E+2
  -4.56365E+1  -1.18809E+3
  -7.12168E+2  -4.61463E+2
   5.85004E+2   1.00745E+3
  -7.94631E+2   2.39919E+3
  -2.13256E+3   5.30945E+2
  -3.39790E+2  -9.42037E+2
  -5.74475E+2  -9.91351E+2
   1.42983E+3  -1.91159E+3
  -4.04730E+2  -1.12537E+3
   5.25002E+2   4.66325E+2
   1.42600E+3  -2.34633E+3
   1.02929E+3   9.72015E+2
   1.30000E+3  -1.75604E+3
   2.91028E+2  -8.65017E+2
  -2.27114E+3   4.75543E+1
   2.06148E+1  -1.22737E+3
  -1.33374E+2  -3.66076E+1
   1.91663E+2  -7.21172E+2
  -2.12853E+2   1.49041E+3
  -5.20009E+2  -1.95963E+3
   1.27230E+2  -8.42141E+2
   2.03041E+2  -7.54181E+2
  -9.98928E+2  -1.19525E+3
   5.13177E+2   1.38844E+2
  -1.02388E+3   1.82351E+3
  -4.65251E+2  -2.20644E+2
   3.13437E+2  -3.80354E+2
  -8.08583E+1   1.11725E+3
   2.71427E+3  -5.07921E+2
  -6.58346E+2  -2.77565E+2
   5.05351E+0  -3.88659E+2
  -6.53922E+2   1.59011E+3
   7.92212E+2  -3.10803E+2
   2.26539E+3   8.63860E+2
  -8.83414E+2   8.13964E+2
   4.15486E+2   2.97948E+2
  -8.31036E+2   2.17201E+2
  -1.73340E+3   2.38331E+3
  -1.00048E+3   1.05182E+3
  -3.15268E+1   1.36063E+3
  -1.64868E+2   4.75704E+2
   1.11499E+2   3.96051E+2
   1.71752E+3  -1.94608E+2
   8.67409E+2   2.71804E+2
  -1.86657E+3  -8.12932E+2
  -3.52531E+2   1.01626E+3
   2.44826E+2  -6.26919E+2
   3.52699E+2   8.42925E+2
  -2.95856E+2   6.96390E+2
   1.50899E+3  -1.26565E+3
   4.47343E+2  -7.67751E+2
  -7.62622E+2   1.16957E+3
  -8.01068E+2  -4.39302E+2
  -2.68813E+2   1.65960E+3
  -2.10730E+2  -2.38107E+2
   3.74239E+1   1.22479E+3
   1.18173E+3  -2.55280E+2
   1.01921E+3   6.12998E+1
   3.97311E+2   6.38638E+2
  -3.41888E+2  -1.26094E+2
  -7.56794E+2   5.90180E+2
   3.41018E+2   1.94265E+3
   6.58365E+2   1.63022E+3
  -5.56377E+2  -1.53780E+3
  -8.99030E+2   7.01113E+2
  -9.86415E+1   3.61325E+2
   1.02788E+3   3.21588E+2
  -4.29651E+2   3.17366E+2
   1.99961E+3   1.10213E+3
   1.41426E+3   8.18284E+2
  -2.21570E+2   3.83461E+1
  -1.95312E+2   9.77316E+2
   1.45564E+2  -3.04362E+1
   2.76083E+2   3.24496E+2
  -2.28587E+2  -3.02032E+2
  -1.00364E+3   4.47519E+1
  -4.34224E+2   9.98193E+2
  -7.16896E+1   1.24053E+3
   2.66732E+3   4.68958E+2
   1.15393E+2   1.23355E+3
   3.86887E+2  -6.39034E+2
  -4.31137E+2   1.49941E+3
   3.21281E+2   6.50754E+0
  -1.45272E+3   3.45646E+2
  -1.90630E+2   8.55516E+2
   6.27046E+2  -1.07623E+3
  -9.68790E+2  -2.36084E+2
   8.83581E+2  -1.11694E+2
   2.05455E+3   5.68905E+2
  -6.71074E+2   7.49315E+2
   2.28011E+3  -1.67513E+3
  -5.80472E+2  -4.37906E+1
   4.75262E+2  -1.36616E+3
   5.71887E+2  -8.08195E+2
  -1.16173E+3   1.63580E+3
   1.65311E+3   5.93794E+2
  -9.58377E+2   1.45641E+3
  -7.67294E+2   7.26889E+2
  -1.39254E+3  -1.08330E+2
  -1.18024E+2   1.27333E+3
   1.27768E+2   7.15815E+2
   1.10423E+3   1.00662E+3
   1.36376E+3   1.00765E+3
  -8.81964E+2   9.83303E+2
  -1.43936E+2   1.14203E+2
   5.58621E+2  -7.72870E+2
   7.75409E+2  -2.57782E+2
   1.14330E+2  -5.44066E+2
  -6.60142E+2  -2.97536E+2
   5.36075E+2   1.52439E+3
   4.40710E+2   3.80886E+2
   9.24657E+1   1.01958E+3
  -1.89194E+3   1.45208E+3
   4.92434E+2  -4.52088E+2
  -8.42263E+2   3.96642E+2
  -3.99894E+0   6.16070E+2
  -1.47502E+1   1.09719E+2
  -1.79056E+3  -1.53973E+3
   1.00922E+3   1.05865E+3
  -1.46289E+3  -6.27917E+2
   1.63905E+3   6.65658E+2
  -4.08702E+2  -1.04290E+3
   5.89338E+1  -2.11532E+3
  -2.08897E+3   2.35807E+2
   1.31136E+3  -2.63248E+2
  -1.03620E+3  -9.66855E+2
   8.14336E+2   8.02566E+2
   5.35182E+1  -2.65306E+3
   6.49158E+2  -1.18649E+2
   1.91262E+3   7.81251E+2
  -7.89419E+2  -7.11321E+2
  -1.29115E+3   3.65538E+1
   5.77121E+2   1.50298E+3
  -4.27232E+2  -1.50993E+3
  -3.14784E+2  -1.03024E+3
  -3.94302E+2   1.18918E+2
   1.02735E+3   2.70835E+3
  -1.39896E+2   2.57282E+3
   1.25636E+3  -2.27262E+2
  -8.38464E+2  -1.64622E+3
   7.16621E+2  -8.86385E+2
  -1.07332E+3  -1.27255E+3
   1.15185E+3  -5.68441E+2
  -1.32302E+3  -3.93846E+2
  -6.42742E+2   6.29813E+2
  -8.56918E+2   5.58929E+2
   3.33845E+2  -6.34612E+2
  -3.07857E+2   4.68582E+2
  -2.04358E+3   1.70976E+2
  -5.23348E+2  -2.83948E+3
  -1.35382E+3   1.60792E+3
   9.77209E+2  -1.76825E+3
  -1.64607E+3  -7.24823E+2
   9.61642E+2   1.54691E+3
   2.15585E+2   2.41189E+2
  -1.64022E+2  -8.96858E+2
  -1.32592E+3  -7.04577E+2
  -6.08876E+2  -8.55902E+2
  -6.96756E+2  -1.28915E+3
  -1.58550E+3  -1.83085E+3
  -9.57874E+0  -6.14209E+2
   1.40835E+3   9.03021E+1
  -2.80789E+2  -9.75499E+2
   2.18579E+3  -1.27649E+3
   9.60502E+2  -1.24562E+3
  -8.40010E+2  -1.61106E+3
  -5.09290E+1  -1.97246E+3
   5.30679E+1   8.92996E+1
   1.31354E+3  -3.35354E+2
  -8.42018E+2  -2.88400E+2
  -1.27827E+3   5.85421E+2
  -1.13628E+3  -9.60370E+1
  -3.05179E+2  -1.13002E+3
   6.39540E+2  -2.03158E+3
  -6.81692E+2   2.85746E+2
