 LCModel (Version 6.3-1N) Copyright: S.W. Provencher.          Ref.: Magn. Reson. Med. 30:672-679 (1993).                
 Slice_N1@18_17  02-Jun-2023 14:36:45
 27 lines in following concentration table = NCONC+1
    Conc.  %SD /Cr+PCr  Metabolite                                         
 1.28E-06  24% 1.6E-04 Mac                                                 
 4.24E-02  21%   5.187 Cr                                                  
 2.30E-02  39%   2.813 PCr                                                 
 6.16E-02  12%   7.538 Ins                                                 
 6.46E-02   8%   7.914 NAA                                                 
 6.22E-02  11%   7.616 Tau                                                 
 1.55E-02  12%   1.902 PCho                                                
    0.000 999%   0.000 GPC                                                 
 5.76E-02  14%   7.050 Glu                                                 
 2.23E-02  28%   2.726 Gln                                                 
    0.000 999%   0.000 Ala                                                 
 7.55E-03 146%   0.925 Asc                                                 
 5.04E-03 126%   0.617 Asp                                                 
 9.27E-03  37%   1.135 GABA                                                
 5.30E-03  78%   0.649 Glc                                                 
 1.16E-02  30%   1.426 GSH                                                 
    0.000 999%   0.000 Lac                                                 
 2.58E-03 171%   0.317 NAAG                                                
    0.000 999%   0.000 PE                                                  
 1.55E-02  12%   1.902 GPC+PCho                                            
 6.72E-02   9%   8.231 NAA+NAAG                                            
 7.98E-02  12%   9.776 Glu+Gln                                             
 6.53E-02   8%   8.000 Cr+PCr                                              
 6.72E-02   9%   8.231 NAA+NAAG                                            
 6.53E-02   8%   8.000 Cr+PCr                                              
 7.98E-02  12%   9.776 Glu+Gln                                             
   6 lines in following misc. output table
  FWHM = 0.023 ppm    S/N =   4                                            
  Data shift = 0.023 ppm                                                   
  Ph: -23 deg     -11.5 deg/ppm                                            
  alphaB,S = 3.1E+01,   1.9E+01                                            
   18 spline knots.   Ns = 5(1)                                            
   2 inflections.     1 extrema                                            
  654 points on ppm-axis = NY
      4.000000     3.994181     3.988363     3.982544     3.976726     3.970907     3.965088     3.959270     3.953451     3.947633
      3.941814     3.935995     3.930177     3.924358     3.918540     3.912721     3.906902     3.901084     3.895265     3.889446
      3.883628     3.877809     3.871991     3.866172     3.860353     3.854535     3.848716     3.842898     3.837079     3.831260
      3.825442     3.819623     3.813805     3.807986     3.802167     3.796349     3.790530     3.784712     3.778893     3.773074
      3.767256     3.761437     3.755619     3.749800     3.743981     3.738163     3.732344     3.726526     3.720707     3.714888
      3.709070     3.703251     3.697433     3.691614     3.685795     3.679977     3.674158     3.668339     3.662521     3.656702
      3.650884     3.645065     3.639246     3.633428     3.627609     3.621791     3.615972     3.610153     3.604335     3.598516
      3.592698     3.586879     3.581060     3.575242     3.569423     3.563605     3.557786     3.551967     3.546149     3.540330
      3.534512     3.528693     3.522874     3.517056     3.511237     3.505419     3.499600     3.493781     3.487963     3.482144
      3.476326     3.470507     3.464688     3.458870     3.453051     3.447232     3.441414     3.435595     3.429777     3.423958
      3.418139     3.412321     3.406502     3.400684     3.394865     3.389046     3.383228     3.377409     3.371591     3.365772
      3.359953     3.354135     3.348316     3.342498     3.336679     3.330860     3.325042     3.319223     3.313405     3.307586
      3.301767     3.295949     3.290130     3.284312     3.278493     3.272674     3.266856     3.261037     3.255219     3.249400
      3.243581     3.237763     3.231944     3.226125     3.220307     3.214488     3.208670     3.202851     3.197032     3.191214
      3.185395     3.179577     3.173758     3.167939     3.162121     3.156302     3.150484     3.144665     3.138846     3.133028
      3.127209     3.121391     3.115572     3.109753     3.103935     3.098116     3.092298     3.086479     3.080660     3.074842
      3.069023     3.063205     3.057386     3.051567     3.045749     3.039930     3.034111     3.028293     3.022474     3.016656
      3.010837     3.005018     2.999200     2.993381     2.987563     2.981744     2.975925     2.970107     2.964288     2.958470
      2.952651     2.946832     2.941014     2.935195     2.929377     2.923558     2.917739     2.911921     2.906102     2.900284
      2.894465     2.888646     2.882828     2.877009     2.871191     2.865372     2.859553     2.853735     2.847916     2.842098
      2.836279     2.830460     2.824642     2.818823     2.813004     2.807186     2.801367     2.795549     2.789730     2.783911
      2.778093     2.772274     2.766456     2.760637     2.754818     2.749000     2.743181     2.737363     2.731544     2.725725
      2.719907     2.714088     2.708270     2.702451     2.696632     2.690814     2.684995     2.679177     2.673358     2.667539
      2.661721     2.655902     2.650084     2.644265     2.638446     2.632628     2.626809     2.620991     2.615172     2.609353
      2.603535     2.597716     2.591897     2.586079     2.580260     2.574442     2.568623     2.562804     2.556986     2.551167
      2.545349     2.539530     2.533711     2.527893     2.522074     2.516256     2.510437     2.504618     2.498800     2.492981
      2.487163     2.481344     2.475525     2.469707     2.463888     2.458070     2.452251     2.446432     2.440614     2.434795
      2.428977     2.423158     2.417339     2.411521     2.405702     2.399884     2.394065     2.388246     2.382428     2.376609
      2.370790     2.364972     2.359153     2.353335     2.347516     2.341697     2.335879     2.330060     2.324242     2.318423
      2.312604     2.306786     2.300967     2.295149     2.289330     2.283511     2.277693     2.271874     2.266056     2.260237
      2.254418     2.248600     2.242781     2.236963     2.231144     2.225325     2.219507     2.213688     2.207870     2.202051
      2.196232     2.190414     2.184595     2.178777     2.172958     2.167139     2.161321     2.155502     2.149683     2.143865
      2.138046     2.132228     2.126409     2.120590     2.114772     2.108953     2.103135     2.097316     2.091497     2.085679
      2.079860     2.074042     2.068223     2.062404     2.056586     2.050767     2.044949     2.039130     2.033311     2.027493
      2.021674     2.015856     2.010037     2.004218     1.998400     1.992581     1.986763     1.980944     1.975126     1.969307
      1.963489     1.957670     1.951852     1.946033     1.940215     1.934397     1.928578     1.922760     1.916941     1.911123
      1.905304     1.899486     1.893667     1.887849     1.882030     1.876212     1.870393     1.864575     1.858756     1.852938
      1.847119     1.841301     1.835482     1.829664     1.823845     1.818027     1.812208     1.806390     1.800571     1.794753
      1.788934     1.783116     1.777297     1.771479     1.765660     1.759842     1.754023     1.748205     1.742386     1.736568
      1.730749     1.724931     1.719113     1.713294     1.707476     1.701657     1.695839     1.690020     1.684202     1.678383
      1.672565     1.666746     1.660928     1.655109     1.649291     1.643472     1.637654     1.631835     1.626017     1.620198
      1.614380     1.608561     1.602743     1.596924     1.591106     1.585287     1.579469     1.573650     1.567832     1.562013
      1.556195     1.550376     1.544558     1.538739     1.532921     1.527102     1.521284     1.515465     1.509647     1.503829
      1.498010     1.492192     1.486373     1.480555     1.474736     1.468918     1.463099     1.457281     1.451462     1.445644
      1.439825     1.434007     1.428188     1.422370     1.416551     1.410733     1.404914     1.399096     1.393277     1.387459
      1.381640     1.375822     1.370003     1.364185     1.358366     1.352548     1.346729     1.340911     1.335092     1.329274
      1.323455     1.317637     1.311818     1.306000     1.300182     1.294363     1.288545     1.282726     1.276908     1.271089
      1.265271     1.259452     1.253634     1.247815     1.241997     1.236178     1.230360     1.224541     1.218723     1.212904
      1.207086     1.201267     1.195449     1.189630     1.183812     1.177993     1.172175     1.166356     1.160538     1.154719
      1.148901     1.143082     1.137264     1.131445     1.125627     1.119808     1.113990     1.108171     1.102353     1.096534
      1.090716     1.084898     1.079079     1.073261     1.067442     1.061624     1.055805     1.049987     1.044168     1.038350
      1.032531     1.026713     1.020894     1.015076     1.009257     1.003439     0.997620     0.991802     0.985983     0.980165
      0.974346     0.968528     0.962709     0.956891     0.951072     0.945254     0.939435     0.933617     0.927798     0.921980
      0.916161     0.910343     0.904524     0.898706     0.892887     0.887069     0.881251     0.875432     0.869614     0.863795
      0.857977     0.852158     0.846340     0.840521     0.834703     0.828884     0.823066     0.817247     0.811429     0.805610
      0.799792     0.793973     0.788155     0.782336     0.776518     0.770699     0.764881     0.759062     0.753244     0.747425
      0.741607     0.735788     0.729970     0.724151     0.718333     0.712514     0.706696     0.700877     0.695059     0.689240
      0.683422     0.677603     0.671785     0.665967     0.660148     0.654330     0.648511     0.642693     0.636874     0.631056
      0.625237     0.619419     0.613600     0.607782     0.601963     0.596145     0.590326     0.584508     0.578689     0.572871
      0.567052     0.561234     0.555415     0.549597     0.543778     0.537960     0.532141     0.526323     0.520504     0.514686
      0.508867     0.503049     0.497230     0.491412     0.485593     0.479775     0.473956     0.468138     0.462319     0.456501
      0.450682     0.444864     0.439045     0.433227     0.427408     0.421590     0.415771     0.409953     0.404134     0.398316
      0.392497     0.386679     0.380860     0.375042     0.369223     0.363405     0.357586     0.351767     0.345949     0.340130
      0.334312     0.328493     0.322675     0.316856     0.311038     0.305219     0.299401     0.293582     0.287764     0.281945
      0.276127     0.270308     0.264490     0.258671     0.252853     0.247034     0.241216     0.235397     0.229579     0.223760
      0.217942     0.212123     0.206305     0.200486
 NY phased data points follow
  -2.85528E-01 -2.83549E-01 -2.64451E-01 -6.39628E-02 -1.65359E-02  1.13816E-01 -1.15671E-01 -1.48646E-01 -4.93386E-02 -4.33751E-02
   3.00045E-01  7.29275E-02  4.51684E-01  3.62684E-01  2.97000E-01  7.31491E-01  3.26312E-01  3.36632E-01  7.16869E-02 -1.57314E-01
  -1.36230E-01  1.51429E-01 -1.19363E-01 -1.47117E-01  1.31502E-01 -1.85338E-01  1.27839E-01 -9.17325E-02  1.43357E-02  5.06738E-02
  -1.46104E-01 -8.58269E-03  7.82764E-02 -1.53096E-01 -2.57721E-01 -1.82255E-01 -4.68173E-01 -3.28520E-01 -5.37218E-01 -2.43650E-01
   1.17188E-01 -4.33596E-03  1.56631E-01  3.75648E-01  2.90778E-01  3.32269E-01  4.53993E-01  1.16932E-01  2.60318E-01  3.44536E-01
   1.46667E-01 -2.96703E-01 -6.16619E-02 -8.19837E-02 -1.23077E-01  2.81213E-01 -1.40663E-01 -1.83274E-01  1.34342E-02 -8.93996E-02
  -4.02535E-01 -2.10591E-01 -3.86303E-01 -2.45007E-01 -8.12140E-02 -9.84830E-02  4.35567E-01  1.06426E-01  2.38829E-02 -8.72896E-02
   1.43716E-01  1.81961E-01  2.31741E-02  1.06101E-01 -2.00521E-01 -3.57633E-02  4.57691E-02 -2.70335E-02 -2.36142E-01 -5.37894E-01
  -2.91578E-01  1.07295E-01  1.44471E-01  1.52390E-01 -6.84937E-03  3.95979E-01  4.77463E-01  3.17746E-01  3.74513E-01 -6.02141E-02
   3.33625E-01  1.54029E-01  7.40790E-02  2.53090E-01 -5.96243E-02  1.27772E-01  2.94122E-02 -2.49244E-01 -2.27804E-01 -2.57932E-01
  -7.25316E-01 -2.08012E-01  2.53619E-01 -9.82702E-02  3.12517E-01  4.59583E-01  4.17892E-01  3.06436E-01  3.51399E-01  4.82578E-01
   3.27558E-01  3.45689E-01  1.73660E-01  3.79868E-01  3.14605E-01  2.61388E-01  4.12356E-01  2.48364E-01  2.55595E-01  1.52027E-01
   2.69433E-01  1.85980E-01  7.25313E-02  5.44233E-02 -1.67273E-01 -4.33645E-02  4.70667E-02 -1.78694E-01 -2.73820E-01 -7.74305E-01
  -3.87633E-01 -1.48663E-01 -5.71543E-01 -1.66842E-01 -3.22045E-01 -3.43548E-01 -7.58687E-01 -8.83597E-01 -9.56410E-01 -6.43082E-01
  -1.04560E-01 -1.18812E-01  3.38526E-01  7.08170E-02  3.23860E-01 -1.28618E-01 -4.28349E-01  1.45271E-01  3.25931E-01 -4.87975E-03
   2.65503E-02  3.50361E-01 -3.03535E-02  3.14077E-01  2.60245E-01  3.06121E-01  2.42701E-01  2.39616E-01  6.68212E-01  4.43016E-01
   2.10491E-01  3.22908E-01  5.81111E-01  5.89780E-01  5.52109E-01  7.81633E-01  8.26041E-01  2.44994E-01 -5.56068E-01 -1.01618E+00
  -6.67088E-01 -7.71799E-01 -3.35342E-01 -1.76350E-01 -4.08023E-01 -1.55202E-01 -4.78462E-01 -1.19157E-01 -1.63861E-01 -3.73426E-01
  -5.09873E-01 -3.92168E-01 -3.06979E-01 -6.21716E-01 -4.10529E-01 -2.59129E-01 -2.18826E-01 -2.79824E-01 -2.50886E-01 -4.27011E-01
  -4.13362E-01 -1.54818E-01 -1.47373E-01  7.37458E-03 -1.24799E-01 -2.07878E-01  2.08319E-02 -9.71843E-02  3.09181E-01  2.01697E-01
  -1.87505E-01 -1.36894E-01 -2.65694E-01 -2.11789E-01 -2.98339E-02 -6.94237E-02 -2.29271E-01  5.12079E-02 -1.86252E-01  4.45235E-01
   1.76204E-01 -2.48678E-01  1.98108E-01 -2.69330E-01  1.46575E-01 -2.82066E-02  6.47031E-02  4.52615E-02 -1.38356E-01 -8.05502E-02
   1.78360E-02  3.19728E-02 -1.77972E-01  1.85225E-01 -1.09813E-01  1.35412E-01  3.72505E-01  1.57855E-01  4.72077E-02  4.84890E-01
   5.61196E-01  2.27258E-01  6.92391E-03 -2.16357E-01  1.82703E-01 -1.39146E-01  7.20600E-03 -9.79645E-02 -1.83479E-01  2.57168E-01
   5.77381E-02 -1.43454E-02 -2.92386E-01 -2.98325E-01 -7.51378E-02 -1.00516E-01 -2.20197E-01 -2.53965E-01 -1.36639E-01 -4.29665E-02
   3.27693E-02  1.70395E-01 -1.60164E-02  1.73716E-02 -4.35473E-02 -2.19152E-01  2.07256E-01  1.32912E-02  9.51818E-02  3.02802E-01
   1.67329E-01  1.96547E-01 -1.02458E-01 -6.78831E-02  1.63868E-01  2.63407E-01  2.60019E-01  1.11589E-01  3.08063E-01  3.51960E-01
   6.75773E-02  1.60913E-01  1.98940E-01  1.84684E-01  6.81418E-02 -2.69877E-02 -2.61258E-02 -1.08768E-01 -5.19173E-02 -3.08384E-01
  -1.82983E-01 -7.69050E-02 -1.31938E-01 -1.74067E-01 -1.42328E-01  1.69705E-01  3.11720E-02  1.34885E-01  2.80544E-01  5.74311E-01
   3.04965E-01 -1.17545E-01  1.72863E-01  4.36892E-02  2.48198E-01 -1.02828E-01 -2.41518E-01  2.80280E-01  2.53783E-01  5.03302E-01
   2.82807E-01  3.99814E-02  1.73723E-01  1.85817E-01  4.56286E-01  4.25100E-01  3.78578E-01  3.90219E-01  1.76995E-01  3.15635E-01
   4.08518E-01  2.48690E-01  1.09587E-01  7.22845E-02  1.78622E-01 -2.68636E-02 -1.24302E-01 -4.00047E-02 -3.22117E-01 -1.19506E-01
   8.69852E-03 -3.17616E-01 -1.81678E-01 -2.80543E-01 -3.09999E-01 -1.93944E-01 -1.16525E-01 -3.82378E-02 -9.29602E-02  2.13867E-02
   1.08316E-01  1.96625E-01 -9.87870E-02 -9.06189E-02 -3.20990E-02 -4.39458E-01 -3.89097E-01 -7.45417E-02 -2.50840E-01 -4.89801E-01
  -1.06595E-02 -1.63343E-01 -1.51066E+00 -1.86726E+00 -7.35780E-01 -4.42861E-01 -1.33979E-01 -1.64472E-02 -1.23627E-01  3.94833E-01
  -1.63827E-02  1.85811E-02  2.43242E-01 -3.09394E-02 -1.72357E-01 -7.64231E-02  3.71471E-02  5.38927E-02 -1.02437E-01  1.36940E-01
   1.86758E-01 -1.66068E-01  1.94593E-01 -1.62459E-01 -5.81190E-02 -1.60100E-02 -5.80691E-02  1.50347E-01 -8.67311E-02  3.89699E-02
  -1.09176E-01 -3.86496E-02  8.55537E-02  3.19478E-01  1.42140E-01 -6.47638E-02  1.59527E-01  9.68648E-02 -1.24953E-02  6.95809E-02
   2.25004E-01  3.16568E-01  6.32554E-02  3.98847E-03  3.62630E-01  1.34994E-01 -1.87179E-02 -1.10883E-01  2.75744E-01  2.92064E-01
   1.64903E-01  1.57039E-01 -6.89503E-02  3.46376E-01 -1.95140E-02  5.26780E-02  5.42720E-01  1.71226E-01  7.23146E-02  3.43694E-01
   2.14304E-01  5.07101E-02 -1.23919E-01 -1.62959E-01 -3.31390E-03  2.51470E-02 -6.17136E-02 -6.00180E-02  2.78444E-01  3.19050E-02
   1.53130E-01  1.28253E-01  4.49733E-02  1.84620E-01 -2.91189E-01 -1.69228E-01 -3.10064E-02  1.31053E-01  3.34936E-02 -3.16178E-01
  -7.81520E-02 -5.70501E-02 -1.00426E-02 -1.89537E-02 -1.27506E-01  6.48327E-02 -1.60272E-01 -2.45167E-01 -1.71932E-01 -2.07645E-01
  -4.11639E-02 -1.94246E-01 -1.13847E-02  2.80308E-01  6.72357E-02 -2.59710E-02  8.89638E-02  5.76123E-02 -7.20059E-02  1.23258E-02
  -3.04348E-02  2.00966E-01  3.07697E-02 -1.13557E-01  3.85269E-01 -1.90157E-01  4.08852E-02  6.20998E-02 -3.48538E-01 -6.68618E-02
  -2.18277E-01  5.26183E-02 -9.05068E-02 -7.85881E-02 -5.23227E-02 -1.56899E-01 -2.02672E-01  7.45365E-02  2.63425E-01  4.81366E-02
   1.62125E-01 -9.87280E-02 -2.67191E-02 -9.52423E-02 -4.09042E-02 -3.39238E-01 -3.61710E-01  1.10983E-01 -2.88779E-01 -1.08023E-01
  -1.01598E-01 -2.97955E-01 -2.13940E-03 -2.58976E-01 -1.41926E-01  6.31829E-02 -8.50002E-04  3.55792E-02 -4.90424E-01 -1.06278E-01
   1.24408E-01 -1.66787E-01 -2.84172E-02  1.37866E-01  2.29286E-01  1.20054E-01  1.32627E-01  1.13021E-01  3.06776E-01  1.81668E-01
   4.20423E-02  2.28535E-02 -5.32915E-03 -2.07079E-01 -6.85255E-02  1.41079E-01  3.82437E-02  6.83379E-02 -1.58942E-01  1.60742E-01
   3.16933E-01  4.28448E-02  2.29943E-01  3.10074E-01  8.06702E-02  2.78761E-01  9.37416E-02  1.04463E-01  1.32350E-02 -1.73435E-01
   9.95102E-02 -1.59861E-01  9.09579E-02  8.63055E-02 -1.04840E-01 -5.81220E-02  1.57942E-01  1.93761E-01 -1.58898E-01 -1.47791E-01
   6.43141E-02  1.45701E-01  7.81721E-02 -2.94267E-01 -3.08283E-01 -1.67665E-01 -4.29031E-01 -3.78412E-01 -4.64389E-01 -1.29045E-01
  -3.09571E-01 -3.76639E-01 -2.31510E-01 -8.37774E-02  6.01419E-03 -3.58278E-01  5.34093E-02 -5.97512E-02 -4.09081E-02 -2.50837E-01
  -2.82168E-01  4.82754E-02 -1.06111E-01 -2.97683E-01 -2.22270E-01  9.91605E-03  1.34242E-01  2.07191E-01  2.15194E-02  1.25830E-01
   1.98343E-01  1.88697E-01 -5.60120E-02  1.95515E-02 -6.48695E-02  1.19079E-01  1.25357E-01 -1.80159E-02  1.09698E-01  1.17269E-01
   4.12391E-01 -7.59233E-02  2.00345E-02 -2.20892E-01  4.64106E-02  2.06867E-01 -9.14784E-02  1.83141E-01 -1.20170E-01 -3.76716E-02
  -1.64596E-01  9.92739E-02 -1.38055E-01 -1.39397E-01  2.32311E-01 -3.93042E-02 -1.91991E-01  6.30173E-02  3.54446E-01 -1.62970E-01
  -8.92072E-02 -2.17034E-01 -7.66977E-02  2.16701E-01 -2.44997E-01 -1.57357E-01  1.88680E-01 -3.71329E-03 -2.64682E-01  8.00923E-02
  -1.04286E-01 -3.77079E-02 -4.18845E-02 -5.25387E-02  9.20646E-02 -2.41155E-01  2.72455E-01  1.10574E-01 -8.97000E-02 -7.08984E-02
  -5.42512E-02  6.75342E-02 -2.53079E-01  2.12065E-01 -5.24962E-02 -2.63436E-01  1.34006E-01 -2.67938E-01 -2.30589E-01  9.90433E-02
   1.26423E-01 -7.41825E-02 -3.40128E-01  1.29055E-01  1.01740E-01 -1.68114E-01  1.64794E-01  1.18385E-01  7.62823E-02  7.84697E-03
  -5.74071E-02  1.11231E-01  1.72407E-01 -9.19207E-02  6.97775E-02  2.05627E-02  1.58916E-02  2.66559E-01 -6.69103E-03  8.56761E-03
  -1.13245E-01  2.34542E-03  3.02444E-01 -1.35351E-02 -1.97721E-01  1.10324E-01  1.00640E-01  3.15885E-01 -3.19567E-02 -1.87951E-01
   9.41332E-02 -1.69570E-01  7.65927E-02 -1.94686E-01 -2.35451E-01 -1.61224E-01  4.49534E-02 -1.88470E-01 -2.43081E-01  1.93166E-01
   1.31685E-02 -4.46611E-02  1.26516E-02  2.01104E-01
 NY points of the fit to the data follow
   3.89890E-02  3.59827E-02  2.98753E-02  2.33026E-02  1.88175E-02  1.84916E-02  2.17760E-02  3.20291E-02  5.19262E-02  7.53066E-02
   1.18446E-01  2.22425E-01  3.56269E-01  4.58944E-01  5.57574E-01  6.13750E-01  5.16857E-01  3.12707E-01  1.45616E-01  5.13624E-02
   1.24253E-02  5.62533E-03 -8.47623E-03 -2.50214E-02 -4.25078E-02 -5.80538E-02 -7.00943E-02 -7.84787E-02 -8.46412E-02 -9.14691E-02
  -9.91717E-02 -1.07088E-01 -1.17113E-01 -1.31995E-01 -1.50902E-01 -1.67963E-01 -1.77825E-01 -1.82534E-01 -1.69215E-01 -9.39216E-02
   4.27896E-02  1.68633E-01  2.45000E-01  2.90009E-01  3.19896E-01  3.24464E-01  2.94638E-01  2.31351E-01  1.65278E-01  1.17352E-01
   8.18211E-02  5.32613E-02  2.55464E-02 -1.05263E-03 -3.19657E-02 -6.70285E-02 -1.05654E-01 -1.47752E-01 -1.91041E-01 -2.33991E-01
  -2.76527E-01 -2.96581E-01 -2.44390E-01 -1.47433E-01 -9.20392E-02 -3.09421E-02  9.31366E-02  2.02545E-01  2.64489E-01  3.19138E-01
   3.30911E-01  2.80888E-01  2.14091E-01  1.39086E-01  6.85030E-02  1.78156E-03 -6.17229E-02 -1.28247E-01 -2.35468E-01 -3.43806E-01
  -3.18374E-01 -1.60786E-01 -6.89943E-03  1.22565E-01  2.64259E-01  3.62625E-01  3.78293E-01  3.44169E-01  2.88077E-01  2.38844E-01
   2.05195E-01  1.75810E-01  1.42557E-01  1.00806E-01  5.00482E-02 -1.59414E-02 -1.06702E-01 -2.14382E-01 -3.22768E-01 -3.78660E-01
  -3.24704E-01 -1.71118E-01  3.14503E-02  2.05368E-01  3.01469E-01  3.16195E-01  3.07731E-01  2.88421E-01  2.78727E-01  2.72853E-01
   2.68754E-01  2.65174E-01  2.61417E-01  2.57546E-01  2.53825E-01  2.50851E-01  2.48364E-01  2.43593E-01  2.34681E-01  2.26450E-01
   2.10082E-01  1.60566E-01  9.81590E-02  5.63713E-02 -3.02760E-03 -8.44168E-02 -1.38100E-01 -2.01533E-01 -3.19337E-01 -4.47357E-01
  -5.22563E-01 -5.15350E-01 -4.37430E-01 -3.10323E-01 -2.01426E-01 -3.24147E-01 -7.17794E-01 -9.69574E-01 -8.46611E-01 -5.24868E-01
  -2.49431E-01 -8.57364E-02 -2.97442E-02  2.06600E-03  3.12372E-02  5.59988E-02  7.74491E-02  9.63706E-02  1.13355E-01  1.28622E-01
   1.42893E-01  1.57087E-01  1.71508E-01  1.86340E-01  2.02382E-01  2.20270E-01  2.40630E-01  2.64477E-01  2.92541E-01  3.26192E-01
   3.70004E-01  4.33719E-01  5.03988E-01  5.41359E-01  5.81187E-01  6.93802E-01  6.60947E-01  1.75405E-01 -5.21747E-01 -9.07561E-01
  -8.74607E-01 -6.70598E-01 -4.81251E-01 -3.90459E-01 -3.61563E-01 -3.35082E-01 -3.00021E-01 -2.62587E-01 -2.41851E-01 -2.35487E-01
  -2.27677E-01 -2.09251E-01 -1.90040E-01 -1.78930E-01 -1.75250E-01 -1.75474E-01 -1.72942E-01 -1.65822E-01 -1.57817E-01 -1.51591E-01
  -1.45421E-01 -1.37736E-01 -1.28631E-01 -1.19662E-01 -1.11214E-01 -1.03847E-01 -9.71357E-02 -9.05494E-02 -8.39139E-02 -7.78031E-02
  -7.23103E-02 -6.60825E-02 -5.90101E-02 -5.41322E-02 -5.40163E-02 -5.63391E-02 -5.55128E-02 -5.00155E-02 -4.56099E-02 -4.78788E-02
  -5.43017E-02 -5.87047E-02 -5.86341E-02 -5.56644E-02 -5.22066E-02 -4.90419E-02 -4.57963E-02 -4.24618E-02 -4.04271E-02 -3.94398E-02
  -3.40675E-02 -2.02023E-02 -4.00508E-03  1.58010E-02  6.73095E-02  1.54144E-01  2.08468E-01  1.87047E-01  1.58422E-01  1.88818E-01
   2.28731E-01  2.04171E-01  1.21658E-01  3.54845E-02 -2.05250E-02 -4.60078E-02 -5.65499E-02 -6.37022E-02 -7.02374E-02 -7.60770E-02
  -8.23087E-02 -8.80326E-02 -9.19314E-02 -9.37223E-02 -9.40397E-02 -9.41412E-02 -9.39259E-02 -9.29768E-02 -9.15375E-02 -9.05107E-02
  -9.27216E-02 -9.79516E-02 -1.04815E-01 -1.13686E-01 -1.24081E-01 -1.15041E-01 -7.15345E-02 -2.23741E-02  3.72397E-03  2.41512E-02
   6.14791E-02  9.26347E-02  8.31175E-02  6.13816E-02  6.45460E-02  7.80793E-02  7.76767E-02  8.23711E-02  9.46194E-02  1.11673E-01
   1.23873E-01  1.15858E-01  8.82227E-02  5.43233E-02  1.65040E-02 -1.60952E-02 -4.94498E-02 -8.40378E-02 -1.20965E-01 -1.60909E-01
  -2.06019E-01 -2.44996E-01 -2.57924E-01 -2.38068E-01 -1.70765E-01 -5.28374E-02  8.44034E-02  2.05994E-01  2.86109E-01  3.00556E-01
   2.61868E-01  2.09320E-01  1.64240E-01  1.35977E-01  1.27870E-01  1.38341E-01  1.58594E-01  1.76474E-01  1.85092E-01  1.83666E-01
   1.73394E-01  1.63983E-01  1.54165E-01  1.46401E-01  1.39587E-01  1.32555E-01  1.24803E-01  1.16063E-01  1.05034E-01  9.15452E-02
   7.60908E-02  5.81642E-02  3.77640E-02  1.36966E-02 -1.54723E-02 -5.06213E-02 -9.22476E-02 -1.39302E-01 -1.87566E-01 -2.29329E-01
  -2.62746E-01 -2.82701E-01 -2.84674E-01 -2.66685E-01 -2.27788E-01 -1.66311E-01 -9.06029E-02 -1.87087E-02  3.58590E-02  6.23248E-02
   6.07165E-02  3.64850E-02 -5.57101E-03 -4.94450E-02 -8.28432E-02 -1.04888E-01 -1.21369E-01 -1.59001E-01 -2.20817E-01 -2.38149E-01
  -2.78046E-01 -6.96422E-01 -1.35340E+00 -1.54820E+00 -1.13357E+00 -5.94581E-01 -2.47317E-01 -8.67621E-02 -7.62808E-02 -5.22107E-02
  -3.13754E-02 -1.51078E-02 -2.00052E-03  8.23279E-03  1.61078E-02  2.25307E-02  2.75223E-02  2.97039E-02  2.81700E-02  2.14969E-02
   9.66302E-03 -4.47316E-03 -1.93340E-02 -3.16402E-02 -3.86315E-02 -3.89612E-02 -3.37359E-02 -2.38551E-02 -1.30702E-02 -3.03652E-03
   5.68579E-03  1.22245E-02  1.82953E-02  2.35344E-02  2.76550E-02  3.06674E-02  3.32781E-02  3.59549E-02  3.88332E-02  4.15758E-02
   4.36891E-02  4.54066E-02  4.72285E-02  4.92316E-02  5.14144E-02  5.33031E-02  5.45301E-02  5.52333E-02  5.62953E-02  5.79899E-02
   6.01428E-02  6.23747E-02  6.41459E-02  6.49231E-02  6.44686E-02  6.31707E-02  6.15566E-02  6.01881E-02  5.87895E-02  5.68867E-02
   5.41258E-02  5.07896E-02  4.72994E-02  4.34766E-02  3.91321E-02  3.49655E-02  3.15174E-02  2.83784E-02  2.49974E-02  2.16007E-02
   1.83985E-02  1.55832E-02  1.32427E-02  1.12021E-02  9.18146E-03  7.26489E-03  5.42283E-03  3.52263E-03  1.81071E-03  4.63473E-04
  -5.31762E-04 -1.51891E-03 -2.40553E-03 -2.59167E-03 -2.01633E-03 -1.04720E-03  4.03433E-04  2.30535E-03  4.51184E-03  7.23344E-03
   1.01661E-02  1.22262E-02  1.32105E-02  1.42279E-02  1.64717E-02  2.01298E-02  2.45782E-02  2.89030E-02  3.28009E-02  3.68279E-02
   4.16959E-02  4.74969E-02  5.38187E-02  6.03637E-02  6.68395E-02  7.31961E-02  7.96713E-02  8.59991E-02  9.14173E-02  9.54976E-02
   9.80903E-02  9.93900E-02  9.99149E-02  9.98284E-02  9.90975E-02  9.77221E-02  9.53305E-02  9.13762E-02  8.58358E-02  7.96573E-02
   7.37217E-02  6.82730E-02  6.29825E-02  5.75380E-02  5.17318E-02  4.62622E-02  4.17135E-02  3.76765E-02  3.36379E-02  2.98268E-02
   2.65512E-02  2.37965E-02  2.14073E-02  1.91279E-02  1.75070E-02  1.71944E-02  1.79035E-02  1.89666E-02  2.04426E-02  2.23796E-02
   2.45630E-02  2.71141E-02  3.01858E-02  3.33067E-02  3.59758E-02  3.80939E-02  3.96905E-02  4.07209E-02  4.15762E-02  4.29986E-02
   4.48063E-02  4.60751E-02  4.62853E-02  4.56000E-02  4.45856E-02  4.35069E-02  4.19219E-02  3.97777E-02  3.77785E-02  3.61970E-02
   3.45914E-02  3.27670E-02  3.07021E-02  2.86291E-02  2.66483E-02  2.45822E-02  2.21924E-02  1.97229E-02  1.78797E-02  1.66244E-02
   1.52091E-02  1.32728E-02  1.10744E-02  8.59521E-03  5.40784E-03  1.40359E-03 -3.04166E-03 -7.58063E-03 -1.23775E-02 -1.80734E-02
  -2.53005E-02 -3.42241E-02 -4.41564E-02 -5.40520E-02 -6.36702E-02 -7.32749E-02 -8.25634E-02 -9.08878E-02 -9.83447E-02 -1.05291E-01
  -1.11505E-01 -1.15684E-01 -1.17468E-01 -1.18001E-01 -1.18004E-01 -1.16842E-01 -1.14212E-01 -1.10679E-01 -1.06969E-01 -1.03596E-01
  -1.00651E-01 -9.75747E-02 -9.36950E-02 -8.91331E-02 -8.42315E-02 -7.88881E-02 -7.31113E-02 -6.72943E-02 -6.15591E-02 -5.59149E-02
  -5.06927E-02 -4.57568E-02 -4.05698E-02 -3.53147E-02 -3.08348E-02 -2.72780E-02 -2.37297E-02 -1.96269E-02 -1.57304E-02 -1.31003E-02
  -1.10583E-02 -8.77339E-03 -6.50400E-03 -4.55889E-03 -3.07856E-03 -2.14103E-03 -1.22212E-03 -1.26301E-04  5.49274E-04  7.49177E-04
   1.17068E-03  2.14771E-03  3.28331E-03  4.46554E-03  5.81042E-03  6.79066E-03  7.08095E-03  7.12402E-03  7.08429E-03  6.87082E-03
   6.73899E-03  6.68728E-03  6.35750E-03  6.00599E-03  5.96843E-03  5.91106E-03  5.71832E-03  5.72378E-03  6.21398E-03  6.65563E-03
   5.74157E-03  3.62519E-03  2.25902E-03  2.30535E-03  2.54852E-03  2.29339E-03  2.03836E-03  1.93908E-03  1.32397E-03  1.11170E-04
  -7.53859E-04 -6.50046E-04 -6.84142E-05  3.46996E-04  3.79059E-04  3.96507E-04  7.38611E-04  1.20876E-03  1.36987E-03  1.29713E-03
   1.44772E-03  1.57682E-03  1.01238E-03 -1.54929E-04 -1.05242E-03 -1.32825E-03 -1.16425E-03 -8.17833E-04 -3.57241E-04 -1.04801E-04
  -2.58726E-04 -6.22221E-04 -3.62785E-04  6.52459E-04  1.70949E-03  2.01174E-03  1.14574E-03 -4.37121E-04 -1.60307E-03 -1.76069E-03
  -1.46218E-03 -1.63789E-03 -2.58239E-03 -3.73874E-03 -4.55929E-03 -4.82523E-03 -4.98112E-03 -5.86370E-03 -6.96340E-03 -7.16288E-03
  -6.88314E-03 -7.16216E-03 -7.94034E-03 -8.66525E-03 -9.11420E-03 -9.47068E-03 -1.00054E-02 -1.02124E-02 -9.46655E-03 -8.29856E-03
  -7.65999E-03 -7.65842E-03 -8.07920E-03 -8.75443E-03
 NY background values follow
     4.959E-02    4.946E-02    4.933E-02    4.920E-02    4.907E-02    4.894E-02    4.880E-02    4.867E-02    4.854E-02    4.841E-02
     4.828E-02    4.815E-02    4.802E-02    4.789E-02    4.776E-02    4.763E-02    4.750E-02    4.736E-02    4.723E-02    4.710E-02
     4.697E-02    4.684E-02    4.671E-02    4.658E-02    4.645E-02    4.631E-02    4.618E-02    4.605E-02    4.592E-02    4.579E-02
     4.566E-02    4.552E-02    4.539E-02    4.526E-02    4.513E-02    4.500E-02    4.487E-02    4.473E-02    4.460E-02    4.447E-02
     4.434E-02    4.420E-02    4.407E-02    4.394E-02    4.381E-02    4.368E-02    4.354E-02    4.341E-02    4.328E-02    4.315E-02
     4.301E-02    4.288E-02    4.275E-02    4.262E-02    4.248E-02    4.235E-02    4.222E-02    4.208E-02    4.195E-02    4.182E-02
     4.169E-02    4.155E-02    4.142E-02    4.129E-02    4.115E-02    4.102E-02    4.089E-02    4.075E-02    4.062E-02    4.049E-02
