 LCModel (Version 6.3-1N) Copyright: S.W. Provencher.          Ref.: Magn. Reson. Med. 30:672-679 (1993).                
 Slice_N1@26_15  02-Jun-2023 14:38:07
 27 lines in following concentration table = NCONC+1
    Conc.  %SD /Cr+PCr  Metabolite                                         
 1.14E-06  31% 2.2E-04 Mac                                                 
 2.15E-02  47%   4.226 Cr                                                  
 1.92E-02  53%   3.774 PCr                                                 
 7.86E-02  18%  15.465 Ins                                                 
 5.03E-02  22%   9.900 NAA                                                 
 3.52E-02  32%   6.930 Tau                                                 
 8.16E-03  39%   1.605 PCho                                                
    0.000 999%   0.000 GPC                                                 
 5.44E-02  22%  10.692 Glu                                                 
 3.11E-02  27%   6.117 Gln                                                 
 1.61E-02  61%   3.174 Ala                                                 
    0.000 999%   0.000 Asc                                                 
 4.71E-03  77%   0.927 Asp                                                 
 3.80E-03  57%   0.748 GABA                                                
 3.68E-03  60%   0.723 Glc                                                 
 1.06E-02  45%   2.078 GSH                                                 
    0.000 999%   0.000 Lac                                                 
 1.13E-02  71%   2.213 NAAG                                                
    0.000 999%   0.000 PE                                                  
 8.16E-03  39%   1.605 GPC+PCho                                            
 6.16E-02  16%  12.113 NAA+NAAG                                            
 8.55E-02  17%  16.810 Glu+Gln                                             
 4.07E-02  20%   8.000 Cr+PCr                                              
 6.16E-02  16%  12.113 NAA+NAAG                                            
 4.07E-02  20%   8.000 Cr+PCr                                              
 8.55E-02  17%  16.810 Glu+Gln                                             
   6 lines in following misc. output table
  FWHM = 0.081 ppm    S/N =   1                                            
  Data shift = 0.012 ppm                                                   
  Ph:  66 deg       8.4 deg/ppm                                            
  alphaB,S = 3.1E+01,   5.0E+01                                            
   18 spline knots.   Ns = 7(2)                                            
   1 inflections.     2 extrema                                            
  654 points on ppm-axis = NY
      4.000000     3.994181     3.988363     3.982544     3.976726     3.970907     3.965088     3.959270     3.953451     3.947633
      3.941814     3.935995     3.930177     3.924358     3.918540     3.912721     3.906902     3.901084     3.895265     3.889446
      3.883628     3.877809     3.871991     3.866172     3.860353     3.854535     3.848716     3.842898     3.837079     3.831260
      3.825442     3.819623     3.813805     3.807986     3.802167     3.796349     3.790530     3.784712     3.778893     3.773074
      3.767256     3.761437     3.755619     3.749800     3.743981     3.738163     3.732344     3.726526     3.720707     3.714888
      3.709070     3.703251     3.697433     3.691614     3.685795     3.679977     3.674158     3.668339     3.662521     3.656702
      3.650884     3.645065     3.639246     3.633428     3.627609     3.621791     3.615972     3.610153     3.604335     3.598516
      3.592698     3.586879     3.581060     3.575242     3.569423     3.563605     3.557786     3.551967     3.546149     3.540330
      3.534512     3.528693     3.522874     3.517056     3.511237     3.505419     3.499600     3.493781     3.487963     3.482144
      3.476326     3.470507     3.464688     3.458870     3.453051     3.447232     3.441414     3.435595     3.429777     3.423958
      3.418139     3.412321     3.406502     3.400684     3.394865     3.389046     3.383228     3.377409     3.371591     3.365772
      3.359953     3.354135     3.348316     3.342498     3.336679     3.330860     3.325042     3.319223     3.313405     3.307586
      3.301767     3.295949     3.290130     3.284312     3.278493     3.272674     3.266856     3.261037     3.255219     3.249400
      3.243581     3.237763     3.231944     3.226125     3.220307     3.214488     3.208670     3.202851     3.197032     3.191214
      3.185395     3.179577     3.173758     3.167939     3.162121     3.156302     3.150484     3.144665     3.138846     3.133028
      3.127209     3.121391     3.115572     3.109753     3.103935     3.098116     3.092298     3.086479     3.080660     3.074842
      3.069023     3.063205     3.057386     3.051567     3.045749     3.039930     3.034111     3.028293     3.022474     3.016656
      3.010837     3.005018     2.999200     2.993381     2.987563     2.981744     2.975925     2.970107     2.964288     2.958470
      2.952651     2.946832     2.941014     2.935195     2.929377     2.923558     2.917739     2.911921     2.906102     2.900284
      2.894465     2.888646     2.882828     2.877009     2.871191     2.865372     2.859553     2.853735     2.847916     2.842098
      2.836279     2.830460     2.824642     2.818823     2.813004     2.807186     2.801367     2.795549     2.789730     2.783911
      2.778093     2.772274     2.766456     2.760637     2.754818     2.749000     2.743181     2.737363     2.731544     2.725725
      2.719907     2.714088     2.708270     2.702451     2.696632     2.690814     2.684995     2.679177     2.673358     2.667539
      2.661721     2.655902     2.650084     2.644265     2.638446     2.632628     2.626809     2.620991     2.615172     2.609353
      2.603535     2.597716     2.591897     2.586079     2.580260     2.574442     2.568623     2.562804     2.556986     2.551167
      2.545349     2.539530     2.533711     2.527893     2.522074     2.516256     2.510437     2.504618     2.498800     2.492981
      2.487163     2.481344     2.475525     2.469707     2.463888     2.458070     2.452251     2.446432     2.440614     2.434795
      2.428977     2.423158     2.417339     2.411521     2.405702     2.399884     2.394065     2.388246     2.382428     2.376609
      2.370790     2.364972     2.359153     2.353335     2.347516     2.341697     2.335879     2.330060     2.324242     2.318423
      2.312604     2.306786     2.300967     2.295149     2.289330     2.283511     2.277693     2.271874     2.266056     2.260237
      2.254418     2.248600     2.242781     2.236963     2.231144     2.225325     2.219507     2.213688     2.207870     2.202051
      2.196232     2.190414     2.184595     2.178777     2.172958     2.167139     2.161321     2.155502     2.149683     2.143865
      2.138046     2.132228     2.126409     2.120590     2.114772     2.108953     2.103135     2.097316     2.091497     2.085679
      2.079860     2.074042     2.068223     2.062404     2.056586     2.050767     2.044949     2.039130     2.033311     2.027493
      2.021674     2.015856     2.010037     2.004218     1.998400     1.992581     1.986763     1.980944     1.975126     1.969307
      1.963489     1.957670     1.951852     1.946033     1.940215     1.934397     1.928578     1.922760     1.916941     1.911123
      1.905304     1.899486     1.893667     1.887849     1.882030     1.876212     1.870393     1.864575     1.858756     1.852938
      1.847119     1.841301     1.835482     1.829664     1.823845     1.818027     1.812208     1.806390     1.800571     1.794753
      1.788934     1.783116     1.777297     1.771479     1.765660     1.759842     1.754023     1.748205     1.742386     1.736568
      1.730749     1.724931     1.719113     1.713294     1.707476     1.701657     1.695839     1.690020     1.684202     1.678383
      1.672565     1.666746     1.660928     1.655109     1.649291     1.643472     1.637654     1.631835     1.626017     1.620198
      1.614380     1.608561     1.602743     1.596924     1.591106     1.585287     1.579469     1.573650     1.567832     1.562013
      1.556195     1.550376     1.544558     1.538739     1.532921     1.527102     1.521284     1.515465     1.509647     1.503829
      1.498010     1.492192     1.486373     1.480555     1.474736     1.468918     1.463099     1.457281     1.451462     1.445644
      1.439825     1.434007     1.428188     1.422370     1.416551     1.410733     1.404914     1.399096     1.393277     1.387459
      1.381640     1.375822     1.370003     1.364185     1.358366     1.352548     1.346729     1.340911     1.335092     1.329274
      1.323455     1.317637     1.311818     1.306000     1.300182     1.294363     1.288545     1.282726     1.276908     1.271089
      1.265271     1.259452     1.253634     1.247815     1.241997     1.236178     1.230360     1.224541     1.218723     1.212904
      1.207086     1.201267     1.195449     1.189630     1.183812     1.177993     1.172175     1.166356     1.160538     1.154719
      1.148901     1.143082     1.137264     1.131445     1.125627     1.119808     1.113990     1.108171     1.102353     1.096534
      1.090716     1.084898     1.079079     1.073261     1.067442     1.061624     1.055805     1.049987     1.044168     1.038350
      1.032531     1.026713     1.020894     1.015076     1.009257     1.003439     0.997620     0.991802     0.985983     0.980165
      0.974346     0.968528     0.962709     0.956891     0.951072     0.945254     0.939435     0.933617     0.927798     0.921980
      0.916161     0.910343     0.904524     0.898706     0.892887     0.887069     0.881251     0.875432     0.869614     0.863795
      0.857977     0.852158     0.846340     0.840521     0.834703     0.828884     0.823066     0.817247     0.811429     0.805610
      0.799792     0.793973     0.788155     0.782336     0.776518     0.770699     0.764881     0.759062     0.753244     0.747425
      0.741607     0.735788     0.729970     0.724151     0.718333     0.712514     0.706696     0.700877     0.695059     0.689240
      0.683422     0.677603     0.671785     0.665967     0.660148     0.654330     0.648511     0.642693     0.636874     0.631056
      0.625237     0.619419     0.613600     0.607782     0.601963     0.596145     0.590326     0.584508     0.578689     0.572871
      0.567052     0.561234     0.555415     0.549597     0.543778     0.537960     0.532141     0.526323     0.520504     0.514686
      0.508867     0.503049     0.497230     0.491412     0.485593     0.479775     0.473956     0.468138     0.462319     0.456501
      0.450682     0.444864     0.439045     0.433227     0.427408     0.421590     0.415771     0.409953     0.404134     0.398316
      0.392497     0.386679     0.380860     0.375042     0.369223     0.363405     0.357586     0.351767     0.345949     0.340130
      0.334312     0.328493     0.322675     0.316856     0.311038     0.305219     0.299401     0.293582     0.287764     0.281945
      0.276127     0.270308     0.264490     0.258671     0.252853     0.247034     0.241216     0.235397     0.229579     0.223760
      0.217942     0.212123     0.206305     0.200486
 NY phased data points follow
   3.99207E-02 -2.44453E-01 -4.41135E-01 -2.40264E-01 -1.53026E-01 -3.09132E-01 -6.69459E-02  1.76889E-01  6.21713E-02  1.32415E-01
   4.33355E-01  8.06246E-02 -2.84079E-01  1.71564E-01  9.27169E-02 -1.56188E-01  4.76610E-02  2.67915E-01  4.44123E-01  2.05837E-01
  -8.29300E-02 -1.09662E-01 -9.01598E-02 -5.84168E-02  7.81869E-02  1.10143E-01  5.51839E-02  1.26778E-01 -3.83617E-01 -4.69738E-01
  -2.35023E-01 -2.12463E-01 -2.65952E-01 -1.32214E-01  3.87320E-02 -3.89949E-01 -1.04078E-01 -8.37084E-02  3.91041E-02  4.95137E-02
   2.35966E-02  2.29892E-01  1.36778E-01  3.60983E-01  2.86026E-01  4.83677E-01  2.49108E-02  2.18884E-01  3.45878E-01 -2.42873E-03
   2.23962E-01  7.45350E-02  1.32810E-01  1.96619E-01  9.23200E-02 -2.51660E-01 -1.33179E-02 -1.24218E-01 -2.21657E-01 -1.69495E-01
  -5.74801E-02 -1.49094E-01 -3.20183E-01  5.53817E-03 -4.09555E-01 -4.62281E-01 -7.86560E-02  3.19262E-01  3.39624E-02 -3.30201E-02
   1.13046E-01  1.65467E-01 -1.44103E-01 -1.32558E-01  4.24473E-01  4.00660E-02  1.27004E-01 -1.27882E-03 -3.79802E-02  2.60389E-02
   1.21486E-01 -2.06157E-01 -4.37986E-01 -1.40466E-01 -3.02578E-01 -4.80136E-01 -4.64043E-01  3.40940E-02 -4.79998E-02  1.75726E-01
  -7.42849E-03 -1.46600E-01  1.70858E-01 -5.11956E-02  2.68673E-01  3.28765E-01  1.61978E-01  3.26219E-02 -1.63656E-01  2.02361E-01
   7.01054E-02 -5.81248E-02  1.57144E-01 -3.77303E-02  2.47856E-01 -1.08277E-01 -4.46574E-02  3.78493E-04  1.33976E-01  2.47479E-01
  -1.49035E-01  4.22835E-01  4.48689E-01  4.52671E-01  3.56979E-01  5.85709E-01  3.02479E-01  1.70627E-01  4.37317E-01  2.78187E-01
   9.94304E-02  1.22313E-01  4.79816E-01 -1.12506E-01  1.35944E-01 -5.48481E-02 -2.83974E-02  1.60973E-01 -1.99622E-01  1.44655E-01
  -2.86409E-02 -3.03858E-01 -3.82435E-01 -2.49402E-01 -4.49000E-01 -1.17900E-01  5.68326E-02 -3.85323E-01 -2.77591E-01  1.06343E-01
  -1.29690E-01 -3.37490E-01 -1.69311E-01 -2.57033E-01  5.46181E-02 -1.89349E-01 -3.78827E-01 -1.66008E-01 -1.32129E-01 -7.40851E-02
   5.58545E-02  1.73066E-01 -1.05413E-01 -3.82170E-02  9.87536E-02 -4.12427E-02  1.83934E-01  3.64703E-01  3.63176E-01  3.36035E-01
   1.64183E-01  2.65618E-01  3.17706E-01  2.83731E-01  3.36805E-01  2.90774E-01  2.31128E-02 -5.39252E-02  1.36642E-01  6.36690E-02
   2.04819E-01  5.94025E-02 -1.48421E-01  9.06931E-02 -2.29680E-01 -4.39025E-01 -1.25258E-01 -1.75462E-01 -4.83290E-01 -5.14885E-01
  -1.67456E-01 -3.99531E-01 -2.32139E-01 -7.60744E-03 -2.82944E-01  1.93302E-01 -4.05405E-01 -3.25589E-01 -1.69513E-01 -4.54221E-01
  -2.63638E-02 -5.87921E-01 -1.84475E-01  3.94299E-02 -3.66236E-01 -4.91760E-01 -3.46331E-02  1.06820E-01 -2.81527E-01 -7.98287E-02
  -2.89506E-01 -4.01813E-02  1.83133E-01  2.01623E-01 -3.99624E-01 -3.38400E-01  1.11387E-01 -1.16866E-01 -1.46274E-01 -1.12905E-01
   1.26523E-01 -2.78956E-01 -1.16746E-01  1.14717E-01  2.87213E-01  1.07078E-01  3.69939E-02  2.52444E-01 -3.65243E-02  1.04140E-01
   6.66721E-02  1.80965E-01  1.79611E-01  1.87648E-01  1.35543E-02  1.08371E-01 -1.76199E-02 -1.31867E-02  5.83626E-01  7.78389E-02
  -2.45739E-01  3.96623E-01  5.57313E-01  1.62414E-01  3.50492E-01  2.34150E-01  3.59892E-02 -2.45662E-01 -2.72260E-01  2.34334E-01
   7.07867E-02 -1.76553E-01 -1.34148E-02  1.71782E-02 -1.30860E-01  9.77181E-02  1.59476E-01 -1.60517E-01 -1.52821E-01 -7.71675E-02
  -1.01123E-01  3.00835E-01 -8.46245E-03 -1.48047E-01 -2.01658E-02 -2.58434E-01 -1.69541E-01 -1.31033E-01 -1.24311E-01 -1.10337E-01
   2.90893E-02 -2.13435E-01  2.53996E-01  1.53078E-01 -4.44181E-01 -4.60506E-02 -6.07564E-02 -1.78989E-01  2.01674E-01  2.26876E-01
  -2.56585E-03  5.39372E-02 -6.49798E-02  3.98894E-01  2.14805E-01 -5.11473E-02 -4.57527E-02 -3.77323E-02  8.79151E-02 -1.80910E-01
   2.60980E-01  2.38066E-02 -2.36617E-01  1.65143E-01  1.29434E-01 -1.43984E-01  1.58702E-01  2.27097E-02 -1.63608E-01  2.82744E-01
   2.91964E-02  3.34758E-01  4.10238E-01  6.95837E-02  3.05951E-01  3.81647E-01  2.60825E-01 -8.06392E-02 -6.23731E-02  1.16028E-01
   2.84786E-02  2.13076E-01  2.76232E-01  3.24627E-01  2.43505E-01  2.46393E-01  5.90075E-01  3.87105E-01  4.30933E-01  4.23937E-01
   6.71667E-02  2.56880E-01  1.46247E-01 -6.79629E-02  7.84708E-03 -5.61220E-02  8.91568E-03 -4.39227E-02 -2.70084E-01 -4.85814E-01
   5.98951E-02  2.93275E-01 -3.01145E-02 -3.58990E-02 -2.48738E-01  3.90182E-02 -1.49632E-01 -2.05969E-01  3.40000E-02  8.16878E-02
   2.39866E-01  8.29126E-02 -1.30360E-01 -4.79925E-01 -2.79977E-01 -2.50377E-01 -2.51530E-01 -2.17082E-01 -5.60871E-01 -5.29075E-01
  -1.27918E-01 -3.67302E-01 -6.74658E-01 -4.51382E-01 -5.23490E-01 -1.93218E-01 -2.91003E-01 -3.63316E-01 -3.39219E-01 -5.36514E-01
  -1.48714E-01 -1.32502E-01 -1.61612E-01  4.38077E-02  5.21762E-02  1.77494E-01  4.26374E-01  8.99200E-02 -7.31345E-03 -6.60995E-02
  -5.84321E-02  2.55933E-01  2.32988E-03  4.51151E-02 -3.14917E-02  1.01479E-01  8.44188E-02 -1.43241E-01  1.74554E-02  7.60031E-02
   2.13496E-01 -2.22791E-01 -9.91508E-02  1.38382E-01  8.43230E-03  4.26581E-03 -2.24841E-02  1.27665E-01 -5.80069E-02  6.15501E-02
  -2.07305E-02 -1.15851E-01 -2.12351E-02  2.11104E-01  5.02345E-01  1.36532E-01  1.90801E-01  2.50405E-01 -1.87223E-01 -1.42106E-01
   2.48016E-01  2.51068E-01  2.67000E-01  4.99939E-01  4.21596E-01  2.08880E-01  3.09568E-02  5.55358E-02  2.42731E-01  8.68505E-02
   1.06610E-01  4.62646E-02  2.27876E-02 -1.27060E-01 -4.90051E-01 -7.38269E-02 -3.71524E-02  3.17953E-01  1.37477E-01 -1.97682E-01
   2.81439E-01  1.62153E-01 -1.30132E-01 -3.45364E-01  1.25250E-01 -1.69967E-01 -1.92542E-01 -2.05507E-01 -4.18482E-01  1.51399E-01
  -1.11273E-01 -1.65981E-01 -1.53132E-01 -1.03435E-01 -8.44451E-02 -8.40327E-02  1.66182E-01  2.66942E-01 -1.05321E-01  1.03081E-01
   3.44406E-01  6.43817E-02  2.32948E-01 -9.90207E-02  2.84324E-01  1.37065E-01 -3.01510E-01  1.03532E-01  1.11429E-01  2.19948E-02
  -6.02461E-02 -1.16601E-02 -1.25562E-01  1.51794E-01  2.61938E-01 -7.92761E-02  1.55552E-01  3.13022E-01  1.82934E-01  1.77668E-01
   6.08561E-02  2.36256E-01 -7.03001E-02  1.12430E-02  4.20964E-02 -4.07875E-01  2.15244E-01 -8.48465E-02 -1.40795E-01  3.09314E-02
  -1.07626E-01  1.04358E-01 -1.79646E-01  1.04749E-01  2.93872E-02 -1.80285E-01  2.79195E-01 -2.10260E-01 -2.56335E-01 -2.01750E-01
  -3.42228E-01  3.57620E-01 -3.75022E-01 -4.75795E-01  2.75451E-01  1.01917E-01 -7.51126E-02 -4.26324E-02 -1.84661E-01 -3.25776E-02
  -1.58584E-02 -3.72636E-01  1.61998E-02 -2.99545E-01 -1.79634E-01  1.26808E-01  6.40434E-02 -6.60770E-02  1.71272E-02  3.74275E-02
  -1.64106E-01  3.23840E-01  1.20201E-01  1.40426E-01  3.06735E-01  2.60773E-01 -1.26614E-01 -3.28687E-04  1.77830E-01 -3.00091E-01
  -3.25230E-01  2.81269E-02  9.21216E-02  2.18850E-02  1.23887E-01 -5.23841E-02  2.28236E-01 -2.73063E-02  1.79695E-01  2.97286E-01
   2.13812E-01  9.38036E-02  3.37358E-02  3.55569E-01  8.16050E-03  1.46936E-01 -2.77137E-02  2.64802E-02 -9.30954E-02  2.12227E-02
   1.27846E-01 -5.01721E-02 -4.31593E-02 -2.86407E-01 -2.16410E-01 -1.07114E-01 -6.19101E-02 -2.66110E-01 -1.87146E-01 -3.27947E-01
  -1.76245E-01 -2.17214E-01 -2.34424E-01  3.28637E-03 -3.32792E-01 -3.34756E-01 -1.04876E-01 -2.94798E-01 -1.66135E-01  1.04907E-01
  -2.68180E-01 -1.62219E-02  5.63804E-02  3.04107E-03 -1.38322E-01 -1.28487E-01  1.26046E-01 -1.44070E-01 -2.08688E-01  1.04225E-01
   3.52973E-01  2.18579E-01  3.71006E-04 -2.12096E-01  2.32847E-01  6.08918E-02 -2.31762E-01  1.67803E-01  1.23458E-01  1.24840E-01
   2.86845E-01  3.31529E-01  1.53538E-02 -1.40019E-01  1.27878E-01  1.83608E-01  5.42196E-02  2.16225E-01  1.35474E-01 -1.34058E-01
  -1.61544E-01 -2.55662E-03  2.87109E-02 -1.33087E-01  2.04347E-01  3.58643E-01  1.55645E-01  2.18835E-01 -1.70975E-01  5.33342E-02
   3.95385E-01 -2.28688E-02  1.89308E-01  5.41700E-03 -3.48446E-01 -1.97348E-01  2.24038E-02  1.24301E-01  1.48332E-01  7.37711E-02
   6.09627E-02 -2.58229E-01 -2.47866E-01  2.40426E-01  1.34134E-01  1.75043E-01  5.35935E-02  3.83638E-01  2.90824E-01  3.19862E-01
   1.54739E-02 -4.69757E-01  2.27492E-01 -9.87226E-02  2.04209E-01  1.21318E-01 -3.16952E-02  3.30536E-01  4.36627E-02  1.33589E-01
  -1.56996E-01  1.00009E-01  1.31412E-01 -3.20303E-01 -1.71617E-01  1.02730E-01  1.03252E-01 -2.85107E-01  1.76598E-01  8.89360E-02
  -4.23571E-01  1.36397E-01  6.69784E-02 -1.72056E-01 -3.42216E-01 -1.90037E-01  1.80936E-01 -6.83578E-02 -2.48799E-03  1.99665E-01
  -1.22351E-01 -9.47705E-02  1.73448E-01 -1.51860E-01 -7.41526E-03 -1.16604E-02 -9.70499E-02  3.32732E-01  3.28936E-01 -6.31402E-02
  -2.49659E-01  6.38631E-02  2.87389E-01 -2.41106E-03 -2.63876E-01 -1.73994E-01 -1.67433E-01 -1.40140E-01 -1.25838E-01  1.71023E-01
   7.38752E-02 -2.72156E-01 -1.43123E-02  8.60497E-02
 NY points of the fit to the data follow
   1.00495E-02 -3.62770E-03 -2.46220E-02 -3.49007E-02 -2.19325E-02 -2.44699E-02  1.21894E-02  1.33210E-02  5.65067E-02  5.66759E-02
   9.92011E-02  9.90499E-02  1.36262E-01  1.34279E-01  1.64372E-01  1.58699E-01  1.77198E-01  1.70017E-01  1.71141E-01  1.62639E-01
   1.44193E-01  1.35809E-01  1.02227E-01  9.26622E-02  4.92529E-02  3.77725E-02 -1.56676E-02 -3.46047E-02 -7.81747E-02 -1.08416E-01
  -1.28416E-01 -1.61085E-01 -1.52460E-01 -1.79707E-01 -1.47420E-01 -1.62203E-01 -1.15889E-01 -1.16949E-01 -6.65847E-02 -5.59380E-02
  -7.07165E-03  1.28474E-02  5.72037E-02  8.39261E-02  1.17886E-01  1.49716E-01  1.63621E-01  1.94845E-01  1.84849E-01  2.04994E-01
   1.65801E-01  1.80376E-01  1.04656E-01  9.61443E-02  2.67770E-02 -2.79900E-02 -6.35530E-02 -1.40202E-01 -1.43392E-01 -2.07353E-01
  -1.89613E-01 -2.26338E-01 -1.96390E-01 -2.03032E-01 -1.67625E-01 -1.40641E-01 -8.94823E-02 -5.94304E-02 -2.47829E-02  1.91217E-02
   4.50538E-03  5.62228E-02  3.07803E-04  5.58269E-02 -1.95036E-02  3.08184E-02 -4.57774E-02 -6.50332E-03 -7.00965E-02 -4.95240E-02
  -8.39536E-02 -7.86704E-02 -8.10515E-02 -6.50875E-02 -4.45941E-02 -4.13594E-03  2.47927E-02  7.58159E-02  1.03075E-01  1.37419E-01
   1.65812E-01  1.67611E-01  2.02215E-01  1.61700E-01  2.00073E-01  1.24836E-01  1.70534E-01  7.25570E-02  1.42057E-01  2.77668E-02
   1.23666E-01  7.30466E-03  1.21525E-01  1.22383E-02  1.33635E-01  4.25811E-02  1.55931E-01  9.16909E-02  1.83968E-01  1.57354E-01
   2.10535E-01  2.18082E-01  2.39338E-01  2.48782E-01  2.65369E-01  2.52769E-01  2.76499E-01  2.35929E-01  2.54721E-01  1.94454E-01
   1.94318E-01  1.45551E-01  1.40589E-01  9.38641E-02  7.25732E-02  2.70712E-02 -2.24394E-02 -5.22595E-02 -1.33155E-01 -1.29641E-01
  -2.36475E-01 -1.92227E-01 -3.16491E-01 -2.30876E-01 -3.55770E-01 -2.41555E-01 -3.52912E-01 -2.31020E-01 -3.19822E-01 -2.07558E-01
  -2.66987E-01 -1.70697E-01 -2.05902E-01 -1.23134E-01 -1.38778E-01 -7.21223E-02 -7.13853E-02 -1.99378E-02 -5.65473E-03  2.48765E-02
   4.02568E-02  4.83650E-02  4.73623E-02  8.03911E-02  1.09919E-01  1.50043E-01  2.01309E-01  2.24946E-01  2.71403E-01  2.73005E-01
   2.99021E-01  2.86506E-01  2.88902E-01  2.66758E-01  2.43806E-01  2.20744E-01  1.77848E-01  1.54602E-01  9.73361E-02  7.08929E-02
  -7.38651E-04 -2.40945E-02 -1.02431E-01 -1.15340E-01 -1.89056E-01 -1.83950E-01 -2.37054E-01 -2.17298E-01 -2.44052E-01 -2.13873E-01
  -2.10956E-01 -1.86008E-01 -1.68366E-01 -1.59736E-01 -1.48039E-01 -1.44767E-01 -1.36118E-01 -1.33648E-01 -1.27873E-01 -1.24531E-01
  -1.19957E-01 -1.15435E-01 -1.10669E-01 -1.06458E-01 -1.00914E-01 -9.66105E-02 -9.02081E-02 -8.50061E-02 -7.88516E-02 -7.35330E-02
  -6.83518E-02 -6.38231E-02 -6.00826E-02 -5.73600E-02 -5.48201E-02 -5.22068E-02 -5.04925E-02 -4.83704E-02 -4.72864E-02 -4.56982E-02
  -4.47841E-02 -4.92149E-02 -4.77868E-02 -4.96971E-02 -4.69361E-02 -4.39805E-02 -4.57358E-02 -3.75251E-02 -3.63076E-02 -2.20566E-02
  -1.56540E-02  4.76679E-03  1.24733E-02  3.61797E-02  4.02369E-02  6.45422E-02  6.32843E-02  8.66776E-02  7.87913E-02  9.78639E-02
   8.40714E-02  9.68213E-02  7.95344E-02  8.32590E-02  6.33878E-02  5.80493E-02  3.67578E-02  2.47716E-02  2.03745E-03 -8.12317E-03
  -3.24539E-02 -3.52488E-02 -6.00553E-02 -6.50685E-02 -8.03967E-02 -8.55983E-02 -9.72388E-02 -9.62853E-02 -1.10267E-01 -9.65190E-02
  -1.16205E-01 -9.26600E-02 -1.10409E-01 -8.98093E-02 -9.79309E-02 -8.88853E-02 -8.68004E-02 -8.04827E-02 -7.59337E-02 -5.68219E-02
  -5.91503E-02 -1.94441E-02 -3.43604E-02  2.46141E-02 -4.02544E-03  6.75877E-02  2.75688E-02  1.08162E-01  5.29070E-02  1.34030E-01
   6.21878E-02  1.28020E-01  4.64381E-02  8.89636E-02  1.00962E-02  3.44147E-02 -2.78693E-02 -1.68157E-02 -5.47250E-02 -5.48955E-02
  -6.64461E-02 -7.17826E-02 -6.47713E-02 -6.46521E-02 -4.74754E-02 -3.38987E-02 -1.28091E-02  1.64349E-02  3.62170E-02  7.77994E-02
   9.13322E-02  1.36691E-01  1.40298E-01  1.79304E-01  1.71803E-01  1.98271E-01  1.81214E-01  1.93689E-01  1.74245E-01  1.74458E-01
   1.59357E-01  1.52800E-01  1.43322E-01  1.34781E-01  1.29007E-01  1.20928E-01  1.12237E-01  1.09506E-01  8.73745E-02  9.12286E-02
   5.04915E-02  5.42252E-02 -1.18736E-03 -4.82457E-03 -6.43906E-02 -7.48415E-02 -1.25144E-01 -1.38517E-01 -1.69270E-01 -1.82072E-01
  -1.92573E-01 -2.01294E-01 -1.91196E-01 -1.89937E-01 -1.76342E-01 -1.74997E-01 -1.58791E-01 -1.62233E-01 -8.54002E-02 -1.13305E-01
  -2.60543E-02 -8.23187E-02 -3.25649E-02 -1.03878E-01 -1.00070E-01 -1.70708E-01 -1.97621E-01 -2.59455E-01 -3.04695E-01 -3.49368E-01
  -3.93881E-01 -4.11937E-01 -4.51707E-01 -4.36199E-01 -4.77908E-01 -4.24430E-01 -4.63126E-01 -3.77573E-01 -4.03084E-01 -3.00692E-01
  -3.02110E-01 -2.07039E-01 -1.86916E-01 -1.16806E-01 -7.70351E-02 -3.75039E-02 -7.31570E-03  7.85626E-03  1.13979E-02  1.70498E-02
   1.37398E-02  1.63011E-02  1.03669E-02  1.17375E-02  5.00386E-03  6.01317E-03  6.23141E-06  1.23434E-03 -2.82728E-03 -8.44031E-04
  -2.31427E-03  7.24522E-04  2.00386E-03  6.03674E-03  9.41159E-03  1.38483E-02  1.81784E-02  2.21336E-02  2.65955E-02  2.95439E-02
   3.36962E-02  3.58252E-02  3.94505E-02  4.11316E-02  4.41384E-02  4.57096E-02  4.80774E-02  4.98364E-02  5.15281E-02  5.35205E-02
   5.45568E-02  5.66001E-02  5.69250E-02  5.87737E-02  5.84181E-02  5.98357E-02  5.87403E-02  5.95270E-02  5.77041E-02  5.76783E-02
   5.52429E-02  5.43182E-02  5.13994E-02  4.97348E-02  4.64411E-02  4.43205E-02  4.07908E-02  3.84285E-02  3.49518E-02  3.23841E-02
   2.91045E-02  2.64541E-02  2.34836E-02  2.08432E-02  1.82619E-02  1.56753E-02  1.34343E-02  1.09546E-02  8.89359E-03  5.52806E-03
  -2.58744E-03 -2.37528E-03 -1.41078E-02 -8.10406E-03 -1.00815E-02 -1.55455E-03  1.03924E-02  1.62975E-02  3.87424E-02  3.90022E-02
   6.79581E-02  6.14415E-02  9.35692E-02  8.07426E-02  1.13301E-01  9.54672E-02  1.27334E-01  1.05553E-01  1.33927E-01  1.09835E-01
   1.30540E-01  1.06740E-01  1.17010E-01  9.72964E-02  9.81743E-02  8.52920E-02  8.04620E-02  7.55844E-02  7.05709E-02  7.18706E-02
   7.15742E-02  7.47543E-02  7.67511E-02  7.92985E-02  7.98393E-02  8.09218E-02  7.97510E-02  7.92512E-02  7.66211E-02  7.46409E-02
   7.09810E-02  6.76453E-02  6.33772E-02  5.90588E-02  5.45456E-02  4.96282E-02  4.53131E-02  4.01956E-02  3.64073E-02  3.14973E-02
   2.85146E-02  2.42497E-02  2.22018E-02  1.89329E-02  1.78144E-02  1.56734E-02  1.53070E-02  1.43930E-02  1.46979E-02  1.49077E-02
   1.59261E-02  1.69214E-02  1.86303E-02  2.02007E-02  2.22086E-02  2.41519E-02  2.60434E-02  2.81078E-02  2.95562E-02  3.14532E-02
   3.23056E-02  3.38074E-02  3.41188E-02  3.50566E-02  3.48265E-02  3.50740E-02  3.43524E-02  3.39781E-02  3.28239E-02  3.19436E-02
   3.05254E-02  2.93022E-02  2.77713E-02  2.62978E-02  2.47621E-02  2.31649E-02  2.17650E-02  2.01440E-02  1.89534E-02  1.73025E-02
   1.60784E-02  1.43565E-02  1.27234E-02  1.06871E-02  8.30541E-03  5.72278E-03  2.34642E-03 -1.09936E-03 -5.82863E-03 -1.02489E-02
  -1.63193E-02 -2.17506E-02 -2.90105E-02 -3.52209E-02 -4.32362E-02 -4.97218E-02 -5.78390E-02 -6.40000E-02 -7.15265E-02 -7.69305E-02
  -8.31854E-02 -8.75315E-02 -9.20484E-02 -9.49857E-02 -9.75412E-02 -9.88335E-02 -9.95423E-02 -9.90489E-02 -9.81818E-02 -9.61100E-02
  -9.38432E-02 -9.05370E-02 -8.71221E-02 -8.30385E-02 -7.88889E-02 -7.42127E-02 -6.95578E-02 -6.46646E-02 -5.95272E-02 -5.47136E-02
  -4.92555E-02 -4.46231E-02 -3.90555E-02 -3.47249E-02 -2.93118E-02 -2.53602E-02 -2.03466E-02 -1.69238E-02 -1.24805E-02 -9.56467E-03
  -5.89416E-03 -3.40695E-03 -4.65047E-04  1.72738E-03  3.96729E-03  5.95581E-03  7.63208E-03  9.36600E-03  1.07189E-02  1.21570E-02
   1.32391E-02  1.44538E-02  1.53445E-02  1.63179E-02  1.70910E-02  1.77480E-02  1.85359E-02  1.91779E-02  1.98582E-02  2.03883E-02
   2.09674E-02  2.13019E-02  2.17747E-02  2.18361E-02  2.22803E-02  2.22409E-02  2.25534E-02  2.25177E-02  2.26081E-02  2.26699E-02
   2.25699E-02  2.27256E-02  2.24776E-02  2.26347E-02  2.23892E-02  2.25450E-02  2.23019E-02  2.25304E-02  2.23786E-02  2.28072E-02
   2.27918E-02  2.32869E-02  2.35256E-02  2.39301E-02  2.44810E-02  2.46488E-02  2.55514E-02  2.55379E-02  2.66947E-02  2.64587E-02
   2.78290E-02  2.73925E-02  2.90197E-02  2.85870E-02  3.03017E-02  2.99367E-02  3.15608E-02  3.13917E-02  3.29250E-02  3.29974E-02
   3.44308E-02  3.47576E-02  3.60035E-02  3.66205E-02  3.77499E-02  3.84745E-02  3.94815E-02  4.02767E-02  4.11465E-02  4.19289E-02
   4.27345E-02  4.34755E-02  4.43353E-02  4.50384E-02  4.58540E-02  4.65388E-02  4.73785E-02  4.81562E-02  4.91335E-02  5.01993E-02
   5.13481E-02  5.26746E-02  5.39466E-02  5.55887E-02  5.69504E-02  5.90681E-02  6.05185E-02  6.31091E-02  6.45950E-02  6.75963E-02
   6.91475E-02  7.24326E-02  7.41404E-02  7.76177E-02
 NY background values follow
     4.926E-02    4.909E-02    4.892E-02    4.875E-02    4.858E-02    4.840E-02    4.823E-02    4.806E-02    4.789E-02    4.772E-02
     4.754E-02    4.737E-02    4.720E-02    4.703E-02    4.686E-02    4.668E-02    4.651E-02    4.634E-02    4.617E-02    4.599E-02
     4.582E-02    4.565E-02    4.548E-02    4.531E-02    4.513E-02    4.496E-02    4.479E-02    4.462E-02    4.445E-02    4.427E-02
     4.410E-02    4.393E-02    4.376E-02    4.359E-02    4.341E-02    4.324E-02    4.307E-02    4.290E-02    4.273E-02    4.255E-02
     4.238E-02    4.221E-02    4.204E-02    4.187E-02    4.169E-02    4.152E-02    4.135E-02    4.118E-02    4.101E-02    4.083E-02
     4.066E-02    4.049E-02    4.032E-02    4.015E-02    3.997E-02    3.980E-02    3.963E-02    3.946E-02    3.929E-02    3.911E-02
     3.894E-02    3.877E-02    3.860E-02    3.843E-02    3.825E-02    3.808E-02    3.791E-02    3.774E-02    3.757E-02    3.739E-02
