 LCModel (Version 6.3-1N) Copyright: S.W. Provencher.          Ref.: Magn. Reson. Med. 30:672-679 (1993).                
 Slice_N1@22_19  02-Jun-2023 14:37:27
 27 lines in following concentration table = NCONC+1
    Conc.  %SD /Cr+PCr  Metabolite                                         
 9.15E-07  35% 1.3E-04 Mac                                                 
 4.39E-02  25%   6.013 Cr                                                  
 1.45E-02  69%   1.987 PCr                                                 
 7.27E-02  13%   9.961 Ins                                                 
 5.29E-02  13%   7.253 NAA                                                 
 5.17E-02  16%   7.082 Tau                                                 
 1.56E-02  14%   2.136 PCho                                                
    0.000 999%   0.000 GPC                                                 
 6.93E-02  14%   9.493 Glu                                                 
 1.81E-02  40%   2.477 Gln                                                 
    0.000 999%   0.000 Ala                                                 
    0.000 999%   0.000 Asc                                                 
 9.11E-03  65%   1.249 Asp                                                 
 4.19E-03  80%   0.574 GABA                                                
 6.58E-03  57%   0.903 Glc                                                 
 8.44E-03  50%   1.157 GSH                                                 
 3.98E-03 194%   0.546 Lac                                                 
 2.10E-03 257%   0.288 NAAG                                                
    0.000 999%   0.000 PE                                                  
 1.56E-02  14%   2.136 GPC+PCho                                            
 5.50E-02  13%   7.540 NAA+NAAG                                            
 8.73E-02  13%  11.970 Glu+Gln                                             
 5.84E-02  11%   8.000 Cr+PCr                                              
 5.50E-02  13%   7.540 NAA+NAAG                                            
 5.84E-02  11%   8.000 Cr+PCr                                              
 8.73E-02  13%  11.970 Glu+Gln                                             
   6 lines in following misc. output table
  FWHM = 0.029 ppm    S/N =   2                                            
  Data shift = 0.006 ppm                                                   
  Ph:  26 deg       0.9 deg/ppm                                            
  alphaB,S = 3.1E+01,   1.1E+01                                            
   18 spline knots.   Ns = 8(1)                                            
   5 inflections.     1 extrema                                            
  654 points on ppm-axis = NY
      4.000000     3.994181     3.988363     3.982544     3.976726     3.970907     3.965088     3.959270     3.953451     3.947633
      3.941814     3.935995     3.930177     3.924358     3.918540     3.912721     3.906902     3.901084     3.895265     3.889446
      3.883628     3.877809     3.871991     3.866172     3.860353     3.854535     3.848716     3.842898     3.837079     3.831260
      3.825442     3.819623     3.813805     3.807986     3.802167     3.796349     3.790530     3.784712     3.778893     3.773074
      3.767256     3.761437     3.755619     3.749800     3.743981     3.738163     3.732344     3.726526     3.720707     3.714888
      3.709070     3.703251     3.697433     3.691614     3.685795     3.679977     3.674158     3.668339     3.662521     3.656702
      3.650884     3.645065     3.639246     3.633428     3.627609     3.621791     3.615972     3.610153     3.604335     3.598516
      3.592698     3.586879     3.581060     3.575242     3.569423     3.563605     3.557786     3.551967     3.546149     3.540330
      3.534512     3.528693     3.522874     3.517056     3.511237     3.505419     3.499600     3.493781     3.487963     3.482144
      3.476326     3.470507     3.464688     3.458870     3.453051     3.447232     3.441414     3.435595     3.429777     3.423958
      3.418139     3.412321     3.406502     3.400684     3.394865     3.389046     3.383228     3.377409     3.371591     3.365772
      3.359953     3.354135     3.348316     3.342498     3.336679     3.330860     3.325042     3.319223     3.313405     3.307586
      3.301767     3.295949     3.290130     3.284312     3.278493     3.272674     3.266856     3.261037     3.255219     3.249400
      3.243581     3.237763     3.231944     3.226125     3.220307     3.214488     3.208670     3.202851     3.197032     3.191214
      3.185395     3.179577     3.173758     3.167939     3.162121     3.156302     3.150484     3.144665     3.138846     3.133028
      3.127209     3.121391     3.115572     3.109753     3.103935     3.098116     3.092298     3.086479     3.080660     3.074842
      3.069023     3.063205     3.057386     3.051567     3.045749     3.039930     3.034111     3.028293     3.022474     3.016656
      3.010837     3.005018     2.999200     2.993381     2.987563     2.981744     2.975925     2.970107     2.964288     2.958470
      2.952651     2.946832     2.941014     2.935195     2.929377     2.923558     2.917739     2.911921     2.906102     2.900284
      2.894465     2.888646     2.882828     2.877009     2.871191     2.865372     2.859553     2.853735     2.847916     2.842098
      2.836279     2.830460     2.824642     2.818823     2.813004     2.807186     2.801367     2.795549     2.789730     2.783911
      2.778093     2.772274     2.766456     2.760637     2.754818     2.749000     2.743181     2.737363     2.731544     2.725725
      2.719907     2.714088     2.708270     2.702451     2.696632     2.690814     2.684995     2.679177     2.673358     2.667539
      2.661721     2.655902     2.650084     2.644265     2.638446     2.632628     2.626809     2.620991     2.615172     2.609353
      2.603535     2.597716     2.591897     2.586079     2.580260     2.574442     2.568623     2.562804     2.556986     2.551167
      2.545349     2.539530     2.533711     2.527893     2.522074     2.516256     2.510437     2.504618     2.498800     2.492981
      2.487163     2.481344     2.475525     2.469707     2.463888     2.458070     2.452251     2.446432     2.440614     2.434795
      2.428977     2.423158     2.417339     2.411521     2.405702     2.399884     2.394065     2.388246     2.382428     2.376609
      2.370790     2.364972     2.359153     2.353335     2.347516     2.341697     2.335879     2.330060     2.324242     2.318423
      2.312604     2.306786     2.300967     2.295149     2.289330     2.283511     2.277693     2.271874     2.266056     2.260237
      2.254418     2.248600     2.242781     2.236963     2.231144     2.225325     2.219507     2.213688     2.207870     2.202051
      2.196232     2.190414     2.184595     2.178777     2.172958     2.167139     2.161321     2.155502     2.149683     2.143865
      2.138046     2.132228     2.126409     2.120590     2.114772     2.108953     2.103135     2.097316     2.091497     2.085679
      2.079860     2.074042     2.068223     2.062404     2.056586     2.050767     2.044949     2.039130     2.033311     2.027493
      2.021674     2.015856     2.010037     2.004218     1.998400     1.992581     1.986763     1.980944     1.975126     1.969307
      1.963489     1.957670     1.951852     1.946033     1.940215     1.934397     1.928578     1.922760     1.916941     1.911123
      1.905304     1.899486     1.893667     1.887849     1.882030     1.876212     1.870393     1.864575     1.858756     1.852938
      1.847119     1.841301     1.835482     1.829664     1.823845     1.818027     1.812208     1.806390     1.800571     1.794753
      1.788934     1.783116     1.777297     1.771479     1.765660     1.759842     1.754023     1.748205     1.742386     1.736568
      1.730749     1.724931     1.719113     1.713294     1.707476     1.701657     1.695839     1.690020     1.684202     1.678383
      1.672565     1.666746     1.660928     1.655109     1.649291     1.643472     1.637654     1.631835     1.626017     1.620198
      1.614380     1.608561     1.602743     1.596924     1.591106     1.585287     1.579469     1.573650     1.567832     1.562013
      1.556195     1.550376     1.544558     1.538739     1.532921     1.527102     1.521284     1.515465     1.509647     1.503829
      1.498010     1.492192     1.486373     1.480555     1.474736     1.468918     1.463099     1.457281     1.451462     1.445644
      1.439825     1.434007     1.428188     1.422370     1.416551     1.410733     1.404914     1.399096     1.393277     1.387459
      1.381640     1.375822     1.370003     1.364185     1.358366     1.352548     1.346729     1.340911     1.335092     1.329274
      1.323455     1.317637     1.311818     1.306000     1.300182     1.294363     1.288545     1.282726     1.276908     1.271089
      1.265271     1.259452     1.253634     1.247815     1.241997     1.236178     1.230360     1.224541     1.218723     1.212904
      1.207086     1.201267     1.195449     1.189630     1.183812     1.177993     1.172175     1.166356     1.160538     1.154719
      1.148901     1.143082     1.137264     1.131445     1.125627     1.119808     1.113990     1.108171     1.102353     1.096534
      1.090716     1.084898     1.079079     1.073261     1.067442     1.061624     1.055805     1.049987     1.044168     1.038350
      1.032531     1.026713     1.020894     1.015076     1.009257     1.003439     0.997620     0.991802     0.985983     0.980165
      0.974346     0.968528     0.962709     0.956891     0.951072     0.945254     0.939435     0.933617     0.927798     0.921980
      0.916161     0.910343     0.904524     0.898706     0.892887     0.887069     0.881251     0.875432     0.869614     0.863795
      0.857977     0.852158     0.846340     0.840521     0.834703     0.828884     0.823066     0.817247     0.811429     0.805610
      0.799792     0.793973     0.788155     0.782336     0.776518     0.770699     0.764881     0.759062     0.753244     0.747425
      0.741607     0.735788     0.729970     0.724151     0.718333     0.712514     0.706696     0.700877     0.695059     0.689240
      0.683422     0.677603     0.671785     0.665967     0.660148     0.654330     0.648511     0.642693     0.636874     0.631056
      0.625237     0.619419     0.613600     0.607782     0.601963     0.596145     0.590326     0.584508     0.578689     0.572871
      0.567052     0.561234     0.555415     0.549597     0.543778     0.537960     0.532141     0.526323     0.520504     0.514686
      0.508867     0.503049     0.497230     0.491412     0.485593     0.479775     0.473956     0.468138     0.462319     0.456501
      0.450682     0.444864     0.439045     0.433227     0.427408     0.421590     0.415771     0.409953     0.404134     0.398316
      0.392497     0.386679     0.380860     0.375042     0.369223     0.363405     0.357586     0.351767     0.345949     0.340130
      0.334312     0.328493     0.322675     0.316856     0.311038     0.305219     0.299401     0.293582     0.287764     0.281945
      0.276127     0.270308     0.264490     0.258671     0.252853     0.247034     0.241216     0.235397     0.229579     0.223760
      0.217942     0.212123     0.206305     0.200486
 NY phased data points follow
  -1.06206E-01 -3.90292E-01 -1.34383E-01 -2.71164E-01 -1.87206E-01 -5.62528E-01 -3.82710E-01 -3.26311E-01 -5.40565E-01 -3.36550E-01
  -2.26563E-01 -2.60660E-02  8.64014E-02  4.83995E-01 -2.39837E-02  6.56584E-02  1.00305E-01  3.69888E-01  4.20366E-01 -7.56305E-02
   1.54202E-01  3.30346E-01  3.14702E-01  4.50611E-03 -3.99542E-03 -1.68309E-01 -1.89075E-02  1.27821E-02 -1.05841E-01 -3.04730E-02
   2.76471E-01 -1.72552E-01 -3.17174E-01  2.12104E-01 -2.69228E-02 -1.10413E-01 -3.25094E-01 -8.61454E-02 -8.29968E-02 -2.48980E-01
  -8.84623E-02 -8.44879E-02  2.67771E-01  5.85581E-01  5.24439E-02  6.76954E-02  4.59258E-01  1.78447E-01  1.74443E-01  3.37926E-01
   1.06530E-01 -1.22083E-01  8.73003E-02  8.35499E-02  6.67711E-02 -2.71952E-01 -7.07758E-02 -1.26574E-01 -1.77564E-01  2.02324E-02
  -1.35364E-01  3.79816E-02 -4.91757E-01 -2.74567E-01 -1.66155E-01 -1.96661E-01 -3.93109E-02  1.29008E-03  1.06338E-01 -2.20274E-01
  -3.49393E-02  1.20217E-01  6.15774E-02  1.12828E-01 -2.11375E-01 -1.38501E-01  2.26611E-01 -1.27687E-01 -7.15066E-02 -7.09213E-02
  -1.85541E-01 -5.80055E-01 -4.27181E-01  2.48010E-02 -1.01843E-01  1.49296E-01 -5.65711E-02  2.42479E-01  1.43331E-01  6.77282E-02
   1.94612E-01  2.87763E-02  2.31420E-01  1.15686E-01  2.90612E-01  1.37259E-01 -3.47127E-01 -4.02729E-02  5.11474E-01  1.44265E-01
  -1.56608E-02 -4.55474E-02 -4.98151E-02  3.06302E-02 -2.54965E-01 -6.67736E-02  1.50057E-01  4.50277E-01  5.48018E-01  4.10183E-01
   4.83108E-01  5.73950E-01  2.72075E-01  4.23819E-01  4.92069E-01  2.68646E-01  5.18534E-01  1.17638E-01  1.01204E-01  4.13775E-01
   3.48472E-01  9.35843E-03  1.79863E-01  2.50560E-01 -6.30375E-02  1.09828E-01 -6.97652E-02 -5.95130E-02 -1.33056E-01 -2.22574E-01
  -8.70581E-02 -1.74756E-01 -3.59759E-01 -3.54567E-01 -4.17636E-01 -3.27505E-01 -4.47036E-01 -4.82707E-01 -6.82361E-01 -8.80190E-01
  -6.48610E-02 -4.59100E-01 -6.40439E-01 -4.23642E-01 -1.97154E-01 -3.05213E-01 -2.25929E-01  1.08238E-01 -2.03088E-01  3.91652E-01
   1.04896E-01  1.09861E-01  2.99014E-01  1.84389E-01  9.85172E-03  8.41972E-02  1.48311E-01  1.28188E-01  3.62765E-01  7.18079E-02
   5.36019E-01  1.83687E-01  3.60238E-01  5.09722E-01  3.11198E-01  5.85020E-01  3.86194E-01  6.67492E-01  3.60125E-01 -2.09022E-01
  -2.51150E-01 -3.82261E-01 -7.37640E-01 -5.45709E-01 -4.30871E-01 -2.27464E-01 -1.23896E-01 -3.24246E-01 -3.00784E-01 -4.77833E-01
  -3.87076E-01 -2.64114E-01 -2.29875E-01 -2.44694E-01 -5.84122E-01 -1.32669E-01  2.96318E-02 -3.99922E-01  4.29118E-02 -3.72301E-01
  -3.15035E-01 -8.67999E-02 -2.62471E-01  4.65702E-02 -3.60832E-02 -3.30351E-02 -2.40925E-01 -1.43256E-01 -1.73563E-02 -8.77540E-02
   1.14329E-02  1.83561E-01 -1.26431E-01 -2.55870E-01  2.07340E-01  9.45382E-03 -3.91135E-01 -1.63342E-02  2.91315E-01 -1.78412E-03
  -5.60169E-02  3.02397E-02  2.75840E-04  6.63463E-02  4.18492E-01 -7.84602E-02 -3.30278E-01  1.44259E-01  5.37984E-02  3.24337E-02
   7.04245E-02  1.14643E-01  1.19033E-01  2.96669E-02  2.62673E-01  2.75103E-01  9.48615E-02  5.51685E-01  3.30154E-01  3.11864E-02
   1.23636E-01  2.11740E-01  3.09339E-01  7.46926E-02  2.52582E-01  1.41434E-01  7.71820E-02  1.49705E-01 -1.46100E-01 -1.96579E-01
  -1.80805E-02  9.32721E-02 -5.61087E-02 -9.83591E-02  1.06540E-01  3.60485E-03 -7.59761E-03 -1.23878E-01 -2.73943E-01 -1.19673E-02
   1.58783E-01  1.39809E-01  9.81510E-02  1.95840E-01  2.47181E-02  1.22408E-02  1.06415E-01  1.96499E-01 -2.77851E-02 -1.78865E-01
   3.05546E-02  3.44236E-02  6.20881E-02 -5.86886E-02 -4.97361E-02 -7.63933E-05  2.39579E-01  2.50788E-01  9.70337E-02  9.81449E-02
   2.77601E-01  2.70369E-01  5.95357E-02  3.31653E-02 -2.33478E-01 -2.60843E-02  2.20097E-01 -8.88286E-02 -4.20909E-02 -2.49297E-01
  -5.02668E-01 -1.82908E-01 -3.84911E-01 -2.56827E-01 -2.96370E-01 -1.31541E-01  2.54072E-01  1.84966E-01  1.72715E-01  2.93376E-01
   4.91561E-01  1.60216E-01  2.69734E-01  1.28822E-01  2.92952E-01  1.83133E-01  3.48703E-01 -2.20169E-02 -3.68089E-01  3.85368E-01
  -6.47106E-02  3.24713E-01  7.99436E-02  1.67816E-01  2.65730E-01  8.80880E-02  3.14234E-01  1.35244E-01  2.44220E-01 -4.42376E-02
   2.01540E-01  1.20638E-01  3.33261E-01  2.15554E-01  1.16975E-01  1.70662E-01 -2.01990E-01  1.88159E-01  2.11057E-01 -8.47178E-02
  -8.38990E-02 -1.88149E-01 -4.76706E-01 -2.07594E-01 -2.68081E-01 -3.28028E-01 -2.43033E-01 -3.93625E-01 -2.35538E-01 -1.02395E-01
  -4.38557E-02 -5.66024E-02 -2.22686E-01 -2.00493E-01  6.92158E-02 -1.26596E-01 -1.83079E-01 -2.14141E-01 -3.95005E-01 -2.00188E-01
  -1.63641E-01 -2.14407E-01 -3.82322E-01 -8.54872E-01 -7.65756E-01 -4.67726E-01 -4.75386E-01 -4.28113E-01 -2.96977E-01 -1.33254E-01
   4.37046E-02  2.08191E-01  2.88391E-01  3.17194E-01 -6.98690E-02  2.44185E-01  2.12626E-01 -2.82172E-01  6.21363E-02 -6.41246E-02
   6.56240E-02  2.78239E-01  1.49566E-01 -2.79771E-02 -7.01482E-02  1.12652E-02 -7.26774E-03  4.31382E-02 -3.20612E-02  3.44508E-02
   6.93200E-02  5.57176E-02  2.11014E-01  6.49638E-02 -1.49448E-01  2.21205E-01  1.17885E-01 -2.13602E-01  8.01128E-02  1.19113E-01
   1.11245E-01  3.23827E-01  4.74221E-02 -5.16731E-02  4.29129E-01  4.02052E-01  1.92262E-01  2.68225E-01  1.65798E-01  4.81947E-02
   6.98090E-02 -1.36695E-01 -8.19020E-02  1.89942E-01  2.64496E-01  3.24296E-01  3.03889E-01  6.48425E-02  3.96637E-02  5.09717E-02
  -1.20795E-01  1.38791E-01 -7.40195E-03  2.30150E-02  1.17404E-02 -7.33881E-02 -6.50564E-02 -2.11859E-01 -5.63904E-03 -3.07536E-02
   1.72667E-01  1.82518E-02  2.50102E-01 -3.09144E-02 -6.78719E-02  3.18190E-01 -1.89591E-01  5.24223E-02 -2.62826E-01 -1.21752E-01
   1.52685E-02 -7.93604E-02  7.79130E-02  3.34476E-03  2.70277E-02 -7.79805E-03  1.01719E-02 -2.82971E-01  2.06013E-02 -1.34076E-01
  -3.49807E-01 -3.84311E-01 -8.89599E-02  1.51964E-01 -1.67421E-01  2.24210E-02 -2.43335E-02  1.93000E-01  3.17063E-02 -7.60626E-02
  -2.88292E-02  5.05475E-02  1.41577E-01  1.92967E-03  1.71980E-01 -1.22722E-01  9.61131E-03  2.53105E-01  2.39359E-02  1.11376E-01
   1.52363E-01 -1.84695E-01  2.07840E-01  2.00355E-01 -1.59380E-01  7.18705E-02 -1.50849E-02  1.22859E-01 -2.15088E-01 -7.87090E-02
  -1.00178E-04 -1.56558E-01  2.96980E-01  3.55764E-01  4.59827E-01  1.20250E-01  2.45244E-02 -7.46607E-02 -1.53867E-01  1.20475E-02
  -2.24914E-01 -5.28138E-02 -1.60704E-01 -2.68311E-01 -1.62389E-01 -2.31211E-01  1.58069E-01 -1.29089E-01 -3.29087E-01  1.28194E-01
  -1.66699E-01 -3.01636E-01 -5.00755E-01 -2.13711E-01  2.41860E-01 -7.80724E-02 -3.23483E-02 -7.61699E-02 -4.11498E-02  1.16474E-01
   5.51109E-02  6.19708E-02  2.38862E-02  3.56846E-03  1.49738E-01 -8.17308E-02 -9.96975E-02  9.12941E-02  7.31244E-02  2.25374E-01
   1.50694E-01  2.85105E-02  9.91013E-02  6.29605E-02 -2.30508E-01  2.22131E-01  4.93250E-02  1.29143E-02  6.77375E-01  2.66953E-01
   2.80062E-01  1.09165E-01 -4.13117E-02  1.55144E-01 -4.95060E-02 -1.07728E-01 -3.32402E-02  1.25166E-01  7.43412E-02 -1.77949E-01
  -5.71771E-02 -1.11828E-01 -1.64004E-01 -1.41965E-01 -3.59438E-01 -8.74402E-02 -1.31301E-01 -3.35202E-01 -3.87395E-01 -3.02502E-01
  -2.68253E-01  1.15039E-01  4.91368E-02 -3.56597E-01  1.57750E-01 -5.81704E-02 -3.21038E-01 -1.55555E-01  1.35092E-01  7.79379E-03
   1.05887E-01  2.61816E-01 -1.70334E-01 -1.96313E-01 -2.79776E-01 -1.48682E-01 -1.56662E-01 -4.06509E-02  4.23542E-02 -6.12830E-02
   1.89924E-03  7.15904E-02  2.67055E-03  9.02952E-02  3.49909E-01  1.10017E-02  1.62377E-01  9.82554E-02 -2.54649E-01  1.12912E-01
   1.71964E-01 -1.08506E-01 -1.75321E-01  1.17982E-01 -3.87927E-02 -1.76370E-01  1.38755E-01  2.19937E-02  6.46175E-02  1.42049E-01
   1.36146E-02  1.29727E-01  3.44309E-01  2.82796E-02  2.30853E-02  2.74505E-01 -9.22489E-02  4.86461E-02  4.78998E-03 -9.35536E-02
  -3.46928E-02 -1.38814E-01  2.59607E-01  2.61105E-01 -1.00146E-01 -1.52232E-01 -3.61824E-02  1.93896E-01 -1.25631E-01 -2.81642E-02
   1.23158E-01 -2.62503E-01  2.72961E-01  2.43772E-02 -3.66033E-02  3.08870E-01  2.30205E-01  1.35497E-01 -1.30807E-01  1.76138E-01
   1.55448E-01  3.31255E-01  1.80485E-01 -2.90639E-02  8.18045E-02 -6.08587E-02  6.20824E-02  1.10378E-02  1.03275E-01  1.13710E-01
  -1.58945E-01  1.75041E-01  2.66531E-01  5.04736E-04  6.50089E-02 -7.81049E-03 -3.20470E-02 -1.47095E-01  2.49976E-01  1.01905E-01
   2.12267E-03  1.45236E-01 -7.39844E-02  1.41235E-01 -4.87176E-02 -4.26585E-02 -2.05344E-01  1.11378E-01  1.44915E-01  7.03076E-02
   2.92933E-01  4.09733E-03  1.83020E-01  3.60998E-02 -3.02266E-01 -1.73604E-01  1.17331E-02 -6.90464E-02 -9.05809E-02 -8.14599E-02
   3.24196E-01 -2.00563E-02 -2.11413E-01 -7.98197E-02 -2.42073E-01  2.60670E-01  1.57146E-01  3.10211E-01  1.93202E-01  1.24072E-01
   2.17689E-01 -1.11334E-02  2.82064E-02  1.24581E-01
 NY points of the fit to the data follow
  -3.73312E-02 -3.43340E-02 -3.15991E-02 -2.99454E-02 -3.25240E-02 -3.23927E-02 -1.95391E-02 -1.11786E-02 -1.58928E-02 -1.36949E-02
   1.75554E-02  7.11547E-02  1.43118E-01  1.97781E-01  1.74378E-01  1.95157E-01  3.30737E-01  4.55510E-01  3.90106E-01  2.50132E-01
   2.36074E-01  2.23502E-01  1.53904E-01  6.21283E-02  2.25263E-02 -9.48949E-03 -2.80180E-02 -4.29349E-02 -5.59874E-02 -6.68917E-02
  -7.68799E-02 -8.73569E-02 -9.78355E-02 -1.14123E-01 -1.33560E-01 -1.43280E-01 -1.48088E-01 -1.44810E-01 -1.40276E-01 -1.36165E-01
  -1.02253E-01 -3.77671E-02  5.87450E-02  1.28654E-01  1.79856E-01  2.29342E-01  2.46078E-01  2.33007E-01  1.87482E-01  1.54290E-01
   1.09672E-01  6.98876E-02  2.90986E-02  7.39258E-04 -2.68728E-02 -5.66742E-02 -9.18270E-02 -1.28105E-01 -1.53076E-01 -1.94713E-01
  -2.38040E-01 -2.63870E-01 -2.96288E-01 -2.89504E-01 -2.49704E-01 -1.98009E-01 -1.55555E-01 -9.85493E-02  2.92370E-02  1.09883E-01
   1.65926E-01  2.45104E-01  2.77692E-01  2.46413E-01  1.85086E-01  1.34131E-01  6.59309E-02 -8.24203E-03 -6.45283E-02 -1.34485E-01
  -2.39792E-01 -3.01223E-01 -2.42769E-01 -1.25878E-01 -8.94506E-02 -2.67367E-02  1.45540E-01  2.65278E-01  2.80168E-01  2.88871E-01
   3.17203E-01  3.03626E-01  2.66068E-01  2.27578E-01  1.72428E-01  1.25572E-01  8.20754E-02  3.60483E-02 -4.86798E-03 -7.22474E-02
  -1.24512E-01 -1.62545E-01 -1.40637E-01 -7.17687E-02 -2.57688E-03  8.52134E-02  1.42456E-01  2.01211E-01  2.37950E-01  2.70828E-01
   2.72621E-01  2.71224E-01  2.67259E-01  2.63401E-01  2.60585E-01  2.61565E-01  2.61487E-01  2.52577E-01  2.48570E-01  2.41205E-01
   2.23043E-01  2.20350E-01  1.97749E-01  1.48101E-01  9.48700E-02  4.11124E-02 -1.41546E-02 -9.43298E-02 -1.25739E-01 -1.16792E-01
  -1.71943E-01 -2.82623E-01 -3.61250E-01 -3.94493E-01 -3.81439E-01 -2.78913E-01 -2.77965E-01 -4.70888E-01 -7.39465E-01 -7.15549E-01
  -4.63575E-01 -4.35244E-01 -4.52503E-01 -3.52515E-01 -1.66240E-01 -9.00145E-02 -3.12441E-02  4.53243E-03  3.08867E-02  5.20534E-02
   7.01663E-02  8.63118E-02  1.01468E-01  1.15827E-01  1.29760E-01  1.43796E-01  1.58597E-01  1.74095E-01  1.90024E-01  2.16519E-01
   2.74628E-01  3.45587E-01  3.79510E-01  3.71069E-01  3.46869E-01  3.52545E-01  4.16020E-01  4.41629E-01  2.61028E-01 -9.18985E-02
  -3.34913E-01 -3.64061E-01 -3.85022E-01 -4.81227E-01 -5.13994E-01 -4.47960E-01 -3.65987E-01 -3.06169E-01 -2.60483E-01 -2.34993E-01
  -2.21209E-01 -2.02542E-01 -1.84393E-01 -1.68582E-01 -1.62979E-01 -1.57516E-01 -1.51308E-01 -1.45727E-01 -1.39472E-01 -1.34908E-01
  -1.30458E-01 -1.27225E-01 -1.19592E-01 -1.12788E-01 -1.06457E-01 -1.00675E-01 -9.30064E-02 -8.54055E-02 -7.86450E-02 -7.29931E-02
  -6.84675E-02 -6.20967E-02 -5.27335E-02 -4.34025E-02 -4.00315E-02 -4.35083E-02 -4.46665E-02 -3.90048E-02 -3.25889E-02 -3.42800E-02
  -4.31482E-02 -4.89537E-02 -4.90108E-02 -4.96017E-02 -5.29180E-02 -5.49683E-02 -5.41959E-02 -5.38324E-02 -5.42700E-02 -4.68178E-02
  -3.45755E-02 -2.44267E-02 -1.67461E-02 -1.45781E-02  1.74114E-03  4.78443E-02  1.05796E-01  1.27922E-01  1.02341E-01  9.87576E-02
   1.37897E-01  1.62801E-01  1.37927E-01  8.93405E-02  6.00493E-02  4.40277E-02  1.67476E-02 -1.62104E-02 -4.03843E-02 -5.33543E-02
  -6.41286E-02 -7.10994E-02 -7.67015E-02 -8.15208E-02 -8.37426E-02 -8.59008E-02 -8.81327E-02 -8.99313E-02 -9.35181E-02 -9.68705E-02
  -1.01615E-01 -9.76052E-02 -9.66875E-02 -1.01336E-01 -1.01551E-01 -1.06565E-01 -9.87516E-02 -7.88656E-02 -4.78170E-02 -3.96614E-02
  -3.74785E-02  7.05904E-03  3.49945E-02  2.75940E-02  1.94667E-02  4.37621E-02  5.91887E-02  4.00329E-02  3.78316E-02  4.80503E-02
   5.13804E-02  4.75553E-02  3.50609E-02  2.22647E-02 -1.76558E-03 -3.19477E-02 -7.19637E-02 -1.18319E-01 -1.60283E-01 -1.89675E-01
  -2.20928E-01 -2.44307E-01 -2.64675E-01 -2.59846E-01 -2.10429E-01 -1.25654E-01 -5.58744E-03  9.85559E-02  1.88430E-01  2.57571E-01
   2.84410E-01  2.89637E-01  2.82893E-01  2.61879E-01  2.28439E-01  2.03396E-01  1.89140E-01  1.80552E-01  1.72567E-01  1.66633E-01
   1.60050E-01  1.54991E-01  1.48130E-01  1.41879E-01  1.33790E-01  1.26235E-01  1.18722E-01  1.11414E-01  1.03135E-01  9.45564E-02
   8.44795E-02  7.06905E-02  5.52363E-02  3.53530E-02  1.44819E-02 -1.12120E-02 -4.27423E-02 -8.00086E-02 -1.26851E-01 -1.65662E-01
  -2.02389E-01 -2.28960E-01 -2.48716E-01 -2.51977E-01 -2.41121E-01 -2.22725E-01 -1.86247E-01 -1.45347E-01 -9.39902E-02 -6.05822E-02
  -3.26737E-02 -3.51935E-02 -4.06620E-02 -5.77685E-02 -5.57111E-02 -4.53366E-02 -1.18710E-01 -1.98867E-01 -2.61776E-01 -2.85754E-01
  -2.38187E-01 -2.79781E-01 -4.84425E-01 -7.79678E-01 -7.90413E-01 -5.42750E-01 -4.55945E-01 -4.60824E-01 -3.64588E-01 -1.75717E-01
  -8.33756E-02 -3.38412E-02 -7.22872E-03  8.01361E-03  1.80217E-02  2.48339E-02  2.97208E-02  3.28314E-02  3.46941E-02  3.39975E-02
   3.23349E-02  2.89187E-02  2.47607E-02  2.10820E-02  1.66323E-02  1.43161E-02  1.28565E-02  1.38849E-02  1.61544E-02  1.93694E-02
   2.29452E-02  2.66128E-02  3.05889E-02  3.41327E-02  3.75806E-02  4.01673E-02  4.21455E-02  4.40134E-02  4.59311E-02  4.76966E-02
   4.92015E-02  5.04532E-02  5.14499E-02  5.25499E-02  5.37929E-02  5.49585E-02  5.60823E-02  5.68116E-02  5.75810E-02  5.82757E-02
   5.91975E-02  6.00765E-02  6.08772E-02  6.16688E-02  6.20049E-02  6.18817E-02  6.12626E-02  6.06174E-02  5.96776E-02  5.83272E-02
   5.65490E-02  5.45812E-02  5.24571E-02  5.01492E-02  4.76105E-02  4.45876E-02  4.16995E-02  3.92746E-02  3.67770E-02  3.40317E-02
   3.14347E-02  2.93371E-02  2.72275E-02  2.51844E-02  2.34710E-02  2.19491E-02  2.04028E-02  1.89986E-02  1.77052E-02  1.64641E-02
   1.54961E-02  1.47084E-02  1.39456E-02  1.33291E-02  1.33135E-02  1.37740E-02  1.42306E-02  1.48681E-02  1.58089E-02  1.71002E-02
   1.86688E-02  2.05502E-02  2.21259E-02  2.30529E-02  2.43337E-02  2.62505E-02  2.86333E-02  3.10208E-02  3.35011E-02  3.61127E-02
   3.91633E-02  4.26855E-02  4.64454E-02  5.03947E-02  5.44068E-02  5.85220E-02  6.25146E-02  6.66308E-02  7.04387E-02  7.37536E-02
   7.63816E-02  7.82714E-02  7.92110E-02  7.83649E-02  7.68835E-02  7.65164E-02  7.60678E-02  7.75440E-02  7.79243E-02  7.48323E-02
   7.47472E-02  7.82741E-02  8.82417E-02  9.37487E-02  9.43877E-02  9.17794E-02  8.26749E-02  7.64800E-02  6.88629E-02  6.07012E-02
   5.05093E-02  4.50934E-02  4.09227E-02  3.76747E-02  3.51644E-02  3.33491E-02  3.23936E-02  3.20907E-02  3.21064E-02  3.25666E-02
   3.34941E-02  3.46444E-02  3.59611E-02  3.76273E-02  3.95405E-02  4.11255E-02  4.26046E-02  4.39355E-02  4.48853E-02  4.56581E-02
   4.65806E-02  4.74944E-02  4.78072E-02  4.76322E-02  4.74417E-02  4.71575E-02  4.65245E-02  4.53959E-02  4.39003E-02  4.26739E-02
   4.15421E-02  4.00682E-02  3.83248E-02  3.68370E-02  3.55273E-02  3.40670E-02  3.24539E-02  3.07390E-02  2.91697E-02  2.77890E-02
   2.65581E-02  2.50568E-02  2.32981E-02  2.17502E-02  2.02602E-02  1.81611E-02  1.52958E-02  1.22380E-02  9.10395E-03  5.56344E-03
   1.42901E-03 -3.44649E-03 -9.03943E-03 -1.51026E-02 -2.12498E-02 -2.74998E-02 -3.39944E-02 -4.01894E-02 -4.56795E-02 -5.06329E-02
  -5.53599E-02 -5.93295E-02 -6.19106E-02 -6.31033E-02 -6.38758E-02 -6.43791E-02 -6.36432E-02 -6.15379E-02 -5.91320E-02 -5.67745E-02
  -5.41276E-02 -5.11822E-02 -4.80807E-02 -4.47715E-02 -4.10878E-02 -3.74952E-02 -3.37395E-02 -2.94204E-02 -2.50839E-02 -2.08231E-02
  -1.67667E-02 -1.26280E-02 -8.63338E-03 -4.70619E-03 -8.34271E-04  2.53802E-03  5.41033E-03  8.42441E-03  1.17052E-02  1.44290E-02
   1.63813E-02  1.81278E-02  2.03827E-02  2.23057E-02  2.35843E-02  2.46562E-02  2.57286E-02  2.67085E-02  2.77083E-02  2.85483E-02
   2.89705E-02  2.94614E-02  3.03628E-02  3.11620E-02  3.17349E-02  3.26107E-02  3.34517E-02  3.38852E-02  3.42373E-02  3.46965E-02
   3.49561E-02  3.49761E-02  3.51047E-02  3.53109E-02  3.54807E-02  3.56009E-02  3.55453E-02  3.54504E-02  3.57562E-02  3.62970E-02
   3.65733E-02  3.62783E-02  3.56769E-02  3.55839E-02  3.60793E-02  3.60687E-02  3.56800E-02  3.58301E-02  3.63319E-02  3.63777E-02
   3.59432E-02  3.60320E-02  3.65858E-02  3.71291E-02  3.74484E-02  3.78007E-02  3.85485E-02  3.93266E-02  3.99590E-02  4.03492E-02
   4.08054E-02  4.15726E-02  4.22630E-02  4.25339E-02  4.25675E-02  4.28096E-02  4.34001E-02  4.38787E-02  4.44204E-02  4.53816E-02
   4.63410E-02  4.68348E-02  4.73284E-02  4.82708E-02  4.97960E-02  5.09171E-02  5.15959E-02  5.20722E-02  5.23760E-02  5.29944E-02
   5.39206E-02  5.47155E-02  5.50662E-02  5.54743E-02  5.62332E-02  5.71987E-02  5.82185E-02  5.90015E-02  5.96776E-02  6.05048E-02
   6.19508E-02  6.34252E-02  6.44462E-02  6.55574E-02  6.72412E-02  6.91172E-02  7.06401E-02  7.22527E-02  7.42559E-02  7.68647E-02
   7.96682E-02  8.21569E-02  8.47670E-02  8.75884E-02
 NY background values follow
     3.467E-02    3.455E-02    3.444E-02    3.432E-02    3.420E-02    3.409E-02    3.397E-02    3.385E-02    3.373E-02    3.362E-02
     3.350E-02    3.338E-02    3.327E-02    3.315E-02    3.303E-02    3.292E-02    3.280E-02    3.268E-02    3.257E-02    3.245E-02
     3.233E-02    3.222E-02    3.210E-02    3.198E-02    3.187E-02    3.175E-02    3.163E-02    3.152E-02    3.140E-02    3.128E-02
     3.116E-02    3.105E-02    3.093E-02    3.081E-02    3.070E-02    3.058E-02    3.046E-02    3.035E-02    3.023E-02    3.011E-02
     3.000E-02    2.988E-02    2.976E-02    2.964E-02    2.953E-02    2.941E-02    2.929E-02    2.918E-02    2.906E-02    2.894E-02
     2.882E-02    2.871E-02    2.859E-02    2.847E-02    2.836E-02    2.824E-02    2.812E-02    2.800E-02    2.789E-02    2.777E-02
     2.765E-02    2.754E-02    2.742E-02    2.730E-02    2.718E-02    2.707E-02    2.695E-02    2.683E-02    2.672E-02    2.660E-02
