 
 $NMID
 ID=''
 FMTDAT='(2E13.5)'
 TRAMP=   1.00000E+0
 VOLUME=   1.00000E+0
 $END
   1.35450E+2  -3.52441E+2
  -8.47854E+2   3.69160E+2
   1.67680E+3  -1.31080E+3
   5.59300E+2   2.93420E+3
   5.39862E+2  -4.67211E+2
   6.92170E+2   3.28881E+2
  -3.57097E+3  -7.37616E+2
  -6.05080E+2  -1.76370E+3
   1.16538E+3  -3.22823E+3
   1.17222E+3  -2.44179E+3
   2.31889E+3   3.77417E+3
  -1.44510E+3   5.98838E+3
  -4.68785E+3   3.90902E+2
  -3.11749E+3  -1.28295E+3
  -5.70558E+2  -5.93117E+2
   8.48348E+2   8.05553E+1
   1.52946E+3  -2.15459E+3
   1.71001E+3   7.02340E+2
   2.17040E+2   3.52706E+3
   2.07393E+3   2.57177E+3
  -3.20048E+3   2.01491E+3
  -1.55634E+3   1.90180E+1
  -9.84827E+2  -8.96162E+2
   3.68784E+2  -2.12449E+3
   1.41418E+3  -9.14390E+2
   6.24518E+2  -1.89376E+2
  -1.78844E+3  -3.74545E+3
   1.34876E+3  -5.01211E+2
   4.04235E+3   3.15565E+3
  -1.87879E+3   5.38558E+3
  -4.64481E+3   3.84750E+2
  -2.29168E+3  -1.34459E+3
   3.04284E+3  -1.67550E+3
   3.65081E+2   6.67897E+2
  -9.70853E+2   1.02817E+3
   4.62485E+3  -8.08663E+1
   7.55238E+2   3.30041E+3
  -1.49139E+2  -1.69376E+3
   2.30681E+3  -7.19017E+2
   2.96989E+3   2.39606E+3
   3.67022E+2  -1.46474E+3
   4.48159E+3   6.30350E+2
   2.03430E+3   3.55814E+3
  -1.15513E+3   2.38418E+3
  -2.18383E+3  -1.80054E+2
  -1.64609E+3  -6.61472E+2
   4.88263E+2  -8.82664E+1
   7.18026E+2  -2.03889E+3
   2.49735E+3  -2.22174E+3
   5.29646E+2  -1.52390E+3
   6.58726E+2   4.90449E+2
  -2.14157E+3   9.22047E+2
  -9.87188E+2  -9.36328E+2
  -5.63333E+2  -2.27018E+3
   1.73754E+2  -7.50702E+2
   1.21631E+3   1.00604E+3
   1.83508E+3   2.65563E+2
  -3.93310E+2  -3.18309E+2
  -1.35862E+3   1.29447E+3
  -3.12466E+3  -1.61748E+3
   1.85811E+3  -3.88309E+3
   7.84905E+2  -3.90172E+3
   1.80907E+3  -1.93561E+3
   2.54511E+3  -8.88913E+2
   4.34742E+2  -1.01289E+3
   1.91909E+3  -9.51431E+2
   3.00337E+3   1.75587E+3
   5.69492E+2   7.50563E+2
  -2.32715E+3   4.56642E+2
   1.17765E+3  -6.16586E+2
   8.69539E+2  -5.97908E+2
  -4.29996E+2   7.05602E+2
  -3.92730E+2  -1.69142E+3
  -1.58356E+3   1.89232E+2
  -1.39633E+3  -1.50091E+3
   5.20836E+2  -8.66453E+2
   2.13177E+2  -1.11589E+2
  -2.31861E+3  -1.46934E+2
   1.39660E+3   8.23794E+2
  -7.04971E+2  -9.15696E+2
   5.89001E+2  -3.29162E+2
  -3.03442E+3   8.53879E+2
   3.11149E+2   2.02355E+3
  -5.40797E+2   1.49171E+3
  -1.00147E+3   1.35613E+3
  -1.62512E+3  -1.34360E+3
  -4.38571E+2  -2.53236E+3
   5.25061E+2  -1.55725E+3
   2.06618E+3  -1.33617E+3
  -2.75762E+2  -1.17111E+3
   1.28234E+3  -2.85572E+3
  -9.40768E+2  -3.85135E+2
  -9.69528E+1   1.64299E+2
  -3.79329E+3  -1.19526E+3
  -3.35856E+2   8.19494E+2
  -2.05625E+2   7.11600E+2
   1.48281E+1  -2.89028E+2
  -3.00453E+3   6.63887E+2
   6.87508E+2  -2.04118E+2
   3.19162E+2  -2.46445E+3
   7.97945E+2   2.98074E+2
   3.07639E+2   9.32233E+2
  -1.42322E+3  -2.31799E+3
   9.06685E+2   3.81977E+2
   7.34466E+2   7.33812E+2
   1.55881E+2   1.35272E+3
   6.89430E+2   1.89121E+3
   1.11966E+3   1.00269E+2
  -8.61391E+2   1.08480E+3
  -2.36779E+1  -2.71756E+2
  -3.97631E+2   1.74802E+2
  -2.17483E+3  -1.33639E+3
  -1.02444E+3  -1.58752E+3
   4.23461E+2  -4.31653E+2
  -2.11981E+2   1.29532E+3
   8.92892E+2  -1.22089E+3
   1.08796E+3  -5.56904E+2
   6.37531E+1   1.68637E+3
  -1.53572E+2   1.07769E+3
  -2.02325E+2   1.72445E+3
   1.50651E+3  -2.83871E+3
  -3.16678E+2   1.12560E+3
  -1.08870E+3  -3.33445E+2
   1.40335E+3   9.83485E+2
   1.17649E+3   1.58199E+3
  -1.08741E+3   8.69448E+2
  -1.39509E+2  -1.61567E+3
   6.29582E+2  -1.13368E+3
   6.61003E+2   4.88765E+2
   3.86070E+2  -1.41696E+3
   9.23098E+2   1.27677E+3
  -3.68693E+2   5.03131E+2
  -9.24303E+1   3.59682E+2
   4.27849E+2  -1.54010E+2
  -2.89593E+2  -1.92284E+3
  -9.10774E+2  -6.92374E+1
   2.11422E+2  -5.70546E+2
  -1.37620E+3  -1.55286E+3
   1.26851E+3   2.12241E+2
  -8.36247E+1  -3.73531E+2
   1.95689E+2  -1.80813E+3
   2.66411E+2   8.41720E+2
  -5.57969E+0   4.75415E+2
  -2.22943E+2  -3.95308E+2
  -8.04072E+2   3.98147E+0
  -2.00250E+3  -1.21474E+3
   2.40142E+2  -1.08150E+3
   1.62861E+3  -6.37239E+2
  -1.23317E+3  -7.94053E+2
  -1.07196E+3   1.49458E+3
   2.04351E+3  -5.58212E+2
   7.51186E+2  -1.56969E+3
  -1.20776E+2  -1.41696E+3
  -7.51707E+2  -4.36934E+2
  -1.86179E+3  -4.78911E+2
   3.06493E+2   5.68450E+2
   1.12531E+2   1.63737E+2
   3.65484E+2   1.08234E+3
  -2.56263E+3  -2.64830E+3
  -7.68545E+2   1.97614E+2
  -7.33778E+2   1.12736E+2
  -5.71425E+2   1.11404E+3
   9.97872E+1   8.27594E+2
  -2.99981E+2   5.81349E+2
  -3.31771E+2   9.47667E+0
   5.65868E+2  -3.47336E+2
   7.00832E+2   4.32185E+1
  -2.25132E+3  -1.14703E+3
  -2.48110E+3  -1.21179E+2
   1.48515E+2  -1.92884E+3
  -3.10584E+2   8.10223E+2
  -1.51971E+3  -3.71376E+2
   1.95942E+2   4.88417E+2
  -8.73268E+2   9.84024E+2
   2.73538E+2  -8.82522E+2
  -1.44289E+3  -1.19900E+2
   3.75087E+2  -2.46076E+0
   1.73638E+3   6.19306E+2
   1.75561E+3  -3.90368E+2
   5.71986E+2  -6.97688E+1
   3.13330E+2  -1.58329E+2
  -5.85945E+2  -4.71859E+2
   4.28081E+2  -1.08284E+3
  -9.59114E+2   1.75232E+2
  -2.04028E+2   1.41007E+2
   6.70093E+1  -2.25477E+3
   1.38248E+3   2.38009E+2
   1.91995E+3   1.51489E+3
   9.15693E+2  -1.53757E+1
   4.06452E+2   7.72250E+2
   2.58719E+3   1.54972E+3
  -9.72870E+2  -4.47734E+1
  -1.93817E+3  -1.90163E+2
   9.42647E+1   1.86692E+3
  -1.94942E+3  -6.56257E+2
  -2.00935E+3   1.18723E+3
  -1.70915E+3  -4.73770E+2
  -5.43278E+2  -1.28593E+2
  -9.37399E+2  -7.58777E+1
  -1.53958E+3  -5.91130E+2
  -8.82424E+2  -4.30501E+2
  -2.66664E+1   3.96717E+1
   2.73134E+2  -9.47913E+2
  -5.71469E+1  -7.22101E+2
   1.42393E+3   2.15536E+3
  -5.40934E+2   2.26648E+2
   1.49308E+3   2.31387E+2
   2.91874E+2  -1.22355E+2
   1.22514E+3   5.73804E+2
   2.07080E+2  -5.11951E+2
   1.68049E+3   1.32912E+2
  -7.05735E+2   7.53950E+2
  -4.22569E+1   7.83287E+2
   3.17167E+2  -7.68973E+2
   3.21585E+2  -1.17373E+3
   7.73616E+2  -1.27543E+2
  -2.97577E+2  -1.07929E+3
  -9.04122E+1  -1.89279E+3
  -1.59049E+2   8.33349E+2
   6.17862E+2  -1.65229E+3
  -9.23406E+1  -1.58734E+2
   8.97672E+2  -3.40118E+3
   1.23709E+3   9.23439E+1
  -5.47641E+2   6.88799E+1
   5.37865E+2  -1.20445E+3
  -7.82107E+2  -4.15750E+1
   4.74069E+2   3.60955E+2
   6.22372E+2  -1.12053E+3
   1.72739E+2  -5.90577E+2
   1.65956E+3  -8.95867E+1
   1.78730E+3  -1.19028E+3
   7.92189E+2  -9.73541E+2
  -4.42950E+2   1.51873E+1
   2.08421E+3   7.28104E+2
  -1.47536E+3   6.11189E+0
  -2.45903E+2   5.62414E+2
   5.37723E+2  -2.11438E+3
  -1.26069E+3  -6.26913E+2
   1.28877E+3  -7.94504E+2
   5.23065E+2  -9.43257E+1
   4.92121E+2   5.36798E+2
  -3.07118E+2  -1.40429E+3
   3.74031E+3   2.00699E+3
   7.65564E+2  -2.49563E+1
   1.60747E+2  -7.47077E+2
   1.15811E+3  -1.76094E+3
   1.29557E+3   6.96230E+1
   1.44135E+3  -1.39470E+2
   1.09631E+3  -2.01774E+2
  -8.92541E+1  -1.25868E+3
   1.37778E+3  -6.23317E+2
   8.12356E+2   2.71677E+2
  -1.28648E+3   3.15042E+2
   8.35866E+2   1.02224E+3
  -3.37299E+2  -1.46360E+3
  -4.76415E+2  -3.65028E+2
   5.77670E+2  -1.22234E+2
  -1.33183E+3   2.40709E+3
   2.55235E+2  -9.51946E+2
   1.59607E+3  -3.35934E+2
   1.50489E+3   1.22389E+3
   1.63246E+3   9.41475E+2
   5.01765E+2  -4.39365E+2
  -5.98964E+2   6.89406E+2
  -4.77221E+2  -6.56550E+2
  -2.78026E+2  -1.44983E+3
   1.67141E+3   8.23371E+2
  -7.26762E+2   2.34218E+3
   5.23419E+2   2.85090E+2
   6.22605E+2  -2.11770E+2
   4.03813E+2   1.13133E+3
   1.85692E+3   4.87933E+1
   7.06988E+2   1.37016E+3
  -9.82108E+2  -5.25529E+2
   6.79755E+2   8.24807E+2
   2.97157E+2   4.36177E+1
   8.20449E+2   4.55159E+2
  -3.57311E+2   5.58321E+2
   2.13340E+3   2.44509E+3
   7.42720E+2  -8.78736E+2
  -9.35423E+1   1.06284E+3
   1.18179E+3   7.70486E+2
   2.30632E+3   1.74405E+3
   6.02532E+1   2.21940E+3
   6.42097E+1   7.64029E+2
  -2.13299E+2   8.56198E+1
   5.83418E+2  -1.26618E+2
  -6.22528E+2   9.19980E+2
  -1.31134E+3   8.01673E+2
   3.76897E+1  -2.22464E+3
  -1.99687E+3   6.75951E+2
   9.80369E+2  -1.57377E+2
   4.66337E+2   8.01979E+2
  -1.94131E+2  -4.91215E+2
   3.95269E+2  -8.04181E+2
   1.68503E+3   1.41855E+1
  -1.61870E+3  -1.53541E+3
  -4.55848E+2   1.01077E+3
  -4.47599E+2   9.77281E+2
   1.57296E+3   7.70123E+2
  -1.78273E+2  -7.07513E+2
   4.38035E+2  -9.66089E+2
   1.75121E+3  -9.20484E+2
   1.46151E+3  -1.59203E+2
   6.81730E+2   1.77998E+3
   1.62332E+1  -4.79074E+2
   7.70842E+2  -1.12581E+2
   2.38336E+2   5.41899E+2
   9.86524E+2   1.14394E+3
  -1.45895E+2   1.99456E+3
  -2.71036E+2   1.24791E+3
  -9.42654E+2   9.86421E+2
   1.71686E+3  -1.59901E+3
  -2.33064E+2   8.92424E+2
   1.29437E+1   8.08749E+2
   1.43378E+3   9.50210E+2
   8.96373E+2  -2.96875E+2
   1.61819E+3  -4.09084E+2
   5.51239E+2   1.59551E+1
   1.14761E+3  -1.49218E+3
   4.61113E+2  -6.09084E+2
   7.98684E+2  -7.64849E+2
   4.55066E+2   2.56497E+2
   9.59229E+2   2.79004E+3
  -5.99646E+2   1.08017E+3
   5.51125E+2  -2.04533E+3
   1.05977E+3   2.30692E+1
   1.63455E+3  -1.37891E+3
  -1.24967E+2   2.25136E+3
   1.93450E+3  -3.95301E+2
  -1.06006E+3   3.10207E+2
   2.30017E+2   7.41390E+2
   1.22630E+2  -7.20850E+2
  -1.91844E+2  -9.92496E+2
   7.51687E+2  -2.31656E+2
   1.05932E+3   6.41687E+2
   1.98554E+2  -4.05886E+2
   4.91644E+1   9.10172E+2
  -2.66509E+2   4.70046E+1
  -2.66499E+1   7.85309E+2
   2.04773E+3  -4.57496E+2
   3.67657E+2  -1.62511E+3
  -1.00080E+1   1.19821E+1
  -8.89806E+2   1.26913E+3
   4.96131E+2   1.69510E+3
  -5.74784E+2   7.41811E+2
  -1.35925E+3  -4.64598E+2
   4.19486E+2   2.01573E+3
  -6.27961E+1   1.63792E+2
  -7.17614E+2   1.73193E+1
  -1.52077E+3  -7.56238E+2
   1.25309E+3  -1.58024E+3
   1.62061E+3  -4.45393E+2
   1.13967E+3  -2.90786E+3
   2.53128E+2   2.51018E+2
   1.77892E+3  -4.45526E+2
  -5.68268E+2  -2.57158E+2
  -4.40126E+1  -1.91547E+3
  -3.30587E+2  -2.25765E+2
   1.46752E+2   1.36709E+3
   3.38364E+1  -7.46225E+1
   3.64025E+2   2.49251E+2
   9.39935E+1   1.35271E+3
   2.46753E+3   1.30207E+3
   3.24395E+2  -6.73092E+2
   8.44377E+2  -2.72551E+2
  -5.16672E+2   1.34484E+3
