 
 $NMID
 ID=''
 FMTDAT='(2E13.5)'
 TRAMP=   1.00000E+0
 VOLUME=   1.00000E+0
 $END
   2.65904E+2   1.54843E+2
   6.19624E+2   3.09124E+3
   5.78982E+3  -6.22471E+3
   1.61420E+3  -4.60252E+3
  -3.50768E+3  -5.55475E+3
  -3.85596E+3  -4.19191E+2
  -4.88091E+3   1.46565E+3
  -7.74593E+3   2.65916E+3
  -2.96230E+3   1.71552E+3
   3.21073E+3  -1.43040E+2
   5.77704E+3  -1.45706E+2
   8.95604E+3   2.82008E+3
   1.38378E+3   2.65465E+3
  -3.00276E+3  -3.62734E+3
  -2.65276E+3  -6.77504E+3
  -3.82529E+2  -6.19730E+3
  -7.68712E+2  -1.60186E+3
  -3.85454E+3   1.35309E+3
  -1.73675E+3   3.90798E+3
   4.58779E+2   1.82038E+3
   6.62097E+3  -2.40012E+2
   5.19504E+3   1.62740E+3
  -1.60902E+3   1.88590E+3
   1.02953E+3  -4.25921E+3
   2.70521E+3  -4.35299E+3
   9.07212E+2   2.19958E+3
  -1.81275E+3  -8.21723E+2
   9.80678E+1  -5.78767E+3
   2.26453E+3  -5.90456E+3
   4.71045E+3  -2.09417E+3
   3.68492E+3   3.77400E+3
  -2.86545E+3   4.78057E+3
  -6.24281E+3   9.21692E+2
  -4.00463E+2   7.02623E+2
   4.00334E+2   2.74352E+3
   3.04849E+2   1.17899E+1
   4.96222E+3  -3.92465E+3
   6.52816E+3   6.82224E+2
   2.67162E+3   3.38801E+3
   2.24557E+2   8.98661E+2
  -1.02297E+3   2.32453E+3
  -5.07727E+3  -1.07029E+3
  -1.79769E+3  -5.25545E+3
   3.57843E+3  -4.26151E+3
   4.21760E+3  -4.55039E+2
   2.33009E+3   6.25080E+2
   2.20051E+3   2.81876E+3
  -1.08992E+3   1.40119E+3
  -1.97563E+3   1.54029E+3
  -3.41501E+3   1.36832E+3
  -3.96849E+3  -1.77724E+3
  -9.76244E+2  -2.44912E+2
   3.17370E+3   1.65622E+3
  -8.58918E+2   3.85803E+3
  -1.68038E+3   2.46851E+3
  -5.04555E+3   2.98756E+3
  -4.07513E+3   2.42059E+3
  -5.25403E+3   6.77373E+2
  -3.70429E+3  -4.98945E+2
   2.38511E+3  -2.42773E+3
   7.24649E+3   1.57130E+3
   7.52063E+3   2.35548E+3
   3.07297E+3   4.36415E+3
   3.07381E+3   3.77856E+3
   3.35227E+3   4.67912E+2
   5.79662E+3   1.37115E+3
   1.16330E+3   3.80829E+3
  -1.99817E+3   1.72288E+3
  -1.94788E+3   3.62687E+2
  -7.02579E+1   1.56617E+3
  -3.90127E+3   2.43003E+3
  -3.02575E+3   1.05252E+2
  -1.68933E+3   2.10455E+3
  -3.47230E+3   7.69757E+2
  -8.55550E+2  -1.34269E+3
  -1.62838E+3   1.82685E+3
  -3.68490E+3   1.53201E+3
  -3.04641E+3  -1.59938E+3
   9.36499E+2  -1.02803E+3
   2.14554E+3  -5.86942E+2
  -7.09620E+2   9.26282E+2
  -1.58294E+3  -2.57335E+3
   1.16028E+3  -2.32803E+2
  -1.41483E+3  -1.61203E+3
  -2.17263E+3  -2.00799E+3
  -1.01805E+3  -4.32473E+3
  -1.08495E+3  -5.81140E+3
   1.52510E+3  -6.96748E+3
   3.39298E+3  -2.68572E+3
   1.95924E+3   4.47660E+2
  -1.68507E+3  -8.53354E+2
   2.58460E+3   1.32880E+2
   4.53821E+2   8.70485E+2
  -2.87752E+3   6.03963E+2
  -1.86926E+3  -2.65867E+3
   3.77415E+2  -4.14589E+3
   3.04247E+3   5.87708E+2
   3.58415E+2   1.77525E+3
  -2.83864E+3   1.19239E+3
  -2.08576E+3  -3.58012E+3
  -1.07005E+2  -6.12373E+3
   1.86808E+3  -2.31100E+3
  -1.03574E+2   3.60936E+3
  -2.34968E+3   2.90820E+3
  -3.07792E+3   2.13303E+3
  -3.16939E+3   3.78177E+2
  -4.59893E+3   1.80568E+3
  -4.16234E+3   3.14678E+2
  -3.35432E+3   2.67479E+2
   1.46480E+3  -3.49484E+3
   4.51341E+3  -4.06788E+2
   2.71281E+3   2.39528E+3
   2.63351E+3   3.25558E+3
   4.19460E+2   1.98094E+3
  -1.11323E+3   3.30763E+3
  -2.10547E+3   1.93067E+2
   2.82087E+2  -1.49779E+3
  -8.68954E+2  -2.04993E+2
  -5.17917E+2  -5.04356E+2
   1.03046E+3  -1.28266E+2
   1.11428E+3   4.88266E+2
  -1.74939E+3  -1.18228E+3
  -8.04901E+2  -2.68826E+3
   1.26077E+3  -2.40630E+3
   1.98512E+3  -1.43873E+3
  -4.65947E+2   3.97938E+2
  -1.65063E+3  -4.35443E+2
  -7.82961E+2   1.40084E+1
   1.45118E+3   2.74959E+3
  -2.08758E+3   2.67674E+3
  -8.79613E+2  -2.12447E+3
   1.50226E+3  -1.73274E+3
   1.56443E+3   7.58174E+2
   7.16604E+2   1.60648E+3
  -2.19264E+3   1.93198E+2
  -3.58822E+3  -1.12549E+3
  -1.10355E+1  -2.30286E+3
  -1.47455E+3  -1.47600E+3
   4.97102E+2  -7.75292E+2
   1.16133E+3  -1.37615E+3
  -2.31485E+2  -2.31487E+3
   1.49877E+3  -2.93139E+2
   3.29201E+2   9.35667E+2
  -1.73742E+3   2.32073E+3
  -1.94529E+3  -1.17186E+3
   1.60176E+3   9.22394E+2
   5.71104E+2  -1.36091E+3
  -1.02996E+3  -8.31432E+1
  -1.16375E+2   1.62885E+2
  -1.11182E+3  -3.66215E+2
  -1.92713E+3  -2.68127E+3
  -1.44070E+3  -2.75623E+3
  -2.64057E+2  -3.98088E+3
   2.09957E+3  -2.58392E+3
   2.86090E+3  -2.01649E+3
  -5.19338E+2   8.52501E+2
  -1.50661E+3   7.62429E+1
  -1.15255E+3   2.50372E+3
  -8.30602E+2  -7.69582E+2
   6.09523E+2   1.01817E+3
  -5.20940E+0   9.44375E+2
  -7.53673E+2  -2.66481E+3
  -1.13422E+3  -6.93413E+2
   1.72972E+3  -2.46592E+2
  -7.22448E+2   2.39508E+3
  -1.64157E+3  -7.50852E+2
   7.83312E+2   5.65153E+1
   2.02143E+3  -3.07104E+3
   2.93323E+3   2.00315E+3
  -1.51405E+3   3.70418E+3
  -1.10913E+3  -2.36469E+2
  -5.85323E+2  -4.06065E+2
  -2.17833E+2  -9.15255E+2
   1.46325E+3  -4.62446E+2
   9.47324E+2  -1.65110E+3
   1.89756E+1  -3.91699E+2
   2.09679E+3  -1.91837E+2
   1.40445E+3   3.13356E+3
   1.79569E+3   3.55779E+3
  -4.74613E+2   1.54541E+3
  -1.41320E+3  -2.85593E+3
   7.19814E+2  -1.84726E+3
   1.51938E+2  -9.48633E+2
   1.58266E+3   2.06481E+3
   1.48257E+3  -1.56355E+3
   8.85442E+2  -3.40357E+2
   1.88543E+3   7.01420E+2
  -2.49901E+3   1.31575E+3
  -1.08212E+3  -1.53455E+3
  -1.23227E+3  -2.93760E+3
   6.10058E+2   2.15807E+3
   1.64116E+3   1.73636E+3
   7.71302E+2   1.44708E+3
   1.04342E+2   1.30117E+3
   4.16445E+2  -1.71026E+3
   2.07932E+3   2.10933E+3
   6.16071E+1  -3.89119E+2
  -1.33243E+3   6.80472E+0
   7.12386E+2  -1.40647E+3
   1.47058E+3   1.95802E+3
   6.12233E+2   3.87525E+3
  -2.36379E+3  -5.07549E+2
  -5.28603E+2  -3.49795E+3
   4.48233E+2  -1.10811E+3
   1.10339E+3  -6.28737E+0
  -7.82045E+2  -5.95909E+2
  -1.21264E+3  -2.51395E+2
   1.24880E+3   7.83871E+2
  -4.67793E+2   1.41721E+3
   2.46493E+3   1.13470E+3
   4.92050E+2   2.89723E+3
  -1.50089E+3  -8.04149E+1
   3.44674E+3  -3.02106E+3
   1.24863E+3   1.85048E+3
   1.27590E+3   1.06903E+3
   7.57765E+2   6.76892E+2
   1.58687E+3  -6.63169E+2
   2.05480E+3  -5.64415E+2
   2.39353E+3  -2.08908E+2
  -2.27588E+3   5.29259E+2
   2.33508E+3  -1.91382E+3
   2.32506E+3  -9.39143E+2
  -4.39786E+2   1.18432E+3
   4.40217E+2   7.66219E+2
   2.64951E+3  -1.77565E+3
   2.46846E+3   1.65500E+3
   2.09963E+3   8.54017E+2
   6.54830E+1   1.31581E+3
   1.60897E+3  -4.08105E+2
  -6.02289E+2   8.89487E+2
  -8.04683E+2  -1.24404E+3
   1.20820E+3  -2.24937E+2
  -1.38383E+3  -1.74591E+3
   1.07564E+3  -2.45087E+2
   1.23640E+3  -4.83994E+3
   7.87374E+2  -4.05902E+2
   1.78648E+3   1.56791E+3
  -1.35148E+3   2.64735E+2
  -6.00710E+2  -2.03498E+3
   1.07205E+3  -5.88877E+2
   2.39322E+3   1.86779E+2
  -4.65111E+1  -1.31320E+3
   6.48278E+2  -4.14947E+2
  -2.30505E+3  -6.42854E+2
  -1.01217E+3   2.29530E+2
  -2.40263E+3   5.63302E+2
  -4.62050E+2  -2.35502E+2
  -6.00278E+2  -1.25136E+3
   1.83309E+3  -2.58385E+3
   2.34898E+3  -2.10638E+3
   7.74955E+2   2.69463E+3
  -8.34270E+2   1.51264E+3
  -8.73616E+2  -8.92051E+2
   2.17714E+1  -1.27433E+3
  -1.24433E+3  -3.37159E+2
   1.38196E+3   1.28997E+3
   3.18182E+2  -1.89792E+3
   1.39969E+3  -2.73451E+2
   2.05092E+2   3.02617E+2
  -1.88697E+3  -1.81576E+2
  -1.15256E+3  -1.68356E+3
  -6.36549E+2  -4.75398E+2
  -1.24819E+3  -2.85894E+3
  -9.67082E+2  -1.52432E+3
   1.04787E+3  -1.45460E+3
   2.04191E+2   9.62569E+2
   1.07448E+3   8.89276E+2
  -5.32276E+2   1.27153E+2
  -2.27404E+3  -7.80256E+2
  -1.67841E+3  -9.59588E+2
   2.24042E+3  -2.21250E+3
   1.02995E+3  -6.13209E+2
  -3.80655E+1  -4.33350E+2
  -1.22111E+3   2.31116E+3
  -5.39312E+2   6.05770E+1
  -4.81146E+2   1.47461E+2
   6.66897E+1  -8.44578E+0
   7.04815E+2  -5.39786E+2
  -1.22047E+3  -3.61163E+2
   2.33438E+2   5.93081E+2
   1.21533E+3   1.91578E+3
   7.80764E+2  -1.71130E+3
  -1.64512E+3   6.18204E+2
   9.14678E+2   1.50031E+2
   7.46937E+2   9.75648E+2
   1.89358E+3  -2.52204E+2
  -8.29543E+2   6.12582E+2
  -8.69126E+2  -4.50148E+2
   2.47338E+2  -1.14833E+3
  -1.27062E+3   3.86202E+2
   1.18503E+3   6.16142E+2
  -1.91907E+1   4.25113E+2
   8.48643E+1   4.56216E+2
  -7.34218E+1   2.47812E+3
   6.85596E+2   7.97546E+2
   8.65713E+2   3.12085E+3
  -7.77685E+2   2.94410E+2
   1.54716E+2  -2.76764E+3
   2.30621E+3   1.20526E+2
   1.72794E+3   1.28687E+3
   5.79449E+2  -2.99021E+2
  -1.13407E+3  -1.41506E+2
  -6.56474E+0  -5.68245E+1
  -3.28543E+2   1.74518E+2
  -3.54876E+3   9.07459E+2
  -1.38764E+3  -7.64870E+2
   9.59627E+2  -1.97548E+3
   2.29219E+3   2.42378E+2
  -3.60874E+2   1.63866E+3
   5.60563E+2   1.52482E+3
  -6.13221E+2  -1.23030E+3
   6.49048E+2  -1.12013E+3
   4.49942E+2  -1.31490E+3
   8.54908E+2  -2.42963E+3
  -1.18336E+3   2.65664E+3
   5.93750E+2  -3.96034E+2
   2.39483E+3   7.45311E+2
  -1.73881E+3   8.68711E+2
  -6.42009E+2   2.97547E+2
  -6.67722E+2  -1.79074E+3
   1.12202E+3  -2.03863E+3
   7.13549E+2   1.10890E+3
   1.39382E+2   1.57032E+3
  -1.30805E+3  -1.80737E+3
  -2.28990E+2  -2.33219E+2
  -1.57341E+3   6.62310E+2
  -1.80500E+3   2.98415E+3
  -8.86779E+2   2.80442E+2
  -1.51872E+2  -1.06231E+3
   7.88876E+2  -1.40771E+3
   1.09483E+2  -9.82421E+2
   3.28635E+2   2.96181E+2
  -2.33195E+3  -1.86166E+2
   1.26292E+3   5.88148E+2
   2.10785E+2   2.85882E+3
   2.53609E+3   6.84801E+1
   1.77073E+3  -4.95163E+2
   7.36357E+1  -4.96786E+2
   8.58768E+2   8.13949E+2
   1.60722E+3   1.14656E+3
  -1.68122E+3  -7.95763E+2
  -8.05397E+2   6.06270E+2
   1.17585E+3  -4.24639E+2
   4.84793E+2   1.10808E+3
   5.39311E+2  -5.62167E+2
  -9.64543E+2   8.85969E+1
  -6.21845E+2   2.19475E+3
  -1.43911E+3   1.66972E+3
   1.06919E+3  -5.77994E+2
   1.53684E+3   3.95582E+3
  -7.63077E+2   1.68296E+3
   1.35148E+3  -2.58255E+3
  -4.43473E+2  -8.50144E+2
   1.38417E+3   4.95855E+2
   1.27644E+2  -1.70301E+3
   9.21555E+2  -6.05283E+2
   3.71593E+2   2.63019E+2
   7.09914E+2   5.18637E+2
  -1.00427E+3   2.21391E+2
   1.08452E+3   3.10979E+3
  -7.71861E+2  -1.02316E+2
  -2.28826E+2  -1.37817E+3
  -7.39180E+2   2.87575E+2
   4.32886E+2   1.64561E+3
   9.00787E+2   1.80726E+2
   4.15090E+2  -2.87062E+2
   1.93311E+3  -8.48821E+2
