 
 $NMID
 ID=''
 FMTDAT='(2E13.5)'
 TRAMP=   1.00000E+0
 VOLUME=   1.00000E+0
 $END
  -1.32844E+4   1.41931E+4
  -4.30019E+4   2.55111E+4
  -3.73896E+4   3.28099E+4
  -3.40650E+4   3.04745E+4
  -3.60036E+4   3.06855E+4
  -3.42344E+4   3.25771E+4
  -3.28606E+4   3.11022E+4
  -3.37280E+4   3.09741E+4
  -3.25506E+4   3.21641E+4
  -3.15466E+4   3.13052E+4
  -3.18722E+4   3.11768E+4
  -3.08180E+4   3.20347E+4
  -2.98391E+4   3.16070E+4
  -3.01446E+4   3.15288E+4
  -2.93824E+4   3.20574E+4
  -2.85986E+4   3.17006E+4
  -2.86349E+4   3.17268E+4
  -2.79096E+4   3.21428E+4
  -2.70904E+4   3.19485E+4
  -2.71028E+4   3.19899E+4
  -2.64287E+4   3.22381E+4
  -2.56133E+4   3.22352E+4
  -2.54119E+4   3.23789E+4
  -2.49071E+4   3.25340E+4
  -2.42227E+4   3.23691E+4
  -2.39135E+4   3.24649E+4
  -2.35511E+4   3.27024E+4
  -2.30398E+4   3.24958E+4
  -2.28147E+4   3.24278E+4
  -2.23362E+4   3.25251E+4
  -2.16994E+4   3.25591E+4
  -2.13685E+4   3.25800E+4
  -2.09991E+4   3.26688E+4
  -2.04615E+4   3.25006E+4
  -1.99895E+4   3.25170E+4
  -1.95734E+4   3.26159E+4
  -1.90258E+4   3.25027E+4
  -1.85822E+4   3.25533E+4
  -1.80473E+4   3.26225E+4
  -1.74744E+4   3.26216E+4
  -1.71812E+4   3.27063E+4
  -1.68698E+4   3.26276E+4
  -1.65328E+4   3.24681E+4
  -1.60838E+4   3.24460E+4
  -1.55908E+4   3.24353E+4
  -1.52022E+4   3.23398E+4
  -1.49125E+4   3.23085E+4
  -1.45239E+4   3.22763E+4
  -1.40662E+4   3.21608E+4
  -1.37399E+4   3.20240E+4
  -1.33287E+4   3.19769E+4
  -1.28498E+4   3.17968E+4
  -1.24765E+4   3.16543E+4
  -1.19497E+4   3.16093E+4
  -1.14936E+4   3.15126E+4
  -1.11091E+4   3.13949E+4
  -1.07784E+4   3.12346E+4
  -1.04108E+4   3.12498E+4
  -9.97226E+3   3.10492E+4
  -9.58765E+3   3.09099E+4
  -9.16567E+3   3.08519E+4
  -8.71176E+3   3.06816E+4
  -8.32932E+3   3.06982E+4
  -8.01080E+3   3.06311E+4
  -7.61241E+3   3.04482E+4
  -7.21598E+3   3.03519E+4
  -6.84088E+3   3.02061E+4
  -6.58293E+3   3.01185E+4
  -6.22863E+3   2.99941E+4
  -5.82955E+3   2.98090E+4
  -5.50345E+3   2.97146E+4
  -5.20345E+3   2.95008E+4
  -4.85221E+3   2.93834E+4
  -4.53869E+3   2.91697E+4
  -4.13460E+3   2.89724E+4
  -3.78540E+3   2.89085E+4
  -3.50111E+3   2.87520E+4
  -3.17355E+3   2.85533E+4
  -2.85516E+3   2.84231E+4
  -2.53358E+3   2.82562E+4
  -2.26754E+3   2.81495E+4
  -1.94436E+3   2.79793E+4
  -1.64907E+3   2.77458E+4
  -1.35818E+3   2.75553E+4
  -1.14754E+3   2.75236E+4
  -9.07633E+2   2.72462E+4
  -6.65033E+2   2.69657E+4
  -4.45465E+2   2.67446E+4
  -9.63788E+1   2.66207E+4
   1.65996E+2   2.64146E+4
   4.59470E+2   2.62667E+4
   6.69242E+2   2.60497E+4
   9.41584E+2   2.58862E+4
   1.22707E+3   2.57207E+4
   1.50437E+3   2.54619E+4
   1.71164E+3   2.52538E+4
   2.02319E+3   2.50612E+4
   2.34141E+3   2.48312E+4
   2.60728E+3   2.47024E+4
   2.73231E+3   2.44904E+4
   3.06459E+3   2.41930E+4
   3.34718E+3   2.40219E+4
   3.64372E+3   2.38682E+4
   3.85214E+3   2.36220E+4
   4.12185E+3   2.35281E+4
   4.31292E+3   2.32586E+4
   4.55443E+3   2.30705E+4
   4.85259E+3   2.29091E+4
   5.02317E+3   2.26782E+4
   5.32322E+3   2.25481E+4
   5.48726E+3   2.22065E+4
   5.81777E+3   2.20111E+4
   6.05024E+3   2.18212E+4
   6.24725E+3   2.16116E+4
   6.46551E+3   2.14708E+4
   6.61684E+3   2.12809E+4
   6.87732E+3   2.10702E+4
   7.03015E+3   2.07961E+4
   7.18892E+3   2.06170E+4
   7.38870E+3   2.03583E+4
   7.61507E+3   2.01591E+4
   7.75578E+3   1.99855E+4
   7.94441E+3   1.97254E+4
   8.08268E+3   1.94891E+4
   8.27533E+3   1.93884E+4
   8.45357E+3   1.91030E+4
   8.62830E+3   1.89047E+4
   8.80519E+3   1.86648E+4
   8.93119E+3   1.84584E+4
   9.07697E+3   1.82741E+4
   9.26224E+3   1.80752E+4
   9.37510E+3   1.77896E+4
   9.53506E+3   1.75862E+4
   9.70941E+3   1.73586E+4
   9.84804E+3   1.71358E+4
   9.97514E+3   1.69790E+4
   1.00382E+4   1.66856E+4
   1.01943E+4   1.64533E+4
   1.03832E+4   1.62709E+4
   1.04591E+4   1.60421E+4
   1.06014E+4   1.58487E+4
   1.07133E+4   1.55867E+4
   1.09076E+4   1.53642E+4
   1.10774E+4   1.51178E+4
   1.11087E+4   1.49855E+4
   1.12050E+4   1.47689E+4
   1.13507E+4   1.45484E+4
   1.13949E+4   1.43784E+4
   1.15939E+4   1.41165E+4
   1.16816E+4   1.39378E+4
   1.17523E+4   1.37935E+4
   1.19196E+4   1.35407E+4
   1.19247E+4   1.33581E+4
   1.20217E+4   1.31073E+4
   1.20823E+4   1.29345E+4
   1.22441E+4   1.26827E+4
   1.22551E+4   1.25487E+4
   1.23399E+4   1.23666E+4
   1.24839E+4   1.21698E+4
   1.25266E+4   1.19669E+4
   1.26104E+4   1.18661E+4
   1.26315E+4   1.16017E+4
   1.27866E+4   1.14034E+4
   1.27975E+4   1.12334E+4
   1.28358E+4   1.10064E+4
   1.29765E+4   1.09056E+4
   1.29337E+4   1.07199E+4
   1.29366E+4   1.04430E+4
   1.30867E+4   1.02763E+4
   1.30503E+4   1.01276E+4
   1.30984E+4   9.92046E+3
   1.31658E+4   9.67831E+3
   1.32063E+4   9.51442E+3
   1.32184E+4   9.37134E+3
   1.33065E+4   9.18141E+3
   1.33048E+4   9.00922E+3
   1.33320E+4   8.81896E+3
   1.33900E+4   8.58896E+3
   1.34235E+4   8.46145E+3
   1.33753E+4   8.20694E+3
   1.33877E+4   8.11590E+3
   1.34509E+4   7.91850E+3
   1.34823E+4   7.73745E+3
   1.34627E+4   7.56712E+3
   1.34316E+4   7.34913E+3
   1.34585E+4   7.18110E+3
   1.35305E+4   7.07108E+3
   1.35341E+4   6.87868E+3
   1.34627E+4   6.71157E+3
   1.34122E+4   6.46943E+3
   1.33917E+4   6.41279E+3
   1.34613E+4   6.14606E+3
   1.34318E+4   5.99764E+3
   1.34236E+4   5.90958E+3
   1.34589E+4   5.72398E+3
   1.33286E+4   5.56867E+3
   1.34288E+4   5.44668E+3
   1.33760E+4   5.22469E+3
   1.32491E+4   5.10111E+3
   1.33771E+4   4.88816E+3
   1.32841E+4   4.83282E+3
   1.33405E+4   4.62100E+3
   1.32480E+4   4.48788E+3
   1.31577E+4   4.34683E+3
   1.31020E+4   4.24337E+3
   1.30658E+4   3.99386E+3
   1.31069E+4   3.91282E+3
   1.29849E+4   3.73881E+3
   1.29830E+4   3.57559E+3
   1.30557E+4   3.48980E+3
   1.28853E+4   3.33843E+3
   1.28404E+4   3.20581E+3
   1.28480E+4   3.12496E+3
   1.27480E+4   2.92370E+3
   1.27624E+4   2.91386E+3
   1.26717E+4   2.76439E+3
   1.25853E+4   2.63526E+3
   1.25458E+4   2.48995E+3
   1.25113E+4   2.36273E+3
   1.24131E+4   2.20579E+3
   1.23880E+4   2.12755E+3
   1.22792E+4   2.05178E+3
   1.22524E+4   1.86904E+3
   1.22151E+4   1.81237E+3
   1.21125E+4   1.66908E+3
   1.20258E+4   1.53625E+3
   1.20288E+4   1.42037E+3
   1.18870E+4   1.31007E+3
   1.18043E+4   1.24571E+3
   1.17726E+4   1.10457E+3
   1.17643E+4   9.93635E+2
   1.16323E+4   9.19466E+2
   1.14917E+4   8.18362E+2
   1.14548E+4   7.76567E+2
   1.14151E+4   6.79589E+2
   1.13098E+4   5.02618E+2
   1.13230E+4   4.98873E+2
   1.12593E+4   3.39166E+2
   1.10839E+4   3.31778E+2
   1.10554E+4   2.05025E+2
   1.10197E+4   1.37623E+2
   1.08968E+4   2.32267E+1
   1.08600E+4  -4.39947E+1
   1.07497E+4  -1.16715E+2
   1.06192E+4  -2.33469E+2
   1.05763E+4  -2.84536E+2
   1.05751E+4  -3.80180E+2
   1.04212E+4  -3.69656E+2
   1.03549E+4  -5.69156E+2
   1.02782E+4  -5.49248E+2
   1.01673E+4  -7.15093E+2
   1.01490E+4  -7.31848E+2
   1.00757E+4  -8.03551E+2
   9.99246E+3  -8.93424E+2
   9.85755E+3  -9.61967E+2
   9.74571E+3  -1.05302E+3
   9.69564E+3  -1.15565E+3
   9.64118E+3  -1.18345E+3
   9.55282E+3  -1.25011E+3
   9.48612E+3  -1.38181E+3
   9.40203E+3  -1.44041E+3
   9.25839E+3  -1.40960E+3
   9.18683E+3  -1.54409E+3
   9.12631E+3  -1.55842E+3
   9.06364E+3  -1.59266E+3
   8.89432E+3  -1.65673E+3
   8.89150E+3  -1.73718E+3
   8.83332E+3  -1.78255E+3
   8.78305E+3  -1.84467E+3
   8.58861E+3  -1.86682E+3
   8.52801E+3  -2.00279E+3
   8.50645E+3  -2.04163E+3
   8.45709E+3  -2.06978E+3
   8.29369E+3  -2.15568E+3
   8.20491E+3  -2.15614E+3
   8.13912E+3  -2.20592E+3
   8.09141E+3  -2.31458E+3
   8.01626E+3  -2.33708E+3
   7.95121E+3  -2.34927E+3
   7.81420E+3  -2.35203E+3
   7.78793E+3  -2.48926E+3
   7.63968E+3  -2.53356E+3
   7.62619E+3  -2.49431E+3
   7.48023E+3  -2.48092E+3
   7.41515E+3  -2.54538E+3
   7.43722E+3  -2.52899E+3
   7.23787E+3  -2.63794E+3
   7.22865E+3  -2.66491E+3
   7.16218E+3  -2.65614E+3
   7.07928E+3  -2.66332E+3
   6.97203E+3  -2.74903E+3
   6.87637E+3  -2.83828E+3
   6.86206E+3  -2.77202E+3
   6.72958E+3  -2.84401E+3
   6.61237E+3  -2.84290E+3
   6.59708E+3  -2.88603E+3
   6.55519E+3  -2.92984E+3
   6.41857E+3  -2.93529E+3
   6.31444E+3  -2.99334E+3
   6.31858E+3  -3.05490E+3
   6.21724E+3  -3.01089E+3
   6.15206E+3  -3.02760E+3
   6.05335E+3  -3.10682E+3
   5.97260E+3  -3.08701E+3
   5.91164E+3  -3.12797E+3
   5.89259E+3  -3.06938E+3
   5.73082E+3  -3.08082E+3
   5.72019E+3  -3.14145E+3
   5.62997E+3  -3.14659E+3
   5.55956E+3  -3.21884E+3
   5.50236E+3  -3.16378E+3
   5.44818E+3  -3.20390E+3
   5.38125E+3  -3.24437E+3
   5.34804E+3  -3.21834E+3
   5.19538E+3  -3.23643E+3
   5.14398E+3  -3.26879E+3
   5.10247E+3  -3.25791E+3
   4.99840E+3  -3.23937E+3
   4.96886E+3  -3.30159E+3
   4.91339E+3  -3.32531E+3
   4.87703E+3  -3.27077E+3
   4.78968E+3  -3.31428E+3
   4.77900E+3  -3.31019E+3
   4.64708E+3  -3.29893E+3
   4.60380E+3  -3.31723E+3
   4.53029E+3  -3.34782E+3
   4.52901E+3  -3.30556E+3
   4.35426E+3  -3.33023E+3
   4.31472E+3  -3.37260E+3
   4.31173E+3  -3.35081E+3
   4.19779E+3  -3.35248E+3
   4.16708E+3  -3.40956E+3
   4.05798E+3  -3.33478E+3
   4.06332E+3  -3.35038E+3
   3.99352E+3  -3.36917E+3
   3.91177E+3  -3.37493E+3
   3.94705E+3  -3.36313E+3
   3.82371E+3  -3.32814E+3
   3.68109E+3  -3.33781E+3
   3.64754E+3  -3.35925E+3
   3.59843E+3  -3.34896E+3
   3.61920E+3  -3.39248E+3
   3.44304E+3  -3.39036E+3
   3.44112E+3  -3.38263E+3
   3.33988E+3  -3.39575E+3
   3.33585E+3  -3.29045E+3
   3.30423E+3  -3.31712E+3
   3.21520E+3  -3.35797E+3
   3.15156E+3  -3.30806E+3
   3.10743E+3  -3.35875E+3
   3.05644E+3  -3.30324E+3
   3.03609E+3  -3.34945E+3
   2.92096E+3  -3.28240E+3
   2.91957E+3  -3.32175E+3
   2.86344E+3  -3.26845E+3
   2.81933E+3  -3.32401E+3
   2.77293E+3  -3.26849E+3
   2.71614E+3  -3.28503E+3
   2.65076E+3  -3.29107E+3
   2.57527E+3  -3.34539E+3
   2.56415E+3  -3.32271E+3
   2.46885E+3  -3.22606E+3
   2.53475E+3  -3.25143E+3
   2.41725E+3  -3.21617E+3
   2.34279E+3  -3.17071E+3
   2.32811E+3  -3.25963E+3
   2.28547E+3  -3.19224E+3
