 
 $NMID
 ID=''
 FMTDAT='(2E13.5)'
 TRAMP=   1.00000E+0
 VOLUME=   1.00000E+0
 $END
  -9.68431E+3   1.84972E+4
  -3.69317E+4   3.89087E+4
  -2.90167E+4   4.49667E+4
  -2.62289E+4   4.16228E+4
  -2.80752E+4   4.24303E+4
  -2.57068E+4   4.40549E+4
  -2.45862E+4   4.23333E+4
  -2.52879E+4   4.25481E+4
  -2.37068E+4   4.33392E+4
  -2.27663E+4   4.22899E+4
  -2.29845E+4   4.21458E+4
  -2.14132E+4   4.27410E+4
  -2.04518E+4   4.19991E+4
  -2.06409E+4   4.19426E+4
  -1.94403E+4   4.21610E+4
  -1.85048E+4   4.15364E+4
  -1.83571E+4   4.14315E+4
  -1.73510E+4   4.15451E+4
  -1.64401E+4   4.10847E+4
  -1.62814E+4   4.09321E+4
  -1.53456E+4   4.08937E+4
  -1.43612E+4   4.04812E+4
  -1.41484E+4   4.03909E+4
  -1.34445E+4   4.02089E+4
  -1.25732E+4   3.96693E+4
  -1.21464E+4   3.94899E+4
  -1.15095E+4   3.93066E+4
  -1.08072E+4   3.87795E+4
  -1.04333E+4   3.84046E+4
  -9.80066E+3   3.81129E+4
  -8.97627E+3   3.77150E+4
  -8.49865E+3   3.74444E+4
  -8.00256E+3   3.72356E+4
  -7.28824E+3   3.66166E+4
  -6.63578E+3   3.63521E+4
  -6.09658E+3   3.60273E+4
  -5.41217E+3   3.55377E+4
  -4.84948E+3   3.52400E+4
  -4.22154E+3   3.48820E+4
  -3.62726E+3   3.44767E+4
  -3.21553E+3   3.40719E+4
  -2.79692E+3   3.37692E+4
  -2.43123E+3   3.31716E+4
  -1.86819E+3   3.26594E+4
  -1.34127E+3   3.22726E+4
  -9.24070E+2   3.17562E+4
  -5.21994E+2   3.13069E+4
  -1.69232E+1   3.08243E+4
   4.61639E+2   3.03941E+4
   8.70317E+2   2.99743E+4
   1.24668E+3   2.95319E+4
   1.73678E+3   2.89405E+4
   2.26515E+3   2.84590E+4
   2.57915E+3   2.80823E+4
   2.98539E+3   2.76122E+4
   3.44571E+3   2.71297E+4
   3.78034E+3   2.67263E+4
   4.02379E+3   2.62900E+4
   4.39390E+3   2.58586E+4
   4.71471E+3   2.54896E+4
   5.03021E+3   2.50256E+4
   5.39753E+3   2.46447E+4
   5.73737E+3   2.42647E+4
   5.93215E+3   2.38679E+4
   6.23558E+3   2.35200E+4
   6.42600E+3   2.31358E+4
   6.63274E+3   2.27035E+4
   6.83532E+3   2.23431E+4
   6.94835E+3   2.20074E+4
   7.08864E+3   2.16531E+4
   7.32194E+3   2.12877E+4
   7.40162E+3   2.09210E+4
   7.51063E+3   2.05547E+4
   7.57632E+3   2.01600E+4
   7.67107E+3   1.97814E+4
   7.74019E+3   1.94908E+4
   7.73402E+3   1.91314E+4
   7.77250E+3   1.88022E+4
   7.86207E+3   1.84090E+4
   7.86405E+3   1.80292E+4
   7.81737E+3   1.76643E+4
   7.81277E+3   1.73449E+4
   7.70546E+3   1.70171E+4
   7.67729E+3   1.66344E+4
   7.67740E+3   1.62830E+4
   7.56920E+3   1.58618E+4
   7.41914E+3   1.54854E+4
   7.37789E+3   1.51433E+4
   7.25545E+3   1.47614E+4
   7.17683E+3   1.44266E+4
   7.07223E+3   1.41017E+4
   7.03566E+3   1.37210E+4
   6.86463E+3   1.34190E+4
   6.78909E+3   1.30903E+4
   6.63387E+3   1.27162E+4
   6.46561E+3   1.23672E+4
   6.39930E+3   1.21062E+4
   6.33818E+3   1.17298E+4
   6.20421E+3   1.14630E+4
   6.01110E+3   1.11222E+4
   5.95024E+3   1.07764E+4
   5.77391E+3   1.04448E+4
   5.67298E+3   1.01351E+4
   5.49271E+3   9.93728E+3
   5.41411E+3   9.65789E+3
   5.20893E+3   9.34742E+3
   5.15039E+3   9.04161E+3
   4.97170E+3   8.78494E+3
   4.93745E+3   8.52814E+3
   4.79060E+3   8.25871E+3
   4.62625E+3   8.01766E+3
   4.48876E+3   7.77652E+3
   4.42508E+3   7.54828E+3
   4.31196E+3   7.33621E+3
   4.07494E+3   7.11106E+3
   4.00264E+3   6.92571E+3
   3.79217E+3   6.71195E+3
   3.69019E+3   6.43869E+3
   3.53638E+3   6.31930E+3
   3.38347E+3   6.11937E+3
   3.31864E+3   5.96089E+3
   3.23435E+3   5.84413E+3
   3.05040E+3   5.62483E+3
   2.85646E+3   5.45200E+3
   2.82151E+3   5.36373E+3
   2.73980E+3   5.18168E+3
   2.63468E+3   5.01220E+3
   2.41078E+3   4.94379E+3
   2.24049E+3   4.77912E+3
   2.18047E+3   4.62175E+3
   2.02441E+3   4.57166E+3
   1.85116E+3   4.42628E+3
   1.72273E+3   4.24162E+3
   1.62247E+3   4.18667E+3
   1.50981E+3   4.04915E+3
   1.39299E+3   3.97190E+3
   1.28220E+3   3.85590E+3
   1.17823E+3   3.73096E+3
   1.02404E+3   3.73635E+3
   1.00459E+3   3.61417E+3
   8.28234E+2   3.48506E+3
   6.83544E+2   3.41846E+3
   6.79542E+2   3.35783E+3
   5.70755E+2   3.25110E+3
   4.14399E+2   3.10885E+3
   3.58113E+2   3.08390E+3
   1.76995E+2   2.99560E+3
   1.41723E+2   2.90407E+3
   1.22614E+2   2.84261E+3
  -7.61314E-1   2.83145E+3
  -4.10308E+1   2.76899E+3
  -8.48169E+1   2.64047E+3
  -2.38848E+2   2.66471E+3
  -2.97931E+2   2.65999E+3
  -3.69139E+2   2.53330E+3
  -4.27255E+2   2.56031E+3
  -4.23851E+2   2.49712E+3
  -4.52758E+2   2.46528E+3
  -5.26269E+2   2.41979E+3
  -6.02124E+2   2.46636E+3
  -6.10565E+2   2.38567E+3
  -6.41025E+2   2.39186E+3
  -6.36587E+2   2.33538E+3
  -7.53509E+2   2.39839E+3
  -7.23569E+2   2.37060E+3
  -8.28986E+2   2.39437E+3
  -8.70922E+2   2.28007E+3
  -8.69371E+2   2.34453E+3
  -8.58736E+2   2.32488E+3
  -9.44123E+2   2.35862E+3
  -9.83923E+2   2.39709E+3
  -9.14276E+2   2.38288E+3
  -1.04789E+3   2.35185E+3
  -1.05476E+3   2.32184E+3
  -1.02628E+3   2.37580E+3
  -1.00710E+3   2.35926E+3
  -1.00264E+3   2.43023E+3
  -1.09683E+3   2.47990E+3
  -1.08954E+3   2.38056E+3
  -1.09081E+3   2.43793E+3
  -1.13731E+3   2.45353E+3
  -1.13529E+3   2.46685E+3
  -1.14925E+3   2.39837E+3
  -1.17885E+3   2.46264E+3
  -1.22940E+3   2.45699E+3
  -1.15825E+3   2.44113E+3
  -1.24275E+3   2.44324E+3
  -1.26588E+3   2.45947E+3
  -1.22276E+3   2.51415E+3
  -1.21442E+3   2.54226E+3
  -1.20704E+3   2.42201E+3
  -1.19364E+3   2.49027E+3
  -1.25524E+3   2.52018E+3
  -1.25283E+3   2.54230E+3
  -1.26181E+3   2.57019E+3
  -1.21255E+3   2.52291E+3
  -1.28733E+3   2.50074E+3
  -1.26417E+3   2.55347E+3
  -1.25333E+3   2.54512E+3
  -1.26106E+3   2.58444E+3
  -1.28860E+3   2.49961E+3
  -1.17640E+3   2.48248E+3
  -1.29570E+3   2.56881E+3
  -1.27216E+3   2.63032E+3
  -1.26524E+3   2.55490E+3
  -1.28714E+3   2.51947E+3
  -1.21148E+3   2.54410E+3
  -1.23342E+3   2.65372E+3
  -1.24248E+3   2.57241E+3
  -1.18162E+3   2.57414E+3
  -1.21619E+3   2.62002E+3
  -1.17354E+3   2.59428E+3
  -1.23543E+3   2.56771E+3
  -1.14995E+3   2.59062E+3
  -1.15788E+3   2.58018E+3
  -1.10088E+3   2.53914E+3
  -1.11058E+3   2.59861E+3
  -1.14152E+3   2.57397E+3
  -1.05920E+3   2.59498E+3
  -1.09534E+3   2.60079E+3
  -1.07636E+3   2.61531E+3
  -1.08992E+3   2.62540E+3
  -1.09976E+3   2.61987E+3
  -1.03831E+3   2.63954E+3
  -1.05423E+3   2.63982E+3
  -1.09495E+3   2.62546E+3
  -9.99175E+2   2.60610E+3
  -1.10907E+3   2.61940E+3
  -1.12704E+3   2.61165E+3
  -1.03158E+3   2.53945E+3
  -9.89750E+2   2.60790E+3
  -1.00234E+3   2.60568E+3
  -9.85510E+2   2.62690E+3
  -1.01625E+3   2.56642E+3
  -9.71158E+2   2.52618E+3
  -9.19071E+2   2.55986E+3
  -1.02061E+3   2.53136E+3
  -1.01409E+3   2.54400E+3
  -1.01585E+3   2.57427E+3
  -1.02937E+3   2.54695E+3
  -9.71773E+2   2.50064E+3
  -9.32311E+2   2.57583E+3
  -9.90272E+2   2.50762E+3
  -9.52167E+2   2.46138E+3
  -9.55412E+2   2.47243E+3
  -9.37873E+2   2.51051E+3
  -9.54756E+2   2.43469E+3
  -8.91001E+2   2.45183E+3
  -9.04679E+2   2.46322E+3
  -8.77035E+2   2.38508E+3
  -8.99119E+2   2.39780E+3
  -8.41948E+2   2.40337E+3
  -8.33685E+2   2.29197E+3
  -8.66598E+2   2.37260E+3
  -8.58074E+2   2.37568E+3
  -8.81675E+2   2.30497E+3
  -7.58983E+2   2.32456E+3
  -8.24548E+2   2.32195E+3
  -7.62535E+2   2.32566E+3
  -8.18381E+2   2.31385E+3
  -7.45207E+2   2.21006E+3
  -7.38718E+2   2.22772E+3
  -6.37494E+2   2.27688E+3
  -7.46666E+2   2.25134E+3
  -6.31236E+2   2.26182E+3
  -6.64698E+2   2.16454E+3
  -6.78164E+2   2.15246E+3
  -6.56176E+2   2.19582E+3
  -6.27557E+2   2.13923E+3
  -6.10315E+2   2.08415E+3
  -5.80872E+2   2.09136E+3
  -5.53771E+2   2.15028E+3
  -5.98703E+2   2.14618E+3
  -5.67251E+2   2.15004E+3
  -5.48830E+2   2.10393E+3
  -5.07202E+2   2.07506E+3
  -5.54783E+2   2.10922E+3
  -5.21694E+2   2.08466E+3
  -4.83869E+2   2.11906E+3
  -4.80912E+2   1.98237E+3
  -4.34943E+2   2.04322E+3
  -4.76148E+2   1.99505E+3
  -4.44594E+2   1.99927E+3
  -5.40211E+2   2.09496E+3
  -4.14830E+2   1.96680E+3
  -4.73527E+2   1.94198E+3
  -4.14392E+2   1.91922E+3
  -3.74414E+2   1.91114E+3
  -3.90381E+2   1.93411E+3
  -4.09120E+2   1.92036E+3
  -4.19207E+2   1.91822E+3
  -4.17109E+2   1.89637E+3
  -4.01917E+2   1.82690E+3
  -3.58757E+2   1.86225E+3
  -3.59107E+2   1.88095E+3
  -3.96629E+2   1.81787E+3
  -4.01591E+2   1.80875E+3
  -3.61136E+2   1.74637E+3
  -3.28058E+2   1.74857E+3
  -3.32611E+2   1.74961E+3
  -2.95945E+2   1.75363E+3
  -2.95712E+2   1.71662E+3
  -2.58492E+2   1.75098E+3
  -3.50440E+2   1.70480E+3
  -3.56418E+2   1.68578E+3
  -3.23046E+2   1.75330E+3
  -2.94835E+2   1.68732E+3
  -3.14162E+2   1.67769E+3
  -2.61858E+2   1.65375E+3
  -2.65201E+2   1.64114E+3
  -2.78002E+2   1.65685E+3
  -1.81565E+2   1.56838E+3
  -3.21570E+2   1.61446E+3
  -2.67051E+2   1.52243E+3
  -2.15312E+2   1.53364E+3
  -2.66624E+2   1.50615E+3
  -2.90122E+2   1.44043E+3
  -2.47330E+2   1.47962E+3
  -2.75568E+2   1.48114E+3
  -2.32383E+2   1.48120E+3
  -2.26637E+2   1.51466E+3
  -2.90371E+2   1.44398E+3
  -2.22748E+2   1.45354E+3
  -2.40156E+2   1.41792E+3
  -2.14404E+2   1.42139E+3
  -1.98264E+2   1.42247E+3
  -1.42942E+2   1.32054E+3
  -1.71129E+2   1.32710E+3
  -2.22722E+2   1.34153E+3
  -1.28715E+2   1.27819E+3
  -1.88949E+2   1.32414E+3
  -2.10832E+2   1.31355E+3
  -1.44049E+2   1.30892E+3
  -1.39037E+2   1.28696E+3
  -1.82402E+2   1.25593E+3
  -1.82950E+2   1.21897E+3
  -1.43774E+2   1.25950E+3
  -1.73958E+2   1.18481E+3
  -2.11335E+2   1.21572E+3
  -1.63687E+2   1.22662E+3
  -1.68990E+2   1.28777E+3
  -1.87682E+2   1.19275E+3
  -1.40624E+2   1.19716E+3
  -1.57382E+2   1.17801E+3
  -1.10360E+2   1.10770E+3
  -9.73598E+1   1.21087E+3
  -5.90685E+1   1.11600E+3
  -1.57628E+2   1.09524E+3
  -1.11249E+2   1.08489E+3
  -1.65956E+2   1.14825E+3
  -1.55469E+2   1.07677E+3
  -1.49938E+2   1.09071E+3
  -1.16985E+2   1.06199E+3
  -1.10498E+2   1.09398E+3
  -2.01911E+2   1.11578E+3
  -1.54241E+2   9.70617E+2
  -9.94090E+1   1.03566E+3
  -1.19665E+2   9.90498E+2
  -1.03078E+2   1.00436E+3
  -8.58801E+1   9.94680E+2
  -8.41894E+1   9.72775E+2
  -1.53507E+2   9.55291E+2
  -9.91241E+1   9.31071E+2
  -1.32236E+2   9.07757E+2
  -7.77970E+1   9.28489E+2
  -9.15115E+1   9.00862E+2
  -1.28074E+2   9.21342E+2
