 
 $NMID
 ID=''
 FMTDAT='(2E13.5)'
 TRAMP=   1.00000E+0
 VOLUME=   1.00000E+0
 $END
   6.73714E+2   8.50441E+2
  -2.59113E+3   2.62238E+2
   2.92584E+3  -7.24371E+2
  -2.29184E+3   6.71806E+2
  -1.54895E+3   1.47111E+3
   3.59225E+3   3.77421E+3
   1.47412E+3   4.07611E+3
   1.18489E+3  -1.12512E+3
   4.90050E+3   3.61488E+1
  -1.22938E+3  -2.99509E+3
   3.69139E+3  -3.25347E+3
   4.27323E+3   1.90760E+3
  -7.81926E+2   3.14558E+3
  -5.10580E+3  -1.90478E+3
   6.53971E+2  -4.03967E+3
   1.16991E+3  -6.37923E+2
   1.70457E+3   1.33709E+3
   8.09229E+2   1.79372E+3
  -1.97434E+3  -1.49915E+3
   2.81291E+3  -3.37411E+3
   1.34394E+3   3.11672E+3
  -6.80214E+3   1.42947E+3
  -4.36388E+3  -3.34171E+3
   2.57341E+3  -2.96970E+3
   2.89329E+3   5.36952E+3
  -3.42711E+3   3.51344E+3
  -2.87629E+3   9.61760E+2
   1.45517E+3  -3.74030E+3
   3.73424E+3  -1.15534E+2
   7.56904E+3   5.81395E+3
  -1.58069E+3   7.94671E+3
  -7.74225E+3  -2.93714E+3
   2.33702E+3  -7.59872E+3
   4.23786E+3   9.28359E+1
  -3.99198E+2   7.18510E+2
   5.19200E+2  -3.68967E+3
   6.46755E+3   1.50147E+3
  -1.43986E+3   5.06511E+3
  -2.98734E+3  -1.33102E+3
  -2.08987E+3  -2.18775E+3
  -4.17903E+3  -5.50257E+3
   1.04926E+3  -7.96898E+3
   5.57702E+3  -2.69515E+3
   2.36499E+3   6.33927E+3
  -1.93828E+3   4.64208E+3
  -7.18786E+2   3.10801E+2
   1.54209E+3  -8.68560E+2
  -3.05585E+3   8.43835E+2
  -3.96774E+3  -2.12598E+3
   4.56685E+1  -4.21226E+3
   1.28823E+3  -2.21481E+3
   1.61484E+3   3.02992E+3
  -1.84563E+2   1.92728E+3
  -5.01453E+3  -2.42316E+2
  -2.31690E+3  -3.82825E+3
  -1.46935E+2  -4.93523E+3
   9.61703E+2  -7.09580E+3
   6.51559E+3  -4.01424E+3
   4.88441E+3   4.35430E+3
   1.97356E+3   5.06690E+3
  -1.12718E+3   4.38525E+3
  -4.59215E+3   9.27147E+2
  -1.49529E+3  -4.89316E+2
   4.64110E+3  -3.28811E+2
  -1.57791E+3   5.59383E+3
  -5.92210E+3   2.89649E+3
  -5.68181E+3  -2.72594E+3
   1.62453E+3  -1.68231E+2
   1.24943E+2   1.73289E+3
  -2.94414E+3   2.45054E+2
   2.68903E+2   3.90357E+2
   6.61297E+2   2.35762E+2
  -2.40327E+3   1.89938E+2
  -1.30778E+3  -4.05298E+2
  -3.38018E+3  -5.73586E+2
  -4.49682E+3  -1.36596E+3
  -6.30084E+2  -1.95094E+2
  -1.99567E+3   4.97674E+2
  -9.80466E+2   2.15921E+2
  -1.28575E+3  -2.13147E+3
   1.78650E+3  -6.81165E+2
   5.76711E+2   1.23442E+3
  -5.12850E+2  -1.54378E+3
   2.75541E+3  -2.72982E+3
   4.41513E+3  -3.14247E+3
   5.13159E+3   1.28177E+3
   1.75427E+3   3.09656E+3
  -3.74054E+3   9.70873E+2
  -3.27096E+3  -2.35433E+3
   9.03274E+1   1.73601E+3
  -4.57646E+2   2.99093E+3
  -2.28222E+3   6.43311E+2
  -1.71487E+3  -2.12252E+3
   2.57917E+3   2.92491E+3
   4.80166E+2   4.33326E+3
  -1.38374E+3  -1.75457E+1
  -3.73391E+3  -1.23562E+3
   9.00240E+2  -1.65709E+3
   3.64144E+3  -6.58944E+1
   1.63611E+3   5.38284E+3
  -2.11936E+3   2.39623E+3
  -3.73141E+2  -1.24190E+3
   1.57710E+3  -2.93703E+3
   2.60272E+3   2.33362E+3
   9.70212E+2   1.84578E+3
  -1.14279E+3  -8.58028E+2
   2.67768E+3  -6.57547E+2
   2.16334E+3   3.22881E+3
  -8.65217E+2   2.24891E+3
  -3.35482E+3  -6.33115E+2
  -1.81794E+3  -3.37964E+3
   2.79418E+2  -1.34400E+3
   1.71864E+3  -4.22676E+2
   2.06115E+3  -1.35600E+3
   1.41559E+3  -4.36782E+2
  -1.29646E+3   2.44478E+3
   2.21315E+3   2.80162E+3
  -8.78472E+2   4.51126E+2
  -4.67588E+2  -1.87961E+3
  -7.79787E+2  -1.87238E+3
   3.49387E+3  -1.36794E+3
   2.06963E+3   1.74417E+3
  -9.52494E+2   1.43448E+3
   8.95841E+2  -1.29224E+3
   1.90340E+2  -1.43438E+3
   2.22910E+3   1.09692E+3
   5.33674E+2   8.53629E+2
   3.45064E+3  -3.37308E+2
   2.54955E+3   2.10079E+3
   1.24862E+3   2.18395E+3
  -8.00209E+2   6.92063E+2
  -1.31389E+3   5.02968E+1
  -1.73481E+3   4.40829E+2
   1.48749E+3   6.80238E+2
   2.70999E+3   2.49142E+3
   3.70117E+2   1.51323E+3
  -1.55276E+3   2.83637E+2
  -7.11018E+2  -2.36977E+3
  -1.06221E+3  -8.27071E+2
  -3.24767E+2   7.31572E+2
  -6.38931E+2   1.12751E+3
   2.36830E+3  -8.77167E+2
   1.80396E+3  -1.58224E+3
   1.31963E+3  -3.31565E+1
  -3.37818E+2   9.63069E+2
  -7.74975E+1  -2.73995E+3
  -2.94354E+2   8.66371E+2
   1.00877E+3  -1.00380E+3
   7.06106E+2  -1.07947E+3
  -8.43082E+1   1.14285E+3
  -9.66548E+2   1.62106E+3
  -1.72224E+3   6.96445E+2
   8.19602E+1  -2.89660E+2
  -1.99594E+3   3.71876E+2
  -4.26162E+2  -3.15236E+3
   1.39997E+3  -2.10376E+3
  -5.25416E+2  -5.41982E+2
  -1.77597E+3   6.78923E+2
  -1.15866E+3   3.30342E+2
  -1.26921E+2   1.98269E+3
   4.78516E+2  -9.60942E+2
   6.61882E+2   1.50425E+3
   8.93071E+2   2.07927E+2
  -7.23021E+2   3.69615E+2
   4.47696E+2   7.46697E+1
   5.67042E+2  -2.25858E+2
  -1.45782E+3  -1.61934E+3
   5.76972E+2  -7.24966E+2
   1.08970E+2  -2.57680E+3
   2.08770E+3  -8.76130E+2
  -5.57564E+2   1.92374E+2
  -1.78506E+3  -5.90342E+2
  -1.18550E+3  -1.48438E+3
   2.30289E+2  -1.04776E+2
   8.78470E+2  -8.47100E+1
   1.12816E+2   7.40482E+2
  -1.63168E+2  -4.03289E+3
  -6.16153E+2   1.71541E+3
   2.33748E+3  -1.03227E+3
  -1.56859E+3  -2.60841E+2
  -9.68660E+2  -4.39085E+2
  -2.04897E+3  -1.05947E+3
  -1.46815E+3  -1.65396E+3
  -1.57015E+3  -9.83288E+2
   4.22253E+2  -1.26031E+3
  -3.89365E+2  -2.64024E+3
   1.41645E+3  -1.84228E+3
  -1.82405E+3  -1.04809E+3
  -1.98829E+3  -5.01497E+2
  -1.89736E+2   5.15269E+2
  -1.02116E+2  -2.21461E+3
   7.06829E+2  -2.59031E+2
  -8.05635E+2   1.38128E+3
   1.49493E+3  -1.92905E+3
  -1.56648E+3  -1.49051E+3
  -5.39381E+2   3.27410E+2
   1.31563E+3   1.39673E+0
  -7.36474E+2  -7.98083E+2
   9.96062E+2  -1.91689E+3
   8.57900E+2  -1.09512E+2
  -1.66670E+3  -3.47847E+2
  -5.95250E+2   3.46097E+2
  -1.88549E+3   3.81490E+2
  -5.99938E+2  -1.49302E+3
  -5.45075E+2   7.35029E+2
   6.98989E+2  -6.24055E+2
   7.59808E+2   8.89315E+2
   1.02369E+3  -3.55950E+2
   7.80279E+2   1.46178E+2
   1.04228E+3   3.98482E+2
  -1.61080E+3   4.05392E+2
   2.07353E+3   7.02978E+2
   2.41917E+3  -5.28213E+2
   2.45264E+2   1.51974E+3
  -2.02265E+2   1.15754E+2
  -1.67283E+3   3.30553E+2
  -1.88114E+3  -5.00632E+2
  -7.27698E+2   6.84197E+2
   7.63404E+2   5.40322E+1
   2.82597E+2  -4.21375E+2
   2.15511E+2   1.59000E+2
   1.35237E+3  -4.08976E+2
  -1.46311E+3   2.13116E+3
   5.71779E+2   1.70302E+3
   9.86555E+0  -1.23748E+3
   4.29230E+2  -5.57779E+2
   1.50014E+3  -5.67376E+2
  -1.13850E+3   1.83179E+3
  -1.59834E+3   1.36983E+3
  -6.15714E+2   2.80831E+2
   8.94012E+2   2.10148E+3
   9.25002E+2   5.01147E+0
  -1.16628E+2   1.97203E+3
  -1.29357E+3  -7.51625E+1
   1.62774E+3  -8.57570E+2
  -3.08160E+2   7.14319E+2
   7.37681E+2   1.63727E+3
  -1.06163E+2   1.11221E+3
  -1.41150E+3  -2.75167E+3
  -3.09321E+2   1.82548E+3
  -1.01869E+3   1.13016E+3
   6.88941E+2   2.62047E+3
  -2.59734E+1  -3.45548E+2
   1.23224E+3   1.04827E+2
   2.61389E+2   1.46010E+2
   5.52524E+2   3.00001E+3
  -1.14587E+3  -1.05856E+3
   1.40573E+2   5.94967E+2
  -1.12976E+3  -1.56923E+2
   8.54158E+1  -2.84794E+2
   3.16557E+2  -1.34485E+3
  -7.75503E+2  -3.71680E+2
  -8.96817E+2   6.59963E+2
  -8.66571E+2   1.84538E+3
   1.06832E+3   2.48488E+3
  -6.50093E+2  -5.87768E+2
  -9.76198E+1   1.63601E+2
  -2.42384E+3  -1.17633E+2
   5.30901E+2   1.41518E+3
  -1.83628E+3   2.40859E+2
  -1.40058E+3  -4.82092E+1
  -9.42013E+2   1.67865E+3
  -1.32338E+3   1.21832E+3
  -4.30720E+2   8.60166E+2
  -1.47768E+2   5.57923E+2
  -1.78021E+3  -4.36567E+2
   8.90468E+2  -1.36666E+3
  -5.08001E+2  -7.14791E+2
  -8.05080E+2  -8.37876E+2
   5.67714E+2  -1.61262E+3
  -6.90145E+1  -4.59078E+2
   7.51624E+2   2.52719E+2
  -2.23701E+3   1.50794E+3
  -1.98940E+3   6.13928E+1
   1.29584E+3   1.37267E+3
   4.93593E+2   7.79295E+2
  -1.42353E+2   4.90820E+2
  -8.02976E+2  -1.30728E+2
   2.79736E+2   1.07864E+3
   4.16479E+1   1.29184E+3
   5.45478E+2  -5.21750E+2
  -8.74744E+2  -9.78956E+2
  -7.21654E+2  -6.07857E+2
  -3.23606E+2  -1.63675E+3
  -1.26924E+2   4.26875E+2
  -8.72768E+2  -1.11956E+3
  -3.04506E+2  -1.81354E+3
  -1.85967E+3  -7.31843E+2
   5.58248E+2   1.33577E+3
   7.14311E+2  -1.70750E+3
   8.03327E+2  -1.55083E+3
  -8.05271E+2   2.88320E+2
   2.89638E+2   1.04225E+3
  -8.32837E+2   4.00556E+1
  -1.43331E+3   4.06906E+2
  -2.66746E+2  -2.43634E+2
  -1.06931E+3  -7.00136E+2
  -2.30849E+2   4.56384E+2
  -2.75945E+2  -1.96391E+3
  -2.91895E+2   2.24493E+3
  -4.15185E+2  -1.23995E+2
   8.46592E+2  -1.91466E+3
   3.33821E+2   6.24099E+2
  -1.65791E+1   1.00340E+3
  -1.28137E+2  -4.51698E+1
   2.05207E+3  -3.41070E+2
   6.27047E+2  -1.79552E+3
  -6.53432E+2   1.89384E+3
   1.12226E+3  -1.25349E+3
  -1.16188E+3  -5.39700E+2
   1.52051E+3  -7.21792E+2
   7.67455E+2   1.55039E+3
  -4.55603E+2  -2.02040E+3
   1.79521E+3  -4.73627E+2
  -4.24550E+2  -2.44320E+2
   1.05127E+3   1.34613E+2
  -8.95448E+2  -6.99608E+2
   9.22495E+2  -2.39431E+2
   1.05934E+2  -5.30664E+2
  -2.82908E+2   1.50735E+3
   9.60452E+2   8.31160E+2
  -1.15994E+2  -1.19428E+2
   2.85071E+2   8.58410E+2
  -2.51585E+3   1.25426E+3
   6.68276E+2   9.58002E+2
   1.69811E+2  -1.35983E+3
  -1.09319E+3   1.14725E+3
  -1.26340E+3  -4.04864E+2
   6.07205E+2   5.91933E+2
  -1.70017E+3  -1.34699E+3
   2.09168E+3   1.96124E+2
  -9.67181E+2   1.14122E+3
   1.78239E+2  -1.58262E+3
  -4.76501E+2   6.68993E+2
   1.08045E+3   4.56344E+2
  -1.17708E+2  -8.67814E+2
  -4.30447E+2  -3.38847E+2
  -4.60247E+1   5.08663E+1
  -1.76038E+3  -1.12720E+3
   1.31656E+3   6.30700E+0
  -8.55742E+2  -3.86888E+2
   6.30496E+2   2.82818E+2
  -1.14230E+3  -7.73023E+2
   2.01863E+3  -3.87512E+2
   9.71182E+2   4.33086E+1
   2.51233E+3  -1.04296E+3
  -2.02782E+2  -2.07327E+2
  -1.20465E+1  -3.02586E+2
  -1.70976E+2  -8.02757E+2
  -2.30088E+2  -5.86846E+2
  -7.56052E+2  -1.36631E+3
   1.31549E+3  -5.06481E+2
  -5.80924E+2   3.87110E+2
  -1.52622E+3  -5.07260E+2
  -2.59731E+2  -5.46071E+2
  -5.31586E+2  -6.11575E+2
  -1.74604E+3  -3.26954E+3
  -5.88362E+2  -2.73724E+2
  -2.69418E+1   2.97799E+2
   1.06403E+3  -5.57986E+2
  -4.04866E+1  -3.37196E+2
   1.07263E+3  -9.40698E+2
  -1.07740E+2   8.24263E+2
   4.85115E+2   2.77039E+3
  -1.84722E+2   1.77334E+2
   7.04284E+1   6.94752E+2
  -5.46304E+2  -3.38531E+2
