 
 $NMID
 ID=''
 FMTDAT='(2E13.5)'
 TRAMP=   1.00000E+0
 VOLUME=   1.00000E+0
 $END
  -3.01570E+2  -4.32739E+0
   2.20305E+2  -3.20134E+2
  -4.36927E+2   1.82846E+3
   1.96403E+3   1.03206E+1
   6.72788E+2   8.07823E+2
   6.22579E+2  -1.82921E+3
  -1.95574E+3  -1.02088E+3
   3.97137E+2   2.62804E+2
   1.43556E+2   1.08403E+2
   2.49296E+3   4.10521E+2
   3.65512E+1   3.11724E+3
  -1.80049E+3  -4.14647E+2
  -6.13942E+2   2.56412E+2
   2.09003E+3  -9.06350E+2
   2.58829E+3  -3.18528E+2
   1.79122E+3   7.22744E+2
  -1.58962E+3   1.23976E+3
  -1.47316E+3  -5.28372E+1
   1.36659E+3   4.16423E+2
  -8.88401E+2   1.50030E+3
   1.37571E+3   2.90964E+2
   1.09935E+3   1.65290E+3
   1.36742E+3   3.47875E+2
  -5.47333E+2  -3.68974E+2
  -1.44131E+3   2.08655E+3
  -2.46179E+3  -1.14658E+3
   2.51138E+3  -7.05737E+2
  -1.75250E+2   3.46769E+3
  -8.64648E+2   3.43310E+3
  -1.93029E+3   5.85675E+2
  -1.49617E+3  -2.36307E+3
   4.77618E+2  -1.24876E+3
   2.67863E+2  -7.86561E+2
  -2.06284E+3  -7.36245E+2
  -2.63457E+3   2.71889E+3
  -2.47501E+3   8.54179E+2
  -2.86485E+3   1.17687E+3
  -2.22097E+3   4.22643E+1
  -1.03089E+3   2.24664E+2
  -1.62645E+3  -9.10193E+2
   8.33716E+2  -2.14426E+3
  -2.66092E+2  -7.82329E+2
  -8.16627E+2   1.11730E+3
  -2.03117E+3   8.38188E+2
  -1.25340E+3  -2.18422E+2
  -4.32401E+2  -1.74188E+3
   1.24999E+3  -1.39522E+3
   2.01707E+3  -1.65794E+3
   1.00655E+3  -8.28409E+2
   2.90925E+2  -1.48245E+3
   2.13047E+3  -2.63119E+2
   2.00822E+3  -2.13911E+2
   1.63419E+2  -3.62302E+2
  -3.92670E+2  -5.85146E+2
  -6.01530E+2  -2.88602E+3
   2.94951E+3  -2.49379E+3
   1.98818E+3  -3.97611E+3
   4.88039E+2  -1.31675E+3
   7.40794E+2   2.79163E+1
  -7.57568E+2  -6.31121E+2
  -5.82867E+2  -1.65290E+2
  -1.82795E+3   8.08341E+2
  -1.93565E+3  -1.03173E+3
  -1.30762E+3   4.61439E+2
  -1.24163E+3   2.36760E+3
  -1.08387E+3   2.26932E+3
   8.18280E+2  -3.74844E+2
   9.04109E+2  -1.69123E+2
   2.10783E+1  -1.28108E+3
  -5.35104E+0   1.25719E+3
  -4.30438E+2   3.41812E+2
  -5.85915E+2  -7.03075E+2
   7.13035E+2   3.34715E+2
  -4.29334E+2   9.03021E+2
   1.06706E+3   1.85759E+3
   1.97664E+2  -1.38366E+3
  -5.41077E+2  -1.34170E+3
   1.24015E+3   8.47174E+2
   8.87110E+2   4.23140E+2
  -1.01325E+3  -2.52308E+3
   1.24938E+3  -2.49150E+2
   3.20350E+2  -1.70990E+3
   2.54813E+3  -2.20879E+2
  -8.53432E+2  -1.52748E+3
   9.02239E+2   8.60969E+2
   9.40403E+2   5.04194E+1
   2.21594E+3  -1.19206E+3
   1.36284E+3  -7.90007E+1
   1.24518E+3   1.81081E+3
  -1.48240E+3  -4.43035E+2
   8.81697E+2  -4.24813E+2
   2.01285E+3   1.81890E+3
  -1.29069E+3   1.91969E+3
  -2.45310E+3  -6.99806E+2
   1.22726E+3  -1.29390E+3
   2.45693E+3  -1.10624E+3
   2.55334E+3  -1.52780E+3
  -9.67044E+2  -2.61330E+2
  -8.22205E+2  -5.11292E+2
  -7.10515E+2   2.05229E+2
   2.05450E+3  -1.40359E+3
   7.50829E+2   7.99037E+2
   9.14190E+1   2.51847E+3
  -5.03689E+2  -8.41534E+1
   4.94962E+1  -8.95904E+2
  -4.17424E+2  -1.12566E+3
   1.69725E+3   6.63599E+2
   8.71954E+2  -5.06737E+2
  -4.66362E+2  -2.67708E+3
   2.99728E+2   5.95299E+2
   5.67592E+2   2.06635E+3
   6.81108E+2   1.79865E+3
  -3.78831E+2   3.50398E+3
  -6.25591E+2   1.08107E+3
  -9.95392E+2   1.37114E+3
  -1.93213E+3  -3.44096E+2
   3.26428E+2  -1.57104E+3
   1.58997E+3   1.63616E+2
  -6.49677E+1   4.87153E+2
   1.01371E+3   1.17423E+3
  -8.40180E+2   7.69703E+2
  -3.85714E+2   1.67664E+3
   1.06897E+3  -6.25458E+2
   2.42448E+2  -1.03470E+3
   1.33684E+3   8.54214E+2
  -1.60455E+2   1.30048E+3
  -7.04223E+2   3.63249E+2
  -4.46440E+1   6.72053E+2
  -2.98231E+3   1.38632E+3
   3.09327E+1   1.28108E+2
   8.61754E+2   6.87136E+2
  -9.40690E+2   3.90999E+2
   2.60625E+2  -1.23548E+3
   1.90820E+2   9.74750E+2
   9.54545E+2   1.44752E+3
   6.58237E+2   2.90606E+3
   1.41564E+3   1.88430E+3
  -2.70722E+1  -1.19371E+3
   2.31923E+1  -5.82977E+2
  -3.62084E+2   2.37312E+2
   1.36113E+3  -6.86118E+2
  -1.42907E+3  -1.72339E+3
   7.53838E+2  -1.31964E+3
  -3.26468E+1   1.16646E+3
  -4.61247E+2  -1.20008E+3
   7.91824E+2   3.99388E+2
  -1.35148E+3  -3.20050E+2
   2.25052E+2  -4.00691E+2
  -7.08215E+2  -5.56910E+2
   3.09916E+2   2.29199E+3
  -8.77033E+2  -5.99595E+2
  -8.60229E+2   1.40237E+3
   8.20424E+2  -1.56065E+3
  -1.40787E+3   2.23166E+3
   1.50710E+3  -1.08466E+3
   1.62231E+3   1.11144E+3
  -1.13227E+3   2.18787E+2
   1.18797E+2  -1.65338E+3
   1.15110E+2   2.35289E+2
  -2.75888E+3  -1.91198E+2
  -1.25084E+3  -3.80568E+2
  -9.14388E+2   1.08427E+3
   8.57635E+2  -3.56728E+2
   3.83277E+2   1.03691E+3
  -1.21636E+3   2.52250E+2
  -1.66985E+3   1.27722E+3
   1.77896E+3  -4.76468E+2
   7.69761E+2  -7.54286E+2
   2.26320E+3   8.43590E+2
  -6.23001E+1   2.04841E+3
  -3.53378E+2   2.93427E+3
   6.50331E+2  -2.47358E+2
  -6.31038E+2  -6.39987E+2
  -5.31034E+2   1.95472E+3
   6.86636E+2  -2.20531E+2
  -1.76632E+3   1.50068E+2
  -3.04617E+3  -1.28837E+3
   2.28518E+3   7.00383E+0
   7.64342E+1   3.98464E+2
  -8.18078E+2   3.67158E+1
  -1.33297E+3  -4.68706E+1
   1.68954E+2  -8.06155E+2
  -3.11722E+2  -4.77998E+2
  -2.52838E+3  -1.50287E+2
  -2.16333E+2   5.24671E+2
   3.86724E+1   6.46287E+2
  -7.42782E+1  -3.05215E+1
   7.43527E+2   6.28412E+2
   5.81016E+2   1.44935E+3
   1.39961E+3  -9.67698E+2
  -1.09223E+3  -9.28319E+1
  -4.96947E+2  -6.72081E+2
  -2.60060E+3  -5.23913E+2
  -4.71944E+2  -1.81158E+3
   1.10442E+2   7.15511E+2
   1.06285E+3  -1.25201E+3
  -9.72989E+2  -1.34604E+3
   1.29618E+3   3.49484E+2
  -4.91687E+2   2.00843E+3
   2.11673E+1  -1.30804E+3
   8.79960E+2   1.62896E+2
  -6.06718E+1  -1.59703E+3
  -5.52609E+2   4.41491E+2
  -1.70756E+3   4.00493E+2
   5.76031E+2   1.21113E+3
   1.47751E+3  -1.34258E+3
   9.35414E+2  -1.36214E+3
  -1.87812E+3   1.35237E+3
   1.62672E+2   8.79640E+2
   1.85749E+2  -9.67609E+2
  -1.87906E+3  -2.43939E+2
   3.15437E+2  -2.71066E+2
  -2.24624E+3   1.44759E+2
  -3.63540E+2   9.06463E+2
   7.35907E+2   1.38407E+3
   1.05777E+2   8.83389E+2
   5.29140E+2   1.28842E+2
   7.40152E+2  -8.90085E+1
  -9.68132E+2   6.29934E+0
  -2.25126E+2  -1.00431E+3
   1.87355E+2  -3.97407E+2
   1.33050E+2   3.26168E+2
   2.13671E+2   9.14419E+2
  -1.87258E+3   1.07063E+3
   4.78048E+2  -1.61822E+3
   2.20804E+2  -1.16635E+3
   5.59080E+2  -6.52576E+2
  -1.30092E+3  -1.50755E+3
  -4.73026E+2  -5.09883E+2
  -1.27002E+3  -5.51880E+2
  -1.87303E+3   1.58723E+3
   9.21745E+2  -1.34071E+2
  -4.08587E+2  -9.60920E+2
   9.16916E+2   7.73768E+2
  -1.59310E+2  -2.63338E+3
   1.04996E+3  -1.11932E+3
  -1.46191E+2   1.62550E+3
   2.21930E+3   1.23196E+3
  -4.73176E+2  -3.51285E+3
  -1.68586E+3   2.32147E+3
  -8.56663E+2  -6.26626E+2
  -2.44481E+2  -1.26629E+3
  -4.85814E+2   2.27190E+3
   2.09250E+2   8.85557E+2
   9.26151E+2  -2.36747E+3
  -2.08014E+3   3.23119E+2
  -2.22775E+2  -9.94191E+2
   1.43219E+2   1.31049E+3
  -3.45195E+2   1.00724E+3
  -1.34818E+3   1.28477E+3
   5.64636E+2   1.49382E+3
   2.26934E+3  -1.11620E+3
   3.42281E+2   1.06742E+3
   1.28313E+3   6.10341E+1
  -3.01555E+2  -2.03924E+2
  -6.15497E+2   5.30947E+2
   3.76275E+2   3.65065E+2
   4.17279E+1  -1.48519E+2
  -1.55629E+2  -1.32029E+3
   1.26694E+3   9.44354E+2
   2.64720E+3  -1.01145E+3
  -8.23567E+2  -1.92138E+2
  -2.01347E+3  -7.76263E+2
   1.04545E+3  -1.28212E+3
   2.14815E+2  -5.53071E+2
   1.59659E+2   1.48779E+2
   3.24627E+2  -1.78549E+2
   1.04954E+3   2.42690E+1
   3.32763E+1  -5.57653E+2
   8.53815E+1   1.86166E+3
  -2.59028E+1   2.68137E+2
  -6.84191E+2  -1.15871E+3
   3.34106E+2   1.03182E+2
   9.31073E+2  -6.94220E+2
   8.63072E+2  -1.85703E+3
  -1.56337E+3  -8.81488E+2
  -2.78330E+3   5.75514E+2
  -8.57322E+2   1.48398E+3
   2.47837E+2  -7.78601E+2
  -4.05078E+2  -1.19154E+3
   1.70631E+3   3.63515E+2
   3.68332E+2  -1.71083E+3
  -3.89526E+2   1.58990E+3
   4.94009E+2  -1.16174E+2
  -1.16002E+3   1.08651E+3
   7.81944E+1  -2.92230E+2
  -7.29825E+2  -3.74435E+1
  -3.27100E+2  -9.25375E+2
   3.75496E+1  -6.31434E+2
   9.74730E+2   9.57684E+2
  -3.03896E+2   1.81459E+3
   6.98972E+2  -5.34839E+2
  -1.46525E+3   9.43006E+2
   1.27705E+3   2.34116E+2
  -4.14432E+2  -5.50006E+2
   1.74777E+3   1.03884E+3
  -1.92990E+3   6.41540E+2
   7.65551E+1   1.49823E+3
   2.13039E+1  -6.92233E+2
   2.05636E+3  -1.36952E+2
  -2.26977E+2   7.51150E+1
  -2.13386E+2   1.66628E+3
  -9.84287E+2   5.69898E+2
   1.77393E+3   6.70042E+2
   6.36036E+2   7.36346E+2
  -1.15496E+3   2.14277E+3
  -4.72078E+2  -5.53976E+2
  -1.25035E+2   1.10003E+2
  -2.29189E+3   1.05707E+3
  -3.96738E+2  -2.86855E+2
  -4.10134E+2  -1.43314E+3
   1.33558E+3   4.54060E+2
   5.11750E+2   8.87442E+2
  -1.36223E+3  -7.68897E+2
  -1.02079E+3  -7.66804E+2
   1.36571E+2  -1.65862E+3
   5.68141E+2   1.19171E+3
  -6.47016E+2  -1.88577E+3
   7.55621E+1   1.54859E+3
   1.55498E+3  -1.18029E+2
  -3.86212E+2  -4.03754E+1
  -6.78217E+2   1.25483E+3
   5.29797E+2  -1.21765E+3
  -1.59617E+3  -1.89696E+2
   8.87332E+2   4.35171E+2
  -2.74579E+2  -1.30357E+2
   4.57328E+2  -7.33787E+2
  -1.14162E+3  -5.06593E+2
   2.64421E+3   8.85001E+2
   1.03077E+3  -2.77583E+2
   1.59890E+3  -1.26821E+3
   5.50171E+2  -8.92309E+2
  -8.57025E+2   2.28559E+3
  -2.75966E+2   1.04747E+3
   4.52555E+2   7.52719E+2
  -1.54070E+2   1.14740E+3
   7.75923E+2  -1.37860E+3
  -4.45203E+2   3.50392E+3
  -1.13388E+3  -4.48567E+2
   2.34930E+2   1.55010E+3
   6.10243E+2  -5.28380E+2
   3.60879E+2   1.50894E+3
  -3.88839E+2   1.04437E+3
  -6.90846E+2  -1.97443E+2
   1.98242E+3   4.25017E+2
   1.05392E+3   1.12333E+3
   9.25459E+2  -9.06929E+2
  -1.70086E+3   8.76423E+1
   1.80744E+1  -1.17594E+3
  -1.93191E+2   4.23565E+2
   7.18407E+1   1.29158E+3
   7.05883E+2   2.97880E+2
  -2.40982E+2   2.14626E+3
  -1.53621E+3   4.83055E+2
   8.44233E+2   3.95399E+2
   1.54792E+3   1.12220E+3
   1.01002E+3   1.74590E+3
   9.92214E+2  -3.84156E+2
   1.18074E+3   1.53332E+3
   1.73168E+3   9.07054E+2
   9.63061E+2   9.14732E+2
   1.88335E+2  -1.26162E+3
  -1.75826E+2  -6.37240E+2
   1.99693E+2  -1.59844E+3
   2.04290E+3   9.27379E+2
  -2.95592E+2   1.27577E+2
   1.18944E+3   4.02102E+2
