 
 $NMID
 ID=''
 FMTDAT='(2E13.5)'
 TRAMP=   1.00000E+0
 VOLUME=   1.00000E+0
 $END
  -2.20836E+4  -3.24865E+3
  -5.19709E+4  -2.61368E+4
  -5.42346E+4  -1.97651E+4
  -4.89215E+4  -2.20382E+4
  -4.90019E+4  -2.72806E+4
  -4.80315E+4  -2.80248E+4
  -4.39499E+4  -3.11872E+4
  -4.21826E+4  -3.52473E+4
  -4.02242E+4  -3.63897E+4
  -3.62717E+4  -3.90257E+4
  -3.36109E+4  -4.20091E+4
  -3.10808E+4  -4.28653E+4
  -2.72967E+4  -4.45233E+4
  -2.42988E+4  -4.69178E+4
  -2.11634E+4  -4.75819E+4
  -1.71981E+4  -4.84585E+4
  -1.40346E+4  -4.97747E+4
  -1.08278E+4  -4.98476E+4
  -7.07482E+3  -5.00725E+4
  -3.79953E+3  -5.04785E+4
  -5.98078E+2  -4.98587E+4
   2.77775E+3  -4.94895E+4
   6.01088E+3  -4.91864E+4
   9.09032E+3  -4.80090E+4
   1.25176E+4  -4.68253E+4
   1.53964E+4  -4.58577E+4
   1.82338E+4  -4.40867E+4
   2.14062E+4  -4.22991E+4
   2.41586E+4  -4.04834E+4
   2.65380E+4  -3.81943E+4
   2.88190E+4  -3.59373E+4
   3.11475E+4  -3.37570E+4
   3.31852E+4  -3.09841E+4
   3.48853E+4  -2.82186E+4
   3.64397E+4  -2.57192E+4
   3.78324E+4  -2.27233E+4
   3.88838E+4  -1.98206E+4
   3.97731E+4  -1.70274E+4
   4.04729E+4  -1.40049E+4
   4.10719E+4  -1.09647E+4
   4.13772E+4  -8.08422E+3
   4.15601E+4  -4.92490E+3
   4.13809E+4  -1.89811E+3
   4.09541E+4   9.04121E+2
   4.03850E+4   3.74881E+3
   3.96864E+4   6.54184E+3
   3.87521E+4   9.23468E+3
   3.77263E+4   1.18392E+4
   3.64697E+4   1.41985E+4
   3.50532E+4   1.66039E+4
   3.35850E+4   1.89295E+4
   3.17857E+4   2.09906E+4
   3.01267E+4   2.28569E+4
   2.82183E+4   2.45927E+4
   2.62920E+4   2.63212E+4
   2.42492E+4   2.78279E+4
   2.21169E+4   2.91509E+4
   1.98604E+4   3.03668E+4
   1.75976E+4   3.12458E+4
   1.53063E+4   3.21197E+4
   1.30238E+4   3.26953E+4
   1.07834E+4   3.31618E+4
   8.60759E+3   3.35259E+4
   6.23819E+3   3.38178E+4
   4.08581E+3   3.37999E+4
   1.86248E+3   3.36666E+4
  -2.57335E+2   3.35262E+4
  -2.38538E+3   3.30519E+4
  -4.41614E+3   3.24587E+4
  -6.34524E+3   3.18453E+4
  -8.22326E+3   3.11155E+4
  -1.00357E+4   3.01591E+4
  -1.16573E+4   2.92317E+4
  -1.32899E+4   2.80780E+4
  -1.48183E+4   2.69789E+4
  -1.61656E+4   2.57546E+4
  -1.74115E+4   2.44640E+4
  -1.86193E+4   2.30597E+4
  -1.96832E+4   2.16487E+4
  -2.05642E+4   2.01722E+4
  -2.14577E+4   1.86803E+4
  -2.22229E+4   1.71465E+4
  -2.27535E+4   1.55919E+4
  -2.32856E+4   1.41831E+4
  -2.36569E+4   1.24990E+4
  -2.39038E+4   1.09491E+4
  -2.40167E+4   9.46131E+3
  -2.39662E+4   7.88268E+3
  -2.39073E+4   6.52110E+3
  -2.37446E+4   5.13527E+3
  -2.35211E+4   3.72746E+3
  -2.31874E+4   2.51746E+3
  -2.28510E+4   1.21843E+3
  -2.23651E+4  -7.05386E+0
  -2.17592E+4  -1.18321E+3
  -2.10737E+4  -2.16677E+3
  -2.04385E+4  -3.21893E+3
  -1.97922E+4  -3.99377E+3
  -1.90654E+4  -4.96822E+3
  -1.81623E+4  -5.80859E+3
  -1.73668E+4  -6.50288E+3
  -1.64907E+4  -7.13577E+3
  -1.57275E+4  -7.61001E+3
  -1.48872E+4  -8.22576E+3
  -1.40277E+4  -8.69999E+3
  -1.31859E+4  -9.01629E+3
  -1.23495E+4  -9.39457E+3
  -1.15474E+4  -9.62003E+3
  -1.06167E+4  -9.90224E+3
  -9.83500E+3  -9.97314E+3
  -8.99415E+3  -1.00613E+4
  -8.25973E+3  -1.01562E+4
  -7.46413E+3  -1.01778E+4
  -6.68517E+3  -1.01011E+4
  -5.97824E+3  -1.00498E+4
  -5.30079E+3  -9.93402E+3
  -4.60872E+3  -9.80884E+3
  -4.05052E+3  -9.64100E+3
  -3.41220E+3  -9.45852E+3
  -2.83027E+3  -9.18787E+3
  -2.32206E+3  -8.94819E+3
  -1.71262E+3  -8.78865E+3
  -1.24262E+3  -8.42735E+3
  -8.13917E+2  -8.21268E+3
  -3.58133E+2  -7.93210E+3
   6.61036E+1  -7.63866E+3
   3.97532E+2  -7.36760E+3
   7.73255E+2  -6.97479E+3
   1.09069E+3  -6.76864E+3
   1.35923E+3  -6.35669E+3
   1.73086E+3  -6.05772E+3
   2.02631E+3  -5.72960E+3
   2.20593E+3  -5.46058E+3
   2.42035E+3  -5.19400E+3
   2.65358E+3  -4.91819E+3
   2.88853E+3  -4.57737E+3
   3.01484E+3  -4.23597E+3
   3.18557E+3  -3.94857E+3
   3.33219E+3  -3.61115E+3
   3.48215E+3  -3.35266E+3
   3.54899E+3  -3.03797E+3
   3.68223E+3  -2.79477E+3
   3.72512E+3  -2.51252E+3
   3.80134E+3  -2.22518E+3
   3.86324E+3  -1.89921E+3
   4.04578E+3  -1.71819E+3
   4.00778E+3  -1.44884E+3
   3.99237E+3  -1.24137E+3
   4.05359E+3  -9.86493E+2
   4.12909E+3  -7.80499E+2
   4.13018E+3  -5.29592E+2
   4.08242E+3  -2.50908E+2
   4.10930E+3  -8.90403E+1
   4.06865E+3   7.77719E+1
   4.11877E+3   3.52118E+2
   4.06969E+3   5.01302E+2
   4.06248E+3   7.26117E+2
   4.03131E+3   8.50957E+2
   3.91651E+3   1.06470E+3
   3.86868E+3   1.15544E+3
   3.89942E+3   1.41630E+3
   3.84759E+3   1.59002E+3
   3.76414E+3   1.75965E+3
   3.67478E+3   1.88905E+3
   3.62163E+3   2.05469E+3
   3.49772E+3   2.09806E+3
   3.40241E+3   2.27597E+3
   3.35604E+3   2.35666E+3
   3.23192E+3   2.53245E+3
   3.17965E+3   2.63957E+3
   3.07807E+3   2.67586E+3
   2.97409E+3   2.82124E+3
   2.88633E+3   2.93929E+3
   2.75553E+3   3.00932E+3
   2.62474E+3   3.08561E+3
   2.55257E+3   3.10107E+3
   2.49124E+3   3.18967E+3
   2.31361E+3   3.19916E+3
   2.24242E+3   3.21442E+3
   2.12025E+3   3.25954E+3
   2.03760E+3   3.30692E+3
   1.92080E+3   3.25246E+3
   1.85847E+3   3.34202E+3
   1.79217E+3   3.32891E+3
   1.65918E+3   3.35630E+3
   1.61016E+3   3.37863E+3
   1.59451E+3   3.35609E+3
   1.42890E+3   3.34342E+3
   1.32023E+3   3.37849E+3
   1.29571E+3   3.36502E+3
   1.18313E+3   3.33586E+3
   1.17177E+3   3.33389E+3
   1.12840E+3   3.33134E+3
   1.01538E+3   3.27632E+3
   9.63993E+2   3.27008E+3
   9.71846E+2   3.29087E+3
   9.33928E+2   3.21363E+3
   8.81334E+2   3.19177E+3
   8.67905E+2   3.12480E+3
   8.26651E+2   3.21365E+3
   7.58231E+2   3.17048E+3
   7.38620E+2   3.07809E+3
   7.07202E+2   3.11985E+3
   6.66689E+2   3.07039E+3
   6.58309E+2   3.12456E+3
   6.41271E+2   3.09164E+3
   6.05125E+2   3.04907E+3
   5.87848E+2   3.05876E+3
   5.26413E+2   3.08497E+3
   5.63406E+2   3.03523E+3
   4.82874E+2   3.03596E+3
   4.50326E+2   3.01253E+3
   4.66384E+2   3.00012E+3
   4.95430E+2   2.97421E+3
   4.84246E+2   2.97423E+3
   3.58748E+2   2.94256E+3
   3.35947E+2   2.89210E+3
   3.35994E+2   2.91320E+3
   2.21856E+2   3.00108E+3
   2.62028E+2   2.90801E+3
   2.78476E+2   2.84187E+3
   2.59286E+2   2.89099E+3
   1.69852E+2   2.85417E+3
   1.90245E+2   2.82092E+3
   1.93502E+2   2.89141E+3
   1.33315E+2   2.80512E+3
   1.18619E+2   2.73593E+3
   1.13850E+2   2.79206E+3
   6.97275E+1   2.74869E+3
   1.10008E+2   2.72124E+3
   3.35780E+1   2.72198E+3
   4.28564E+1   2.70261E+3
   1.15293E+1   2.67604E+3
   3.15271E+0   2.57894E+3
   7.31241E+0   2.59160E+3
  -2.23659E+1   2.49749E+3
  -5.02085E+1   2.53147E+3
  -4.88887E+1   2.53103E+3
  -5.53721E+1   2.51628E+3
  -5.95670E+1   2.44886E+3
  -1.29460E+2   2.46089E+3
  -1.18783E+2   2.41799E+3
  -8.47480E+1   2.36651E+3
  -8.89617E+1   2.37642E+3
  -7.71751E+1   2.29608E+3
  -1.05033E+2   2.23301E+3
  -4.56968E+1   2.19870E+3
  -6.83847E+1   2.23520E+3
  -7.91418E+1   2.23580E+3
  -5.37067E+1   2.14683E+3
  -3.77051E+1   2.25895E+3
  -1.06716E+2   2.12160E+3
  -6.87819E+1   2.10450E+3
   1.81547E+1   2.07388E+3
  -5.44237E+1   2.02002E+3
  -7.11034E+1   2.08280E+3
   4.23769E+1   2.04531E+3
   6.38141E+0   2.01085E+3
   4.07757E+1   2.03208E+3
  -1.07638E+1   1.97809E+3
   3.75900E+1   1.90869E+3
   7.67776E+0   1.98266E+3
   4.30794E+1   1.92231E+3
   4.95729E+1   1.92737E+3
   1.11339E+1   1.96229E+3
   9.79019E+1   1.86661E+3
  -5.10614E-1   1.88771E+3
   5.59739E+1   1.86481E+3
   9.77338E+1   1.83613E+3
   1.10528E+2   1.81940E+3
   6.48553E+1   1.84111E+3
   6.91041E+1   1.80956E+3
   3.21557E+1   1.74579E+3
   5.82810E+1   1.78062E+3
   6.57764E+1   1.84761E+3
   1.38039E+2   1.72270E+3
   9.35449E+1   1.71167E+3
   6.59758E+1   1.74916E+3
   1.44430E+2   1.65697E+3
   1.41861E+2   1.73601E+3
   1.09986E+2   1.62540E+3
   1.15230E+2   1.70310E+3
   8.46528E+1   1.63204E+3
   1.02925E+2   1.61926E+3
   1.24100E+2   1.55274E+3
   1.21724E+2   1.53398E+3
   7.50370E+1   1.48386E+3
   1.76556E+2   1.50068E+3
   1.32867E+2   1.47412E+3
   8.10534E+1   1.42567E+3
   1.31913E+2   1.41795E+3
   9.53536E+1   1.48501E+3
   1.28573E+2   1.37949E+3
   1.07494E+2   1.42379E+3
   8.64533E+1   1.30726E+3
   1.19449E+2   1.35130E+3
   1.17414E+2   1.35917E+3
   7.41716E+1   1.35490E+3
   1.31154E+2   1.28686E+3
   1.43837E+2   1.23907E+3
   1.67413E+2   1.24724E+3
   1.82032E+2   1.17082E+3
   1.57591E+2   1.20333E+3
   1.67075E+2   1.16238E+3
   1.46553E+2   1.15902E+3
   1.58889E+2   1.16879E+3
   1.51259E+2   1.12125E+3
   1.84596E+2   1.06076E+3
   1.86717E+2   1.16716E+3
   1.86821E+2   1.11449E+3
   1.78331E+2   1.04206E+3
   1.34485E+2   1.01278E+3
   1.93130E+2   9.75351E+2
   1.90407E+2   1.03674E+3
   1.73325E+2   1.01955E+3
   1.51177E+2   9.93166E+2
   1.65281E+2   1.01104E+3
   2.22005E+2   1.00538E+3
   2.11177E+2   9.88210E+2
   2.95814E+2   9.04512E+2
   2.04361E+2   9.15282E+2
   1.48283E+2   9.24060E+2
   2.61025E+2   8.51750E+2
   1.92857E+2   8.24719E+2
   2.70280E+2   7.95001E+2
   2.55582E+2   8.36731E+2
   2.21877E+2   8.31901E+2
   1.99382E+2   7.68752E+2
   2.71616E+2   7.28938E+2
   1.85305E+2   7.86333E+2
   2.95884E+2   7.08024E+2
   2.53572E+2   6.69531E+2
   2.12746E+2   7.76488E+2
   2.39460E+2   7.17785E+2
   2.42440E+2   6.96257E+2
   3.18688E+2   6.64753E+2
   2.48114E+2   7.18440E+2
   2.47848E+2   5.94952E+2
   2.79909E+2   6.19065E+2
   2.93487E+2   5.66103E+2
   2.46019E+2   6.02142E+2
   3.22481E+2   5.36134E+2
   3.01211E+2   5.38808E+2
   3.09171E+2   5.53618E+2
   2.53304E+2   5.67211E+2
   2.39206E+2   5.48340E+2
   2.69475E+2   5.39036E+2
   2.99766E+2   5.04317E+2
   3.40191E+2   5.58800E+2
   2.55579E+2   5.11988E+2
   2.67749E+2   5.09708E+2
   2.84987E+2   5.27794E+2
   3.26102E+2   5.14888E+2
   2.71556E+2   5.41490E+2
   2.70443E+2   4.43365E+2
   3.12624E+2   4.27194E+2
   3.00865E+2   4.53359E+2
   3.04886E+2   4.59116E+2
   3.55478E+2   4.57552E+2
   3.01799E+2   4.54288E+2
   3.89825E+2   4.77663E+2
   3.42406E+2   4.88762E+2
   3.29807E+2   4.09190E+2
   3.25608E+2   4.09724E+2
   3.37082E+2   4.11806E+2
   3.06970E+2   3.64147E+2
   2.76580E+2   4.05328E+2
