 
 $NMID
 ID=''
 FMTDAT='(2E13.5)'
 TRAMP=   1.00000E+0
 VOLUME=   1.00000E+0
 $END
   6.15232E+2  -8.08616E+2
   4.80152E+2   1.26579E+3
  -7.67463E+2  -4.73153E+3
  -1.64725E+3   2.37439E+3
  -4.19345E+2   1.09714E+3
   1.40518E+3  -7.64087E+2
  -2.10544E+3   8.71784E+2
  -5.74606E+2   1.10361E+3
  -1.59456E+2  -2.65611E+3
  -1.75522E+3  -1.47924E+3
   3.20414E+2  -7.07880E+2
   5.28172E+2   1.14184E+3
  -9.55713E+2   3.88904E+3
  -3.82546E+3   4.36712E+3
  -1.08016E+3   1.43439E+3
   5.08566E+2  -3.53219E+3
   4.95444E+3  -1.70355E+3
   1.04726E+3   1.52634E+3
  -1.92240E+3   1.28192E+3
  -2.26773E+3  -2.38182E+2
   5.10338E+2  -2.59771E+3
   3.00550E+3   2.60395E+3
  -2.48513E+3   3.39963E+3
  -4.49072E+3  -3.61377E+3
   3.01674E+3  -3.61102E+3
   4.81527E+2   2.44820E+3
  -3.57210E+3   4.48570E+3
  -4.07755E+3  -3.91637E+2
  -2.72394E+2  -3.82534E+3
   4.48633E+3  -1.58938E+3
   3.89444E+3   4.47608E+3
  -9.33028E+2   7.86549E+3
  -3.93325E+3   3.55784E+3
  -1.14942E+3   5.74803E+2
   4.43219E+2   1.23526E+3
  -1.10538E+3  -1.29220E+3
   1.65873E+3  -3.81988E+3
   6.18785E+3  -7.43219E+2
   2.38584E+3   1.83075E+3
   1.59621E+3   1.41021E+3
   2.75945E+2   3.97677E+3
  -2.37945E+3   2.37744E+3
  -2.55340E+3  -3.24346E+3
   2.68635E+3  -3.29306E+3
  -7.81723E+1  -8.79601E+2
   1.48775E+3  -7.35512E+2
   1.40202E+3  -2.20742E+3
   3.26280E+2   1.06228E+3
  -3.23789E+3   7.86290E+2
  -3.03821E+3  -8.75181E+2
  -2.04209E+3  -1.88524E+3
  -3.11398E+3  -3.56418E+3
   6.87325E+2  -3.94858E+3
   2.70511E+3  -6.45295E+2
   7.56729E+2  -1.29429E+2
  -2.96881E+2   9.55892E+2
  -2.39795E+2   7.11626E+1
  -2.32834E+3   3.12440E+2
  -3.19510E+3  -3.96349E+3
   1.19449E+3  -6.13402E+3
   3.71000E+3  -5.25019E+3
   4.96843E+3  -1.51915E+3
   4.46164E+3   5.93269E+2
  -6.30115E+2  -1.63230E+3
   1.10306E+3   1.08634E+2
   4.41552E+3  -1.86638E+2
   2.06177E+3   8.79814E+2
  -1.81473E+3   1.19044E+3
  -1.00190E+3  -1.62361E+3
   1.30817E+3   3.95507E+2
  -2.29510E+3   6.37353E+2
  -2.92340E+2   1.45909E+3
  -9.02592E+2  -5.60505E+2
  -1.19201E+3  -4.95681E+2
   1.44038E+3  -2.88099E+3
   3.53931E+3  -7.62001E+2
   1.01132E+3  -4.22213E+0
  -1.62406E+3  -6.29182E+2
   1.55115E+2   8.52924E+2
   1.82047E+3   3.30034E+3
  -7.79587E+2  -2.38246E+2
  -1.92948E+3   1.54265E+3
   7.62592E+2   8.77849E+1
   5.72673E+2   2.50352E+3
  -1.51824E+3   3.66925E+3
  -4.50356E+3   1.36992E+3
  -2.14695E+3  -2.40456E+3
   6.23913E+2  -3.21612E+3
   3.02732E+3  -7.82970E+2
   4.95365E+2   1.72656E+3
   1.63741E+3  -8.13845E+2
   1.86763E+3  -3.45418E+2
   7.20969E+2   1.27819E+3
  -1.70664E+3   1.60502E+3
  -4.13999E+3   2.58298E+2
  -3.16495E+3  -3.97065E+3
   9.43379E+2  -3.59903E+3
   2.98420E+3   6.43949E+2
  -2.20353E+2   8.20563E+2
  -2.92324E+3  -6.26004E+2
  -1.94050E+3  -2.28222E+3
   7.89114E+2  -1.54251E+3
   2.05779E+3   1.09595E+2
  -7.31719E+2   9.65914E+2
   9.88227E+2   2.14733E+2
   2.07300E+3   1.41986E+2
  -9.62692E+2   1.09158E+3
  -2.99333E+3   6.90396E+2
  -3.25289E+3  -1.02793E+3
  -4.61340E+2  -4.80986E+3
   2.01573E+2  -2.93120E+3
   2.28294E+3  -1.48777E+3
   9.09903E+2   2.11743E+2
  -2.01610E+2   1.72233E+3
  -2.28306E+3   2.79726E+3
  -8.31599E+2  -1.26855E+3
  -4.12208E+3   6.61019E+2
  -5.13859E+2  -1.80182E+3
  -2.21076E+1  -1.09292E+3
   9.89449E+2  -2.76708E+1
   1.47454E+3   2.53826E+3
  -1.31279E+3   2.20617E+3
  -5.03922E+2   4.88132E+1
   1.48523E+3  -3.02635E+2
   2.85408E+3  -2.53100E+2
  -1.36931E+2   5.75705E+2
  -1.56580E+3   1.08956E+2
  -2.17078E+2  -1.88898E+2
   1.01538E+3  -3.13562E+2
   9.10643E+2  -5.09325E+2
  -2.05441E+3  -8.14690E+1
   3.87003E+2  -4.85383E+2
   2.86177E+3   5.76590E+2
   1.13821E+3   3.35784E+3
  -3.05798E+2   2.07814E+3
  -1.59796E+3   8.51310E+2
  -1.78971E+2  -6.53073E+2
  -1.01654E+2  -7.87313E+2
   4.48903E+2  -8.16933E+2
  -1.74650E+2   2.16797E+3
  -3.59022E+2  -1.56076E+3
   1.00704E+3   5.65890E+2
   1.51568E+3   1.08080E+3
   7.28937E+2   3.45094E+3
  -4.67671E+2   3.46464E+2
  -1.12130E+2   1.16684E+3
   4.03872E+2   3.78062E+2
   1.69549E+3   6.82038E+2
   1.19427E+3   6.02016E+2
   5.21271E+2   2.07620E+3
  -2.92810E+3   2.58667E+3
  -1.23380E+3   1.72708E+2
  -2.03020E+3  -1.98609E+3
  -2.18084E+3  -1.34024E+3
   6.28847E+2  -1.53289E+2
  -1.44833E+2   1.07593E+3
  -1.18486E+2   1.43841E+3
  -1.58752E+3   5.89092E+2
   4.03016E+2   1.20884E+3
   2.05047E+2   2.08344E+3
  -1.80557E+2   1.93940E+3
  -1.05399E+3   9.71843E+2
   6.63825E+2   6.22971E+1
   1.31658E+3  -2.08665E+2
  -1.65155E+2  -7.14223E+0
  -5.54608E+2   1.41688E+3
  -3.30491E+2  -1.41642E+3
   1.44629E+3  -1.22811E+3
   1.90267E+3   1.66219E+3
  -1.64637E+1   3.38130E+3
  -3.40979E+2   2.62526E+3
  -2.13196E+3   8.21927E+2
  -3.20502E+2   1.25932E+3
   4.25796E+2  -7.24181E+2
  -2.49322E+3   9.89867E+2
  -1.25408E+2  -7.32806E+2
   1.20570E+3  -1.27986E+3
   2.40431E+3   1.33840E+3
   1.03633E+3   1.36805E+3
   1.07904E+3   1.74499E+3
  -7.31041E+2   1.02180E+3
  -8.57765E+2   2.43015E+2
   9.26513E+2   3.87492E+2
  -1.28956E+3  -1.92617E+2
  -2.14721E+3   4.51015E+2
   5.17994E+2  -2.19991E+3
   2.26332E+3   1.30028E+3
  -8.18434E+2   7.19010E+2
  -1.77200E+3   3.42956E+2
   4.17167E+2  -1.39099E+3
   1.28857E+3  -1.84043E+3
   9.38254E+2   1.89375E+3
   1.08790E+1   6.37686E+2
  -1.00824E+3  -2.04750E+2
  -4.23651E+2  -4.77936E+2
   7.78967E+2   2.66666E+2
   4.28475E+2   2.57675E+2
  -1.78027E+3  -5.98763E+2
  -9.28559E+2  -2.21872E+2
   1.66518E+3   1.46933E+3
   8.91050E+2   1.79195E+3
  -2.69312E+3   3.54205E+3
  -1.35363E+3   2.90263E+3
  -3.08235E+2  -7.48815E+2
  -1.74800E+2  -2.38254E+3
   3.36365E+2  -1.12120E+3
  -7.37992E+2   7.45310E+2
   1.85878E+3   2.34061E+2
   9.10604E+2   7.78317E+2
   9.34403E+2   8.87863E+2
  -9.22602E+2   6.39308E+2
  -1.83695E+3  -6.28208E+2
  -5.85459E+2  -9.29029E+2
   7.66384E+2  -1.45798E+3
   3.85801E+2   3.30445E+2
  -7.24951E+2   1.40847E+2
  -3.61194E+2   1.65693E+3
   1.49100E+3  -1.22684E+3
   9.89063E+1   3.40953E+2
   1.34165E+3   1.09610E+3
  -1.73795E+2  -8.80115E+2
   1.93166E+3  -5.24769E+1
   2.02610E+3   2.03906E+3
  -1.22919E+2   1.68264E+3
  -2.11573E+3  -5.89037E+2
  -6.27596E+2  -1.83341E+3
  -7.05581E+2   8.06592E+2
   4.14436E+2   2.76693E+3
   4.47914E+2  -3.80244E+2
  -9.37134E+2  -1.25437E+3
   1.96552E+3  -5.10255E+2
  -6.26101E+2  -1.26530E+3
  -1.16586E+3   7.77349E+2
  -1.49593E+3   5.51279E+2
   3.31419E+2  -7.48833E+2
   2.00191E+3  -1.41302E+3
  -1.22191E+2   2.88363E+3
  -1.19451E+3   7.21723E+2
  -1.29330E+3  -3.27095E+2
   2.20513E+2  -2.81976E+3
   6.54468E+2  -8.99187E+1
   2.53010E+2  -5.90807E+1
   1.83695E+3  -2.10909E+2
   2.83076E+2   4.76596E+1
  -2.83788E+2  -9.48220E+2
   8.97735E+2  -2.36188E+3
  -1.24262E+3  -7.20710E+2
  -1.38563E+3  -1.86679E+3
   3.45604E+2   6.38035E+0
   1.74544E+3  -5.12052E+2
   1.65634E+2   2.64297E+3
  -1.51069E+3   1.47799E+3
  -1.88455E+3  -9.30476E+1
  -1.49309E+3  -2.39498E+3
   1.83998E+3  -1.92191E+2
   3.27309E+2  -7.59415E+2
   1.35793E+3  -1.17110E+2
   3.91148E+2   8.81860E+1
   4.35675E+1  -2.16112E+1
  -6.99436E+2   3.38800E+2
   2.29096E+1   9.35539E+1
  -2.38531E+2  -1.03381E+3
   4.10893E+3   2.02064E+2
   4.25380E+2   8.85861E+2
  -1.40902E+3  -5.76184E+2
   8.09241E+2  -2.92183E+2
  -1.13751E+2   1.53015E+3
  -1.05720E+3   1.98861E+3
  -1.23071E+3   1.72139E+3
   9.17652E+2  -7.97342E+2
  -7.62708E+2  -2.21503E+3
   8.93715E+2  -1.02298E+3
   4.72210E+2  -1.25660E+3
   1.08893E+3   1.43485E+3
   3.01100E+2   1.03738E+3
  -3.93492E+2  -1.84789E+3
  -5.49857E+2  -2.20690E+3
   2.77942E+2  -1.09286E+3
  -2.38043E+2  -1.83661E+3
   2.58588E+3  -2.12853E+3
   9.77186E+2  -9.18548E+2
  -5.17118E+2  -1.64853E+2
  -1.53149E+3   1.34356E+3
   2.51825E+2  -5.16756E+2
  -9.66162E+2  -2.59061E+3
  -8.45544E+1   6.55269E+2
  -3.35290E+2   6.52836E+2
  -1.86977E+2   9.68840E+1
  -1.19259E+2  -1.06767E+3
   8.91352E+1   3.16044E+2
  -4.99730E+2  -3.17527E+2
   8.53612E+2  -5.18365E+2
  -1.04906E+3  -1.26864E+3
   1.78915E+3   1.46312E+3
  -1.80423E+3   1.00459E+3
  -1.38730E+3  -1.37250E+3
  -4.66333E+2  -3.39435E+2
  -6.22095E+2  -1.67824E+3
   7.72019E+2  -9.50950E+2
   1.49169E+3   2.85107E+2
   9.42852E+2   5.24150E+2
  -1.62705E+3  -1.59750E+3
   1.19036E+3  -1.83400E+3
  -3.11769E+2   1.14482E+3
  -2.19026E+2  -2.77492E+3
  -6.40752E+2  -5.07774E+2
   6.10574E+2  -3.86224E+2
   8.12758E+2   1.19896E+3
   3.63366E+3   2.19278E+2
   3.21994E+2  -8.90903E+2
  -1.22615E+3   1.57307E+2
  -1.91895E+3  -1.95393E+3
   3.02623E+2  -6.19471E+2
   9.06042E+2   7.19540E+1
   1.04886E+3   4.30936E+2
   1.20091E+3   2.80122E+2
   5.41167E+2   5.27581E+2
  -8.08862E+2  -3.21605E+1
   5.21897E+2  -9.90313E+2
  -9.77538E+2  -3.14338E+2
   3.38793E+2  -3.56158E+2
   1.14047E+3  -1.27763E+2
  -5.02064E+2  -4.07412E+2
   6.25856E+2  -1.32478E+2
   1.28354E+2  -2.94155E+2
   1.06542E+3   1.69444E+3
  -6.72762E+2   7.96526E+2
  -1.34151E+3  -5.50811E+2
  -2.62706E+2  -1.06855E+3
   3.10466E+2  -2.16935E+3
  -6.54062E+2   1.22194E+3
   3.33652E+2   4.64464E+2
  -1.21160E+3  -1.38653E+3
   1.00165E+3  -1.34802E+3
  -1.72471E+3  -1.58792E+3
   1.17904E+3  -8.71389E+2
  -1.55631E+3   9.11382E+2
  -7.73659E+2  -1.18557E+2
   4.71344E+2  -8.40357E+2
   1.83484E+2   7.96019E+2
  -8.65189E+2   3.87751E+2
  -1.35119E+3  -3.87246E+2
   4.80812E+2  -1.44368E+3
   5.13175E+2  -7.27388E+1
   6.25774E+2  -3.48284E+2
   1.12016E+3  -4.43977E+2
  -5.44473E+2   2.60062E+2
  -9.16549E+2  -1.07710E+3
  -8.26369E+2   8.33532E+2
  -3.63151E+2  -2.39326E+2
  -1.56650E+3   1.74336E+3
   2.00648E+2  -7.00803E+1
  -7.78528E+2  -1.90797E+3
   1.85259E+1  -3.54827E+2
   3.60476E+2   5.15505E+2
  -2.18354E+1   2.24558E+2
   7.43901E+2   8.90281E-1
   7.39679E+2   1.54722E+3
  -2.93539E+3   1.46383E+3
  -3.53257E+2   5.58869E+2
  -9.44807E+2   1.04622E+3
   7.21447E+2   1.49450E+3
   3.22945E+2   7.31388E+2
   3.56041E+2  -8.94659E+0
   1.98947E+3  -3.91812E+2
  -4.74505E+1   2.62693E+2
  -5.09059E+2   3.04315E+3
