 
 $NMID
 ID=''
 FMTDAT='(2E13.5)'
 TRAMP=   1.00000E+0
 VOLUME=   1.00000E+0
 $END
  -2.28022E+4  -1.45777E+3
  -5.52360E+4  -2.19235E+4
  -5.70049E+4  -1.40790E+4
  -5.18061E+4  -1.55713E+4
  -5.27205E+4  -1.97765E+4
  -5.22180E+4  -1.95357E+4
  -4.88590E+4  -2.19315E+4
  -4.82124E+4  -2.52915E+4
  -4.72232E+4  -2.59570E+4
  -4.44166E+4  -2.80932E+4
  -4.32102E+4  -3.07041E+4
  -4.18682E+4  -3.12898E+4
  -3.94553E+4  -3.30110E+4
  -3.79343E+4  -3.52469E+4
  -3.63470E+4  -3.60182E+4
  -3.37262E+4  -3.73713E+4
  -3.19787E+4  -3.90021E+4
  -3.01001E+4  -3.95486E+4
  -2.76143E+4  -4.04364E+4
  -2.56041E+4  -4.17191E+4
  -2.36095E+4  -4.18463E+4
  -2.13397E+4  -4.23964E+4
  -1.93024E+4  -4.33691E+4
  -1.71073E+4  -4.35027E+4
  -1.47073E+4  -4.35861E+4
  -1.27785E+4  -4.40414E+4
  -1.07225E+4  -4.40208E+4
  -8.26350E+3  -4.38095E+4
  -6.10947E+3  -4.39005E+4
  -4.11362E+3  -4.34084E+4
  -2.03587E+3  -4.30389E+4
  -9.27487E+1  -4.29236E+4
   1.97769E+3  -4.22530E+4
   3.96897E+3  -4.15419E+4
   5.71577E+3  -4.09930E+4
   7.41313E+3  -4.01970E+4
   9.23836E+3  -3.92759E+4
   1.08390E+4  -3.84365E+4
   1.24397E+4  -3.75100E+4
   1.40418E+4  -3.64520E+4
   1.55731E+4  -3.54542E+4
   1.70923E+4  -3.41839E+4
   1.87087E+4  -3.29093E+4
   1.99195E+4  -3.14833E+4
   2.11115E+4  -3.01610E+4
   2.23798E+4  -2.87182E+4
   2.35633E+4  -2.73116E+4
   2.45067E+4  -2.57972E+4
   2.54866E+4  -2.43413E+4
   2.63115E+4  -2.28203E+4
   2.71187E+4  -2.11030E+4
   2.77658E+4  -1.94758E+4
   2.83020E+4  -1.79918E+4
   2.89337E+4  -1.64111E+4
   2.93899E+4  -1.47793E+4
   2.98003E+4  -1.31662E+4
   3.00597E+4  -1.15735E+4
   3.04085E+4  -9.87452E+3
   3.04664E+4  -8.18646E+3
   3.04362E+4  -6.58185E+3
   3.04686E+4  -5.01814E+3
   3.03406E+4  -3.46491E+3
   3.02634E+4  -1.91441E+3
   3.00701E+4  -3.98693E+2
   2.96659E+4   1.14912E+3
   2.92513E+4   2.62287E+3
   2.89443E+4   4.03655E+3
   2.84646E+4   5.44741E+3
   2.78491E+4   6.86081E+3
   2.72549E+4   8.19312E+3
   2.66567E+4   9.46182E+3
   2.59512E+4   1.07408E+4
   2.52019E+4   1.19355E+4
   2.43462E+4   1.30756E+4
   2.35131E+4   1.42009E+4
   2.25943E+4   1.51468E+4
   2.16659E+4   1.61524E+4
   2.07035E+4   1.71073E+4
   1.97211E+4   1.78861E+4
   1.86947E+4   1.86910E+4
   1.76364E+4   1.94903E+4
   1.65522E+4   2.02369E+4
   1.53939E+4   2.08295E+4
   1.42392E+4   2.14292E+4
   1.30936E+4   2.19431E+4
   1.19224E+4   2.23641E+4
   1.07020E+4   2.26913E+4
   9.54650E+3   2.28761E+4
   8.43709E+3   2.31149E+4
   7.29828E+3   2.33449E+4
   6.08327E+3   2.34376E+4
   5.02456E+3   2.33694E+4
   3.88151E+3   2.34015E+4
   2.88536E+3   2.33506E+4
   1.83537E+3   2.31981E+4
   7.39286E+2   2.29749E+4
  -2.99746E+2   2.26528E+4
  -1.17856E+3   2.24691E+4
  -2.20728E+3   2.21147E+4
  -3.14448E+3   2.17425E+4
  -3.98368E+3   2.12820E+4
  -4.70436E+3   2.07916E+4
  -5.49762E+3   2.03211E+4
  -6.25998E+3   1.97969E+4
  -6.95934E+3   1.93141E+4
  -7.62897E+3   1.86808E+4
  -8.24092E+3   1.80953E+4
  -8.80536E+3   1.75048E+4
  -9.43898E+3   1.69238E+4
  -9.81988E+3   1.61868E+4
  -1.02172E+4   1.55502E+4
  -1.06238E+4   1.49577E+4
  -1.09806E+4   1.43933E+4
  -1.13619E+4   1.37512E+4
  -1.16577E+4   1.30518E+4
  -1.18208E+4   1.24009E+4
  -1.20830E+4   1.17117E+4
  -1.22571E+4   1.11236E+4
  -1.23474E+4   1.05030E+4
  -1.25387E+4   9.86141E+3
  -1.25479E+4   9.24826E+3
  -1.26724E+4   8.70799E+3
  -1.27142E+4   8.05810E+3
  -1.26505E+4   7.53791E+3
  -1.27222E+4   7.00529E+3
  -1.26211E+4   6.44684E+3
  -1.25430E+4   5.91868E+3
  -1.25149E+4   5.41914E+3
  -1.24186E+4   4.91132E+3
  -1.22763E+4   4.46822E+3
  -1.21865E+4   4.00803E+3
  -1.20234E+4   3.53185E+3
  -1.18423E+4   3.09377E+3
  -1.16892E+4   2.77728E+3
  -1.15221E+4   2.32235E+3
  -1.12802E+4   1.96133E+3
  -1.11178E+4   1.61144E+3
  -1.09234E+4   1.27884E+3
  -1.07404E+4   1.00079E+3
  -1.05316E+4   5.95093E+2
  -1.03409E+4   3.46892E+2
  -1.01867E+4  -7.30669E+0
  -9.90460E+3  -2.08448E+2
  -9.74510E+3  -4.86026E+2
  -9.54747E+3  -7.56683E+2
  -9.29650E+3  -1.02704E+3
  -9.08414E+3  -1.22869E+3
  -8.93627E+3  -1.48745E+3
  -8.59168E+3  -1.56956E+3
  -8.45641E+3  -1.79237E+3
  -8.19813E+3  -1.99302E+3
  -8.03221E+3  -2.17513E+3
  -7.75007E+3  -2.32589E+3
  -7.60642E+3  -2.40039E+3
  -7.36418E+3  -2.57863E+3
  -7.15922E+3  -2.71054E+3
  -6.96749E+3  -2.85605E+3
  -6.81333E+3  -2.94542E+3
  -6.61551E+3  -3.03248E+3
  -6.37678E+3  -3.09761E+3
  -6.21040E+3  -3.21797E+3
  -5.99725E+3  -3.30872E+3
  -5.80160E+3  -3.37265E+3
  -5.68267E+3  -3.46810E+3
  -5.42835E+3  -3.47710E+3
  -5.23603E+3  -3.54786E+3
  -5.18529E+3  -3.59511E+3
  -4.93746E+3  -3.55538E+3
  -4.69880E+3  -3.55336E+3
  -4.59155E+3  -3.64669E+3
  -4.46145E+3  -3.77001E+3
  -4.24797E+3  -3.77227E+3
  -4.17400E+3  -3.76974E+3
  -3.92845E+3  -3.75096E+3
  -3.84340E+3  -3.74950E+3
  -3.68708E+3  -3.74156E+3
  -3.53310E+3  -3.73077E+3
  -3.41336E+3  -3.73156E+3
  -3.31225E+3  -3.69108E+3
  -3.08084E+3  -3.70296E+3
  -3.05077E+3  -3.66567E+3
  -2.87131E+3  -3.58505E+3
  -2.77726E+3  -3.61165E+3
  -2.63182E+3  -3.52822E+3
  -2.61748E+3  -3.53737E+3
  -2.46631E+3  -3.49386E+3
  -2.38082E+3  -3.53274E+3
  -2.32390E+3  -3.42110E+3
  -2.20045E+3  -3.42657E+3
  -2.08573E+3  -3.35196E+3
  -2.06191E+3  -3.26539E+3
  -1.99969E+3  -3.22253E+3
  -1.94271E+3  -3.16466E+3
  -1.93572E+3  -3.18892E+3
  -1.90210E+3  -3.13066E+3
  -1.80900E+3  -3.11067E+3
  -1.72013E+3  -3.05511E+3
  -1.74946E+3  -3.08405E+3
  -1.64230E+3  -2.96263E+3
  -1.54818E+3  -2.90051E+3
  -1.57867E+3  -2.96365E+3
  -1.50198E+3  -2.92200E+3
  -1.45779E+3  -2.92991E+3
  -1.44153E+3  -2.82418E+3
  -1.40111E+3  -2.79635E+3
  -1.44182E+3  -2.78819E+3
  -1.36014E+3  -2.82691E+3
  -1.39835E+3  -2.81858E+3
  -1.37615E+3  -2.74914E+3
  -1.27194E+3  -2.69663E+3
  -1.21993E+3  -2.68952E+3
  -1.23486E+3  -2.63826E+3
  -1.21858E+3  -2.66889E+3
  -1.27653E+3  -2.63409E+3
  -1.18241E+3  -2.58353E+3
  -1.07013E+3  -2.56829E+3
  -1.04747E+3  -2.61056E+3
  -1.03790E+3  -2.57459E+3
  -1.11809E+3  -2.53867E+3
  -1.06627E+3  -2.52480E+3
  -9.42252E+2  -2.50244E+3
  -9.54624E+2  -2.54642E+3
  -9.20299E+2  -2.49043E+3
  -8.39114E+2  -2.45012E+3
  -8.52829E+2  -2.49967E+3
  -8.59173E+2  -2.47254E+3
  -8.29459E+2  -2.41573E+3
  -8.20755E+2  -2.42968E+3
  -7.46091E+2  -2.39031E+3
  -7.10814E+2  -2.40719E+3
  -6.35202E+2  -2.34335E+3
  -6.64029E+2  -2.36732E+3
  -6.34688E+2  -2.37211E+3
  -6.03220E+2  -2.31598E+3
  -5.89654E+2  -2.34977E+3
  -4.93115E+2  -2.39785E+3
  -5.08493E+2  -2.31070E+3
  -4.75448E+2  -2.29319E+3
  -4.44920E+2  -2.29715E+3
  -4.82232E+2  -2.34950E+3
  -3.79651E+2  -2.26992E+3
  -3.52873E+2  -2.20827E+3
  -3.58602E+2  -2.18639E+3
  -3.65869E+2  -2.17953E+3
  -3.33409E+2  -2.19024E+3
  -2.95900E+2  -2.14893E+3
  -2.32273E+2  -2.14098E+3
  -2.56718E+2  -2.12809E+3
  -2.18886E+2  -2.11499E+3
  -1.89586E+2  -2.00923E+3
  -2.07388E+2  -2.07120E+3
  -1.88193E+2  -2.04114E+3
  -1.74713E+2  -2.05792E+3
  -5.87267E+1  -2.03085E+3
  -5.36394E+1  -2.03917E+3
  -1.07753E+2  -2.00465E+3
  -5.26242E+1  -1.94851E+3
   7.10484E+1  -1.95510E+3
  -3.89234E+1  -1.96280E+3
   3.81785E+1  -1.94584E+3
   7.68102E+0  -1.91040E+3
   6.26175E+1  -1.92815E+3
   2.99232E+1  -1.89087E+3
   8.09863E+1  -1.85630E+3
   1.00529E+2  -1.90406E+3
   1.36242E+2  -1.87570E+3
   1.69973E+2  -1.88734E+3
   1.90255E+2  -1.77833E+3
   2.10821E+2  -1.83299E+3
   1.70092E+2  -1.78335E+3
   2.59742E+2  -1.79142E+3
   2.52838E+2  -1.69969E+3
   2.53490E+2  -1.75309E+3
   2.75123E+2  -1.76596E+3
   3.58148E+2  -1.67386E+3
   3.02160E+2  -1.71422E+3
   3.47315E+2  -1.74472E+3
   3.84498E+2  -1.56074E+3
   3.78276E+2  -1.60958E+3
   4.21407E+2  -1.59316E+3
   4.18365E+2  -1.61885E+3
   4.17443E+2  -1.60795E+3
   4.39750E+2  -1.51357E+3
   4.65660E+2  -1.50432E+3
   4.22050E+2  -1.51070E+3
   4.89344E+2  -1.46254E+3
   4.93604E+2  -1.46978E+3
   4.90934E+2  -1.38933E+3
   4.51455E+2  -1.46060E+3
   4.66213E+2  -1.39824E+3
   5.11867E+2  -1.36166E+3
   5.28998E+2  -1.35120E+3
   4.97952E+2  -1.33235E+3
   4.67318E+2  -1.24090E+3
   5.08585E+2  -1.33297E+3
   5.13292E+2  -1.27571E+3
   4.23194E+2  -1.24400E+3
   5.30089E+2  -1.31262E+3
   5.28960E+2  -1.17076E+3
   4.86676E+2  -1.23800E+3
   5.40255E+2  -1.15804E+3
   4.93887E+2  -1.20191E+3
   5.21132E+2  -1.12512E+3
   5.40017E+2  -1.06068E+3
   5.11300E+2  -1.09836E+3
   5.13667E+2  -1.08408E+3
   5.09512E+2  -1.06995E+3
   4.75895E+2  -1.00187E+3
   4.63068E+2  -1.05274E+3
   4.71140E+2  -1.05271E+3
   4.92134E+2  -9.45049E+2
   4.09350E+2  -9.86848E+2
   4.39208E+2  -9.68554E+2
   4.49612E+2  -9.58878E+2
   4.16103E+2  -8.91790E+2
   4.47273E+2  -9.40785E+2
   4.11951E+2  -8.96861E+2
   4.19955E+2  -9.24859E+2
   4.67475E+2  -8.71765E+2
   3.97220E+2  -8.55259E+2
   3.92604E+2  -8.65619E+2
   4.15624E+2  -8.50926E+2
   3.61767E+2  -8.90653E+2
   3.27269E+2  -7.81784E+2
   3.33504E+2  -8.25651E+2
   3.74536E+2  -8.26660E+2
   3.41949E+2  -7.95951E+2
   3.32583E+2  -7.92435E+2
   3.25595E+2  -6.92813E+2
   2.78379E+2  -7.40852E+2
   3.03022E+2  -7.05573E+2
   2.88315E+2  -7.18078E+2
   2.74810E+2  -7.48158E+2
   2.43975E+2  -7.38073E+2
   2.39375E+2  -6.75653E+2
   2.74991E+2  -6.92224E+2
   2.18507E+2  -6.99533E+2
   2.34484E+2  -6.90345E+2
   2.58550E+2  -6.91982E+2
   2.18503E+2  -6.52998E+2
   2.48617E+2  -5.64525E+2
   1.99996E+2  -5.86006E+2
   1.35942E+2  -6.04137E+2
   1.67499E+2  -4.87509E+2
   1.84780E+2  -5.75804E+2
   1.98253E+2  -5.84286E+2
   1.65649E+2  -5.06151E+2
   1.07280E+2  -5.14836E+2
   1.35851E+2  -5.25902E+2
   8.83326E+1  -4.71417E+2
   7.16236E+1  -5.29255E+2
   1.16118E+2  -4.73285E+2
   2.57545E+1  -4.78780E+2
   7.51587E+1  -4.53314E+2
   7.52640E+1  -4.70087E+2
   5.91223E+1  -4.40862E+2
   8.26415E+1  -4.02769E+2
   9.61078E+1  -4.32460E+2
   7.15907E+1  -4.62836E+2
   3.13831E-1  -4.11534E+2
   2.10696E+1  -4.18640E+2
  -5.34986E+0  -4.15175E+2
  -2.27625E+1  -3.88703E+2
  -3.64757E+1  -3.72896E+2
  -5.84149E+0  -4.58201E+2
   1.26924E+1  -3.50359E+2
  -7.40892E+1  -3.99463E+2
