 LCModel (Version 6.3-1N) Copyright: S.W. Provencher.          Ref.: Magn. Reson. Med. 30:672-679 (1993).                
 Slice_N1@18_22  02-Jun-2023 14:37:02
 27 lines in following concentration table = NCONC+1
    Conc.  %SD /Cr+PCr  Metabolite                                         
 1.81E-06  19% 2.7E-04 Mac                                                 
 3.78E-02  19%   5.694 Cr                                                  
 1.53E-02  46%   2.306 PCr                                                 
 6.46E-02  13%   9.731 Ins                                                 
 7.68E-02   9%  11.577 NAA                                                 
 5.56E-02  13%   8.375 Tau                                                 
 8.02E-03  25%   1.208 PCho                                                
    0.000 999%   0.000 GPC                                                 
 6.27E-02  15%   9.449 Glu                                                 
 1.67E-02  38%   2.513 Gln                                                 
 6.61E-03  94%   0.995 Ala                                                 
 3.48E-02  37%   5.247 Asc                                                 
 7.60E-03  80%   1.145 Asp                                                 
 7.26E-03  47%   1.094 GABA                                                
 4.96E-03  82%   0.747 Glc                                                 
 8.30E-03  41%   1.250 GSH                                                 
 3.70E-05 999% 5.6E-03 Lac                                                 
 6.81E-03  58%   1.026 NAAG                                                
 1.90E-02  47%   2.861 PE                                                  
 8.02E-03  25%   1.208 GPC+PCho                                            
 8.37E-02   9%  12.603 NAA+NAAG                                            
 7.94E-02  14%  11.963 Glu+Gln                                             
 5.31E-02  11%   8.000 Cr+PCr                                              
 8.37E-02   9%  12.603 NAA+NAAG                                            
 5.31E-02  11%   8.000 Cr+PCr                                              
 7.94E-02  14%  11.963 Glu+Gln                                             
   6 lines in following misc. output table
  FWHM = 0.017 ppm    S/N =   6                                            
  Data shift = 0.000 ppm                                                   
  Ph:  22 deg      -7.8 deg/ppm                                            
  alphaB,S = 1.2E+00,   3.3E-01                                            
   18 spline knots.   Ns = 5(1)                                            
   2 inflections.     1 extrema                                            
  654 points on ppm-axis = NY
      4.000000     3.994181     3.988363     3.982544     3.976726     3.970907     3.965088     3.959270     3.953451     3.947633
      3.941814     3.935995     3.930177     3.924358     3.918540     3.912721     3.906902     3.901084     3.895265     3.889446
      3.883628     3.877809     3.871991     3.866172     3.860353     3.854535     3.848716     3.842898     3.837079     3.831260
      3.825442     3.819623     3.813805     3.807986     3.802167     3.796349     3.790530     3.784712     3.778893     3.773074
      3.767256     3.761437     3.755619     3.749800     3.743981     3.738163     3.732344     3.726526     3.720707     3.714888
      3.709070     3.703251     3.697433     3.691614     3.685795     3.679977     3.674158     3.668339     3.662521     3.656702
      3.650884     3.645065     3.639246     3.633428     3.627609     3.621791     3.615972     3.610153     3.604335     3.598516
      3.592698     3.586879     3.581060     3.575242     3.569423     3.563605     3.557786     3.551967     3.546149     3.540330
      3.534512     3.528693     3.522874     3.517056     3.511237     3.505419     3.499600     3.493781     3.487963     3.482144
      3.476326     3.470507     3.464688     3.458870     3.453051     3.447232     3.441414     3.435595     3.429777     3.423958
      3.418139     3.412321     3.406502     3.400684     3.394865     3.389046     3.383228     3.377409     3.371591     3.365772
      3.359953     3.354135     3.348316     3.342498     3.336679     3.330860     3.325042     3.319223     3.313405     3.307586
      3.301767     3.295949     3.290130     3.284312     3.278493     3.272674     3.266856     3.261037     3.255219     3.249400
      3.243581     3.237763     3.231944     3.226125     3.220307     3.214488     3.208670     3.202851     3.197032     3.191214
      3.185395     3.179577     3.173758     3.167939     3.162121     3.156302     3.150484     3.144665     3.138846     3.133028
      3.127209     3.121391     3.115572     3.109753     3.103935     3.098116     3.092298     3.086479     3.080660     3.074842
      3.069023     3.063205     3.057386     3.051567     3.045749     3.039930     3.034111     3.028293     3.022474     3.016656
      3.010837     3.005018     2.999200     2.993381     2.987563     2.981744     2.975925     2.970107     2.964288     2.958470
      2.952651     2.946832     2.941014     2.935195     2.929377     2.923558     2.917739     2.911921     2.906102     2.900284
      2.894465     2.888646     2.882828     2.877009     2.871191     2.865372     2.859553     2.853735     2.847916     2.842098
      2.836279     2.830460     2.824642     2.818823     2.813004     2.807186     2.801367     2.795549     2.789730     2.783911
      2.778093     2.772274     2.766456     2.760637     2.754818     2.749000     2.743181     2.737363     2.731544     2.725725
      2.719907     2.714088     2.708270     2.702451     2.696632     2.690814     2.684995     2.679177     2.673358     2.667539
      2.661721     2.655902     2.650084     2.644265     2.638446     2.632628     2.626809     2.620991     2.615172     2.609353
      2.603535     2.597716     2.591897     2.586079     2.580260     2.574442     2.568623     2.562804     2.556986     2.551167
      2.545349     2.539530     2.533711     2.527893     2.522074     2.516256     2.510437     2.504618     2.498800     2.492981
      2.487163     2.481344     2.475525     2.469707     2.463888     2.458070     2.452251     2.446432     2.440614     2.434795
      2.428977     2.423158     2.417339     2.411521     2.405702     2.399884     2.394065     2.388246     2.382428     2.376609
      2.370790     2.364972     2.359153     2.353335     2.347516     2.341697     2.335879     2.330060     2.324242     2.318423
      2.312604     2.306786     2.300967     2.295149     2.289330     2.283511     2.277693     2.271874     2.266056     2.260237
      2.254418     2.248600     2.242781     2.236963     2.231144     2.225325     2.219507     2.213688     2.207870     2.202051
      2.196232     2.190414     2.184595     2.178777     2.172958     2.167139     2.161321     2.155502     2.149683     2.143865
      2.138046     2.132228     2.126409     2.120590     2.114772     2.108953     2.103135     2.097316     2.091497     2.085679
      2.079860     2.074042     2.068223     2.062404     2.056586     2.050767     2.044949     2.039130     2.033311     2.027493
      2.021674     2.015856     2.010037     2.004218     1.998400     1.992581     1.986763     1.980944     1.975126     1.969307
      1.963489     1.957670     1.951852     1.946033     1.940215     1.934397     1.928578     1.922760     1.916941     1.911123
      1.905304     1.899486     1.893667     1.887849     1.882030     1.876212     1.870393     1.864575     1.858756     1.852938
      1.847119     1.841301     1.835482     1.829664     1.823845     1.818027     1.812208     1.806390     1.800571     1.794753
      1.788934     1.783116     1.777297     1.771479     1.765660     1.759842     1.754023     1.748205     1.742386     1.736568
      1.730749     1.724931     1.719113     1.713294     1.707476     1.701657     1.695839     1.690020     1.684202     1.678383
      1.672565     1.666746     1.660928     1.655109     1.649291     1.643472     1.637654     1.631835     1.626017     1.620198
      1.614380     1.608561     1.602743     1.596924     1.591106     1.585287     1.579469     1.573650     1.567832     1.562013
      1.556195     1.550376     1.544558     1.538739     1.532921     1.527102     1.521284     1.515465     1.509647     1.503829
      1.498010     1.492192     1.486373     1.480555     1.474736     1.468918     1.463099     1.457281     1.451462     1.445644
      1.439825     1.434007     1.428188     1.422370     1.416551     1.410733     1.404914     1.399096     1.393277     1.387459
      1.381640     1.375822     1.370003     1.364185     1.358366     1.352548     1.346729     1.340911     1.335092     1.329274
      1.323455     1.317637     1.311818     1.306000     1.300182     1.294363     1.288545     1.282726     1.276908     1.271089
      1.265271     1.259452     1.253634     1.247815     1.241997     1.236178     1.230360     1.224541     1.218723     1.212904
      1.207086     1.201267     1.195449     1.189630     1.183812     1.177993     1.172175     1.166356     1.160538     1.154719
      1.148901     1.143082     1.137264     1.131445     1.125627     1.119808     1.113990     1.108171     1.102353     1.096534
      1.090716     1.084898     1.079079     1.073261     1.067442     1.061624     1.055805     1.049987     1.044168     1.038350
      1.032531     1.026713     1.020894     1.015076     1.009257     1.003439     0.997620     0.991802     0.985983     0.980165
      0.974346     0.968528     0.962709     0.956891     0.951072     0.945254     0.939435     0.933617     0.927798     0.921980
      0.916161     0.910343     0.904524     0.898706     0.892887     0.887069     0.881251     0.875432     0.869614     0.863795
      0.857977     0.852158     0.846340     0.840521     0.834703     0.828884     0.823066     0.817247     0.811429     0.805610
      0.799792     0.793973     0.788155     0.782336     0.776518     0.770699     0.764881     0.759062     0.753244     0.747425
      0.741607     0.735788     0.729970     0.724151     0.718333     0.712514     0.706696     0.700877     0.695059     0.689240
      0.683422     0.677603     0.671785     0.665967     0.660148     0.654330     0.648511     0.642693     0.636874     0.631056
      0.625237     0.619419     0.613600     0.607782     0.601963     0.596145     0.590326     0.584508     0.578689     0.572871
      0.567052     0.561234     0.555415     0.549597     0.543778     0.537960     0.532141     0.526323     0.520504     0.514686
      0.508867     0.503049     0.497230     0.491412     0.485593     0.479775     0.473956     0.468138     0.462319     0.456501
      0.450682     0.444864     0.439045     0.433227     0.427408     0.421590     0.415771     0.409953     0.404134     0.398316
      0.392497     0.386679     0.380860     0.375042     0.369223     0.363405     0.357586     0.351767     0.345949     0.340130
      0.334312     0.328493     0.322675     0.316856     0.311038     0.305219     0.299401     0.293582     0.287764     0.281945
      0.276127     0.270308     0.264490     0.258671     0.252853     0.247034     0.241216     0.235397     0.229579     0.223760
      0.217942     0.212123     0.206305     0.200486
 NY phased data points follow
  -2.76071E-02 -1.66803E-01  4.21475E-02 -1.46883E-01  1.22678E-01  1.91500E-01 -2.52778E-01 -1.20559E-01  1.00688E-01 -1.52949E-01
   1.72772E-02  5.44576E-01  2.75478E-02  1.50320E-01  4.62922E-01  5.56023E-01  3.18253E-01  3.67538E-01  1.54698E-01 -9.93245E-02
   1.50617E-02  3.18038E-02  8.87079E-02 -2.23326E-01 -5.93819E-02 -3.30309E-01 -1.42684E-01 -3.69279E-02 -4.37812E-01 -2.06127E-01
   1.07229E-01 -1.84391E-02 -1.18798E-01 -3.06267E-01 -2.31908E-01  1.39939E-01 -4.41874E-01 -5.79666E-01 -3.07093E-01 -1.01621E-01
  -9.20219E-02  2.18976E-01  4.56678E-01  1.16462E-01  2.74467E-01  3.96332E-01  3.76976E-01  3.42619E-01  1.90107E-01  1.63099E-01
   2.45041E-01  4.41558E-01  6.19507E-02  2.03510E-02  2.18144E-01 -3.69341E-01  7.88307E-04  2.97472E-02 -1.11072E-01 -3.07034E-01
  -5.52314E-01 -2.77512E-01 -2.69620E-01 -7.62435E-02 -1.13696E-01 -6.98090E-02 -5.88457E-02  1.61772E-01 -1.35333E-03  1.15985E-01
   1.53043E-01 -9.75199E-02 -1.75512E-01  4.60091E-02  1.18212E-01 -4.08466E-01  1.28947E-01 -4.09133E-02 -3.59974E-01 -6.34223E-01
  -4.94536E-01  8.77012E-02 -1.48308E-02  4.61074E-01  6.78942E-01  1.79829E-01  2.79830E-01  1.88164E-01 -5.69463E-02  3.46210E-01
   2.15129E-01  4.02556E-01  7.51763E-02  2.04694E-01  4.86092E-01  2.19807E-01  7.76433E-02 -3.27238E-01 -6.49500E-02 -4.72922E-01
  -4.82342E-01 -4.72987E-02 -1.98628E-02  4.82750E-01  6.51004E-01  2.72294E-01  2.75529E-01  1.01556E-01  3.52919E-01  3.37809E-01
   1.85417E-01  5.96687E-01  7.17639E-02  4.03771E-02  3.15752E-02  3.26691E-01  4.57776E-01  3.35471E-02  3.60879E-01  3.63575E-01
  -4.62567E-02  2.80198E-02  1.89361E-01  5.50697E-02 -1.46900E-01 -1.96586E-01  7.41630E-02 -3.80954E-01 -4.58252E-01 -2.82242E-01
  -4.80912E-01 -5.84541E-01 -6.09787E-01 -5.73041E-01 -7.92244E-01 -7.09945E-01 -9.29430E-01 -8.06226E-01 -2.61176E-01 -8.95797E-02
   2.09946E-01 -9.01610E-02 -3.42311E-01 -1.79830E-01 -2.38877E-01  2.23703E-01  1.46303E-01 -8.33605E-03  7.94339E-02 -1.79548E-01
   1.47438E-01  3.44811E-01  2.04966E-01  3.17165E-01  3.84974E-01  1.73030E-01  3.50827E-01  2.30241E-01  3.19422E-02  2.52189E-01
   4.33467E-01  1.93782E-01  1.57055E-01  6.70552E-01  5.07671E-01  8.83263E-01  9.89479E-01 -3.28691E-01 -1.16871E+00 -8.04851E-01
  -3.85431E-01 -3.03216E-01 -5.10851E-01 -6.11763E-01 -5.41581E-01 -5.66431E-01 -2.29511E-01 -3.35490E-01 -3.41822E-01 -2.11722E-01
  -3.54895E-01 -3.78328E-01 -3.47291E-01 -3.16070E-01 -2.56665E-01 -1.05368E-01 -1.42781E-01 -2.58027E-01 -3.11630E-01 -2.30688E-01
  -6.13469E-01 -4.72573E-01 -1.54271E-01 -4.35914E-01  7.49614E-02 -1.06317E-01 -3.00588E-01  2.55240E-02 -9.69245E-02 -1.60336E-01
  -1.87255E-01  1.53147E-01 -2.45142E-01 -2.07915E-01  2.08082E-02 -2.82281E-03  4.37349E-01 -1.00506E-01 -1.54818E-01  1.89855E-01
   1.21689E-01 -1.34354E-01 -1.90138E-01  1.75331E-01  8.59904E-02 -9.89120E-02 -2.88961E-02 -2.87781E-01 -2.18282E-01  2.98466E-02
  -1.24605E-01  1.41720E-01  1.52434E-01 -1.31810E-01  1.51644E-01  5.57601E-01  2.73986E-01  6.58820E-02 -1.25797E-01  1.25619E-01
   5.13505E-01  3.84460E-01  1.93353E-01 -5.46154E-02  1.13776E-01 -2.36303E-01 -1.51366E-01 -1.19116E-01 -6.88894E-03  2.34389E-01
   6.79105E-02  1.14386E-02  2.88382E-03  3.43323E-01  2.09078E-01  1.51408E-01 -2.37507E-01 -1.86380E-01  2.07926E-01  3.46435E-01
   1.28388E-01 -1.21591E-01 -6.71301E-02 -6.30778E-02  2.07579E-02 -1.06360E-01  4.49122E-01  2.11002E-01  3.42146E-02  2.04748E-01
   2.59323E-01  4.04267E-01  8.91559E-02 -2.58339E-02 -4.99305E-03  3.52943E-01 -1.72326E-01  8.67846E-02  6.37458E-01  3.14867E-02
   2.17470E-02 -5.74199E-02  3.38132E-01  2.42538E-01  4.62709E-02  2.39860E-01 -4.36641E-01 -1.75732E-01 -1.63595E-01 -1.75764E-01
  -2.27476E-01 -3.24788E-01 -1.23850E-02 -2.82784E-01  2.51587E-01  3.86151E-01  4.64599E-01  7.21229E-01  6.39453E-01  2.39545E-01
   3.67917E-01  1.96856E-01 -2.37103E-01  2.33100E-01 -1.55567E-01  3.26142E-01  2.13046E-01 -8.71967E-02  1.66836E-01 -4.23199E-02
   2.71434E-01  2.62180E-01  5.77754E-01  5.87213E-01  2.78682E-01  3.39808E-01  3.70826E-01  3.08281E-01  1.36831E-01  2.23588E-01
   3.87704E-01  1.08869E-01  1.00776E-01  1.00105E-01  9.14032E-02  4.65369E-03 -1.53137E-01  7.38744E-02 -1.01998E-02 -1.82424E-01
  -4.86489E-01 -2.79726E-01 -4.96340E-02 -1.18692E-01 -1.65769E-01  5.53129E-02  5.23718E-02 -9.53849E-02  4.32371E-01 -6.04098E-02
  -2.95063E-01  1.41558E-01  1.25761E-02  2.09814E-02 -2.23108E-01 -6.61319E-01 -1.90436E-01 -6.02869E-02 -2.49174E-01  1.36475E-01
  -1.45542E-01 -1.00906E+00 -2.38562E+00 -2.10824E+00 -3.36866E-01 -4.46914E-02 -3.12407E-01 -2.56475E-01  7.82648E-02  1.32250E-01
  -1.26300E-01 -1.70061E-01  3.67320E-02  1.25676E-01  2.45446E-03  2.06673E-01 -1.08155E-01  4.34362E-02  2.02367E-01 -2.65016E-01
   3.73464E-03 -3.52874E-02 -1.53827E-01 -2.41306E-02  3.25315E-02  8.91660E-02  3.90972E-01  1.94533E-01  6.50549E-02  4.12331E-01
   5.92870E-02 -1.58987E-01  3.74945E-02  8.37060E-03  3.17831E-02  2.74110E-01 -5.47005E-02  2.18498E-01  7.55219E-02  1.69013E-02
   2.78152E-01 -3.30758E-01  3.23122E-01  2.66456E-01  7.30041E-02  1.76664E-01  2.83201E-02  6.18041E-01  1.62717E-01 -9.38725E-02
   1.32389E-01  2.19086E-02  2.86280E-01  1.07856E-01  2.16944E-01  2.84031E-01  2.96651E-01  5.98619E-01 -3.59295E-02 -3.59639E-02
   2.36909E-01  2.18194E-02 -2.02648E-01 -3.98437E-02 -4.16211E-02 -4.65733E-01 -2.53754E-01 -1.30974E-01 -1.86314E-01 -2.23088E-02
   1.04672E-01 -2.60488E-01 -2.31498E-01 -1.01604E-01 -2.50417E-01 -2.06989E-01 -1.28889E-03  2.13590E-02 -2.03454E-01  3.76868E-02
  -1.33987E-01 -3.79324E-01 -1.61588E-01  3.46802E-02 -1.03528E-02 -3.40085E-01 -2.07070E-01  5.89874E-02 -2.81015E-01 -1.15340E-01
   2.46962E-01  1.85781E-01  1.37204E-01  3.59477E-01  2.54491E-01 -1.03112E-01  8.92739E-02 -2.13265E-01  1.62119E-01  2.24116E-01
  -8.25397E-02  3.25858E-01  1.03358E-01 -3.32064E-02  1.90089E-01  4.57051E-02  1.74381E-02  3.49001E-01 -1.87079E-01  7.76728E-02
   3.37211E-01 -2.51976E-02  1.09966E-01 -1.49802E-02 -8.62452E-02 -5.48841E-02  2.16503E-02 -5.49121E-02 -1.01318E-01 -1.71784E-01
   2.23621E-01  5.84842E-02  1.07624E-02  1.99958E-01 -2.75090E-01 -1.09211E-01  7.78674E-02  6.11207E-02 -1.51244E-01 -3.02417E-01
  -1.49149E-01  8.36995E-02 -9.34545E-02  1.04875E-01  9.91935E-02 -3.18294E-01  1.61383E-01  1.32033E-01 -2.34267E-01 -8.31496E-02
   1.66407E-01  1.59305E-01  8.87681E-02  8.63169E-02  2.01299E-01 -1.03226E-01 -2.54555E-02  2.69131E-01 -8.73336E-02  1.48379E-01
  -2.01510E-01 -1.44901E-01  1.07580E-01 -3.18369E-01  1.50444E-01  1.50667E-01  7.96788E-02 -1.19007E-01 -2.67516E-02  1.37443E-01
  -7.49228E-02  5.09906E-01  1.34303E-01  2.23072E-02  2.47411E-01  4.99508E-02  7.43177E-02 -4.05550E-02 -4.02697E-02  1.26399E-01
   5.77710E-02  1.16349E-02  5.64211E-01  6.65823E-02  9.49261E-02  1.75236E-01 -1.36785E-01  3.53790E-01  1.80670E-01  2.61953E-02
  -1.42652E-01 -1.83048E-01 -2.40098E-01 -3.00642E-01 -3.35118E-01 -2.33986E-01 -3.64319E-01 -5.69150E-01 -6.14557E-01 -5.96290E-01
  -1.58708E-01 -4.05560E-01 -2.15712E-01 -6.05842E-02 -1.34081E-01 -5.22350E-02  7.91940E-02  3.42460E-01 -5.66579E-02 -4.43771E-02
   1.00242E-01 -1.05522E-01 -1.55147E-02  1.99652E-01  2.69646E-01  1.25805E-01 -9.92258E-02  1.39246E-01  1.78752E-01 -4.72563E-02
   5.31124E-02  1.76412E-01  1.53729E-01  2.41158E-02 -1.04211E-02  1.70225E-01  1.98627E-01 -9.18316E-02  3.92870E-01  2.23443E-01
   4.31627E-02  2.10542E-01 -3.72295E-01  3.82460E-01  4.28756E-01  1.31469E-01  3.93032E-01  1.44806E-01  2.83395E-01  4.22291E-02
   3.91200E-02  1.84515E-01  3.98131E-01 -2.77556E-02 -7.36147E-02  5.85254E-01 -6.97540E-02  4.61282E-02  2.77515E-01  1.33074E-01
  -1.76824E-02 -8.99030E-02  6.73852E-02  8.56010E-03  3.35069E-01  9.72543E-02  1.31491E-02  6.05781E-02 -3.42865E-02 -8.16288E-02
  -3.88104E-01 -1.97462E-01  1.86686E-01 -1.14641E-01 -1.88039E-01  1.30672E-01  8.95417E-02  1.67574E-01  8.88528E-02  1.74297E-01
   1.21250E-01  5.78380E-02 -3.43648E-02 -1.31707E-01  7.64702E-02 -1.24023E-01 -6.40889E-02  1.62338E-01  1.11959E-01 -2.18166E-01
  -9.08026E-02  2.39158E-01  4.69917E-03 -2.61122E-02 -6.24592E-02 -8.64961E-02  4.69812E-02  4.79048E-02  3.16284E-01 -9.09070E-03
   9.29334E-02  1.30235E-01 -4.95227E-01 -2.64849E-02 -2.13069E-01 -2.48288E-01 -1.92635E-01 -2.78074E-02  9.44423E-02 -1.77628E-01
   2.21971E-01 -2.07561E-01 -1.35502E-01 -1.27358E-01 -1.46264E-01 -3.55540E-02 -4.95767E-02  3.34915E-01  2.53726E-02 -1.35836E-02
   1.35773E-01  1.07212E-01  2.11562E-02  1.29189E-01 -2.23613E-01 -1.39752E-01  2.53771E-01 -1.61602E-01  1.94779E-01  8.44842E-02
   2.14949E-02  1.01177E-01 -1.88823E-01  3.03593E-02
 NY points of the fit to the data follow
   1.83645E-01  1.78616E-01  1.74879E-01  1.68176E-01  1.40119E-01  8.95028E-02  3.15629E-02  1.22301E-02 -1.47756E-02 -6.07517E-03
   8.99596E-02  2.79394E-01  2.64063E-01  1.56749E-01  3.60968E-01  6.69851E-01  4.72061E-01  9.61635E-02  4.68002E-03  2.08586E-02
   1.42242E-03 -2.59537E-02 -5.29854E-02 -7.90660E-02 -9.88514E-02 -1.11304E-01 -1.23784E-01 -1.32874E-01 -1.42367E-01 -1.55116E-01
  -1.64981E-01 -1.74294E-01 -1.93550E-01 -2.20526E-01 -2.49284E-01 -2.65170E-01 -2.78758E-01 -3.04936E-01 -2.72200E-01 -1.65139E-01
   6.10693E-02  1.46353E-01  2.00882E-01  2.31492E-01  3.08226E-01  3.34623E-01  3.21907E-01  2.65743E-01  2.33893E-01  2.44957E-01
   1.76413E-01  1.11476E-01  9.16240E-02  4.86080E-02 -3.53808E-03 -4.77399E-02 -8.82324E-02 -1.41338E-01 -1.75898E-01 -2.55159E-01
  -3.35835E-01 -2.89972E-01 -2.10458E-01 -1.88591E-01 -2.85761E-01  3.48182E-03  3.08418E-01  1.24669E-01  2.30430E-01  4.46610E-01
   3.23346E-01  1.78902E-01  1.29954E-01  8.74385E-02  2.33015E-02 -4.60287E-02 -7.77037E-02 -2.09960E-01 -4.31994E-01 -5.38602E-01
  -2.64967E-01  3.58582E-02  2.75189E-02  1.73881E-01  4.11037E-01  3.99588E-01  3.00081E-01  2.52673E-01  2.33129E-01  2.13171E-01
   1.94236E-01  1.75565E-01  1.44231E-01  1.03495E-01  7.73524E-02  4.76151E-03 -4.45691E-02 -2.14591E-01 -3.30534E-01 -4.60908E-01
  -3.75009E-01 -1.53887E-01  5.50477E-02  2.46247E-01  2.85704E-01  2.42971E-01  2.29670E-01  2.32211E-01  2.34706E-01  2.34531E-01
   2.33699E-01  2.31061E-01  2.26812E-01  2.24397E-01  2.23925E-01  2.24462E-01  2.24354E-01  2.14543E-01  2.12523E-01  2.16685E-01
   1.62147E-01  9.98164E-02  3.60557E-02  1.40362E-02 -1.36862E-01 -1.42777E-01 -1.85303E-02 -7.60924E-02 -3.80070E-01 -4.46960E-01
  -5.74992E-01 -6.03216E-01 -4.61753E-01 -3.49045E-01 -3.71630E-01 -7.12240E-01 -9.88015E-01 -6.79530E-01 -2.47523E-01 -1.25824E-01
  -1.18356E-01 -8.23183E-02 -4.15832E-02 -1.00079E-02  1.59480E-02  3.91875E-02  5.78656E-02  7.43061E-02  8.90642E-02  1.01191E-01
   1.15326E-01  1.29035E-01  1.41686E-01  1.55587E-01  1.71306E-01  1.89653E-01  2.10415E-01  2.32742E-01  2.54897E-01  2.83407E-01
   3.28788E-01  3.97242E-01  4.67761E-01  4.02572E-01  6.07952E-01  8.84782E-01  8.39912E-01 -3.40235E-01 -1.25918E+00 -8.94833E-01
  -4.15520E-01 -3.56266E-01 -3.68056E-01 -3.57456E-01 -3.39400E-01 -2.95068E-01 -2.43325E-01 -2.27740E-01 -2.39294E-01 -2.33853E-01
  -2.12750E-01 -1.77104E-01 -1.73762E-01 -1.72982E-01 -1.73899E-01 -1.75155E-01 -1.64498E-01 -1.49749E-01 -1.45145E-01 -1.45665E-01
  -1.36889E-01 -1.24999E-01 -1.16115E-01 -1.07722E-01 -1.00216E-01 -9.40743E-02 -8.62463E-02 -7.65209E-02 -7.14766E-02 -6.65062E-02
  -5.44682E-02 -3.59437E-02 -2.99315E-02 -4.94433E-02 -6.18826E-02 -4.79032E-02 -2.01294E-02 -1.38145E-02 -4.44999E-02 -6.76309E-02
  -6.28376E-02 -5.17770E-02 -4.72719E-02 -4.50986E-02 -3.97141E-02 -2.83007E-02 -2.02558E-02 -2.36240E-02 -3.44154E-02 -3.37711E-02
   2.94232E-03  1.52003E-02  3.85847E-04  2.05728E-02  1.68938E-01  3.12958E-01  2.55091E-01  9.32407E-02  8.57731E-02  3.37116E-01
   5.12530E-01  2.99761E-01  3.98133E-02 -1.65183E-02 -1.04202E-02 -1.98328E-02 -3.33724E-02 -4.56593E-02 -5.49922E-02 -6.59282E-02
  -7.50725E-02 -8.16066E-02 -8.36250E-02 -8.53816E-02 -9.11095E-02 -9.43718E-02 -1.01767E-01 -1.02074E-01 -1.06110E-01 -9.91445E-02
  -8.85154E-02 -1.08771E-01 -1.08804E-01 -1.45919E-01 -1.69575E-01 -1.31138E-01  7.15766E-03  8.46527E-02 -4.68999E-02  5.40978E-02
   1.80107E-01  1.53615E-01  1.01565E-01  6.20494E-02  1.49179E-01  1.47827E-01  1.17261E-01  1.05405E-01  1.27114E-01  1.35584E-01
   1.02428E-01  6.99339E-02  3.10302E-02 -2.46270E-03 -3.13605E-02 -6.54369E-02 -1.07722E-01 -1.38303E-01 -1.94012E-01 -2.55820E-01
  -3.37175E-01 -3.53406E-01 -2.66625E-01 -1.43688E-01  8.82030E-02  2.48639E-01  3.29253E-01  3.90513E-01  3.35141E-01  2.51206E-01
   2.19992E-01  1.82549E-01  1.71986E-01  1.56113E-01  1.70089E-01  1.98516E-01  2.04009E-01  2.07456E-01  2.03748E-01  1.93527E-01
   1.88805E-01  1.83006E-01  1.76699E-01  1.72758E-01  1.65854E-01  1.59307E-01  1.46185E-01  1.31277E-01  1.05545E-01  8.96119E-02
   7.56084E-02  5.68858E-02  5.48418E-02  4.34447E-02  1.57964E-02 -6.51974E-03 -8.52817E-02 -1.34194E-01 -1.84520E-01 -2.06981E-01
  -2.39205E-01 -2.36311E-01 -2.23762E-01 -1.98045E-01 -1.36862E-01 -5.60067E-02  3.34835E-02  8.44898E-02  9.94476E-02  7.29897E-02
   2.55638E-02 -3.12293E-02 -8.40578E-02 -8.40980E-02 -1.56524E-01 -2.63157E-01 -2.60237E-01 -1.64369E-01 -1.80431E-01  3.20384E-02
  -1.20582E-01 -1.03633E+00 -2.46460E+00 -2.04965E+00 -5.13045E-01 -8.22885E-02 -2.14299E-01 -1.99208E-01 -1.29610E-01 -8.00904E-02
  -5.22301E-02 -3.10744E-02 -1.49263E-02 -4.52526E-03  6.40641E-03  1.50333E-02  2.33096E-02  2.27574E-02  1.82340E-02  9.95650E-03
  -4.80669E-03 -1.40075E-02 -3.33725E-02 -3.80930E-02 -3.57497E-02 -3.01587E-02 -1.89529E-02 -9.64424E-03  1.47582E-03  1.12659E-02
   1.89838E-02  2.73555E-02  3.58416E-02  4.02282E-02  4.17402E-02  4.61855E-02  5.09017E-02  5.64502E-02  6.04089E-02  6.22599E-02
   6.36314E-02  6.72413E-02  7.15194E-02  7.52837E-02  7.80910E-02  7.86977E-02  7.90379E-02  8.06090E-02  8.55321E-02  8.92113E-02
   9.28776E-02  9.59681E-02  9.63594E-02  9.45180E-02  9.24749E-02  9.07129E-02  8.96648E-02  8.83730E-02  8.58011E-02  8.09340E-02
   7.62832E-02  7.22181E-02  6.69058E-02  5.92725E-02  5.37384E-02  5.09098E-02  4.67312E-02  4.12479E-02  3.59405E-02  3.23923E-02
   2.83609E-02  2.59916E-02  2.41523E-02  2.07115E-02  1.78222E-02  1.56982E-02  1.23537E-02  1.01582E-02  9.28410E-03  8.44836E-03
   7.01055E-03  5.23104E-03  6.03699E-03  8.63681E-03  1.00095E-02  1.22613E-02  1.61578E-02  2.04113E-02  2.83608E-02  4.38173E-02
   4.06451E-02  5.38125E-02  7.67856E-02  1.44930E-01  1.61437E-01  1.48986E-01  1.26611E-01  7.50771E-02  5.68078E-02  7.01919E-02
   8.23399E-02  9.06020E-02  9.81030E-02  1.06867E-01  1.16225E-01  1.25719E-01  1.36426E-01  1.43764E-01  1.48543E-01  1.50892E-01
   1.52028E-01  1.52887E-01  1.53158E-01  1.52360E-01  1.51394E-01  1.47629E-01  1.41355E-01  1.31174E-01  1.21640E-01  1.14465E-01
   1.09024E-01  1.01864E-01  9.37200E-02  8.49229E-02  7.67784E-02  7.21920E-02  6.70583E-02  6.05386E-02  5.50991E-02  5.15973E-02
   4.84979E-02  4.48193E-02  4.09077E-02  3.86232E-02  4.00289E-02  4.32244E-02  4.42465E-02  4.53121E-02  4.92677E-02  5.25087E-02
   5.66394E-02  6.25061E-02  6.71504E-02  7.01992E-02  7.25617E-02  7.48293E-02  7.53503E-02  7.63954E-02  7.99032E-02  8.38840E-02
   8.53738E-02  8.35153E-02  8.26155E-02  8.14316E-02  8.06258E-02  7.77076E-02  7.34188E-02  7.16547E-02  7.03771E-02  6.82393E-02
   6.51847E-02  6.23410E-02  5.98627E-02  5.71975E-02  5.44169E-02  5.07027E-02  4.64990E-02  4.54075E-02  4.54015E-02  4.24998E-02
   3.88601E-02  3.66980E-02  3.40229E-02  2.84050E-02  2.08005E-02  1.46501E-02  9.51647E-03  3.51239E-03 -4.40342E-03 -1.75447E-02
  -3.25241E-02 -4.73398E-02 -5.96935E-02 -7.23423E-02 -8.69859E-02 -1.00659E-01 -1.10856E-01 -1.20087E-01 -1.31172E-01 -1.40750E-01
  -1.43777E-01 -1.42416E-01 -1.43473E-01 -1.45309E-01 -1.42162E-01 -1.35027E-01 -1.29777E-01 -1.24985E-01 -1.20708E-01 -1.17343E-01
  -1.13216E-01 -1.05957E-01 -9.83299E-02 -9.24024E-02 -8.43490E-02 -7.47472E-02 -6.65613E-02 -5.88949E-02 -5.05573E-02 -4.31596E-02
  -3.74171E-02 -2.89278E-02 -1.92224E-02 -1.47836E-02 -1.22055E-02 -6.26155E-03  2.20488E-03  8.21014E-03  8.82191E-03  1.00953E-02
   1.64324E-02  2.03055E-02  2.14898E-02  2.35559E-02  2.40082E-02  2.62375E-02  2.94545E-02  2.91527E-02  2.74960E-02  2.86132E-02
   3.24401E-02  3.38806E-02  3.52688E-02  3.85959E-02  3.98019E-02  3.88572E-02  3.87348E-02  3.96890E-02  3.92485E-02  3.85845E-02
   3.96361E-02  3.91144E-02  3.77476E-02  3.82777E-02  3.87380E-02  3.82859E-02  3.86615E-02  4.10090E-02  4.26808E-02  3.87054E-02
   3.21742E-02  3.28472E-02  3.76948E-02  3.68480E-02  3.40854E-02  3.38285E-02  3.60605E-02  3.43043E-02  3.01800E-02  3.00518E-02
   3.34495E-02  3.55191E-02  3.42429E-02  3.34380E-02  3.43048E-02  3.58443E-02  3.69399E-02  3.68695E-02  3.62570E-02  3.81934E-02
   3.88359E-02  3.64734E-02  3.32891E-02  3.32533E-02  3.47571E-02  3.47943E-02  3.59384E-02  3.72730E-02  3.72068E-02  3.58548E-02
   3.54110E-02  3.81846E-02  4.14436E-02  4.25436E-02  4.19527E-02  3.85057E-02  3.56704E-02  3.60676E-02  3.81272E-02  3.96652E-02
   3.86359E-02  3.55336E-02  3.42792E-02  3.46639E-02  3.53653E-02  3.58503E-02  3.31432E-02  3.09800E-02  3.33255E-02  3.58216E-02
   3.39142E-02  3.14904E-02  3.23555E-02  3.26235E-02  3.25219E-02  3.12454E-02  3.14788E-02  3.53694E-02  3.80598E-02  3.78927E-02
   3.74528E-02  3.71365E-02  3.70054E-02  3.62593E-02
 NY background values follow
     1.380E-02    1.387E-02    1.395E-02    1.402E-02    1.410E-02    1.417E-02    1.424E-02    1.432E-02    1.439E-02    1.447E-02
     1.454E-02    1.461E-02    1.469E-02    1.476E-02    1.483E-02    1.491E-02    1.498E-02    1.506E-02    1.513E-02    1.520E-02
     1.528E-02    1.535E-02    1.542E-02    1.550E-02    1.557E-02    1.564E-02    1.572E-02    1.579E-02    1.586E-02    1.594E-02
     1.601E-02    1.608E-02    1.616E-02    1.623E-02    1.630E-02    1.637E-02    1.645E-02    1.652E-02    1.659E-02    1.666E-02
     1.674E-02    1.681E-02    1.688E-02    1.695E-02    1.703E-02    1.710E-02    1.717E-02    1.724E-02    1.731E-02    1.739E-02
     1.746E-02    1.753E-02    1.760E-02    1.767E-02    1.774E-02    1.781E-02    1.789E-02    1.796E-02    1.803E-02    1.810E-02
     1.817E-02    1.824E-02    1.831E-02    1.838E-02    1.845E-02    1.852E-02    1.859E-02    1.866E-02    1.873E-02    1.880E-02
