 
 $NMID
 ID=''
 FMTDAT='(2E13.5)'
 TRAMP=   1.00000E+0
 VOLUME=   1.00000E+0
 $END
   8.69436E+2  -3.55582E+2
  -1.65081E+1   2.44692E+3
   2.51160E+3  -5.20410E+3
  -1.29690E+3   9.29068E+2
   1.55874E+3   4.43018E+2
   2.74146E+3  -3.60048E+3
  -1.38524E+3  -2.86447E+3
  -4.99854E+3  -2.58390E+3
  -4.58183E+3  -1.48130E+3
  -5.68259E+2   1.72376E+3
   3.37660E+3  -1.25931E+3
   2.93990E+3  -2.08033E+3
  -2.24099E+3   1.48164E+3
  -7.08535E+3   1.53442E+3
  -4.08902E+3  -4.74348E+2
  -8.94636E+2  -1.14669E+3
   1.65346E+3   9.09542E+2
   2.19670E+3   4.33751E+3
  -1.00861E+3   1.73035E+3
  -5.17710E+2   2.33889E+3
   4.64004E+3  -8.79910E+2
   4.24240E+3   3.31461E+3
  -1.80864E+3   2.43739E+3
  -1.87420E+3  -4.68694E+3
   5.07499E+3  -2.96864E+3
   2.87994E+2   1.77539E+3
  -1.46637E+3   3.03360E+3
  -3.16684E+3  -3.84825E+3
   4.91500E+2  -4.12634E+3
   5.27689E+3  -2.37067E+3
   4.61981E+3   6.58462E+3
  -2.24795E+3   7.09052E+3
  -2.78636E+3  -1.79396E+2
   1.20326E+3  -2.97568E+3
  -1.27114E+3  -1.01445E+3
  -2.77734E+3  -4.78847E+3
   1.48715E+3  -7.20655E+3
   4.64417E+3  -2.18961E+3
   1.42523E+3   3.00371E+3
  -6.72229E+2   2.77555E+3
  -3.19254E+3   3.44008E+3
  -4.15872E+3   2.07714E+3
  -1.63331E+3  -4.45169E+3
   3.38868E+3  -4.51124E+3
   5.19638E+3  -1.67043E+2
   2.56081E+3  -4.65263E+2
   1.00685E+3   6.63677E+2
   2.65093E+3   1.58788E+3
  -8.35373E+2   1.00099E+3
  -1.82084E+3  -1.21938E+2
  -2.36767E+3  -1.89514E+3
   1.11331E+3  -1.63346E+3
   2.95987E+3  -9.29671E+2
   4.05666E+3   1.27237E+3
  -1.63005E+3   3.05981E+3
  -1.44250E+3   1.02514E+3
  -1.47159E+3   3.58344E+3
  -3.22191E+3  -1.11263E+3
  -3.08414E+3  -3.50596E+3
   9.44740E+2  -3.94892E+3
   5.43720E+3   2.84253E+1
   4.28832E+3   1.32896E+3
   1.37195E+3   3.41216E+3
  -3.51379E+3  -2.77891E+2
  -3.56676E+2  -3.05637E+1
   1.36459E+3  -1.04374E+2
  -2.31458E+3   4.04124E+3
  -2.15458E+3   2.86711E+3
  -2.15636E+3  -9.71467E+2
  -8.52724E+2   1.06693E+3
  -1.16451E+3   8.70341E+2
  -1.61273E+3   7.29787E+2
  -1.59552E+3  -1.15048E+3
   2.55603E+2  -1.09279E+3
   2.52136E+3  -2.20279E+3
   1.90066E+3   2.41990E+3
   1.98299E+3   2.08845E+3
   1.99219E+3  -1.16546E+2
   3.49720E+3   1.42110E+3
   6.34989E+2   2.38093E+3
  -8.60264E+2   1.38535E+3
  -5.61377E+2  -3.01344E+2
  -1.43412E+2   1.93333E+3
  -5.49491E+2   3.71288E+3
  -3.14357E+3   3.21279E+3
  -4.52379E+3   8.95923E+2
   2.31539E+2  -2.24808E+3
   9.53767E+2  -2.24906E+3
   3.55560E+3  -5.91335E+2
   1.38658E+3   1.67951E+3
  -1.12313E+3   3.46132E+2
   1.73383E+3   6.75360E+2
   8.16380E+2   3.54380E+3
  -2.30960E+3   4.16412E+3
  -3.32708E+3   4.20142E+2
   6.97261E+2  -3.04731E+3
   1.96976E+3  -1.36544E+3
   5.57261E+2   3.85167E+2
  -2.72575E+3   8.80372E+2
  -3.08774E+3  -3.87839E+3
   7.56080E+1  -4.06632E+3
   1.52643E+3   4.43405E+2
   2.51303E+3   1.57400E+3
  -8.72663E+2   3.13650E+3
  -1.85723E+3   2.45606E+2
   1.17317E+3   1.49651E+3
  -7.89810E+2   1.45956E+3
  -1.92970E+3  -9.70900E+2
  -1.64366E+3  -4.41742E+3
  -1.38461E+2  -1.56632E+3
   2.52476E+3  -1.87476E+3
   3.19384E+3   1.49931E+3
   1.23237E+3   1.71060E+3
  -1.73039E+3   1.76675E+3
  -1.16213E+3   4.39103E+2
  -3.82832E+3   2.32628E+2
  -2.15477E+3   3.89618E+2
  -2.76723E+3  -9.23652E+2
   1.63627E+3  -2.33979E+2
   4.56431E+2  -1.22298E+3
  -5.02989E+2   1.80791E+3
  -1.60386E+3  -1.07524E+3
  -3.34139E+3  -2.20607E+3
   2.34656E+3  -2.40740E+3
   2.90684E+3   2.04745E+1
  -3.06251E+2  -4.18219E+2
  -1.21479E+3  -1.04531E+3
   1.84074E+3   2.72957E+1
   3.27602E+2   1.39368E+3
  -5.72718E+2   5.55352E+2
  -1.85897E+3  -1.70599E+2
  -3.57264E+2   6.98640E+2
   3.31865E+3   3.42518E+2
   3.29047E+3   6.86870E+2
  -4.19145E+2   2.24186E+3
  -4.01682E+3  -1.19148E+3
  -2.15295E+3  -1.50885E+3
   9.96728E+0  -2.75666E+3
  -4.46089E+2  -2.61753E+3
   7.27544E+2   2.20231E+2
   2.83623E+2  -7.62289E+2
   2.92362E+3  -1.94078E+3
   9.69976E+2  -6.47117E+2
   1.92814E+3   8.42418E+2
   8.35640E+2  -1.60830E+3
  -8.07042E+2  -7.68279E+2
   4.32300E+2   8.57042E+2
  -1.45481E+3  -4.07292E+2
  -4.09994E+1   5.73729E+1
   5.45609E+2  -3.96714E+2
  -1.45815E+3   2.31813E+3
   3.04244E+2  -1.46789E+3
   2.57386E+2  -2.21803E+3
  -1.33599E+3  -6.24866E+2
  -1.37959E+3   8.34543E+2
   4.06712E+2   1.95955E+3
   6.01887E+2   1.27706E+2
  -1.77743E+3   3.57253E+2
  -4.50577E+2  -1.47565E+3
  -4.06428E+2  -4.62556E+2
  -1.30961E+3   6.20877E+2
  -1.54922E+3   6.85190E+2
  -1.00064E+3  -3.07882E+3
   4.62293E+2   1.44993E+3
   1.26715E+3  -7.99771E+2
  -8.72834E+1  -4.12216E+2
  -1.12217E+3  -2.01244E+2
   2.85724E+3  -5.18617E+2
   2.18640E+3  -3.20956E+2
   1.24589E+3   1.90151E+3
  -1.32913E+3   1.46786E+3
  -9.90512E+1   3.53707E+2
  -1.45541E+2   3.08782E+2
  -1.28805E+3  -1.33474E+3
  -2.26541E+3  -1.76841E+3
   1.76048E+3  -6.17916E+2
   1.90790E+3  -1.18690E+3
   5.52869E+2   2.87186E+3
   6.61497E+2   2.39052E+3
  -7.83392E+2   9.59564E+2
  -7.56454E+2  -3.93783E+3
   4.01991E+2  -1.02118E+3
   6.82155E+2   5.17641E+2
   6.37766E+2  -1.70375E+3
   8.20262E+2   1.68120E+3
   8.64218E+2   1.27891E+3
  -5.47369E+2   1.07926E+3
  -2.18967E+3   1.65380E+3
  -2.11742E+2  -1.29986E+3
   1.76669E+2  -3.28486E+3
   2.03594E+3  -1.33662E+3
   2.08666E+3  -1.06433E+3
  -3.69055E+2   1.26265E+2
   7.66104E+1  -1.32968E+3
  -7.98661E+2  -1.16728E+3
   5.83182E+2   1.44328E+2
  -2.33215E+3   2.82809E+2
  -1.34204E+3   3.57484E+2
   5.47824E+2  -7.82278E+2
  -4.42482E+2   1.64649E+3
  -2.62339E+3   2.24057E+3
  -1.91342E+3   1.74106E+3
  -1.09486E+3  -5.91806E+2
   2.15973E+3  -2.70459E+3
  -1.02382E+3  -2.45478E+2
   2.35724E+3   1.96076E+2
  -1.31189E+3   1.37754E+3
  -1.05529E+3   5.01301E+2
   2.16184E+2  -4.51049E+2
  -8.95457E+2   2.24367E+3
  -2.46406E+3   7.13376E+2
  -2.02705E+2  -3.27660E+2
   1.30625E+3  -6.83001E+2
   2.54774E+3  -2.91055E+2
  -8.60956E+2   1.12397E+3
  -3.01831E+3  -2.67080E+3
  -2.50120E+1  -1.09301E+3
  -2.09915E+2  -8.50503E+2
  -3.63792E+2   1.84898E+2
   1.67355E+3  -1.97299E+3
  -8.46950E+2  -7.03108E+2
   7.88028E+2   1.94386E+3
  -3.57786E+2   1.58796E+3
   8.27686E+2  -6.21654E+2
   9.23494E+2  -1.19568E+3
   1.09938E+3  -9.32947E+2
   2.48766E+3   1.72930E+3
   1.51062E+3   1.13775E+3
  -1.51586E+3  -5.69965E+2
  -4.61341E+2  -8.30551E+2
  -9.67644E+2  -2.66251E+2
  -3.31737E+2  -1.70483E+2
  -1.54156E+3  -2.03151E+3
   2.53596E+2  -1.61826E+2
   1.26469E+3  -3.35821E+2
   1.41799E+3   1.22349E+3
  -1.09605E+3   1.86809E+3
  -1.89277E+3  -1.79993E+2
  -1.99372E+3  -4.61625E+2
   1.30689E+3  -3.26048E+3
   7.39577E+2   2.00186E+3
  -3.66502E+2   5.53343E+2
  -1.18773E+2  -4.25851E+2
   9.45222E+2   1.83411E+3
  -3.92949E+2  -7.55422E+2
  -1.34505E+3  -6.08599E+2
   1.01793E+2  -3.78083E+2
  -4.82439E+2  -1.74078E+3
  -1.66236E+2  -1.61520E+3
  -3.99994E+2  -7.68443E+2
  -8.93111E+2   2.21830E+3
  -2.01127E+3   1.09512E+3
  -2.37195E+3   5.09072E+2
  -5.64989E+2   9.44966E+2
  -2.32227E+3  -2.70968E+3
   2.03800E+2   1.74199E+2
   4.09000E+2  -1.04748E+3
   2.64157E+3   1.51674E+3
   2.18715E+2   8.44006E+2
  -3.19693E+2   6.95118E+2
  -1.50663E+3   1.26274E+2
  -7.63474E+2  -2.40717E+2
   7.50467E+2  -4.90024E+2
  -2.07628E+3   1.08272E+3
  -1.91420E+3   1.41532E+3
  -2.34406E+3   1.11681E+3
   1.36814E+3  -3.64233E+2
   7.80504E+2   1.83840E+3
  -1.59143E+3  -2.99209E+2
   5.14980E+2  -2.01324E+3
   3.69100E+3   1.79350E+2
   8.26738E+2  -1.35896E+2
   1.53959E+3  -2.23796E+2
   7.04662E+2   6.42273E+2
  -1.85046E+3   2.77792E+2
  -4.17277E+2  -1.41564E+3
   2.39902E+2   2.38658E+2
   1.15999E+2  -7.38360E+2
   1.50682E+3  -1.76055E+2
   2.03777E+3  -1.44182E+3
   1.95446E+3  -1.13137E+3
   1.41291E+3   1.84793E+1
  -1.41013E+3  -1.11158E+3
   7.80400E+2   4.51709E+2
   1.82501E+3  -5.11474E+2
   7.32747E+2   1.22211E+3
   3.98687E+2   2.15816E+2
   1.45064E+3  -2.30841E+3
   2.41451E+2  -1.54016E+3
  -2.77537E+1   8.51165E+2
  -3.07338E+2   1.15426E+3
   1.17508E+3   1.60820E+2
   1.12454E+3  -1.42827E+3
   2.09367E+3   1.68499E+3
  -1.85709E+3   1.46713E+3
   1.17241E+2  -2.54477E+3
  -1.62069E+3  -6.86180E+2
   2.51331E+3  -1.38946E+3
   5.64547E+2  -2.69880E+2
   2.98169E+2  -1.60397E+2
   1.50697E+2   7.03697E+2
  -3.75829E+2  -1.19215E+3
  -1.18916E+3   1.75229E+3
  -7.88981E+1  -8.22627E+1
  -7.13117E+2   1.49570E+3
  -3.03499E+2  -8.03636E+2
   2.18620E+3  -6.73122E+2
   1.19397E+3   1.26823E+3
  -8.73043E+2   2.75378E+3
  -1.97113E+2  -9.50861E+1
   6.76744E+1  -3.55907E+2
   2.07174E+2  -1.42634E+2
   6.34072E+2  -7.50662E+1
   1.20175E+3   3.46697E+2
  -9.07832E+2   3.57053E+2
  -2.25770E+2   2.03682E+2
   7.03887E+2  -5.70084E+2
   1.56431E+2  -2.55872E+2
  -5.65526E+2   7.29076E+2
   7.88056E+2  -1.79027E+3
  -3.83578E+2  -1.54597E+2
   7.07155E+2  -6.10461E+2
  -3.78917E+1   2.51630E+2
  -7.69678E+2   1.12249E+2
  -7.25884E+2  -4.45258E+2
   6.40508E+2  -9.39659E+2
  -1.30133E+2  -7.56912E+2
  -6.82785E+2  -3.36069E+2
  -9.47497E+2  -1.28089E+3
   4.76929E+2   1.13385E+3
   1.32203E+3  -1.10401E+2
  -1.03671E+3   1.11247E+3
  -9.56693E+2  -8.50090E+2
  -7.02491E+1  -1.96229E+2
   1.34316E+3   1.43894E+3
  -1.15236E+3   4.48850E+2
   4.86831E+2  -5.50609E+1
   1.63232E+3  -1.26619E+2
   1.23156E+3   9.16175E+2
  -6.17995E+2   2.26393E+3
  -8.35846E+2  -1.39329E+2
   6.75547E+1  -3.38873E+2
  -1.13815E+3   1.07907E+3
  -1.11755E+3   1.90496E+3
  -5.31599E+2   1.38945E+3
  -1.10924E+2  -1.28557E+2
   2.29703E+3  -1.21014E+3
  -1.12616E+3   6.06374E+2
  -1.03534E+3  -7.67639E+2
  -1.22379E+1   3.32692E+2
  -1.25650E+3  -1.50912E+3
   1.67389E+3  -1.93742E+2
  -1.21154E+2   1.23416E+3
   1.28444E+2   2.61166E+2
   6.50926E+2  -1.53498E+3
   2.50785E+2   6.51768E+1
  -5.38850E+1  -8.95903E+2
   3.67485E+2   2.08905E+3
   6.97212E+2   1.49184E+3
  -6.32553E+2  -3.68276E+2
  -2.35215E+2   8.34308E+2
  -7.00252E+2   3.00002E+2
  -1.72862E+3  -2.08961E+2
  -2.78022E+2  -2.47555E+1
  -4.17317E+2  -2.04699E+3
   3.90418E+1   6.83173E+2
  -4.25876E+2   2.18249E+1
