 
 $NMID
 ID=''
 FMTDAT='(2E13.5)'
 TRAMP=   1.00000E+0
 VOLUME=   1.00000E+0
 $END
   6.86925E+2  -3.00984E+2
  -3.00842E+2   7.65107E+2
   1.86279E+3  -3.25409E+3
  -2.20233E+3  -5.75761E+1
  -7.45802E-1   1.05118E+3
   9.17795E+2  -2.62074E+3
  -4.15849E+3  -4.91214E+2
  -3.78309E+3  -7.57794E+2
  -1.20257E+3  -3.70753E+2
  -1.40835E+3  -1.41954E+3
   4.33429E+2   2.36886E+3
   1.89292E+2   2.20306E+3
  -2.63461E+3   4.26004E+3
  -5.74403E+3   1.29188E+3
  -3.46572E+3   5.00340E+2
   4.34896E+3  -5.09280E+2
   4.74459E+3   5.72652E+2
   2.70889E+3   8.92917E+2
  -5.32494E+2  -1.21754E+3
  -5.72881E+2  -1.04427E+3
   9.99017E+2  -1.12743E+3
   3.53037E+2   1.52605E+3
  -2.91582E+3  -1.36586E+3
  -1.26282E+2  -7.77963E+3
   5.30213E+3  -2.08440E+3
  -1.34815E+2   1.75659E+3
  -3.90828E+3   5.08471E+1
  -8.93064E+2  -3.63478E+3
   4.59016E+2  -2.96481E+3
   5.68860E+3  -6.06879E+2
   3.37291E+3   4.51898E+3
  -2.44605E+3   4.50917E+3
  -5.49448E+3  -1.46659E+3
   8.02417E+2  -7.81955E+2
   1.75247E+3  -1.52779E+3
   9.29311E+2  -3.38130E+3
   6.79226E+3  -1.99937E+3
   3.93153E+3   4.19750E+3
   2.00242E+1   3.63424E+3
  -1.95854E+3   2.69578E+3
  -1.38870E+3   3.43703E+3
  -6.17633E+3  -1.51008E+3
  -9.03933E+2  -3.60137E+3
   4.48150E+3   6.49642E+2
   3.66571E+3   2.52001E+3
  -5.39608E+2   2.83861E+3
  -2.37865E+3   1.02358E+3
  -2.56684E+3  -3.78187E+2
  -3.54560E+3   1.21345E+3
  -5.66370E+3  -9.41851E+2
  -1.17941E+3  -2.63008E+2
  -7.08561E+2  -3.42840E+3
  -4.61548E+2   1.84054E+1
  -1.08283E+2   3.97689E+3
  -2.31876E+3   5.02968E+2
  -9.17143E+2   1.25943E+2
  -3.95520E+3   1.09405E+3
  -3.28480E+3  -1.90874E+3
   6.07112E+2  -6.10433E+3
   3.12913E+3  -3.74058E+3
   6.66485E+3  -7.69981E+2
   4.34824E+3   3.03297E+3
   1.00097E+3   4.46221E+3
  -2.98136E+3  -1.07636E+3
   2.13075E+3  -9.84395E+2
   1.89069E+3   3.04891E+3
  -3.31518E+3   2.10046E+3
  -3.08660E+3  -2.42730E+3
   2.69432E+3  -2.16591E+3
   2.53497E+3   3.76433E+2
  -1.78140E+2  -1.55584E+2
  -1.98624E+1  -1.00372E+3
  -2.98837E+1  -3.96320E+2
  -9.12171E+2  -1.58620E+3
   9.41822E+2  -5.84440E+2
  -2.29842E+0   1.22656E+3
  -1.09276E+3  -1.44906E+3
   2.04740E+3  -2.66061E+3
   3.36894E+3  -3.53519E+2
   7.21216E+2   3.35848E+3
  -1.83276E+3   1.86040E+3
  -2.45127E+3   2.80856E+2
  -4.11234E+2   2.03593E+3
  -2.81714E+3   2.02874E+3
  -4.17132E+3   3.02839E+2
  -7.21273E+2  -2.89430E+3
  -8.38466E+1  -3.79383E+3
   3.98699E+3  -1.10559E+3
   2.06340E+3  -3.01608E+2
   4.83434E+2   1.81097E+3
   1.63054E+3  -5.56460E+2
   1.25408E+3   1.30163E+3
   5.73981E+2   3.93103E+3
  -3.19034E+3   9.47186E+2
  -1.60845E+3  -1.65489E+3
   8.65892E+2  -3.06894E+3
   2.84941E+3   1.22492E+3
   1.14290E+3   5.12522E+3
  -3.39661E+3   3.26170E+3
  -1.53702E+3  -1.64468E+3
   2.68321E+3  -2.18275E+3
   3.13045E+3   3.43258E+2
   6.69326E+2   3.28024E+3
  -3.25066E+3   7.17680E+2
  -2.14225E+3   9.35190E+2
  -1.39275E+3   7.62798E+2
  -1.64645E+3  -3.85066E+2
  -2.16520E+3  -1.97168E+3
  -1.20702E+2  -2.43679E+3
   1.70442E+3  -2.32211E+3
   2.93084E+3  -2.00875E+3
   1.88097E+3   1.41716E+2
  -6.75938E+2   2.53372E+3
   3.51824E+2  -4.38782E+1
  -2.09999E+3   2.23201E+3
  -5.36349E+2  -4.02243E+2
  -1.69169E+3   4.09770E+2
  -7.79400E+2  -1.41441E+2
  -9.42966E+2  -1.00803E+3
   9.88560E+2   3.26256E+3
  -1.39311E+3   2.41906E+3
  -2.24457E+2  -2.19046E+3
  -2.77810E+3  -1.92268E+3
   8.19252E+2  -4.64728E+2
   9.12206E+2  -9.74710E+2
   5.36410E+2   1.34845E+3
   4.53602E+2   6.67560E+2
  -9.31271E+2   7.38229E+2
   2.07294E+3   2.52042E+3
   1.37831E+3  -8.10952E+1
  -1.58630E+3  -1.97685E+3
   1.47035E+3  -3.13376E+3
   1.33698E+3  -1.28879E+3
   2.75799E+3   1.53457E+3
  -4.10140E+2   1.33376E+3
  -3.17175E+3   1.31985E+2
  -1.93322E+3  -1.11090E+3
   1.03462E+3  -2.40574E+3
   1.11824E+3  -2.17346E+3
   1.47509E+3  -2.24046E+3
   2.57748E+3  -1.87836E+3
   2.26126E+3  -2.43033E+3
   3.79248E+3  -5.56974E+1
  -1.14457E+3   2.55392E+2
  -8.17219E+2   9.34347E+2
   1.33090E+3  -4.19566E+2
   8.37547E+2   1.20203E+3
  -8.67617E+2   7.43595E+2
  -1.91977E+3  -6.72983E+2
   6.70825E+1  -3.94283E+2
  -7.83912E+2   4.57852E+2
  -4.09080E+2  -1.90629E+3
   1.19447E+3  -1.54035E+3
   8.71651E+2  -4.92529E+1
   2.23166E+3   9.15922E+2
   1.21247E+3   9.29008E+2
   1.10802E+3  -1.95476E+3
   1.04621E+3  -2.50640E+3
  -2.00620E+2  -4.86713E+2
   5.52478E+2   1.69649E+2
   2.24610E+2  -6.42781E+2
  -1.06164E+3  -1.33904E+3
   9.85542E+0  -1.25435E+3
   5.09367E+2  -1.78235E+3
  -2.82979E+2   9.17860E+2
  -2.03630E+3   1.12161E+3
  -5.69975E+2  -2.67916E+3
   8.60204E+2  -1.63190E+3
   1.69671E+3   1.79668E+3
  -1.31943E+3  -1.65879E+2
  -1.85199E+2  -1.25454E+3
  -1.41565E+3  -1.71591E+3
  -2.01664E+2  -6.20326E+2
  -4.04128E+2  -1.01055E+3
   7.10907E+2  -1.45460E+2
  -1.30439E+3  -8.98132E+2
   1.27975E+2  -1.18676E+2
   2.88745E+3   1.71617E+3
  -1.53481E+3   1.67499E+3
  -1.92761E+3   4.91183E+2
  -6.62621E+2   1.61248E+2
  -5.47363E+2  -5.97238E+2
   2.49841E+2  -2.10721E+3
  -1.85116E+2  -1.49935E+1
  -1.58833E+2  -9.35850E+1
   7.35856E+2   1.09310E+3
   7.43213E+2  -7.21881E+2
  -2.17568E+3  -4.03135E+2
  -3.84990E+2   6.62501E+1
   2.66705E+2  -6.19451E+2
   1.63198E+3   7.69123E+2
  -1.09884E+3   2.48678E+3
  -2.63350E+2  -7.17525E+2
  -1.19357E+3  -5.54056E+2
  -8.22092E+2   8.94177E+2
  -6.29903E+2   4.28067E+2
  -1.30039E+3  -3.40323E+1
  -4.51765E+1   1.05486E+3
   9.38872E+2  -8.08735E+2
  -1.76970E+3   1.70205E+3
   5.61033E+1   2.06893E+3
  -2.98227E+3  -1.12218E+3
   5.40347E+2   4.62491E+2
  -1.36798E+3  -7.03230E+2
  -1.04461E+2  -6.74114E+2
   4.64652E+2   2.19826E+3
  -8.76097E+2  -3.15318E+2
   9.85801E+2   2.58266E+2
   9.78714E+2   1.86741E+3
  -2.33228E+3  -5.66138E+2
  -3.25418E+2   1.11712E+3
   4.02572E+2   1.21577E+3
   2.50774E+3  -1.44982E+3
   2.20865E+3   2.24838E+3
   2.95555E+2  -1.10644E+2
   9.76374E+2   7.75425E+2
   6.57050E+2   1.82508E+3
  -1.74869E+3  -3.24903E+2
  -6.46160E+2   2.42610E+2
  -3.46137E+2  -6.55295E+2
  -2.24080E+3  -7.89311E+2
  -1.30246E+3   2.89929E+2
  -3.43686E+2  -2.75313E+2
   2.71711E+2  -3.49928E+1
  -1.00555E+3   1.14905E+3
   2.68463E+3   4.25478E+2
   2.40106E+3  -5.05079E+2
   2.04866E+3   5.55139E+2
  -1.24531E+3   1.55871E+3
  -2.43424E+1  -7.45464E+1
   2.99193E+3   3.66166E+2
   1.41365E+2   1.08352E+3
   8.58228E+2   1.82372E+3
  -1.09654E+3  -1.17336E+3
   7.51234E+2   6.93724E+2
  -1.07915E+3   5.10380E+2
   2.14587E+3   2.57893E+3
  -1.43534E+3   9.25438E+2
   2.43149E+3  -1.26169E+2
   1.24769E+3  -4.14460E+2
   9.19240E+2  -7.35637E+2
   2.82739E+2   2.46661E+2
  -2.43108E+2  -7.47039E+2
  -1.61319E+2   9.40777E+2
  -4.02796E+2   1.47667E+3
   6.55858E+2   2.05920E+2
   8.90841E+2  -1.19093E+2
   3.94433E+2  -1.38764E+3
   1.22843E+3  -7.98214E+2
   1.10288E+2   8.55422E+2
  -7.11549E+2   1.11229E+3
  -5.81201E+2   1.08863E+3
  -7.25653E+2  -1.53211E+1
  -4.83264E+2  -8.65563E+2
  -1.24008E+3  -4.90855E+2
   3.75427E+2   2.29756E+3
  -1.29568E+3   9.43244E+2
   4.26280E+2   5.39379E+2
   7.82847E+2   3.55695E+2
  -1.05759E+3   9.44125E+2
  -1.80461E+3  -8.58983E+2
  -2.74294E+1  -1.56440E+3
   1.37934E+3   3.87290E+2
   1.19462E+3   8.40306E+2
  -1.41774E+2  -2.04722E+2
   1.42972E+3   1.03267E+3
   1.95720E+3  -5.51958E+2
   1.74886E+2  -3.36531E+2
   1.84684E+3   4.99882E+2
   3.50515E+2  -3.44815E+2
  -2.72108E+2  -1.08355E+2
  -7.80813E+1  -1.53852E+3
   9.49540E+2  -5.25914E+2
  -2.43022E+2   1.92543E+3
   2.51399E+3  -1.36825E+3
   6.13107E+2  -1.47922E+2
  -9.92828E+2  -8.47876E+1
  -5.34637E+2  -9.73441E+2
  -1.72627E+3  -8.00332E+2
  -3.19428E+2  -2.00560E+2
   2.92982E+2  -3.92799E+1
  -1.68785E+3  -2.59334E+1
  -7.45482E+2  -6.74596E+2
   6.19268E+2  -7.61534E+2
  -1.30167E+3  -4.06694E+1
   1.39733E+3  -1.73860E+3
  -6.98287E+2   9.62668E+2
   9.57563E+2   5.43923E+2
   1.00567E+3   2.13653E+2
   5.06427E+2   9.95377E+2
   1.84880E+3  -8.80615E+2
   1.11647E+3  -4.76741E+2
  -1.24026E+2  -5.70196E+2
   9.07876E+2   8.38643E+2
  -9.15868E+2   8.47273E+2
   3.24052E+2   7.61323E+2
   7.29602E+1   7.14828E+2
  -4.78262E+2  -1.94552E+3
   4.06413E+2   3.10642E+1
   1.20014E+3   3.21689E+2
   2.69239E+3  -1.55434E+3
  -3.65762E+2  -2.17395E+2
   1.08919E+3  -5.49062E+2
  -8.78176E+2  -1.72970E+2
   6.32407E+1  -7.69654E+2
  -6.36414E+2   7.07847E+2
  -1.90783E+2  -2.11748E+2
   2.77199E+2  -6.61472E+2
  -5.56731E+1   7.80110E+1
  -6.07676E+2   1.80163E+3
   7.57762E+2  -1.89461E+3
  -1.03897E+3   1.69139E+3
   2.79988E+2  -1.47138E+3
   8.63682E+1   2.56374E+2
  -6.41068E+2   1.50961E+3
   1.37797E+3   8.65486E+2
  -2.27351E+3   2.17906E+2
   1.23008E+3  -1.59239E+2
   7.18443E+2   1.56267E+3
  -1.30568E+3   6.48445E+1
   7.28236E+2  -7.56872E+2
   9.57248E+2   8.34142E+1
   8.90816E+2   1.23213E+3
  -4.15811E+2   2.81770E+2
  -2.91993E+2  -1.00071E+3
   1.25902E+3   3.52023E+2
   1.16261E+3   2.74008E+2
   1.39557E+2  -1.01457E+3
   1.07378E+2  -8.37209E+2
  -9.04616E+2  -6.28664E+2
   6.72172E+2   1.59785E+3
   9.76457E+2  -2.73288E+2
  -4.42141E+2  -9.68393E+2
  -8.04500E+2  -3.69518E+2
  -2.39519E+3  -4.84388E+2
   7.47969E+2  -2.23718E+2
   4.59940E+2  -7.98254E+2
  -1.30143E+3   1.75277E+3
   2.56388E+2  -9.78582E+2
  -1.02358E+3   2.45666E+2
  -9.43851E+2   6.78727E+2
  -6.20771E+2   1.79055E+3
   5.81912E+2   6.10675E+1
   2.74833E+3  -6.61814E+2
   1.98959E+2  -1.57205E+3
   8.62226E+2  -2.57448E+3
  -1.57439E+3   2.11457E+1
   5.85817E+1  -1.55234E+3
   9.24936E+2   5.68345E+1
   1.12439E+3  -1.28120E+3
  -1.01729E+3   4.25786E+2
  -1.10716E+3   2.28750E+3
  -9.63743E+2   1.67604E+2
   3.32221E+2   1.76089E+3
  -4.02943E+2  -1.28594E+3
   1.40577E+3   7.28446E+2
  -3.49251E+2   1.46637E+2
   8.98603E+2  -5.17653E+2
   1.33706E+3  -3.03008E+2
  -6.52953E+2   1.59687E+3
  -9.74584E+2   1.15467E+3
   1.02463E+3   7.54748E+2
   9.62229E+1   1.12219E+2
  -9.05206E+2  -6.69102E+1
   6.29611E+2  -5.22156E+2
   1.23060E+3   2.05481E+3
   1.78722E+3  -7.55559E+2
