 
 $NMID
 ID=''
 FMTDAT='(2E13.5)'
 TRAMP=   1.00000E+0
 VOLUME=   1.00000E+0
 $END
   9.15468E+2   4.80831E+2
  -2.10274E+3   1.11746E+3
   5.81831E+3  -2.00399E+3
  -5.04340E+2  -8.09638E+2
  -5.72693E+2  -1.55166E+3
   2.39861E+3   2.94339E+2
  -2.55462E+3  -3.79645E+2
  -1.33782E+3  -2.63730E+3
  -4.97980E+2  -2.10048E+3
  -1.47907E+3  -2.45894E+3
   2.87274E+3  -1.61519E+2
   2.32587E+3   4.39322E+3
  -3.31040E+3   3.00816E+3
  -3.82845E+3  -6.99945E+2
  -1.74668E+3  -3.14949E+3
   1.49636E+3   6.48972E+2
   3.21016E+3   2.10181E+3
   1.56802E+3   1.84703E+3
  -6.64797E+2   4.90073E+2
   2.61469E+3  -9.90896E+2
   4.04404E+3   1.80386E+3
  -1.25861E+3   3.72373E+3
  -2.50697E+3  -1.51505E+3
   3.02268E+3  -6.97080E+3
   7.03572E+3  -2.09569E+3
  -4.74203E+2   2.03713E+3
  -4.51807E+3  -8.95696E+2
  -1.60225E+3  -6.36007E+3
   3.36976E+3  -5.97558E+3
   4.25890E+3   2.93690E+3
  -5.11508E+3   4.99238E+3
  -1.24094E+4   6.61860E+2
  -2.82484E+3  -5.79703E+3
   2.05955E+2   1.36743E+3
  -1.59298E+3   3.10560E+3
   1.50759E+3  -3.01882E+3
   3.70673E+3   3.07057E+3
   9.64525E+2   6.40716E+3
  -3.12081E+3   2.90696E+3
  -3.27508E+2   3.91517E+3
  -3.82112E+3  -2.03415E+3
  -4.68558E+2  -6.52059E+3
   6.04453E+3  -4.88169E+3
   5.12809E+3   4.89431E+3
  -2.99810E+3   1.81402E+3
   1.61253E+3   1.41189E+3
  -5.27970E+1   1.07189E+3
  -3.43041E+3   2.59811E+3
  -3.59998E+3  -1.38039E+1
   3.14242E+1  -1.83423E+2
   3.93131E+2  -3.32185E+2
   4.09851E+3   6.58169E+2
   1.45022E+3   2.99694E+3
  -3.04033E+3   2.54965E+3
  -4.03673E+3  -3.47766E+3
  -3.26632E+3  -2.74238E+3
  -3.39557E+3  -5.73990E+3
   2.17430E+3  -4.02009E+3
   6.81430E+3  -4.00835E+2
   3.22365E+3   4.39722E+3
   1.02168E+3   5.94875E+3
  -3.76091E+3   5.17314E+3
  -1.21433E+3   1.95686E+3
   3.64052E+3   1.60695E+3
   1.47229E+3   4.97677E+3
  -3.04538E+3   3.79996E+3
  -3.03046E+3  -7.26855E+2
   1.99046E+3  -3.77396E+3
   3.46933E+3  -3.56912E+2
   2.44049E+2  -7.91779E+2
  -2.86014E+2  -3.93017E+3
   7.31908E+1  -4.28833E+3
   1.24139E+3  -1.55656E+3
   3.88304E+3   1.97362E+3
   1.41411E+3   2.67121E+3
   9.07178E+1   4.35731E+2
   9.61055E+2   2.28095E+3
   1.67004E+3   3.59556E+3
  -1.13407E+2   2.98053E+3
  -1.00876E+3   1.39761E+3
   9.27819E+2  -1.73369E+3
   9.75857E+2   4.32962E+2
  -2.15857E+3  -1.50436E+3
  -8.77628E+2  -3.65257E+3
   3.13696E+3  -2.91381E+3
   5.78493E+3  -8.26258E+2
   1.84611E+3   1.95389E+3
  -4.53688E+3   2.87326E+3
  -4.06500E+3   9.98922E+2
   1.84748E+3  -1.22541E+3
   1.98026E+3  -2.34066E+2
  -1.38302E+1   5.74553E+2
   1.06157E+3  -2.78780E+3
   4.28778E+3  -4.39725E+3
   4.79308E+3   1.50368E+3
   8.78564E+1   2.28769E+3
  -3.35766E+3  -2.66343E+3
  -1.19563E+3  -3.80970E+3
   6.37751E+2  -4.05677E+3
   2.36870E+3   1.37552E+3
  -3.82119E+3   2.77573E+3
  -4.64423E+3  -1.57231E+3
  -8.86166E+2  -4.94183E+3
   2.19502E+3  -3.39669E+3
  -5.81907E+1  -9.37602E+2
  -4.78186E+2  -1.75853E+3
   4.97043E+2  -2.21040E+3
   2.22554E+3  -9.68532E+2
   3.20742E+3   2.40578E+3
  -1.68046E+3   3.16900E+3
  -3.14214E+3   8.35553E+1
  -1.57875E+3  -1.51869E+3
   1.24646E+3  -2.10501E+3
   1.86853E+3  -9.67965E+2
   1.34438E+3  -1.35838E+3
   2.01260E+3  -9.87475E+1
   3.41256E+3   1.18800E+3
   1.42784E+3   1.15579E+3
   5.65227E+2   1.84750E+2
  -2.26706E+3   5.24797E+2
   2.33668E+2  -2.74777E+3
   1.44881E+3   1.36935E+3
  -4.30387E+2   3.62233E+3
  -3.98483E+2   1.28806E+3
  -7.09689E+2  -9.84184E+2
  -2.41800E+2  -1.86223E+1
  -1.69829E+3  -1.95392E+2
   6.03221E+2   4.76769E+2
  -1.10529E+3  -2.55093E+2
   1.35207E+3   5.93297E+2
   1.12245E+3  -3.37658E+1
  -2.44483E+3   1.84009E+1
  -6.35202E+2  -2.68129E+3
  -8.07151E+2  -1.40085E+3
   1.92621E+3   1.81062E+3
   1.17885E+3   1.59073E+3
  -1.45180E+3   7.82013E+0
  -1.36549E+3   7.46535E+2
  -1.69163E+3  -1.42883E+1
   1.22167E+3   1.00496E+3
  -2.05245E+3   1.17464E+3
  -1.84950E+3  -1.59594E+3
  -5.65458E+1  -1.23136E+3
   1.25918E+3  -5.32890E+2
  -8.14870E+2  -4.61898E+1
  -1.02852E+3  -5.73062E+2
  -1.79768E+3  -2.63668E+3
  -1.69181E+3  -1.22866E+3
  -1.11206E+3   3.55020E+2
   1.09178E+3  -4.35079E+2
   1.53962E+3   6.40957E+2
  -1.19775E+3   8.81530E+1
  -2.24825E+3   4.14279E+2
  -2.06172E+3  -1.56186E+3
   1.46687E+3  -2.39091E+3
  -1.31667E+2  -2.41908E+3
   5.51804E+2  -2.06749E+3
  -1.02934E+2  -1.50002E+2
   1.22549E+3  -3.03591E+2
  -2.51692E+2  -6.50325E+1
   1.35813E+3  -1.26179E+2
  -1.01174E+3   2.17848E+3
  -2.54559E+3  -1.30916E+3
   1.19463E+1  -2.67628E+2
   9.59310E+2  -1.80374E+3
   1.70583E+3   2.01661E+3
   1.07464E+2  -4.87212E+2
   2.45457E+1  -8.71641E+2
   5.98620E+2  -3.38249E+1
   1.82992E+3   1.09864E+3
   1.84105E+2   1.45633E+2
  -7.88591E+2   1.06870E+2
  -1.54027E+3  -1.93967E+3
  -1.64102E+3   4.15525E+1
  -6.34960E+1  -2.83248E+2
  -2.16217E+3   1.13556E+3
  -1.83075E+3  -9.85960E+2
  -1.69781E+2   3.40450E+2
   1.54647E+3   1.83749E+3
  -2.30007E+3   2.89742E+3
   8.73164E+2  -1.10298E+3
  -2.01138E+1  -2.72465E+2
   1.99407E+3  -6.41540E+2
  -1.44242E+3   4.32989E+1
  -2.61637E+2  -4.50977E+1
   1.17963E+3  -6.22282E+2
   2.12168E+2   4.75089E+2
  -5.54836E+0   2.21931E+1
  -1.53745E+3  -4.32542E+2
  -9.04744E+2  -1.85183E+3
   8.53486E+2   6.36341E+1
   8.57151E+2  -2.07885E+3
   7.44484E+2   9.67653E+2
   2.57487E+2  -1.05601E+3
   8.22331E+1   7.84986E+2
  -3.75856E+2   7.07909E+2
   6.20235E+2  -1.27118E+3
   1.39823E+3  -1.04344E+3
   2.00972E+2   3.96382E+2
  -1.39879E+2   9.09584E-1
  -1.45504E+3   2.99659E+3
  -1.65763E+3  -4.01753E+2
  -3.02022E+3  -1.23261E+3
   4.13669E+2  -2.59175E+3
   2.04157E+3  -2.09384E+2
   1.24953E+2   9.29403E+2
  -1.40642E+3   2.75336E+2
   6.68064E+1  -2.98739E+3
   9.58042E+1  -4.50146E+2
  -4.79555E+2   1.48110E+3
  -1.61577E+2   1.47372E+3
  -1.76639E+3   1.60303E+3
   3.54073E+2  -7.11793E+2
   1.67948E+3  -8.40209E+2
  -5.30042E+2   4.75545E+2
  -7.13029E+2   2.34500E+3
   2.36354E+1   5.61284E+2
  -1.01492E+3  -8.31436E+2
  -5.33590E+2  -7.36426E+2
   2.08465E+3  -1.79143E+3
  -4.67728E+2  -1.59322E+1
   1.03082E+3  -5.54979E+2
   5.50234E+2   3.08603E+2
  -2.15746E+3   1.14350E+3
  -2.00041E+3  -1.56491E+3
   2.23536E+3  -1.71391E+3
   2.00796E+3   4.59998E+2
  -1.04087E+3  -6.96765E+1
  -1.96516E+3   1.01187E+3
  -6.28621E+0  -4.49033E+2
  -8.68279E+2   2.50114E+2
  -5.77793E+2   1.58355E+3
  -4.71730E+2  -1.61573E+2
   9.92298E+1  -9.50136E+2
   1.94489E+3   1.71862E+2
   9.37916E+2   1.03771E+3
  -1.24967E+3   4.22888E+2
  -4.71976E+2   9.05450E+2
   1.13456E+3  -1.49467E+3
   4.22702E+2   1.04328E+3
   2.06104E+2   1.72399E+3
  -2.68509E+2   1.34594E+3
  -2.12410E+2  -8.01279E+2
   6.68423E+2  -1.12157E+3
   1.86919E+3  -8.70736E+2
  -6.39220E+2   5.30689E+2
   7.42170E+2   5.36923E+2
   5.63279E+1   1.30923E+3
   7.26351E+2  -1.24334E+3
   2.04294E+3   1.17640E+3
  -8.97791E+1  -2.70942E+2
  -1.61129E+2  -3.82554E+1
   1.58482E+3  -1.33015E+2
   1.52347E+3  -3.05047E+2
   5.06912E+2   1.71670E+3
  -4.95542E+2  -4.59860E+2
  -2.00009E+3  -7.84195E+2
   1.20833E+3   4.76280E+2
  -2.18709E+3   1.22244E+3
   4.09966E+2   1.34953E+3
  -1.18442E+3  -8.89797E+2
  -7.82119E+2  -9.74409E+2
  -1.47991E+3  -4.50150E+1
   1.32790E+3   1.19496E+2
   1.13378E+3  -5.11557E+2
   1.23246E+3   1.45859E+3
  -1.05077E+3  -1.68000E+3
  -1.06844E+3  -1.99914E+2
  -2.59742E+3  -1.39111E+3
  -3.44270E+2  -1.10183E+1
   1.49981E+3  -3.32896E+2
  -1.15649E+2  -2.07635E+3
  -1.20231E+3   1.34320E+3
  -2.12509E+2   4.05528E+1
  -4.46735E+2  -4.77510E+2
  -2.83175E+2  -1.59474E+3
  -2.35516E+3  -2.03988E+2
  -6.42648E+2  -3.43326E+2
   7.91829E+2  -6.49867E+2
   1.58171E+3  -2.25305E+3
   3.41023E+2  -1.48844E+2
   4.83164E+1  -1.16194E+3
  -1.58680E+3   1.56973E+3
  -7.13939E+2  -7.98768E+2
  -6.54038E+2  -5.66670E+2
   4.39961E+2  -2.51544E+2
  -8.34686E+2   1.16175E+2
  -2.74295E+3  -2.57020E+2
  -2.24659E+2  -1.30541E+3
   8.41435E+2   7.93334E+2
  -5.50504E+2   6.49258E+2
  -7.49134E+1  -6.33441E+1
   7.87587E+2  -1.14432E+3
  -7.03853E+2  -3.83341E+2
   9.38377E+1   5.95598E+2
  -8.53085E+1   2.25234E+3
   7.25356E+2  -5.93135E+2
   8.01526E+2   2.00504E+2
  -1.00922E+3   1.22857E+2
  -1.43924E+3   1.69416E+3
   1.37645E+3   5.87844E+2
   3.63782E+2   1.12187E+3
  -1.49441E+3   1.15941E+3
  -1.10922E+2  -9.87220E+2
  -1.08676E+3  -3.53156E+2
   5.59017E+2  -2.19211E+2
  -7.39034E+2   7.84653E+1
  -1.11548E+3   3.12023E+2
  -1.21283E+2   2.32150E+3
  -2.98377E+2  -4.24390E+2
  -3.79328E+2  -1.38669E+2
  -5.97806E+2  -9.72846E+2
   8.40209E+2   7.71878E+1
  -1.40688E+3  -8.48920E+2
   9.23786E+2   1.03827E+3
   2.81234E+2  -3.05502E+2
   1.76124E+3  -2.03284E+2
   1.62984E+1  -4.12760E+2
   4.32231E+2  -3.51242E+2
   1.64800E+2   4.12244E+2
   1.06185E+3  -9.27134E+1
   2.12117E+2   9.32916E+2
   1.40925E+2   4.12365E+2
   2.30713E+2   4.75072E+2
  -1.68904E+3   8.03285E+2
   1.02344E+2  -2.16604E+2
  -1.92345E+2   1.95175E+3
   1.15689E+2   6.33370E+2
  -6.79850E+2  -2.94986E+2
   1.89969E+1  -1.96497E+2
  -3.72412E+2   9.17885E+1
   1.59080E+1   7.08464E+1
  -1.88303E+3   1.11470E+3
  -1.35661E+3   1.61303E+2
   4.79122E+2  -8.83949E+2
  -2.11693E+2   2.26945E+2
   1.09298E+3  -1.19002E+3
  -1.84103E+3   1.01356E+3
  -3.49502E+1   6.47836E+2
   3.34052E+2  -1.79162E+2
   1.02088E+3   5.82776E+2
  -7.41537E+2   1.67624E+2
  -8.32433E+2  -1.75129E+3
   5.53457E+2   7.98843E+2
  -1.85306E+3   1.88098E+3
   1.00334E+3   1.57421E+2
   4.56611E+1   3.62331E+2
   1.57945E+3   2.52469E+3
   2.46489E+1   2.12038E+3
  -1.07597E+3   6.71765E+2
   1.28090E+2  -1.52043E+3
   5.64329E+2  -1.08157E+3
  -6.54270E+2  -1.09744E+2
   2.92529E+2  -6.34179E+2
  -5.74618E+2  -7.17165E+2
  -5.91401E+2   2.40388E+2
  -1.85636E+3   3.36138E+2
   1.51706E+3   6.34062E+0
   8.29794E+2   1.48647E+3
  -1.31862E+3   1.47668E+3
  -7.31132E+2   3.63021E+2
   6.18992E+2   6.05922E+1
   5.13952E+2   2.28258E+3
   1.07023E+3   1.52247E+3
  -1.17627E+3   2.80649E+2
   1.20843E+2  -8.76212E+2
  -1.25723E+3   7.21738E+2
