 
 $NMID
 ID=''
 FMTDAT='(2E13.5)'
 TRAMP=   1.00000E+0
 VOLUME=   1.00000E+0
 $END
  -1.95726E+4   2.66511E+3
  -5.03751E+4  -6.90259E+3
  -5.08608E+4   2.89321E+3
  -4.66370E+4   3.73693E+3
  -4.82612E+4   3.24977E+3
  -4.80817E+4   6.25307E+3
  -4.62876E+4   6.60241E+3
  -4.69875E+4   6.36404E+3
  -4.69315E+4   8.64612E+3
  -4.57031E+4   9.38309E+3
  -4.59299E+4   9.70698E+3
  -4.55622E+4   1.18781E+4
  -4.44139E+4   1.30354E+4
  -4.44700E+4   1.33840E+4
  -4.39019E+4   1.48945E+4
  -4.27745E+4   1.57418E+4
  -4.25685E+4   1.61615E+4
  -4.19954E+4   1.74073E+4
  -4.09696E+4   1.81965E+4
  -4.07367E+4   1.87208E+4
  -4.01207E+4   1.97020E+4
  -3.91070E+4   2.06725E+4
  -3.88517E+4   2.12026E+4
  -3.83112E+4   2.19895E+4
  -3.73350E+4   2.25861E+4
  -3.68642E+4   2.32072E+4
  -3.64503E+4   2.39663E+4
  -3.56471E+4   2.43345E+4
  -3.52520E+4   2.46336E+4
  -3.47173E+4   2.52757E+4
  -3.39062E+4   2.58874E+4
  -3.33488E+4   2.63018E+4
  -3.30047E+4   2.68182E+4
  -3.20946E+4   2.72035E+4
  -3.14058E+4   2.77644E+4
  -3.08039E+4   2.82659E+4
  -2.99242E+4   2.87286E+4
  -2.91327E+4   2.91453E+4
  -2.84479E+4   2.97152E+4
  -2.76194E+4   3.02101E+4
  -2.69668E+4   3.05062E+4
  -2.62559E+4   3.08572E+4
  -2.55343E+4   3.10729E+4
  -2.46446E+4   3.12705E+4
  -2.38744E+4   3.17059E+4
  -2.31650E+4   3.18277E+4
  -2.24121E+4   3.20480E+4
  -2.17098E+4   3.22734E+4
  -2.09115E+4   3.25024E+4
  -2.00589E+4   3.26136E+4
  -1.94047E+4   3.27713E+4
  -1.86783E+4   3.28390E+4
  -1.78024E+4   3.29338E+4
  -1.70579E+4   3.31360E+4
  -1.63751E+4   3.31623E+4
  -1.56196E+4   3.31462E+4
  -1.49153E+4   3.32086E+4
  -1.42138E+4   3.32326E+4
  -1.35069E+4   3.31313E+4
  -1.27959E+4   3.30734E+4
  -1.20646E+4   3.29432E+4
  -1.12566E+4   3.28135E+4
  -1.06263E+4   3.28938E+4
  -1.00136E+4   3.27416E+4
  -9.40431E+3   3.26216E+4
  -8.64792E+3   3.24786E+4
  -7.92407E+3   3.24743E+4
  -7.39743E+3   3.23355E+4
  -6.81000E+3   3.21362E+4
  -6.07236E+3   3.19739E+4
  -5.51273E+3   3.17602E+4
  -4.86753E+3   3.15815E+4
  -4.21827E+3   3.13305E+4
  -3.64340E+3   3.11398E+4
  -3.01388E+3   3.08717E+4
  -2.30986E+3   3.06377E+4
  -1.77241E+3   3.03490E+4
  -1.21189E+3   2.99917E+4
  -5.78146E+2   2.97567E+4
   5.37509E+1   2.95275E+4
   6.73100E+2   2.91762E+4
   1.13419E+3   2.89235E+4
   1.68295E+3   2.84988E+4
   2.23071E+3   2.82020E+4
   2.73723E+3   2.79521E+4
   3.26928E+3   2.75927E+4
   3.77784E+3   2.72142E+4
   4.30716E+3   2.67793E+4
   4.85503E+3   2.64206E+4
   5.43635E+3   2.61155E+4
   5.80201E+3   2.57727E+4
   6.42661E+3   2.54586E+4
   6.89381E+3   2.50878E+4
   7.45426E+3   2.48616E+4
   7.81325E+3   2.45088E+4
   8.30540E+3   2.41371E+4
   8.77108E+3   2.37992E+4
   9.28789E+3   2.35272E+4
   9.66891E+3   2.33267E+4
   9.99407E+3   2.30620E+4
   1.03005E+4   2.26961E+4
   1.07181E+4   2.24021E+4
   1.11013E+4   2.20392E+4
   1.14925E+4   2.18649E+4
   1.17095E+4   2.16190E+4
   1.20319E+4   2.12480E+4
   1.22933E+4   2.10290E+4
   1.24585E+4   2.07867E+4
   1.27453E+4   2.06038E+4
   1.28468E+4   2.02153E+4
   1.31533E+4   1.99031E+4
   1.33381E+4   1.96645E+4
   1.34985E+4   1.94029E+4
   1.36303E+4   1.91897E+4
   1.37304E+4   1.88863E+4
   1.38523E+4   1.86162E+4
   1.39398E+4   1.83672E+4
   1.40041E+4   1.80793E+4
   1.41000E+4   1.77530E+4
   1.41869E+4   1.74763E+4
   1.42373E+4   1.71768E+4
   1.41999E+4   1.69827E+4
   1.42193E+4   1.66947E+4
   1.41697E+4   1.63753E+4
   1.42138E+4   1.61317E+4
   1.42424E+4   1.58103E+4
   1.42064E+4   1.54925E+4
   1.41399E+4   1.52069E+4
   1.41103E+4   1.48903E+4
   1.41708E+4   1.45511E+4
   1.41251E+4   1.42994E+4
   1.39993E+4   1.40083E+4
   1.39979E+4   1.37238E+4
   1.39519E+4   1.33990E+4
   1.38785E+4   1.31642E+4
   1.38077E+4   1.29371E+4
   1.36967E+4   1.25873E+4
   1.36018E+4   1.22822E+4
   1.34597E+4   1.18648E+4
   1.34841E+4   1.16579E+4
   1.33629E+4   1.13904E+4
   1.32650E+4   1.10699E+4
   1.31795E+4   1.07591E+4
   1.31040E+4   1.04991E+4
   1.29725E+4   1.02087E+4
   1.28674E+4   9.87606E+3
   1.27261E+4   9.68168E+3
   1.26201E+4   9.44708E+3
   1.25534E+4   9.17070E+3
   1.24493E+4   8.92047E+3
   1.23669E+4   8.68293E+3
   1.22173E+4   8.37146E+3
   1.20479E+4   8.05808E+3
   1.19100E+4   7.86372E+3
   1.17821E+4   7.65088E+3
   1.16503E+4   7.34566E+3
   1.15262E+4   7.13962E+3
   1.13502E+4   6.86607E+3
   1.11544E+4   6.72487E+3
   1.10067E+4   6.56421E+3
   1.08785E+4   6.30610E+3
   1.07379E+4   6.08543E+3
   1.05459E+4   5.88430E+3
   1.03897E+4   5.64347E+3
   1.02386E+4   5.46801E+3
   1.00628E+4   5.33646E+3
   9.87802E+3   5.06503E+3
   9.72889E+3   4.98509E+3
   9.55010E+3   4.68906E+3
   9.42143E+3   4.56101E+3
   9.23356E+3   4.40516E+3
   9.07260E+3   4.25621E+3
   8.93242E+3   4.05605E+3
   8.76597E+3   3.89105E+3
   8.54693E+3   3.76128E+3
   8.41286E+3   3.63248E+3
   8.16853E+3   3.37832E+3
   8.05831E+3   3.24453E+3
   7.96545E+3   3.06881E+3
   7.69930E+3   2.93094E+3
   7.54952E+3   2.77453E+3
   7.39168E+3   2.61191E+3
   7.20591E+3   2.49318E+3
   7.03293E+3   2.31008E+3
   6.91340E+3   2.18056E+3
   6.76458E+3   2.05286E+3
   6.63582E+3   1.90579E+3
   6.49608E+3   1.84104E+3
   6.31942E+3   1.64638E+3
   6.16824E+3   1.54474E+3
   6.00092E+3   1.38844E+3
   5.85666E+3   1.30458E+3
   5.65084E+3   1.16623E+3
   5.53209E+3   1.02740E+3
   5.40567E+3   9.40184E+2
   5.22824E+3   7.88650E+2
   5.18274E+3   8.01355E+2
   4.97042E+3   6.08360E+2
   4.82857E+3   5.47264E+2
   4.74501E+3   4.14691E+2
   4.65971E+3   3.23344E+2
   4.54017E+3   2.59614E+2
   4.34938E+3   1.95053E+2
   4.28052E+3   4.82716E+1
   4.06082E+3   2.47852E+1
   3.99954E+3  -5.48653E+1
   3.89407E+3  -1.16191E+2
   3.80178E+3  -1.39876E+2
   3.69308E+3  -2.04339E+2
   3.51234E+3  -3.67379E+2
   3.39342E+3  -4.34444E+2
   3.32776E+3  -4.63322E+2
   3.13451E+3  -5.23124E+2
   3.02259E+3  -5.85934E+2
   2.90476E+3  -6.61119E+2
   2.79777E+3  -6.98543E+2
   2.72309E+3  -7.77974E+2
   2.59536E+3  -8.09980E+2
   2.60140E+3  -8.79143E+2
   2.40287E+3  -9.31147E+2
   2.32457E+3  -9.36048E+2
   2.22542E+3  -1.01762E+3
   2.15505E+3  -9.92760E+2
   1.99362E+3  -1.05621E+3
   1.92918E+3  -1.12058E+3
   1.86806E+3  -1.16817E+3
   1.75709E+3  -1.19938E+3
   1.64317E+3  -1.25604E+3
   1.61658E+3  -1.24518E+3
   1.51568E+3  -1.29388E+3
   1.39894E+3  -1.29592E+3
   1.29355E+3  -1.30642E+3
   1.23626E+3  -1.45096E+3
   1.13199E+3  -1.42682E+3
   1.04427E+3  -1.40730E+3
   1.04382E+3  -1.49191E+3
   9.35947E+2  -1.44295E+3
   8.70863E+2  -1.50574E+3
   8.01602E+2  -1.57691E+3
   7.55289E+2  -1.54913E+3
   6.19777E+2  -1.55081E+3
   6.25535E+2  -1.53318E+3
   5.93429E+2  -1.56946E+3
   5.15823E+2  -1.55079E+3
   4.97208E+2  -1.52597E+3
   3.66755E+2  -1.59351E+3
   4.10311E+2  -1.61305E+3
   2.65416E+2  -1.59835E+3
   3.07229E+2  -1.58182E+3
   1.51012E+2  -1.60545E+3
   1.41006E+2  -1.67571E+3
   9.12901E+1  -1.63653E+3
  -2.01726E+1  -1.61884E+3
  -2.49283E+1  -1.61219E+3
  -3.95059E+1  -1.63731E+3
  -7.93900E+1  -1.60445E+3
  -1.32513E+2  -1.68536E+3
  -1.32549E+2  -1.60064E+3
  -2.18833E+2  -1.64312E+3
  -3.04535E+2  -1.65627E+3
  -2.56564E+2  -1.65090E+3
  -3.13037E+2  -1.61204E+3
  -3.90591E+2  -1.58073E+3
  -3.81562E+2  -1.64418E+3
  -4.07335E+2  -1.59335E+3
  -5.03402E+2  -1.61593E+3
  -4.70254E+2  -1.64000E+3
  -5.60268E+2  -1.65439E+3
  -5.61657E+2  -1.63883E+3
  -5.44254E+2  -1.57796E+3
  -5.97227E+2  -1.59530E+3
  -5.68454E+2  -1.58619E+3
  -6.19585E+2  -1.59241E+3
  -6.67931E+2  -1.60723E+3
  -7.40114E+2  -1.60888E+3
  -7.07622E+2  -1.58136E+3
  -7.45473E+2  -1.54926E+3
  -7.45060E+2  -1.52974E+3
  -6.99026E+2  -1.52276E+3
  -7.69020E+2  -1.50673E+3
  -7.85672E+2  -1.50237E+3
  -8.81292E+2  -1.53298E+3
  -8.10685E+2  -1.51794E+3
  -7.92613E+2  -1.49125E+3
  -7.86762E+2  -1.44998E+3
  -7.90367E+2  -1.54995E+3
  -7.97355E+2  -1.50277E+3
  -8.54481E+2  -1.51403E+3
  -8.94554E+2  -1.44357E+3
  -8.10223E+2  -1.43712E+3
  -8.01888E+2  -1.39558E+3
  -8.99200E+2  -1.41106E+3
  -8.85264E+2  -1.43898E+3
  -8.18521E+2  -1.46003E+3
  -8.47662E+2  -1.38260E+3
  -8.50669E+2  -1.39332E+3
  -8.11574E+2  -1.35699E+3
  -8.57924E+2  -1.35388E+3
  -8.01660E+2  -1.37753E+3
  -8.13110E+2  -1.30259E+3
  -8.86700E+2  -1.32043E+3
  -8.21683E+2  -1.35950E+3
  -8.22124E+2  -1.27397E+3
  -8.76801E+2  -1.23606E+3
  -8.43089E+2  -1.32669E+3
  -9.11887E+2  -1.30246E+3
  -8.16537E+2  -1.29520E+3
  -7.92118E+2  -1.22706E+3
  -8.27396E+2  -1.21414E+3
  -8.50285E+2  -1.23908E+3
  -8.46734E+2  -1.19677E+3
  -7.85816E+2  -1.19445E+3
  -7.52304E+2  -1.09313E+3
  -8.37617E+2  -1.14822E+3
  -7.69529E+2  -1.15194E+3
  -7.86215E+2  -1.08814E+3
  -8.44780E+2  -1.10717E+3
  -7.91180E+2  -1.11836E+3
  -7.94655E+2  -1.07107E+3
  -7.43314E+2  -1.08118E+3
  -7.76319E+2  -9.70621E+2
  -7.94767E+2  -1.05052E+3
  -7.60759E+2  -1.10397E+3
  -7.07031E+2  -1.02485E+3
  -7.47832E+2  -9.82155E+2
  -7.20199E+2  -9.78614E+2
  -7.90207E+2  -1.02485E+3
  -7.42070E+2  -9.28501E+2
  -7.33986E+2  -9.20835E+2
  -7.18172E+2  -8.97575E+2
  -7.43195E+2  -9.05470E+2
  -6.81739E+2  -8.62208E+2
  -7.49983E+2  -8.87902E+2
  -6.99638E+2  -9.31184E+2
  -7.02538E+2  -8.70947E+2
  -6.29305E+2  -8.67412E+2
  -6.87418E+2  -8.10236E+2
  -6.56572E+2  -8.48857E+2
  -6.54248E+2  -8.68613E+2
  -6.83488E+2  -8.77110E+2
  -7.24610E+2  -8.57366E+2
  -6.45400E+2  -8.27025E+2
  -6.80673E+2  -7.54951E+2
  -5.95138E+2  -7.39326E+2
  -6.50951E+2  -7.33010E+2
  -5.98914E+2  -7.93460E+2
  -5.17914E+2  -7.15316E+2
  -5.81604E+2  -8.10791E+2
  -5.35551E+2  -8.03753E+2
  -5.44025E+2  -7.25152E+2
  -5.24359E+2  -8.11121E+2
  -5.28974E+2  -6.73779E+2
  -5.13657E+2  -6.42903E+2
  -5.02658E+2  -7.30744E+2
  -4.81684E+2  -7.07875E+2
  -5.19620E+2  -6.90866E+2
  -4.87602E+2  -6.43193E+2
  -4.44575E+2  -6.71160E+2
  -4.68954E+2  -6.39653E+2
  -4.36348E+2  -6.59595E+2
  -3.96073E+2  -6.79174E+2
  -4.31581E+2  -7.00528E+2
  -5.14215E+2  -6.04084E+2
  -4.58269E+2  -5.50214E+2
  -4.53985E+2  -5.98284E+2
  -4.10031E+2  -6.16798E+2
  -3.91817E+2  -5.84430E+2
