 
 $NMID
 ID=''
 FMTDAT='(2E13.5)'
 TRAMP=   1.00000E+0
 VOLUME=   1.00000E+0
 $END
   4.55614E+2   4.08697E+1
  -1.95021E+3   1.67771E+3
   3.88306E+3   2.22017E+2
   6.75591E+2   2.75858E+2
   8.88092E+2  -2.06868E+3
   8.86353E+2  -2.55052E+3
  -2.47628E+3   2.69243E+2
  -1.12674E+3  -2.62043E+3
  -2.07665E+3   1.61135E+3
   1.76396E+2   1.11970E+3
   1.37051E+3  -4.20583E+1
   4.17470E+3  -2.43782E+2
   4.85068E+2  -5.99187E+1
  -3.41881E+3  -2.68540E+3
  -5.20816E+3  -3.09791E+3
  -2.18861E+2  -2.03912E+3
  -1.46995E+3   1.69293E+2
  -1.33195E+3   4.52074E+3
  -1.04599E+3   2.18641E+3
   7.89804E+2   6.71188E+2
   5.00066E+3  -6.86420E+2
   1.21977E+3   1.39929E+3
  -2.72608E+3  -1.30352E+3
   1.31329E+3  -7.63086E+3
   2.43310E+3  -1.82300E+3
   2.58348E+2   1.97653E+3
  -2.51188E+3   6.76196E+2
  -1.97923E+3  -3.65450E+3
   3.20555E+3  -5.85223E+3
   7.42257E+3  -2.06848E+3
   5.40433E+3   5.98237E+3
  -5.43295E+3   5.17438E+3
  -4.26325E+3  -4.22854E+3
   1.40375E+3  -2.63102E+3
  -1.36976E+3  -4.43130E+2
  -8.15365E+2  -5.60098E+3
   7.59700E+3  -5.13071E+3
   7.07640E+3   4.46912E+3
   5.01273E+2   5.22749E+3
   2.93568E+2   2.11488E+3
  -3.69033E+3   3.74076E+3
  -5.39751E+3  -3.85544E+2
  -9.29649E+2  -7.47599E+3
   8.00343E+3  -2.95911E+3
   2.98860E+3   2.96468E+3
   9.71878E+2   2.17581E+3
   9.02141E+2   2.59451E+3
   1.02375E+3   6.57392E+3
  -3.67168E+3   4.35227E+3
  -2.38542E+3   2.42756E+3
   2.28844E+2  -9.26150E+2
   1.12635E+3  -1.94684E+3
   4.83440E+3  -4.72321E+2
   2.62339E+3   3.45810E+3
   6.69977E+2   3.42497E+3
  -1.39620E+3   5.26252E+2
  -3.17329E+3  -4.60030E+2
  -3.10126E+3  -5.74675E+3
   1.54881E+3  -6.74028E+3
   6.42624E+3  -3.18764E+3
   8.64166E+3  -1.48147E+3
   6.81421E+3   4.13247E+3
   4.40001E+3   4.61639E+3
  -8.23530E+2   1.46201E+3
   3.94629E+3  -1.83573E+3
   2.89803E+3   2.09319E+3
  -8.86847E+2   3.00988E+3
  -5.18454E+3  -4.18891E+2
  -1.28725E+3  -3.74734E+3
  -5.59356E+2  -1.59823E+3
  -2.84921E+3   1.53545E+2
  -3.57649E+3   3.76450E+2
  -2.85095E+3  -3.57227E+3
  -1.91016E+3  -1.63430E+3
   9.18607E+2  -3.45165E+2
  -1.53988E+3   1.46601E+3
  -8.57638E+2  -1.66115E+3
  -5.34786E+2  -7.46325E+2
   3.03447E+3   9.14785E+2
   1.45990E+3   3.50996E+3
   8.34899E+2   2.23891E+3
  -3.43311E+2   5.64902E+2
   7.50607E+2   1.32518E+3
   6.67122E+1   3.89727E+3
  -3.54871E+3   2.51461E+2
  -2.00663E+3  -2.53298E+2
   9.23194E+1  -3.55064E+3
   4.17942E+3  -2.93704E+3
   2.38975E+3   5.11314E+2
  -1.63278E+3   3.80821E+3
  -2.02730E+3   3.31205E+3
  -1.25906E+3   2.40904E+3
  -1.92382E+3   1.17493E+3
  -7.82875E+3   2.02997E+3
  -5.16216E+3  -2.60354E+3
  -1.11139E+3  -4.09870E+3
   3.86630E+3   6.10549E+2
   1.29275E+3   2.90873E+3
  -1.96938E+3   1.01712E+3
  -3.06704E+3  -2.24779E+3
   1.18419E+3  -2.02633E+3
   4.18702E+3   6.81517E+2
  -1.44153E+3   3.71655E+3
  -2.40674E+3   3.29035E+3
  -3.22614E+3  -1.14133E+3
   3.76617E+2  -2.50785E+3
  -1.58653E+3  -1.36891E+3
  -2.18135E+3  -1.38334E+3
  -1.26174E+3  -4.47476E+3
   3.63193E+3  -4.01320E+3
   5.13399E+3  -1.30917E+1
   2.84251E+3   3.35290E+3
   6.53192E+2   4.09010E+3
  -1.77718E+3   3.09499E+3
  -3.07596E+3   2.10317E+3
  -3.47540E+3  -4.29281E+2
  -3.03413E+3  -1.97469E+3
   1.22201E+3  -2.58714E+3
  -5.48932E+2  -1.39575E+3
   2.16122E+3  -1.95649E+2
  -2.22904E+2   1.86865E+3
  -8.38307E+2   7.49211E+0
  -2.11385E+3  -2.45447E+3
   4.56827E+2  -1.07131E+3
   9.41170E+2   1.42146E+3
  -1.11546E+3   6.64221E+2
   7.41491E+2  -5.08795E+2
   2.74150E+2  -4.55019E+2
  -1.27529E+3   1.39000E+3
  -9.44385E+2  -5.56919E+2
  -3.06708E+3  -1.72276E+3
   1.78946E+3  -2.20606E+3
   6.22191E+2   2.68598E+3
  -1.00394E+3   3.63440E+3
  -4.22734E+3   8.18056E+2
  -3.77907E+3  -1.04096E+3
  -3.34278E+3  -3.08091E+2
   2.93113E+2  -2.34936E+2
   2.75355E+3   8.38067E+2
   2.08861E+3  -5.69955E+2
   1.09989E+2  -9.72740E+2
   1.47022E+3   1.33021E+3
   2.24086E+3   1.73091E+3
  -1.22807E+3   2.16687E+3
  -1.80980E+3  -1.90024E+2
   2.47666E+2   1.05189E+3
   2.64722E+2   1.31407E+3
  -1.31157E+3   1.20215E+3
   2.10345E+2   1.49538E+3
  -1.70565E+3   4.42253E+2
  -2.57992E+3   1.41357E+3
  -3.20242E+2  -4.67936E+2
   1.41961E+3  -2.22421E+3
   2.25777E+3  -9.11851E+1
   3.56895E+3   2.10309E+3
   8.21171E+2   3.34681E+3
  -1.16342E+3   8.23186E+2
  -2.08195E+2   1.80291E+2
   1.51979E+3   1.48391E+3
  -1.26544E+3   9.77771E+2
   4.79329E+2   1.38338E+3
  -6.73358E+2  -1.18796E+3
  -3.71000E+2   3.61463E+2
  -8.17904E+1  -1.28277E+3
  -1.33013E+3   6.70372E+2
  -1.87894E+3  -3.82155E+2
   2.12718E+2  -3.45638E+2
   1.76123E+3  -1.65508E+3
   1.19357E+3   2.39006E+3
  -3.29078E+3   2.29259E+3
  -1.70314E+3  -6.62180E+2
   5.42953E+1   1.01792E+3
  -2.90445E+2  -1.28167E+3
   2.01954E+3  -7.37500E+2
   1.31875E+3   7.84163E+2
   2.73685E+3  -2.40275E+3
   2.08204E+3   1.44123E+3
   2.09718E+3   7.24535E+2
  -1.87213E+3   2.37778E+3
  -2.39346E+3  -5.18087E+2
  -1.74698E+3  -1.14671E+3
   1.57569E+3  -1.30780E+3
   8.32626E+2  -5.72297E+2
   1.72801E+3  -1.47245E+3
   6.00921E+1   1.65590E+3
   1.50393E+3   3.11341E+3
  -2.32556E+2   1.35800E+3
  -1.75151E+3  -3.84714E+2
  -2.89479E+3  -1.42410E+3
   1.27996E+3  -1.28857E+3
   2.07227E+3  -2.42624E+2
   6.06745E+2   9.41193E+2
   3.01235E+2  -7.62254E+1
   2.67912E+1  -1.01796E+3
   1.31361E+3  -5.04885E+2
  -1.02462E+3   5.13242E+2
  -1.17697E+2   2.27991E+2
   2.37959E+2  -2.35574E+3
   2.50257E+3   6.15735E+2
  -2.49130E+2   2.95748E+3
  -4.51317E+3   7.25597E+2
   7.31573E+1  -5.95091E+2
  -6.98622E+2  -4.01550E+3
   3.98412E+3  -1.39498E+3
   2.65496E+3   1.05876E+3
   2.25653E+3   1.37516E+3
  -4.59474E+2   1.34208E+3
   1.54915E+3   2.19399E+2
  -1.83237E+2   1.28926E+3
  -2.16703E+3  -3.04970E+1
  -1.47692E+3  -2.39052E+3
  -1.66285E+3  -3.11835E+3
   2.90056E+3   8.68835E+2
   2.98717E+2   1.51550E+3
   8.70930E+1   1.49890E+3
   2.04997E+2  -9.55905E+2
   5.74354E+2  -8.99603E+2
   2.23442E+3   4.40560E+2
  -4.67626E+2   9.74028E+2
  -7.86844E+2  -2.04439E+3
   2.11374E+3  -9.58247E+2
   3.86681E+2   5.16048E+2
  -1.82360E+3   4.61646E+2
  -4.08726E+2  -2.79473E+3
   1.02867E+3  -1.70197E+3
   1.70287E+3  -8.78336E+2
   1.71886E+3  -9.07813E+2
  -9.98641E+2   1.09843E+2
  -1.28326E+3  -2.25448E+3
  -1.79650E+3  -2.11856E+3
  -3.88170E+2  -2.35027E+2
   1.33913E+2   1.14213E+2
  -6.63321E+2  -2.89375E+3
   6.77573E+2  -1.86771E+3
   1.83841E+3  -1.02519E+3
   1.38354E+3   2.50002E+3
  -1.13907E+3   2.31471E+2
  -2.65072E+3  -1.04806E+3
   5.14794E+2  -1.58714E+3
   2.85905E+2   2.62600E+2
  -4.93681E+2   6.08553E+2
   4.74544E+2   9.39618E+2
   4.93222E+2   5.06531E+2
   2.77854E+2  -1.80900E+3
   1.66158E+3  -1.16145E+3
  -2.73900E+3  -1.77211E+3
  -1.46109E+3  -2.20073E+3
   7.13313E+2  -3.10879E+3
   3.46721E+3  -1.54417E+2
   2.34703E+2   1.55333E+3
  -1.36327E+3   1.44263E+3
  -7.46256E+2  -3.00427E+3
  -1.14232E+2  -1.94681E+3
   1.02517E+3  -1.09408E+3
   1.55351E+3  -1.12675E+3
   8.99017E+2  -1.16893E+3
   4.94787E+2   9.66217E+2
  -3.71408E+2   2.36219E+3
  -2.86475E+3   2.79533E+2
  -1.25724E+3   8.80268E+2
  -1.31559E+3  -1.26796E+3
   9.09527E+2  -2.08755E+3
   3.83945E+2  -9.25003E+2
   2.04205E+2   5.99152E+2
  -1.68995E+3  -2.41365E+2
   3.41862E+2  -2.41829E+2
   8.29111E+2   4.05072E+2
  -4.19059E+2   7.00335E+2
  -9.74651E+2   3.51114E+2
   2.41341E+3  -1.85842E+3
   2.29057E+3   2.16389E+3
   5.37623E+2   1.65655E+3
   4.43752E+2   1.63542E+3
  -2.56651E+3  -1.91885E+3
  -3.07303E+2  -6.03853E+2
  -5.44962E+2  -2.19247E+3
   1.45745E+3   7.30573E+2
   5.20859E+2   1.13693E+3
  -1.05482E+3  -4.14339E+2
   1.94643E+3   1.81852E+3
  -1.58645E+3   2.64936E+3
  -9.18600E+2   1.22177E+3
  -1.33250E+3  -1.11817E+3
  -1.17015E+3  -2.16667E+3
   2.52068E+2   9.18913E+2
  -8.95514E+1   1.68040E+3
  -1.01697E+3  -2.08297E+3
  -1.67110E+2  -1.29354E+3
   1.35792E+3  -8.66767E+2
  -7.34010E+2   1.13361E+3
   1.01614E+3   5.35589E+2
  -9.00834E-1   2.82460E+1
   1.47551E+2   7.03291E+2
  -1.29276E+2   5.67107E+2
  -1.59281E+3   7.58348E+2
  -3.38004E+3  -7.26730E+2
   4.71731E+2  -2.14176E+3
   2.69329E+0   1.17100E+3
   1.34681E+2  -7.15831E+2
   4.02590E+2  -4.47975E+1
  -1.99016E+2  -9.11884E+2
  -7.26508E+2   9.56136E+2
  -6.04729E+2  -6.88026E+2
  -9.71629E+2   1.44788E+3
  -1.94267E+3  -1.56054E+3
  -1.22869E+3  -1.94715E+3
   2.72830E+3   3.29332E+1
   1.80065E+3   6.27939E+2
  -3.26961E+2   1.13566E+3
  -1.87445E+3   2.07832E+1
   7.61131E+2  -1.68437E+3
   5.50631E+2  -9.76017E+2
   7.86733E+2   5.86216E+2
   7.29822E+2   9.94157E+2
  -5.57817E+2  -4.70126E+2
   9.13106E+2  -9.24303E+2
  -1.51506E+3  -5.07126E+2
  -2.84504E+3   6.74080E+2
  -1.63773E+3  -1.06467E+2
   6.85574E+2   8.13301E+1
   6.73390E+1   5.33255E+2
  -6.42672E+2  -1.00739E+2
  -1.44847E+3   1.33189E+3
   9.13594E+2   4.58018E+2
  -9.25542E+1   2.75154E+2
   4.37511E+2  -3.87127E+2
  -2.43567E+3  -1.56387E+3
  -1.09454E+3  -1.48672E+3
   2.32571E+3   3.80801E+2
   1.79389E+3   7.93371E+2
  -2.46785E+3   3.42916E+3
  -1.98082E+1  -3.23358E+3
  -2.30993E+3   9.88262E+2
  -6.42011E+2  -1.03816E+3
  -3.36995E+2   1.58744E+3
  -1.13888E+3  -1.20187E+3
  -3.81259E+2  -2.43868E+2
   5.25987E+2   8.11059E+2
   1.40479E+3   1.27161E+3
  -1.18068E+3  -5.13556E+2
  -2.82991E+3  -1.02264E+3
   2.60069E+3  -2.62083E+2
   1.57660E+2   8.46927E+2
   8.38227E+1   1.88691E+3
  -1.19376E+3   2.73673E+3
  -1.83101E+3  -1.81391E+2
  -3.96690E+2   2.02417E+2
  -3.78204E+2   3.14217E+2
  -1.72834E+3   1.93212E+3
  -9.74922E+1   7.69638E+2
   1.08853E+2   9.26132E+2
   6.29319E+2   1.08422E+3
  -1.97464E+2   1.71134E+3
  -1.31410E+3  -2.23310E+3
   1.34138E+3  -1.21129E+3
   8.63828E+2  -9.94511E+2
   1.53600E+3   1.34416E+3
  -2.07234E+2   5.35600E+2
  -1.23055E+3   1.82812E+2
  -1.25730E+3   7.45923E+2
   7.53030E+2   1.89561E+2
  -6.05510E+2   1.41230E+2
  -5.29315E+2  -7.94219E+2
   9.38779E+2  -7.67978E+2
   1.67423E+3  -1.11572E+3
   7.21879E+2   4.69724E+2
   1.49946E+2   1.90752E+3
