 
 $NMID
 ID=''
 FMTDAT='(2E13.5)'
 TRAMP=   1.00000E+0
 VOLUME=   1.00000E+0
 $END
   1.53428E+2  -8.56392E+1
   1.57926E+2   1.89779E+3
   2.18169E+3  -1.49966E+3
   1.80640E+3   5.59057E+2
  -1.24243E+3  -6.36347E+2
   1.56073E+3   4.05133E+2
  -2.70690E+2   8.34915E+2
   8.84411E+1  -7.13261E+2
   1.20743E+3  -1.97594E+3
   3.59874E+3  -2.67561E+3
   2.78666E+1  -2.95509E+2
   2.79269E+3   1.99277E+3
   1.66871E+3   2.17590E+3
  -2.82811E+3   4.38248E+2
  -2.10019E+3  -2.37447E+3
   2.12128E+3  -5.94059E+3
   2.23221E+3  -3.64803E+3
   9.28035E+2  -2.72885E+2
  -3.35688E+3   1.09120E+3
  -4.26890E+3  -2.66601E+3
   4.79614E+2  -8.90768E+2
  -2.96819E+3   4.92459E+3
  -6.46135E+3   1.33544E+3
  -3.28287E+3  -2.74155E+3
   9.33247E+2  -1.82005E+3
  -5.20148E+2   2.78340E+3
  -4.39130E+3   2.53654E+3
   4.48550E+2  -2.48354E+3
   1.83622E+3  -2.71575E+3
   1.54823E+3   2.37211E+2
   3.82363E+2   7.83356E+2
  -1.43317E+3   2.36355E+3
  -6.36121E+3  -9.04686E+2
  -3.25176E+3  -2.36557E+3
  -9.06865E+2  -1.87715E+3
  -8.95015E+2  -3.27268E+3
   2.62127E+3  -3.45710E+3
   3.45050E+3  -5.98425E+1
   3.63027E+3   1.64322E+3
   3.17053E+1   1.68204E+3
  -1.64528E+3   1.90112E+3
  -4.10178E+3   3.40332E+2
  -7.75173E+2  -5.60910E+3
   5.82744E+3  -1.15084E+3
   4.12998E+3  -3.98823E+2
  -7.33800E+2   1.63896E+2
   2.50471E+3   1.96105E+3
   8.50274E+2   1.62083E+3
  -1.82467E+3   1.83504E+2
  -3.62386E+2   2.18471E+2
  -2.50315E+3   2.64853E+2
  -7.57090E+2  -1.19756E+3
   2.09226E+3   2.65887E+3
   9.71776E+2   4.77068E+3
  -1.14662E+3   3.68728E+3
   1.57980E+2   2.19194E+3
  -2.59026E+3   2.95712E+3
  -4.46704E+3  -1.64946E+3
  -1.42062E+3  -4.75985E+3
   9.65792E+2  -1.36973E+3
   4.05563E+3  -3.16256E+2
   4.30908E+3  -8.53106E+2
  -1.01162E+1   1.33338E+3
  -2.90453E+3  -3.48921E+2
  -2.52883E+2  -3.85385E+2
   2.95583E+2   2.73452E+3
   9.39140E+2   4.70342E+3
  -7.30321E+2   4.12692E+2
  -7.32472E+2  -1.25180E+3
  -9.18754E+2   2.36497E+3
   2.46728E+2   3.13881E+3
  -1.80450E+3   1.63863E+3
  -3.58932E+3   1.11160E+3
   1.35514E+3  -1.06389E+3
   6.64976E+2   2.77784E+3
   1.70376E+2   8.55923E+2
  -6.96055E+2  -4.04197E+2
   1.15845E+3  -3.62164E+2
   9.44274E+0  -7.28527E+2
   1.83523E+3   4.04215E+3
   8.33204E+2   1.93019E+3
  -1.71409E+3  -7.08881E+2
  -5.90941E+1  -1.80367E+3
  -4.60698E+2   1.90050E+3
  -1.33819E+3   1.25894E+2
  -2.25049E+3   3.62713E+2
   6.12534E+2  -2.08258E+3
   2.45421E+3  -1.36941E+3
   1.98936E+3   9.20630E+2
   8.71346E+1   2.65765E+3
  -1.61342E+3   1.56667E+3
   3.94233E+2  -8.57414E+2
  -9.63652E+2   1.55834E+3
  -8.50615E+2   1.24203E+3
  -7.85374E+2  -1.00216E+3
   9.90923E+2  -4.67769E+3
   2.73971E+3  -8.26341E+1
   8.17946E+2   3.52607E+3
  -2.44650E+3   1.54694E+3
  -2.04985E+3  -3.22258E+3
   7.24458E+2  -2.38552E+3
   3.98631E+3   2.10771E+1
   1.58060E+3   3.58146E+3
  -2.86367E+3   1.29578E+3
  -3.31951E+3   1.10886E+2
  -7.07286E+2   3.68763E+2
  -2.46726E+3   1.16451E+3
  -6.31707E+2  -8.33732E+2
  -1.99051E+3  -4.67432E+3
   6.57527E+2  -4.39321E+3
   5.27177E+3  -1.67245E+3
   2.68558E+3   2.51322E+3
   5.16290E+2   2.97253E+3
   1.80095E+3  -1.15271E+3
  -1.89596E+3  -6.96038E+2
  -1.72026E+3  -7.71658E+2
  -4.88058E+2  -2.04021E+3
  -1.23569E+3  -8.90201E+2
  -2.25844E+2  -1.16051E+3
  -1.62390E+3  -9.16151E+2
  -1.37599E+3   2.80668E+2
  -3.01078E+3  -9.27642E+1
   2.87358E+3  -1.56312E+3
   2.63404E+2  -1.09763E+3
   1.87621E+3  -9.21352E+2
   7.69586E+2  -1.00621E+3
  -2.71108E+2  -2.55168E+3
   1.68477E+3   6.02325E+2
   9.36090E+2   1.65387E+2
  -2.70565E+2  -4.56567E+2
   1.73453E+2  -4.83123E+2
   1.81064E+3  -1.40185E+3
   2.77369E+3   1.61356E+3
   1.33954E+3   9.95187E+2
   9.90573E+1   1.67914E+3
   1.76185E+2  -1.05739E+3
   1.48459E+3  -2.11634E+3
   2.44872E+3  -2.94511E+3
  -5.39626E+2   1.50074E+3
   1.04565E+3   1.08742E+3
   8.99678E+1   1.90083E+3
   4.45653E+2   5.88866E+2
   1.82755E+3   1.09374E+3
  -2.75188E+3   8.15568E+2
   5.31255E+2   8.57910E+2
   1.54223E+3   8.46299E+2
   5.32920E+2   3.16012E+2
   3.72105E+1   5.11088E+2
   2.30484E+3   2.34158E+3
  -1.46952E+3   1.37592E+2
  -1.72681E+2  -9.24181E+1
   6.62398E+2  -8.97743E+1
   8.77738E+2   1.33545E+3
   2.80304E+3  -3.17255E+2
   1.91350E+3   1.06627E+3
   7.29949E+2   1.49100E+3
  -8.76023E+2   9.52930E+2
  -5.00385E+2   8.82758E+2
   5.23263E+2  -8.09416E+2
  -1.57102E+3   8.09888E+2
   1.27590E+3   1.57834E+3
  -3.12355E+2   1.17330E+3
  -6.46575E+2  -5.65226E+2
   1.58357E+3  -5.52634E+1
   1.10384E+3  -3.13241E+2
  -1.15942E+2   6.78656E+2
  -5.92973E+2  -1.13667E+3
   4.37777E+3  -4.02295E+2
   1.69867E+3   3.52018E+3
  -6.35934E+2   1.37980E+3
  -1.07590E+3   1.55991E+2
  -8.11287E+2  -9.10740E+2
   6.37203E+2  -5.92850E+2
   2.68674E+2   1.50767E+2
   1.57022E+3   6.85760E+2
   1.82993E+3   5.50432E+2
   2.12843E+3   1.13332E+3
  -1.09557E+3   1.27582E+3
  -1.13727E+3   1.65458E+3
  -2.04498E+3   7.79863E+2
  -2.05750E+3   6.13844E+2
   1.30660E+3  -9.58079E+2
   1.11392E+3   6.09669E+2
   5.29052E+2   3.10853E+2
   1.21488E+3   7.28410E+2
   1.22217E+3   2.11339E+3
  -1.40932E+3   9.95925E+2
  -1.56542E+3   1.54065E+3
   3.57078E+2  -2.66616E+3
   1.12247E+3  -8.28409E+2
   1.03058E+3  -5.35882E+2
   2.52083E+2   2.11751E+3
   9.28969E+2  -8.81334E+2
   1.70365E+2  -1.95281E+1
   7.34024E+2  -5.44484E+2
  -6.36483E+2   7.93196E+2
  -1.37863E+3   1.95918E+3
  -1.67638E+3  -2.37555E+2
   1.40332E+3  -1.24042E+2
   1.93327E+3   9.47518E+2
  -1.27218E+3   1.68737E+3
  -2.45010E+3  -5.55554E+2
  -4.89169E+2  -1.21329E+3
  -3.56440E+2  -3.95775E+2
   5.15757E+2   4.11429E+2
   9.57534E+2   6.47112E+2
  -1.13927E+3   2.78904E+3
   5.87084E+2  -1.53833E+3
   1.44639E+3  -1.01604E+3
   7.47135E+2  -7.89405E+2
   4.08658E+2   2.82567E+2
  -5.11696E+2  -3.06079E+3
   1.21620E+3  -2.20436E+3
   6.74825E+2   5.44245E+2
  -1.21277E+2   3.23533E+3
   3.86712E+2   1.84719E+3
  -9.29528E+2  -2.87273E+2
  -1.54988E+3   1.10853E+3
   6.46853E+1  -1.62117E+2
  -8.39784E+1  -1.35489E+3
  -1.87888E+3  -2.64994E+3
   1.04720E+3   4.65572E+2
   1.31254E+2  -1.57470E+2
  -3.72063E+2   1.24123E+3
   9.30065E+2  -1.26283E+3
   8.93342E+2  -1.19606E+3
   2.59438E+3   1.36364E+3
   3.66480E+2  -4.30405E+2
  -2.30552E+3  -2.43583E+2
  -1.96831E+3  -1.18488E+3
  -1.83147E+3  -3.54314E+2
   3.85535E+0  -1.91170E+3
  -5.77036E+2   8.17849E+2
  -3.72310E+2  -1.85093E+3
   1.31538E+3   3.55599E+2
   1.20155E+3  -1.01787E+2
   1.57387E+2   1.61417E+3
  -9.17244E+2  -8.68318E+1
  -3.21486E+2  -1.26049E+3
  -1.59742E+2  -7.85584E+2
   8.78491E+2   5.13335E+2
  -1.70447E+3   3.43157E+2
  -1.81342E+3  -2.08669E+3
   7.90953E+2   2.01692E+3
  -1.94031E+3   2.80416E+2
  -8.12574E+2  -7.09143E+2
  -1.51691E+3   2.28966E+2
  -3.93863E+2  -1.61823E+3
   1.06419E+3  -3.77607E+2
   4.94208E+2   8.60862E+2
  -7.79352E+2   9.48664E+2
  -1.22061E+3  -1.16866E+3
  -4.68968E+2   1.28863E+3
  -1.87062E+2  -1.95468E+2
  -1.21233E+2   1.86713E+2
   2.59940E+2  -1.10867E+3
  -9.42536E+1  -4.43297E+2
  -1.08439E+2  -1.33292E+3
   5.67882E+2   4.30410E+2
  -9.59523E+2   5.90054E+2
  -1.62314E+3   2.01295E+1
  -1.74645E+3  -6.66684E+2
  -2.67444E+2   7.87050E+2
  -1.10731E+3  -1.17815E+3
  -1.92577E+3  -1.67000E+3
   1.19766E+3  -9.58731E+2
  -1.05863E+3   2.82295E+2
  -2.26010E+3   1.29216E+3
  -7.05349E+2  -5.22908E+2
  -7.57345E+1  -1.90496E+3
   1.32651E+3  -3.63824E+2
   1.61486E+3  -4.33620E+2
  -1.37729E+3   4.25536E+2
   5.33660E+2  -5.20314E+2
  -2.47298E+3  -6.74692E+2
   1.66442E+2  -2.66102E+2
   7.01303E+2   7.59869E+2
  -2.80425E+3  -2.20916E+2
   1.34286E+3  -1.25652E+3
  -3.62462E+1  -1.45528E+3
  -1.26481E+3  -2.11511E+2
   1.78231E+3  -1.14063E+3
  -1.53993E+3   2.29739E+2
  -1.28635E+3  -1.02204E+3
   5.78581E+2   9.60815E+2
   8.51831E+2   6.17184E+2
  -7.52987E+1   6.35041E+2
  -1.73998E+2   2.45790E+2
   4.19716E+2  -1.51348E+2
  -7.67857E+2  -4.72454E+2
   7.93655E+2  -2.11638E+2
  -3.89836E+2   1.35049E+3
  -2.02867E+3  -1.02325E+3
   5.49605E+2   1.50532E+3
   1.90803E+3   2.98833E+3
  -1.06532E+3  -4.18187E+1
  -7.11002E+2  -2.07451E+3
   1.50178E+3   2.56034E+2
   1.28909E+3   1.47221E+2
  -2.02148E+2   2.53697E+2
  -1.22631E+3   2.21894E+2
  -9.58632E+2   3.63416E+2
   7.55362E+2  -1.87671E+2
   5.64201E+2  -8.47476E+2
  -4.28379E+2  -7.42371E+1
   1.21613E+3  -1.83309E+3
  -5.53238E+2   2.15346E+2
  -4.09256E+2   1.27703E+3
   4.67659E+2  -5.21347E+2
  -9.29433E+1  -6.89723E+2
  -3.14273E+2  -9.64141E+2
   2.12886E+3  -1.34980E+3
  -1.17351E+3  -3.19069E+2
  -1.04467E+3  -8.72874E+2
  -1.00245E+3   5.05697E+2
   1.72863E+3   6.75167E+2
  -1.47229E+2   1.11621E+2
  -1.71319E+3  -5.65167E+2
   3.04021E+3  -2.11223E+3
  -8.27027E+2  -1.97274E+3
   2.81830E+3   2.19327E+2
   1.21032E+3  -1.22704E+3
   1.35094E+3   1.54057E+2
   1.42940E+3   4.32412E+2
   2.39784E+3  -1.01908E+3
  -6.60033E+2  -1.33436E+3
   6.35860E+2  -5.42370E+2
  -5.03475E+2  -3.16230E+2
   1.03274E+3  -2.14570E+3
   1.31768E+2   1.17990E+2
   1.67755E+3   2.30215E+3
  -5.99336E+2   1.26933E+1
   3.59416E+2  -9.25965E+2
  -6.31691E+2   5.18043E+1
   3.32068E+2   4.47522E+2
  -6.29287E+2   1.19007E+2
   1.06290E+3  -3.40293E+2
  -2.12289E+2   3.85181E+2
   1.39945E+3  -8.18955E+2
   3.96181E+1  -3.34126E+2
  -5.65040E+2  -8.46841E+1
  -6.98491E+2  -6.38718E+2
  -7.06683E+2   2.53238E+2
  -6.17706E+2   1.02531E+3
  -1.05387E+3   4.44114E+2
   7.25349E+1  -3.38780E+3
   1.24716E+2  -7.78026E+2
   5.53798E+2   6.43739E+2
   8.95032E+2   3.35014E+2
   9.90798E+2   2.19228E+2
   2.51839E+2  -1.77443E+3
   2.18866E+3   6.66695E+2
  -1.32136E+3   1.03949E+3
   9.40448E+2   7.52491E+2
   6.92602E+2   1.79458E+2
  -9.13564E+0   5.24665E+2
   1.15286E+3   9.95311E+2
   1.65154E+2   9.49009E+2
  -2.99376E+2  -1.18585E+2
   7.41146E+2  -1.11101E+3
   6.45083E+2  -1.01687E+3
   7.87903E+2   1.94954E+2
  -4.71515E+2   1.88327E+3
  -4.50498E+2  -1.82582E+2
  -9.29594E+2   1.25818E+3
   1.49750E+3  -2.90302E+3
  -1.47254E+3   1.81862E+3
