 
 $NMID
 ID=''
 FMTDAT='(2E13.5)'
 TRAMP=   1.00000E+0
 VOLUME=   1.00000E+0
 $END
  -9.83691E+1  -2.38510E+2
   2.47887E+3   1.96608E+3
  -1.61895E+3  -4.47545E+3
   2.11132E+3  -2.56298E+3
  -1.37782E+3  -1.96682E+3
  -2.19987E+3  -4.21235E+3
  -1.95476E+3   1.34964E+3
  -4.00524E+3   4.03887E+3
  -3.62560E+3   6.97364E+2
  -6.75711E+2   7.69301E+2
  -1.01276E+3  -1.03127E+3
   5.51917E+3  -2.76848E+3
   3.12952E+3   1.52880E+3
  -3.02174E+2   2.07866E+3
  -9.67916E+1  -5.19014E+2
  -3.26833E+1  -1.63266E+3
  -2.05916E+3  -2.91568E+3
   1.05615E+3  -1.46867E+3
  -1.15508E+3  -5.30329E+2
  -2.70970E+3  -2.05762E+3
   1.57866E+2  -2.41373E+3
   4.24705E+3   4.06550E+2
   4.29852E+2   1.91892E+3
  -4.87416E+3  -2.05645E+2
  -3.04839E+3  -2.02571E+3
   2.06738E+3  -5.57355E+2
  -7.12606E+2   1.21252E+3
  -5.64171E+3  -3.60718E+2
  -2.95229E+3  -4.01610E+3
   5.12685E+2  -5.35896E+3
   4.26448E+3  -1.79163E+3
  -5.94553E+2   3.86982E+3
  -2.33690E+3   1.09415E+3
  -1.55427E+3  -1.76324E+3
  -2.06521E+3  -1.68901E+3
  -4.05071E+3  -7.94814E+2
  -2.05644E+3  -2.85336E+3
   2.33243E+3  -3.96590E+3
   2.16399E+3   5.43525E+2
  -1.09243E+1   3.29331E+2
   7.55921E+2   3.04642E+3
  -3.10796E+3   3.62941E+3
  -4.49771E+3  -4.21407E+3
   1.33894E+3  -4.73674E+3
   3.43656E+3  -3.53614E+3
   4.37879E+3  -2.71231E+3
   3.07467E+3  -4.99728E+1
   2.95513E+3   2.02377E+3
   8.76392E+2   3.29083E+3
   2.15059E+3   2.82767E+3
   1.42938E+3   1.16157E+3
  -1.27360E+1   5.78234E+1
   1.79030E+3  -9.53488E+0
   3.68816E+3   2.41952E+3
   1.48898E+2   3.54444E+3
  -3.70574E+2   4.10051E+3
   2.42348E+2   7.16399E+3
  -5.03248E+3   4.22639E+3
  -5.04634E+3  -1.21652E+3
  -1.29516E+3  -6.72050E+3
  -2.49502E+2  -3.13639E+3
   3.90484E+3  -2.42684E+3
  -2.47650E+2   2.07237E+3
   5.65913E+1   1.41373E+2
   1.09712E+3  -1.18374E+3
   2.82529E+3   6.34740E+2
   1.84908E+3   2.10548E+3
   2.27840E+2   1.57697E+3
   1.29503E+3  -4.50860E+2
   3.62099E+3  -4.48176E+1
   3.59985E+3  -2.94552E+1
   1.61908E+3   9.23934E+2
  -4.27843E+2  -2.28694E+2
  -1.77257E+1   7.91686E+2
   2.21439E+3  -2.13109E+3
   1.95072E+3  -1.13242E+3
   1.56631E+2   2.13489E+3
  -1.94041E+3  -9.78120E+2
  -3.43651E+2  -1.30904E+3
   1.68385E+3   2.28805E+3
   5.61861E+2   2.17008E+3
  -1.34162E+3  -5.88519E+2
   8.41080E+2  -3.48725E+2
  -1.83456E+2   2.34111E+3
  -8.71129E+2   1.32845E+3
  -2.32770E+3  -5.02499E+2
  -9.59561E+2  -2.98812E+3
   8.24117E+2  -3.58023E+3
   4.12890E+3  -1.80159E+3
   8.04265E+2  -3.64988E+2
   8.25202E+2  -1.65117E+3
   1.35549E+3  -2.52058E+2
   7.81354E+2   3.09689E+3
  -3.18461E+3   1.03032E+3
  -2.81094E+3  -1.18227E+2
  -1.91302E+3  -2.23896E+3
   1.04524E+3  -3.00658E+3
   2.88772E+3   2.80582E+3
  -3.25447E+3   1.13955E+3
  -2.32295E+3  -3.18626E+2
  -2.45496E+2  -2.65184E+3
   4.56226E+3  -2.04652E+3
   1.62233E+3   1.32354E+3
   1.00769E+3   8.25604E+2
  -1.48749E+3  -8.19386E+2
  -1.07101E+3  -1.10643E+3
   1.67542E+2   2.13990E+3
  -1.36720E+3   2.56790E+3
  -1.52820E+3  -3.39556E+2
  -4.39688E-1  -2.97856E+3
   2.98406E+3  -2.65328E+3
   4.22674E+3   1.89331E+3
   1.83527E+3   2.77735E+3
  -1.40545E+3   2.88454E+3
   4.32665E+2   2.80461E+3
  -4.84863E+3   1.45166E+3
  -2.59245E+3   9.26196E+2
   6.18912E+2  -8.94045E+2
  -6.32189E+2   2.88154E+2
   1.79521E+3   1.35502E+3
  -1.32694E+3  -5.19584E+1
  -4.06309E+2   6.47753E+2
  -5.75395E+2   1.43635E+2
   1.99497E+3   1.19545E+2
   1.01373E+3   1.29228E+3
  -2.37230E+2   3.22936E+2
   3.86270E+2   9.52788E+2
   2.97634E+3   1.00039E+3
  -3.27799E+2   5.97020E+1
  -3.91980E+2   1.13564E+3
  -1.68602E+3  -1.33858E+3
  -1.36539E+3  -1.56964E+3
   6.76345E+2   1.85168E+3
   3.88046E+1   1.31346E+3
  -3.71935E+3   9.13269E+2
  -2.92017E+3   6.36955E+2
  -3.52924E+3  -1.13670E+3
  -5.43833E+2   2.57774E+2
  -7.20711E+2  -9.98550E+1
  -1.40677E+3  -2.55015E+2
  -8.81310E+2   6.78688E+2
   3.19034E+3   7.75617E+2
   1.01569E+3  -4.01248E+2
  -4.91227E+2   1.24475E+3
  -1.11542E+3   1.31193E+2
  -1.63590E+3  -1.91514E+2
   7.48260E+2   6.81342E+2
  -1.46261E+3  -2.42759E+2
   6.76220E+2   1.98783E+3
   8.25270E+2   6.98033E+2
  -2.66211E+3   2.33989E+3
  -9.50732E+2  -8.97844E+2
   6.67495E+2  -2.94528E+3
   1.28158E+3  -1.64606E+3
   3.80931E+2  -7.80120E+2
  -6.30927E+2   7.68208E+1
   4.86168E+2   1.20180E+3
  -1.21582E+3   1.64668E+3
  -1.70630E+3   2.29923E+2
  -4.61941E+2   2.31596E+3
   5.56508E+1   1.05621E+3
  -1.57629E+3   4.50332E+1
  -1.09686E+3  -1.15753E+3
   1.19625E+3  -2.13616E+2
  -1.25188E+3  -1.59405E+3
  -5.85049E+2   1.32915E+3
   6.48122E+1  -5.17104E+2
   1.84064E+3  -4.91918E+1
   1.33650E+3   1.13291E+3
  -5.33217E+1   1.67572E+3
  -6.18976E+2  -4.52905E+2
  -4.95071E+2   7.54686E+1
  -3.32374E+3  -6.14051E+2
   3.98391E+2   9.72267E+2
  -9.66859E+2  -1.84118E+3
  -7.70978E+2  -6.98866E+2
   5.95065E+2  -3.46581E+2
   1.34144E+3   8.69779E+2
   1.07869E+3   1.25581E+3
  -6.35509E+2  -9.78440E+2
  -2.69072E+3  -1.16939E+3
   1.22683E+3  -1.33711E+3
  -2.12684E+2   8.70504E+1
  -3.05082E+2  -1.36671E+3
   4.91086E+2   1.12027E+2
   7.01210E+2   1.08984E+3
  -4.43330E+2  -4.45202E+2
  -5.09890E+2  -8.87700E+1
  -1.40045E+3  -1.17086E+3
   1.29327E+3  -1.64612E+3
  -1.15669E+3  -2.75293E+2
  -4.89809E+2  -3.19835E+2
   1.74314E+3  -1.55549E+0
  -3.08463E+2  -5.15949E+2
  -8.10433E+2   8.66724E+2
  -5.52232E+2  -1.67543E+3
   2.97345E+2   1.21975E+3
   9.18101E+2   4.73507E+2
   1.73262E+3   2.04446E+2
   1.82849E+2   1.48545E+3
  -1.75430E+3  -4.12814E+2
  -1.37739E+3   2.13459E+2
  -6.27500E+2  -2.14840E+3
  -6.94246E+2  -3.26527E+2
  -3.09646E+2   2.75087E+2
   1.03348E+3   1.72114E+3
  -2.95866E+2  -1.74082E+3
   1.84460E+2   5.67997E+2
  -7.29230E+2   3.70007E+2
   1.32999E+2   4.37983E+2
  -2.30537E+3  -8.84927E+2
  -1.49147E+3  -1.48912E+3
   4.65064E+2   5.00163E+2
   1.42615E+3   1.63124E+3
  -7.61655E+2   1.85848E+3
  -1.62127E+3   2.12271E+3
  -9.20503E+2  -5.92466E+2
   1.60389E+3   1.36919E+3
  -3.01179E+2  -7.24376E+2
   1.32486E+3  -7.94422E+2
   8.71591E+2  -3.56601E+1
  -6.94577E+2   2.30488E+3
   1.13680E+3  -5.53923E+1
  -1.27015E+3   3.74852E+2
   3.67758E+2  -5.31832E+2
  -1.47203E+3   1.45902E+2
   7.72629E+2  -1.36235E+2
   1.32726E+2   6.31582E+2
  -4.18899E+2   1.01854E+2
  -7.72415E+2  -6.78017E+2
   1.06308E+1  -2.46174E+2
  -2.62567E+2   1.53809E+2
  -3.54043E+2   1.95513E+3
  -1.33907E+3  -1.33037E+2
   1.88569E+3  -8.14690E+2
   2.17213E+3   1.26238E+3
  -1.14987E+3   7.39453E+2
   1.70244E+3  -4.36926E+2
  -1.51737E+3  -1.40273E+3
   7.22239E+2  -6.53106E+2
   9.39596E+2   2.40718E+1
   7.31870E+2   2.27393E+3
   1.51486E+3  -7.84082E+1
   4.89038E+2  -1.05827E+1
   4.15798E+2  -2.82727E+2
  -2.47951E+2  -9.17485E+2
   9.82886E+2   6.64011E+2
  -8.74737E+2  -1.08877E+3
   8.11736E+2  -2.05252E+2
   1.47628E+3  -8.58082E+2
  -6.28271E+2  -6.51403E+2
   3.52612E+2  -5.67000E+2
   6.63159E+2  -9.27068E+2
   1.98487E+2  -1.71227E+3
   5.43383E+2   4.10532E+2
   1.81310E+3  -8.94937E+2
   5.72861E+2   2.48908E+2
  -7.21364E+2  -5.72757E+2
  -6.54421E+2   1.84635E+1
   3.84959E+2   2.69118E+3
   1.74496E+3  -6.38282E+2
  -1.97608E+3   2.18760E+2
  -3.48206E+1  -1.86513E+3
   1.90075E+3  -9.23119E+2
   5.39753E+2  -3.43982E+2
  -1.97744E+2  -1.69127E+3
  -8.16894E+2   7.18292E+2
   5.28741E+2  -1.36711E+3
  -3.39871E+2  -1.98874E+3
   2.76135E+2  -8.00723E+2
  -1.92731E+2  -2.23401E+3
   1.52287E+3   7.13110E+2
   1.23888E+3   1.26127E+3
  -1.64838E+3  -2.34588E+3
  -1.40338E+2  -1.55563E+3
  -5.45216E+2  -1.32784E+2
  -8.36967E+1   7.48352E+2
   2.59700E+2  -3.03769E+2
  -1.37708E+2  -7.61280E+2
   2.52397E+3  -5.81973E+2
   1.90645E+3   1.53351E+2
   6.29207E+1   5.31524E+2
  -6.50190E+2  -1.81980E+3
  -3.17798E+2   2.40270E+3
   1.48770E+3  -1.01490E+3
  -2.04548E+3   1.47334E+3
   1.58884E+3  -1.33423E+3
  -1.05562E+3  -2.07973E+3
  -2.81257E+2  -7.04668E+2
   1.68858E+3   3.34289E+2
  -3.35550E+2  -1.12871E+3
   1.14240E+2  -2.23622E+2
  -3.88666E+2   4.28151E+2
  -1.49177E+2  -1.89485E+2
  -3.24133E+1  -7.04654E+2
  -8.88546E+2  -1.62509E+3
  -2.20312E+2  -6.67491E+1
   1.70732E+3  -1.51381E+3
   3.90857E+2  -1.21141E+2
  -1.78611E+3  -1.29818E+3
  -7.88075E+1  -3.35767E+2
   1.98286E+0   4.31796E+1
   1.80952E+3   2.45396E+2
  -2.06526E+3   1.28801E+3
  -2.08615E+3   3.45131E+2
   3.59220E+2  -6.10104E+2
   9.12217E+2  -5.34255E+2
   1.67090E+3   7.38705E+2
  -1.56054E+3  -2.45060E+2
  -9.48582E+2  -1.14987E+3
   1.66282E+3  -1.71490E+3
  -9.58629E+2  -2.55852E+2
  -5.39972E+2  -7.69415E+2
   3.28899E+2  -2.80007E+2
  -1.62493E+2   1.93942E+2
   1.41519E+3  -4.88081E+2
   2.15513E+1   1.10686E+3
  -1.67287E+3   1.82174E+3
  -4.30297E+2  -3.39957E+2
   2.46536E+2  -2.00236E+3
   1.11966E+3   2.24699E+3
   1.91889E+3   4.46347E+2
  -1.71850E+3  -1.62138E+2
  -8.81336E+2  -1.51238E+3
   1.38852E+2   5.92070E+2
   6.34679E+2   1.35322E+3
  -9.25604E+2   1.43460E+3
  -1.10575E+3  -1.04659E+3
  -9.04890E+2   9.61380E+2
   1.21959E+3  -3.74857E+2
  -1.22196E+3   8.73567E+2
  -2.32827E+2  -6.79349E+2
  -7.45393E+1   6.32793E+2
  -7.93422E+2  -1.60675E+3
  -5.18958E+2  -1.22874E+3
   7.24207E+2  -8.23499E+2
   1.51130E+3   6.59232E+2
   1.08928E+3  -7.66467E+2
   1.66382E+3   2.16624E+2
   4.94375E+1  -1.06689E+3
  -2.56868E+2  -3.01975E+2
  -1.32881E+3   1.32399E+3
   1.22517E+3  -1.99377E+3
   5.78062E+2  -9.31484E+2
  -1.68297E+3   4.87734E+2
   1.17235E+3  -7.76602E+2
   2.02547E+3   8.35292E+2
  -6.51266E+2   1.97438E+3
   1.36403E+3   6.53931E+2
  -2.26198E+3  -1.17584E+3
   9.04607E+2  -6.99278E+2
  -2.53702E+3  -2.26590E+2
   3.08499E+2  -5.71238E+2
  -1.78882E+2  -1.51921E+3
   1.46507E+3   4.48847E+2
   9.20293E+2   6.07777E+2
  -1.02808E+3  -4.16614E+2
  -4.03132E+2  -9.65572E+2
  -1.58160E+3  -1.18286E+3
  -3.05972E+2  -6.30013E+2
   9.82574E+2  -4.57100E+2
  -6.96974E+2   1.08039E+3
  -1.10899E+3   4.00830E+1
  -2.79943E+1  -2.80983E+2
   1.15708E+3   1.48488E+3
   2.97544E+3   8.82858E+2
  -1.54421E+2  -1.27027E+3
