 
 $NMID
 ID=''
 FMTDAT='(2E13.5)'
 TRAMP=   1.00000E+0
 VOLUME=   1.00000E+0
 $END
  -8.17636E+3   1.90524E+4
  -3.40944E+4   4.11947E+4
  -2.61815E+4   4.63884E+4
  -2.39882E+4   4.28829E+4
  -2.59722E+4   4.37571E+4
  -2.38620E+4   4.49212E+4
  -2.31055E+4   4.30501E+4
  -2.41809E+4   4.31574E+4
  -2.27874E+4   4.39058E+4
  -2.21927E+4   4.26336E+4
  -2.28426E+4   4.25903E+4
  -2.15297E+4   4.30770E+4
  -2.09236E+4   4.23667E+4
  -2.13963E+4   4.23497E+4
  -2.04946E+4   4.25306E+4
  -1.98505E+4   4.19281E+4
  -1.99573E+4   4.18223E+4
  -1.92074E+4   4.19856E+4
  -1.85119E+4   4.14723E+4
  -1.85119E+4   4.13989E+4
  -1.77264E+4   4.13662E+4
  -1.70554E+4   4.09341E+4
  -1.69480E+4   4.09703E+4
  -1.63781E+4   4.09441E+4
  -1.57969E+4   4.04964E+4
  -1.55677E+4   4.04990E+4
  -1.51765E+4   4.04014E+4
  -1.47812E+4   4.00194E+4
  -1.47154E+4   3.98202E+4
  -1.42162E+4   3.97729E+4
  -1.37304E+4   3.95707E+4
  -1.35173E+4   3.94072E+4
  -1.33323E+4   3.93680E+4
  -1.29606E+4   3.90113E+4
  -1.26907E+4   3.88677E+4
  -1.22958E+4   3.87301E+4
  -1.19698E+4   3.83623E+4
  -1.16904E+4   3.81128E+4
  -1.12440E+4   3.79470E+4
  -1.08660E+4   3.77315E+4
  -1.05988E+4   3.74935E+4
  -1.03585E+4   3.73398E+4
  -1.00836E+4   3.69781E+4
  -9.78874E+3   3.66042E+4
  -9.29601E+3   3.64770E+4
  -8.97732E+3   3.62212E+4
  -8.75750E+3   3.59847E+4
  -8.39931E+3   3.56936E+4
  -8.11146E+3   3.54452E+4
  -7.81651E+3   3.52498E+4
  -7.52570E+3   3.50407E+4
  -7.22232E+3   3.47365E+4
  -6.95647E+3   3.44493E+4
  -6.57930E+3   3.42719E+4
  -6.32209E+3   3.40902E+4
  -6.04401E+3   3.38143E+4
  -5.83122E+3   3.35524E+4
  -5.57816E+3   3.32766E+4
  -5.34647E+3   3.30569E+4
  -5.11465E+3   3.26823E+4
  -4.70567E+3   3.24516E+4
  -4.46100E+3   3.21487E+4
  -4.22448E+3   3.18501E+4
  -3.99794E+3   3.15921E+4
  -3.77788E+3   3.13528E+4
  -3.52436E+3   3.10756E+4
  -3.24727E+3   3.08563E+4
  -2.99608E+3   3.06773E+4
  -2.82156E+3   3.03380E+4
  -2.62747E+3   3.01341E+4
  -2.26576E+3   2.98378E+4
  -2.04739E+3   2.95396E+4
  -1.91840E+3   2.92981E+4
  -1.68313E+3   2.89696E+4
  -1.47028E+3   2.88435E+4
  -1.25575E+3   2.85309E+4
  -1.08763E+3   2.82436E+4
  -8.61901E+2   2.78953E+4
  -7.07641E+2   2.76658E+4
  -4.54319E+2   2.74541E+4
  -2.56549E+2   2.72150E+4
  -6.91191E+1   2.69941E+4
   5.73013E+1   2.66957E+4
   2.06309E+2   2.64729E+4
   3.46358E+2   2.62715E+4
   4.44223E+2   2.59705E+4
   6.00164E+2   2.56699E+4
   7.57995E+2   2.53698E+4
   9.41787E+2   2.51204E+4
   1.09787E+3   2.48996E+4
   1.14695E+3   2.46248E+4
   1.30164E+3   2.43499E+4
   1.43713E+3   2.40773E+4
   1.56809E+3   2.37978E+4
   1.66792E+3   2.35183E+4
   1.77691E+3   2.32353E+4
   1.94942E+3   2.28975E+4
   2.04902E+3   2.26518E+4
   2.16529E+3   2.24649E+4
   2.21471E+3   2.20929E+4
   2.32996E+3   2.18641E+4
   2.33098E+3   2.14870E+4
   2.52902E+3   2.12343E+4
   2.69280E+3   2.10179E+4
   2.70578E+3   2.06980E+4
   2.76284E+3   2.03610E+4
   2.89766E+3   2.00690E+4
   2.92727E+3   1.96992E+4
   2.97407E+3   1.94356E+4
   3.08085E+3   1.90886E+4
   3.19182E+3   1.87880E+4
   3.34258E+3   1.84589E+4
   3.34349E+3   1.82312E+4
   3.43427E+3   1.78698E+4
   3.50685E+3   1.76405E+4
   3.59175E+3   1.73458E+4
   3.58949E+3   1.70010E+4
   3.71149E+3   1.66928E+4
   3.76126E+3   1.64174E+4
   3.75088E+3   1.60883E+4
   3.87112E+3   1.58209E+4
   3.91912E+3   1.56058E+4
   3.99143E+3   1.52398E+4
   4.06254E+3   1.50237E+4
   4.08364E+3   1.47417E+4
   4.06699E+3   1.44538E+4
   4.17560E+3   1.41903E+4
   4.19584E+3   1.39574E+4
   4.24198E+3   1.36712E+4
   4.29742E+3   1.34413E+4
   4.28845E+3   1.32068E+4
   4.35892E+3   1.29603E+4
   4.40537E+3   1.26086E+4
   4.44581E+3   1.25180E+4
   4.45224E+3   1.22950E+4
   4.49768E+3   1.20710E+4
   4.48268E+3   1.17788E+4
   4.43933E+3   1.15696E+4
   4.54145E+3   1.13196E+4
   4.52669E+3   1.11483E+4
   4.54692E+3   1.09323E+4
   4.55381E+3   1.07704E+4
   4.58133E+3   1.05493E+4
   4.52830E+3   1.03675E+4
   4.53590E+3   1.00950E+4
   4.52610E+3   9.97564E+3
   4.49051E+3   9.75894E+3
   4.50346E+3   9.61563E+3
   4.52258E+3   9.47273E+3
   4.45118E+3   9.30495E+3
   4.37774E+3   9.08918E+3
   4.41447E+3   8.91743E+3
   4.33804E+3   8.70043E+3
   4.40606E+3   8.60120E+3
   4.30539E+3   8.35214E+3
   4.29741E+3   8.26804E+3
   4.27838E+3   8.11995E+3
   4.26189E+3   7.95551E+3
   4.19256E+3   7.81260E+3
   4.07018E+3   7.69228E+3
   4.07865E+3   7.54143E+3
   4.04957E+3   7.38727E+3
   4.02025E+3   7.31032E+3
   4.01162E+3   7.17533E+3
   3.93138E+3   7.01000E+3
   3.96435E+3   6.88059E+3
   3.79865E+3   6.80584E+3
   3.81473E+3   6.60381E+3
   3.84628E+3   6.48599E+3
   3.69756E+3   6.44403E+3
   3.65212E+3   6.24844E+3
   3.61362E+3   6.19313E+3
   3.52637E+3   6.00785E+3
   3.50595E+3   5.90497E+3
   3.44115E+3   5.84277E+3
   3.32710E+3   5.70987E+3
   3.34034E+3   5.52830E+3
   3.23252E+3   5.43382E+3
   3.22653E+3   5.40541E+3
   3.17865E+3   5.21604E+3
   3.17131E+3   5.14248E+3
   3.00953E+3   5.07304E+3
   3.08165E+3   4.98809E+3
   3.00353E+3   4.90428E+3
   2.88133E+3   4.78645E+3
   2.88708E+3   4.72384E+3
   2.77923E+3   4.66391E+3
   2.78769E+3   4.53875E+3
   2.69340E+3   4.41731E+3
   2.66490E+3   4.38274E+3
   2.57364E+3   4.26429E+3
   2.62210E+3   4.20071E+3
   2.53443E+3   4.14670E+3
   2.46275E+3   4.04106E+3
   2.38899E+3   3.95730E+3
   2.31570E+3   3.89016E+3
   2.30189E+3   3.74847E+3
   2.29313E+3   3.65088E+3
   2.26602E+3   3.58979E+3
   2.19935E+3   3.54891E+3
   2.13115E+3   3.42222E+3
   2.04720E+3   3.40271E+3
   2.10990E+3   3.27095E+3
   2.00893E+3   3.21257E+3
   2.03372E+3   3.20761E+3
   1.97468E+3   3.09976E+3
   1.89337E+3   3.12153E+3
   1.87845E+3   2.98390E+3
   1.88899E+3   2.92222E+3
   1.80142E+3   2.84826E+3
   1.76406E+3   2.87321E+3
   1.72834E+3   2.75925E+3
   1.73207E+3   2.70757E+3
   1.72806E+3   2.65993E+3
   1.61840E+3   2.56944E+3
   1.61529E+3   2.52083E+3
   1.61328E+3   2.54240E+3
   1.59953E+3   2.45562E+3
   1.49373E+3   2.40387E+3
   1.48620E+3   2.29708E+3
   1.47594E+3   2.28475E+3
   1.50483E+3   2.26493E+3
   1.37818E+3   2.21401E+3
   1.35870E+3   2.14097E+3
   1.35323E+3   2.11785E+3
   1.37735E+3   2.08977E+3
   1.27643E+3   2.01023E+3
   1.27229E+3   2.02317E+3
   1.20520E+3   1.96792E+3
   1.18034E+3   1.95517E+3
   1.15340E+3   1.90619E+3
   1.14526E+3   1.85916E+3
   1.12804E+3   1.84949E+3
   1.07405E+3   1.78884E+3
   1.06278E+3   1.74766E+3
   1.03526E+3   1.75729E+3
   9.77100E+2   1.72433E+3
   1.00627E+3   1.66053E+3
   8.97337E+2   1.66320E+3
   9.32059E+2   1.56984E+3
   8.36656E+2   1.66438E+3
   8.50587E+2   1.59649E+3
   8.20165E+2   1.57263E+3
   7.78645E+2   1.58023E+3
   7.74645E+2   1.47844E+3
   7.27230E+2   1.45587E+3
   7.05143E+2   1.44986E+3
   6.88248E+2   1.39015E+3
   6.91387E+2   1.38652E+3
   6.55652E+2   1.35931E+3
   5.91989E+2   1.36602E+3
   5.64794E+2   1.33883E+3
   5.73488E+2   1.26943E+3
   4.82383E+2   1.32376E+3
   5.06076E+2   1.23708E+3
   4.52432E+2   1.25961E+3
   4.07334E+2   1.23965E+3
   3.84813E+2   1.21814E+3
   3.88540E+2   1.14396E+3
   3.40645E+2   1.15782E+3
   3.25107E+2   1.12902E+3
   2.75601E+2   1.13070E+3
   3.29097E+2   1.07952E+3
   2.27379E+2   1.01502E+3
   2.49510E+2   1.07267E+3
   2.11874E+2   1.03459E+3
   2.37243E+2   9.83232E+2
   1.70182E+2   1.05999E+3
   7.52979E+1   1.04207E+3
   1.18479E+2   9.21093E+2
   1.20430E+2   8.39845E+2
   7.82782E+1   9.12546E+2
   1.69768E+1   8.41956E+2
   9.57836E+1   8.11983E+2
   2.47732E+1   8.13956E+2
  -1.39719E+1   8.00401E+2
  -1.77417E+1   7.95036E+2
   8.50258E+0   8.21120E+2
  -6.02315E+1   7.70162E+2
  -8.47279E+1   7.65509E+2
  -6.80324E+1   6.79907E+2
  -2.81220E+1   6.82568E+2
  -1.72197E+2   7.25836E+2
  -1.88761E+2   6.91035E+2
  -1.78273E+2   6.30990E+2
  -1.42234E+2   6.96691E+2
  -1.87242E+2   6.80908E+2
  -2.05526E+2   6.25710E+2
  -1.85054E+2   5.96936E+2
  -2.17657E+2   5.83773E+2
  -2.18277E+2   5.50708E+2
  -2.02440E+2   5.95065E+2
  -2.61246E+2   6.00776E+2
  -2.74139E+2   5.50248E+2
  -2.95259E+2   4.90593E+2
  -2.82058E+2   5.40624E+2
  -3.23363E+2   5.45306E+2
  -2.92881E+2   5.10829E+2
  -2.84214E+2   5.27464E+2
  -3.68015E+2   5.34497E+2
  -3.86517E+2   5.40219E+2
  -4.12456E+2   5.31175E+2
  -4.09172E+2   5.15189E+2
  -3.83212E+2   5.11470E+2
  -3.99597E+2   4.69436E+2
  -4.18791E+2   4.50874E+2
  -4.30735E+2   4.59591E+2
  -4.72842E+2   5.38483E+2
  -5.02068E+2   4.10534E+2
  -4.39697E+2   4.70448E+2
  -4.71406E+2   4.23321E+2
  -4.15576E+2   4.12603E+2
  -4.27413E+2   4.01620E+2
  -5.15382E+2   3.95783E+2
  -5.74213E+2   3.60964E+2
  -5.52544E+2   3.64628E+2
  -5.14233E+2   4.02923E+2
  -6.27809E+2   4.08020E+2
  -6.27438E+2   3.73080E+2
  -6.37754E+2   3.43775E+2
  -5.79088E+2   3.81267E+2
  -5.99677E+2   3.51427E+2
  -6.59694E+2   3.61291E+2
  -7.04311E+2   3.62018E+2
  -6.23948E+2   2.99642E+2
  -6.45758E+2   3.03960E+2
  -7.00078E+2   2.16842E+2
  -6.91399E+2   3.55509E+2
  -7.08868E+2   2.60811E+2
  -6.99190E+2   2.42381E+2
  -7.19509E+2   2.85183E+2
  -6.86302E+2   2.83487E+2
  -7.04314E+2   2.47635E+2
  -8.07392E+2   3.08759E+2
  -7.35618E+2   2.80554E+2
  -7.55684E+2   2.42980E+2
  -7.87117E+2   2.41713E+2
  -7.98306E+2   2.09605E+2
  -7.97150E+2   2.33079E+2
  -7.87598E+2   2.58488E+2
  -8.01721E+2   2.50451E+2
  -7.42880E+2   1.46339E+2
  -8.43813E+2   2.35533E+2
  -7.91444E+2   1.97834E+2
  -8.39344E+2   1.99835E+2
  -8.56459E+2   1.35406E+2
  -8.56599E+2   2.05838E+2
  -8.50076E+2   2.26633E+2
  -8.75772E+2   8.22387E+1
  -9.38109E+2   1.91817E+2
  -8.38738E+2   1.29188E+2
  -8.04733E+2   2.10432E+2
  -8.73168E+2   2.19734E+2
  -8.86078E+2   1.70744E+2
  -8.92060E+2   1.57978E+2
  -9.02648E+2   1.70438E+2
  -9.00216E+2   1.43920E+2
  -9.10989E+2   1.38816E+2
  -9.05804E+2   8.15833E+1
  -8.80696E+2   1.07287E+2
  -9.05049E+2   1.51115E+2
  -9.11782E+2   1.45391E+2
  -8.80679E+2   2.11967E+2
  -9.22421E+2   1.36237E+2
  -8.56962E+2   6.10578E+1
  -9.54166E+2   5.94416E+1
  -9.74249E+2   2.00932E+2
