 
 $NMID
 ID=''
 FMTDAT='(2E13.5)'
 TRAMP=   1.00000E+0
 VOLUME=   1.00000E+0
 $END
  -7.11592E+3   1.87239E+4
  -3.14180E+4   4.09193E+4
  -2.38301E+4   4.54604E+4
  -2.22099E+4   4.16495E+4
  -2.47176E+4   4.25078E+4
  -2.29865E+4   4.33161E+4
  -2.27238E+4   4.13407E+4
  -2.41866E+4   4.13904E+4
  -2.32565E+4   4.18818E+4
  -2.31467E+4   4.04814E+4
  -2.40135E+4   4.02725E+4
  -2.31827E+4   4.05015E+4
  -2.30124E+4   3.95537E+4
  -2.38348E+4   3.92521E+4
  -2.33476E+4   3.91703E+4
  -2.31577E+4   3.82495E+4
  -2.37145E+4   3.80162E+4
  -2.33321E+4   3.79218E+4
  -2.31352E+4   3.72029E+4
  -2.35955E+4   3.69139E+4
  -2.32681E+4   3.66165E+4
  -2.30122E+4   3.60520E+4
  -2.32758E+4   3.58100E+4
  -2.31343E+4   3.55408E+4
  -2.29628E+4   3.49220E+4
  -2.30445E+4   3.47160E+4
  -2.29193E+4   3.43629E+4
  -2.29155E+4   3.37177E+4
  -2.31088E+4   3.33655E+4
  -2.28430E+4   3.30080E+4
  -2.25931E+4   3.25443E+4
  -2.26063E+4   3.22397E+4
  -2.25850E+4   3.19785E+4
  -2.23293E+4   3.14214E+4
  -2.22327E+4   3.11057E+4
  -2.20819E+4   3.08445E+4
  -2.18239E+4   3.04785E+4
  -2.15982E+4   3.01421E+4
  -2.13868E+4   2.99414E+4
  -2.11596E+4   2.97177E+4
  -2.10359E+4   2.94529E+4
  -2.10110E+4   2.91608E+4
  -2.08854E+4   2.87659E+4
  -2.07192E+4   2.84823E+4
  -2.05421E+4   2.83653E+4
  -2.04445E+4   2.80905E+4
  -2.04377E+4   2.78121E+4
  -2.02773E+4   2.75480E+4
  -2.02202E+4   2.73751E+4
  -2.01951E+4   2.70646E+4
  -2.00845E+4   2.68136E+4
  -2.00331E+4   2.65134E+4
  -1.98983E+4   2.63381E+4
  -1.98330E+4   2.60759E+4
  -1.96992E+4   2.59170E+4
  -1.97012E+4   2.56837E+4
  -1.96563E+4   2.54763E+4
  -1.96069E+4   2.51762E+4
  -1.95258E+4   2.48645E+4
  -1.94567E+4   2.46656E+4
  -1.93210E+4   2.44531E+4
  -1.93128E+4   2.42169E+4
  -1.92352E+4   2.40013E+4
  -1.92532E+4   2.38435E+4
  -1.91777E+4   2.35583E+4
  -1.91344E+4   2.33579E+4
  -1.91197E+4   2.31652E+4
  -1.91157E+4   2.29405E+4
  -1.89822E+4   2.26400E+4
  -1.90055E+4   2.23943E+4
  -1.90136E+4   2.21568E+4
  -1.89926E+4   2.18840E+4
  -1.88818E+4   2.16161E+4
  -1.88581E+4   2.14572E+4
  -1.87616E+4   2.10980E+4
  -1.87053E+4   2.08101E+4
  -1.86240E+4   2.06025E+4
  -1.86263E+4   2.03786E+4
  -1.84946E+4   2.00870E+4
  -1.84156E+4   1.98547E+4
  -1.83265E+4   1.96279E+4
  -1.82729E+4   1.94174E+4
  -1.81816E+4   1.90716E+4
  -1.81192E+4   1.88476E+4
  -1.80808E+4   1.86201E+4
  -1.79780E+4   1.83164E+4
  -1.79261E+4   1.79936E+4
  -1.77840E+4   1.77364E+4
  -1.77055E+4   1.75233E+4
  -1.76621E+4   1.73570E+4
  -1.75725E+4   1.71279E+4
  -1.74341E+4   1.69056E+4
  -1.73370E+4   1.66837E+4
  -1.71438E+4   1.64976E+4
  -1.70780E+4   1.61635E+4
  -1.69753E+4   1.60086E+4
  -1.68399E+4   1.58083E+4
  -1.66828E+4   1.56159E+4
  -1.66714E+4   1.53528E+4
  -1.66225E+4   1.51142E+4
  -1.64427E+4   1.48898E+4
  -1.62357E+4   1.47801E+4
  -1.61399E+4   1.46024E+4
  -1.60719E+4   1.43902E+4
  -1.59160E+4   1.41956E+4
  -1.58131E+4   1.40364E+4
  -1.57270E+4   1.38453E+4
  -1.55756E+4   1.37106E+4
  -1.54544E+4   1.35379E+4
  -1.53781E+4   1.33140E+4
  -1.51559E+4   1.31913E+4
  -1.51026E+4   1.30640E+4
  -1.50334E+4   1.28855E+4
  -1.49050E+4   1.27462E+4
  -1.48293E+4   1.25752E+4
  -1.47142E+4   1.24304E+4
  -1.46081E+4   1.22075E+4
  -1.44506E+4   1.20999E+4
  -1.44274E+4   1.20018E+4
  -1.42807E+4   1.17262E+4
  -1.42755E+4   1.17034E+4
  -1.41491E+4   1.15562E+4
  -1.39477E+4   1.13352E+4
  -1.39577E+4   1.12687E+4
  -1.37378E+4   1.10999E+4
  -1.37248E+4   1.08559E+4
  -1.35843E+4   1.07217E+4
  -1.34821E+4   1.05883E+4
  -1.33669E+4   1.04286E+4
  -1.32743E+4   1.03112E+4
  -1.31407E+4   1.01463E+4
  -1.30811E+4   9.98814E+3
  -1.29960E+4   9.84466E+3
  -1.28774E+4   9.77274E+3
  -1.27414E+4   9.66132E+3
  -1.27278E+4   9.49551E+3
  -1.25830E+4   9.28850E+3
  -1.24517E+4   9.23326E+3
  -1.22968E+4   9.06526E+3
  -1.22305E+4   8.87356E+3
  -1.21130E+4   8.84222E+3
  -1.20616E+4   8.71662E+3
  -1.18698E+4   8.50799E+3
  -1.18047E+4   8.44175E+3
  -1.16819E+4   8.31696E+3
  -1.15318E+4   8.14930E+3
  -1.15050E+4   8.09386E+3
  -1.13759E+4   7.96517E+3
  -1.12573E+4   7.85219E+3
  -1.11371E+4   7.70662E+3
  -1.10533E+4   7.59792E+3
  -1.09588E+4   7.46479E+3
  -1.08247E+4   7.41767E+3
  -1.07209E+4   7.26686E+3
  -1.05835E+4   7.22135E+3
  -1.04468E+4   7.13384E+3
  -1.03772E+4   7.05665E+3
  -1.02749E+4   6.90136E+3
  -1.02044E+4   6.88226E+3
  -1.00517E+4   6.74179E+3
  -9.94711E+3   6.72220E+3
  -9.87234E+3   6.69119E+3
  -9.71608E+3   6.52131E+3
  -9.63002E+3   6.50368E+3
  -9.51798E+3   6.40821E+3
  -9.45441E+3   6.34100E+3
  -9.37349E+3   6.25220E+3
  -9.22589E+3   6.15618E+3
  -9.12710E+3   6.09277E+3
  -9.08029E+3   6.05748E+3
  -8.92075E+3   6.04768E+3
  -8.89210E+3   5.92877E+3
  -8.80735E+3   5.82357E+3
  -8.72988E+3   5.79405E+3
  -8.59552E+3   5.65596E+3
  -8.55972E+3   5.68542E+3
  -8.44552E+3   5.65853E+3
  -8.27911E+3   5.56473E+3
  -8.27566E+3   5.53674E+3
  -8.21325E+3   5.38998E+3
  -8.16788E+3   5.41332E+3
  -7.96581E+3   5.28466E+3
  -7.88292E+3   5.24764E+3
  -7.88184E+3   5.20374E+3
  -7.81584E+3   5.16210E+3
  -7.71917E+3   5.01455E+3
  -7.63043E+3   4.99516E+3
  -7.56452E+3   4.88050E+3
  -7.53199E+3   4.90262E+3
  -7.41282E+3   4.81587E+3
  -7.30572E+3   4.74935E+3
  -7.20776E+3   4.74105E+3
  -7.18763E+3   4.71598E+3
  -7.04676E+3   4.63601E+3
  -7.04775E+3   4.50813E+3
  -6.93729E+3   4.49057E+3
  -6.84456E+3   4.48378E+3
  -6.78448E+3   4.39915E+3
  -6.69727E+3   4.35673E+3
  -6.59896E+3   4.31413E+3
  -6.58448E+3   4.26547E+3
  -6.51254E+3   4.12835E+3
  -6.37946E+3   4.09553E+3
  -6.34847E+3   4.01748E+3
  -6.23014E+3   3.96766E+3
  -6.16713E+3   3.95856E+3
  -6.04321E+3   3.95540E+3
  -6.00816E+3   3.88508E+3
  -5.87440E+3   3.82919E+3
  -5.85906E+3   3.79898E+3
  -5.74705E+3   3.70504E+3
  -5.75902E+3   3.61125E+3
  -5.63689E+3   3.62047E+3
  -5.61919E+3   3.54085E+3
  -5.54118E+3   3.59183E+3
  -5.44771E+3   3.50414E+3
  -5.32595E+3   3.47961E+3
  -5.32883E+3   3.41971E+3
  -5.22924E+3   3.39464E+3
  -5.19802E+3   3.37774E+3
  -5.09040E+3   3.36893E+3
  -4.94054E+3   3.29293E+3
  -4.93697E+3   3.27049E+3
  -4.94820E+3   3.24203E+3
  -4.88299E+3   3.13489E+3
  -4.79129E+3   3.19471E+3
  -4.71209E+3   3.09953E+3
  -4.67563E+3   3.07564E+3
  -4.53690E+3   3.05206E+3
  -4.52120E+3   2.94343E+3
  -4.48472E+3   2.97437E+3
  -4.44560E+3   2.91762E+3
  -4.34407E+3   2.88058E+3
  -4.32891E+3   2.82558E+3
  -4.26101E+3   2.75464E+3
  -4.24445E+3   2.78163E+3
  -4.14316E+3   2.79758E+3
  -4.07236E+3   2.66133E+3
  -3.98622E+3   2.66184E+3
  -4.04639E+3   2.67022E+3
  -3.89653E+3   2.61685E+3
  -3.90006E+3   2.56948E+3
  -3.84119E+3   2.49245E+3
  -3.78375E+3   2.46542E+3
  -3.76456E+3   2.40795E+3
  -3.72165E+3   2.43263E+3
  -3.53738E+3   2.41312E+3
  -3.60431E+3   2.35470E+3
  -3.47739E+3   2.32567E+3
  -3.42345E+3   2.28008E+3
  -3.41029E+3   2.29854E+3
  -3.39713E+3   2.23533E+3
  -3.30520E+3   2.19359E+3
  -3.30689E+3   2.18485E+3
  -3.24377E+3   2.17633E+3
  -3.14139E+3   2.08149E+3
  -3.03532E+3   2.09373E+3
  -3.05033E+3   2.00139E+3
  -3.06361E+3   2.03655E+3
  -2.99245E+3   1.95637E+3
  -2.90862E+3   1.95560E+3
  -2.82483E+3   1.93262E+3
  -2.81226E+3   1.90301E+3
  -2.76526E+3   1.88065E+3
  -2.71279E+3   1.81322E+3
  -2.63108E+3   1.83725E+3
  -2.66176E+3   1.80442E+3
  -2.52017E+3   1.81421E+3
  -2.55409E+3   1.67446E+3
  -2.52694E+3   1.75756E+3
  -2.41803E+3   1.72429E+3
  -2.37239E+3   1.70201E+3
  -2.33561E+3   1.63757E+3
  -2.37067E+3   1.61731E+3
  -2.26657E+3   1.67057E+3
  -2.24597E+3   1.55302E+3
  -2.22056E+3   1.53841E+3
  -2.16468E+3   1.46143E+3
  -2.13158E+3   1.48191E+3
  -2.03600E+3   1.52216E+3
  -2.02288E+3   1.42042E+3
  -2.00534E+3   1.45600E+3
  -1.93712E+3   1.42737E+3
  -1.91186E+3   1.39501E+3
  -1.89181E+3   1.36458E+3
  -1.86492E+3   1.36145E+3
  -1.78904E+3   1.32733E+3
  -1.76393E+3   1.33296E+3
  -1.69522E+3   1.26384E+3
  -1.74529E+3   1.27775E+3
  -1.67156E+3   1.18045E+3
  -1.62191E+3   1.22202E+3
  -1.58626E+3   1.17979E+3
  -1.58880E+3   1.19832E+3
  -1.53633E+3   1.20592E+3
  -1.50714E+3   1.10246E+3
  -1.46933E+3   1.09958E+3
  -1.44551E+3   1.08766E+3
  -1.37384E+3   1.10451E+3
  -1.40036E+3   1.04819E+3
  -1.31653E+3   1.01977E+3
  -1.30554E+3   1.07849E+3
  -1.30605E+3   1.06489E+3
  -1.19655E+3   1.03270E+3
  -1.22598E+3   9.67256E+2
  -1.11698E+3   9.49606E+2
  -1.13832E+3   9.78948E+2
  -1.08138E+3   1.01100E+3
  -1.01475E+3   9.39661E+2
  -9.59512E+2   9.34385E+2
  -1.01168E+3   9.71738E+2
  -9.29132E+2   9.55536E+2
  -8.88143E+2   9.25450E+2
  -9.15566E+2   9.27533E+2
  -8.50081E+2   8.91160E+2
  -8.65173E+2   9.17726E+2
  -8.87888E+2   8.70255E+2
  -8.45701E+2   8.93094E+2
  -7.22802E+2   8.36987E+2
  -7.85153E+2   8.71917E+2
  -7.27526E+2   8.74747E+2
  -6.81642E+2   8.50628E+2
  -6.71252E+2   8.31897E+2
  -5.89897E+2   8.53499E+2
  -6.36528E+2   8.23162E+2
  -5.87855E+2   7.49546E+2
  -5.06047E+2   8.62164E+2
  -5.86661E+2   8.45942E+2
  -5.24695E+2   7.77528E+2
  -4.62377E+2   8.28443E+2
  -4.36773E+2   7.94940E+2
  -4.85517E+2   7.22311E+2
  -4.48939E+2   7.72110E+2
  -4.13275E+2   7.40378E+2
  -4.13674E+2   7.90735E+2
  -3.94265E+2   7.00778E+2
  -2.92366E+2   7.73971E+2
  -3.02493E+2   6.89303E+2
  -3.46559E+2   6.67595E+2
  -3.10974E+2   6.98301E+2
  -2.20927E+2   6.39083E+2
  -2.87931E+2   6.63811E+2
  -1.49443E+2   6.83642E+2
  -1.67660E+2   5.88631E+2
  -1.64143E+2   6.97354E+2
  -1.70815E+2   7.13397E+2
  -1.58648E+2   6.25271E+2
  -8.54669E+1   6.49467E+2
  -1.44016E+2   6.29476E+2
  -5.75539E+1   6.74403E+2
  -3.75612E+1   6.19283E+2
  -4.11729E+1   6.29538E+2
   5.37480E+1   6.05584E+2
  -2.76658E+1   6.68068E+2
  -1.79782E+1   6.39885E+2
   6.47351E+1   6.57250E+2
   1.92348E+1   6.59064E+2
   8.19321E+1   6.04987E+2
   1.06323E+2   6.17296E+2
   1.03960E+2   6.50098E+2
   8.85235E+1   6.66218E+2
   1.48581E+2   6.24261E+2
   1.52893E+2   6.56666E+2
   1.88353E+2   6.34413E+2
   1.68832E+2   6.04400E+2
   2.11716E+2   6.23280E+2
   2.13538E+2   6.20183E+2
