 LCModel (Version 6.3-1N) Copyright: S.W. Provencher.          Ref.: Magn. Reson. Med. 30:672-679 (1993).                
 Slice_N1@22_10  02-Jun-2023 14:37:16
 27 lines in following concentration table = NCONC+1
    Conc.  %SD /Cr+PCr  Metabolite                                         
 3.03E-06  14% 2.2E-04 Mac                                                 
 5.82E-02  31%   4.150 Cr                                                  
 5.40E-02  33%   3.850 PCr                                                 
 8.55E-02  13%   6.101 Ins                                                 
    0.165   6%  11.785 NAA                                                 
 7.74E-02  13%   5.521 Tau                                                 
    0.000 999%   0.000 PCho                                                
 1.87E-02  14%   1.333 GPC                                                 
    0.132   9%   9.400 Glu                                                 
 4.31E-02  21%   3.074 Gln                                                 
    0.000 999%   0.000 Ala                                                 
 6.13E-02  27%   4.376 Asc                                                 
 4.28E-02  30%   3.050 Asp                                                 
 1.00E-02  67%   0.713 GABA                                                
 1.30E-02  71%   0.929 Glc                                                 
 1.56E-02  39%   1.109 GSH                                                 
    0.000 999%   0.000 Lac                                                 
    0.000 999%   0.000 NAAG                                                
    0.000 999%   0.000 PE                                                  
 1.87E-02  14%   1.333 GPC+PCho                                            
    0.165   6%  11.785 NAA+NAAG                                            
    0.175   9%  12.474 Glu+Gln                                             
    0.112   8%   8.000 Cr+PCr                                              
    0.165   6%  11.785 NAA+NAAG                                            
    0.112   8%   8.000 Cr+PCr                                              
    0.175   9%  12.474 Glu+Gln                                             
   6 lines in following misc. output table
  FWHM = 0.041 ppm    S/N =   5                                            
  Data shift = 0.047 ppm                                                   
  Ph: -71 deg     -13.3 deg/ppm                                            
  alphaB,S = 2.4E-01,   2.1E+01                                            
   18 spline knots.   Ns = 7(1)                                            
  (10) 5 infls.   ( 2) 2 extrs.                                            
  654 points on ppm-axis = NY
      4.000000     3.994181     3.988363     3.982544     3.976726     3.970907     3.965088     3.959270     3.953451     3.947633
      3.941814     3.935995     3.930177     3.924358     3.918540     3.912721     3.906902     3.901084     3.895265     3.889446
      3.883628     3.877809     3.871991     3.866172     3.860353     3.854535     3.848716     3.842898     3.837079     3.831260
      3.825442     3.819623     3.813805     3.807986     3.802167     3.796349     3.790530     3.784712     3.778893     3.773074
      3.767256     3.761437     3.755619     3.749800     3.743981     3.738163     3.732344     3.726526     3.720707     3.714888
      3.709070     3.703251     3.697433     3.691614     3.685795     3.679977     3.674158     3.668339     3.662521     3.656702
      3.650884     3.645065     3.639246     3.633428     3.627609     3.621791     3.615972     3.610153     3.604335     3.598516
      3.592698     3.586879     3.581060     3.575242     3.569423     3.563605     3.557786     3.551967     3.546149     3.540330
      3.534512     3.528693     3.522874     3.517056     3.511237     3.505419     3.499600     3.493781     3.487963     3.482144
      3.476326     3.470507     3.464688     3.458870     3.453051     3.447232     3.441414     3.435595     3.429777     3.423958
      3.418139     3.412321     3.406502     3.400684     3.394865     3.389046     3.383228     3.377409     3.371591     3.365772
      3.359953     3.354135     3.348316     3.342498     3.336679     3.330860     3.325042     3.319223     3.313405     3.307586
      3.301767     3.295949     3.290130     3.284312     3.278493     3.272674     3.266856     3.261037     3.255219     3.249400
      3.243581     3.237763     3.231944     3.226125     3.220307     3.214488     3.208670     3.202851     3.197032     3.191214
      3.185395     3.179577     3.173758     3.167939     3.162121     3.156302     3.150484     3.144665     3.138846     3.133028
      3.127209     3.121391     3.115572     3.109753     3.103935     3.098116     3.092298     3.086479     3.080660     3.074842
      3.069023     3.063205     3.057386     3.051567     3.045749     3.039930     3.034111     3.028293     3.022474     3.016656
      3.010837     3.005018     2.999200     2.993381     2.987563     2.981744     2.975925     2.970107     2.964288     2.958470
      2.952651     2.946832     2.941014     2.935195     2.929377     2.923558     2.917739     2.911921     2.906102     2.900284
      2.894465     2.888646     2.882828     2.877009     2.871191     2.865372     2.859553     2.853735     2.847916     2.842098
      2.836279     2.830460     2.824642     2.818823     2.813004     2.807186     2.801367     2.795549     2.789730     2.783911
      2.778093     2.772274     2.766456     2.760637     2.754818     2.749000     2.743181     2.737363     2.731544     2.725725
      2.719907     2.714088     2.708270     2.702451     2.696632     2.690814     2.684995     2.679177     2.673358     2.667539
      2.661721     2.655902     2.650084     2.644265     2.638446     2.632628     2.626809     2.620991     2.615172     2.609353
      2.603535     2.597716     2.591897     2.586079     2.580260     2.574442     2.568623     2.562804     2.556986     2.551167
      2.545349     2.539530     2.533711     2.527893     2.522074     2.516256     2.510437     2.504618     2.498800     2.492981
      2.487163     2.481344     2.475525     2.469707     2.463888     2.458070     2.452251     2.446432     2.440614     2.434795
      2.428977     2.423158     2.417339     2.411521     2.405702     2.399884     2.394065     2.388246     2.382428     2.376609
      2.370790     2.364972     2.359153     2.353335     2.347516     2.341697     2.335879     2.330060     2.324242     2.318423
      2.312604     2.306786     2.300967     2.295149     2.289330     2.283511     2.277693     2.271874     2.266056     2.260237
      2.254418     2.248600     2.242781     2.236963     2.231144     2.225325     2.219507     2.213688     2.207870     2.202051
      2.196232     2.190414     2.184595     2.178777     2.172958     2.167139     2.161321     2.155502     2.149683     2.143865
      2.138046     2.132228     2.126409     2.120590     2.114772     2.108953     2.103135     2.097316     2.091497     2.085679
      2.079860     2.074042     2.068223     2.062404     2.056586     2.050767     2.044949     2.039130     2.033311     2.027493
      2.021674     2.015856     2.010037     2.004218     1.998400     1.992581     1.986763     1.980944     1.975126     1.969307
      1.963489     1.957670     1.951852     1.946033     1.940215     1.934397     1.928578     1.922760     1.916941     1.911123
      1.905304     1.899486     1.893667     1.887849     1.882030     1.876212     1.870393     1.864575     1.858756     1.852938
      1.847119     1.841301     1.835482     1.829664     1.823845     1.818027     1.812208     1.806390     1.800571     1.794753
      1.788934     1.783116     1.777297     1.771479     1.765660     1.759842     1.754023     1.748205     1.742386     1.736568
      1.730749     1.724931     1.719113     1.713294     1.707476     1.701657     1.695839     1.690020     1.684202     1.678383
      1.672565     1.666746     1.660928     1.655109     1.649291     1.643472     1.637654     1.631835     1.626017     1.620198
      1.614380     1.608561     1.602743     1.596924     1.591106     1.585287     1.579469     1.573650     1.567832     1.562013
      1.556195     1.550376     1.544558     1.538739     1.532921     1.527102     1.521284     1.515465     1.509647     1.503829
      1.498010     1.492192     1.486373     1.480555     1.474736     1.468918     1.463099     1.457281     1.451462     1.445644
      1.439825     1.434007     1.428188     1.422370     1.416551     1.410733     1.404914     1.399096     1.393277     1.387459
      1.381640     1.375822     1.370003     1.364185     1.358366     1.352548     1.346729     1.340911     1.335092     1.329274
      1.323455     1.317637     1.311818     1.306000     1.300182     1.294363     1.288545     1.282726     1.276908     1.271089
      1.265271     1.259452     1.253634     1.247815     1.241997     1.236178     1.230360     1.224541     1.218723     1.212904
      1.207086     1.201267     1.195449     1.189630     1.183812     1.177993     1.172175     1.166356     1.160538     1.154719
      1.148901     1.143082     1.137264     1.131445     1.125627     1.119808     1.113990     1.108171     1.102353     1.096534
      1.090716     1.084898     1.079079     1.073261     1.067442     1.061624     1.055805     1.049987     1.044168     1.038350
      1.032531     1.026713     1.020894     1.015076     1.009257     1.003439     0.997620     0.991802     0.985983     0.980165
      0.974346     0.968528     0.962709     0.956891     0.951072     0.945254     0.939435     0.933617     0.927798     0.921980
      0.916161     0.910343     0.904524     0.898706     0.892887     0.887069     0.881251     0.875432     0.869614     0.863795
      0.857977     0.852158     0.846340     0.840521     0.834703     0.828884     0.823066     0.817247     0.811429     0.805610
      0.799792     0.793973     0.788155     0.782336     0.776518     0.770699     0.764881     0.759062     0.753244     0.747425
      0.741607     0.735788     0.729970     0.724151     0.718333     0.712514     0.706696     0.700877     0.695059     0.689240
      0.683422     0.677603     0.671785     0.665967     0.660148     0.654330     0.648511     0.642693     0.636874     0.631056
      0.625237     0.619419     0.613600     0.607782     0.601963     0.596145     0.590326     0.584508     0.578689     0.572871
      0.567052     0.561234     0.555415     0.549597     0.543778     0.537960     0.532141     0.526323     0.520504     0.514686
      0.508867     0.503049     0.497230     0.491412     0.485593     0.479775     0.473956     0.468138     0.462319     0.456501
      0.450682     0.444864     0.439045     0.433227     0.427408     0.421590     0.415771     0.409953     0.404134     0.398316
      0.392497     0.386679     0.380860     0.375042     0.369223     0.363405     0.357586     0.351767     0.345949     0.340130
      0.334312     0.328493     0.322675     0.316856     0.311038     0.305219     0.299401     0.293582     0.287764     0.281945
      0.276127     0.270308     0.264490     0.258671     0.252853     0.247034     0.241216     0.235397     0.229579     0.223760
      0.217942     0.212123     0.206305     0.200486
 NY phased data points follow
  -1.43222E-01 -8.99306E-02 -5.44217E-01 -2.55311E-01 -2.45990E-01 -2.28116E-01  6.22286E-02 -3.80276E-01  1.80605E-01  2.41157E-03
   5.14938E-01  6.15819E-01  3.79080E-01  7.56426E-01  7.88757E-01  6.38994E-01  4.65461E-01  7.72462E-01  1.07834E-01  2.35870E-01
   2.97232E-02 -1.90124E-01  1.38949E-01 -9.65688E-02 -1.59729E-01 -4.45825E-01 -1.85021E-01 -1.49735E-02 -6.42020E-02 -9.80800E-02
  -3.52053E-02 -3.68606E-01 -5.78032E-01 -3.10865E-01 -7.01589E-01 -7.29126E-01 -5.32920E-01 -8.01872E-01 -5.50664E-01  4.88293E-02
   6.90489E-02  8.16166E-02 -2.81810E-02  2.67500E-01  6.10829E-01  2.50822E-01  3.39324E-01  3.29428E-01  4.14896E-01  3.53314E-01
   3.00717E-01  3.28480E-01  2.85932E-01  3.71496E-01  1.42498E-01  2.70823E-02 -4.22987E-01 -7.28524E-02 -2.59478E-01 -4.76421E-01
   3.12759E-04 -3.22793E-01 -6.41453E-03 -6.97282E-02 -3.78607E-02  2.37773E-02 -1.34637E-01  2.05902E-01  2.01361E-01  4.33557E-03
   1.40254E-01  7.63370E-01  4.56227E-01 -2.97012E-01  1.14370E-01  3.17600E-02 -4.77949E-01 -4.74965E-01 -2.19632E-01  2.61443E-02
  -1.60626E-01  2.13583E-01  7.38997E-02  1.66922E-01  4.50294E-01  2.97404E-01  3.73371E-01  5.73327E-01  7.47826E-01  3.05984E-01
   6.28181E-01  5.78356E-04 -2.95482E-01 -3.38409E-03 -4.37928E-01 -5.97738E-02  2.23690E-01 -9.49159E-02 -2.30552E-01 -1.07820E-01
  -4.28399E-01 -5.11861E-02 -6.21379E-02  5.81667E-02  3.75610E-01  1.20594E-01  3.04191E-01  6.82093E-01  4.72043E-01  2.03308E-01
   6.17067E-01  1.98317E-01  3.45255E-01  2.76720E-01  2.74392E-01  1.39570E-01 -1.51791E-01  3.44982E-01 -1.92014E-01  2.51186E-01
   2.31453E-01  1.93146E-01  1.49958E-01 -2.94326E-01 -3.45311E-02 -6.64938E-01 -4.30388E-01 -6.16256E-01 -6.42711E-01 -6.19747E-01
  -9.54825E-01 -7.04934E-01 -1.21537E+00 -9.29874E-01 -8.59130E-01 -7.86403E-01 -5.66367E-01 -5.40761E-01 -3.26539E-01 -3.41628E-01
  -2.45188E-01 -8.45477E-03 -1.64084E-02 -1.31869E-01 -5.74351E-02 -3.03074E-01  2.61789E-01  2.86595E-01  2.61353E-01  1.09769E-01
   1.02102E-01  6.27997E-01  3.51455E-01  3.37151E-01  3.71258E-01  5.72039E-01  2.41107E-01  4.04625E-01  4.43986E-01  6.04480E-01
   7.61364E-01  7.20412E-01  7.74509E-01  4.80051E-01  6.85618E-01  6.55904E-01  5.48856E-01 -2.81473E-01 -4.49643E-01 -8.44710E-01
  -1.06890E+00 -1.15566E+00 -1.32408E+00 -8.53511E-01 -9.57830E-01 -1.00468E+00 -7.76511E-01 -2.87938E-01 -6.14693E-01 -3.68283E-01
  -3.80910E-01 -3.85363E-01 -2.43215E-01 -3.28987E-01 -2.62458E-01 -5.25282E-01 -5.86286E-01 -5.53597E-01 -2.91205E-01 -4.68739E-01
  -1.63405E-01 -3.52126E-01 -4.79120E-01 -1.63577E-01  2.49961E-03 -2.16436E-01 -9.14216E-02  1.79562E-01  5.78438E-02  1.67474E-01
  -2.14302E-01  4.21888E-01  2.21878E-01  5.87692E-02  4.56150E-01  2.26265E-01  1.63372E-01  3.26859E-01  2.90904E-01 -2.27474E-01
  -1.03462E-01 -3.19021E-02  1.34435E-01 -4.12121E-01 -4.84920E-01  2.49055E-01 -2.97655E-01 -4.10944E-01 -2.03777E-02 -2.16580E-02
   8.75615E-02  1.10918E-01  2.54991E-01  6.58595E-02 -2.35792E-02  4.43164E-01  7.08080E-01  6.26285E-01  7.70506E-01  8.74802E-01
   4.31824E-01  5.98083E-01  2.77775E-01  2.11221E-02  9.05395E-02  1.05155E-01 -2.50935E-02 -1.30615E-01 -8.96204E-02 -5.46679E-01
  -1.62840E-01 -4.12321E-01 -6.20207E-01 -1.43258E-01 -1.79807E-01 -3.66111E-01  7.36328E-02  1.46010E-01 -4.16813E-02 -3.48022E-02
   1.27761E-01  3.31932E-01 -4.70733E-01  1.84573E-01  2.48616E-01 -2.13056E-01 -2.10392E-02  5.76230E-03  1.75528E-01 -3.32672E-03
   4.43570E-01  2.65831E-01  3.38831E-02  1.51991E-01  1.97440E-01  1.29589E-01  1.27288E-01  3.81766E-01  3.16411E-01  3.63947E-01
   1.91225E-01  1.81290E-01  3.97122E-01  1.34364E-01  2.07610E-01 -3.70595E-02 -5.62028E-01 -2.30861E-01 -1.28353E-01 -3.96938E-01
  -4.57861E-01 -3.78180E-01 -3.75309E-01 -1.67544E-01  1.50360E-01  4.65362E-01  4.13004E-01  5.99970E-01  8.05685E-01  6.81589E-01
   9.60089E-01  9.20591E-01  5.08170E-01  4.89854E-02  3.46958E-01  2.07616E-01  4.71685E-01  6.76726E-01  2.43745E-01  3.42650E-01
   2.15941E-01  4.75990E-01  3.82651E-01  4.54549E-01  5.53392E-01  5.78481E-01  5.52239E-01  5.95423E-01  4.06275E-01  3.88120E-01
   4.92929E-01  1.46342E-01  4.29168E-01 -7.67648E-02 -8.82255E-02 -2.04321E-01 -3.92677E-01 -1.50200E-01 -4.31442E-01 -5.35402E-01
  -6.24783E-01 -2.83327E-01 -3.35184E-01 -5.28841E-01 -2.64694E-01  2.40064E-02 -2.70298E-02  2.07032E-01  3.28187E-01  1.29892E-01
  -1.13125E-01 -8.69486E-02  2.12536E-01  3.01517E-01  8.93145E-02 -7.76343E-01 -5.07648E-01 -5.96126E-01 -9.25088E-01 -8.96652E-01
  -1.62150E+00 -1.80788E+00 -1.83205E+00 -2.37707E+00 -2.47493E+00 -1.43327E+00 -1.19522E+00 -4.11493E-01  3.56030E-02 -1.13691E-01
   3.98446E-01  1.47800E-01  4.36817E-01  3.88431E-01  4.73329E-01  3.21184E-01  1.09465E-01  2.43628E-01  1.87946E-01  2.72668E-01
  -6.66271E-02  2.93866E-01  3.24579E-02  1.03821E-01  6.86805E-01  1.26777E-01  3.10368E-02  4.32435E-01  1.63300E-01  7.61439E-02
   2.42342E-01  8.94345E-02  3.18642E-01  1.79372E-01  4.11528E-01  4.17417E-01 -3.76325E-02  2.01858E-01  1.63421E-01  2.74324E-01
   4.23419E-01  2.46319E-01  4.40551E-01  3.38493E-01  1.17304E-01  1.74118E-01  1.94196E-01  5.42356E-01  2.39363E-01  3.27380E-01
   3.97081E-01  2.75868E-01  4.69718E-01  1.29504E-01  1.59997E-01  2.26552E-02  3.74337E-01  1.92092E-01  3.68456E-02  2.01146E-02
  -1.49070E-01  1.13174E-01 -3.41659E-01 -8.01370E-02 -7.23572E-02 -8.56613E-02 -2.29052E-01 -4.63904E-02  2.02524E-01 -3.06242E-01
  -1.61937E-01 -3.63433E-01 -2.07577E-01 -2.85599E-01 -2.10847E-01  2.06657E-01 -1.88655E-02  7.65070E-04  1.98043E-01 -4.20037E-02
  -3.87155E-01 -1.31560E-01  7.29167E-03  1.01009E-02 -1.93657E-01 -2.49935E-02 -2.37946E-01 -2.47826E-01  3.47161E-01 -3.34407E-01
  -1.50592E-01  3.08870E-01  1.76087E-01  4.37386E-02 -1.78255E-01 -1.46939E-01 -5.20896E-01 -2.26404E-01 -1.15854E-02 -6.21124E-02
   2.75516E-01  1.41516E-01 -5.59114E-03  1.69283E-01  6.22726E-02 -2.59782E-01  3.15554E-01  5.15106E-02 -2.30481E-01  4.53170E-01
   2.61989E-01  2.21901E-01  1.07290E-01 -1.84333E-01 -3.77490E-01 -2.90494E-01 -3.25170E-01 -1.14094E-01  2.33143E-01 -2.64056E-01
  -4.19379E-02  8.53406E-03 -1.82321E-01 -3.45602E-02 -6.55314E-02 -1.88146E-01  1.03854E-02  2.59541E-01 -3.41250E-01 -1.25309E-01
   2.17050E-01 -1.20379E-01  2.62855E-01  1.13684E-01 -2.77477E-01 -2.03314E-01 -3.61808E-01 -3.90435E-02 -2.62564E-02 -2.18915E-01
   6.30945E-02  5.11530E-02  1.65572E-01  3.07115E-01  2.90923E-01  3.04680E-01 -6.36458E-02  9.43643E-02  4.34461E-01 -6.34262E-02
  -2.04671E-02  7.44614E-02  2.14807E-01  2.52409E-01 -2.99137E-01 -1.02241E-01 -9.33093E-02 -2.40768E-01 -4.79221E-02 -1.24697E-01
  -3.73888E-02  1.83997E-02  1.04820E-01  2.94767E-01  2.78890E-01  4.10723E-01  1.29723E-01 -6.16712E-02  1.69800E-01  2.45097E-01
   4.99494E-01  3.43934E-01 -8.75756E-02  7.61332E-02  8.23607E-02 -5.78107E-02  8.63292E-02 -1.11624E-01  8.84209E-02  2.03256E-01
  -2.23649E-01 -2.88395E-01 -7.48446E-02 -3.06588E-01 -4.89931E-01 -5.05091E-01 -4.06149E-01 -4.94754E-01 -1.16533E+00 -7.13225E-01
  -4.75623E-01 -4.40776E-01 -5.71390E-01 -3.73159E-01 -2.57450E-01 -5.45744E-01  2.39036E-01 -3.98317E-02  4.90605E-02  2.70399E-03
  -1.76985E-03 -7.60433E-02 -5.17721E-01 -1.40573E-01 -2.68551E-01 -1.48736E-01  3.02445E-01  6.50429E-01  3.17547E-01  4.53681E-01
   3.64961E-01  1.81821E-02 -5.94627E-03 -5.05917E-02  2.65280E-01  1.48045E-01  2.60903E-01  7.26210E-02  9.85243E-02  1.80875E-01
   9.46449E-02  2.00705E-01  1.26670E-01  5.14664E-01  2.91125E-01  1.64254E-01  3.58244E-01 -2.88908E-02  5.88640E-02  8.38352E-02
   3.70476E-02 -5.59557E-03 -1.19239E-01  3.95805E-01  3.62636E-01 -9.17508E-02  2.08787E-02 -3.29105E-02 -2.81315E-01 -2.51455E-01
   1.47748E-01  1.66234E-01 -1.70200E-01  2.55777E-01  1.58057E-01  1.57748E-01  3.03439E-01 -1.42727E-01  7.89448E-02  2.59611E-01
   8.38739E-02 -8.30941E-02  3.18309E-01  2.10884E-01 -1.93711E-01  4.33665E-02  1.04399E-01 -9.88387E-02  1.48941E-01  2.33125E-01
  -2.07613E-01  1.07354E-01  6.87365E-02  1.18354E-01  4.43335E-01  2.23474E-01  7.80679E-03  5.97472E-02  2.24061E-02  4.31088E-02
   2.34219E-01 -2.00956E-03 -8.85096E-02 -3.72053E-02  5.20713E-01  5.26297E-01 -8.25796E-02  1.67702E-01 -7.80542E-02 -3.56119E-02
   4.77934E-01  4.98072E-02  1.23007E-01 -1.15022E-01 -8.72940E-02  2.57630E-01 -2.02304E-01  1.70264E-01  1.43993E-01  1.05215E-01
   4.23614E-02 -1.84320E-01  2.58572E-01  5.34496E-02 -1.56854E-01  1.21338E-01 -2.21352E-01 -5.51600E-02  1.05529E-01 -1.62681E-01
   1.02500E-01 -2.89659E-01  2.19875E-02  1.83219E-01  1.87530E-03 -1.29643E-01 -1.30003E-01  2.46635E-01 -1.84540E-01 -9.98184E-02
  -9.83811E-02  1.18184E-01  2.28827E-02 -2.30739E-01
 NY points of the fit to the data follow
   1.49858E-02 -1.53512E-02 -5.40885E-02 -8.95581E-02 -1.14799E-01 -1.17725E-01 -5.81408E-02 -9.18327E-03  6.03166E-02  1.74513E-01
   3.19630E-01  4.42817E-01  5.28743E-01  6.73984E-01  7.34410E-01  6.90019E-01  6.47297E-01  5.41164E-01  3.57325E-01  2.04255E-01
   4.16179E-02 -5.76363E-02 -1.46548E-01 -2.28905E-01 -2.42904E-01 -2.76598E-01 -3.05717E-01 -3.33460E-01 -3.53536E-01 -3.74808E-01
  -3.99853E-01 -4.28726E-01 -4.57760E-01 -4.80203E-01 -4.93445E-01 -4.91574E-01 -4.77016E-01 -4.24902E-01 -3.41381E-01 -2.18371E-01
  -6.88953E-02  8.81602E-02  2.45543E-01  3.71269E-01  4.70277E-01  5.21901E-01  5.30137E-01  5.04911E-01  4.38473E-01  3.41479E-01
   2.51040E-01  1.45229E-01  6.51854E-02  4.54919E-03 -5.24990E-02 -9.11850E-02 -1.33988E-01 -1.48176E-01 -1.66278E-01 -1.86454E-01
  -1.84910E-01 -1.89194E-01 -1.96404E-01 -1.99616E-01 -1.40233E-01 -6.36588E-02  1.12048E-02  1.44057E-01  2.58583E-01  3.07018E-01
   3.39427E-01  3.10659E-01  2.37840E-01  1.27399E-01 -7.11453E-03 -8.63750E-02 -1.81072E-01 -2.69161E-01 -3.06967E-01 -2.92754E-01
  -2.63097E-01 -1.92174E-01 -4.09537E-02  1.10303E-01  2.34500E-01  3.51700E-01  4.12902E-01  4.11087E-01  3.69038E-01  2.99616E-01
   2.36891E-01  1.53707E-01  7.12800E-02 -6.54617E-03 -7.51511E-02 -1.51689E-01 -2.11060E-01 -2.64961E-01 -2.87025E-01 -2.68083E-01
  -2.02961E-01 -9.42751E-02  4.18105E-02  1.69885E-01  2.74446E-01  3.35900E-01  3.52329E-01  3.50829E-01  3.25444E-01  3.13085E-01
   3.00376E-01  2.96741E-01  2.93344E-01  2.89310E-01  2.84995E-01  2.79863E-01  2.62132E-01  2.49591E-01  2.31368E-01  1.93026E-01
   1.49698E-01  8.01331E-02  1.63000E-02 -1.16518E-01 -2.07168E-01 -3.19800E-01 -4.16242E-01 -5.18399E-01 -6.45984E-01 -7.60744E-01
  -8.26356E-01 -8.31504E-01 -8.48312E-01 -8.48843E-01 -8.18682E-01 -7.94919E-01 -7.74837E-01 -6.16898E-01 -4.63834E-01 -2.71567E-01
  -9.76791E-02  2.48472E-02  1.21730E-01  1.29606E-01  1.36308E-01  1.58598E-01  1.82323E-01  2.04988E-01  2.27006E-01  2.48574E-01
   2.70015E-01  2.92478E-01  3.15794E-01  3.41297E-01  3.70154E-01  4.03196E-01  4.41654E-01  4.88454E-01  5.48542E-01  6.31727E-01
   7.58163E-01  8.12973E-01  7.77278E-01  7.27595E-01  6.84090E-01  5.42920E-01  2.54039E-01 -6.03430E-02 -4.40906E-01 -8.84833E-01
  -1.15732E+00 -1.22013E+00 -1.15741E+00 -9.72166E-01 -7.61696E-01 -5.61496E-01 -4.50937E-01 -4.40664E-01 -4.20324E-01 -3.92537E-01
  -3.73411E-01 -3.49371E-01 -3.30864E-01 -3.14503E-01 -3.00718E-01 -2.85066E-01 -2.74481E-01 -2.61916E-01 -2.48051E-01 -2.33086E-01
  -2.14882E-01 -1.98408E-01 -1.78755E-01 -1.61486E-01 -1.41000E-01 -1.17220E-01 -9.32583E-02 -7.40098E-02 -5.54758E-02 -3.31343E-02
  -5.67242E-03  1.39753E-02  2.48311E-02  2.70111E-02  2.21559E-02  1.45237E-02  1.61488E-03 -1.07993E-02 -2.48251E-02 -5.06446E-02
  -7.52188E-02 -9.28302E-02 -1.06400E-01 -1.08463E-01 -1.02495E-01 -8.90954E-02 -7.58571E-02 -6.65136E-02 -4.01118E-02 -4.14425E-04
   5.31530E-02  1.03080E-01  1.69965E-01  2.77428E-01  3.96168E-01  4.97257E-01  5.67252E-01  6.19561E-01  6.33000E-01  5.89858E-01
   5.38748E-01  4.70378E-01  3.47707E-01  2.19796E-01  9.77076E-02 -9.65634E-03 -8.70389E-02 -1.38588E-01 -1.44354E-01 -1.36290E-01
  -1.39204E-01 -1.43226E-01 -1.49982E-01 -1.53754E-01 -1.59322E-01 -1.63038E-01 -1.69425E-01 -1.77325E-01 -1.87047E-01 -2.03908E-01
  -2.04558E-01 -2.06929E-01 -2.16264E-01 -2.06305E-01 -1.85077E-01 -1.28334E-01 -8.86644E-02 -1.49500E-02  7.58780E-02  1.42857E-01
   2.13457E-01  2.53976E-01  2.96125E-01  3.16811E-01  3.14225E-01  3.21734E-01  3.37361E-01  3.13153E-01  3.12702E-01  2.82937E-01
   2.54419E-01  2.00801E-01  1.28761E-01  6.57690E-02 -2.03812E-02 -1.03373E-01 -1.94326E-01 -2.72305E-01 -3.37568E-01 -3.76056E-01
  -3.90132E-01 -3.60385E-01 -2.92771E-01 -1.59877E-01  1.27726E-02  2.17761E-01  4.40841E-01  6.10506E-01  7.19078E-01  7.60497E-01
   7.17917E-01  6.45442E-01  5.62257E-01  4.90186E-01  4.57074E-01  4.31977E-01  4.32255E-01  4.32433E-01  4.27478E-01  4.21712E-01
   4.07898E-01  3.96687E-01  3.80876E-01  3.67170E-01  3.52991E-01  3.37722E-01  3.20965E-01  3.00840E-01  2.75785E-01  2.45357E-01
   2.05725E-01  1.56325E-01  9.64392E-02  2.72814E-02 -5.10994E-02 -1.38509E-01 -2.24492E-01 -3.09898E-01 -3.80564E-01 -4.35146E-01
  -4.54830E-01 -4.46911E-01 -4.01860E-01 -3.33190E-01 -2.45936E-01 -1.49682E-01 -6.31312E-02  1.58777E-02  6.64711E-02  9.34830E-02
   8.83157E-02  5.62687E-02  1.57196E-02 -3.16373E-02 -6.83421E-02 -1.34732E-01 -4.48546E-01 -6.37699E-01 -8.43708E-01 -1.03192E+00
  -1.47714E+00 -1.80405E+00 -2.00314E+00 -2.23094E+00 -2.14307E+00 -1.62309E+00 -1.10539E+00 -5.65667E-01 -1.14818E-01  9.32485E-02
   2.36097E-01  7.47056E-02  5.87707E-02  6.33179E-02  7.03111E-02  7.51991E-02  7.70118E-02  7.71490E-02  7.30762E-02  6.92502E-02
   6.23862E-02  5.65342E-02  5.17184E-02  4.91757E-02  5.02912E-02  5.61227E-02  6.43291E-02  7.61702E-02  8.76618E-02  9.85054E-02
   1.09364E-01  1.16357E-01  1.23668E-01  1.28532E-01  1.33143E-01  1.36983E-01  1.40763E-01  1.44363E-01  1.47823E-01  1.51183E-01
   1.53895E-01  1.56717E-01  1.59193E-01  1.61597E-01  1.63971E-01  1.66022E-01  1.68190E-01  1.69689E-01  1.71246E-01  1.72673E-01
   1.73736E-01  1.73894E-01  1.73101E-01  1.70447E-01  1.66407E-01  1.61002E-01  1.54737E-01  1.47580E-01  1.39790E-01  1.31696E-01
   1.22719E-01  1.13018E-01  1.03030E-01  9.30536E-02  8.29406E-02  7.35684E-02  6.48568E-02  5.67989E-02  4.89958E-02  4.20750E-02
   3.56824E-02  2.97124E-02  2.43203E-02  1.96629E-02  1.50275E-02  1.08112E-02  6.99339E-03  3.60243E-03  9.38732E-04 -1.13973E-03
  -1.99478E-03 -1.97521E-03 -9.44956E-04  1.32253E-03  4.58081E-03  7.98886E-03  1.24375E-02  1.75723E-02  2.28785E-02  2.84918E-02
   3.38998E-02  3.95243E-02  4.52750E-02  5.19641E-02  5.99500E-02  6.93272E-02  7.95426E-02  9.08753E-02  1.02760E-01  1.15381E-01
   1.28612E-01  1.42360E-01  1.56699E-01  1.70309E-01  1.83623E-01  1.95243E-01  2.05344E-01  2.13287E-01  2.18875E-01  2.21787E-01
   2.22035E-01  2.19423E-01  2.14936E-01  2.08291E-01  2.00180E-01  1.90265E-01  1.78532E-01  1.65256E-01  1.50935E-01  1.36107E-01
   1.21819E-01  1.07906E-01  9.49231E-02  8.30996E-02  7.18873E-02  6.16796E-02  5.23263E-02  4.40760E-02  3.69057E-02  3.12833E-02
   2.64829E-02  2.31170E-02  2.09484E-02  2.04055E-02  2.14098E-02  2.40587E-02  2.83688E-02  3.33201E-02  3.91250E-02  4.55590E-02
   5.17750E-02  5.79596E-02  6.39680E-02  6.94670E-02  7.39719E-02  7.74088E-02  8.00223E-02  8.20181E-02  8.33475E-02  8.41084E-02
   8.42980E-02  8.33898E-02  8.15664E-02  7.84777E-02  7.45962E-02  7.01240E-02  6.53151E-02  6.03044E-02  5.55656E-02  5.07349E-02
   4.57719E-02  4.10120E-02  3.61697E-02  3.14469E-02  2.62128E-02  2.14406E-02  1.68212E-02  1.19080E-02  7.03904E-03  2.08823E-03
  -3.51412E-03 -9.86605E-03 -1.74068E-02 -2.63435E-02 -3.70387E-02 -4.95232E-02 -6.29785E-02 -7.82177E-02 -9.51958E-02 -1.13894E-01
  -1.33918E-01 -1.55030E-01 -1.76606E-01 -1.97723E-01 -2.17043E-01 -2.34389E-01 -2.49551E-01 -2.62198E-01 -2.71744E-01 -2.77950E-01
  -2.81285E-01 -2.80940E-01 -2.77500E-01 -2.71607E-01 -2.64156E-01 -2.54589E-01 -2.44028E-01 -2.33191E-01 -2.22250E-01 -2.10589E-01
  -1.98840E-01 -1.86983E-01 -1.74152E-01 -1.60632E-01 -1.46654E-01 -1.32290E-01 -1.17510E-01 -1.03407E-01 -9.00350E-02 -7.72222E-02
  -6.44405E-02 -5.30041E-02 -4.23465E-02 -3.22952E-02 -2.29540E-02 -1.45020E-02 -7.09670E-03 -1.86556E-04  6.08685E-03  1.10889E-02
   1.56604E-02  2.00196E-02  2.29277E-02  2.56195E-02  2.81965E-02  3.01220E-02  3.19019E-02  3.36480E-02  3.53054E-02  3.68566E-02
   3.86576E-02  4.09732E-02  4.30697E-02  4.48339E-02  4.66889E-02  4.78054E-02  4.81151E-02  4.78623E-02  4.75650E-02  4.71233E-02
   4.65395E-02  4.64608E-02  4.64501E-02  4.62142E-02  4.57438E-02  4.56316E-02  4.59175E-02  4.56536E-02  4.48282E-02  4.42185E-02
   4.32337E-02  4.15551E-02  4.04335E-02  3.97237E-02  3.95936E-02  3.92814E-02  3.90024E-02  3.88630E-02  3.87051E-02  3.85085E-02
   3.91229E-02  4.03609E-02  4.17760E-02  4.32578E-02  4.46903E-02  4.60841E-02  4.67967E-02  4.77811E-02  4.83793E-02  4.88615E-02
   4.91234E-02  4.92061E-02  4.90778E-02  4.86955E-02  4.90638E-02  5.01198E-02  5.15714E-02  5.33901E-02  5.53482E-02  5.71912E-02
   5.87533E-02  6.01571E-02  6.21797E-02  6.36147E-02  6.45614E-02  6.51025E-02  6.49955E-02  6.50056E-02  6.52692E-02  6.57538E-02
   6.67336E-02  6.75477E-02  6.84287E-02  6.96532E-02  7.03312E-02  7.14378E-02  7.30713E-02  7.48828E-02  7.67937E-02  7.90115E-02
   8.15129E-02  8.41569E-02  8.71868E-02  9.04766E-02  9.41146E-02  9.83724E-02  1.02997E-01  1.08113E-01  1.14093E-01  1.19899E-01
   1.25697E-01  1.31404E-01  1.37165E-01  1.43494E-01
 NY background values follow
    -1.132E-01   -1.122E-01   -1.113E-01   -1.103E-01   -1.093E-01   -1.084E-01   -1.074E-01   -1.064E-01   -1.055E-01   -1.045E-01
    -1.035E-01   -1.026E-01   -1.016E-01   -1.006E-01   -9.967E-02   -9.871E-02   -9.775E-02   -9.679E-02   -9.583E-02   -9.487E-02
    -9.392E-02   -9.296E-02   -9.201E-02   -9.105E-02   -9.010E-02   -8.915E-02   -8.820E-02   -8.725E-02   -8.630E-02   -8.536E-02
    -8.441E-02   -8.347E-02   -8.253E-02   -8.159E-02   -8.065E-02   -7.972E-02   -7.878E-02   -7.785E-02   -7.692E-02   -7.599E-02
    -7.507E-02   -7.414E-02   -7.322E-02   -7.230E-02   -7.138E-02   -7.047E-02   -6.955E-02   -6.864E-02   -6.773E-02   -6.683E-02
    -6.592E-02   -6.502E-02   -6.412E-02   -6.323E-02   -6.233E-02   -6.144E-02   -6.055E-02   -5.966E-02   -5.878E-02   -5.790E-02
    -5.702E-02   -5.614E-02   -5.526E-02   -5.439E-02   -5.352E-02   -5.266E-02   -5.179E-02   -5.093E-02   -5.008E-02   -4.922E-02
