 LCModel (Version 6.3-1N) Copyright: S.W. Provencher.          Ref.: Magn. Reson. Med. 30:672-679 (1993).                
 Slice_N1@21_18  02-Jun-2023 14:37:45
 27 lines in following concentration table = NCONC+1
    Conc.  %SD /Cr+PCr  Metabolite                                         
 2.35E-06  14% 2.6E-04 Mac                                                 
 3.98E-02  27%   4.397 Cr                                                  
 3.26E-02  33%   3.603 PCr                                                 
 6.93E-02  13%   7.648 Ins                                                 
 8.99E-02   8%   9.924 NAA                                                 
 5.92E-02  14%   6.531 Tau                                                 
 1.25E-02  17%   1.378 PCho                                                
    0.000 999%   0.000 GPC                                                 
 7.10E-02  14%   7.833 Glu                                                 
 2.44E-02  28%   2.694 Gln                                                 
 7.98E-04 949% 8.8E-02 Ala                                                 
 1.77E-02  72%   1.957 Asc                                                 
 1.20E-02  59%   1.321 Asp                                                 
 4.93E-03  78%   0.544 GABA                                                
 7.95E-03  58%   0.877 Glc                                                 
 1.06E-02  37%   1.166 GSH                                                 
    0.000 999%   0.000 Lac                                                 
    0.000 999%   0.000 NAAG                                                
    0.000 999%   0.000 PE                                                  
 1.25E-02  17%   1.378 GPC+PCho                                            
 8.99E-02   8%   9.924 NAA+NAAG                                            
 9.54E-02  12%  10.527 Glu+Gln                                             
 7.25E-02   9%   8.000 Cr+PCr                                              
 8.99E-02   8%   9.924 NAA+NAAG                                            
 7.25E-02   9%   8.000 Cr+PCr                                              
 9.54E-02  12%  10.527 Glu+Gln                                             
   6 lines in following misc. output table
  FWHM = 0.023 ppm    S/N =   4                                            
  Data shift = 0.012 ppm                                                   
  Ph:  -3 deg     -13.0 deg/ppm                                            
  alphaB,S = 7.1E-01,   2.2E+01                                            
   18 spline knots.   Ns = 7(1)                                            
  ( 5) 3 infls.   ( 1) 1 extrs.                                            
  654 points on ppm-axis = NY
      4.000000     3.994181     3.988363     3.982544     3.976726     3.970907     3.965088     3.959270     3.953451     3.947633
      3.941814     3.935995     3.930177     3.924358     3.918540     3.912721     3.906902     3.901084     3.895265     3.889446
      3.883628     3.877809     3.871991     3.866172     3.860353     3.854535     3.848716     3.842898     3.837079     3.831260
      3.825442     3.819623     3.813805     3.807986     3.802167     3.796349     3.790530     3.784712     3.778893     3.773074
      3.767256     3.761437     3.755619     3.749800     3.743981     3.738163     3.732344     3.726526     3.720707     3.714888
      3.709070     3.703251     3.697433     3.691614     3.685795     3.679977     3.674158     3.668339     3.662521     3.656702
      3.650884     3.645065     3.639246     3.633428     3.627609     3.621791     3.615972     3.610153     3.604335     3.598516
      3.592698     3.586879     3.581060     3.575242     3.569423     3.563605     3.557786     3.551967     3.546149     3.540330
      3.534512     3.528693     3.522874     3.517056     3.511237     3.505419     3.499600     3.493781     3.487963     3.482144
      3.476326     3.470507     3.464688     3.458870     3.453051     3.447232     3.441414     3.435595     3.429777     3.423958
      3.418139     3.412321     3.406502     3.400684     3.394865     3.389046     3.383228     3.377409     3.371591     3.365772
      3.359953     3.354135     3.348316     3.342498     3.336679     3.330860     3.325042     3.319223     3.313405     3.307586
      3.301767     3.295949     3.290130     3.284312     3.278493     3.272674     3.266856     3.261037     3.255219     3.249400
      3.243581     3.237763     3.231944     3.226125     3.220307     3.214488     3.208670     3.202851     3.197032     3.191214
      3.185395     3.179577     3.173758     3.167939     3.162121     3.156302     3.150484     3.144665     3.138846     3.133028
      3.127209     3.121391     3.115572     3.109753     3.103935     3.098116     3.092298     3.086479     3.080660     3.074842
      3.069023     3.063205     3.057386     3.051567     3.045749     3.039930     3.034111     3.028293     3.022474     3.016656
      3.010837     3.005018     2.999200     2.993381     2.987563     2.981744     2.975925     2.970107     2.964288     2.958470
      2.952651     2.946832     2.941014     2.935195     2.929377     2.923558     2.917739     2.911921     2.906102     2.900284
      2.894465     2.888646     2.882828     2.877009     2.871191     2.865372     2.859553     2.853735     2.847916     2.842098
      2.836279     2.830460     2.824642     2.818823     2.813004     2.807186     2.801367     2.795549     2.789730     2.783911
      2.778093     2.772274     2.766456     2.760637     2.754818     2.749000     2.743181     2.737363     2.731544     2.725725
      2.719907     2.714088     2.708270     2.702451     2.696632     2.690814     2.684995     2.679177     2.673358     2.667539
      2.661721     2.655902     2.650084     2.644265     2.638446     2.632628     2.626809     2.620991     2.615172     2.609353
      2.603535     2.597716     2.591897     2.586079     2.580260     2.574442     2.568623     2.562804     2.556986     2.551167
      2.545349     2.539530     2.533711     2.527893     2.522074     2.516256     2.510437     2.504618     2.498800     2.492981
      2.487163     2.481344     2.475525     2.469707     2.463888     2.458070     2.452251     2.446432     2.440614     2.434795
      2.428977     2.423158     2.417339     2.411521     2.405702     2.399884     2.394065     2.388246     2.382428     2.376609
      2.370790     2.364972     2.359153     2.353335     2.347516     2.341697     2.335879     2.330060     2.324242     2.318423
      2.312604     2.306786     2.300967     2.295149     2.289330     2.283511     2.277693     2.271874     2.266056     2.260237
      2.254418     2.248600     2.242781     2.236963     2.231144     2.225325     2.219507     2.213688     2.207870     2.202051
      2.196232     2.190414     2.184595     2.178777     2.172958     2.167139     2.161321     2.155502     2.149683     2.143865
      2.138046     2.132228     2.126409     2.120590     2.114772     2.108953     2.103135     2.097316     2.091497     2.085679
      2.079860     2.074042     2.068223     2.062404     2.056586     2.050767     2.044949     2.039130     2.033311     2.027493
      2.021674     2.015856     2.010037     2.004218     1.998400     1.992581     1.986763     1.980944     1.975126     1.969307
      1.963489     1.957670     1.951852     1.946033     1.940215     1.934397     1.928578     1.922760     1.916941     1.911123
      1.905304     1.899486     1.893667     1.887849     1.882030     1.876212     1.870393     1.864575     1.858756     1.852938
      1.847119     1.841301     1.835482     1.829664     1.823845     1.818027     1.812208     1.806390     1.800571     1.794753
      1.788934     1.783116     1.777297     1.771479     1.765660     1.759842     1.754023     1.748205     1.742386     1.736568
      1.730749     1.724931     1.719113     1.713294     1.707476     1.701657     1.695839     1.690020     1.684202     1.678383
      1.672565     1.666746     1.660928     1.655109     1.649291     1.643472     1.637654     1.631835     1.626017     1.620198
      1.614380     1.608561     1.602743     1.596924     1.591106     1.585287     1.579469     1.573650     1.567832     1.562013
      1.556195     1.550376     1.544558     1.538739     1.532921     1.527102     1.521284     1.515465     1.509647     1.503829
      1.498010     1.492192     1.486373     1.480555     1.474736     1.468918     1.463099     1.457281     1.451462     1.445644
      1.439825     1.434007     1.428188     1.422370     1.416551     1.410733     1.404914     1.399096     1.393277     1.387459
      1.381640     1.375822     1.370003     1.364185     1.358366     1.352548     1.346729     1.340911     1.335092     1.329274
      1.323455     1.317637     1.311818     1.306000     1.300182     1.294363     1.288545     1.282726     1.276908     1.271089
      1.265271     1.259452     1.253634     1.247815     1.241997     1.236178     1.230360     1.224541     1.218723     1.212904
      1.207086     1.201267     1.195449     1.189630     1.183812     1.177993     1.172175     1.166356     1.160538     1.154719
      1.148901     1.143082     1.137264     1.131445     1.125627     1.119808     1.113990     1.108171     1.102353     1.096534
      1.090716     1.084898     1.079079     1.073261     1.067442     1.061624     1.055805     1.049987     1.044168     1.038350
      1.032531     1.026713     1.020894     1.015076     1.009257     1.003439     0.997620     0.991802     0.985983     0.980165
      0.974346     0.968528     0.962709     0.956891     0.951072     0.945254     0.939435     0.933617     0.927798     0.921980
      0.916161     0.910343     0.904524     0.898706     0.892887     0.887069     0.881251     0.875432     0.869614     0.863795
      0.857977     0.852158     0.846340     0.840521     0.834703     0.828884     0.823066     0.817247     0.811429     0.805610
      0.799792     0.793973     0.788155     0.782336     0.776518     0.770699     0.764881     0.759062     0.753244     0.747425
      0.741607     0.735788     0.729970     0.724151     0.718333     0.712514     0.706696     0.700877     0.695059     0.689240
      0.683422     0.677603     0.671785     0.665967     0.660148     0.654330     0.648511     0.642693     0.636874     0.631056
      0.625237     0.619419     0.613600     0.607782     0.601963     0.596145     0.590326     0.584508     0.578689     0.572871
      0.567052     0.561234     0.555415     0.549597     0.543778     0.537960     0.532141     0.526323     0.520504     0.514686
      0.508867     0.503049     0.497230     0.491412     0.485593     0.479775     0.473956     0.468138     0.462319     0.456501
      0.450682     0.444864     0.439045     0.433227     0.427408     0.421590     0.415771     0.409953     0.404134     0.398316
      0.392497     0.386679     0.380860     0.375042     0.369223     0.363405     0.357586     0.351767     0.345949     0.340130
      0.334312     0.328493     0.322675     0.316856     0.311038     0.305219     0.299401     0.293582     0.287764     0.281945
      0.276127     0.270308     0.264490     0.258671     0.252853     0.247034     0.241216     0.235397     0.229579     0.223760
      0.217942     0.212123     0.206305     0.200486
 NY phased data points follow
  -4.42944E-02 -1.12367E-01 -2.46109E-01 -2.06871E-02 -1.63357E-01 -1.49919E-01 -8.42322E-02 -7.45952E-02 -1.14083E-01  2.58029E-01
   5.28046E-02  3.79386E-02  5.80010E-01  2.91202E-01  2.29361E-01  2.25970E-01  4.20543E-01  5.96008E-01  1.02719E-01  1.24214E-01
   1.57431E-01 -7.08737E-03 -1.60751E-02 -1.02628E-01  2.93200E-03  7.49990E-02  1.17844E-01 -1.23312E-02  2.66746E-02  8.17581E-03
  -1.19414E-01 -1.68904E-02  9.40332E-02 -1.85714E-01 -3.30165E-01 -1.49564E-01 -6.78933E-01 -4.16772E-01 -4.61859E-01 -3.26932E-01
  -1.63013E-02 -5.16617E-02  1.34416E-01  1.56575E-01  5.53302E-01  7.65718E-02  3.07164E-01  2.21634E-01  3.84316E-01  2.51863E-01
  -1.60293E-01  2.70105E-01  4.58529E-02  4.24034E-01 -2.03725E-01  4.23715E-02 -9.21944E-02 -1.65467E-01  1.47017E-01 -4.76694E-01
  -8.12267E-02 -3.39701E-01 -8.32380E-02 -1.99270E-01 -1.53459E-01 -1.29970E-01 -1.71444E-01  3.19150E-01 -1.92262E-01  1.27131E-01
   1.09348E-01  1.30702E-01  4.46084E-01  7.78665E-02 -8.63010E-02 -4.32677E-03 -1.25077E-01 -2.75983E-01 -1.69150E-01 -3.87903E-01
  -3.73632E-01 -3.15208E-01 -6.45051E-02  2.18459E-01  2.21134E-01  2.00142E-01  1.74202E-01  2.45540E-01  2.08495E-01  4.45456E-01
   2.05691E-01  2.37439E-01  2.41302E-01  3.04660E-02  3.77356E-02 -2.83234E-02  2.48492E-02 -1.13404E-01 -1.66879E-02 -1.62371E-01
  -1.45358E-02 -2.28352E-01 -5.42558E-02  1.91619E-01 -1.49065E-01  1.17394E-01  1.83834E-01  3.64512E-01  8.78023E-02  2.74715E-01
   2.28563E-01  1.98963E-01  3.69498E-01  6.30653E-02  2.25577E-01  2.61353E-01  2.41353E-01  1.05568E-01  3.27763E-01  3.14033E-01
   2.16347E-01  1.18390E-01  3.70852E-01  2.65141E-01 -7.29823E-02  9.73408E-02 -2.93938E-01 -1.11446E-01 -1.68298E-01 -3.82975E-01
  -5.13093E-01 -5.49723E-01 -6.38446E-01 -5.47703E-01 -3.18436E-01 -4.47404E-01 -2.20726E-01 -4.65520E-01 -6.98192E-01 -6.86444E-01
  -3.07842E-01 -9.31379E-02 -4.41510E-03  5.02652E-02 -1.80225E-01  1.35927E-01  9.99599E-02 -8.91512E-02  1.79107E-01  1.96910E-01
  -1.85027E-02  7.52114E-02  1.16385E-01  2.39848E-01  1.06272E-01  2.01941E-01  4.35011E-01  2.54244E-01  4.66723E-01  5.16827E-01
   6.35449E-01  6.64438E-01  4.95013E-01  4.53668E-01  5.00012E-01  4.98659E-01  6.24522E-01  6.25888E-01 -1.14827E-01 -6.73952E-01
  -8.04957E-01 -5.19014E-01 -7.75443E-01 -6.99253E-01 -3.16224E-01 -8.66663E-01 -5.92049E-01 -2.06767E-01 -2.67692E-01 -4.20382E-01
  -2.07266E-01 -9.61898E-03 -3.49610E-01 -3.27525E-01 -4.79167E-01 -3.18596E-01 -3.82512E-01 -4.93998E-01 -2.13159E-01 -2.97553E-01
  -1.25270E-01 -7.73063E-02 -1.03727E-01 -1.93292E-01 -2.94973E-01 -1.88856E-02 -2.70798E-01 -3.14035E-01  1.81344E-02 -3.20846E-01
  -2.02710E-01  3.11347E-02 -1.05770E-01  1.54074E-01  1.29830E-01 -2.46214E-01 -9.77368E-03  8.74572E-02  2.50960E-02  3.45281E-01
   1.26259E-01  1.62591E-01  8.07001E-02  5.96101E-02 -7.61395E-02 -1.35907E-01  1.52501E-01 -1.51683E-01  3.52840E-01  1.23573E-01
  -1.47678E-01  1.92045E-01 -1.63363E-01  6.27411E-02  2.54444E-01  2.26439E-01  3.94403E-01  4.15770E-01  4.21382E-01  2.60874E-01
   2.97289E-01  4.75140E-01  1.32575E-01  3.85282E-01  3.78697E-01 -2.27235E-01 -2.37296E-01 -2.36742E-01 -6.97905E-02  1.20918E-01
  -9.02382E-02  7.44339E-02 -1.94422E-02 -4.13141E-02  3.34703E-01 -2.56730E-01  1.57392E-01  1.81001E-01 -3.15142E-01  3.01460E-01
  -1.32845E-01 -3.36906E-01  4.33819E-02  2.26873E-01  2.32483E-01 -1.77891E-02 -2.88357E-01 -1.10048E-01 -4.08566E-02 -2.88702E-01
   9.85000E-02  3.53660E-01  2.56542E-01  1.06890E-01  2.86136E-01  3.97809E-01  1.38148E-01 -6.10791E-02 -1.52720E-01  2.47537E-01
   3.12293E-01  2.33881E-01  3.56892E-01  9.60449E-02 -1.58804E-02 -5.04097E-02 -7.15548E-02 -2.30606E-01 -2.46156E-01 -2.13052E-01
  -1.56987E-01  5.06047E-02 -4.15909E-01 -3.06898E-01  1.87840E-02 -1.16740E-01  1.71233E-01  3.25821E-01  3.37317E-01  5.68571E-01
   3.30595E-01  5.66722E-02  2.68275E-01  2.56753E-01  2.78422E-01  1.95412E-02 -1.08195E-01  1.62601E-01  1.90173E-01  2.59668E-01
   2.37193E-01  2.71875E-01  2.51592E-01  1.26818E-01 -7.96741E-02 -1.49772E-01  1.95479E-01  4.45737E-01  2.62126E-01  2.56417E-01
   4.92923E-01  1.96360E-01  1.97132E-01  1.46029E-01  3.03877E-01  2.56968E-01 -2.89430E-01 -2.44527E-02 -2.40820E-01 -2.10886E-01
  -5.84977E-01 -4.34520E-01 -1.07946E-01 -4.90436E-01 -1.64940E-01 -4.41612E-01  3.31722E-02  3.08757E-02 -1.43276E-02  2.75201E-02
  -1.87594E-01  1.53255E-01  1.31429E-01  6.02387E-02 -3.94539E-01 -9.77390E-02 -2.22927E-01 -5.91462E-01 -4.41096E-01 -2.77435E-01
  -4.32780E-01 -6.16216E-01 -6.42880E-01 -1.62187E+00 -1.81212E+00 -7.63590E-01 -2.28302E-01 -6.23883E-01 -5.07984E-01  4.68877E-02
   8.86135E-02  1.25565E-01  2.01675E-01 -1.88255E-02  4.39857E-02  2.57225E-01  1.69907E-01  1.14716E-01  1.35927E-01 -8.12167E-02
   1.53683E-02  1.83698E-01  2.41410E-01  2.76599E-01 -3.00413E-01  1.70348E-01  2.48529E-01  1.60377E-01  3.23536E-01  2.02694E-01
   1.76858E-01 -1.04901E-01  3.99540E-01  1.97589E-01  1.54654E-01  2.13140E-01  1.28398E-01  3.12881E-01  2.12702E-03  1.20194E-01
   2.43069E-01  1.00512E-01  3.97779E-01  1.75003E-01  1.17806E-01  3.72182E-01 -1.42905E-01  3.30320E-01  5.06365E-01  1.53000E-02
   2.41767E-01  3.52417E-01 -3.25170E-01  2.58014E-01  5.70616E-01  8.38040E-03  2.48418E-01  2.89982E-01  2.66529E-01 -1.94235E-01
   2.40510E-01  2.20842E-01  1.70075E-01  2.32145E-04 -1.10397E-01 -3.02619E-02 -3.80721E-01 -3.59527E-02 -2.41464E-01 -6.88327E-03
  -1.70857E-01 -1.46499E-01 -1.27504E-01 -1.43541E-01 -3.85950E-02 -2.27915E-02 -1.31853E-01 -3.77899E-01  1.41147E-01 -6.79870E-02
  -2.27269E-01 -4.97680E-02 -4.19462E-02 -2.67442E-01 -3.03350E-01 -1.91598E-01  4.70888E-02 -2.86027E-01 -2.67720E-01 -1.28878E-01
  -2.77885E-01  2.13600E-01  4.69379E-02  2.88436E-02 -7.12089E-02  1.40806E-01  1.17407E-01 -5.50322E-02  1.21867E-01  4.05497E-01
   1.05572E-01 -2.81090E-01  2.09754E-01 -1.01402E-01  1.85675E-03  3.33642E-01  1.95007E-01  1.56005E-01 -2.22233E-02 -7.12159E-02
   1.82096E-01  2.35571E-01  3.91660E-01  1.84696E-01  1.29927E-01  1.30343E-01  1.62129E-02  1.40698E-01 -2.44307E-01 -1.13965E-01
  -2.65930E-01  1.41586E-01  3.02710E-01  8.32826E-03 -1.94242E-01 -1.89686E-01  1.02160E-01 -3.53752E-01  7.34648E-02 -2.61938E-01
  -4.93876E-01 -2.68290E-01 -5.47661E-01 -8.48521E-02 -1.42971E-01 -3.37891E-01 -9.87509E-02 -4.96139E-02  2.66528E-02  9.12086E-02
   1.89751E-01  7.32684E-02 -3.27732E-02  1.93874E-01 -1.28016E-01 -3.11190E-01 -4.64318E-02  1.18798E-01  7.70439E-02 -3.20025E-02
  -2.44647E-01  3.24446E-02  2.98821E-01  5.55671E-02  1.52214E-01  4.42681E-02 -9.47483E-03 -1.71011E-01  1.01288E-01  1.73576E-01
  -1.54380E-01 -6.31003E-02 -1.25745E-01  2.14463E-01  1.64800E-01  2.19574E-01  3.22839E-01  9.58354E-02  2.15857E-01  3.55068E-01
   2.66410E-01 -1.93337E-01 -2.89241E-02  7.61664E-02 -5.65842E-02  6.85274E-02  2.18419E-01  2.13414E-01  3.06371E-01  3.64395E-01
  -2.95577E-01 -9.07014E-03 -3.27631E-02 -2.67897E-01 -1.24796E-01 -4.25422E-01 -1.23580E-01 -2.93848E-02 -3.07831E-01 -4.33486E-01
  -2.02029E-01 -5.21220E-01 -3.51908E-01 -2.57047E-01 -5.82296E-01 -7.45967E-02 -2.09696E-01 -2.51594E-01 -9.43300E-02 -9.41634E-02
  -2.22964E-01 -3.14046E-01 -3.11538E-01 -3.39213E-01 -2.16791E-01 -1.52798E-01  3.76991E-03 -1.75561E-02  1.85706E-02  2.48575E-01
   5.04635E-02  3.53235E-02  1.05248E-01 -1.51944E-02  4.23950E-01  1.01542E-01 -4.82321E-02  2.80385E-01 -8.16283E-02 -1.46235E-01
   1.14544E-01  6.56014E-02  1.21038E-01  2.15240E-01 -1.33955E-01  2.70414E-01  1.34959E-01 -1.71460E-01  9.93123E-03 -2.26188E-01
   2.64084E-03 -1.39060E-01 -1.48076E-01  1.37809E-01  7.74459E-02  4.26311E-01  1.79512E-01 -3.95110E-01 -6.45083E-02 -7.72517E-02
  -9.72236E-02  8.55184E-02  1.89845E-02  9.74288E-02 -3.01694E-02 -1.51369E-01  4.45369E-02  7.95796E-02 -1.23249E-01  3.96371E-02
  -5.96612E-02 -1.00013E-01  2.95583E-01  4.22602E-01  7.22291E-03 -2.09203E-01  2.13842E-01  1.53706E-02 -2.41456E-01  6.32801E-02
   2.48639E-01 -1.69232E-03 -1.16508E-01  4.30848E-02  6.89723E-02  1.94895E-01  1.92199E-02 -1.05665E-01 -1.97482E-02  1.78757E-01
   3.12606E-01 -4.77824E-02  9.27263E-02  2.25985E-01 -1.01307E-02  3.16894E-01  4.64297E-01  1.51079E-01 -3.98460E-02 -4.60300E-03
   3.22579E-02 -9.37836E-03 -1.01911E-01  2.48500E-02  3.43523E-01  1.38805E-01  1.30905E-01  1.36336E-01  1.94623E-01  3.68494E-01
  -1.12862E-01  1.64262E-01  1.77417E-01 -8.53643E-02  1.74831E-02 -1.27911E-01 -6.76535E-02 -7.22870E-02  1.41832E-01  1.59806E-01
   1.74339E-01  1.01336E-02 -3.55559E-02 -6.71011E-02  5.66360E-03  2.20253E-01 -4.54104E-03  1.13442E-01 -2.13349E-01 -1.23880E-02
  -4.87583E-02 -2.16311E-01  1.14764E-01 -6.84761E-02
 NY points of the fit to the data follow
   5.30897E-02  5.36839E-02  4.59370E-02  3.42974E-02  2.11471E-02  1.50282E-02  4.28049E-02  6.96399E-02  6.74701E-02  9.83545E-02
   1.61364E-01  2.41087E-01  3.40184E-01  4.18251E-01  4.25348E-01  4.29529E-01  4.81689E-01  4.54707E-01  3.06252E-01  1.76024E-01
   1.19975E-01  6.89240E-02  1.71547E-02 -1.73392E-02 -4.74383E-02 -7.38844E-02 -9.41512E-02 -1.10118E-01 -1.24152E-01 -1.36648E-01
  -1.48778E-01 -1.61937E-01 -1.75159E-01 -1.92720E-01 -2.02520E-01 -2.05612E-01 -2.12425E-01 -2.14727E-01 -2.08787E-01 -1.72706E-01
  -9.72694E-02  1.03418E-02  1.04407E-01  1.69156E-01  2.27824E-01  2.76429E-01  2.94679E-01  2.77391E-01  2.40369E-01  1.97220E-01
   1.60930E-01  1.25539E-01  8.49627E-02  4.56508E-02  6.82114E-03 -3.44165E-02 -8.59360E-02 -1.22800E-01 -1.50858E-01 -2.09824E-01
  -2.49306E-01 -2.62704E-01 -2.69658E-01 -2.38848E-01 -1.73526E-01 -1.21737E-01 -6.54178E-02  5.43420E-02  1.64332E-01  2.03905E-01
   2.42294E-01  2.81233E-01  2.46706E-01  1.62836E-01  8.45433E-02  2.91624E-02 -1.95824E-02 -8.09251E-02 -1.46976E-01 -2.15075E-01
  -2.64543E-01 -2.35186E-01 -1.17086E-01  2.41035E-03  9.67243E-02  2.15070E-01  3.16970E-01  3.34172E-01  3.06333E-01  2.84301E-01
   2.57012E-01  2.18129E-01  1.76770E-01  1.29840E-01  7.86998E-02  3.22147E-02 -1.19517E-02 -6.44633E-02 -1.32521E-01 -2.00120E-01
  -2.33706E-01 -2.02427E-01 -1.07106E-01  1.62129E-02  1.24043E-01  1.93754E-01  2.29847E-01  2.47244E-01  2.55350E-01  2.55881E-01
   2.52966E-01  2.50542E-01  2.48153E-01  2.44835E-01  2.41152E-01  2.39298E-01  2.29532E-01  2.16979E-01  2.14345E-01  1.94199E-01
   1.68012E-01  1.50913E-01  9.86823E-02  3.75229E-02 -3.71396E-02 -1.06238E-01 -1.80499E-01 -2.25352E-01 -2.58933E-01 -3.33015E-01
  -4.37960E-01 -5.32476E-01 -5.42326E-01 -4.69249E-01 -3.60985E-01 -3.04134E-01 -3.59133E-01 -5.17124E-01 -6.15183E-01 -5.16656E-01
  -3.35413E-01 -2.16285E-01 -1.42237E-01 -6.07172E-02  5.89094E-03  4.71085E-02  7.82900E-02  1.04515E-01  1.27003E-01  1.47057E-01
   1.65430E-01  1.82857E-01  2.00438E-01  2.18307E-01  2.36406E-01  2.56245E-01  2.79547E-01  3.06921E-01  3.39267E-01  3.80820E-01
   4.68051E-01  5.42520E-01  5.11591E-01  4.55203E-01  4.65409E-01  5.39876E-01  5.85760E-01  4.33456E-01 -3.69395E-02 -5.90445E-01
  -8.20567E-01 -7.38160E-01 -6.42590E-01 -6.06771E-01 -5.36649E-01 -4.53767E-01 -3.97702E-01 -3.55431E-01 -3.23852E-01 -3.04701E-01
  -2.91945E-01 -2.74944E-01 -2.54121E-01 -2.38271E-01 -2.29145E-01 -2.20961E-01 -2.11515E-01 -2.01812E-01 -1.91271E-01 -1.80736E-01
  -1.71395E-01 -1.61664E-01 -1.50575E-01 -1.39185E-01 -1.28501E-01 -1.18311E-01 -1.07183E-01 -9.58764E-02 -8.60269E-02 -7.78338E-02
  -7.02794E-02 -5.99898E-02 -4.65949E-02 -3.58065E-02 -3.39207E-02 -3.90451E-02 -4.15709E-02 -3.56787E-02 -2.74272E-02 -2.75512E-02
  -3.79847E-02 -4.89429E-02 -5.24616E-02 -5.12913E-02 -4.97699E-02 -4.79719E-02 -4.51762E-02 -4.30244E-02 -4.36329E-02 -3.01765E-02
  -1.79918E-03  1.62867E-02  2.06792E-02  3.58353E-02  8.63388E-02  1.74915E-01  2.62411E-01  2.88580E-01  2.47958E-01  2.22196E-01
   2.56912E-01  2.87507E-01  2.48625E-01  1.62517E-01  8.63557E-02  3.66261E-02 -1.68871E-03 -3.38808E-02 -5.41515E-02 -6.62586E-02
  -7.67891E-02 -8.47874E-02 -9.17510E-02 -9.57515E-02 -9.81428E-02 -1.00582E-01 -1.02987E-01 -1.05970E-01 -1.08226E-01 -1.12070E-01
  -1.20495E-01 -1.17402E-01 -1.17407E-01 -1.27705E-01 -1.38595E-01 -1.34956E-01 -1.13354E-01 -7.80613E-02 -2.31153E-02  1.70250E-02
   4.15927E-02  8.88679E-02  1.28475E-01  1.26481E-01  1.15140E-01  1.37362E-01  1.53589E-01  1.37082E-01  1.25006E-01  1.33377E-01
   1.39271E-01  1.28402E-01  1.06029E-01  7.26265E-02  3.61461E-02 -8.75744E-03 -5.30159E-02 -9.33529E-02 -1.33565E-01 -1.61606E-01
  -1.87731E-01 -2.11451E-01 -2.19133E-01 -1.94105E-01 -1.29628E-01 -2.80527E-02  9.85451E-02  2.16947E-01  2.99874E-01  3.43669E-01
   3.45192E-01  3.17591E-01  2.87609E-01  2.60891E-01  2.35114E-01  2.17943E-01  2.11607E-01  2.09994E-01  2.08445E-01  2.05153E-01
   2.01000E-01  1.96128E-01  1.91415E-01  1.86401E-01  1.80496E-01  1.74777E-01  1.68402E-01  1.60292E-01  1.49789E-01  1.38111E-01
   1.21480E-01  1.00359E-01  7.38810E-02  4.16733E-02  5.12061E-03 -3.93827E-02 -8.65055E-02 -1.39342E-01 -1.91652E-01 -2.37832E-01
  -2.72443E-01 -2.94417E-01 -3.03140E-01 -2.93120E-01 -2.67890E-01 -2.26078E-01 -1.68866E-01 -1.06102E-01 -4.73954E-02 -1.13226E-02
   4.77870E-03 -3.98226E-03 -2.58272E-02 -5.70976E-02 -8.49635E-02 -7.03195E-02 -2.01854E-01 -3.66725E-01 -4.21177E-01 -4.00983E-01
  -4.27124E-01 -6.22234E-01 -1.05807E+00 -1.53068E+00 -1.50938E+00 -1.01203E+00 -5.88695E-01 -4.27286E-01 -2.77557E-01 -1.18422E-01
  -4.40538E-02 -9.09782E-03  1.15356E-02  2.59772E-02  3.55695E-02  4.18262E-02  4.62206E-02  4.90180E-02  4.99305E-02  4.84936E-02
   4.61782E-02  4.32560E-02  4.05182E-02  3.80847E-02  3.67091E-02  3.73195E-02  4.03157E-02  4.52977E-02  5.08144E-02  5.59285E-02
   6.06781E-02  6.55594E-02  7.04812E-02  7.52969E-02  7.98789E-02  8.31981E-02  8.57558E-02  8.86124E-02  9.19810E-02  9.52654E-02
   9.79616E-02  1.00025E-01  1.01697E-01  1.04079E-01  1.06679E-01  1.09194E-01  1.11176E-01  1.12438E-01  1.13334E-01  1.14630E-01
   1.16586E-01  1.18636E-01  1.20417E-01  1.21332E-01  1.20676E-01  1.18315E-01  1.15049E-01  1.11649E-01  1.07905E-01  1.03506E-01
   9.81984E-02  9.22290E-02  8.57138E-02  7.86975E-02  7.12778E-02  6.34017E-02  5.62059E-02  5.00847E-02  4.40906E-02  3.77170E-02
   3.17709E-02  2.66136E-02  2.19785E-02  1.78275E-02  1.42047E-02  1.08511E-02  7.50562E-03  4.47069E-03  1.84800E-03 -3.54684E-04
  -1.92244E-03 -3.01654E-03 -3.80191E-03 -3.97014E-03 -2.72115E-03 -3.51396E-04  2.07970E-03  4.84113E-03  9.11646E-03  1.44856E-02
   2.03782E-02  2.61436E-02  3.05480E-02  3.42870E-02  3.98029E-02  4.78779E-02  5.61786E-02  6.31998E-02  6.91593E-02  7.45729E-02
   8.09853E-02  8.97099E-02  9.99095E-02  1.10313E-01  1.20733E-01  1.31139E-01  1.41186E-01  1.50882E-01  1.59586E-01  1.66385E-01
   1.70813E-01  1.73133E-01  1.73332E-01  1.71824E-01  1.69147E-01  1.65346E-01  1.60151E-01  1.53098E-01  1.43817E-01  1.32671E-01
   1.21504E-01  1.11065E-01  1.00888E-01  9.04520E-02  8.00942E-02  7.02247E-02  6.13070E-02  5.36013E-02  4.63541E-02  3.94008E-02
   3.36279E-02  2.91093E-02  2.51872E-02  2.18162E-02  1.93434E-02  1.83564E-02  1.92477E-02  2.14744E-02  2.40392E-02  2.71653E-02
   3.11712E-02  3.54974E-02  3.99444E-02  4.48187E-02  4.97843E-02  5.38304E-02  5.68127E-02  5.90490E-02  6.04775E-02  6.19319E-02
   6.37939E-02  6.52853E-02  6.53173E-02  6.40176E-02  6.22273E-02  5.99447E-02  5.70090E-02  5.32145E-02  4.90168E-02  4.52575E-02
   4.18658E-02  3.79360E-02  3.35841E-02  2.95697E-02  2.57620E-02  2.17143E-02  1.72900E-02  1.27720E-02  8.51020E-03  4.79178E-03
   1.25968E-03 -2.90854E-03 -7.65022E-03 -1.26122E-02 -1.84732E-02 -2.59245E-02 -3.48728E-02 -4.41631E-02 -5.36958E-02 -6.43296E-02
  -7.69491E-02 -9.15446E-02 -1.07475E-01 -1.23900E-01 -1.40140E-01 -1.55963E-01 -1.70866E-01 -1.84252E-01 -1.95845E-01 -2.05975E-01
  -2.14491E-01 -2.20385E-01 -2.22683E-01 -2.22063E-01 -2.20154E-01 -2.17154E-01 -2.11678E-01 -2.03811E-01 -1.95520E-01 -1.87489E-01
  -1.79424E-01 -1.71200E-01 -1.62540E-01 -1.52989E-01 -1.42684E-01 -1.32354E-01 -1.21460E-01 -1.09823E-01 -9.84294E-02 -8.77838E-02
  -7.75741E-02 -6.76698E-02 -5.78838E-02 -4.83567E-02 -3.97779E-02 -3.24066E-02 -2.58330E-02 -1.89208E-02 -1.19410E-02 -6.38271E-03
  -2.48626E-03  1.24196E-03  5.60337E-03  9.14910E-03  1.13909E-02  1.34672E-02  1.54824E-02  1.72419E-02  1.88974E-02  2.00864E-02
   2.07826E-02  2.19470E-02  2.39343E-02  2.57866E-02  2.73555E-02  2.91573E-02  3.04295E-02  3.06028E-02  3.06462E-02  3.08882E-02
   3.07584E-02  3.04803E-02  3.04642E-02  3.05273E-02  3.04478E-02  3.01904E-02  2.98596E-02  2.98729E-02  3.05674E-02  3.13753E-02
   3.10462E-02  2.93780E-02  2.74086E-02  2.68198E-02  2.73934E-02  2.74648E-02  2.71701E-02  2.74784E-02  2.79239E-02  2.73072E-02
   2.63939E-02  2.68116E-02  2.84104E-02  2.96753E-02  3.04556E-02  3.14374E-02  3.28716E-02  3.41299E-02  3.51229E-02  3.59374E-02
   3.68007E-02  3.79193E-02  3.86402E-02  3.84429E-02  3.79657E-02  3.82352E-02  3.93218E-02  4.08792E-02  4.26577E-02  4.45938E-02
   4.60067E-02  4.67910E-02  4.79033E-02  5.01063E-02  5.30449E-02  5.52028E-02  5.58216E-02  5.55019E-02  5.53047E-02  5.61130E-02
   5.79135E-02  5.94619E-02  5.98540E-02  6.00152E-02  6.10816E-02  6.27381E-02  6.43026E-02  6.56209E-02  6.66603E-02  6.82589E-02
   7.09652E-02  7.37480E-02  7.57055E-02  7.78614E-02  8.09035E-02  8.40811E-02  8.70023E-02  9.03324E-02  9.45731E-02  1.00132E-01
   1.05971E-01  1.10926E-01  1.15500E-01  1.20266E-01
 NY background values follow
     2.317E-02    2.333E-02    2.349E-02    2.365E-02    2.382E-02    2.398E-02    2.414E-02    2.430E-02    2.447E-02    2.463E-02
     2.479E-02    2.495E-02    2.511E-02    2.528E-02    2.544E-02    2.560E-02    2.576E-02    2.592E-02    2.609E-02    2.625E-02
     2.641E-02    2.657E-02    2.673E-02    2.689E-02    2.705E-02    2.721E-02    2.737E-02    2.753E-02    2.769E-02    2.785E-02
     2.801E-02    2.817E-02    2.833E-02    2.849E-02    2.865E-02    2.881E-02    2.897E-02    2.913E-02    2.928E-02    2.944E-02
     2.960E-02    2.976E-02    2.991E-02    3.007E-02    3.023E-02    3.038E-02    3.054E-02    3.069E-02    3.085E-02    3.100E-02
     3.116E-02    3.131E-02    3.146E-02    3.162E-02    3.177E-02    3.192E-02    3.207E-02    3.222E-02    3.238E-02    3.253E-02
     3.268E-02    3.282E-02    3.297E-02    3.312E-02    3.327E-02    3.342E-02    3.357E-02    3.371E-02    3.386E-02    3.400E-02
