 
 $NMID
 ID=''
 FMTDAT='(2E13.5)'
 TRAMP=   1.00000E+0
 VOLUME=   1.00000E+0
 $END
   1.18484E+2  -4.02864E+2
  -3.70613E+0   4.06537E+2
  -1.71024E+3  -9.73244E+2
  -2.87001E+2   1.20385E+3
  -8.25072E+2   2.82505E+3
   1.27672E+3  -2.36456E+1
   9.49500E+2   3.65598E+3
   1.40991E+3   1.97642E+3
   3.22130E+3  -1.46606E+3
  -5.09404E+2  -6.24670E+2
   1.94521E+3  -2.14552E+3
   3.58651E+3  -3.20435E+3
   1.39120E+3  -8.55977E+2
  -1.93591E+3   2.99462E+3
  -4.63942E+3  -6.71803E+2
  -2.27369E+3  -1.10515E+3
  -1.56734E+3  -1.71155E+3
   5.76822E+2  -9.67650E+2
  -1.33609E+3   3.65123E+3
  -9.21552E+2  -3.99736E+2
   1.30422E+3   6.58203E+2
   7.55841E+2   2.42910E+3
  -2.94873E+3   2.56651E+3
  -3.58621E+3   2.33667E+2
  -1.31496E+3  -2.43058E+3
   1.27567E+3   2.13791E+3
  -5.01158E+2   1.45902E+3
  -7.69868E+2   2.13524E+3
  -1.75550E+2  -7.66822E+2
   6.02066E+3  -4.03148E+3
   6.91113E+3   1.24197E+3
   2.35542E+3   3.47953E+3
  -9.36806E+2  -7.51361E+1
  -6.69810E+2  -1.98469E+3
  -1.01359E+3  -5.07893E+3
  -2.71436E+3  -4.56065E+3
  -3.33938E+2  -6.69764E+3
   2.50062E+3  -5.28473E+3
   2.02660E+2  -4.93199E+2
   9.21305E+2  -2.60411E+3
  -1.45370E+3   3.99076E+3
  -3.69617E+3   3.73903E+3
  -6.32791E+3  -2.87173E+3
  -4.06479E+2  -3.15264E+3
   2.20692E+3  -1.37888E+3
   6.57916E+2  -5.37447E+2
   2.55772E+2   1.37736E+3
  -7.43961E+2   2.30781E+3
  -2.28776E+3   3.47371E+3
  -3.98419E+3   1.49893E+3
  -1.36949E+3   8.94578E+2
  -4.06082E+3  -1.84824E+3
  -3.30538E+2  -2.37696E+3
   5.01377E+2  -2.56074E+3
   1.18537E+3  -4.16204E+1
  -2.65496E+3   2.03978E+3
  -4.23520E+3   2.73052E+3
  -2.33887E+3   2.31743E+3
  -2.04893E+3  -8.16117E+2
   1.16871E+2  -5.44143E+3
   7.81837E+2  -1.93404E+3
   4.25287E+3   7.12880E+1
   2.53777E+3   1.13681E+3
   6.91262E+2   2.19201E+3
   8.60222E+2   5.12210E+2
   4.69367E+2  -9.20309E+2
   1.26507E+3   1.90982E+3
   2.71797E+2   1.73398E+3
  -1.74647E+3   2.22197E+3
  -2.48353E+2   8.31481E+2
   2.01294E+3   2.09534E+3
  -8.36972E+2  -7.40165E+1
  -7.33722E+2   2.14557E+2
   9.35218E+2  -8.78766E+2
   1.51004E+2  -2.30961E+3
   2.75784E+3   2.49865E+2
   1.63794E+3  -3.64851E+2
   1.65931E+3  -1.97029E+3
   2.93364E+3  -7.72000E+2
   1.74785E+3   1.76529E+3
   1.24186E+3   1.95067E+3
   1.89694E+3   1.20566E+3
   2.74216E+3   3.25332E+3
   2.39146E+3   2.50874E+3
  -8.93755E+2   1.53714E+3
  -2.99454E+3   2.36032E+2
  -7.37614E+1   1.03614E+3
  -6.16444E+2  -1.44505E+3
  -1.58633E+3  -1.66508E+3
   3.15264E+2   2.81425E+2
  -2.82879E+2   6.77113E+1
   1.76861E+3  -1.45224E+3
   2.78456E+3   6.05259E+2
   1.80794E+2   3.39152E+3
  -1.63475E+3   9.19678E+2
   1.07985E+3  -1.70745E+3
   2.69221E+3  -1.20699E+3
   1.57516E+3   7.95406E+2
  -8.23400E+2   2.26823E+3
  -3.87908E+2  -1.51579E+3
  -1.97320E+3  -1.56522E+3
   2.24433E+3  -1.87107E+3
   2.26191E+3   2.18578E+3
  -4.66047E+1   2.34154E+3
  -1.51503E+3   6.44180E+2
  -1.74280E+3   5.82876E+2
  -7.87326E+2   1.07942E+3
  -5.66330E+2  -1.12302E+3
  -2.35777E+3   1.57939E+3
   7.83617E+2  -1.51847E+3
   1.50691E+3  -9.58488E+2
   3.59742E+3  -3.06841E+2
   1.57117E+3   1.61114E+3
   2.87724E+2  -1.06700E+2
  -1.05049E+2   2.68517E+3
  -1.95412E+2   1.47852E+3
   7.24244E+1  -6.15991E+2
   1.07496E+3  -3.43995E+2
   1.58265E+2  -1.10861E+3
   1.38068E+3   1.44143E+3
   4.83768E+2   1.47602E+3
  -9.73105E+2  -1.93914E+2
  -3.14285E+3  -8.40720E+2
  -4.39111E+2  -1.27070E+2
  -2.86862E+2  -1.87585E+3
  -1.45101E+3   9.18839E+2
   2.06807E+2  -1.80549E+3
   1.15827E+3  -1.22822E+3
   5.67987E+2  -7.93859E+2
   7.36314E+2   3.56336E+2
  -2.93863E+2   1.27233E+3
  -3.59005E+2  -3.23233E+3
   1.75283E+3  -1.93142E+3
   2.57611E+3   1.26573E+3
  -1.24042E+3   8.40296E+2
   3.55433E+2   1.97949E+3
  -8.69791E+2  -2.66329E+2
  -1.06873E+3  -1.37596E+3
  -1.04508E+3  -1.14578E+3
  -2.44247E+2   1.91406E+2
  -7.37956E+2  -1.30869E+3
   1.29727E+3  -1.21206E+3
  -5.89584E+2  -8.72118E+2
  -4.74458E+2   9.85354E+2
  -2.01950E+3  -2.18162E+3
  -2.46082E+2  -3.87571E+2
  -8.81048E+2   6.86247E+2
   4.29656E+2  -5.21927E+2
  -1.49232E+3   8.23297E+1
   1.04188E+3   1.25501E+3
  -2.45172E+2   1.65700E+3
  -1.05949E+3  -8.15495E+2
  -1.47311E+3  -1.29736E+3
   1.94620E+2  -1.86539E+3
  -1.46162E+3   1.06000E+3
  -1.07121E+2  -9.23640E+2
  -5.27553E+2  -9.72353E+2
  -5.78926E+2   1.99401E+3
  -7.31820E+2   1.95699E+3
  -1.42569E+3   1.48067E+3
  -1.16084E+3  -3.14361E+2
  -1.55944E+3   7.92721E+2
  -1.33204E+3  -6.03927E+2
   9.34970E+2  -1.32995E+3
  -2.34168E+2  -1.30088E+3
  -2.09276E+3   3.99356E+2
  -1.63107E+3   3.70854E+2
  -1.70089E+3  -2.74760E+3
   1.49482E+3   1.51642E+3
  -8.09185E+2  -1.92202E+2
   1.46101E+2   7.83561E+2
   3.29665E+2  -1.19396E+3
   3.08450E+2  -1.68938E+3
  -6.05620E+2   7.81000E+2
   1.44045E+2  -1.20172E+3
  -1.24426E+3   5.05369E+2
  -3.84248E+1   2.39799E+2
   2.60716E+3  -2.22219E+2
   1.76877E+2   5.43147E+2
  -1.42610E+2   2.69449E+2
  -1.95101E+3  -1.63481E+3
  -9.58319E+2  -5.28283E+2
   1.57506E+3  -5.14280E+2
  -3.49659E+2  -1.54466E+3
   3.74547E+2  -2.08322E+3
   5.77446E+2   4.68472E+2
  -1.50182E+2   2.02428E+3
  -1.04353E+3   1.63744E+2
   5.19735E+2  -4.79787E+2
  -1.20886E+3  -1.45344E+3
  -9.52589E+2  -1.62043E+3
  -5.11594E+1   4.60903E+2
  -1.22591E+3   1.43110E+3
   7.19562E+2   1.57712E+2
   8.14473E+2  -1.21419E+3
   2.15088E+3   1.38652E+3
  -5.72820E+2   2.22929E+3
   5.59407E+2  -2.59163E+2
   5.16651E+2   2.98577E+1
   8.41715E+2   1.65531E+3
  -1.17296E+3   7.23158E+2
  -4.01912E+2   9.39005E+2
  -3.73635E+2   3.07111E+2
  -4.05759E+2   7.31638E+2
   1.15131E+3   5.38021E+2
  -6.65866E+2  -4.76587E+2
   2.57951E+2  -9.03655E+1
  -1.13082E+3   8.34009E+1
  -6.55131E+2   2.06014E+3
  -1.02616E+3  -1.08411E+3
  -5.64152E+1  -2.49524E+2
   2.05149E+2  -9.56824E+1
   1.08990E+3  -1.79931E+3
   1.16031E+3  -8.33726E+2
   3.21981E+2   1.88727E+1
   4.31241E+2   7.95237E+1
  -1.02038E+3  -6.05737E+2
  -4.01575E+2  -1.30038E+3
  -1.54486E+3   2.14998E+2
  -1.03208E+1   1.86358E+2
  -1.00913E+3  -8.42145E+2
   1.10011E+3  -5.40753E+2
  -8.86081E+2   9.08890E+2
  -1.92036E+3  -2.16291E+3
  -1.07050E+3  -4.15612E+2
  -4.82751E+2  -5.53635E+2
   1.02643E+3  -1.76934E+3
   5.95911E+2   6.32855E+2
  -2.01292E+3  -4.72233E+2
   9.93915E+1   9.74831E+2
   9.34388E+1   1.13885E+3
  -8.10218E+1   7.73501E+2
   1.18809E+3   1.16060E+3
  -3.64405E+2  -3.32212E+2
  -3.21714E+2  -1.10509E+3
   1.82923E+3   2.78087E+3
  -1.06645E+2   4.16379E+2
   1.29650E+3   9.78514E+2
   3.35053E+2  -2.07119E+2
  -2.91374E+2   5.55449E+0
   1.63561E+2  -1.98834E+3
   3.14945E+2  -6.93197E+2
   1.70298E+3   5.03967E+2
  -5.99215E+1   1.16008E+3
  -1.42552E+3   8.25467E+2
  -7.00098E+2  -1.76477E+3
  -5.92133E+2  -5.52611E+2
   4.19452E+2  -2.56358E+3
  -3.65698E+0   9.75718E+1
  -1.28528E+3   5.66843E+2
   8.30580E+2   1.01750E+3
   1.15838E+3   1.42470E+3
   1.24447E+2   1.51808E+3
   4.36128E+2  -5.44862E+2
   5.35994E+2  -4.34865E+1
   9.34570E+0   2.89925E+2
  -7.22944E+2  -7.40159E+1
   1.46849E+3  -4.12741E+2
   1.69644E+3   1.08676E+3
   1.35225E+3  -1.94396E+3
   7.88531E+2   1.41095E+3
   2.43142E+3  -1.25436E+3
   2.09496E+2   1.13650E+3
   2.29284E+3   1.93512E+2
   1.53623E+3   1.37777E+3
   7.71912E+1   7.61355E+2
  -3.61217E+0   6.77832E+2
   3.50566E+3   3.99615E+2
  -8.27026E+2   8.78325E+2
  -3.48002E+2  -1.60324E+2
   3.11419E+3   4.75637E+2
   1.14069E+3   2.58078E+2
   9.68043E+2   1.40195E+3
   7.20437E+1  -7.39296E+2
   6.20271E+2   5.43939E+2
   6.77508E+2  -2.71524E+2
   9.63589E+1  -1.72911E+3
   1.35284E+3  -6.72735E+2
   1.24154E+3  -7.59945E+2
  -1.64577E+2  -1.30863E+3
   1.30278E+2  -9.92784E+1
   8.71138E+2  -5.99297E+2
  -1.10923E+3  -1.36485E+2
  -7.80139E+1  -3.27848E+2
  -1.06220E+3  -2.65591E+2
  -4.09215E+2  -4.71281E+2
   4.79132E+2  -6.17875E+1
  -5.11946E+1  -1.00812E+3
   7.90582E+2  -5.22286E+2
   1.79206E+3   6.39634E+2
   2.24319E+3  -8.18579E+2
  -1.87015E+2  -1.29022E+3
   8.67978E+2   9.33737E+2
   2.13045E+2   7.33011E+1
   1.06448E+3  -1.49360E+3
   7.84535E+2  -1.18809E+3
  -1.78953E+3   3.13864E+2
  -2.50627E+3   6.92135E+2
   9.69447E+2  -8.78158E+2
   3.31501E+2   1.65756E+3
  -2.42783E+2   5.25127E+2
  -9.00692E+2   1.28236E+3
  -2.32878E+2   1.49744E+3
   6.65903E+1   1.31315E+3
  -1.54201E+3   4.43689E+2
  -2.84726E+2   1.36584E+3
   1.41672E+3  -3.06655E+2
   1.91765E+3  -1.53159E+3
   6.28905E+1  -5.70646E+2
   1.02108E+2   4.26911E+2
  -5.81165E+2  -1.00348E+3
  -4.07370E+2   1.19579E+3
   1.69580E+2  -9.43070E+2
   6.23164E+1  -6.13649E+1
  -2.09100E+2   2.47398E+2
   4.69076E+2   3.16826E+2
  -7.42862E+1  -1.53139E+2
  -7.05797E+1   6.97846E+2
  -1.34303E+3   1.53501E+2
   1.31746E+3  -1.09564E+3
  -8.50880E+2  -1.25894E+3
  -1.36910E+3  -1.58443E+2
  -1.78361E+2   1.92239E+3
  -2.55414E+3   1.23665E+3
   1.90314E+2   1.22513E+3
  -1.35928E+3  -1.16369E+2
  -4.31307E+1  -1.38404E+3
  -2.00704E+2  -3.73420E+2
  -7.34565E+2   2.41256E+2
  -9.94733E+1  -9.49235E+2
   1.64106E+2  -9.13410E+2
  -1.67882E+3   3.95415E+2
   2.45225E+3   3.39165E+2
   1.74257E+3  -2.80003E+2
  -3.51054E+2   1.03523E+3
   1.24184E+3   2.41527E+3
   9.11775E+1   7.97269E+2
   2.75126E+3   4.17438E+2
  -5.22325E+2  -7.84972E+1
  -3.04211E+2  -3.75013E+1
  -6.48260E+2   1.93515E+3
   1.31824E+3  -2.06530E+3
  -3.57246E+2   2.48549E+2
   3.53927E+2   1.41911E+2
  -7.02583E+2   1.09207E+1
  -5.31949E+2  -5.69973E+2
  -1.92205E+3   9.69374E+2
   2.81674E+2   8.70512E+1
  -6.90944E+2   1.12036E+3
  -9.46346E+2   1.61190E+3
  -5.21180E+2  -1.29271E+3
  -1.52243E+3   9.16626E+2
  -9.32144E+2  -4.87763E+2
   8.45548E+1   8.62864E+1
  -1.02901E+3   1.07145E+3
  -2.43697E+2  -1.91429E+3
  -2.05904E+2   6.49651E+1
   7.22346E+2   1.48903E+3
  -2.67905E+2   1.05244E+3
   1.80054E+2   4.89965E+2
  -8.13937E+2  -1.02981E+3
  -5.92148E+1  -7.21871E+2
   8.66186E+2  -1.33508E+3
  -2.09350E+3   8.69063E+1
  -6.10257E+2   1.42763E+3
  -8.53214E+2  -1.09969E+3
  -6.70280E+2   7.60813E+2
