 LCModel (Version 6.3-1N) Copyright: S.W. Provencher.          Ref.: Magn. Reson. Med. 30:672-679 (1993).                
 Slice_N1@19_10  02-Jun-2023 14:36:45
 27 lines in following concentration table = NCONC+1
    Conc.  %SD /Cr+PCr  Metabolite                                         
 2.47E-06  16% 2.6E-04 Mac                                                 
    0.000 999%   0.000 Cr                                                  
 7.48E-02  10%   8.000 PCr                                                 
 7.75E-02  14%   8.281 Ins                                                 
    0.137   7%  14.696 NAA                                                 
 7.10E-02  14%   7.595 Tau                                                 
    0.000 999%   0.000 PCho                                                
 1.29E-02  20%   1.376 GPC                                                 
 8.87E-02  13%   9.483 Glu                                                 
 2.94E-02  28%   3.147 Gln                                                 
 2.75E-03 325%   0.294 Ala                                                 
 5.78E-02  26%   6.181 Asc                                                 
 2.35E-02  44%   2.510 Asp                                                 
 6.57E-03  84%   0.702 GABA                                                
 1.24E-02  57%   1.327 Glc                                                 
 8.95E-03  54%   0.957 GSH                                                 
    0.000 999%   0.000 Lac                                                 
 7.46E-03  96%   0.798 NAAG                                                
    0.000 999%   0.000 PE                                                  
 1.29E-02  20%   1.376 GPC+PCho                                            
    0.145   6%  15.494 NAA+NAAG                                            
    0.118  12%  12.630 Glu+Gln                                             
 7.48E-02  10%   8.000 Cr+PCr                                              
    0.145   6%  15.494 NAA+NAAG                                            
 7.48E-02  10%   8.000 Cr+PCr                                              
    0.118  12%  12.630 Glu+Gln                                             
   6 lines in following misc. output table
  FWHM = 0.041 ppm    S/N =   4                                            
  Data shift =-0.041 ppm                                                   
  Ph: -63 deg     -12.0 deg/ppm                                            
  alphaB,S = 6.3E-01,   3.1E+01                                            
   18 spline knots.   Ns = 7(1)                                            
  ( 6) 4 infls.   ( 2) 1 extrs.                                            
  654 points on ppm-axis = NY
      4.000000     3.994181     3.988363     3.982544     3.976726     3.970907     3.965088     3.959270     3.953451     3.947633
      3.941814     3.935995     3.930177     3.924358     3.918540     3.912721     3.906902     3.901084     3.895265     3.889446
      3.883628     3.877809     3.871991     3.866172     3.860353     3.854535     3.848716     3.842898     3.837079     3.831260
      3.825442     3.819623     3.813805     3.807986     3.802167     3.796349     3.790530     3.784712     3.778893     3.773074
      3.767256     3.761437     3.755619     3.749800     3.743981     3.738163     3.732344     3.726526     3.720707     3.714888
      3.709070     3.703251     3.697433     3.691614     3.685795     3.679977     3.674158     3.668339     3.662521     3.656702
      3.650884     3.645065     3.639246     3.633428     3.627609     3.621791     3.615972     3.610153     3.604335     3.598516
      3.592698     3.586879     3.581060     3.575242     3.569423     3.563605     3.557786     3.551967     3.546149     3.540330
      3.534512     3.528693     3.522874     3.517056     3.511237     3.505419     3.499600     3.493781     3.487963     3.482144
      3.476326     3.470507     3.464688     3.458870     3.453051     3.447232     3.441414     3.435595     3.429777     3.423958
      3.418139     3.412321     3.406502     3.400684     3.394865     3.389046     3.383228     3.377409     3.371591     3.365772
      3.359953     3.354135     3.348316     3.342498     3.336679     3.330860     3.325042     3.319223     3.313405     3.307586
      3.301767     3.295949     3.290130     3.284312     3.278493     3.272674     3.266856     3.261037     3.255219     3.249400
      3.243581     3.237763     3.231944     3.226125     3.220307     3.214488     3.208670     3.202851     3.197032     3.191214
      3.185395     3.179577     3.173758     3.167939     3.162121     3.156302     3.150484     3.144665     3.138846     3.133028
      3.127209     3.121391     3.115572     3.109753     3.103935     3.098116     3.092298     3.086479     3.080660     3.074842
      3.069023     3.063205     3.057386     3.051567     3.045749     3.039930     3.034111     3.028293     3.022474     3.016656
      3.010837     3.005018     2.999200     2.993381     2.987563     2.981744     2.975925     2.970107     2.964288     2.958470
      2.952651     2.946832     2.941014     2.935195     2.929377     2.923558     2.917739     2.911921     2.906102     2.900284
      2.894465     2.888646     2.882828     2.877009     2.871191     2.865372     2.859553     2.853735     2.847916     2.842098
      2.836279     2.830460     2.824642     2.818823     2.813004     2.807186     2.801367     2.795549     2.789730     2.783911
      2.778093     2.772274     2.766456     2.760637     2.754818     2.749000     2.743181     2.737363     2.731544     2.725725
      2.719907     2.714088     2.708270     2.702451     2.696632     2.690814     2.684995     2.679177     2.673358     2.667539
      2.661721     2.655902     2.650084     2.644265     2.638446     2.632628     2.626809     2.620991     2.615172     2.609353
      2.603535     2.597716     2.591897     2.586079     2.580260     2.574442     2.568623     2.562804     2.556986     2.551167
      2.545349     2.539530     2.533711     2.527893     2.522074     2.516256     2.510437     2.504618     2.498800     2.492981
      2.487163     2.481344     2.475525     2.469707     2.463888     2.458070     2.452251     2.446432     2.440614     2.434795
      2.428977     2.423158     2.417339     2.411521     2.405702     2.399884     2.394065     2.388246     2.382428     2.376609
      2.370790     2.364972     2.359153     2.353335     2.347516     2.341697     2.335879     2.330060     2.324242     2.318423
      2.312604     2.306786     2.300967     2.295149     2.289330     2.283511     2.277693     2.271874     2.266056     2.260237
      2.254418     2.248600     2.242781     2.236963     2.231144     2.225325     2.219507     2.213688     2.207870     2.202051
      2.196232     2.190414     2.184595     2.178777     2.172958     2.167139     2.161321     2.155502     2.149683     2.143865
      2.138046     2.132228     2.126409     2.120590     2.114772     2.108953     2.103135     2.097316     2.091497     2.085679
      2.079860     2.074042     2.068223     2.062404     2.056586     2.050767     2.044949     2.039130     2.033311     2.027493
      2.021674     2.015856     2.010037     2.004218     1.998400     1.992581     1.986763     1.980944     1.975126     1.969307
      1.963489     1.957670     1.951852     1.946033     1.940215     1.934397     1.928578     1.922760     1.916941     1.911123
      1.905304     1.899486     1.893667     1.887849     1.882030     1.876212     1.870393     1.864575     1.858756     1.852938
      1.847119     1.841301     1.835482     1.829664     1.823845     1.818027     1.812208     1.806390     1.800571     1.794753
      1.788934     1.783116     1.777297     1.771479     1.765660     1.759842     1.754023     1.748205     1.742386     1.736568
      1.730749     1.724931     1.719113     1.713294     1.707476     1.701657     1.695839     1.690020     1.684202     1.678383
      1.672565     1.666746     1.660928     1.655109     1.649291     1.643472     1.637654     1.631835     1.626017     1.620198
      1.614380     1.608561     1.602743     1.596924     1.591106     1.585287     1.579469     1.573650     1.567832     1.562013
      1.556195     1.550376     1.544558     1.538739     1.532921     1.527102     1.521284     1.515465     1.509647     1.503829
      1.498010     1.492192     1.486373     1.480555     1.474736     1.468918     1.463099     1.457281     1.451462     1.445644
      1.439825     1.434007     1.428188     1.422370     1.416551     1.410733     1.404914     1.399096     1.393277     1.387459
      1.381640     1.375822     1.370003     1.364185     1.358366     1.352548     1.346729     1.340911     1.335092     1.329274
      1.323455     1.317637     1.311818     1.306000     1.300182     1.294363     1.288545     1.282726     1.276908     1.271089
      1.265271     1.259452     1.253634     1.247815     1.241997     1.236178     1.230360     1.224541     1.218723     1.212904
      1.207086     1.201267     1.195449     1.189630     1.183812     1.177993     1.172175     1.166356     1.160538     1.154719
      1.148901     1.143082     1.137264     1.131445     1.125627     1.119808     1.113990     1.108171     1.102353     1.096534
      1.090716     1.084898     1.079079     1.073261     1.067442     1.061624     1.055805     1.049987     1.044168     1.038350
      1.032531     1.026713     1.020894     1.015076     1.009257     1.003439     0.997620     0.991802     0.985983     0.980165
      0.974346     0.968528     0.962709     0.956891     0.951072     0.945254     0.939435     0.933617     0.927798     0.921980
      0.916161     0.910343     0.904524     0.898706     0.892887     0.887069     0.881251     0.875432     0.869614     0.863795
      0.857977     0.852158     0.846340     0.840521     0.834703     0.828884     0.823066     0.817247     0.811429     0.805610
      0.799792     0.793973     0.788155     0.782336     0.776518     0.770699     0.764881     0.759062     0.753244     0.747425
      0.741607     0.735788     0.729970     0.724151     0.718333     0.712514     0.706696     0.700877     0.695059     0.689240
      0.683422     0.677603     0.671785     0.665967     0.660148     0.654330     0.648511     0.642693     0.636874     0.631056
      0.625237     0.619419     0.613600     0.607782     0.601963     0.596145     0.590326     0.584508     0.578689     0.572871
      0.567052     0.561234     0.555415     0.549597     0.543778     0.537960     0.532141     0.526323     0.520504     0.514686
      0.508867     0.503049     0.497230     0.491412     0.485593     0.479775     0.473956     0.468138     0.462319     0.456501
      0.450682     0.444864     0.439045     0.433227     0.427408     0.421590     0.415771     0.409953     0.404134     0.398316
      0.392497     0.386679     0.380860     0.375042     0.369223     0.363405     0.357586     0.351767     0.345949     0.340130
      0.334312     0.328493     0.322675     0.316856     0.311038     0.305219     0.299401     0.293582     0.287764     0.281945
      0.276127     0.270308     0.264490     0.258671     0.252853     0.247034     0.241216     0.235397     0.229579     0.223760
      0.217942     0.212123     0.206305     0.200486
 NY phased data points follow
   4.44220E-01  4.54158E-01 -2.51805E-01  7.40316E-02 -1.54049E-02 -2.97241E-01 -1.51445E-01 -4.62885E-01  4.69516E-01  1.97121E-01
  -1.24633E-01  5.07061E-01  4.52602E-01  1.62896E-01  3.18739E-01  5.63514E-01  3.65853E-01  9.12371E-02  2.20547E-02  1.17467E-01
  -2.40573E-01 -1.60070E-02  1.84815E-01 -9.64749E-03 -9.19424E-02  2.26954E-01  1.89027E-02 -5.18444E-02  1.72060E-01 -2.63437E-01
  -1.67446E-01 -1.46406E-01 -3.77819E-01 -7.08274E-01 -5.97131E-02 -3.80405E-01 -8.63483E-01 -2.37074E-01 -2.50373E-01 -1.80890E-01
  -1.82597E-01 -1.07433E-01 -7.63723E-02  3.21155E-01  2.70017E-01  3.73248E-01  4.70486E-01  2.81972E-01  3.25107E-01  1.51199E-01
   1.63851E-01  1.57789E-01  3.79832E-01 -9.28972E-02  1.10167E-01  1.99047E-01 -2.94201E-01  1.74285E-01 -4.49534E-02 -3.07299E-01
  -4.63756E-02  5.67288E-02 -2.52560E-01 -2.45483E-01  2.80949E-01 -2.76202E-03 -1.29912E-01  9.07766E-02  1.63423E-02  2.74800E-01
   2.21792E-01  3.74359E-01  5.32926E-01  2.18034E-01 -1.35695E-01 -3.43100E-01 -1.89119E-01 -2.57748E-01 -3.47936E-01 -4.22336E-01
  -5.36820E-02 -1.52186E-01 -5.09091E-01 -2.38490E-01 -1.21819E-01  2.28052E-01  3.85652E-01  4.62461E-01  1.43252E-02 -3.53122E-01
   1.24256E-01  1.19204E-01 -1.36997E-01  1.59712E-01  3.15726E-01 -7.17492E-02  2.13948E-01  8.17777E-02 -1.41160E-01  6.14670E-02
  -1.94150E-01 -3.55394E-01 -4.12251E-01  1.25805E-01  2.38742E-01  2.48255E-01  3.31072E-01  4.67333E-01  7.17728E-01  4.18760E-01
   4.19858E-01  2.66125E-01  1.56776E-01 -2.74097E-02  1.36647E-01  1.60455E-01 -1.49821E-01  1.90622E-01  4.18737E-01  1.60506E-01
  -1.60179E-02  1.06221E-01 -7.12010E-02  2.71324E-03 -3.67997E-01 -3.97070E-01 -3.24784E-01 -6.44683E-01 -2.52322E-01 -4.79568E-01
  -7.23270E-01 -6.08229E-01 -7.66462E-01 -9.75602E-01 -7.28271E-01 -5.59775E-01 -5.44333E-01 -4.01341E-01 -3.58846E-01 -2.50111E-01
  -3.26381E-01 -1.65911E-01 -1.70392E-02 -2.66798E-01 -1.75282E-01  7.55760E-02 -2.09587E-01 -1.52569E-01  1.31817E-01  2.79638E-01
   2.78095E-01  1.99242E-01  6.56151E-02 -5.98644E-02  5.02457E-01  2.29499E-01 -8.94353E-03  3.86946E-01  2.33833E-01  6.64622E-02
   3.84722E-01  9.71921E-01  4.74819E-01  4.43465E-01  8.08208E-01  4.28645E-01  3.42778E-01  2.63223E-01  2.41222E-01 -3.69351E-01
  -9.07691E-01 -9.49379E-01 -1.19580E+00 -1.19333E+00 -6.50121E-01 -5.25761E-01 -5.28129E-01  6.39561E-02 -2.12263E-01 -2.02883E-01
  -4.51154E-01 -6.15777E-01 -2.25390E-01 -5.18791E-01 -4.73729E-01 -5.21090E-01 -9.25743E-02 -7.03476E-02 -2.87287E-01 -2.21381E-01
  -2.21180E-01 -5.87567E-02 -3.54855E-01 -2.93688E-01 -6.87038E-02 -6.84849E-02 -2.50837E-01 -2.52598E-01 -1.39884E-02  7.40665E-02
   1.25056E-01  3.71291E-01  9.03366E-02 -2.82538E-01  2.06811E-02  8.79458E-02  5.67969E-02  2.59421E-01  2.24658E-01  4.91302E-02
   5.60639E-02 -3.88401E-01 -2.54776E-01 -5.18682E-02 -2.10557E-01 -2.06364E-02 -9.40716E-02 -1.46511E-02 -1.54617E-01 -2.11753E-01
  -1.51670E-03  4.23741E-01  4.23830E-01  9.80940E-02  2.63213E-01  2.51089E-01  4.79837E-01  5.06918E-01  5.15217E-01  6.32335E-01
   3.89524E-01  6.05744E-01  3.97821E-01  4.62889E-01  4.97316E-01 -1.87297E-01 -1.12321E-01 -5.73370E-03  2.95793E-01 -3.56986E-02
  -3.14329E-01 -1.87322E-01 -1.96695E-01  1.34120E-01 -1.29015E-01  1.66927E-01  1.00081E-01 -1.43999E-01  1.23276E-02  1.44032E-01
   1.06663E-01  9.99794E-02  4.97406E-01  3.56837E-01  2.37970E-01 -8.52813E-02  1.40128E-01  1.27047E-01  9.61235E-02  2.51923E-01
   5.62629E-02  5.76487E-01  4.16781E-01  4.31737E-01  2.90801E-01  1.04500E-01  6.86743E-01  6.59076E-01  3.52391E-01  3.24220E-01
   4.82483E-01  5.87873E-01  2.96956E-01  1.56515E-02  3.03117E-01  8.77158E-02 -9.00804E-03  9.61765E-03 -3.70555E-01 -3.65587E-01
  -2.94735E-01 -2.57141E-01 -3.60846E-01 -4.06666E-02  2.15522E-01  2.35778E-01  5.65976E-01  4.80207E-01  4.58487E-01  7.29065E-01
   4.96194E-01  4.93655E-01  7.52147E-01  3.87526E-01  4.69745E-02  1.58841E-01  2.60187E-01  6.59219E-03  1.21666E-01  4.85888E-01
   2.92173E-01  2.03248E-01  5.90433E-01  5.71817E-01  6.21697E-01  4.43091E-01  2.41723E-01  6.41470E-01  1.54872E-01  2.50480E-01
   2.70929E-01  1.55107E-01  3.32984E-01  2.13380E-03  4.05829E-01  1.18646E-01 -3.62497E-02  1.46265E-01 -2.69360E-01 -1.68525E-01
  -2.66540E-01 -5.72048E-01 -3.54952E-01 -3.45014E-01 -3.34709E-01 -4.50917E-01 -3.96454E-01  2.15334E-02 -1.68730E-03  1.42623E-01
  -4.60768E-02  6.76289E-02  2.73107E-01  5.79069E-03 -1.63448E-01 -2.82109E-01 -4.39346E-01 -5.17281E-01 -8.14218E-01 -1.06777E+00
  -8.96865E-01 -1.47349E+00 -1.50942E+00 -1.52629E+00 -1.47306E+00 -1.22224E+00 -1.02191E+00 -5.32412E-01 -3.51152E-01 -1.66371E-01
  -4.27937E-02  5.96847E-01  9.21813E-02  4.11621E-02  2.62494E-01 -5.24082E-02  3.51816E-02 -2.03701E-01 -1.58138E-01 -1.45404E-01
   4.91220E-01  4.93996E-01  1.90640E-01  1.40564E-01 -1.36381E-02  2.02566E-02  1.78812E-01 -7.21993E-02 -1.55387E-01  4.53457E-03
  -2.83005E-01  2.81005E-01 -4.50518E-03  1.67037E-01  4.52093E-01  1.08694E-02  1.52511E-01  2.14766E-02 -1.57373E-02 -9.73780E-02
   1.65028E-01  1.83150E-01 -6.86378E-02  1.76392E-01  2.29317E-01 -1.13091E-01  1.27742E-01  2.51507E-01  1.25199E-01 -9.53398E-02
  -1.29000E-01  2.74794E-01  1.31559E-01  9.96220E-02  3.09569E-01  5.33940E-01  2.63515E-01  2.48245E-01  1.32884E-01 -6.35261E-02
   1.52608E-01  1.58630E-01  1.29592E-01 -2.30957E-02 -2.61044E-02 -5.85668E-02 -5.75876E-02 -2.95530E-02  1.40349E-01 -2.23230E-01
  -1.68768E-01  1.48118E-01 -2.56864E-01 -4.06277E-01 -1.33825E-01 -2.60998E-01 -5.14947E-01 -2.37582E-01 -2.67236E-01 -2.10069E-01
  -2.96478E-01 -2.41497E-02 -1.81316E-01 -2.71990E-01  3.30106E-02  1.55052E-01  3.77622E-02 -2.09160E-01  2.26997E-01 -2.70808E-01
   2.25122E-02  2.38679E-01  2.43680E-02  1.30448E-01  8.01454E-03  9.79057E-02  2.77101E-01  2.88505E-01 -1.28417E-01  2.84646E-01
   3.19088E-01  2.04446E-01  1.34066E-01  1.52315E-01  6.42554E-03 -1.02311E-01  5.08407E-01  4.60025E-01  3.79325E-01  6.00054E-01
   5.64413E-01  4.16466E-01  4.48798E-01  3.90212E-01  4.26311E-01  4.57539E-01  4.50894E-01  2.84471E-01  2.58720E-01  9.53213E-02
  -2.52470E-02  4.62368E-02 -9.84835E-02 -1.09301E-01 -1.82559E-02  1.78927E-01  4.28319E-02  2.11815E-01 -1.79466E-01 -3.80128E-01
   2.12013E-02 -2.55227E-01 -4.40584E-01 -2.29801E-01 -2.38131E-01 -2.54524E-02  5.20405E-02  1.69520E-02  1.53857E-01 -3.17241E-01
   2.63792E-01  7.64221E-02  2.26789E-02  1.25404E-01 -2.78790E-01  1.76389E-01 -1.13916E-01 -3.23587E-02 -1.80873E-01 -1.18947E-01
   2.22288E-01  9.58973E-02  6.50241E-02 -1.44666E-03 -1.46986E-01 -1.40108E-01 -1.14560E-01 -3.20624E-02 -9.90309E-02 -1.06936E-01
   1.02904E-01 -1.32181E-01  4.82349E-02 -1.05680E-01  4.01608E-02  6.74110E-02  2.70234E-02  8.62188E-02 -6.12199E-02  3.85767E-01
   1.60584E-01  3.80536E-01  5.51988E-01  6.81909E-02 -2.31122E-01 -2.40804E-01  2.47717E-01  2.75024E-01 -1.15975E-01  1.30835E-01
   1.85608E-01 -1.36219E-01 -7.78909E-02 -2.19140E-01 -2.67496E-01 -4.38276E-02  3.28321E-03  7.68129E-02 -1.09211E-01 -4.29663E-01
  -4.69144E-01 -5.76185E-01 -4.51684E-01 -2.79129E-01 -8.70290E-02  1.39272E-01 -1.56064E-02 -4.55485E-01 -2.58214E-01 -1.16202E-01
  -2.26676E-01  4.48668E-02 -2.01094E-02 -2.95280E-02 -2.87601E-02  1.75755E-01  1.22701E-01  1.61833E-01  2.30871E-01  4.48258E-01
   2.81109E-01  8.29754E-02  5.03933E-01 -1.00036E-01  1.03700E-01  4.13223E-01  1.57301E-01  7.96285E-02  1.91146E-01  2.98235E-01
   3.82728E-01  3.00559E-01 -2.45379E-03  2.33802E-02 -1.92181E-01  2.92834E-01  2.16744E-01 -1.03668E-01  2.21496E-01  6.86124E-02
   8.17948E-02 -1.50713E-01 -2.78810E-01  1.90138E-01  2.87196E-02 -9.89094E-02 -1.73355E-01 -1.52750E-01  4.57151E-01  1.18125E-01
  -2.78559E-01 -2.34442E-01 -3.41008E-01 -2.54135E-01 -5.20025E-02  1.36875E-02 -1.78817E-01 -5.10957E-02  9.39121E-03 -2.01498E-01
  -1.11394E-01 -1.36346E-01  7.44336E-02 -1.49967E-01 -1.53729E-01  1.57454E-01  1.04144E-01  1.60140E-01 -2.14908E-01  1.54218E-01
  -2.32923E-02  4.12298E-02  8.24957E-02 -3.57534E-02  1.30936E-01 -3.76047E-02  1.55785E-01 -3.12388E-01 -3.29313E-02  1.15712E-02
  -1.57994E-02 -2.53806E-01 -2.96288E-01 -1.22382E-01  1.43313E-03  5.05233E-02 -2.55607E-01  2.17536E-01 -4.89580E-02  8.06955E-02
  -6.42030E-03  1.05479E-01  3.17235E-01  6.82722E-02 -3.81983E-02 -8.25117E-02 -7.70757E-02  6.08418E-02  3.19617E-01 -3.01871E-02
   3.38941E-02  3.19414E-03 -3.78370E-02 -8.13907E-02  2.28732E-01  8.93583E-02  4.09087E-02  4.40276E-02 -3.15952E-02  1.26268E-01
  -1.49682E-01 -5.26435E-02 -8.56313E-02  1.90112E-01 -1.02817E-01  2.93467E-01  2.03643E-01 -2.91657E-01  8.68845E-02  3.99770E-02
   1.83740E-01  2.31538E-01  1.20622E-01 -1.98668E-01
 NY points of the fit to the data follow
   9.85466E-02  8.89522E-02  6.35089E-02  2.76837E-02 -8.32678E-03 -3.38557E-02 -3.14834E-02  3.92082E-02  1.22063E-01  1.97167E-01
   2.74130E-01  3.49193E-01  4.23447E-01  4.80861E-01  5.18257E-01  4.89756E-01  3.84716E-01  2.44310E-01  1.02894E-01  3.77639E-03
  -2.49552E-02 -1.53814E-02 -4.34125E-02 -8.10193E-02 -1.20763E-01 -1.55034E-01 -1.83910E-01 -2.08031E-01 -2.25974E-01 -2.42106E-01
  -2.59044E-01 -2.78878E-01 -3.00633E-01 -3.24347E-01 -3.44682E-01 -3.53529E-01 -3.54478E-01 -3.36242E-01 -3.00481E-01 -2.36350E-01
  -1.51135E-01 -4.24813E-02  7.39454E-02  1.83354E-01  2.79285E-01  3.42926E-01  3.77174E-01  3.85547E-01  3.73855E-01  3.41153E-01
   2.86509E-01  2.25564E-01  1.55542E-01  9.66336E-02  4.30783E-02 -9.61966E-04 -4.82772E-02 -8.60460E-02 -1.14941E-01 -1.48477E-01
  -1.66706E-01 -1.63333E-01 -1.67157E-01 -1.60936E-01 -1.38002E-01 -9.33684E-02 -2.50651E-02  6.63818E-02  1.69601E-01  2.47992E-01
   2.95621E-01  3.11339E-01  2.79540E-01  2.04627E-01  1.06619E-01 -2.45864E-03 -9.76916E-02 -1.70592E-01 -2.27631E-01 -2.55680E-01
  -2.54111E-01 -2.23730E-01 -1.51551E-01 -3.38219E-02  9.61488E-02  2.17850E-01  3.11756E-01  3.48202E-01  3.33980E-01  3.06986E-01
   2.62751E-01  1.96762E-01  1.34858E-01  7.79864E-02  5.83651E-03 -6.55388E-02 -1.33034E-01 -1.90738E-01 -2.31497E-01 -2.53162E-01
  -2.43225E-01 -1.96907E-01 -1.09154E-01  8.45999E-03  1.29782E-01  2.29489E-01  2.87671E-01  3.07328E-01  2.98008E-01  2.87594E-01
   2.75796E-01  2.72142E-01  2.68670E-01  2.64522E-01  2.60250E-01  2.55774E-01  2.50222E-01  2.35388E-01  2.19492E-01  1.98047E-01
   1.62923E-01  1.27711E-01  6.85043E-02  1.42418E-03 -9.65118E-02 -1.95970E-01 -2.92363E-01 -3.84226E-01 -4.45216E-01 -5.25355E-01
  -6.15307E-01 -6.80777E-01 -6.99193E-01 -6.81182E-01 -6.38496E-01 -5.79184E-01 -5.45116E-01 -5.11846E-01 -4.59137E-01 -3.50335E-01
  -2.19468E-01 -7.59088E-02  2.77084E-02  6.24405E-02  7.82637E-02  1.01380E-01  1.23356E-01  1.43514E-01  1.61998E-01  1.79383E-01
   1.96064E-01  2.12347E-01  2.29067E-01  2.46649E-01  2.65448E-01  2.86375E-01  3.10513E-01  3.38835E-01  3.73445E-01  4.18280E-01
   4.81792E-01  6.01273E-01  6.28079E-01  5.87372E-01  5.30233E-01  4.37504E-01  3.06867E-01  1.20700E-01 -1.01498E-01 -3.98717E-01
  -6.92468E-01 -8.63071E-01 -8.93723E-01 -7.79629E-01 -5.71298E-01 -4.01642E-01 -3.83109E-01 -3.58315E-01 -3.32265E-01 -3.07625E-01
  -2.87402E-01 -2.69565E-01 -2.53906E-01 -2.39382E-01 -2.25297E-01 -2.12433E-01 -2.01139E-01 -1.91206E-01 -1.80040E-01 -1.67841E-01
  -1.56029E-01 -1.44120E-01 -1.32456E-01 -1.20836E-01 -1.09078E-01 -9.68866E-02 -8.28104E-02 -6.80205E-02 -5.47818E-02 -4.29698E-02
  -3.20332E-02 -1.91484E-02 -5.73463E-03  3.79860E-03  7.80259E-03  5.99764E-03  5.02587E-04 -6.28603E-03 -1.21441E-02 -1.68244E-02
  -2.33382E-02 -3.35083E-02 -4.43410E-02 -5.10213E-02 -4.96108E-02 -3.99155E-02 -2.91168E-02 -2.06917E-02 -1.30383E-02  1.19590E-02
   5.24012E-02  9.27093E-02  1.34040E-01  1.82049E-01  2.49058E-01  3.29851E-01  4.02356E-01  4.53537E-01  4.68799E-01  4.51503E-01
   4.13151E-01  3.66156E-01  3.20120E-01  2.66880E-01  1.85551E-01  8.51333E-02 -5.48067E-03 -6.03487E-02 -7.58118E-02 -7.95877E-02
  -8.90505E-02 -9.63873E-02 -1.04754E-01 -1.11743E-01 -1.18005E-01 -1.23448E-01 -1.28218E-01 -1.35081E-01 -1.42950E-01 -1.54091E-01
  -1.70396E-01 -1.70836E-01 -1.67918E-01 -1.68005E-01 -1.53052E-01 -1.21465E-01 -7.59588E-02 -2.62353E-02  4.28423E-02  1.19551E-01
   1.75930E-01  2.24763E-01  2.54879E-01  2.66376E-01  2.70298E-01  2.75853E-01  2.64785E-01  2.48148E-01  2.41896E-01  2.29597E-01
   2.06007E-01  1.76220E-01  1.48012E-01  1.08100E-01  5.57852E-02 -4.35353E-03 -6.81341E-02 -1.26088E-01 -1.79991E-01 -2.12539E-01
  -2.28364E-01 -2.18151E-01 -1.77582E-01 -1.07983E-01 -7.20386E-03  1.14415E-01  2.46869E-01  3.65482E-01  4.46597E-01  4.82387E-01
   4.75370E-01  4.34333E-01  3.85457E-01  3.43556E-01  3.10638E-01  2.96188E-01  2.90092E-01  2.86971E-01  2.86166E-01  2.84357E-01
   2.80821E-01  2.74725E-01  2.66033E-01  2.56281E-01  2.45052E-01  2.32691E-01  2.17855E-01  2.01873E-01  1.82819E-01  1.62441E-01
   1.38930E-01  1.12314E-01  8.29104E-02  4.85119E-02  1.27906E-02 -3.04207E-02 -7.63934E-02 -1.27619E-01 -1.80707E-01 -2.30253E-01
  -2.70205E-01 -2.90559E-01 -2.91687E-01 -2.67491E-01 -2.25495E-01 -1.67915E-01 -1.02357E-01 -3.98562E-02  1.45526E-02  4.35965E-02
   5.11401E-02  2.08594E-02 -2.34038E-02 -7.31070E-02 -1.18183E-01 -1.43702E-01 -2.83748E-01 -5.05656E-01 -7.12134E-01 -9.03937E-01
  -1.09261E+00 -1.28499E+00 -1.45475E+00 -1.61132E+00 -1.66103E+00 -1.49182E+00 -1.12654E+00 -6.68318E-01 -2.36597E-01  9.51668E-03
   1.92444E-02  2.11371E-03  1.69812E-02  3.27559E-02  4.56113E-02  5.46841E-02  6.13903E-02  6.45123E-02  6.50243E-02  6.28023E-02
   5.83971E-02  5.26044E-02  4.57493E-02  3.97754E-02  3.51952E-02  3.33609E-02  3.49967E-02  4.02951E-02  4.82636E-02  5.77964E-02
   6.78911E-02  7.67800E-02  8.53486E-02  9.25212E-02  9.91606E-02  1.04743E-01  1.09502E-01  1.13718E-01  1.17539E-01  1.21284E-01
   1.25004E-01  1.28433E-01  1.31238E-01  1.33966E-01  1.36592E-01  1.39292E-01  1.42111E-01  1.44646E-01  1.46851E-01  1.48749E-01
   1.50680E-01  1.52395E-01  1.53772E-01  1.54337E-01  1.53576E-01  1.51404E-01  1.48147E-01  1.44142E-01  1.39325E-01  1.34139E-01
   1.28448E-01  1.22195E-01  1.15227E-01  1.07773E-01  1.00191E-01  9.25674E-02  8.53204E-02  7.86003E-02  7.22681E-02  6.64572E-02
   6.10831E-02  5.60074E-02  5.11990E-02  4.69696E-02  4.32993E-02  3.99213E-02  3.66163E-02  3.36416E-02  3.10442E-02  2.88225E-02
   2.73498E-02  2.65145E-02  2.64074E-02  2.71664E-02  2.89130E-02  3.15860E-02  3.49131E-02  3.88644E-02  4.43560E-02  5.10861E-02
   5.86536E-02  6.73990E-02  7.59717E-02  8.40407E-02  9.21105E-02  1.00435E-01  1.08513E-01  1.15383E-01  1.20818E-01  1.24373E-01
   1.27288E-01  1.32226E-01  1.40353E-01  1.50921E-01  1.62929E-01  1.75021E-01  1.85444E-01  1.94547E-01  2.02299E-01  2.08378E-01
   2.12398E-01  2.14296E-01  2.13890E-01  2.11450E-01  2.07458E-01  2.02107E-01  1.95277E-01  1.87041E-01  1.77256E-01  1.66221E-01
   1.54615E-01  1.43036E-01  1.31887E-01  1.21382E-01  1.11522E-01  1.02180E-01  9.32052E-02  8.50403E-02  7.76628E-02  7.12383E-02
   6.58083E-02  6.12498E-02  5.75033E-02  5.49566E-02  5.36079E-02  5.33982E-02  5.45260E-02  5.70248E-02  6.05435E-02  6.47094E-02
   6.93388E-02  7.39529E-02  7.85366E-02  8.31892E-02  8.76662E-02  9.14886E-02  9.46198E-02  9.70724E-02  9.87128E-02  1.00052E-01
   1.00992E-01  1.01422E-01  1.01145E-01  9.99821E-02  9.79292E-02  9.48817E-02  9.13355E-02  8.75761E-02  8.36653E-02  7.96799E-02
   7.56519E-02  7.15319E-02  6.74105E-02  6.34174E-02  5.91904E-02  5.49066E-02  5.07230E-02  4.66926E-02  4.26119E-02  3.84147E-02
   3.41757E-02  2.95824E-02  2.45058E-02  1.86988E-02  1.16933E-02  3.41842E-03 -6.18500E-03 -1.69868E-02 -2.90828E-02 -4.24885E-02
  -5.72037E-02 -7.32750E-02 -9.05389E-02 -1.08560E-01 -1.26573E-01 -1.43735E-01 -1.59326E-01 -1.73262E-01 -1.85490E-01 -1.95582E-01
  -2.03228E-01 -2.08177E-01 -2.10483E-01 -2.10182E-01 -2.07662E-01 -2.03386E-01 -1.97707E-01 -1.91033E-01 -1.83789E-01 -1.75864E-01
  -1.67517E-01 -1.59158E-01 -1.50605E-01 -1.41299E-01 -1.31180E-01 -1.20674E-01 -1.09626E-01 -9.83026E-02 -8.72169E-02 -7.65388E-02
  -6.62344E-02 -5.63940E-02 -4.70053E-02 -3.81900E-02 -2.99759E-02 -2.23127E-02 -1.53974E-02 -9.07225E-03 -3.33420E-03  1.74942E-03
   6.39350E-03  1.03799E-02  1.37443E-02  1.64132E-02  1.86721E-02  2.09313E-02  2.26459E-02  2.38655E-02  2.52377E-02  2.67075E-02
   2.79600E-02  2.93102E-02  3.08656E-02  3.23832E-02  3.39401E-02  3.54041E-02  3.62781E-02  3.64661E-02  3.63685E-02  3.60624E-02
   3.54999E-02  3.50168E-02  3.47773E-02  3.47146E-02  3.45431E-02  3.41668E-02  3.38018E-02  3.34953E-02  3.32259E-02  3.27949E-02
   3.20033E-02  3.10917E-02  2.98275E-02  2.84502E-02  2.74087E-02  2.68407E-02  2.67448E-02  2.66446E-02  2.61974E-02  2.55669E-02
   2.52733E-02  2.53940E-02  2.57876E-02  2.64375E-02  2.74293E-02  2.85641E-02  2.93366E-02  2.97343E-02  3.01356E-02  3.05614E-02
   3.06928E-02  3.06498E-02  3.04772E-02  3.02082E-02  2.98726E-02  2.96324E-02  2.97770E-02  3.04474E-02  3.17086E-02  3.31587E-02
   3.43401E-02  3.51683E-02  3.59656E-02  3.67645E-02  3.77246E-02  3.85610E-02  3.89273E-02  3.87502E-02  3.80928E-02  3.75070E-02
   3.74305E-02  3.76453E-02  3.78268E-02  3.78765E-02  3.78238E-02  3.77321E-02  3.78158E-02  3.83260E-02  3.89689E-02  3.95912E-02
   4.02192E-02  4.10644E-02  4.21044E-02  4.34396E-02  4.49604E-02  4.64325E-02  4.82912E-02  5.07116E-02  5.32818E-02  5.61954E-02
   5.94350E-02  6.26273E-02  6.57133E-02  6.85859E-02
 NY background values follow
    -2.217E-02   -2.184E-02   -2.151E-02   -2.117E-02   -2.084E-02   -2.051E-02   -2.017E-02   -1.984E-02   -1.951E-02   -1.917E-02
    -1.884E-02   -1.851E-02   -1.817E-02   -1.784E-02   -1.751E-02   -1.717E-02   -1.684E-02   -1.650E-02   -1.617E-02   -1.584E-02
    -1.550E-02   -1.517E-02   -1.483E-02   -1.450E-02   -1.417E-02   -1.383E-02   -1.350E-02   -1.316E-02   -1.283E-02   -1.250E-02
    -1.216E-02   -1.183E-02   -1.149E-02   -1.116E-02   -1.082E-02   -1.049E-02   -1.016E-02   -9.823E-03   -9.489E-03   -9.155E-03
    -8.821E-03   -8.487E-03   -8.153E-03   -7.818E-03   -7.485E-03   -7.151E-03   -6.817E-03   -6.483E-03   -6.149E-03   -5.815E-03
    -5.481E-03   -5.147E-03   -4.813E-03   -4.480E-03   -4.146E-03   -3.812E-03   -3.478E-03   -3.145E-03   -2.811E-03   -2.478E-03
    -2.144E-03   -1.811E-03   -1.477E-03   -1.144E-03   -8.103E-04   -4.769E-04   -1.436E-04    1.896E-04    5.228E-04    8.559E-04
