 
 $NMID
 ID=''
 FMTDAT='(2E13.5)'
 TRAMP=   1.00000E+0
 VOLUME=   1.00000E+0
 $END
   3.44493E+1  -3.75541E+2
   4.68983E+2   1.90756E+3
   7.11219E+2  -2.73981E+3
   9.26993E+2   1.09654E+3
   2.00659E+3   1.51684E+3
   1.89808E+3  -1.35956E+3
   1.03837E+3   6.07387E+2
  -2.02746E+3  -2.64811E+3
  -1.69785E+3  -5.68347E+3
  -1.90656E+3  -2.36874E+3
   1.50516E+3   6.41040E+2
   2.59873E+3   4.17645E+3
  -3.07764E+0   6.53971E+3
  -2.95634E+3   2.99386E+3
   6.09286E+2  -3.04247E+3
   4.33415E+3  -4.39072E+3
   3.41770E+3  -1.17167E+3
   5.63038E+2  -2.45049E+3
  -3.32100E+3  -6.41654E+2
  -2.05091E+3  -3.18583E+3
  -6.10796E+2   1.97625E+2
  -8.26342E+2   5.16472E+3
  -6.14236E+3   4.96675E+3
  -3.89409E+3   3.51340E+1
   2.79916E+3  -4.99027E+2
   5.17389E+3   4.42907E+3
   1.18279E+3   2.64833E+3
  -1.77733E+3  -2.48739E+3
  -2.64306E+3  -5.52813E+3
   3.34082E+3  -5.29992E+3
   7.63418E+3   1.78236E+3
  -1.21394E+3   7.77172E+3
  -6.72535E+3   2.85212E+3
  -1.40514E+3  -2.14240E+3
  -7.43500E+2   2.02305E+3
  -3.63695E+3  -2.54041E+3
  -1.10023E+3  -5.77641E+3
   4.71716E+3   6.56836E+2
   2.02447E+3   3.78990E+3
   3.95392E+3   3.32326E+3
   2.63688E+3   5.46563E+3
  -3.26310E+3   5.12885E+3
  -2.10709E+3  -2.46665E+3
   2.08303E+3  -4.71788E+3
   4.05707E+3   8.06130E+1
   3.54108E+3  -1.59768E+2
   1.62121E+3  -1.09883E+3
   4.37483E+3  -1.29890E+3
  -2.64890E+2   3.77660E+3
  -3.42024E+3   2.84357E+3
  -5.68052E+3  -3.78202E+2
  -4.56007E+3  -4.10415E+3
  -7.20783E+2  -4.35268E+3
   2.20187E+3  -6.21965E+2
   3.79233E+2   2.10476E+3
  -7.84341E+2   2.53001E+2
   3.37604E+2   4.81250E+3
  -4.44170E+3   3.16332E+3
  -4.27684E+3  -1.97954E+3
  -3.40080E+3  -7.56078E+3
   4.24568E+3  -7.51628E+3
   4.91604E+3  -6.28747E+3
   4.49392E+3  -6.44746E+2
  -1.37709E+3  -5.67503E+2
  -1.59583E+3  -4.12486E+3
   4.26432E+3  -6.48669E+3
   2.91990E+3   1.08585E+3
  -1.45932E+3   3.39925E+3
  -2.79228E+3   8.69367E+2
  -1.68979E+3  -1.27433E+3
  -1.96157E+3   1.00206E+3
  -1.83244E+3   2.19007E+3
  -2.25036E+3  -2.10781E+2
  -3.05726E+3   1.65829E+3
   1.42985E+2   7.49278E+2
  -8.64414E-2   1.23994E+3
   1.04835E+3   2.76744E+3
  -1.15055E+3  -1.48001E+3
   2.31870E+3  -8.54702E+2
   2.25467E+3   6.38576E+2
  -3.97661E+1   4.72462E+3
   5.20243E+2   2.08986E+3
  -1.75605E+2  -1.72367E+3
   6.01329E+2   4.53783E+2
   1.33321E+3   2.79966E+3
  -2.52269E+3   4.25952E+3
  -3.20736E+3   1.01605E+3
  -2.25002E+3  -1.41363E+3
   3.41061E+3  -2.42454E+3
   1.79831E+3   1.22249E+3
   1.49107E+3  -3.24536E+2
   1.64900E+3  -2.73765E+3
   4.21594E+3  -1.83905E+3
   1.25929E+3   4.53891E+3
  -8.64260E+2   3.64021E+3
  -1.98947E+3  -4.54767E+2
  -1.11410E+2  -4.03410E+3
   4.84652E+3  -2.92383E+3
   3.49941E+3   3.01784E+3
  -2.32131E+3   4.12240E+3
  -6.61109E+3  -7.49362E+1
  -1.75362E+3  -5.43417E+3
   4.49516E+3  -2.43553E+3
   3.64060E+3   2.89823E+3
   4.12505E+2   2.13355E+3
  -1.17410E+3  -1.50189E+3
   3.18003E+2  -6.14529E+2
  -1.81433E+3   5.44499E+2
  -3.45126E+3   2.10516E+3
  -4.68584E+3   1.37636E+3
  -1.87768E+3  -2.02251E+3
   2.88728E+3  -1.28696E+3
   2.66806E+3  -2.16460E+2
  -2.55184E+2   1.67670E+3
   1.09107E+3   2.80289E+3
   2.67391E+2   2.01093E+3
  -7.66626E+1   1.81903E+3
  -1.23682E+3   4.34983E+2
  -1.63714E+3   2.07800E+2
   6.02546E+0  -5.92584E+2
   2.64738E+3   1.01528E+3
   6.74967E+2   1.33155E+3
  -3.00642E+3   2.75301E+3
  -3.27648E+2   1.64040E+3
   1.62497E+3  -6.81542E+1
   5.55257E+2  -2.12174E+2
  -1.11391E+3   2.65789E+2
  -1.07318E+3  -2.19268E+3
   2.44971E+3  -1.82812E+3
   2.31195E+3  -1.13186E+3
   1.70020E+2   2.46085E+3
  -3.26457E+3  -2.12489E+3
  -2.05090E+3  -3.93389E+3
   7.88057E+2  -2.59165E+3
   1.01122E+3   2.04366E+3
   1.61577E+3   1.40385E+3
  -5.15278E+2   6.38107E+1
  -7.96501E+1  -2.72201E+3
  -2.21319E+2  -1.16483E+3
   1.52163E+3  -1.21738E+3
  -8.82745E+2   7.66911E+2
  -2.61364E+3  -1.62948E+3
  -5.73696E+2  -1.14605E+3
  -7.74009E+2   9.93567E+2
   1.07720E+3  -6.60299E+2
  -1.10626E+3   8.39641E+2
   1.22594E+3  -2.48099E+3
   1.75038E+3   1.13438E+2
   2.55185E+2  -1.74616E+3
   2.84921E+1  -2.11777E+3
   1.00096E+3  -1.25784E+3
  -2.09967E+2   2.97549E+3
   1.58939E+2   1.34747E+3
  -5.11012E+2   2.14360E+2
  -1.43471E+3  -1.99062E+3
  -1.62275E+3  -1.36202E+3
   9.41120E+2  -3.14627E+2
  -4.25258E+2   1.82074E+3
   1.06583E+3   7.39700E+2
   1.79026E+3   1.35220E+3
   1.27045E+3   1.34134E+3
  -8.04985E+1   7.06601E+2
  -9.41521E+2  -7.50216E+2
   1.24622E+2  -1.83364E+3
   1.73288E+3  -1.77854E+3
   3.66607E+2   2.73780E+2
  -6.61739E+2   1.37926E+3
  -3.06771E+3  -1.84497E+2
   7.09287E+2  -1.50903E+3
   1.35759E+3   1.56070E+3
   1.24813E+3   4.31961E+2
  -3.81233E+2   1.40391E+3
  -9.98083E+2  -7.27047E+2
   6.74045E+2   2.11760E+2
  -5.75214E+2  -7.97577E+2
  -7.00684E+2   7.98819E+2
  -6.41896E+2  -1.29325E+3
  -3.49057E+2  -2.31774E+3
   7.75872E+2  -1.38872E+3
  -5.34364E+2   4.87735E+2
  -2.36884E+1   1.67222E+3
  -9.52274E+2   3.38370E+2
   9.80602E+2   2.11956E+3
  -1.52744E+3  -5.99093E+2
  -1.09521E+3  -9.87783E+2
  -1.77641E+2  -1.74676E+3
   1.01127E+3   4.72065E+1
   1.66198E+3   5.14208E+2
  -5.08351E+1   1.41209E+3
   1.74312E+2  -7.57640E+2
  -1.09323E+3  -7.90809E+2
  -1.38015E+3  -1.57898E+2
  -3.07341E+2   1.83983E+3
   6.19484E+2   4.93892E+2
   2.02274E+2   5.81635E+2
   1.09246E+3   4.71961E+2
   2.02376E+3   6.96687E+2
  -3.78960E+1   1.45008E+3
  -1.51152E+3  -4.67455E+2
   6.46441E+2  -2.20780E+3
   1.10099E+3   5.68363E+2
  -5.85837E+2   1.51086E+3
   4.15052E+2   1.90396E+3
  -1.15818E+3  -6.17896E+2
  -6.01091E+2   6.49553E+2
   1.83004E+2   5.13253E+2
  -1.59229E+2  -7.69122E+1
  -1.42092E+3  -2.93560E+2
  -1.82209E+3   1.08229E+3
   2.03129E+3   5.65125E+2
  -7.92145E+2  -6.72806E+2
   1.62262E+3   2.03501E+3
  -1.23038E+3   8.05531E+2
  -8.21240E+2  -1.16720E+3
   4.72714E+2   1.60349E+3
   1.01366E+3   1.57018E+3
  -6.72016E+2   1.17296E+3
  -1.12414E+3  -1.20128E+2
  -1.57467E+3   7.40669E+2
  -1.23406E+3   2.48416E+3
  -1.19357E+3   6.50512E+2
   1.09903E+3   1.60063E+3
   7.14370E+2   1.72053E+3
   3.76386E+2   9.37426E+2
  -1.32535E+3  -5.65391E+2
  -5.71859E+2  -9.40425E+1
  -4.69488E+1  -6.51414E+2
  -1.48062E+3   6.43871E+2
  -1.51778E+3   6.58663E+2
   6.90221E+2  -9.97600E+1
  -2.50120E+2  -3.72870E+2
  -1.67641E+3  -1.25915E+3
   1.05073E+3  -9.78728E+2
   3.10206E+2   8.54811E+2
   1.41438E+2  -5.47645E+2
  -1.05958E+2  -1.61976E+3
   1.86328E+3  -1.34531E+2
  -9.74347E+2  -1.92756E+3
   5.67773E+1   4.15304E+0
   6.90578E+2   1.08296E+3
   1.06922E+3   2.99224E+2
  -1.48212E+2   9.57788E+2
   1.38948E+3   2.71064E+1
  -6.10383E+2  -3.12178E+3
  -1.25290E+3  -8.20410E+2
   2.78749E+2   8.46143E+1
   1.41535E+3   5.95602E+2
  -9.58487E+2  -5.31075E+2
   6.66209E+2   7.24294E+2
  -1.84538E+3  -1.31664E+3
   3.51374E+2  -7.19988E+2
   6.03966E+0  -4.06776E+2
   1.16052E+3  -8.23587E+2
   3.21562E+2  -2.10398E+2
   3.33494E+2  -2.14969E+2
  -1.15437E+3   3.70847E+2
  -1.25197E+3  -1.01557E+3
  -2.77209E+2  -1.13479E+3
   1.04622E+3   8.96869E+2
  -7.76917E+2  -4.61206E+2
  -1.00912E+3  -7.07488E+2
   2.15796E+2   1.05810E+3
  -1.00462E+3   1.49983E+3
  -2.11044E+3  -6.05300E+2
  -8.19520E+2  -1.69389E+3
   1.19224E+3   1.90670E+2
   1.35588E+3   8.83708E+1
  -2.35033E+3  -1.40691E+3
   8.51393E+2  -1.21316E+3
   3.81310E+2  -1.19736E+3
   5.07623E+2  -7.17585E+2
  -2.07313E+3  -9.00158E+2
   7.06225E+2  -3.14180E+3
   1.49101E+3   1.21276E+3
  -8.08081E+2  -2.42491E+2
   3.73974E+1   2.96944E+2
  -3.08316E+2  -1.18631E+3
   4.82311E+2  -1.14766E+3
  -2.70134E+3  -5.19571E+1
  -2.89084E+2  -1.35484E+3
  -1.36955E+3  -6.70149E+2
  -5.00077E+2  -5.98940E+2
  -2.56363E+2  -2.36777E+3
  -1.28119E+2   2.01851E+3
   7.19821E+2   1.17796E+3
  -1.60824E+3  -5.42633E+2
   5.09620E+2  -2.49753E+2
   8.53591E+2   1.16461E+2
   2.80237E+2  -2.99130E+2
   6.15703E+1  -1.03650E+3
  -1.88137E+2  -2.67050E+2
  -4.01197E+2  -8.51174E+2
  -1.38080E+3   3.57587E+2
   8.82787E+2  -4.65395E+2
  -1.89401E+3   1.47050E+3
   1.11080E+3  -1.80953E+3
   2.31514E+2  -9.85164E+2
  -1.06680E+3   4.31238E+2
  -9.53838E+2   4.82764E+2
   2.47482E+1  -2.99198E+2
  -1.43451E+3   7.90294E+2
   1.28871E+3   2.98077E+2
  -5.81160E+1   1.23641E+3
   3.50789E+3   1.10872E+3
   8.58530E+2  -9.96489E+2
  -2.23211E+2   3.08231E+3
  -5.99521E+2   7.07986E+2
   5.08405E+2  -9.07177E+2
  -2.05731E+3   3.47818E+2
   1.06432E+2  -4.31093E+2
   9.76245E+0  -1.97777E+2
   5.89293E+2   1.13739E+3
  -2.02817E+3  -5.23299E+2
   6.21313E+1   9.05596E+2
  -4.23535E+2   8.52593E+2
  -9.98850E+2  -4.64243E+2
  -1.45375E+3   1.50423E+2
   3.07613E+2  -9.60914E+2
   1.58807E+3  -1.78605E+3
  -4.27273E+2   1.45062E+3
  -7.74803E+1   1.33585E+3
   3.51097E+2   1.45148E+3
  -8.38047E+2  -2.41976E+3
   9.65389E+2  -7.93735E+2
   5.90888E+2   1.52366E+3
  -2.40578E+2   7.15643E+1
   1.24200E+2  -8.42783E+2
   1.58380E+1   3.90590E+1
   9.35355E+2   1.78378E+3
   8.71349E+2  -4.31551E+2
  -8.22008E+2  -1.77117E+3
  -1.12161E+3  -2.03570E+3
  -1.03061E+3  -1.95043E+3
   2.23580E+3  -1.80642E+2
  -3.35865E+2  -1.32405E+3
  -6.88119E+2  -2.35615E+3
   5.51487E+2   1.29351E+3
   9.12626E+2   7.08383E+2
  -5.13597E+2  -4.60952E+2
   2.38336E+0  -4.07443E-1
  -1.15331E+3   8.05116E+2
   1.50344E+3   4.42540E+1
  -2.74166E+3   8.64104E+2
  -1.50021E+3  -1.01782E+2
  -8.54752E+2   3.27474E+2
   6.65654E+2  -6.30852E+2
   1.17583E+3   1.79800E+3
  -7.63842E+2  -1.94361E+2
   1.50957E+2   1.12819E+1
   6.36948E+2  -7.64172E+2
   4.56230E+1   6.81404E+2
   2.37202E+2   2.17871E+1
   2.18703E+3   1.24926E+3
  -6.26167E+2   2.12280E+3
  -2.52207E+0  -6.22391E+2
   3.40294E+2  -2.89793E+2
  -2.64104E+2   9.07453E+2
   1.50554E+3  -6.05466E+1
   1.66568E+3  -1.09287E+3
   1.34031E+3  -3.46365E+2
   1.24503E+3   1.54749E+3
   1.49890E+3   3.85054E+1
   4.86819E+2   3.36040E+2
   8.70261E+2   1.10021E+3
   1.07180E+3  -7.45969E+2
   3.40001E+2   1.28908E+3
   2.56281E+3   1.85052E+2
