 
 $NMID
 ID=''
 FMTDAT='(2E13.5)'
 TRAMP=   1.00000E+0
 VOLUME=   1.00000E+0
 $END
   6.99922E+2  -2.12249E+2
  -8.99588E+2   1.47853E+3
   2.92464E+3  -2.18431E+3
   4.07874E+2   1.04253E+3
   6.89505E+2  -1.77008E+3
   1.66015E+1  -2.55720E+2
  -2.09794E+2  -1.80501E+2
  -3.26226E+2  -8.26108E+2
   1.63783E+2  -2.63437E+3
   1.47644E+3  -1.22822E+3
   2.07944E+3   5.02999E+2
   2.21090E+3   1.67592E+0
  -9.20205E+2   7.59727E+2
  -3.63864E+3  -4.87745E+2
  -1.07983E+3  -2.60517E+3
   2.81045E+3  -9.80531E+2
   1.48146E+3  -6.67232E+2
   1.22290E+3   1.09925E+3
  -1.20404E+3   2.76018E+3
   1.17989E+3  -5.77033E+2
   3.56094E+3  -9.85552E+2
   2.91319E+2   5.60894E+3
  -4.12571E+3   5.70514E+2
   2.74288E+3  -4.99552E+3
   4.30589E+3  -6.79642E+2
   1.01489E+3   2.45395E+3
  -5.43064E+2   5.04437E+1
  -3.91435E+3  -2.88794E+3
   3.24604E+3  -2.81044E+3
   4.21415E+3   3.24780E+3
  -2.40514E+3   7.22864E+3
  -5.32361E+3  -1.46423E+2
  -2.21063E+3  -4.05613E+3
  -2.68105E+2  -1.05300E+3
   8.44622E+2   1.91567E+3
   9.46775E+2  -1.36235E+3
   2.86815E+3   6.18411E+2
   6.47844E+2   2.04561E+3
  -1.19415E+3   3.16929E+3
  -2.65315E+3   1.43479E+3
  -3.23564E+3  -2.16310E+3
  -5.00007E+3  -5.83725E+3
   1.48827E+3  -4.90494E+3
   2.22697E+3   4.42657E+2
  -7.74608E+2   8.67335E+2
   4.47636E+2  -2.51830E+0
   3.17266E+2   2.09083E+3
  -1.54111E+2   1.24700E+3
  -1.27063E+2  -5.01560E+2
  -1.40447E+1   1.62227E+2
   1.03850E+3   5.14649E+2
   2.21413E+3   2.34208E+2
  -4.06068E+2   2.47532E+3
  -2.84790E+3   1.35470E+3
  -3.59968E+3  -2.47966E+3
  -1.04392E+3  -3.44300E+3
  -2.99427E+3  -4.61225E+3
   1.92638E+3  -5.41528E+3
   7.07508E+3  -2.94595E+3
   3.29015E+3   1.02347E+3
   6.59262E+2   2.41456E+3
  -2.98040E+2   3.65294E+3
  -4.08502E+2   3.84465E+2
   4.19012E+2  -1.85595E+1
   1.07988E+1   2.85590E+3
  -2.30716E+3   1.14725E+3
  -2.14135E+3  -2.49875E+3
  -1.41017E+3  -2.87043E+3
   5.91051E+2  -1.16183E+3
  -2.45410E+2   2.70004E+2
  -9.35581E+2  -1.37521E+3
   1.38103E+3   1.47657E+3
   1.15735E+2  -4.98383E+2
   1.32619E+3   1.37010E+3
   1.40454E+2  -4.24345E+1
  -7.52320E+2   1.08547E+1
   1.46935E+1  -1.30154E+3
  -7.63466E+2   2.06801E+3
  -6.69599E+1   5.50066E+2
  -1.74735E+3  -1.70709E+3
   1.68970E+3   9.63827E+2
  -2.31681E+2  -2.34071E+2
  -1.02227E+3  -8.50079E+2
  -6.21975E+2   1.85696E+3
   1.60381E+3   1.97776E+3
   3.79483E+2   4.18654E+3
   5.26757E+2   4.55550E+3
   2.21552E+2   3.53706E+3
  -2.46176E+3   1.87462E+2
  -2.04608E+3  -4.93319E+2
  -1.04624E+3  -1.39525E+2
  -7.16925E+2  -1.71672E+3
  -1.11533E+3  -6.08007E+2
  -2.57202E+2  -3.19863E+3
   1.11478E+3   3.31339E+3
  -1.66817E+3   2.34305E+3
  -1.30600E+2   4.31137E+2
   2.04820E+3  -1.35656E+3
   2.23010E+3  -1.44199E+3
   1.12395E+3   3.16905E+3
  -1.22115E+3   6.42178E+2
  -1.47660E+3   1.16155E+3
   4.55419E+2  -2.77741E+3
   2.46751E+3   2.32404E+2
   8.19914E+2   1.81470E+3
  -4.01070E+2   1.37705E+2
   7.07630E+2   2.40667E+3
  -2.00065E+3   7.12659E+1
   8.66962E+1   5.92000E+2
  -2.92119E+3  -1.21631E+2
   5.06081E+2  -6.02649E+2
  -1.13548E+3  -1.23908E+3
   4.16432E+2  -5.27353E+2
  -1.17042E+3   3.40041E+1
   1.67058E+2  -1.90279E+2
   5.34325E+2   1.10279E+3
  -1.37774E+3   1.68811E+2
  -8.55123E+2  -1.44736E+3
  -2.01337E+3   2.24197E+3
   7.01488E+2   7.81289E+2
  -1.27540E+3  -8.46126E+2
  -6.13923E+2   1.59971E+3
   1.88798E+2  -1.01959E+3
  -3.01332E+1  -2.02267E+3
  -9.24418E+2   8.58515E+2
   7.28370E+2  -5.43897E+2
   5.98601E+2   5.82053E+2
   1.86745E+3  -2.66061E+2
   1.19633E+3  -7.00740E+2
   1.04872E+3   5.92062E+2
   9.51740E+2  -1.56787E+3
   3.02424E+0  -1.96444E+3
   9.43743E+2  -1.23681E+3
   9.33084E+2  -1.16043E+3
   2.48692E+3   7.62107E+2
   5.31061E+2  -1.54767E+3
   9.09379E+2  -4.27110E+2
   2.19664E+3   4.44561E+2
  -7.56055E+2  -2.98265E+2
   2.87430E+3   1.76685E+2
  -8.33209E+2   6.33782E+2
   1.70455E+2   1.48530E+3
   5.28878E+2   2.83222E+2
  -6.16847E+2  -4.27200E+2
   2.06885E+3  -4.71024E+2
   1.03953E+3  -2.44248E+3
   2.19024E+2   3.11108E+1
   2.34501E+3   6.49152E+1
   2.49103E+3   1.95827E+2
  -7.51225E+2  -9.41573E+2
   1.06081E+3  -1.90388E+3
   2.15639E+3  -1.26239E+3
   1.88036E+3   5.35232E+2
   2.71640E+3  -7.64176E+2
   2.20410E+3   2.95323E+2
   1.56970E+3  -9.32284E+2
   3.68539E+2   2.93934E+2
  -6.76962E+2  -1.16770E+3
   1.53531E+3   4.78639E+2
  -3.96591E+1  -3.12393E+2
   7.04611E+2  -9.76468E+2
   9.71308E+1  -4.10922E+1
   1.58376E+2  -2.04030E+3
  -9.98830E+2   7.66705E+2
   3.02414E+2  -9.78699E+2
   5.44840E+1  -6.06400E+2
   6.60277E+2   1.13488E+3
  -2.46755E+3  -3.25293E+2
  -2.12679E+3   1.84790E+2
   8.51708E+2  -1.86263E+2
   6.65296E+2   2.08220E+3
  -5.90043E+2  -2.99934E+2
  -6.46367E+2   1.61426E+3
  -3.95158E+2   6.71336E+2
  -2.40799E+2  -1.37983E+3
  -6.88258E+2   5.04602E+2
  -2.25888E+2  -8.26176E+2
   1.59168E+2   2.15405E+2
  -2.73329E+2   4.65452E+2
  -1.45247E+2   2.51243E+2
   2.14041E+3   2.69724E+2
   5.47351E+2  -1.36592E+2
  -1.47524E+3  -5.84202E+2
   6.58983E+2   1.58353E+3
  -3.53740E+2   1.82821E+3
  -4.92013E+2   1.88435E+3
  -3.50475E+0  -1.40491E+3
  -1.36368E+2  -2.58335E+3
   4.11440E+2   5.67057E+2
  -1.35439E+3   6.88818E+2
  -2.37290E+3   1.57578E+3
  -2.92000E+2   1.03177E+3
   5.23998E+2  -1.49486E+3
   6.59311E+2   1.50535E+2
   5.65608E+2  -2.77147E+2
   1.47132E+3   8.79162E+2
   1.21654E+3  -6.71790E+2
   1.53663E+3   7.74952E+2
   1.63566E+3  -2.79498E+1
  -8.02771E+2   3.40100E+2
  -1.91957E+3   3.05865E+2
  -8.12298E+2   9.53177E+2
  -1.30913E+3   8.36214E+2
  -6.83512E+2   7.23340E+2
  -1.37014E+3   1.21908E+2
  -1.26504E+3  -8.39503E+2
  -1.63111E+3   1.44421E+3
  -1.77332E+3   8.59528E+2
  -1.29289E+3  -8.54808E+1
  -2.58524E+2   7.84580E+2
  -8.33090E+1   4.61321E+2
  -4.41057E+2  -2.09375E+2
   1.06765E+3   1.85658E+3
  -3.75694E+1  -4.28435E+2
  -5.13926E+2  -1.48246E+3
  -3.69952E+2   6.88516E+2
  -1.94434E+3   3.21328E+1
  -2.77520E+2  -1.40909E+2
  -1.02568E+3  -3.51517E+2
  -1.13445E+3   1.96427E+3
  -1.98423E+3  -1.21198E+3
   5.62747E+2  -1.24978E+3
   1.07028E+3  -1.86094E+3
   8.54276E+2  -4.82978E+2
   1.96047E+3   1.36458E+3
  -7.59565E+2   6.01304E+1
   1.73213E+2  -8.18436E+2
  -1.46808E+3  -2.22524E+2
  -2.55227E+1  -4.01630E+1
  -1.10054E+3   2.39647E+1
   2.76650E+2  -2.76345E+2
  -7.28978E+2  -2.94620E+2
  -7.25998E+2  -1.23183E+3
   3.80411E+2  -1.25975E+3
   5.37710E+2  -4.74641E+2
   2.32323E+3   1.12505E+3
   1.16078E+3  -9.74015E+2
  -6.70988E+2   1.15128E+3
  -6.60441E+2  -1.62913E+3
  -7.40768E+1  -5.44712E+2
   2.83619E+1  -1.54338E+3
  -2.55486E+3  -1.85028E+3
  -1.15815E+3  -9.17149E+2
   1.27625E+2  -2.58325E+2
  -3.30728E+2   2.46776E+3
   1.59817E+0   7.48776E+2
   2.91402E+2  -1.64152E+3
   3.86555E+1   1.20523E+2
  -8.57505E+2  -1.34225E+3
  -1.79202E+3   2.73037E+2
  -8.22396E+2   3.12030E+2
  -1.06998E+3   9.84112E+2
   4.30422E+2   3.91625E+2
   4.88934E+2  -5.99048E+2
  -2.06976E+3  -1.24030E+3
  -9.70864E+2  -1.96180E+3
  -4.11918E+0   8.12162E+2
  -1.23598E+3  -1.24767E+3
  -1.69259E+3  -1.80514E+3
   2.49851E+2   1.59967E+1
  -3.87779E+1   5.74095E+2
  -1.34166E+3  -3.89067E+2
  -9.21732E+2   7.47821E+2
   6.98945E+2  -1.43581E+3
   5.79302E+2  -4.62671E+2
  -5.12347E+2   6.27391E+2
   2.31222E+3  -2.08371E+2
   9.08338E+2   4.62976E+2
  -2.50344E+3  -4.73294E+2
  -1.63368E+2   1.29837E+3
  -1.06994E+3   6.16432E+2
  -2.20102E+3   1.47695E+3
  -6.66842E+1   1.05079E+3
   1.78989E+3  -3.80952E+2
  -1.03521E+3  -1.04978E+3
  -1.06478E+3   2.25598E+2
  -1.45991E+3  -3.87303E+2
  -5.55849E+2   1.51441E+1
  -1.74306E+2   4.89107E+2
  -5.38210E+2  -4.49501E+2
  -7.54125E+2  -5.32807E+1
   2.20210E+2  -4.92314E+2
   3.35737E+2   1.56148E+2
   5.58405E+2   1.71839E+3
  -1.93267E+3  -4.25111E+2
   3.15640E+2  -1.52329E+2
  -9.35693E+2  -1.87483E+3
   7.74571E+2   1.53056E+3
  -3.96379E+2   1.00934E+3
   1.45129E+3  -6.47530E+2
  -7.76007E+2  -8.23158E+2
   6.89571E+2  -5.35348E+2
  -9.18479E+2   7.13287E+1
   1.72560E+2  -1.24294E+3
  -1.37169E+3  -1.70038E+3
   3.43100E+2  -1.73025E+3
  -8.84208E+2  -3.49989E+2
   1.64401E+2  -7.92626E+2
   2.46011E+3   2.26259E+3
   5.24060E+2   2.42783E+1
   1.47451E+3   1.71080E+3
   1.33076E+3  -2.92542E+2
   3.03693E+2  -5.09379E+2
   8.00721E+2   6.06001E+2
   6.48004E+2  -1.07907E+3
   1.16625E+3   9.14743E+2
   1.21108E+3   4.19280E+2
   5.18779E+2   8.04475E+2
   7.73088E+2  -5.22690E+2
  -2.21167E+3   6.11234E+2
  -1.18925E+3  -9.13305E+2
  -1.96924E+2   1.48490E+3
  -1.36925E+3   1.22389E+3
   1.58337E+2   6.82303E+2
  -2.85503E+2  -3.10869E+2
  -4.46693E+2  -2.62650E+1
   9.61823E+2   2.31518E+3
   4.35579E+2   2.00442E+3
  -7.94983E+1  -5.18965E+2
  -1.24549E+3  -1.27744E+3
  -3.80520E+2  -7.61127E+2
   6.68801E+2  -5.58309E+2
   4.52098E+2   8.33215E+2
   5.17374E+2  -2.47190E+3
   5.83468E+1   3.85932E+2
  -1.87714E+2  -8.21727E+2
  -2.27447E+2   1.00943E+3
   4.69197E+2   2.70215E+2
   2.72209E+2  -1.42370E+3
  -1.32988E+3  -1.01883E+2
   6.09029E+2  -8.30317E+2
  -1.20482E+3  -6.73719E+2
   1.03082E+3  -3.17981E+2
  -1.31108E+3   3.68418E+2
   7.82885E+1   2.64973E+3
  -9.73245E+2   1.64818E+3
   4.54463E+2   9.40134E+2
  -6.88080E+2  -1.53497E+3
  -6.12201E+2  -1.01302E+3
  -4.97863E+2  -7.34309E+1
   9.50835E+2   6.88341E+2
   1.05968E+3   1.60806E+2
   3.96660E+2  -6.80400E+2
  -2.89245E+2  -3.49131E+2
  -4.38485E+2   9.27493E+2
  -1.15159E+3  -1.05970E+3
  -7.15989E+2  -1.02079E+3
  -1.36113E+3   2.77065E+2
   6.81424E+2  -1.41755E+3
   1.04465E+2   7.12287E+2
  -6.29022E+2   1.87048E+3
  -1.06126E+3   7.60678E+2
   1.49967E+3  -3.75895E+2
   1.90239E+3  -1.89454E+3
  -7.65198E+2   8.02439E+2
  -6.63375E+2   9.91169E+1
  -1.03421E+3   8.71404E+2
   3.18737E+2  -1.03309E+3
   1.77406E+3  -1.63613E+3
  -1.67147E+2   2.12289E+2
  -1.05091E+3  -1.18218E+3
   1.28043E+3   6.88397E+2
  -3.26084E+1  -2.65415E+2
  -7.90708E+2   1.03023E+3
  -9.81441E+1   2.69771E+2
   8.20411E+1  -7.67510E+2
   3.58983E+2  -9.60402E+1
