 
 $NMID
 ID=''
 FMTDAT='(2E13.5)'
 TRAMP=   1.00000E+0
 VOLUME=   1.00000E+0
 $END
  -6.56275E+1   3.32847E+2
  -2.28637E+3   1.28331E+3
   3.15580E+3   2.40340E+3
   1.31018E+3   1.90543E+3
   1.01248E+3   7.91021E+2
   2.89571E+3   2.83465E+3
   2.14116E+3   1.38733E+3
   2.10612E+3  -2.83609E+3
   2.82157E+3  -1.50453E+3
   3.51428E+3  -1.57663E+3
   4.51852E+3  -4.11505E+2
   1.69060E+3   2.02271E+3
  -1.13287E+3   3.72858E+3
  -3.21594E+3  -3.07682E+3
  -7.18015E+2  -4.59052E+3
   3.38975E+3  -2.68560E+2
   2.38024E+3   6.84671E+2
  -1.17135E+3   3.46403E+3
  -2.12140E+3  -1.15005E+3
  -7.43370E+2  -1.34811E+3
   3.45168E+3   2.13892E+3
  -3.97123E+3   5.84919E+3
  -5.55546E+3  -1.84995E+3
  -1.15701E+3  -1.97141E+3
   1.79336E+3   5.78435E+2
  -1.44824E+3   3.64095E+3
  -2.33417E+3   1.22159E+3
  -2.90532E+3  -3.37061E+3
   3.27427E+3  -8.69032E+2
   2.56636E+3   6.46491E+2
  -1.82285E+3   6.52803E+3
  -5.92068E+3   3.06249E+3
  -3.70750E+3  -4.56186E+3
   1.26418E+3  -2.65887E+3
  -2.42980E+3   6.40718E+2
  -2.44177E+2  -6.00387E+3
   1.51655E+3  -2.23012E+3
   2.33173E+3   1.47216E+3
  -4.14310E+3  -3.13736E+2
   1.81294E+1   5.42071E+1
  -2.06724E+3   2.46631E+3
  -4.21977E+3  -2.43127E+3
   2.25040E+3  -5.13035E+3
   6.01585E+3   1.71561E+3
   3.18873E+3   2.05183E+3
   2.65400E+2   5.21804E+2
   1.34340E+3   3.85905E+2
   3.32052E+2   1.18838E+3
  -2.33346E+3  -1.31145E+3
  -2.64471E+3  -1.72848E+2
  -7.16673E+2  -6.73757E+3
   3.49189E+3  -2.98468E+3
   3.97938E+3  -1.07947E+3
  -3.04037E+2   6.41755E+2
  -3.80449E+3   1.53625E+3
  -3.87930E+3   1.26148E+3
  -4.57044E+3  -1.56107E+3
  -2.46772E+3  -3.60715E+3
  -6.36030E+2  -5.68960E+3
   4.81460E+3  -1.69938E+3
   3.72843E+3   1.06272E+3
   5.43899E+3   3.97432E+3
  -7.80720E+2   2.11048E+3
   5.53612E+2   5.56187E+2
   2.60323E+3   1.67658E+3
   2.96260E+3   4.89268E+3
  -2.42645E+3   2.70330E+3
  -3.89184E+3  -1.24909E+3
  -2.25525E+3  -3.44017E+2
  -1.95234E+3  -2.11291E+2
  -3.45310E+3   8.60139E+2
  -2.28852E+3  -1.20633E+3
  -1.88868E+3  -6.73297E+2
   6.18246E+2  -2.06650E+3
  -2.22874E+2  -6.13849E+2
  -5.48951E+2  -9.27342E+2
  -3.64745E+2  -2.83045E+3
   7.90570E+2   1.91275E+2
   9.61153E+2   9.15171E+2
   2.77421E+2   2.87933E+3
  -1.29833E+3  -1.27335E+3
   3.61806E+3   9.19476E+2
   2.06779E+3  -2.16566E+2
   2.54249E+3   8.10141E+1
   4.79719E+2   7.05215E+2
  -2.37321E+3  -2.43096E+3
   1.75059E+3  -1.26163E+3
   6.25816E+3  -2.31978E+3
   3.06303E+3   1.57361E+3
   8.22345E+2   4.02598E+3
  -3.20997E+2   1.38674E+3
   2.80899E+2   1.80783E+3
  -2.08919E+3   2.76720E+3
  -2.48508E+3   3.98742E+2
   5.37952E+2  -1.74502E+3
   2.33704E+3  -3.51464E+3
   3.07653E+3  -1.14111E+3
  -6.32511E+2  -1.27877E+2
  -2.74388E+3   3.38798E+3
   1.06206E+3  -2.84720E+3
   2.62650E+3  -2.70133E+3
   1.39560E+3   7.32941E+2
  -4.62194E+2   2.76050E+3
  -2.00035E+3   2.35298E+3
  -1.07700E+3  -5.77863E+2
  -1.80457E+3  -4.16313E+2
  -7.95339E+2   8.66336E+2
  -7.06754E+2  -9.17087E+2
  -1.42059E+3  -1.80210E+3
   6.84125E+2  -2.67310E+3
   2.42096E+3   2.82214E+1
   1.37609E+3   1.89047E+3
   1.45195E+3   1.88941E+3
  -1.68326E+3   4.18404E+2
  -3.59680E+3   4.03101E+2
  -4.49341E+2  -1.66125E+3
   1.37758E+3  -1.92000E+3
   1.72370E+3  -6.56244E+2
  -3.93458E+2  -2.07941E+2
   1.11470E+3   1.32382E+3
   2.04000E+3   1.69113E+3
  -2.18876E+2  -8.94793E+1
   2.25740E+3  -2.50968E+3
  -9.46126E+2  -1.66542E+2
   1.17794E+3   1.24000E+3
  -1.72176E+3  -1.06770E+3
  -1.54362E+3   7.53983E+1
  -7.33662E+2   8.40654E+2
  -1.11855E+2   2.27670E+3
  -8.44967E+1  -3.92762E+1
  -9.63324E+2  -2.83624E+2
  -1.62412E+2   7.78425E+2
   6.63938E+2   1.51211E+3
   6.15899E+2   1.74038E+3
   3.78390E+2  -1.20270E+3
  -2.24614E+3  -2.07397E+3
  -2.58013E+3  -5.27644E+2
   5.53029E+2  -1.58390E+3
   3.96894E+2  -2.15779E+3
  -5.34190E+1  -1.47018E+3
   2.12922E+3  -8.35810E+1
   1.68283E+3  -3.42696E+2
   2.71345E+3   2.86370E+3
   4.59491E+0   1.03778E+3
   9.37304E+2   8.52518E+2
  -8.67678E+2   1.41567E+3
   6.61421E+2   1.05785E+1
   6.65844E+1  -1.03761E+3
   7.39879E+1   2.77600E+2
  -2.29771E+3   6.21341E+2
   2.65378E+2  -9.94000E+2
  -2.39294E+3  -3.38222E+2
   7.08477E+2  -4.02902E+2
   4.93232E+2  -4.40990E+2
   2.38655E+2  -1.12273E+3
   9.88097E+2  -1.71289E+3
  -4.61643E+2   3.57894E+2
  -6.51312E+2  -9.09558E+2
  -1.89825E+3  -6.09196E+2
   7.38550E+2  -1.88523E+2
  -4.36834E+2   5.15071E+1
   1.58369E+3  -2.19023E+2
  -3.69471E+3  -1.60432E+3
   1.05803E+3  -1.44889E+3
  -1.10390E+3  -1.11987E+3
   1.72850E+1  -3.10758E+3
   6.18507E+2  -1.03869E+3
   2.18504E+3  -1.12151E+3
   6.03128E+1  -6.47359E+2
  -4.43301E+2  -1.02860E+3
  -6.44782E+2  -1.80617E+3
   8.70907E+2  -6.61125E+2
   6.58169E+2  -1.71893E+3
  -3.99417E+2   1.40677E+3
  -7.65391E+2  -3.04901E+2
   5.75336E+2  -1.49320E+2
   5.26631E+2   1.41423E+3
   5.66107E+2   4.17251E+2
  -8.60751E+2   5.63246E+2
   9.14860E+2  -3.23414E+2
   6.97759E+2  -2.22913E+3
   7.18716E+2   5.60911E+2
   7.70972E+2  -1.45295E+2
  -5.60376E+2  -4.43521E+1
   6.34103E+2   1.66100E+2
  -4.85835E+2  -5.63836E+2
  -6.20678E+2   5.45209E+2
  -1.57838E+3  -1.17747E+3
   5.24915E+2  -1.45972E+1
   1.23745E+3   1.62998E+3
   9.05471E+2   4.03583E+2
  -1.25809E+3  -1.04470E+3
  -5.52626E+2   9.71344E+2
   7.89347E+2   2.43091E+3
   1.32623E+3   2.03366E+3
  -1.51159E+2  -3.32613E+2
   4.22472E+2   6.59841E+2
   4.66296E+1   1.22073E+2
   1.05032E+3  -1.16305E+2
  -7.17114E+2   3.98166E+2
  -1.94263E+3   1.35777E+3
  -8.78594E+2   8.92405E+2
   3.63396E+2   8.36937E+1
  -1.47634E+3  -1.48754E+1
   1.50192E+3  -4.95618E+2
  -6.63440E+2  -3.87690E+2
   1.71559E+3  -5.49967E+2
  -1.96905E+3  -3.87940E+2
  -2.89911E+2   1.01307E+2
   1.21004E+3   8.62300E+2
   1.39009E+3  -1.30100E+3
   1.13718E+3  -1.82494E+3
   2.65572E+3   1.48188E+3
   1.21067E+2   7.62140E+2
  -1.75543E+3   1.76252E+3
  -8.67417E+2  -1.42770E+3
   1.10626E+3   1.95294E+3
  -1.01884E+3  -1.07914E+3
   3.35335E+2  -4.36726E+2
  -5.73981E+2  -2.19894E+2
   1.45674E+3   4.92894E+2
  -1.95628E+2  -1.56156E+2
   9.64506E+2  -4.20590E+2
  -2.76088E+1  -1.09303E+3
   9.84829E+2   3.85351E+2
   1.69656E+3   2.61860E+2
   1.39257E+3  -1.02444E+3
   8.43187E+2  -7.04538E+2
   9.74052E+2   5.25564E+2
   3.17732E+2  -2.11658E+2
   1.28995E+3   8.52529E+2
  -1.56053E+2  -2.56233E+2
  -9.28270E+2  -6.80144E+2
   1.01111E+3   2.08549E+3
  -8.12915E+2   9.76291E+2
  -3.83654E+2   2.55621E+2
  -7.19428E+2   2.53033E+2
   1.05234E+2  -4.45196E+1
   3.10101E+2  -5.14050E+2
   1.21450E+3  -1.49029E+2
   7.25127E+2  -3.07760E+2
  -1.23544E+3   2.36562E+2
   1.51790E+3   5.11477E+2
   9.70562E-1   1.39397E+3
   9.99211E+2   1.92343E+3
   1.43995E+3  -9.89168E+2
   9.36428E+2  -2.09440E+3
   1.42297E+3  -9.37328E+1
   1.74186E+3   1.12773E+3
  -2.36061E+3  -6.90865E+1
  -1.30388E+3  -4.08400E+2
  -1.59481E+3   1.38116E+3
   2.13715E+2   2.04986E+3
   3.76361E+2  -4.38387E+2
   4.27882E+2  -1.28164E+3
   1.24184E+3   2.04436E+3
   1.13838E+3   1.12146E+3
  -9.92833E+1   2.21040E+3
  -2.00061E+3  -2.64297E+1
   5.77566E+2  -1.99171E+3
   6.92624E+2   1.06889E+3
   1.38708E+1  -1.47038E+3
  -1.66598E+2  -9.20864E+2
  -1.79094E+2   3.01426E+1
  -7.26692E+2   1.52935E+3
  -7.62132E+2  -1.01219E+2
   4.20812E+2  -1.10293E+3
  -1.38123E+2  -4.33976E+2
  -1.18653E+3  -1.64056E+3
   1.31873E+3   4.54412E+2
  -6.27153E+2   2.67210E+3
   1.07468E+2   1.19917E+3
   3.66150E+2  -7.40325E+2
  -1.33340E+3   2.09714E+3
   1.15136E+3  -1.62350E+2
   2.09654E+2   1.55879E+3
  -1.30441E+3  -7.69845E+2
   1.99257E+3   1.69304E+3
  -3.63404E+2   3.70449E+2
   8.32847E+2   7.70236E+1
   1.00453E+1   1.50226E+3
   8.46339E+1  -9.49970E+2
   8.98939E+2  -8.89355E+2
   1.21999E+2   1.52628E+3
   1.01940E+2  -5.57382E+2
   4.24829E+1   6.38365E+2
  -7.15540E+2  -1.45636E+3
   7.72436E+2  -1.00477E+3
  -1.72858E+2   1.67696E+3
  -2.90299E+2  -5.37985E+2
   2.36432E+2  -1.21109E+3
  -4.39027E+2   1.00723E+3
   1.47026E+2   1.40435E+3
  -6.95530E+1   1.71586E+3
   1.16769E+3  -2.58115E+3
   1.20466E+3  -2.22789E+2
   1.55584E+3  -1.78415E+3
   6.85180E+1   8.11823E+2
   1.59928E+2   4.96362E+2
  -8.99007E+2  -8.71331E+2
  -9.70062E+1  -1.20192E+3
  -1.01746E+3  -6.84891E+2
  -1.25876E+3   7.79930E+2
  -1.86688E+3  -2.36962E+3
  -2.47501E+3   4.67295E+2
  -1.70034E+2   9.91155E+2
  -6.97423E+2   1.04028E+2
  -1.72121E+3   2.52827E+3
  -2.84689E+3  -7.90523E+2
   7.85779E+2   1.55484E+3
   9.74295E+2  -2.04243E+3
   2.14380E+2  -2.55970E+2
   1.15827E+3   1.25147E+3
  -2.67157E+3  -8.73638E+2
   6.75500E+2   2.09907E+3
  -4.93481E+2  -1.47528E+2
  -1.26598E+3   4.02801E+2
  -1.30972E+3   3.58762E+2
   3.10440E+2   3.13928E+2
   1.16201E+2   5.53537E+2
  -7.86905E+2   6.82742E+2
  -2.47914E+0  -9.45727E+2
  -2.93694E+2   3.60113E+2
  -7.73818E+2  -1.31186E+3
   1.31605E+2  -6.51439E+1
  -3.39792E+3  -2.93451E+2
  -9.75859E+2  -1.16535E+3
  -1.82813E+3   2.80596E+3
  -6.14805E+1  -2.87918E+1
   8.65561E+1   1.17857E+3
  -8.41384E+2   7.95442E+2
  -1.31136E+3   1.42908E+3
  -8.69892E+2   2.36190E+3
  -7.85030E+1  -8.18738E+2
  -2.27927E+3   1.82361E+3
   2.10141E+2   4.59530E+2
  -1.41596E+3   1.47847E+3
  -1.12894E+3   1.35736E+2
  -7.63429E+2   3.61131E+2
  -2.20735E+3   1.45646E+2
  -2.34646E+2  -1.36196E+3
   1.87287E+3   2.03127E+2
   3.26195E+2   1.14029E+3
  -1.60414E+3  -1.59379E+3
   1.65307E+3  -6.85547E+2
  -6.02455E+2   6.24001E+2
   1.77716E+3  -9.91585E+2
  -4.05127E+2   1.92378E+3
   9.92591E+2   2.76239E+3
   4.06432E+0  -5.78123E+2
   1.03524E+3   2.26645E+3
   1.05275E+3   1.21589E+3
  -8.41738E+2  -1.31276E+3
  -6.12413E+2  -1.38231E+3
  -2.50383E+2   3.18698E+2
   2.71765E+1  -6.06487E+0
   1.15351E+3   1.52726E+3
  -2.21123E+3   8.30635E+2
   6.07024E+2  -3.97198E+2
  -1.08540E+3  -1.12089E+2
   1.14460E+3   2.31701E+3
   2.40301E+3   2.24868E+2
   5.84414E+2  -9.56544E+2
  -3.82998E+0   1.31553E+3
   1.37977E+3  -3.47823E+2
   3.76857E+2   1.15937E+3
  -3.62357E+2   2.01560E+2
