 
 $NMID
 ID=''
 FMTDAT='(2E13.5)'
 TRAMP=   1.00000E+0
 VOLUME=   1.00000E+0
 $END
  -1.79642E+4  -5.44962E+3
  -4.07999E+4  -2.59548E+4
  -4.52179E+4  -1.76457E+4
  -4.21102E+4  -1.53348E+4
  -4.34770E+4  -1.63701E+4
  -4.45151E+4  -1.37307E+4
  -4.29411E+4  -1.25061E+4
  -4.33122E+4  -1.28295E+4
  -4.38717E+4  -1.08041E+4
  -4.27874E+4  -9.86811E+3
  -4.27609E+4  -9.66413E+3
  -4.30507E+4  -7.79391E+3
  -4.22278E+4  -6.66224E+3
  -4.22516E+4  -6.59164E+3
  -4.21737E+4  -5.24331E+3
  -4.13719E+4  -4.13539E+3
  -4.13452E+4  -3.74329E+3
  -4.12131E+4  -2.51333E+3
  -4.05105E+4  -1.47169E+3
  -4.02919E+4  -1.04581E+3
  -3.99921E+4   7.37502E+1
  -3.94436E+4   1.21821E+3
  -3.93296E+4   1.56591E+3
  -3.90091E+4   2.44009E+3
  -3.82947E+4   3.33744E+3
  -3.79940E+4   3.81792E+3
  -3.77914E+4   4.58399E+3
  -3.71582E+4   5.26143E+3
  -3.67220E+4   5.57782E+3
  -3.62536E+4   6.27782E+3
  -3.57108E+4   7.08891E+3
  -3.52913E+4   7.50560E+3
  -3.48873E+4   8.08889E+3
  -3.42307E+4   8.71601E+3
  -3.37710E+4   9.21799E+3
  -3.32525E+4   9.81165E+3
  -3.26130E+4   1.04017E+4
  -3.20367E+4   1.08528E+4
  -3.15023E+4   1.14368E+4
  -3.09990E+4   1.19141E+4
  -3.04251E+4   1.23087E+4
  -2.99762E+4   1.27534E+4
  -2.93250E+4   1.30770E+4
  -2.86456E+4   1.34798E+4
  -2.81741E+4   1.38801E+4
  -2.75910E+4   1.42485E+4
  -2.70044E+4   1.45107E+4
  -2.64598E+4   1.48842E+4
  -2.58749E+4   1.52233E+4
  -2.52424E+4   1.54121E+4
  -2.45776E+4   1.56924E+4
  -2.39779E+4   1.58369E+4
  -2.33218E+4   1.60983E+4
  -2.27773E+4   1.64309E+4
  -2.21205E+4   1.65399E+4
  -2.14644E+4   1.67467E+4
  -2.08879E+4   1.68874E+4
  -2.03608E+4   1.69281E+4
  -1.96855E+4   1.69951E+4
  -1.91434E+4   1.70509E+4
  -1.84838E+4   1.72071E+4
  -1.78995E+4   1.72290E+4
  -1.72870E+4   1.73611E+4
  -1.68013E+4   1.73901E+4
  -1.61942E+4   1.73532E+4
  -1.55313E+4   1.74128E+4
  -1.50395E+4   1.73544E+4
  -1.45293E+4   1.73621E+4
  -1.40909E+4   1.72746E+4
  -1.34791E+4   1.72602E+4
  -1.29393E+4   1.71247E+4
  -1.24637E+4   1.71067E+4
  -1.19868E+4   1.70201E+4
  -1.14703E+4   1.68094E+4
  -1.09132E+4   1.66997E+4
  -1.03919E+4   1.65615E+4
  -9.96828E+3   1.65257E+4
  -9.48639E+3   1.63087E+4
  -8.94336E+3   1.61923E+4
  -8.46863E+3   1.59765E+4
  -8.08678E+3   1.58203E+4
  -7.63481E+3   1.56824E+4
  -7.09037E+3   1.55124E+4
  -6.67126E+3   1.53368E+4
  -6.29325E+3   1.51665E+4
  -5.84056E+3   1.49935E+4
  -5.45163E+3   1.47543E+4
  -5.02142E+3   1.45422E+4
  -4.54221E+3   1.43551E+4
  -4.12505E+3   1.41808E+4
  -3.85387E+3   1.39792E+4
  -3.42330E+3   1.38196E+4
  -3.04985E+3   1.37078E+4
  -2.62889E+3   1.35309E+4
  -2.38690E+3   1.32509E+4
  -1.99789E+3   1.30850E+4
  -1.70822E+3   1.28818E+4
  -1.34507E+3   1.27526E+4
  -1.09375E+3   1.26377E+4
  -8.47021E+2   1.23854E+4
  -6.57839E+2   1.22202E+4
  -3.32831E+2   1.20009E+4
  -1.32893E+2   1.19333E+4
   1.01734E+2   1.17001E+4
   3.38171E+2   1.15469E+4
   4.97579E+2   1.13408E+4
   6.41017E+2   1.11873E+4
   7.58612E+2   1.10361E+4
   9.28384E+2   1.08167E+4
   9.74812E+2   1.06267E+4
   1.18880E+3   1.04568E+4
   1.31805E+3   1.02995E+4
   1.32658E+3   1.00574E+4
   1.38333E+3   9.84375E+3
   1.42560E+3   9.65293E+3
   1.47922E+3   9.48738E+3
   1.59240E+3   9.27138E+3
   1.63093E+3   9.08229E+3
   1.62131E+3   8.88231E+3
   1.61034E+3   8.64668E+3
   1.60470E+3   8.46152E+3
   1.61247E+3   8.33744E+3
   1.55478E+3   8.09657E+3
   1.55702E+3   7.87254E+3
   1.47687E+3   7.66884E+3
   1.48623E+3   7.52315E+3
   1.35157E+3   7.25756E+3
   1.43967E+3   7.08885E+3
   1.30300E+3   6.83874E+3
   1.22286E+3   6.72057E+3
   1.12430E+3   6.48940E+3
   1.08939E+3   6.27411E+3
   1.00548E+3   6.12054E+3
   9.94410E+2   5.89572E+3
   9.19043E+2   5.63914E+3
   8.11882E+2   5.53367E+3
   7.72652E+2   5.30012E+3
   6.74069E+2   5.12169E+3
   5.63081E+2   4.91639E+3
   5.20540E+2   4.69367E+3
   4.35858E+2   4.53993E+3
   3.21307E+2   4.40157E+3
   2.98231E+2   4.21379E+3
   2.93985E+2   4.14933E+3
   3.44392E+1   3.95163E+3
  -5.02702E+1   3.79079E+3
  -1.30947E+2   3.63803E+3
  -1.68326E+2   3.52133E+3
  -2.64750E+2   3.29564E+3
  -3.49440E+2   3.16091E+3
  -4.39350E+2   3.07784E+3
  -5.20639E+2   2.91773E+3
  -6.09272E+2   2.74375E+3
  -6.91340E+2   2.66211E+3
  -8.08077E+2   2.56945E+3
  -8.96765E+2   2.45603E+3
  -9.60638E+2   2.34458E+3
  -1.10899E+3   2.28081E+3
  -1.15693E+3   2.22581E+3
  -1.25364E+3   2.09277E+3
  -1.31585E+3   1.99165E+3
  -1.42632E+3   1.89152E+3
  -1.46876E+3   1.85753E+3
  -1.60049E+3   1.75479E+3
  -1.63919E+3   1.74567E+3
  -1.79199E+3   1.67460E+3
  -1.88140E+3   1.56348E+3
  -1.90768E+3   1.55002E+3
  -1.97462E+3   1.47730E+3
  -2.10758E+3   1.47076E+3
  -2.18972E+3   1.33149E+3
  -2.23677E+3   1.38854E+3
  -2.34849E+3   1.34760E+3
  -2.42313E+3   1.25135E+3
  -2.54398E+3   1.33663E+3
  -2.61525E+3   1.25119E+3
  -2.62631E+3   1.22176E+3
  -2.80500E+3   1.22559E+3
  -2.80899E+3   1.25067E+3
  -2.95182E+3   1.15945E+3
  -2.96197E+3   1.20557E+3
  -3.02229E+3   1.14420E+3
  -3.08348E+3   1.17178E+3
  -3.16056E+3   1.15206E+3
  -3.23887E+3   1.23261E+3
  -3.28162E+3   1.15208E+3
  -3.29480E+3   1.11817E+3
  -3.36480E+3   1.16948E+3
  -3.45234E+3   1.22158E+3
  -3.49795E+3   1.15421E+3
  -3.41421E+3   1.16624E+3
  -3.56673E+3   1.20787E+3
  -3.58027E+3   1.20066E+3
  -3.58769E+3   1.23530E+3
  -3.65624E+3   1.23165E+3
  -3.64787E+3   1.32458E+3
  -3.64780E+3   1.31407E+3
  -3.68947E+3   1.35052E+3
  -3.63664E+3   1.33737E+3
  -3.66519E+3   1.40886E+3
  -3.72702E+3   1.33971E+3
  -3.72453E+3   1.41163E+3
  -3.77078E+3   1.45355E+3
  -3.78895E+3   1.45289E+3
  -3.75311E+3   1.51358E+3
  -3.75196E+3   1.57860E+3
  -3.71999E+3   1.57611E+3
  -3.71496E+3   1.55877E+3
  -3.67275E+3   1.54730E+3
  -3.73708E+3   1.62127E+3
  -3.70907E+3   1.69956E+3
  -3.71139E+3   1.70882E+3
  -3.64357E+3   1.76389E+3
  -3.69189E+3   1.78905E+3
  -3.61263E+3   1.81453E+3
  -3.58589E+3   1.91958E+3
  -3.53424E+3   1.92703E+3
  -3.58944E+3   1.98112E+3
  -3.50385E+3   2.05581E+3
  -3.53111E+3   2.07067E+3
  -3.46877E+3   2.07396E+3
  -3.40218E+3   2.11778E+3
  -3.39298E+3   2.11115E+3
  -3.43357E+3   2.24942E+3
  -3.35496E+3   2.22097E+3
  -3.34105E+3   2.23469E+3
  -3.26251E+3   2.32967E+3
  -3.22290E+3   2.35837E+3
  -3.23433E+3   2.34528E+3
  -3.09631E+3   2.42333E+3
  -3.10535E+3   2.37097E+3
  -3.03434E+3   2.39275E+3
  -2.97347E+3   2.49730E+3
  -2.96187E+3   2.45185E+3
  -2.88800E+3   2.47497E+3
  -2.89852E+3   2.52778E+3
  -2.86428E+3   2.49561E+3
  -2.77208E+3   2.52769E+3
  -2.74521E+3   2.58724E+3
  -2.64995E+3   2.62861E+3
  -2.57832E+3   2.52223E+3
  -2.53946E+3   2.62882E+3
  -2.54824E+3   2.60697E+3
  -2.39854E+3   2.62539E+3
  -2.33628E+3   2.67276E+3
  -2.30366E+3   2.65340E+3
  -2.26211E+3   2.65127E+3
  -2.17388E+3   2.67245E+3
  -2.06692E+3   2.69273E+3
  -2.03044E+3   2.70972E+3
  -2.01105E+3   2.66198E+3
  -1.98631E+3   2.69352E+3
  -1.85724E+3   2.74289E+3
  -1.77123E+3   2.72043E+3
  -1.72824E+3   2.71449E+3
  -1.67373E+3   2.74761E+3
  -1.55980E+3   2.77210E+3
  -1.46553E+3   2.75238E+3
  -1.41592E+3   2.72544E+3
  -1.36182E+3   2.77730E+3
  -1.35577E+3   2.73096E+3
  -1.17638E+3   2.72751E+3
  -1.19040E+3   2.70220E+3
  -1.12322E+3   2.67764E+3
  -1.03904E+3   2.63448E+3
  -9.88819E+2   2.66460E+3
  -9.35270E+2   2.70535E+3
  -8.72548E+2   2.61380E+3
  -8.21607E+2   2.63701E+3
  -7.47370E+2   2.63612E+3
  -6.18097E+2   2.66097E+3
  -5.74266E+2   2.58686E+3
  -4.88056E+2   2.59856E+3
  -4.48675E+2   2.57528E+3
  -4.72233E+2   2.51751E+3
  -3.82271E+2   2.53012E+3
  -2.77898E+2   2.52701E+3
  -2.11200E+2   2.46710E+3
  -2.14186E+2   2.43400E+3
  -1.78127E+2   2.45577E+3
  -1.03307E+2   2.48566E+3
   2.66621E+1   2.39779E+3
   6.41762E+0   2.41746E+3
   8.03372E+1   2.29124E+3
   1.59410E+2   2.29937E+3
   1.52576E+2   2.24879E+3
   2.12191E+2   2.25948E+3
   2.55487E+2   2.17904E+3
   3.03145E+2   2.20545E+3
   3.76901E+2   2.07606E+3
   4.47750E+2   2.14745E+3
   4.89256E+2   2.00368E+3
   5.09546E+2   1.96449E+3
   5.60402E+2   1.96906E+3
   5.96881E+2   1.99958E+3
   6.29600E+2   1.96072E+3
   6.76391E+2   1.90616E+3
   7.06266E+2   1.86863E+3
   7.75927E+2   1.83994E+3
   7.98409E+2   1.75125E+3
   8.03303E+2   1.76438E+3
   8.31125E+2   1.72426E+3
   9.21760E+2   1.71357E+3
   8.72823E+2   1.63110E+3
   9.70430E+2   1.59178E+3
   9.84078E+2   1.48440E+3
   1.01538E+3   1.51730E+3
   1.07097E+3   1.48824E+3
   1.12630E+3   1.43625E+3
   1.09289E+3   1.33538E+3
   1.16254E+3   1.37646E+3
   1.19098E+3   1.36796E+3
   1.22636E+3   1.33984E+3
   1.23746E+3   1.24222E+3
   1.27493E+3   1.16689E+3
   1.24771E+3   1.19548E+3
   1.35820E+3   1.16003E+3
   1.37141E+3   1.13755E+3
   1.41059E+3   1.06339E+3
   1.38581E+3   1.00352E+3
   1.38317E+3   1.02115E+3
   1.40817E+3   9.09020E+2
   1.39335E+3   8.59177E+2
   1.42783E+3   9.45893E+2
   1.45129E+3   8.29480E+2
   1.43555E+3   8.08728E+2
   1.48919E+3   7.43588E+2
   1.48834E+3   8.06493E+2
   1.47225E+3   6.92005E+2
   1.48666E+3   7.15134E+2
   1.44687E+3   6.01036E+2
   1.51514E+3   5.69564E+2
   1.51173E+3   5.24488E+2
   1.51390E+3   5.90678E+2
   1.52441E+3   5.15591E+2
   1.49362E+3   4.86314E+2
   1.56394E+3   4.36233E+2
   1.49361E+3   4.25079E+2
   1.53863E+3   3.74607E+2
   1.51955E+3   3.12908E+2
   1.56021E+3   3.19994E+2
   1.57493E+3   2.97324E+2
   1.55435E+3   2.62599E+2
   1.49308E+3   3.12568E+2
   1.55964E+3   1.94523E+2
   1.56414E+3   1.84209E+2
   1.45832E+3   1.03069E+2
   1.43220E+3   1.65861E+2
   1.45503E+3   1.01816E+2
   1.50174E+3   1.72678E+1
   1.46258E+3   9.79400E+1
   1.54615E+3   3.64694E+1
   1.54426E+3  -6.90040E+1
   1.49779E+3  -7.72609E+1
   1.42110E+3  -1.37959E+2
   1.45792E+3  -4.34930E+1
   1.41276E+3  -8.16194E+1
   1.51416E+3  -6.47356E+1
   1.38462E+3  -1.85703E+2
   1.39679E+3  -2.00071E+2
   1.44098E+3  -1.88883E+2
   1.51194E+3  -1.97027E+2
   1.38203E+3  -2.21619E+2
   1.35432E+3  -2.21651E+2
   1.42900E+3  -2.39198E+2
   1.39050E+3  -3.13744E+2
   1.36679E+3  -2.83197E+2
