 
 $NMID
 ID=''
 FMTDAT='(2E13.5)'
 TRAMP=   1.00000E+0
 VOLUME=   1.00000E+0
 $END
   7.96146E+1  -5.02414E+2
   2.95684E+2  -5.69888E+2
  -2.61277E+3  -1.30950E+3
  -2.59646E+3   2.95247E+3
  -2.14279E+2   2.90928E+3
   1.36525E+3   9.85650E+2
   2.48492E+3  -5.86008E+2
  -1.34396E+3  -1.67270E+3
  -3.60251E+1   3.71105E+3
   3.52728E+3   1.68065E+3
  -1.33149E+3  -6.05596E+2
  -6.97883E+2  -2.79584E+3
  -1.29344E+3  -2.47157E+2
   2.19067E+3   8.29816E+2
   2.44555E+2  -1.17156E+3
  -2.61765E+3  -3.47564E+1
  -1.16648E+3  -2.45860E+3
   8.97697E+2   2.99879E+3
  -1.35617E+3   6.74417E+2
  -1.01334E+3   1.04255E+3
   2.23203E+2  -2.24411E+2
   2.27566E+2  -4.57909E+2
   2.03453E+3   4.95815E+2
  -4.16349E+2  -1.27930E+3
  -1.39422E+3  -1.97256E+3
   2.53626E+3   2.42947E+2
   5.13707E+2  -1.18937E+3
  -1.92479E+2  -2.32115E+2
  -2.64283E+2   1.88014E+3
  -2.35607E+3   1.06145E+2
  -5.24118E+2  -1.81605E+3
   1.66270E+3  -1.94942E+3
   1.04959E+3   2.24649E+3
   1.24002E+2   1.52933E+3
  -5.97905E+2   7.95583E+2
   7.35883E+2  -4.05213E+2
  -1.88550E+3  -1.61657E+3
  -1.78033E+3   1.37817E+3
  -9.41564E+2  -7.83371E+1
  -1.33237E+2   6.73491E+2
   2.66978E+3  -2.78068E+2
   1.62837E+3   1.43200E+3
   6.11912E+2   2.09903E+3
   1.15328E+2   1.48995E+3
  -9.19086E+2  -2.10964E+2
  -1.76156E+3  -1.16971E+3
  -2.43941E+3  -6.10390E+2
   7.56805E+2   5.08003E+1
  -2.36991E+2   9.82131E+2
   3.06788E+1  -1.08711E+3
   2.14776E+3   5.63079E+2
   4.48777E+2   1.05051E+3
  -2.46506E+3   1.75376E+2
  -2.34934E+3  -2.06819E+3
  -2.09369E+2  -3.21633E+3
  -1.03314E+1  -1.69492E+3
   2.54173E+3  -1.83126E+3
   2.29253E+3  -1.68456E+3
   3.79380E+3   1.76648E+3
  -2.57928E+2   3.17074E+3
  -1.83211E+3   3.03701E+3
  -1.10538E+2   1.17414E+3
   1.82590E+3  -8.13109E+2
   2.74246E+3   1.87826E+2
  -1.70291E+3  -1.94680E+2
  -3.83920E+3  -5.04250E+2
   1.32475E+2   1.14256E+3
  -2.95760E+3  -1.27986E+3
   1.43286E+2   4.44079E+1
   2.47768E+2  -1.06491E+3
  -3.80310E+2  -2.89729E+1
  -4.76404E+2  -1.13648E+3
  -1.43715E+3  -1.43947E+3
  -9.52082E+1  -1.28370E+3
  -2.18204E+2  -2.74825E+3
  -8.25200E+2  -2.75475E+3
   4.05844E+2   4.74271E+2
  -1.88104E+2   8.20221E+2
  -7.57466E+2   2.90232E+2
   3.13335E+2  -5.91251E+2
  -5.58683E+1   8.79630E+2
   9.29313E+2   1.51002E+3
   1.70465E+3  -1.45465E+2
  -9.36190E+2  -8.69727E+2
  -1.53773E+2  -1.12584E+3
   1.31871E+2   7.15441E+2
  -1.89711E+2  -3.86199E+2
   6.26439E+2   1.75989E+3
  -2.46863E+2   6.71927E+2
  -6.32414E+2  -1.40087E+3
  -8.10347E+2   6.47849E+2
  -1.31451E+3  -3.93485E+2
  -1.63576E+3  -3.25695E+2
  -1.15008E+3  -8.73641E+2
  -2.29424E+2   1.43829E+3
  -2.67813E+2   2.42668E+3
  -8.29118E+2   2.66747E+3
   2.99002E+2   1.23361E+3
  -5.03738E+2  -1.30334E+3
   1.60493E+3  -1.06201E+3
   9.15227E+2   2.10562E+2
   3.00325E+3   1.80547E+3
   6.47328E+2   1.43874E+3
   2.68492E+2   1.82432E+3
   1.70724E+3   1.24429E+2
   1.70107E+3   1.16862E+3
   1.35002E+3   4.48613E+2
  -5.37233E+1   7.02094E+2
   8.10024E+2  -3.23783E+3
   1.49492E+3  -1.41023E+3
   5.48477E+2  -9.30477E+2
   1.90588E+3   1.24523E+3
  -8.05430E-1  -1.85412E+2
   1.52281E+3   3.58164E+2
  -1.50837E+3   1.13369E+3
  -5.67352E+2  -5.54170E+2
  -2.24166E+2   1.73621E+3
  -5.94093E+2   8.59303E+2
   8.73837E+2   2.19033E+2
  -1.20125E+3   1.87015E+2
   1.66926E+2  -5.87403E+2
  -3.22613E+2  -6.45074E+2
   3.50048E+2   1.31425E+3
   5.32531E+2   8.63903E+2
  -6.28980E+2   5.17357E+2
  -3.43749E+2  -6.90916E+2
   4.44433E+2   1.10600E+3
   9.05921E+2  -6.61820E+2
   6.66892E+0   1.27403E+3
  -1.11665E+3  -9.77317E+2
   2.71621E+2   8.68634E+2
  -6.07972E+2   1.96614E+3
   4.46888E+2  -1.03162E+2
   1.56471E+2   6.25496E+2
   1.00209E+3  -1.17902E+3
  -3.22711E+2  -3.28049E+2
   6.88039E+2   5.06511E+2
  -6.59587E+2  -5.66430E+2
  -5.42935E+2   1.70714E+3
  -1.47052E+3   2.67524E+3
  -8.73875E+1  -7.08028E+2
   6.73744E+2  -3.02681E+1
   1.53910E+3   1.81023E+3
   4.06274E+2  -1.40530E+3
  -7.67313E+2   2.47392E+2
  -1.74854E+2  -1.77388E+3
  -1.40761E+3  -3.73768E+2
  -6.52216E+2  -6.97586E+2
   6.02720E+2   4.56300E+2
   2.22492E+2  -8.38002E+2
  -7.39004E+2   1.10156E+3
   2.11392E+2   9.26343E+2
  -9.92081E+2   8.44828E+2
  -1.63338E+3   9.06430E+2
   8.75360E+1  -2.38863E+1
   5.11186E+2   2.06321E+3
  -1.15261E+3  -1.00833E+2
  -5.73479E+2   1.05827E+3
  -3.50499E+2   1.16977E+2
   1.16707E+3  -7.47755E+2
  -6.67933E+2   8.65302E+1
  -1.28461E+3  -4.84581E+2
   1.98635E+3   1.20532E+3
  -9.22458E+2   5.38428E+1
  -1.46149E+3   2.05728E+2
  -6.96034E+2  -4.07479E+1
  -5.02322E+2  -4.90012E+2
   6.75369E+2  -9.69322E+1
  -8.64961E+2  -7.20017E+2
   1.64873E+3   6.51516E+2
   2.14231E+3   7.47051E+2
   2.28455E+3  -2.16057E+2
   2.30052E+2   1.45620E+3
   9.18056E+2   1.67515E+2
  -7.33477E+2   7.72040E+2
  -1.39032E+3  -1.13710E+2
   5.77390E+2  -2.88244E+3
   1.38695E+3   9.14933E+2
  -8.60009E+2   2.26218E+2
  -7.89922E+2   1.15454E+3
   6.22676E+2   8.24727E+2
   3.84360E+2  -1.50472E+2
   1.53866E+3   2.40567E+2
   2.80691E+3  -1.72557E+3
   2.10882E+3   6.06926E+2
   6.66135E+2  -2.15755E+2
  -1.23361E+3  -6.81744E+2
   2.26572E+3   5.95228E+2
   1.05901E+3   1.03960E+3
   1.10914E+3  -8.51800E+2
   7.79423E+2   3.76256E+2
   4.89746E+2  -1.06696E+3
   1.42537E+3  -3.45527E+2
   6.69217E+2  -3.56298E+2
  -1.50234E+2  -4.15171E+2
   1.33570E+3  -9.84707E+1
  -7.62051E+2   1.27642E+3
   6.45062E+2  -1.53396E+2
  -5.72694E+2   2.89944E+2
   1.51083E+3   1.77456E+3
   1.06243E+3   1.04700E+3
  -1.26068E+3  -4.15778E+2
  -1.76369E+3   8.47844E+2
   1.24575E+3   1.78281E+2
   1.41643E+2   2.81709E+1
  -4.99341E+2  -4.98463E+2
  -2.15625E+3  -9.06890E+2
   1.03819E+3  -9.02116E+2
   1.09606E+3  -1.93150E+3
   2.61088E+2  -8.31828E+2
   9.34664E+2  -2.08301E+3
   1.49920E+2  -1.67616E+2
  -1.66964E+3  -1.39115E+3
  -6.23063E+2  -6.55587E+2
  -1.03546E+3  -1.33934E+3
  -1.81221E+2  -1.90461E+3
  -1.70367E+3  -1.13899E+3
  -7.73043E+2   8.15414E+2
   1.17475E+3   2.35718E+3
   6.95440E+2  -7.52328E+2
  -7.63951E+2   2.17345E+3
  -1.81086E+2  -2.29483E+2
  -1.54807E+3   1.22185E+3
   2.48718E+3  -2.00934E+3
  -1.85838E+3   4.99394E+2
  -1.07950E+3  -9.95510E+2
  -1.61055E+1  -2.06282E+3
  -2.37432E+3  -9.34105E+2
  -7.01702E+2  -1.85382E+2
  -2.91471E+2  -1.16161E+3
  -3.36857E+2   3.31883E+2
   3.34247E+2  -1.77695E+2
  -5.49735E+2  -1.51017E+2
  -1.48913E+2  -1.16626E+3
  -6.37287E+2  -1.36999E+3
   1.35750E+3  -5.38351E+2
   6.28047E+2  -9.14831E+2
  -5.06482E+2  -8.45034E+2
   7.92270E+2  -7.71050E+2
   1.50664E+3  -2.79602E+2
  -1.13898E+3  -9.25133E+2
   4.37589E+0   2.91298E+2
  -8.79023E+2  -1.00862E+3
   3.18312E+2  -2.54277E+3
   1.77727E+3   6.60852E+1
   2.24991E+3   5.93126E+2
   1.12437E+3  -8.53798E+2
  -6.29952E+2   6.61897E+2
  -6.49291E+2  -4.51361E+2
   1.67381E+3  -1.27603E+3
  -5.91354E+2   1.82804E+3
  -6.75155E+1   1.70927E+3
  -1.04995E+3   1.88836E+3
  -3.67770E+2   4.51639E+2
   1.13567E+3   4.23056E+2
   1.58284E+3   4.20970E+2
   1.34857E+3  -2.49620E+2
  -6.58209E+2  -1.10755E+3
   1.45492E+3  -1.29830E+3
   7.03847E+2  -5.72711E+2
  -2.68582E+3   8.10868E+2
   6.90609E+2  -3.78168E+2
   2.30675E+2  -2.29203E+3
   9.46762E+2   1.46952E+3
  -9.32491E+2   1.07194E+3
   1.02015E+3   2.33745E+2
   6.96249E+2   8.56634E+2
  -7.09580E+2   1.09174E+2
  -6.42847E+2  -1.49599E+2
  -3.64019E+2  -9.02626E+2
  -4.69365E+2  -1.75480E+3
   4.23104E+2  -8.13212E+2
  -1.70497E+3  -1.45097E+2
   1.75745E+3  -1.42982E+3
  -8.12104E+2  -1.41650E+3
  -2.49589E+2   1.09106E+3
  -1.61674E+3   2.68582E+2
  -5.16080E+2   1.00432E+3
  -2.99180E+2   2.88876E+2
   3.18015E+1   4.68197E+2
   4.04761E+2   1.59257E+2
  -7.53907E+2  -5.78924E+2
  -1.06265E+3  -6.91195E+2
   1.05684E+3  -1.63474E+3
  -5.66308E+2   1.30820E+3
   2.77351E+2   4.04357E+2
   1.21399E+3   2.77534E+2
   1.38345E+3   1.28840E+2
  -2.43923E+3  -1.36751E+3
  -3.76675E+2   4.63290E+2
   3.39575E+2  -3.94508E+1
   1.53762E+3   1.93294E+2
   9.52619E+2  -4.58778E+2
   8.17795E+2  -1.76455E-1
   7.73167E+2  -5.96061E+2
  -1.98158E+3   7.34900E+1
  -1.42675E+3   4.22389E+2
   1.20846E+2  -1.88322E+2
   3.25900E+2  -1.72726E+3
  -1.73075E+3  -8.80003E+1
   7.90813E+2   6.03631E+2
  -1.61798E+3  -1.36297E+3
   6.17598E+2  -1.78355E+2
  -1.93146E+3  -2.14433E+2
   3.38499E+2  -1.73668E+3
  -2.05610E+3  -1.07689E+2
   6.40972E+2  -1.37729E+3
   5.68095E+1   1.25399E+3
  -4.03109E+2  -2.91414E+2
   3.33055E+2  -1.77592E+2
  -1.52502E+3   1.23357E+3
   1.62005E+3  -1.41921E+3
   4.90965E+2  -7.66321E+2
   1.87376E+3   2.57600E+2
   5.38571E+2   1.93782E+2
   5.24637E+2  -5.96638E+2
  -9.71723E+2  -2.85632E+3
   1.15983E+3   1.34142E+3
   1.24049E+2  -1.22663E+2
   1.33813E+3   4.15229E+2
  -3.93396E+1  -2.10809E+3
  -9.14241E+2  -2.63446E+2
  -1.20603E+3  -1.35551E+3
   4.34685E+2  -1.01887E+3
   6.06073E+2  -3.49813E+2
   5.83461E+2   1.22792E+3
  -1.95843E+1  -2.73647E+1
   2.21167E+2   3.71777E+2
   1.26435E+3  -1.36202E+3
   5.80078E+2   2.33386E+3
  -1.42674E+3  -1.92651E+3
   1.34777E+3  -7.22908E+2
   9.33559E+2   3.61360E+2
  -2.32698E+3  -8.69134E+2
  -8.77290E+2   1.52160E+2
  -2.63815E+2  -1.35772E+3
  -7.19370E+1   9.30183E+2
   1.69275E+3  -9.74210E+2
   1.50043E+3   3.77026E+2
   1.06544E+3  -7.14859E+2
   2.04488E+2  -1.53885E+2
  -8.93871E+2  -8.89041E+2
  -5.06719E+2   9.75924E+0
   1.41655E+2   7.74395E+2
  -1.58868E+2  -1.64380E+3
  -3.21993E+2  -1.02325E+2
   3.91324E+2  -1.21642E+3
  -8.24975E+1   8.43013E+1
   5.28820E+2  -1.84994E+3
  -7.61825E+2   5.74077E+2
   3.61016E+2  -2.49838E+2
   1.16196E+2   2.33932E+3
  -1.22170E+3   7.15224E+2
   5.04658E+2  -4.33438E+2
   2.86459E+2  -9.68266E+2
  -3.87363E+2  -1.02871E+2
  -1.09783E+3  -6.91565E+2
   4.72952E+2  -9.63726E+2
   1.78959E+2  -1.14105E+3
  -4.29358E+2  -1.33031E+3
  -6.85606E+2  -4.61650E+1
  -1.45921E+3  -2.34287E+3
   1.02970E+3   1.70156E+2
   1.33166E+3   1.34274E+3
  -4.12426E+2   7.87899E+2
   9.94776E+2  -1.56684E+2
   5.04409E+2   8.64627E+2
