 
 $NMID
 ID=''
 FMTDAT='(2E13.5)'
 TRAMP=   1.00000E+0
 VOLUME=   1.00000E+0
 $END
   1.95607E+2   1.24581E+2
  -1.50083E+3   9.87286E+2
   2.96024E+3   2.14637E+2
   8.82276E+2   3.16203E+2
  -5.02076E+2  -2.08132E+3
   3.71040E+1   1.83022E+3
  -1.22016E+3   5.47327E+2
  -3.39398E+2  -9.45011E+2
  -1.25125E+1  -2.83567E+2
  -5.85302E+2  -1.43226E+2
   3.21309E+3   9.38574E+2
   9.47506E+2   3.17929E+3
  -1.98221E+3   3.93319E+3
  -2.23831E+3   1.43510E+2
  -8.31251E+1   8.68886E+1
   2.27410E+3   4.57585E+2
   3.95491E+3   2.76431E+3
  -9.27399E+2   9.86560E+2
   3.64460E+1   1.38642E+3
   3.08061E+3   8.10852E+1
   3.55715E+3   6.92875E+2
  -4.04094E+2   3.83664E+3
  -1.68902E+3   2.36588E+3
   2.13802E+3  -4.55430E+3
   3.60277E+3  -1.48746E+3
   2.37827E+2   2.88414E+3
  -3.25774E+1  -1.45283E+3
  -1.23986E+3  -3.44657E+3
   3.75109E+3  -5.08882E+3
   7.70682E+3   3.23915E+2
  -5.77342E+2   5.63895E+3
  -6.12262E+3  -3.17396E+2
  -4.29535E+3  -4.01492E+3
   1.06410E+3  -3.17654E+3
  -2.87303E+3  -2.05468E+3
  -7.60645E+2  -4.42117E+3
   3.79274E+3  -3.38202E+3
  -2.45114E+2   2.50553E+3
  -2.22866E+3   1.89139E+3
  -7.31446E+2   2.37285E+3
  -3.51273E+3   3.06689E+3
  -4.02373E+3  -1.25594E+3
   8.86098E+2  -3.78311E+3
   2.35911E+3   1.63612E+3
   1.20519E+3   4.36811E+3
  -2.72221E+2   6.99641E+2
   2.36888E+2   1.93622E+3
  -1.68427E+3   2.88249E+3
  -1.55691E+3   7.10178E+2
  -2.55685E+3  -1.30040E+3
  -1.28479E+3  -4.87739E+3
   4.52120E+3  -3.09280E+3
   1.23412E+3   2.99997E+2
  -1.31903E+2   1.74118E+3
  -3.60515E+3   8.12100E+2
  -2.14231E+3   1.16503E+3
  -5.23957E+3  -1.85618E+3
  -5.62300E+3  -4.77609E+3
   1.10319E+2  -5.33638E+3
   1.37290E+3  -2.81478E+2
   4.28915E+3   3.32502E+2
   2.10526E+3   2.23198E+3
  -7.70594E+2   2.05206E+3
   3.81839E+2  -1.53281E+3
   2.25681E+3  -8.37905E+2
   1.86886E+3   2.71108E+3
  -2.52340E+3   2.16523E+3
  -1.28438E+3  -2.33008E+3
  -4.08853E+2  -4.12121E+2
   5.13537E+1   1.33982E+2
  -2.07901E+3   4.14059E+1
   4.51511E+2  -1.14531E+3
  -4.04335E+2   5.74194E+2
   5.85289E+1   1.21334E+3
   8.95158E+2   1.31422E+3
   8.77108E+2   2.99756E+3
   3.31013E+2  -4.60192E+2
   3.59856E+3  -1.31774E+3
   2.40993E+3   2.22530E+3
  -1.11881E+3   2.49117E+3
  -2.20522E+3   1.10524E+3
  -6.57425E+2  -1.52869E+3
   1.49282E+1   8.51303E+2
   1.40384E+3   1.63470E+3
  -1.58987E+3  -8.59496E+2
   3.18674E+2  -2.99643E+2
   1.14324E+3  -1.90254E+3
   4.43097E+3   2.53211E+3
   3.05691E+3   1.33238E+3
   3.16078E+2   5.13715E+2
  -6.21291E+2  -1.46704E+3
  -1.74121E+2   2.09719E+3
  -1.82492E+2   1.23430E+3
  -6.41823E+2   1.36163E+3
   1.71918E+1  -1.78039E+3
   7.91266E+2  -9.66516E+2
  -2.34598E+2  -1.26257E+2
  -1.31710E+2   1.96883E+3
  -2.67361E+3   1.20001E+3
  -2.00569E+3   1.11977E+3
   1.74438E+3   8.64317E+2
   2.62660E+3   3.79594E+3
   1.17405E+3   1.75778E+3
   4.92765E+2   4.11606E+2
   5.60984E+2  -1.55012E+3
   9.21494E+2   7.09379E+1
   2.57058E+3  -3.26585E+1
   3.67406E+2   1.85415E+2
   5.79484E+2   4.53629E+2
   3.50486E+2  -6.93210E+2
  -2.71055E+0   1.19588E+3
  -2.82011E+3   3.61876E+2
   1.27126E+2   9.07881E+2
  -6.19700E+2  -1.13997E+3
  -1.19630E+3  -6.65895E+2
  -8.06327E+2  -1.44225E+3
   3.11610E+2  -8.66806E+2
  -1.78041E+3  -1.34797E+3
  -4.77719E+2  -4.68230E+2
  -1.41993E+3  -1.44346E+3
   7.69526E+1  -3.84729E+2
  -1.03552E+3  -5.83780E+2
  -1.11634E+3  -1.31119E+3
  -9.07746E+2   4.34997E+2
  -1.51663E+3  -7.21135E+2
  -2.34838E+3   2.11489E+1
  -1.99057E+2  -5.80553E+2
   1.57401E+2   1.28555E+3
  -1.93101E+2   6.30352E+2
  -4.12229E+2  -2.60660E+2
   7.54508E+2   5.79449E+2
   2.25148E+2  -3.34053E+3
  -1.30267E+2  -4.25649E+2
   1.61642E+2   4.87900E+2
  -1.68944E+3  -9.88898E+2
  -1.28148E+3  -4.14915E+3
  -1.48266E+3  -2.81192E+3
   3.57618E+2  -2.03912E+3
  -6.95962E+1  -4.04939E+2
  -1.19883E+3  -6.79444E+2
  -9.22496E+0  -8.89053E+2
   2.05169E+3   1.82106E+3
  -3.35817E+2   1.68729E+3
  -3.02657E+2  -5.23641E+2
  -1.98161E+2  -1.82631E+3
  -1.54044E+3  -7.57291E+2
   6.59921E+1   1.09210E+3
  -4.90380E+2  -2.28440E+3
   2.68540E+3   1.28134E+3
  -1.23952E+3  -1.32541E+3
  -4.22652E+0  -3.97912E+3
   9.62547E+2  -1.70232E+3
  -1.51200E+2  -6.79448E+2
  -5.81991E+2  -5.28058E+2
  -3.45050E+2   8.54374E+1
  -1.18490E+3  -1.36905E+3
  -6.37472E+2   1.23990E+3
   1.83664E+2  -6.00240E+0
   2.28274E+2  -3.86028E+2
   2.12378E+2  -1.31745E+3
   1.00473E+3   6.63333E+2
   1.32667E+3  -9.21312E+2
   5.08486E+2   1.07633E+3
   8.70985E+2   4.81125E+2
   2.90206E+2   9.91385E+2
  -2.54518E+2   9.98005E+2
   1.11533E+3   2.73850E+3
   1.71385E+2  -8.41506E+1
   3.12088E+2  -1.27486E+2
  -1.94705E+3   1.74666E+3
  -1.07295E+3   6.08943E+2
  -1.72234E+3   1.94619E+3
  -2.42708E+2   1.14903E+3
  -1.09391E+3   1.57903E+2
  -1.59508E+3  -5.49195E+2
   7.07726E+2   9.83157E+2
  -1.77867E+3  -9.19578E+2
  -2.86560E+2   7.00115E+2
  -2.76286E+2  -1.15197E+3
   3.08096E+3   2.06633E+3
   2.59947E+2   7.09052E+2
   7.84286E+2  -1.15907E+3
  -7.18546E+2  -2.21335E+3
   1.54994E+2   9.64607E+2
  -1.39219E+3  -2.55549E+2
   9.73149E+2   9.18026E+2
  -1.17610E+3   1.57802E+2
  -1.74220E+3   9.15554E+2
   1.62453E+2  -6.97169E+2
   6.90294E+2  -1.49477E+2
   1.82773E+3   5.16305E+1
  -1.07857E+3  -9.46547E+2
   4.29667E+0   7.60600E+2
  -1.66183E+2   6.73589E+2
  -8.45746E+2  -5.55903E+2
   1.42441E+3  -6.45778E+2
   4.03013E+2   3.52432E+2
  -9.77531E+2  -1.24745E+3
   1.75717E+3   4.43715E+2
  -3.97604E+2  -8.64868E+1
   2.64956E+2   3.23936E+2
   3.67141E+3   7.60443E+2
   1.57209E+3   7.43079E+2
   1.35750E+3   1.12054E+3
   6.27599E+2   3.12217E+2
   2.01176E+3  -1.86658E+3
  -3.34115E+2   2.43923E+3
  -1.11184E+2  -4.68695E+2
   2.52363E+2  -1.50528E+3
   4.60258E+2   6.30867E+2
   8.05188E+2   5.58368E+2
   1.47100E+3  -7.50479E+2
   1.69792E+2   2.62603E+2
   7.63330E+2  -1.87067E+2
  -1.20622E+3   1.15885E+3
   1.52034E+2   7.97844E+2
  -1.85102E+2   7.49160E+2
   1.79401E+3  -8.97495E+1
   1.93507E+3   7.32759E+2
   9.37697E+2   1.05975E+3
   3.79306E+2  -4.68032E+2
   7.62674E+2   5.15841E+2
   1.19320E+3  -6.54105E+2
  -8.75119E+2   5.12588E+2
   2.65768E+3   4.70113E+2
   8.08324E+2   6.18521E+1
  -1.48046E+3  -1.93667E+2
   2.16116E+2  -1.21191E+3
   6.45347E+2   1.20853E+3
   6.58689E+2   1.66019E+2
   3.19136E+2   2.65669E+2
  -2.11848E+3  -1.33137E+3
   1.18462E+2  -1.84870E+3
   2.06878E+3   7.19221E+2
  -1.29544E+3  -4.39023E+2
  -3.12043E+2   6.81078E+2
  -4.51978E+2   1.14643E+2
   3.64360E+2  -2.01835E+3
   6.77475E+2  -1.91941E+3
  -1.18758E+3  -5.40315E+2
   1.24429E+2  -1.36936E+2
   2.30080E+3  -2.05732E+3
   6.88823E+2   8.60184E+2
   1.21533E+3  -2.20981E+2
   1.22615E+3  -8.23452E+2
   6.16260E+2   9.29481E+2
  -5.50601E+2   1.05383E+3
   1.80163E+3   9.83241E+2
  -1.58503E+3  -1.16223E+3
   3.07194E+2  -4.75660E+2
  -4.00683E+2   1.30926E+3
   6.47359E+2   7.50342E+1
  -2.09232E+2   4.61944E+2
  -2.86029E+2   2.13584E+2
   3.64720E+2   1.16266E+3
  -7.40820E+2   1.07845E+2
   5.35543E+2  -2.04161E+3
   1.80349E+3   1.06413E+3
  -1.45676E+2  -1.34759E+3
  -1.86403E+2  -4.92884E+2
  -1.81145E+2   6.20407E+2
   4.98322E+2   4.61969E+2
  -1.04304E+3   1.68364E+3
  -1.04120E+1  -2.69640E+2
   2.57915E+2   1.89596E+2
  -7.57029E+2  -2.68977E+3
  -1.11376E+3   2.13820E+2
  -8.22283E+2  -9.71977E+2
   7.21709E+2  -1.14701E+3
  -5.25383E+2   2.00560E+3
   1.36795E+3   4.59382E+2
   6.60377E+2   1.69948E+3
   1.14358E+3   7.76894E+1
   1.74405E+3  -8.03822E+2
  -7.41414E+2   8.98749E+1
   5.02891E+2  -1.55497E+3
   9.21021E+2   6.47946E+1
  -1.59534E+2   1.82281E+1
   1.03030E+3  -4.36403E+2
   3.57148E+1  -7.18601E+2
   2.28296E+2   8.25777E+2
  -4.05637E+2   1.06379E+3
  -5.65661E+2   9.77874E+1
   2.82853E+2  -1.17898E+3
   1.84793E+2  -9.90890E+2
   2.35822E+1   1.62434E+2
  -2.86848E+2  -7.97319E+2
   9.56041E+2  -6.27282E+2
   6.68591E+0  -1.12711E+3
   3.23691E+2   2.37784E+2
  -4.49269E+2   1.43104E+3
   2.66238E+2   4.70481E+2
  -2.73320E+3   5.93583E+2
   4.74219E+2  -5.27330E+2
  -1.40512E+3  -1.00375E+3
   1.90224E+3  -8.06208E+2
   4.55954E+0  -1.36911E+3
   4.41193E+2  -4.59943E+2
   1.74911E+3   2.77325E+2
   3.42748E+2   2.05068E+2
  -6.06783E+1  -5.24060E+2
  -2.25916E+3  -2.69470E+2
   9.56795E+2  -1.23946E+3
  -7.11252E+2   1.37096E+3
   5.81976E+2  -4.07608E+2
  -1.04373E+3  -8.05345E+2
   8.71243E+2   3.30131E+2
   1.70230E+3  -2.51619E+2
  -3.93247E+2   7.02312E+2
  -1.59220E+3   1.23810E+3
   7.32116E+2   1.60953E+3
   1.37735E+3   1.57796E+3
   1.93506E+3  -1.04319E+3
  -7.67658E+2  -1.18721E+3
   8.58388E+2  -6.95203E+2
   3.81610E+2  -1.70601E+3
  -9.91308E+2  -7.00786E+2
  -5.47711E+2  -5.26618E+1
  -6.93527E+2   3.66140E+2
   1.71959E+2  -1.39522E+3
  -1.81340E+3   1.57058E+3
  -1.63142E+3   1.65114E+2
  -7.95537E+2   4.12034E+2
   8.74800E+2   8.37556E+2
   4.40621E+2  -9.69593E+2
  -7.47905E+1   1.27730E+3
   1.29816E+3   4.85951E+2
  -6.10471E+2   3.47769E+2
  -1.68086E+1   1.14547E+3
   3.11837E+1  -2.29023E+3
  -1.30430E+3  -8.95520E+2
  -8.81570E+2  -1.59476E+3
  -2.85249E+3   5.89906E+2
   8.43671E+1   9.27042E+1
   1.67206E+3  -6.29270E+2
   8.80992E+2  -7.68826E+2
  -7.13810E+1   1.25758E+3
  -1.75649E+3  -1.45515E+3
  -8.60471E+2  -6.73669E+2
  -4.79182E+2   8.17831E+2
   5.21229E+2   1.48207E+3
  -1.12671E+3   9.57256E+1
   2.45560E+3  -1.49711E+3
   9.13080E+1  -1.01568E+3
  -6.95570E+2  -3.30611E+1
   1.99265E+3   6.59602E+2
   1.26415E+3  -1.06618E+3
   1.63858E+3  -7.17743E+1
   1.25926E+3   1.77780E+3
  -8.09802E+2  -5.07845E+2
   1.48377E+2  -1.83160E+2
   4.16520E+2   8.27932E+2
   8.60007E+2  -9.77853E+2
   2.20209E+2  -4.73927E+2
   5.62650E+2   1.13666E+3
   5.99102E+2   4.91131E+2
  -8.78687E+2   4.99024E+2
  -1.58270E+3   1.03462E+3
  -1.84134E+3   1.47638E+2
   4.01434E+2  -3.71711E+2
  -3.42902E+2   2.10080E+3
  -2.32943E+2  -4.55405E+1
  -3.18046E+1  -4.67477E+2
   1.46249E+3  -1.31910E+3
  -2.64382E+3   1.14374E+3
   3.54128E+3   1.59771E+3
  -6.52717E+2  -6.63264E+2
