 
 $NMID
 ID=''
 FMTDAT='(2E13.5)'
 TRAMP=   1.00000E+0
 VOLUME=   1.00000E+0
 $END
   8.20211E+2  -3.96629E+2
   3.14546E+2   2.01228E+3
   4.07565E+3  -4.77213E+3
  -4.09287E+1  -1.45672E+3
  -2.76243E+3  -1.04932E+3
  -5.53849E+2  -4.91826E+2
  -2.58063E+3   9.88503E+2
  -1.65760E+3  -3.94713E+1
  -1.88118E+2  -2.38568E+3
   2.09675E+3  -2.45397E+3
   1.14814E+3  -2.73269E+2
   1.55576E+3   1.23390E+3
  -1.40966E+3   2.65554E+2
  -6.60980E+3   2.13739E+3
  -3.36864E+3  -7.05834E+2
  -3.42129E+3  -7.42956E+2
   2.59129E+3   2.31064E+3
   1.99265E+3   3.75177E+3
   8.85963E+1   4.33120E+3
  -3.69898E+2   2.31022E+3
   4.70587E+3  -1.28386E+3
   3.68290E+3   4.22661E+3
  -3.17305E+3   6.19398E+3
  -1.65898E+3  -2.99495E+3
   6.62984E+3  -1.88529E+3
   3.44691E+3   3.07127E+3
  -1.97070E+3   5.11323E+2
   8.09089E+1  -4.19094E+3
   2.14816E+3  -5.35226E+3
   4.85395E+3  -7.94331E+2
   3.62563E+3   1.91896E+3
  -3.69187E+3   4.00682E+3
  -6.12106E+3  -2.19725E+3
  -7.59888E+2  -1.89638E+3
  -3.13594E+2  -1.47822E+1
  -4.93435E+3  -4.30478E+3
   8.30061E+2  -4.45616E+3
   2.86951E+3  -1.47657E+2
   5.96843E+2   2.95103E+3
  -6.50742E+1   8.49527E+2
  -2.88318E+3   2.17600E+3
  -6.00361E+3  -1.45978E+3
  -2.96443E+3  -5.25370E+3
   3.36022E+3  -1.59884E+3
   2.85979E+3   1.19593E+3
   1.95214E+3   1.55937E+3
   1.77881E+3   1.63893E+3
  -3.70531E+2   3.91048E+3
  -6.89242E+1   4.01602E+2
  -1.04296E+3  -7.56516E+2
  -1.59495E+3  -9.40794E+2
   5.59541E+2  -3.70726E+3
   2.36756E+3   2.11239E+2
   2.80308E+3   2.08066E+3
  -1.67305E+3   3.80770E+3
  -1.69393E+3  -3.88220E+2
  -3.28847E+3   2.21304E+3
  -3.43934E+3   5.43439E+2
  -2.36733E+3  -3.94367E+3
   2.25295E+3  -3.79322E+3
   3.52401E+3   4.30503E+2
   2.46701E+3   1.37879E+3
   1.69147E+3   5.26129E+3
  -7.52060E+2   1.75682E+3
   1.47134E+2  -4.80564E+2
   2.47403E+3   1.34970E+3
  -1.28707E+3   5.30287E+3
  -3.45596E+3   1.05787E+3
   2.25252E+2  -1.01780E+3
   5.35817E+2  -1.96229E+3
  -4.31327E+1   1.14823E+3
  -3.31301E+3   2.92708E+3
  -3.04932E+3  -2.13352E+3
  -1.30800E+3  -3.66671E+3
   2.57705E+3  -3.35519E+3
   9.95276E+2   1.62856E+3
  -1.66142E+3   2.97586E+2
   2.84063E+2  -2.34399E+3
   1.24790E+3   3.38391E+2
   7.31760E+2   2.87849E+3
  -6.12798E+2  -4.37292E+2
  -2.02598E+3  -2.91759E+3
  -2.57927E+3   7.06338E+2
  -8.41608E+2  -1.16628E+2
  -3.87865E+2   2.76498E+2
  -3.71595E+3  -1.23363E+3
  -1.58028E+3  -4.90815E+3
   3.28902E+3  -3.73585E+3
   6.28417E+3  -1.00237E+3
  -8.71094E+2   5.66128E+2
  -6.62316E+2   2.60868E+2
   1.56697E+3  -1.25338E+3
   2.13745E+2   1.38203E+3
  -9.40306E+2   2.85409E+3
  -2.16595E+3   1.72877E+1
  -5.48245E+2  -8.27746E+2
   5.60806E+3   1.14849E+3
  -4.02222E+2   1.75177E+3
  -3.51553E+3   1.98597E+3
  -2.08076E+3   3.75413E+1
  -6.70665E+2  -3.73202E+3
   4.86468E+3  -1.39834E+3
   2.12518E+3   1.63692E+3
  -2.36048E+3   4.02715E+3
  -1.00274E+3  -1.12528E+2
  -5.82284E+2   9.44311E+1
   2.64814E+3   4.88111E+2
  -1.55518E+3  -3.44547E+3
  -2.70239E+3  -1.55093E+3
   2.56788E+3  -2.54225E+3
   3.88253E+3  -1.33206E+3
   1.52813E+3   2.65722E+3
   1.06430E+3   2.30127E+3
   1.67985E+1   2.82680E+3
  -1.63305E+3   1.85596E+3
  -2.41371E+3  -1.65285E+2
  -1.63759E+3  -4.26362E+2
  -5.38283E+1  -1.99030E+3
   2.41371E+3  -4.11199E+1
  -9.02013E+2   6.23309E+2
  -7.51805E+2   1.10333E+3
  -1.38159E+3  -3.34976E+2
  -1.11872E+3   6.53902E+2
  -1.11609E+3  -1.22705E+3
   1.41921E+3   1.89425E+3
   8.27536E+2  -2.72880E+3
   3.47071E+2   5.68676E+2
   3.82811E+2   1.58806E+3
  -8.30216E+2  -1.25815E+3
  -1.55289E+3   1.13096E+3
  -1.42951E+3  -2.02812E+3
  -2.49117E+2  -1.01260E+3
  -9.77978E+2   2.17017E+2
  -2.30917E+2   3.39231E+3
  -1.66355E+3   2.73517E+3
  -2.97120E+3   1.22891E+3
  -2.21715E+3  -1.14541E+3
  -2.38700E+3  -2.33957E+3
  -2.00155E+1  -6.47552E+2
   6.27101E+1  -1.91280E+3
   3.64970E+2  -2.43621E+3
   2.36996E+2  -2.16762E+3
   6.01254E+2   3.00457E+3
  -9.49087E+2   3.01847E+3
  -1.61945E+3  -8.74640E+2
   1.02788E+3  -1.09271E+2
  -3.21140E+2  -1.85493E+3
   1.01847E+3  -3.74856E+2
   3.72710E+2   6.01267E+1
   1.43117E+1   5.81236E+2
   1.82589E+3  -3.36578E+2
  -8.88990E+1  -4.36329E+2
  -7.55608E+2  -6.87310E+2
   9.22172E+2  -1.50863E+3
   2.79287E+3  -1.56141E+3
   1.63601E+3   6.28903E+2
   2.81380E+2   8.71083E+2
   7.06258E+2   1.78337E+3
   6.17428E+2  -5.14378E+2
   1.49311E+3   1.81137E+3
   1.37171E+3   6.47791E+2
   1.07412E+3   1.36697E+3
  -1.45794E+2   3.54382E+2
  -4.95366E+2   1.27117E+3
   1.04677E+2  -6.30105E+2
  -1.41868E+3   7.34899E+2
   1.22177E+3   7.82897E+2
   3.38641E+3  -2.18825E+3
   1.92776E+3   2.86930E+2
  -1.70706E+3   1.43093E+3
  -7.29363E+2  -7.30710E+1
  -4.67911E+2  -1.05745E+2
   1.75969E+3  -2.14994E+3
   1.33618E+3  -1.70235E+3
   1.38228E+3  -1.69318E+2
   1.38790E+3  -1.04596E+3
   1.37454E+3   8.56478E+1
   2.72237E+2   2.07889E+3
  -1.11914E+3   6.39708E+2
  -1.37979E+3   6.18193E+1
  -1.55477E+3  -1.16601E+3
   2.74685E+2  -4.95906E+2
   7.41761E+2   1.73237E+3
   3.73292E+2   3.31937E+2
   1.79822E+3  -2.21217E+2
   1.92128E+3  -1.00403E+3
  -1.23598E+3   4.51729E+2
  -3.50406E+3  -1.95501E+3
  -7.68372E+2  -1.86810E+3
   1.49968E+3  -2.04582E+3
   2.25627E+3   3.24583E+2
   2.08406E+3   8.85879E+2
   1.65608E+3   1.05381E+2
  -1.09300E+3   4.59108E+2
  -1.12867E+3   1.32013E+2
  -7.04599E+1  -3.46405E+2
  -3.86064E+1   1.50342E+2
  -7.06903E+2   2.86711E+2
   7.15503E+2  -2.28928E+3
   1.74385E+3   1.60607E+3
  -5.48525E+2   1.67159E+3
  -1.54525E+3  -6.81592E+1
  -2.54506E+3  -1.87756E+2
   2.54887E+3  -4.23477E+3
   2.74195E+3   1.32546E+3
   2.07187E+3   6.90720E+2
  -2.24049E+2  -4.70131E+2
   1.15104E+3  -1.21542E+3
   1.02725E+3  -1.79836E+3
  -7.37334E+2   8.69980E+2
   1.64338E+2   1.51786E+3
   8.72750E+2  -1.35613E+3
   1.35967E+3  -1.41569E+3
  -4.45189E+2   1.28307E+3
   3.36185E+2   2.53575E+3
  -1.62147E+2   1.70663E+3
  -1.16600E+3  -6.77571E+2
  -7.55701E+1   4.76201E+2
   5.20506E+2   1.40297E+2
   1.73011E+3   1.30046E+3
  -1.33182E+2  -8.48445E+2
  -1.09792E+3   3.79437E+2
   1.59423E+3  -3.98205E+2
   3.78847E+2  -1.93327E+3
  -1.86432E+3  -6.22916E+1
   6.47876E+2  -1.09464E+2
  -1.20678E+3   7.69810E+2
   7.36283E+1   8.09382E+2
  -1.02047E+3   1.36781E+3
  -3.49323E+2   1.00150E+3
   9.21923E+2   4.52090E+2
   6.20249E+2  -4.85964E+2
   4.94595E+2  -8.66932E+2
  -3.50244E+2  -5.84688E+2
   5.58121E+2  -9.87176E+2
   1.73745E+3   6.76097E+2
   8.53104E+2   1.53889E+3
  -1.93169E+3   3.09424E+2
  -5.72308E+2  -1.90510E+3
   7.97339E+2  -2.06691E+3
   1.35812E+3   1.17292E+2
   7.49716E+2  -1.48671E+2
   6.06021E+2   1.47306E+3
   1.14554E+3   1.60198E+2
   2.66023E+3  -9.62406E+2
   1.70750E+2   8.22252E+1
  -5.10651E+2  -8.66698E+2
  -7.63417E+1  -1.11581E+3
   1.12439E+3   8.65458E+2
   1.78428E+3   3.34031E+2
   6.21547E+2   3.25339E+3
   7.68225E+2   1.20124E+2
   1.66752E+2  -6.86743E+2
   6.94180E+2  -7.87614E+2
  -6.86221E+1   7.00724E+2
  -3.36080E+2   1.59148E+3
   2.31080E+3   1.40407E+3
   1.37405E+3   4.51227E+2
   5.99425E+2   6.66709E+2
  -2.94518E+0   2.79420E+3
  -4.92408E+2   1.08902E+3
   5.64808E+2   1.56658E+3
   6.32674E+2   3.11011E+2
   1.31994E+3   1.61548E+3
  -2.22130E+3   8.35470E+2
  -4.27742E+2  -2.51183E+3
   1.36542E+3   1.17422E+3
  -1.84495E+3   3.13787E+2
  -5.87143E+2   2.90509E+2
   1.03266E+3  -1.06860E+3
   2.56735E+3  -3.08023E+3
   2.54149E+3   1.57102E+3
   5.56557E+2   1.37045E+3
   1.22778E+3   2.00699E+3
  -8.88574E+2  -4.65330E+2
  -8.75367E+2  -1.03182E+3
   1.28070E+3   9.69836E+2
   8.35222E+2  -2.75317E+2
  -7.94737E+1   1.08804E+1
   3.65979E+2  -2.75731E+1
   1.80861E+3  -4.04526E+0
   1.80341E+3   5.53496E+2
  -5.78724E+2  -4.87431E+2
   1.19099E+3  -1.35946E+3
   1.24594E+2  -1.02005E+3
   1.80470E+3   1.18066E+3
   9.59632E+2  -8.11273E+2
  -1.08793E+3  -2.37467E+3
   1.48801E+3  -4.32483E+0
   1.94279E+3   1.98097E+3
   1.85221E+3   2.04871E+3
  -5.60625E+2   6.06902E+2
   1.82774E+3   1.67549E+2
  -5.50704E+2  -4.62953E+2
   1.00852E+2   1.33229E+3
  -1.50042E+3   2.67367E+2
   2.03225E+2  -2.93295E+1
   2.82033E+2   1.85847E+2
  -4.94099E+2   1.15107E+3
   3.22224E+2   1.27145E+3
  -3.68274E+2  -1.17996E+3
  -5.37520E+2  -7.46635E+2
  -2.50666E+2  -8.74866E+2
   3.15938E+2   4.66244E+2
  -7.98685E+2   1.08475E+3
   9.21754E+2  -9.92893E+2
   7.53503E+2   1.18393E+3
   2.79457E+1   7.27818E+2
  -8.03090E+2   2.48007E+3
  -5.79063E+2   3.30742E+2
   6.63519E+2   1.17182E+3
   5.88179E+2  -2.31979E+2
   4.61076E+2   1.61285E+2
  -4.84237E+2  -9.76739E+2
  -1.31291E+2  -9.68359E+1
   1.90581E+3  -3.94328E+2
   9.24418E+1   1.65443E+3
  -1.69579E+3  -6.06318E+2
   1.39107E+2  -1.49233E+1
   9.20653E+1  -1.18326E+3
  -4.34993E+1  -9.51313E+2
   8.16866E+2  -4.19531E+2
  -1.99366E+3   3.67594E+2
   4.38922E+2  -1.61518E+3
  -1.20151E+3   1.26308E+3
  -2.32221E+3  -1.42516E+3
   6.50783E+2   7.69727E+2
  -2.73315E+2  -6.43675E+2
   8.38659E+2  -2.25946E+3
   1.34647E+3   1.66860E+3
   5.91768E+2   1.33739E+3
  -1.35906E+3   4.33563E+2
  -7.12037E+2  -7.34750E+2
  -1.32382E+3   9.07044E+2
   1.18480E+3   4.53231E+2
  -1.35702E+2   3.86266E+1
  -2.04639E+3  -3.22807E+2
  -1.26111E+3   1.39886E+3
   9.39846E+1   1.29639E+3
  -2.84915E+3   1.65382E+3
  -1.51209E+3   1.30402E+3
   5.13665E+2  -4.45786E+2
   1.04477E+3  -1.59072E+3
   8.58907E+1   1.44346E+3
  -2.16210E+3   7.82361E+2
  -2.03939E+3  -9.23051E+2
   4.18124E+2  -4.48398E+2
   4.18004E+2  -5.18219E+1
  -7.34936E+2  -2.59150E+2
   7.19553E+2   3.35290E+2
  -6.36504E+2  -1.26229E+2
   5.34280E+2   8.03681E+2
   4.49215E+2   6.11249E+2
  -3.57031E+2   9.78800E+2
  -2.02883E+3  -2.29294E+3
   7.41369E+2  -2.78725E+3
   1.33068E+3   1.26915E+3
  -8.03995E+2   6.69020E+1
   6.82277E+2   1.01068E+2
  -9.64111E+2  -1.58822E+3
   1.21872E+3  -6.43951E+2
   2.93682E+2  -5.95699E+1
   1.22327E+2  -2.73803E+2
  -2.45734E+2  -1.78497E+3
   2.06047E+2  -1.06220E+3
   1.81590E+3  -2.52114E+2
  -6.25937E+2  -7.05402E+2
