 
 $NMID
 ID=''
 FMTDAT='(2E13.5)'
 TRAMP=   1.00000E+0
 VOLUME=   1.00000E+0
 $END
  -5.11362E+3   1.83135E+4
  -2.67130E+4   4.12076E+4
  -1.96929E+4   4.46278E+4
  -1.91042E+4   4.06854E+4
  -2.16428E+4   4.14330E+4
  -2.04894E+4   4.18596E+4
  -2.09898E+4   3.96109E+4
  -2.28130E+4   3.95269E+4
  -2.23031E+4   3.95300E+4
  -2.28317E+4   3.78483E+4
  -2.42028E+4   3.74536E+4
  -2.38154E+4   3.73700E+4
  -2.41939E+4   3.60520E+4
  -2.54215E+4   3.55759E+4
  -2.55027E+4   3.51663E+4
  -2.57401E+4   3.40282E+4
  -2.67813E+4   3.35190E+4
  -2.68499E+4   3.30812E+4
  -2.71635E+4   3.20291E+4
  -2.80106E+4   3.14048E+4
  -2.80975E+4   3.08572E+4
  -2.82779E+4   3.00526E+4
  -2.90078E+4   2.95146E+4
  -2.91736E+4   2.87716E+4
  -2.93291E+4   2.78471E+4
  -2.97703E+4   2.72225E+4
  -2.99346E+4   2.65925E+4
  -3.02635E+4   2.55303E+4
  -3.06514E+4   2.47707E+4
  -3.07120E+4   2.41334E+4
  -3.07666E+4   2.34254E+4
  -3.11462E+4   2.28773E+4
  -3.14306E+4   2.21765E+4
  -3.14364E+4   2.13553E+4
  -3.17472E+4   2.07652E+4
  -3.18297E+4   2.01198E+4
  -3.18892E+4   1.94263E+4
  -3.20883E+4   1.87391E+4
  -3.20956E+4   1.81932E+4
  -3.21169E+4   1.74793E+4
  -3.23526E+4   1.67920E+4
  -3.24549E+4   1.60849E+4
  -3.24725E+4   1.52259E+4
  -3.24655E+4   1.44963E+4
  -3.23939E+4   1.39490E+4
  -3.23922E+4   1.32181E+4
  -3.23865E+4   1.25184E+4
  -3.23209E+4   1.19848E+4
  -3.22766E+4   1.13393E+4
  -3.22914E+4   1.07033E+4
  -3.22112E+4   1.00005E+4
  -3.21313E+4   9.47758E+3
  -3.19653E+4   8.87358E+3
  -3.17860E+4   8.39440E+3
  -3.17783E+4   7.80298E+3
  -3.16496E+4   7.27378E+3
  -3.15953E+4   6.66811E+3
  -3.15164E+4   6.10631E+3
  -3.13485E+4   5.47236E+3
  -3.11449E+4   4.85279E+3
  -3.09448E+4   4.46471E+3
  -3.07789E+4   3.86596E+3
  -3.05694E+4   3.42739E+3
  -3.05310E+4   2.84563E+3
  -3.02330E+4   2.27868E+3
  -3.00679E+4   1.83518E+3
  -2.98364E+4   1.39220E+3
  -2.97078E+4   8.94326E+2
  -2.93342E+4   3.50649E+2
  -2.91550E+4  -1.37799E+2
  -2.89581E+4  -5.92206E+2
  -2.87350E+4  -1.06564E+3
  -2.84857E+4  -1.47343E+3
  -2.81715E+4  -1.92814E+3
  -2.79384E+4  -2.29827E+3
  -2.77349E+4  -2.73340E+3
  -2.74669E+4  -3.20138E+3
  -2.72240E+4  -3.70130E+3
  -2.69293E+4  -3.99739E+3
  -2.66910E+4  -4.41009E+3
  -2.64374E+4  -4.80454E+3
  -2.61854E+4  -5.21397E+3
  -2.58620E+4  -5.59485E+3
  -2.55397E+4  -5.98477E+3
  -2.51581E+4  -6.40925E+3
  -2.48175E+4  -6.86605E+3
  -2.44876E+4  -7.19186E+3
  -2.40810E+4  -7.60501E+3
  -2.37893E+4  -7.89646E+3
  -2.34842E+4  -8.25499E+3
  -2.31943E+4  -8.56922E+3
  -2.28161E+4  -8.95410E+3
  -2.24266E+4  -9.23202E+3
  -2.22118E+4  -9.51565E+3
  -2.17889E+4  -9.86296E+3
  -2.13625E+4  -1.01740E+4
  -2.09285E+4  -1.04026E+4
  -2.06425E+4  -1.07098E+4
  -2.03454E+4  -1.10047E+4
  -1.98927E+4  -1.12922E+4
  -1.93965E+4  -1.15057E+4
  -1.90267E+4  -1.17223E+4
  -1.85928E+4  -1.19274E+4
  -1.82477E+4  -1.21847E+4
  -1.78780E+4  -1.24163E+4
  -1.74354E+4  -1.26087E+4
  -1.69810E+4  -1.27927E+4
  -1.66434E+4  -1.29286E+4
  -1.61639E+4  -1.31700E+4
  -1.57675E+4  -1.32138E+4
  -1.52771E+4  -1.33912E+4
  -1.49360E+4  -1.34764E+4
  -1.45285E+4  -1.36079E+4
  -1.41171E+4  -1.37341E+4
  -1.36632E+4  -1.38916E+4
  -1.33088E+4  -1.39753E+4
  -1.29045E+4  -1.40456E+4
  -1.24930E+4  -1.41032E+4
  -1.20150E+4  -1.41578E+4
  -1.16651E+4  -1.41930E+4
  -1.12935E+4  -1.42407E+4
  -1.08483E+4  -1.42368E+4
  -1.03922E+4  -1.42615E+4
  -1.00042E+4  -1.43421E+4
  -9.61936E+3  -1.42701E+4
  -9.31555E+3  -1.43751E+4
  -8.82024E+3  -1.43257E+4
  -8.48845E+3  -1.42057E+4
  -8.16628E+3  -1.42053E+4
  -7.80331E+3  -1.41992E+4
  -7.38924E+3  -1.42335E+4
  -7.00444E+3  -1.40515E+4
  -6.61012E+3  -1.39975E+4
  -6.37396E+3  -1.40184E+4
  -6.01443E+3  -1.39230E+4
  -5.61282E+3  -1.38427E+4
  -5.39629E+3  -1.37175E+4
  -4.99991E+3  -1.36202E+4
  -4.75301E+3  -1.35650E+4
  -4.36523E+3  -1.35082E+4
  -4.12517E+3  -1.33772E+4
  -3.80796E+3  -1.32965E+4
  -3.51239E+3  -1.31084E+4
  -3.30353E+3  -1.29900E+4
  -2.93630E+3  -1.28094E+4
  -2.77365E+3  -1.26922E+4
  -2.40641E+3  -1.25502E+4
  -2.25870E+3  -1.24935E+4
  -1.94936E+3  -1.23820E+4
  -1.70081E+3  -1.21959E+4
  -1.42667E+3  -1.20964E+4
  -1.14394E+3  -1.18610E+4
  -1.01382E+3  -1.17459E+4
  -7.63256E+2  -1.15452E+4
  -5.73301E+2  -1.14193E+4
  -3.68704E+2  -1.12036E+4
  -2.03446E+2  -1.10321E+4
   5.51806E-1  -1.09597E+4
   2.11605E+2  -1.08028E+4
   3.65031E+2  -1.05767E+4
   5.71010E+2  -1.03929E+4
   7.29097E+2  -1.02127E+4
   8.83645E+2  -1.00954E+4
   1.06552E+3  -9.90158E+3
   1.17496E+3  -9.71782E+3
   1.37081E+3  -9.52528E+3
   1.45771E+3  -9.37429E+3
   1.60270E+3  -9.15809E+3
   1.70912E+3  -9.02335E+3
   1.91172E+3  -8.86810E+3
   1.99705E+3  -8.67049E+3
   2.14870E+3  -8.50233E+3
   2.19597E+3  -8.29814E+3
   2.34729E+3  -8.09978E+3
   2.37696E+3  -7.96972E+3
   2.46820E+3  -7.77420E+3
   2.54216E+3  -7.64018E+3
   2.58762E+3  -7.49443E+3
   2.68118E+3  -7.30896E+3
   2.82071E+3  -7.18622E+3
   2.87205E+3  -6.99194E+3
   2.87494E+3  -6.80242E+3
   3.00032E+3  -6.66682E+3
   3.05261E+3  -6.51703E+3
   3.07481E+3  -6.35602E+3
   3.12007E+3  -6.18770E+3
   3.17428E+3  -6.01993E+3
   3.20408E+3  -5.87170E+3
   3.32559E+3  -5.74751E+3
   3.29992E+3  -5.60603E+3
   3.35363E+3  -5.44926E+3
   3.41345E+3  -5.27575E+3
   3.39424E+3  -5.19839E+3
   3.50936E+3  -5.00558E+3
   3.47563E+3  -4.87815E+3
   3.46806E+3  -4.73749E+3
   3.55463E+3  -4.59389E+3
   3.58420E+3  -4.45998E+3
   3.63832E+3  -4.38116E+3
   3.58715E+3  -4.23180E+3
   3.59377E+3  -4.02523E+3
   3.64198E+3  -3.94099E+3
   3.69798E+3  -3.83233E+3
   3.64714E+3  -3.76429E+3
   3.62042E+3  -3.58050E+3
   3.66105E+3  -3.46828E+3
   3.72755E+3  -3.38384E+3
   3.66853E+3  -3.18376E+3
   3.67435E+3  -3.09762E+3
   3.59678E+3  -2.97418E+3
   3.69463E+3  -2.93070E+3
   3.63951E+3  -2.79680E+3
   3.58829E+3  -2.65839E+3
   3.64137E+3  -2.53689E+3
   3.59951E+3  -2.54506E+3
   3.61435E+3  -2.41220E+3
   3.65060E+3  -2.27207E+3
   3.55600E+3  -2.13089E+3
   3.62441E+3  -2.06417E+3
   3.56928E+3  -1.95544E+3
   3.53505E+3  -1.83533E+3
   3.53931E+3  -1.74689E+3
   3.55391E+3  -1.69297E+3
   3.48642E+3  -1.61759E+3
   3.42307E+3  -1.52392E+3
   3.45316E+3  -1.38353E+3
   3.46217E+3  -1.23664E+3
   3.36723E+3  -1.25761E+3
   3.42067E+3  -1.15279E+3
   3.35008E+3  -1.12473E+3
   3.26524E+3  -1.08244E+3
   3.32245E+3  -9.26569E+2
   3.23451E+3  -8.45156E+2
   3.25528E+3  -8.26404E+2
   3.17346E+3  -7.59754E+2
   3.12789E+3  -6.97892E+2
   3.07741E+3  -6.99719E+2
   3.11133E+3  -5.85049E+2
   3.08522E+3  -6.37888E+2
   3.04702E+3  -4.79466E+2
   3.01352E+3  -4.87466E+2
   3.02238E+3  -3.80662E+2
   2.99165E+3  -3.63903E+2
   2.97439E+3  -3.20709E+2
   2.90135E+3  -2.96166E+2
   2.92252E+3  -2.84930E+2
   2.93502E+3  -2.51791E+2
   2.89368E+3  -1.54283E+2
   2.77967E+3  -1.27952E+2
   2.76019E+3  -1.56954E+2
   2.72641E+3  -9.77995E+1
   2.79831E+3  -1.70280E+1
   2.70345E+3   7.32271E+0
   2.71307E+3  -3.32241E+1
   2.59480E+3   2.33497E+1
   2.67947E+3   4.36362E+1
   2.63380E+3   9.56216E+1
   2.60212E+3   1.62075E+2
   2.55501E+3   1.71938E+2
   2.58567E+3   2.26903E+2
   2.53004E+3   2.35008E+2
   2.53101E+3   2.66136E+2
   2.51399E+3   2.90396E+2
   2.52454E+3   2.56956E+2
   2.44531E+3   3.07389E+2
   2.53819E+3   3.30664E+2
   2.47516E+3   4.36653E+2
   2.41770E+3   4.37922E+2
   2.37898E+3   4.75159E+2
   2.42626E+3   4.69337E+2
   2.35098E+3   4.75369E+2
   2.34807E+3   5.17636E+2
   2.26589E+3   5.71929E+2
   2.31281E+3   4.89732E+2
   2.28546E+3   5.31956E+2
   2.17500E+3   5.98140E+2
   2.21161E+3   6.12091E+2
   2.18765E+3   6.25353E+2
   2.16765E+3   6.11590E+2
   2.07593E+3   6.06021E+2
   2.10114E+3   6.36330E+2
   1.98728E+3   6.46896E+2
   2.06242E+3   6.47769E+2
   2.03135E+3   6.85907E+2
   2.04982E+3   7.20756E+2
   1.99862E+3   7.34739E+2
   1.98164E+3   7.28796E+2
   1.92404E+3   7.11897E+2
   1.91305E+3   7.90114E+2
   1.93486E+3   8.25562E+2
   1.83761E+3   7.85399E+2
   1.83885E+3   8.15911E+2
   1.87462E+3   7.47742E+2
   1.84773E+3   7.75560E+2
   1.80548E+3   7.96708E+2
   1.79776E+3   7.58153E+2
   1.77980E+3   8.09222E+2
   1.74297E+3   7.35816E+2
   1.67880E+3   7.86991E+2
   1.67515E+3   7.51486E+2
   1.69739E+3   8.29189E+2
   1.60930E+3   7.96360E+2
   1.61972E+3   8.26033E+2
   1.54742E+3   7.95646E+2
   1.55296E+3   7.97126E+2
   1.54346E+3   8.76983E+2
   1.60181E+3   7.91581E+2
   1.45960E+3   7.84419E+2
   1.50267E+3   8.34561E+2
   1.42830E+3   7.80087E+2
   1.41799E+3   8.76562E+2
   1.48100E+3   7.78906E+2
   1.41670E+3   8.51891E+2
   1.37742E+3   7.96829E+2
   1.36706E+3   8.31112E+2
   1.32031E+3   8.35238E+2
   1.29012E+3   8.25513E+2
   1.26523E+3   8.56616E+2
   1.30752E+3   8.23529E+2
   1.28044E+3   8.17213E+2
   1.28419E+3   7.95271E+2
   1.28228E+3   7.60515E+2
   1.21634E+3   7.99179E+2
   1.26882E+3   7.40027E+2
   1.20180E+3   7.59821E+2
   1.20413E+3   7.88440E+2
   1.11954E+3   8.14816E+2
   1.15369E+3   7.69077E+2
   1.12923E+3   7.59733E+2
   1.08716E+3   7.78104E+2
   1.16014E+3   7.46291E+2
   1.01137E+3   7.05037E+2
   1.09546E+3   7.24359E+2
   9.90032E+2   7.90283E+2
   9.75593E+2   6.88250E+2
   1.03421E+3   7.18182E+2
   1.00098E+3   6.93345E+2
   9.66619E+2   7.04439E+2
   1.01063E+3   6.95559E+2
   9.17548E+2   7.54090E+2
   9.27090E+2   6.78856E+2
   1.03010E+3   6.21986E+2
   9.57641E+2   7.44754E+2
   9.72568E+2   6.48875E+2
   8.97999E+2   7.13104E+2
   8.19437E+2   6.28493E+2
   8.68169E+2   6.17970E+2
   8.93666E+2   6.77930E+2
   8.39091E+2   6.45178E+2
   8.17189E+2   6.69819E+2
   7.51954E+2   6.75463E+2
   8.15880E+2   6.63936E+2
   7.54248E+2   6.21763E+2
   8.21288E+2   6.39469E+2
   7.81087E+2   5.70935E+2
   8.21604E+2   6.97864E+2
   7.24454E+2   6.36309E+2
   7.47859E+2   6.30375E+2
   7.19665E+2   5.20490E+2
   6.98484E+2   6.09630E+2
   7.21871E+2   6.01696E+2
   6.67134E+2   5.74226E+2
   7.25056E+2   6.51527E+2
   7.01621E+2   6.43095E+2
   6.52184E+2   6.23173E+2
   6.58539E+2   6.34587E+2
   6.70067E+2   5.13978E+2
