 
 $NMID
 ID=''
 FMTDAT='(2E13.5)'
 TRAMP=   1.00000E+0
 VOLUME=   1.00000E+0
 $END
  -1.50818E+4   1.58671E+4
  -4.89522E+4   2.82861E+4
  -4.31236E+4   3.61323E+4
  -3.97739E+4   3.31200E+4
  -4.22959E+4   3.30034E+4
  -4.08060E+4   3.48024E+4
  -3.97444E+4   3.29639E+4
  -4.12092E+4   3.26323E+4
  -4.03354E+4   3.36485E+4
  -3.95236E+4   3.25377E+4
  -4.02232E+4   3.22877E+4
  -3.92341E+4   3.30505E+4
  -3.84482E+4   3.24545E+4
  -3.90605E+4   3.21179E+4
  -3.83896E+4   3.25332E+4
  -3.76186E+4   3.18919E+4
  -3.79409E+4   3.17116E+4
  -3.73366E+4   3.19525E+4
  -3.67072E+4   3.14993E+4
  -3.69458E+4   3.12907E+4
  -3.64383E+4   3.14469E+4
  -3.57814E+4   3.12580E+4
  -3.59677E+4   3.11255E+4
  -3.56676E+4   3.11706E+4
  -3.50973E+4   3.08641E+4
  -3.50454E+4   3.08754E+4
  -3.49421E+4   3.09376E+4
  -3.45506E+4   3.05080E+4
  -3.45331E+4   3.03403E+4
  -3.41352E+4   3.04047E+4
  -3.37362E+4   3.02590E+4
  -3.36559E+4   3.02498E+4
  -3.34893E+4   3.02335E+4
  -3.31093E+4   3.00305E+4
  -3.29322E+4   3.00806E+4
  -3.25697E+4   3.01126E+4
  -3.22532E+4   2.99550E+4
  -3.18976E+4   2.99182E+4
  -3.15664E+4   3.01110E+4
  -3.12404E+4   3.00150E+4
  -3.10874E+4   3.00446E+4
  -3.08877E+4   2.99675E+4
  -3.06419E+4   2.97751E+4
  -3.03035E+4   2.96360E+4
  -2.99526E+4   2.96247E+4
  -2.97149E+4   2.95859E+4
  -2.95683E+4   2.94528E+4
  -2.92699E+4   2.94420E+4
  -2.89899E+4   2.94013E+4
  -2.88719E+4   2.93167E+4
  -2.86548E+4   2.92167E+4
  -2.84220E+4   2.90612E+4
  -2.81006E+4   2.90460E+4
  -2.79187E+4   2.90800E+4
  -2.77269E+4   2.89923E+4
  -2.75288E+4   2.89150E+4
  -2.73546E+4   2.88728E+4
  -2.72250E+4   2.87297E+4
  -2.70956E+4   2.84892E+4
  -2.68496E+4   2.84677E+4
  -2.66406E+4   2.83088E+4
  -2.64583E+4   2.82366E+4
  -2.63513E+4   2.81742E+4
  -2.63036E+4   2.80128E+4
  -2.60682E+4   2.79024E+4
  -2.59020E+4   2.77533E+4
  -2.58169E+4   2.77976E+4
  -2.56953E+4   2.75831E+4
  -2.55898E+4   2.73990E+4
  -2.54802E+4   2.72153E+4
  -2.53179E+4   2.71298E+4
  -2.52098E+4   2.70169E+4
  -2.49831E+4   2.67856E+4
  -2.48670E+4   2.65849E+4
  -2.46726E+4   2.64860E+4
  -2.44601E+4   2.62448E+4
  -2.43554E+4   2.60926E+4
  -2.42059E+4   2.59536E+4
  -2.40168E+4   2.57515E+4
  -2.38605E+4   2.56293E+4
  -2.37486E+4   2.54959E+4
  -2.36030E+4   2.52035E+4
  -2.34189E+4   2.51364E+4
  -2.32785E+4   2.48659E+4
  -2.31395E+4   2.47559E+4
  -2.30058E+4   2.43943E+4
  -2.28884E+4   2.41515E+4
  -2.26503E+4   2.39976E+4
  -2.24211E+4   2.38692E+4
  -2.22561E+4   2.37304E+4
  -2.20611E+4   2.34552E+4
  -2.18498E+4   2.32693E+4
  -2.16392E+4   2.31132E+4
  -2.14673E+4   2.30243E+4
  -2.12778E+4   2.27623E+4
  -2.10708E+4   2.24593E+4
  -2.07673E+4   2.23829E+4
  -2.06299E+4   2.22210E+4
  -2.03834E+4   2.20192E+4
  -2.02515E+4   2.17704E+4
  -2.00179E+4   2.16221E+4
  -1.97897E+4   2.14387E+4
  -1.95356E+4   2.14005E+4
  -1.94215E+4   2.12526E+4
  -1.92751E+4   2.10372E+4
  -1.90500E+4   2.08897E+4
  -1.88889E+4   2.07875E+4
  -1.87065E+4   2.06536E+4
  -1.85281E+4   2.05573E+4
  -1.83569E+4   2.03656E+4
  -1.80846E+4   2.02009E+4
  -1.78827E+4   2.01324E+4
  -1.77037E+4   2.00535E+4
  -1.74846E+4   1.99293E+4
  -1.73648E+4   1.97662E+4
  -1.72224E+4   1.97239E+4
  -1.70862E+4   1.95775E+4
  -1.68548E+4   1.94064E+4
  -1.66728E+4   1.93125E+4
  -1.65140E+4   1.92519E+4
  -1.63850E+4   1.91076E+4
  -1.61353E+4   1.90133E+4
  -1.60682E+4   1.88602E+4
  -1.59120E+4   1.88047E+4
  -1.57499E+4   1.87293E+4
  -1.56180E+4   1.86200E+4
  -1.54421E+4   1.84732E+4
  -1.53661E+4   1.83464E+4
  -1.51859E+4   1.82988E+4
  -1.50919E+4   1.82775E+4
  -1.48927E+4   1.80771E+4
  -1.46951E+4   1.80601E+4
  -1.45675E+4   1.79474E+4
  -1.44963E+4   1.78836E+4
  -1.43491E+4   1.77826E+4
  -1.42687E+4   1.76558E+4
  -1.40558E+4   1.76242E+4
  -1.39073E+4   1.75274E+4
  -1.38063E+4   1.74168E+4
  -1.37186E+4   1.73627E+4
  -1.35658E+4   1.72582E+4
  -1.33686E+4   1.71421E+4
  -1.32942E+4   1.71265E+4
  -1.31400E+4   1.70383E+4
  -1.30634E+4   1.69671E+4
  -1.28773E+4   1.69044E+4
  -1.27632E+4   1.68512E+4
  -1.26008E+4   1.67182E+4
  -1.25182E+4   1.66518E+4
  -1.24090E+4   1.66510E+4
  -1.22871E+4   1.66323E+4
  -1.22286E+4   1.64709E+4
  -1.20804E+4   1.64267E+4
  -1.19003E+4   1.63500E+4
  -1.18222E+4   1.62986E+4
  -1.17331E+4   1.62197E+4
  -1.16439E+4   1.62521E+4
  -1.15283E+4   1.61515E+4
  -1.14104E+4   1.61298E+4
  -1.13036E+4   1.60568E+4
  -1.12000E+4   1.59314E+4
  -1.11679E+4   1.59187E+4
  -1.10282E+4   1.58904E+4
  -1.10008E+4   1.58114E+4
  -1.08947E+4   1.57304E+4
  -1.07440E+4   1.57443E+4
  -1.07197E+4   1.56482E+4
  -1.05804E+4   1.55760E+4
  -1.04981E+4   1.55540E+4
  -1.03628E+4   1.55306E+4
  -1.02628E+4   1.54613E+4
  -1.02524E+4   1.53831E+4
  -1.01504E+4   1.52938E+4
  -1.01307E+4   1.53439E+4
  -9.99838E+3   1.52488E+4
  -9.87308E+3   1.51629E+4
  -9.83686E+3   1.51113E+4
  -9.66804E+3   1.50304E+4
  -9.66659E+3   1.50489E+4
  -9.60929E+3   1.50150E+4
  -9.52071E+3   1.48999E+4
  -9.47428E+3   1.48423E+4
  -9.39031E+3   1.48088E+4
  -9.36434E+3   1.47978E+4
  -9.23768E+3   1.46637E+4
  -9.13689E+3   1.45680E+4
  -9.05507E+3   1.45965E+4
  -9.03705E+3   1.45366E+4
  -8.99037E+3   1.45419E+4
  -8.86621E+3   1.43730E+4
  -8.81007E+3   1.43657E+4
  -8.75541E+3   1.43151E+4
  -8.70668E+3   1.42027E+4
  -8.60853E+3   1.41587E+4
  -8.53941E+3   1.41378E+4
  -8.39869E+3   1.41192E+4
  -8.40860E+3   1.40754E+4
  -8.30386E+3   1.40254E+4
  -8.25317E+3   1.39020E+4
  -8.14074E+3   1.39643E+4
  -8.16718E+3   1.38669E+4
  -8.04607E+3   1.38159E+4
  -8.05716E+3   1.37731E+4
  -7.97795E+3   1.37174E+4
  -7.87675E+3   1.36273E+4
  -7.84872E+3   1.36236E+4
  -7.73225E+3   1.36683E+4
  -7.70596E+3   1.35509E+4
  -7.60879E+3   1.34692E+4
  -7.58180E+3   1.34504E+4
  -7.55400E+3   1.33728E+4
  -7.46294E+3   1.33027E+4
  -7.37669E+3   1.32492E+4
  -7.27370E+3   1.31757E+4
  -7.22746E+3   1.33040E+4
  -7.18706E+3   1.31951E+4
  -7.16018E+3   1.30972E+4
  -7.07919E+3   1.30664E+4
  -6.99037E+3   1.30851E+4
  -6.97106E+3   1.29474E+4
  -6.87430E+3   1.29189E+4
  -6.87331E+3   1.28656E+4
  -6.75576E+3   1.29244E+4
  -6.71504E+3   1.27905E+4
  -6.66563E+3   1.27801E+4
  -6.58925E+3   1.26421E+4
  -6.52519E+3   1.26331E+4
  -6.46846E+3   1.25814E+4
  -6.44049E+3   1.25339E+4
  -6.37607E+3   1.24711E+4
  -6.29889E+3   1.24502E+4
  -6.23574E+3   1.23869E+4
  -6.23938E+3   1.23847E+4
  -6.14442E+3   1.22205E+4
  -6.08513E+3   1.22084E+4
  -5.98568E+3   1.21928E+4
  -6.00706E+3   1.21812E+4
  -5.90220E+3   1.21286E+4
  -5.85334E+3   1.20439E+4
  -5.70703E+3   1.19314E+4
  -5.66458E+3   1.19280E+4
  -5.66549E+3   1.19094E+4
  -5.55826E+3   1.17994E+4
  -5.52089E+3   1.17810E+4
  -5.42288E+3   1.17287E+4
  -5.32260E+3   1.17133E+4
  -5.29349E+3   1.16602E+4
  -5.24340E+3   1.15571E+4
  -5.20821E+3   1.14797E+4
  -5.16158E+3   1.14626E+4
  -5.06160E+3   1.14421E+4
  -4.99973E+3   1.13238E+4
  -5.03833E+3   1.13138E+4
  -4.92563E+3   1.12621E+4
  -4.86417E+3   1.11515E+4
  -4.76708E+3   1.10883E+4
  -4.66407E+3   1.11301E+4
  -4.60387E+3   1.10757E+4
  -4.58509E+3   1.10246E+4
  -4.54684E+3   1.09903E+4
  -4.49249E+3   1.08715E+4
  -4.34262E+3   1.08793E+4
  -4.39362E+3   1.07132E+4
  -4.29725E+3   1.08022E+4
  -4.27579E+3   1.07420E+4
  -4.21772E+3   1.06722E+4
  -4.16502E+3   1.05788E+4
  -4.12242E+3   1.05936E+4
  -3.96643E+3   1.05546E+4
  -3.98092E+3   1.04551E+4
  -3.90421E+3   1.03345E+4
  -3.87452E+3   1.03280E+4
  -3.79300E+3   1.03161E+4
  -3.76965E+3   1.02281E+4
  -3.68830E+3   1.02292E+4
  -3.65052E+3   1.01095E+4
  -3.59403E+3   1.00619E+4
  -3.50447E+3   1.00654E+4
  -3.55680E+3   9.95964E+3
  -3.39729E+3   9.97069E+3
  -3.36939E+3   9.82732E+3
  -3.31995E+3   9.82562E+3
  -3.27775E+3   9.78814E+3
  -3.31619E+3   9.72439E+3
  -3.17645E+3   9.66789E+3
  -3.14606E+3   9.57529E+3
  -3.08949E+3   9.55878E+3
  -3.05766E+3   9.48859E+3
  -2.99362E+3   9.43850E+3
  -2.93781E+3   9.32461E+3
  -2.85027E+3   9.32465E+3
  -2.94001E+3   9.25392E+3
  -2.79021E+3   9.16009E+3
  -2.76294E+3   9.11067E+3
  -2.73648E+3   9.12965E+3
  -2.69222E+3   9.04097E+3
  -2.65191E+3   9.02171E+3
  -2.62567E+3   8.89986E+3
  -2.57764E+3   8.80743E+3
  -2.52430E+3   8.86173E+3
  -2.50687E+3   8.78644E+3
  -2.47653E+3   8.69138E+3
  -2.34469E+3   8.64460E+3
  -2.32805E+3   8.58527E+3
  -2.35144E+3   8.53466E+3
  -2.28546E+3   8.46015E+3
  -2.23990E+3   8.34620E+3
  -2.21511E+3   8.33775E+3
  -2.19561E+3   8.34940E+3
  -2.15991E+3   8.24355E+3
  -2.11297E+3   8.25088E+3
  -2.08955E+3   8.11428E+3
  -2.01917E+3   8.09848E+3
  -1.94785E+3   8.05276E+3
  -1.98929E+3   8.02881E+3
  -1.92698E+3   7.94464E+3
  -1.89668E+3   7.88476E+3
  -1.90526E+3   7.89836E+3
  -1.79777E+3   7.88995E+3
  -1.79235E+3   7.75427E+3
  -1.74267E+3   7.63654E+3
  -1.65400E+3   7.70867E+3
  -1.72903E+3   7.64870E+3
  -1.65181E+3   7.58708E+3
  -1.62920E+3   7.48625E+3
  -1.56224E+3   7.47977E+3
  -1.51411E+3   7.44295E+3
  -1.58446E+3   7.33146E+3
  -1.52171E+3   7.40628E+3
  -1.41793E+3   7.30028E+3
  -1.44735E+3   7.21322E+3
  -1.41198E+3   7.23643E+3
  -1.38579E+3   7.14614E+3
  -1.35687E+3   7.06961E+3
  -1.36252E+3   7.06483E+3
  -1.32881E+3   7.00326E+3
  -1.35070E+3   6.99726E+3
  -1.23456E+3   6.84677E+3
  -1.25107E+3   6.84251E+3
  -1.24418E+3   6.80193E+3
  -1.12514E+3   6.79449E+3
  -1.13413E+3   6.70726E+3
  -1.14673E+3   6.65292E+3
  -1.11216E+3   6.71534E+3
  -1.11717E+3   6.57472E+3
  -1.02585E+3   6.56907E+3
  -1.00910E+3   6.46986E+3
  -1.02266E+3   6.46461E+3
  -1.03883E+3   6.40039E+3
  -1.03341E+3   6.35387E+3
  -9.37937E+2   6.34450E+3
  -9.47798E+2   6.33906E+3
  -8.19565E+2   6.23113E+3
  -8.45298E+2   6.28857E+3
  -7.92899E+2   6.16764E+3
  -8.38728E+2   6.13509E+3
  -7.64161E+2   6.09142E+3
  -8.08606E+2   6.04856E+3
  -7.92899E+2   6.05450E+3
  -7.70691E+2   5.97334E+3
  -7.11526E+2   5.92190E+3
  -6.81299E+2   5.89256E+3
  -7.03574E+2   5.87830E+3
  -7.10723E+2   5.88162E+3
  -6.48503E+2   5.75221E+3
  -6.48097E+2   5.72089E+3
  -6.37308E+2   5.68318E+3
