 
 $NMID
 ID=''
 FMTDAT='(2E13.5)'
 TRAMP=   1.00000E+0
 VOLUME=   1.00000E+0
 $END
   3.68259E+1  -3.50534E+1
  -1.29010E+2   2.06607E+3
   1.52911E+3  -2.11965E+3
   2.23983E+3   6.95977E+2
   3.39387E+3  -1.84787E+3
   2.64819E+3  -5.06792E+3
  -3.18349E+3  -3.02467E+3
  -5.33496E+3  -1.12117E+3
  -4.12768E+3  -9.82421E+2
  -4.84593E+3  -9.58805E+2
   8.49594E+2   1.74901E+3
   3.86817E+3   3.15440E+3
   2.19131E+3   4.15724E+3
   1.31057E+3   2.69494E+3
  -1.71591E+3  -9.37902E+2
   2.37130E+3  -2.96396E+3
   2.06591E+3  -3.16637E+3
  -1.24926E+3  -1.19390E+3
  -1.10422E+3  -2.36124E+3
  -2.73832E+3   1.74274E+3
  -3.66963E+2  -8.57464E+2
   1.63493E+3   4.54440E+3
  -1.48548E+3   4.95020E+3
  -2.08993E+3   1.10387E+3
   5.37519E+3  -9.79966E+2
   4.45138E+3   1.64522E+3
   1.70574E+3   1.03646E+3
  -1.89702E+3  -3.36361E+3
   1.98566E+2  -5.34728E+3
   2.78958E+3  -6.81639E+3
   6.26921E+3  -4.28148E+2
  -3.69905E+2   7.39425E+3
  -5.86615E+3   1.10373E+3
  -3.30230E+3  -2.04372E+3
   4.14851E+2   3.76640E+2
  -3.58385E+3   2.09829E+2
   5.34329E+2  -4.87701E+3
   5.38169E+3  -2.05598E+3
   2.59984E+3   1.84981E+3
   1.89101E+3   3.23646E+3
   4.31630E+3   5.79067E+3
  -4.52213E+3   5.17321E+3
  -3.32373E+3  -4.73477E+3
   2.79240E+3  -5.97631E+3
   6.81467E+3  -3.19031E+3
   3.84491E+3  -2.33065E+3
   1.80347E+3  -4.82944E+2
   8.48848E+2   1.60928E+2
  -2.22294E+3   1.66677E+3
  -4.69215E+3   2.79305E+3
  -5.83494E+3  -1.93702E+3
  -3.67335E+3  -3.36375E+3
   2.08472E+3  -1.83478E+2
   1.79430E+3   2.66708E+3
  -3.96927E+3   2.69618E+3
  -4.12059E+3   2.33901E+3
  -4.04930E+3   4.87600E+3
  -4.44132E+3   3.12116E+3
  -4.90780E+3  -8.86386E+2
   3.39924E+2  -4.80202E+3
   3.73726E+3  -4.31059E+3
   5.02760E+3  -1.82221E+3
   2.06516E+3   2.38923E+3
  -1.27541E+3   1.35391E+3
  -6.90704E+2  -3.35686E+3
   2.14130E+3  -3.31371E+3
   1.84372E+3   3.04051E+3
  -1.57292E+3   3.19923E+3
  -2.75968E+3   3.02781E+2
  -2.42755E+3  -2.42233E+1
  -4.56273E+2   1.67220E+3
  -2.05763E+3   2.30691E+3
  -4.08598E+2   4.04568E+2
  -1.68917E+3  -1.21202E+3
   2.18265E+3  -8.57720E+2
   3.89186E+3   2.34908E+2
   3.08634E+3   6.04580E+2
   7.53616E+2  -1.91960E+3
   4.92168E+3  -1.68774E+3
   5.89988E+3   1.28470E+3
   1.84712E+3   5.07964E+2
   8.77316E+2  -4.89606E+2
   2.67479E+3  -2.47406E+2
   1.85900E+3   1.57134E+3
  -3.58938E+3   2.03059E+3
  -3.96525E+3   3.18174E+2
  -2.71131E+3  -1.71607E+3
   3.54090E+3  -4.37904E+3
   5.03418E+3  -1.07524E+3
   1.29273E+3   1.35443E+3
   7.80016E+2  -3.96049E+2
   9.14846E+2  -1.92181E+3
   1.98000E+3   4.11027E+3
  -2.04718E+3   3.11165E+3
  -3.50588E+3   5.28109E+2
   3.93970E+2  -8.17621E+2
   4.26639E+3  -2.43173E+3
   2.31362E+3   2.63240E+3
  -1.93031E+2   2.65342E+3
  -6.33005E+3   3.20693E+2
  -1.37077E+3  -2.95919E+3
   3.26233E+3  -2.42362E+2
   3.52828E+2   1.70723E+3
  -1.49533E+3   4.38864E+3
  -4.11672E+3   6.19396E+2
  -2.09954E+3   6.58771E+2
  -1.07208E+1  -4.58429E+1
  -4.64056E+3  -5.28087E+1
  -4.09563E+3  -1.94100E+3
  -7.15609E+2  -3.58956E+3
   1.61298E+3  -6.00419E+3
   3.59351E+3  -5.19792E+2
   2.06487E+3   2.26723E+3
   6.73734E+2   1.57624E+3
  -3.33791E+2   3.02093E+3
  -1.26173E+3   3.08143E+3
  -1.11403E+3  -2.67432E+3
  -2.39756E+2   2.99581E+2
   9.76129E+2  -6.88296E+2
   3.21810E+2  -1.31702E+3
   2.36199E+2   2.31543E+3
  -4.48153E+2   1.96533E+3
  -2.61164E+3   1.07264E+3
  -3.51766E+2  -1.24437E+3
   1.30437E+3  -9.09974E+2
  -1.50157E+2  -7.03878E+2
  -1.06438E+3  -2.72059E+3
   6.49928E+2  -8.19956E+2
   6.39691E+2  -9.79989E+2
  -5.21238E+2   4.36182E+2
   9.06633E+2  -1.59253E+3
   4.09452E+2  -2.52647E+3
   2.67776E+3  -3.17542E+2
   1.45920E+2   2.98805E+3
  -2.48081E+3   1.18909E+3
  -1.41498E+3  -1.41203E+3
  -3.20559E+3  -1.92926E+3
   1.13796E+3  -1.45103E+3
  -4.20840E+2   4.13908E+2
  -1.83944E+2  -1.02048E+3
   2.24824E+2   2.18617E+2
   9.43689E+2  -2.05116E+3
   1.99832E+3   1.06336E+3
  -6.89345E+2   1.61448E+3
  -7.64975E+1  -1.81920E+3
  -6.76539E+1  -2.04863E+3
   8.72239E+1   1.01806E+3
   7.78457E+2  -1.88980E+3
   2.66306E+1  -6.47563E+2
   5.78112E+2  -1.78430E+3
  -3.27319E+3  -1.60291E+2
  -1.47905E+3   9.95326E+0
  -1.21204E+3  -2.83963E+3
  -1.78881E+2  -9.79962E+2
   2.27058E+3  -2.05281E+3
   1.67235E+3  -4.80174E+2
   8.57925E+2   1.90258E+3
   7.41599E+2   6.79004E+2
   1.66473E+2   5.97391E+1
   7.11159E+2   6.12310E+2
  -5.86758E+2   1.03170E+3
  -6.57828E+2  -1.26666E+3
  -4.99162E+2   7.37008E+2
   6.64243E+2  -1.49614E+2
   2.12366E+3   2.02739E+3
  -6.78731E+2   2.36408E+3
  -4.08841E+3  -1.78319E+3
  -3.40675E+2  -2.76324E+3
   1.65975E+3   5.61131E+2
  -1.83757E+3   1.64221E+3
  -1.40485E+3   3.65815E+2
  -1.09366E+3   6.87162E+2
  -1.20095E+3  -1.04265E+3
   3.58223E+2  -1.87810E+3
   1.42876E+3  -8.72627E+2
   1.10371E+3  -1.53361E+3
   2.29548E+3  -1.97821E+2
   3.40359E+3   1.18791E+3
  -1.67590E+2   2.12210E+3
  -1.77455E+3   1.41219E+3
  -6.13182E+2  -8.07164E+2
   1.04276E+3  -1.52125E+3
   1.03917E+3   1.23817E+2
  -2.31967E+2  -1.47940E+3
   1.74659E+3  -1.99733E+2
   1.64793E+3   2.48571E+2
  -5.67067E+2   1.85373E+3
  -2.73588E+3   1.81437E+3
  -1.85527E+3  -2.14665E+3
  -7.20687E+2  -1.79527E+3
   1.27050E+3  -2.10776E+3
   2.07197E+2   1.29341E+3
  -1.88376E+3  -6.65713E+2
  -1.68019E+3   1.21843E+3
  -3.60042E+2   1.05307E+3
   1.92697E+3  -4.48054E+2
  -1.04693E+3   1.34790E+3
  -4.59313E+2   1.62650E+3
   8.01924E+2  -1.42200E+3
   1.70135E+3   1.62916E+3
  -1.27873E+3   2.91613E+3
  -2.43109E+3  -5.12940E+2
  -1.41191E+3  -1.70670E+3
   6.10360E+2  -2.23895E+3
  -1.04389E+2   6.83689E+2
   1.20039E+1   1.39728E+3
  -5.01018E+2   1.48700E+3
   6.84391E+2  -7.70047E+2
  -1.98076E+1  -6.37704E+2
   5.43778E+2   1.01266E+3
  -2.09631E+3   7.71362E+2
  -2.80513E+3  -1.92891E+3
   6.40968E+2  -3.24356E+3
   2.50948E+3   1.01888E+3
   1.95454E+3   2.22787E+3
   2.03126E+3   6.60916E+2
   1.41462E+3   1.54115E+3
   1.80827E+2   4.36977E+2
  -2.24065E+2   9.54515E+2
  -2.31462E+3   2.60599E+2
  -1.50064E+3   4.50397E+2
   1.14025E+3   1.03740E+3
   3.88783E+2   5.06714E+2
  -2.08295E+3   1.47327E+1
  -7.27259E+1  -4.11959E+2
  -3.53098E+2  -1.88632E+2
   5.32216E+2  -5.43589E+2
   7.23217E+2   5.28013E+2
  -4.79509E+2   9.69853E+2
  -1.29405E+3   1.30662E+3
   2.64445E+2   1.52003E+3
  -2.04206E+3   6.44794E+2
  -1.74933E+3   4.65631E+1
  -1.11587E+1  -2.02764E+3
   1.56332E+3  -5.28522E+2
   2.68816E+3  -1.13344E+1
  -1.42544E+2   2.24030E+3
  -1.55683E+3   6.22103E+2
  -9.18308E+2  -5.80220E+2
   2.45238E+2  -1.63068E+3
   3.45163E+2   7.33990E+2
  -3.00178E+2   6.04454E+2
   1.81622E+2   1.19037E+3
  -2.10725E+3  -1.21435E+3
  -2.25065E+3  -2.68954E+2
  -1.59257E+2  -2.79575E+1
  -1.88405E+3   1.98614E+3
  -1.11242E+3   6.81737E+2
   1.14194E+3  -2.80198E+2
   3.56511E+3   1.14072E+3
   3.48234E+2   1.82365E+3
  -1.19926E+3   2.12092E+3
  -1.45832E+3  -4.08843E+2
  -2.73564E+2  -1.04036E+3
  -1.78669E+3   1.05968E+2
   5.48285E+2   7.71155E+2
   2.59439E+2   2.24456E+2
  -2.23011E+2   1.83936E+3
   1.05987E+3   1.23113E+3
  -3.61599E+2   1.26762E+3
  -6.75055E+0  -1.62356E+3
  -8.42811E+2   2.00781E+2
   5.48397E+2   4.63661E+2
  -5.24464E+2  -1.02759E+2
  -1.14681E+3   2.27762E+3
  -1.01557E+3   3.54138E+2
   6.54380E+2  -1.39968E+2
   8.68164E+2   2.11753E+3
  -2.02085E+3  -7.61759E+1
  -1.55473E+3  -9.25122E+2
   5.87923E+2  -1.76172E+3
   1.02907E+3  -1.77061E+3
   1.19469E+3   2.18850E+3
  -1.81208E+3   1.36602E+3
  -1.99064E+2   9.27678E+2
  -1.75099E+3  -1.13173E+3
   1.12336E+3  -8.09794E+1
  -1.27941E+3   4.78310E+2
   4.01027E+2   1.10994E+2
   7.48136E+2   1.68276E+2
   1.54484E+3   1.90987E+3
  -8.27429E+2   1.51386E+2
  -2.84594E+2   2.64004E+2
  -1.73828E+3  -1.57511E+3
  -1.23874E+3  -1.46619E+3
   2.52958E+1   1.93941E+3
  -1.46929E+2  -4.26394E+2
  -1.82151E+3  -1.19555E+3
   1.66075E+3  -3.30039E+2
   1.48268E+3   1.28038E+3
  -1.97218E+3  -8.22104E+2
   4.25485E+2   1.95412E+1
   1.26452E+3   1.25190E+3
   2.22684E+3   7.49114E+2
   2.24551E+3   1.57045E+3
  -3.57136E+2   1.93250E+3
  -2.18000E+2  -1.50096E+2
   1.70640E+3  -1.61981E+3
   2.66241E+3   6.61807E+2
  -6.20563E+2   2.35140E+3
  -1.03885E+2  -9.86183E+2
  -7.32326E+2   2.76841E+2
  -1.85639E+2  -9.99851E+2
  -9.50950E+2   2.20908E+2
  -1.08290E+3   1.99658E+3
  -8.22550E+2  -1.01799E+3
   1.74357E+3   5.69193E+2
   2.45585E+3  -2.33869E+2
   5.39183E+1  -1.17834E+2
  -1.34210E+3   1.01335E+2
  -1.40578E+3  -3.33161E+2
   3.30944E+2  -6.48990E+2
   7.09397E+2   8.40598E+2
   1.26978E+3   1.39104E+3
  -9.42289E+2  -1.27475E+2
   6.66130E+2   7.70272E+2
  -2.05241E+1   1.62380E+3
  -2.02364E+2   2.28077E+3
  -1.18160E+3   6.90123E+2
  -1.42589E+3  -2.74609E+3
   2.71919E+3  -1.25493E+3
   3.00706E+3   9.12439E+1
  -7.71704E+2   1.18290E+3
  -2.10180E+3  -1.07400E+3
   2.44109E+2  -1.78116E+1
  -4.44726E+2   1.10536E+3
  -1.31749E+3  -1.66273E+2
  -7.04582E+2  -1.33238E+3
  -9.49686E+2  -2.38960E+3
   2.25119E+3  -6.32166E+2
  -3.29900E+2  -8.24747E+1
  -2.72015E+2   1.66366E+3
   6.01233E+2   4.07027E+1
  -1.46218E+2  -2.54549E+3
   1.68480E+3  -2.30636E+3
   8.38196E+2   1.07132E+2
  -5.41450E+2  -4.98573E+2
   1.86062E+3   2.46031E+2
   1.95486E+3  -1.01799E+3
   1.18134E+3   1.53856E+3
  -4.90053E+2   2.14241E+3
  -1.76542E+3   3.29921E+2
   2.63030E+3  -1.50550E+3
   7.66885E+2  -1.49582E+3
   1.03479E+3  -4.84379E+2
  -9.88059E+2  -1.32694E+3
  -7.44781E+1   3.50865E+2
   8.65330E+2   3.79961E+2
   2.77758E+2  -6.54779E+2
  -1.03781E+3  -8.71548E+2
   3.06690E+2  -3.29232E+2
   1.70684E+2  -7.75428E+2
  -3.30724E+2   1.45575E+3
  -2.09862E+3   8.51415E+2
  -1.50331E+3  -1.49343E+3
  -9.94879E+2  -2.20111E+3
   5.44700E+2   6.83993E+2
   1.86474E+3  -3.49820E+2
  -5.65853E+2   1.50074E+3
   1.37760E+3   2.04147E+2
  -4.60902E+1  -2.08514E+2
   6.81188E+2   1.49056E+3
  -1.20910E+2   8.08558E+0
  -1.51169E+3   2.71684E+2
   2.54566E+3  -1.84131E+3
  -4.77609E+2   1.48986E+3
   2.11268E+3   1.07604E+3
