 LCModel (Version 6.3-1N) Copyright: S.W. Provencher.          Ref.: Magn. Reson. Med. 30:672-679 (1993).                
 Slice_N1@16_10  02-Jun-2023 14:36:46
 27 lines in following concentration table = NCONC+1
    Conc.  %SD /Cr+PCr  Metabolite                                         
 1.98E-06  18% 2.3E-04 Mac                                                 
 6.92E-02  13%   8.000 Cr                                                  
    0.000 999%   0.000 PCr                                                 
    0.110  12%  12.753 Ins                                                 
    0.112   9%  12.992 NAA                                                 
 6.24E-02  18%   7.222 Tau                                                 
 1.75E-02  18%   2.020 PCho                                                
    0.000 999%   0.000 GPC                                                 
 7.39E-02  17%   8.549 Glu                                                 
 1.26E-02  67%   1.462 Gln                                                 
 4.75E-03 204%   0.549 Ala                                                 
 8.33E-03 197%   0.964 Asc                                                 
    0.000 999%   0.000 Asp                                                 
 1.04E-02  48%   1.206 GABA                                                
 1.05E-02  55%   1.218 Glc                                                 
 7.60E-03  56%   0.879 GSH                                                 
    0.000 999%   0.000 Lac                                                 
    0.000 999%   0.000 NAAG                                                
    0.000 999%   0.000 PE                                                  
 1.75E-02  18%   2.020 GPC+PCho                                            
    0.112   9%  12.992 NAA+NAAG                                            
 8.65E-02  17%  10.011 Glu+Gln                                             
 6.92E-02  13%   8.000 Cr+PCr                                              
    0.112   9%  12.992 NAA+NAAG                                            
 6.92E-02  13%   8.000 Cr+PCr                                              
 8.65E-02  17%  10.011 Glu+Gln                                             
   6 lines in following misc. output table
  FWHM = 0.070 ppm    S/N =   2                                            
  Data shift =-0.012 ppm                                                   
  Ph: -47 deg      -7.7 deg/ppm                                            
  alphaB,S = 7.2E+00,   1.6E+01                                            
   18 spline knots.   Ns = 6(2)                                            
   4 inflections.     3 extrema                                            
  654 points on ppm-axis = NY
      4.000000     3.994181     3.988363     3.982544     3.976726     3.970907     3.965088     3.959270     3.953451     3.947633
      3.941814     3.935995     3.930177     3.924358     3.918540     3.912721     3.906902     3.901084     3.895265     3.889446
      3.883628     3.877809     3.871991     3.866172     3.860353     3.854535     3.848716     3.842898     3.837079     3.831260
      3.825442     3.819623     3.813805     3.807986     3.802167     3.796349     3.790530     3.784712     3.778893     3.773074
      3.767256     3.761437     3.755619     3.749800     3.743981     3.738163     3.732344     3.726526     3.720707     3.714888
      3.709070     3.703251     3.697433     3.691614     3.685795     3.679977     3.674158     3.668339     3.662521     3.656702
      3.650884     3.645065     3.639246     3.633428     3.627609     3.621791     3.615972     3.610153     3.604335     3.598516
      3.592698     3.586879     3.581060     3.575242     3.569423     3.563605     3.557786     3.551967     3.546149     3.540330
      3.534512     3.528693     3.522874     3.517056     3.511237     3.505419     3.499600     3.493781     3.487963     3.482144
      3.476326     3.470507     3.464688     3.458870     3.453051     3.447232     3.441414     3.435595     3.429777     3.423958
      3.418139     3.412321     3.406502     3.400684     3.394865     3.389046     3.383228     3.377409     3.371591     3.365772
      3.359953     3.354135     3.348316     3.342498     3.336679     3.330860     3.325042     3.319223     3.313405     3.307586
      3.301767     3.295949     3.290130     3.284312     3.278493     3.272674     3.266856     3.261037     3.255219     3.249400
      3.243581     3.237763     3.231944     3.226125     3.220307     3.214488     3.208670     3.202851     3.197032     3.191214
      3.185395     3.179577     3.173758     3.167939     3.162121     3.156302     3.150484     3.144665     3.138846     3.133028
      3.127209     3.121391     3.115572     3.109753     3.103935     3.098116     3.092298     3.086479     3.080660     3.074842
      3.069023     3.063205     3.057386     3.051567     3.045749     3.039930     3.034111     3.028293     3.022474     3.016656
      3.010837     3.005018     2.999200     2.993381     2.987563     2.981744     2.975925     2.970107     2.964288     2.958470
      2.952651     2.946832     2.941014     2.935195     2.929377     2.923558     2.917739     2.911921     2.906102     2.900284
      2.894465     2.888646     2.882828     2.877009     2.871191     2.865372     2.859553     2.853735     2.847916     2.842098
      2.836279     2.830460     2.824642     2.818823     2.813004     2.807186     2.801367     2.795549     2.789730     2.783911
      2.778093     2.772274     2.766456     2.760637     2.754818     2.749000     2.743181     2.737363     2.731544     2.725725
      2.719907     2.714088     2.708270     2.702451     2.696632     2.690814     2.684995     2.679177     2.673358     2.667539
      2.661721     2.655902     2.650084     2.644265     2.638446     2.632628     2.626809     2.620991     2.615172     2.609353
      2.603535     2.597716     2.591897     2.586079     2.580260     2.574442     2.568623     2.562804     2.556986     2.551167
      2.545349     2.539530     2.533711     2.527893     2.522074     2.516256     2.510437     2.504618     2.498800     2.492981
      2.487163     2.481344     2.475525     2.469707     2.463888     2.458070     2.452251     2.446432     2.440614     2.434795
      2.428977     2.423158     2.417339     2.411521     2.405702     2.399884     2.394065     2.388246     2.382428     2.376609
      2.370790     2.364972     2.359153     2.353335     2.347516     2.341697     2.335879     2.330060     2.324242     2.318423
      2.312604     2.306786     2.300967     2.295149     2.289330     2.283511     2.277693     2.271874     2.266056     2.260237
      2.254418     2.248600     2.242781     2.236963     2.231144     2.225325     2.219507     2.213688     2.207870     2.202051
      2.196232     2.190414     2.184595     2.178777     2.172958     2.167139     2.161321     2.155502     2.149683     2.143865
      2.138046     2.132228     2.126409     2.120590     2.114772     2.108953     2.103135     2.097316     2.091497     2.085679
      2.079860     2.074042     2.068223     2.062404     2.056586     2.050767     2.044949     2.039130     2.033311     2.027493
      2.021674     2.015856     2.010037     2.004218     1.998400     1.992581     1.986763     1.980944     1.975126     1.969307
      1.963489     1.957670     1.951852     1.946033     1.940215     1.934397     1.928578     1.922760     1.916941     1.911123
      1.905304     1.899486     1.893667     1.887849     1.882030     1.876212     1.870393     1.864575     1.858756     1.852938
      1.847119     1.841301     1.835482     1.829664     1.823845     1.818027     1.812208     1.806390     1.800571     1.794753
      1.788934     1.783116     1.777297     1.771479     1.765660     1.759842     1.754023     1.748205     1.742386     1.736568
      1.730749     1.724931     1.719113     1.713294     1.707476     1.701657     1.695839     1.690020     1.684202     1.678383
      1.672565     1.666746     1.660928     1.655109     1.649291     1.643472     1.637654     1.631835     1.626017     1.620198
      1.614380     1.608561     1.602743     1.596924     1.591106     1.585287     1.579469     1.573650     1.567832     1.562013
      1.556195     1.550376     1.544558     1.538739     1.532921     1.527102     1.521284     1.515465     1.509647     1.503829
      1.498010     1.492192     1.486373     1.480555     1.474736     1.468918     1.463099     1.457281     1.451462     1.445644
      1.439825     1.434007     1.428188     1.422370     1.416551     1.410733     1.404914     1.399096     1.393277     1.387459
      1.381640     1.375822     1.370003     1.364185     1.358366     1.352548     1.346729     1.340911     1.335092     1.329274
      1.323455     1.317637     1.311818     1.306000     1.300182     1.294363     1.288545     1.282726     1.276908     1.271089
      1.265271     1.259452     1.253634     1.247815     1.241997     1.236178     1.230360     1.224541     1.218723     1.212904
      1.207086     1.201267     1.195449     1.189630     1.183812     1.177993     1.172175     1.166356     1.160538     1.154719
      1.148901     1.143082     1.137264     1.131445     1.125627     1.119808     1.113990     1.108171     1.102353     1.096534
      1.090716     1.084898     1.079079     1.073261     1.067442     1.061624     1.055805     1.049987     1.044168     1.038350
      1.032531     1.026713     1.020894     1.015076     1.009257     1.003439     0.997620     0.991802     0.985983     0.980165
      0.974346     0.968528     0.962709     0.956891     0.951072     0.945254     0.939435     0.933617     0.927798     0.921980
      0.916161     0.910343     0.904524     0.898706     0.892887     0.887069     0.881251     0.875432     0.869614     0.863795
      0.857977     0.852158     0.846340     0.840521     0.834703     0.828884     0.823066     0.817247     0.811429     0.805610
      0.799792     0.793973     0.788155     0.782336     0.776518     0.770699     0.764881     0.759062     0.753244     0.747425
      0.741607     0.735788     0.729970     0.724151     0.718333     0.712514     0.706696     0.700877     0.695059     0.689240
      0.683422     0.677603     0.671785     0.665967     0.660148     0.654330     0.648511     0.642693     0.636874     0.631056
      0.625237     0.619419     0.613600     0.607782     0.601963     0.596145     0.590326     0.584508     0.578689     0.572871
      0.567052     0.561234     0.555415     0.549597     0.543778     0.537960     0.532141     0.526323     0.520504     0.514686
      0.508867     0.503049     0.497230     0.491412     0.485593     0.479775     0.473956     0.468138     0.462319     0.456501
      0.450682     0.444864     0.439045     0.433227     0.427408     0.421590     0.415771     0.409953     0.404134     0.398316
      0.392497     0.386679     0.380860     0.375042     0.369223     0.363405     0.357586     0.351767     0.345949     0.340130
      0.334312     0.328493     0.322675     0.316856     0.311038     0.305219     0.299401     0.293582     0.287764     0.281945
      0.276127     0.270308     0.264490     0.258671     0.252853     0.247034     0.241216     0.235397     0.229579     0.223760
      0.217942     0.212123     0.206305     0.200486
 NY phased data points follow
   3.61326E-01 -2.75863E-01 -1.92697E-01  1.76251E-02 -3.98258E-01 -1.40511E-01 -3.52085E-01 -3.48440E-01 -1.51639E-01 -1.83295E-02
  -1.06011E-01 -8.25662E-02 -3.42634E-02 -1.65731E-01  2.60216E-01  3.61904E-01  1.34669E-01  1.93806E-01 -1.31959E-01 -1.79404E-01
   2.20158E-01  1.33583E-01  1.49829E-01  2.29840E-01 -3.91260E-03  2.73363E-01  3.77232E-01 -1.86626E-02  4.43595E-03  1.00096E-01
  -1.28063E-01 -1.54140E-01 -2.98938E-01 -2.21032E-01  2.71589E-01 -1.75332E-01 -1.61872E-01 -6.43827E-03 -1.63131E-01  7.20616E-02
  -1.27569E-01 -8.18615E-02 -2.10716E-02  7.44504E-02  3.66548E-01  2.06932E-01  1.76181E-01  5.22992E-01  3.69353E-01  1.82458E-02
  -1.16984E-01  7.33392E-02  1.43966E-01 -8.89838E-02 -9.51459E-02 -1.01480E-01 -7.87514E-02 -2.27069E-01 -1.44665E-01  8.40883E-02
   1.42006E-01 -2.78203E-01 -1.97952E-01 -2.05857E-02 -2.42366E-01 -8.08188E-02 -3.59201E-01 -2.73127E-02  1.45534E-01  2.77846E-03
  -1.38159E-01 -2.03283E-01  1.89453E-01  1.56204E-01  2.58532E-01 -2.23034E-01 -3.86305E-01 -1.59103E-02 -2.30836E-01 -2.19522E-01
  -4.17104E-01 -3.48334E-01 -8.11549E-02 -1.92338E-01 -1.87834E-01 -2.30464E-01  3.27704E-02  1.84028E-01  3.63854E-01  4.85951E-01
   2.31697E-01  3.02035E-01  2.70792E-01  1.24799E-01  2.26126E-01  2.03199E-01  1.13041E-01  1.57365E-01  2.95863E-01  3.84161E-01
  -2.53796E-01 -1.76776E-01  1.16256E-01  3.07176E-02  1.75712E-01  1.78738E-02  3.24461E-01  1.43211E-01  2.61169E-01  4.78239E-01
   5.70052E-01  6.53865E-01  2.86857E-01  5.54747E-01  2.73776E-01  1.33826E-01  4.96683E-01  5.29519E-01  2.53846E-01  2.51948E-01
   5.70596E-01  2.95851E-01  1.24592E-01 -5.32803E-02 -1.24697E-01  5.29022E-02 -1.86902E-01 -2.32505E-01 -2.56851E-01 -3.19990E-01
  -3.85307E-01 -4.72830E-01 -5.14302E-01 -7.32218E-01 -4.56908E-01 -6.68550E-01 -6.03333E-01 -1.60677E-01 -5.03619E-01 -4.03532E-01
  -5.53872E-01 -4.68332E-01 -2.70684E-01 -7.18866E-01 -3.22277E-01 -5.47419E-02 -1.91269E-01 -6.05817E-02 -1.09811E-01  3.00821E-02
   8.70251E-03  9.90028E-02  1.82821E-01  5.67917E-02  4.24204E-01  4.06738E-01  2.02007E-01  4.27777E-01  3.95408E-01  6.61621E-01
   8.39409E-01  4.84184E-01  7.19913E-01  6.53740E-01  6.24466E-01  4.52912E-01  1.29549E-01  2.55440E-01  1.04386E-01  4.59706E-01
   1.34772E-01 -1.26210E-01 -8.91022E-02 -6.21995E-01 -4.34894E-01 -3.57070E-01 -3.54225E-01 -1.59298E-01 -6.41761E-01 -7.64131E-01
  -2.18782E-01 -4.95972E-01 -4.17557E-01 -2.86029E-01 -3.04063E-01 -4.15539E-02 -6.04854E-01 -3.51194E-01 -2.29059E-01 -3.64757E-01
   7.51024E-02 -3.21058E-01 -2.96605E-01 -3.04429E-02 -2.78125E-01 -9.19461E-02 -2.23184E-01 -4.68160E-01 -1.41772E-01 -1.70535E-01
  -2.02440E-01 -1.89488E-01 -1.50321E-01 -7.79122E-02 -1.06671E-01  5.53129E-03 -1.16914E-01 -3.21575E-02 -7.17734E-02 -5.22803E-02
   1.66762E-01 -1.94709E-01 -1.68660E-01  8.31894E-02 -5.39343E-02 -1.20562E-01 -1.29628E-01  5.23978E-02 -2.44966E-01 -2.36834E-01
   1.40550E-01 -1.47961E-01 -1.40021E-01  1.28850E-01  2.23314E-01 -1.76007E-01  1.05153E-01  2.29341E-01  9.57023E-02  2.24542E-01
   3.76854E-02  1.90850E-01 -1.63803E-01  1.99073E-01  3.21283E-01 -3.70206E-03  9.51101E-02  3.31617E-01  2.24710E-01 -2.61687E-01
   1.76091E-01  1.34880E-01 -1.45873E-02 -1.11385E-01 -2.86674E-01 -4.37835E-02  1.49967E-01  1.24913E-01  6.97860E-02 -1.17078E-01
  -1.00472E-01  4.01647E-02 -3.29253E-02 -5.56263E-02  2.12939E-02  3.49367E-01  1.27908E-02 -1.42933E-02  1.14785E-01  1.63353E-02
   2.41356E-02  1.33282E-01  8.63058E-02  7.27655E-02  2.11111E-01  3.51014E-02  2.37440E-01 -8.00271E-02  4.79854E-01  7.69005E-01
   1.46936E-01  3.22181E-01  1.84502E-01  9.59617E-02  1.65738E-01 -6.20868E-02 -8.68114E-02  7.79292E-02 -2.67265E-02 -3.30958E-01
  -3.56080E-01 -5.30149E-02 -2.29252E-01 -9.57893E-02 -2.22998E-01  8.67818E-03  7.23110E-02 -3.59110E-01  2.56968E-01  2.24413E-01
   1.87237E-01  7.36003E-02  1.32719E-01  2.52543E-01  3.28856E-01  4.28449E-01 -9.12032E-02  2.88183E-01  3.74289E-01 -4.80593E-02
   1.67692E-01 -4.39425E-02  1.93591E-01  3.26313E-01  1.29969E-01  6.05765E-01  4.39586E-02  9.13325E-02  3.97858E-01  2.52219E-01
   4.90572E-01  2.84068E-01  1.86870E-01  4.16468E-01  5.18838E-01  3.41671E-01  3.83962E-01  1.93385E-01  2.05095E-01  2.32794E-02
  -1.09488E-01  3.93018E-01  1.16396E-01 -4.44588E-01 -1.39823E-01 -6.57588E-02 -1.90568E-01 -3.34437E-02 -1.50509E-01 -8.67414E-02
  -7.22575E-02 -2.02896E-01 -3.34406E-01  8.74689E-02  3.66288E-02 -8.42134E-02  2.39580E-01 -5.89945E-03 -3.41157E-01 -5.69996E-01
  -1.04301E+00 -1.13117E+00 -6.98359E-01 -9.16860E-01 -7.27408E-01 -7.13368E-01 -1.04047E+00 -1.38510E+00 -1.05713E+00 -3.82860E-01
  -2.97718E-01  3.42216E-03  1.41499E-01  1.64833E-01  9.02524E-02  1.44454E-01 -1.99676E-01 -1.10288E-01  2.01313E-01  1.17336E-01
  -1.44408E-01 -1.00702E-01 -6.97260E-02 -7.58414E-02  2.29391E-01  1.28202E-01  3.15870E-02 -1.53734E-03  2.26909E-01 -6.11452E-02
   2.97512E-01  2.60507E-01  9.23751E-02  1.14336E-01 -1.46281E-01  6.95418E-02  2.38591E-02  1.52740E-01 -1.98837E-02  3.24076E-01
  -6.83566E-02  9.22725E-02  3.82440E-01  9.17886E-02  2.54374E-01  3.30031E-01  1.87446E-01 -2.10409E-01  5.85570E-01  4.29075E-01
   2.19482E-01  2.52919E-01  1.80476E-01  6.99361E-02 -3.00807E-01  8.03999E-02  1.87684E-01  2.75875E-01  2.53777E-01  1.48225E-01
   2.43556E-01  3.19718E-01  1.06188E-01  1.47761E-01  1.30758E-01  6.68171E-02  3.43481E-02 -9.62095E-02  1.13931E-01  6.74311E-02
  -8.07657E-03 -1.99163E-02 -7.28044E-02  5.90399E-02 -8.59881E-02 -1.68796E-01 -1.85799E-01 -1.64818E-01  2.19931E-01 -8.31270E-02
   9.67489E-02  3.33587E-02 -3.44987E-01 -2.91460E-01 -3.00054E-01 -3.18877E-01 -6.06018E-01  9.74974E-02 -1.34931E-01 -4.07197E-01
  -1.21145E-01 -6.41012E-02  1.89992E-01 -2.10554E-01  1.26835E-01  2.10062E-01 -1.60483E-01 -4.04968E-02 -6.57293E-02  2.82161E-02
   1.39386E-01  1.27780E-01 -2.64532E-02 -4.68862E-02  2.63172E-01 -4.78857E-02 -5.05020E-02  4.12070E-01  4.57985E-01  3.63009E-01
   2.89665E-01  3.46148E-01  5.68762E-02  9.84572E-02  2.56826E-01  1.54734E-01 -8.29645E-02  7.52785E-02  1.82253E-01  1.19665E-01
   3.30019E-01 -2.26845E-01 -9.49545E-02 -7.26573E-02 -1.32912E-01  1.61499E-01 -2.44892E-01 -2.11418E-01 -2.52518E-01 -1.78757E-02
  -1.57891E-01 -2.58438E-01 -6.04910E-02 -5.38946E-01 -3.86614E-01 -3.18713E-01 -1.31692E-01 -2.93681E-02 -5.87164E-02 -2.45779E-01
  -2.49661E-01  2.10891E-01 -6.25613E-02 -6.94027E-02 -1.49623E-01  9.31237E-02 -8.58657E-02 -1.93737E-01 -3.64935E-02 -2.12051E-01
   3.25252E-01 -4.29352E-02  1.97475E-01  2.30924E-01  2.92820E-02  4.14552E-01 -1.77192E-01 -7.24863E-02  7.20359E-03 -1.57822E-01
   2.79125E-01  4.44081E-01 -2.33667E-02 -2.83657E-01 -1.03206E-01 -1.01334E-01  1.56504E-01  2.76486E-02 -4.43872E-02  2.03755E-01
  -1.27182E-01  1.10181E-01  4.64316E-01  1.71561E-01  5.22252E-02  4.00396E-01  2.40924E-01  7.31488E-02  4.25330E-01  2.59678E-02
   1.37253E-01  2.81412E-01 -1.71565E-01 -1.01860E-01  5.56234E-03  6.09044E-02 -1.80226E-01 -3.99763E-01 -2.77801E-01 -2.90815E-01
  -3.43704E-01 -2.95213E-01 -4.50404E-01 -5.38512E-01 -3.95072E-01 -3.68024E-01 -2.16501E-01 -9.19607E-02 -1.52842E-01 -1.64634E-01
  -6.15762E-02 -3.50888E-02 -5.76572E-02 -7.35582E-03 -7.99941E-02 -1.28160E-01 -3.78838E-01 -4.37545E-01 -9.49463E-02 -6.28697E-03
   2.36909E-01  4.56829E-01 -6.63284E-03 -7.07148E-02  3.82493E-01  2.09532E-01  1.99332E-01  1.52677E-01  1.68205E-02  1.73162E-01
   1.65189E-01  2.26156E-01  1.65851E-01 -2.22733E-01 -4.97899E-01  7.77533E-02  5.74179E-02 -2.48404E-01  1.97819E-01  1.93010E-01
  -9.33716E-02 -1.41732E-01 -8.38466E-03 -1.26237E-01 -1.55936E-01 -3.31671E-01 -4.24478E-01 -2.53755E-01 -3.29951E-01 -5.00031E-02
   5.39614E-02  5.89328E-02  1.36044E-01 -1.28477E-02  2.73449E-02  6.51938E-02  1.57847E-01  1.14756E-01 -1.08819E-02 -1.64959E-01
  -1.84959E-01 -9.26865E-02 -1.96816E-01  1.47777E-01  1.54515E-01 -6.90499E-02 -1.71272E-01 -2.51104E-01  1.47463E-01  4.70445E-02
  -3.12142E-01  1.54674E-01  1.90956E-01 -1.84739E-01 -1.98165E-01 -2.28800E-01  1.05652E-01 -8.00774E-02 -8.14009E-02 -1.77424E-01
  -1.53983E-01  2.03704E-01 -2.33179E-02 -2.47507E-02 -1.74661E-01 -5.07407E-02 -2.37164E-01  2.93597E-01  2.93254E-01 -2.36045E-01
   4.24549E-01  5.88137E-02 -2.04567E-01  1.01913E-01  5.03488E-02 -6.85113E-02 -3.32124E-02 -1.11576E-01 -2.02332E-01 -2.72074E-02
   2.47491E-01  7.16799E-02 -6.19879E-02  1.09795E-02  1.56874E-01  3.14249E-02 -1.90151E-01  3.49489E-01  8.25383E-02 -2.72615E-01
  -1.58982E-01 -1.20141E-01 -3.08693E-01 -1.12775E-01 -2.59934E-02 -1.23616E-02  4.63589E-01  1.05604E-01  8.62931E-02 -8.50453E-02
  -1.58572E-02  4.26669E-01  1.27979E-01 -6.49687E-02
 NY points of the fit to the data follow
   4.78464E-02  4.31590E-02  3.27336E-02  2.05832E-02 -6.08198E-03  1.69042E-03 -1.90055E-02 -4.97246E-04  2.09170E-03  1.66442E-02
   5.75259E-02  8.44280E-02  2.52035E-01  1.71653E-01  3.90899E-01  2.04648E-01  3.68478E-01  2.15891E-01  4.09636E-01  2.48116E-01
   4.87448E-01  2.19937E-01  3.24599E-01  1.19882E-01  1.19966E-01  3.87589E-02  4.75684E-02 -1.15543E-02 -2.42889E-02 -5.78012E-02
  -8.07150E-02 -1.04393E-01 -1.22136E-01 -1.49221E-01 -1.54177E-01 -1.78471E-01 -1.49814E-01 -1.73312E-01 -1.13002E-01 -1.25224E-01
  -5.41705E-02 -4.82013E-02  1.92236E-02  2.65951E-02  8.92204E-02  9.41294E-02  1.41079E-01  1.52833E-01  1.66804E-01  1.68232E-01
   1.40863E-01  1.19832E-01  6.15206E-02  3.60515E-02 -2.28271E-02 -7.85552E-02 -1.25332E-01 -1.99422E-01 -2.43253E-01 -3.12425E-01
  -3.01231E-01 -3.90147E-01 -3.38575E-01 -3.31902E-01 -3.37977E-01 -1.97078E-01 -1.92480E-01 -7.95188E-02 -1.85935E-03  7.08658E-02
   5.75049E-02  2.37603E-01  1.10121E-01  2.39842E-01  1.34537E-01  9.38954E-02 -4.12578E-02 -8.34403E-02 -1.61998E-01 -2.06511E-01
  -1.46702E-01 -1.82727E-01 -1.40525E-01 -1.10677E-01 -8.22556E-02 -2.66083E-02  1.25439E-01  1.50942E-01  2.88488E-01  3.39177E-01
   3.38478E-01  3.59976E-01  3.05804E-01  2.46979E-01  1.83833E-01  1.19684E-01  9.90267E-02  4.10633E-02  7.78136E-02  2.09720E-02
   6.71959E-02  1.04979E-02  7.55860E-02  4.63039E-02  1.55028E-01  1.59656E-01  2.57858E-01  2.63831E-01  3.09189E-01  3.10875E-01
   3.26865E-01  3.40082E-01  3.39754E-01  3.55154E-01  3.59027E-01  3.64008E-01  3.70127E-01  3.71711E-01  3.59347E-01  3.14608E-01
   3.11782E-01  2.13018E-01  1.80530E-01  6.75362E-02  5.58533E-02 -1.43087E-01 -3.98797E-02 -3.25501E-01 -1.55229E-01 -3.77980E-01
  -2.79069E-01 -4.46300E-01 -4.42853E-01 -6.30145E-01 -5.47278E-01 -6.29896E-01 -4.94615E-01 -4.51891E-01 -4.56355E-01 -4.00402E-01
  -5.12153E-01 -4.43331E-01 -3.98836E-01 -3.05694E-01 -1.88468E-01 -1.14138E-01 -6.83413E-02 -2.35866E-02  2.12653E-02  5.44129E-02
   8.75535E-02  1.11297E-01  1.31025E-01  1.48561E-01  1.61432E-01  1.69911E-01  2.17534E-01  2.51036E-01  3.03582E-01  3.54543E-01
   3.94354E-01  4.59093E-01  4.84779E-01  5.86600E-01  4.44100E-01  4.68637E-01  2.54446E-01  2.28141E-01  1.02495E-01  1.49556E-01
  -2.74116E-02  5.37248E-03 -2.72038E-01 -3.51834E-01 -4.57880E-01 -4.79597E-01 -4.53303E-01 -3.95167E-01 -3.94899E-01 -3.66164E-01
  -3.39354E-01 -3.15470E-01 -2.85778E-01 -2.67291E-01 -2.47586E-01 -2.33594E-01 -2.18645E-01 -2.07128E-01 -1.95554E-01 -1.86972E-01
  -1.76164E-01 -1.67307E-01 -1.57652E-01 -1.49056E-01 -1.40561E-01 -1.32243E-01 -1.24616E-01 -1.16792E-01 -1.10106E-01 -1.03450E-01
  -9.78227E-02 -9.25148E-02 -8.77743E-02 -8.39134E-02 -7.98733E-02 -7.70525E-02 -7.34348E-02 -7.13116E-02 -6.81362E-02 -6.59391E-02
  -6.40998E-02 -6.11739E-02 -6.13823E-02 -6.51303E-02 -6.59118E-02 -6.64524E-02 -6.36846E-02 -5.97913E-02 -6.19511E-02 -5.22659E-02
  -4.29637E-02  1.30954E-03  2.09384E-02  6.69280E-02  7.76901E-02  1.11992E-01  1.43834E-01  2.05715E-01  2.18715E-01  2.80414E-01
   2.39053E-01  2.45493E-01  2.06649E-01  2.06375E-01  1.85002E-01  1.91357E-01  1.21052E-01  9.79286E-02  2.73710E-02  4.32123E-03
  -2.14158E-02 -3.25389E-02 -5.38088E-02 -5.93961E-02 -7.62039E-02 -8.59009E-02 -9.49032E-02 -1.03032E-01 -1.21704E-01 -1.23569E-01
  -1.53539E-01 -1.40902E-01 -1.84054E-01 -1.16158E-01 -1.78198E-01 -9.34830E-02 -1.17430E-01 -7.46711E-02 -4.98821E-02 -1.76221E-02
   1.25820E-02  6.86980E-02  9.71676E-02  1.13446E-01  1.72440E-01  1.42176E-01  1.94353E-01  1.62543E-01  1.78275E-01  1.60487E-01
   1.38820E-01  1.35787E-01  9.05911E-02  7.36274E-02  3.33610E-02 -6.67826E-03 -4.74278E-02 -1.02830E-01 -1.36066E-01 -1.82745E-01
  -2.03613E-01 -2.02881E-01 -1.95375E-01 -1.62357E-01 -1.17266E-01 -9.70297E-02 -4.81501E-02 -1.41869E-02  2.13932E-02  9.67238E-02
   1.39135E-01  1.99512E-01  2.35515E-01  2.49280E-01  2.47746E-01  2.51992E-01  2.26808E-01  2.42186E-01  2.17101E-01  2.35555E-01
   2.20720E-01  2.30729E-01  2.25328E-01  2.26551E-01  2.21602E-01  2.19925E-01  2.14676E-01  2.10044E-01  2.03223E-01  1.95705E-01
   1.81973E-01  1.71845E-01  1.47439E-01  1.31573E-01  9.50163E-02  7.12738E-02  2.82516E-02 -2.16151E-04 -4.48493E-02 -6.36004E-02
  -1.11751E-01 -1.02911E-01 -1.48767E-01 -1.11938E-01 -1.46441E-01 -9.69780E-02 -1.21562E-01 -7.76411E-02 -8.60376E-02 -6.46256E-02
   1.36169E-02  8.34371E-04  8.35735E-02  1.96293E-02  6.98230E-02 -3.92459E-02 -2.85715E-02 -1.77013E-01 -3.91211E-01 -5.63469E-01
  -7.23135E-01 -8.21465E-01 -7.61870E-01 -7.73256E-01 -8.41860E-01 -8.53437E-01 -1.01987E+00 -1.01241E+00 -8.18059E-01 -7.24660E-01
  -4.44291E-01 -3.45676E-01 -2.59559E-01 -2.07534E-01 -1.36529E-01 -9.76444E-02 -6.30629E-02 -4.22566E-02 -3.50328E-02 -3.32619E-02
  -2.52602E-02 -3.60416E-02 -2.42120E-02 -3.93295E-02 -2.55338E-02 -4.31756E-02 -2.45050E-02 -4.50244E-02 -2.09269E-02 -3.61447E-02
  -1.35409E-02 -1.82417E-02 -1.84910E-03 -6.60686E-04  1.11914E-02  1.41702E-02  2.30441E-02  2.64385E-02  3.32663E-02  3.54864E-02
   4.20652E-02  4.33535E-02  4.94240E-02  5.08006E-02  5.54082E-02  5.74453E-02  6.10355E-02  6.44575E-02  6.69841E-02  7.11114E-02
   7.18974E-02  7.57116E-02  7.53069E-02  7.91814E-02  7.81185E-02  8.12646E-02  7.94268E-02  8.01711E-02  7.72627E-02  7.60250E-02
   7.17126E-02  6.97234E-02  6.44061E-02  6.16633E-02  5.55991E-02  5.19119E-02  4.55321E-02  4.12244E-02  3.52218E-02  3.08104E-02
   2.56773E-02  2.13795E-02  1.69521E-02  1.23907E-02  9.08111E-03  4.31802E-03  2.09653E-03 -1.95041E-03 -4.33269E-03 -7.16964E-03
  -9.02832E-03 -1.13907E-02 -1.27642E-02 -1.40588E-02 -1.45395E-02 -1.40288E-02 -1.15599E-02 -9.73094E-03 -4.02543E-03 -1.21330E-03
   1.09240E-02  1.33376E-02  2.92582E-02  3.04341E-02  4.03617E-02  4.13780E-02  4.86434E-02  5.07297E-02  6.24321E-02  6.46203E-02
   7.16501E-02  7.46116E-02  7.41734E-02  7.95399E-02  8.25523E-02  9.01893E-02  9.68412E-02  1.05026E-01  1.11380E-01  1.18509E-01
   1.24303E-01  1.30404E-01  1.33617E-01  1.37525E-01  1.36860E-01  1.37670E-01  1.34023E-01  1.32605E-01  1.26842E-01  1.23412E-01
   1.15844E-01  1.09817E-01  1.01721E-01  9.37885E-02  8.62733E-02  7.79740E-02  7.09900E-02  6.27514E-02  5.66988E-02  4.86597E-02
   4.41162E-02  3.74246E-02  3.41353E-02  2.93315E-02  2.75098E-02  2.45209E-02  2.40969E-02  2.31455E-02  2.39757E-02  2.51969E-02
   2.75089E-02  2.99435E-02  3.29413E-02  3.59364E-02  3.89719E-02  4.26782E-02  4.60064E-02  4.96124E-02  5.23884E-02  5.51186E-02
   5.63144E-02  5.85115E-02  5.83777E-02  5.99265E-02  5.93694E-02  5.95657E-02  5.81666E-02  5.73786E-02  5.47269E-02  5.33961E-02
   5.03524E-02  4.79333E-02  4.52176E-02  4.20630E-02  3.96985E-02  3.65543E-02  3.41639E-02  3.11686E-02  2.85957E-02  2.56768E-02
   2.27528E-02  1.95135E-02  1.62389E-02  1.27124E-02  8.76454E-03  4.27318E-03 -1.42439E-03 -7.62269E-03 -1.61538E-02 -2.40727E-02
  -3.51252E-02 -4.46051E-02 -5.72986E-02 -6.81598E-02 -8.27015E-02 -9.43921E-02 -1.09869E-01 -1.20968E-01 -1.34460E-01 -1.44144E-01
  -1.54630E-01 -1.61977E-01 -1.69269E-01 -1.73697E-01 -1.77202E-01 -1.78896E-01 -1.78856E-01 -1.78165E-01 -1.75708E-01 -1.72376E-01
  -1.68108E-01 -1.62507E-01 -1.56809E-01 -1.50239E-01 -1.43623E-01 -1.36563E-01 -1.28945E-01 -1.21208E-01 -1.12765E-01 -1.04744E-01
  -9.58261E-02 -8.83351E-02 -7.93714E-02 -7.26307E-02 -6.35720E-02 -5.80705E-02 -4.95882E-02 -4.43429E-02 -3.79624E-02 -3.25779E-02
  -2.75685E-02 -2.32334E-02 -1.86912E-02 -1.56436E-02 -1.23305E-02 -9.44288E-03 -7.47087E-03 -4.59727E-03 -3.04299E-03 -9.16219E-04
   8.89469E-04  2.51615E-03  4.01550E-03  5.28001E-03  6.39896E-03  7.54918E-03  8.59830E-03  9.58421E-03  1.03919E-02  1.10839E-02
   1.15545E-02  1.15035E-02  1.21450E-02  1.17654E-02  1.22081E-02  1.24206E-02  1.20644E-02  1.17063E-02  1.16066E-02  1.07692E-02
   1.07797E-02  1.08167E-02  1.01141E-02  1.04396E-02  8.96628E-03  8.48471E-03  7.34924E-03  7.27577E-03  6.68112E-03  7.08099E-03
   6.52467E-03  6.77083E-03  6.43159E-03  6.49707E-03  6.91070E-03  6.72782E-03  8.06260E-03  7.44186E-03  9.02627E-03  7.69435E-03
   9.36358E-03  7.77047E-03  9.55773E-03  8.01075E-03  9.99759E-03  8.38555E-03  1.02232E-02  8.26968E-03  1.00732E-02  9.27199E-03
   1.07909E-02  1.14474E-02  1.19046E-02  1.22274E-02  1.23531E-02  1.24570E-02  1.31476E-02  1.36386E-02  1.36783E-02  1.38986E-02
   1.30524E-02  1.26367E-02  1.25548E-02  1.18857E-02  1.21106E-02  1.16866E-02  1.12083E-02  1.10462E-02  1.06540E-02  1.05208E-02
   1.02301E-02  1.04356E-02  9.69688E-03  1.06035E-02  1.04740E-02  1.15057E-02  1.17265E-02  1.31341E-02  1.27261E-02  1.48042E-02
   1.40884E-02  1.68351E-02  1.64418E-02  1.95520E-02
 NY background values follow
     7.964E-02    7.944E-02    7.924E-02    7.903E-02    7.883E-02    7.863E-02    7.842E-02    7.822E-02    7.802E-02    7.781E-02
     7.761E-02    7.741E-02    7.720E-02    7.700E-02    7.680E-02    7.659E-02    7.639E-02    7.619E-02    7.598E-02    7.578E-02
     7.558E-02    7.537E-02    7.517E-02    7.497E-02    7.476E-02    7.456E-02    7.436E-02    7.415E-02    7.395E-02    7.375E-02
     7.354E-02    7.334E-02    7.314E-02    7.293E-02    7.273E-02    7.252E-02    7.232E-02    7.212E-02    7.191E-02    7.171E-02
     7.151E-02    7.130E-02    7.110E-02    7.089E-02    7.069E-02    7.049E-02    7.028E-02    7.008E-02    6.988E-02    6.967E-02
     6.947E-02    6.926E-02    6.906E-02    6.886E-02    6.865E-02    6.845E-02    6.824E-02    6.804E-02    6.784E-02    6.763E-02
     6.743E-02    6.722E-02    6.702E-02    6.682E-02    6.661E-02    6.641E-02    6.620E-02    6.600E-02    6.580E-02    6.559E-02
