 
 $NMID
 ID=''
 FMTDAT='(2E13.5)'
 TRAMP=   1.00000E+0
 VOLUME=   1.00000E+0
 $END
   6.40872E+1  -1.07985E+2
  -4.08946E+2   7.51505E+2
   3.23042E+2  -1.38386E+3
  -2.36172E+2   1.14239E+3
   3.53121E+1  -7.08887E+2
   1.34690E+3   2.76570E+2
  -2.62190E+3   5.39989E+2
  -9.18714E+2   7.55491E+2
  -1.24593E+3   2.12357E+3
   2.03701E+2  -1.58662E+3
   1.10349E+3  -7.47947E+2
   2.78593E+3   1.49345E+3
   6.53957E+2   2.05986E+3
  -2.46082E+3   3.58464E+3
  -1.51124E+3  -7.31393E+2
   6.11025E+1  -9.27766E+2
   3.40070E+3   3.84995E+2
   3.36787E+2   2.75466E+2
   1.37811E+3  -1.89212E+3
   1.46100E+2   6.07479E+2
   1.35730E+3  -5.52354E+2
   8.72093E+2   2.28790E+3
  -2.66753E+3  -4.70599E+2
  -3.79835E+2  -3.63764E+3
   2.34824E+3  -1.95760E+3
   2.46776E+3   9.61372E+2
  -1.35979E+3   1.17228E+3
  -2.28429E+3  -1.04128E+3
  -1.30083E+3  -4.44213E+3
   2.94398E+3  -3.43858E+3
   4.42840E+3   3.08095E+2
  -2.30339E+3   4.01792E+3
  -6.07498E+3   6.81904E+2
  -1.05619E+3  -2.61248E+2
  -1.24646E+3   2.06901E+3
  -3.30008E+3   3.68104E+2
   1.66099E+3  -2.74555E+3
   4.61047E+3  -7.77745E+2
   2.18446E+3   1.98708E+2
   4.10637E+1   1.90168E+3
  -3.47183E+2   5.85740E+3
  -3.94300E+3   1.71308E+3
  -1.58825E+3  -5.19432E+2
   3.19655E+3  -2.33697E+3
   2.45639E+3   9.03046E+2
   1.16715E+3   1.79540E+3
   8.94768E+2   1.05450E+2
   1.03409E+2   1.40961E+3
   7.78301E+2   6.65430E+2
  -1.13190E+3  -6.10473E+2
  -2.70363E+3  -1.32807E+3
   1.62120E+3  -5.56620E+3
   1.85233E+3  -3.09577E+3
   1.00904E+3   9.47066E+2
  -1.35329E+3   3.39754E+2
   2.04667E+1   6.81240E+2
  -1.64162E+3   1.95655E+3
  -2.91615E+3  -1.31591E+3
  -1.57562E+3  -2.12153E+3
   3.50671E+3  -3.29073E+3
   4.95734E+3  -1.63179E+3
   5.02885E+3   4.09847E+2
  -2.84527E+2   2.73954E+3
  -2.07735E+3   1.25467E+2
  -2.19924E+2  -1.94303E+3
   2.89684E+3   1.92959E+0
   6.22248E+2   3.65145E+3
  -3.24241E+3   2.01796E+3
  -2.77766E+3   1.64039E+2
  -1.36628E+3   1.26174E+3
   4.17647E+2   1.93444E+3
  -1.76048E+3   2.80810E+2
  -6.95950E+2  -2.87078E+3
  -1.75272E+3  -3.57997E+3
  -7.50407E+2  -1.52134E+3
   1.18617E+3   1.21635E+2
  -8.44657E+2   7.26821E+2
   1.34482E+3  -1.94241E+3
   3.41724E+3  -9.28826E+2
  -6.37851E+1   2.42589E+3
   1.08386E+3   1.02818E+2
  -9.51666E+1  -1.57590E+3
   2.06464E+3   3.70194E+2
   7.97311E+2   2.66330E+3
  -1.36250E+3   1.29546E+3
  -8.18985E+2   9.51051E+1
  -6.90547E+2  -2.19208E+3
   2.66979E+3   2.38724E+1
   1.50765E+3   2.32938E+3
   1.68940E+3   2.24550E+3
  -9.98820E+2   2.39642E+3
   1.80816E+3   9.36627E+2
   1.32841E+3   3.13097E+3
  -1.88210E+3   1.31627E+3
  -1.16752E+3  -6.04331E+2
  -6.30796E+2  -2.34947E+3
   1.96043E+3  -4.39642E+2
   1.12663E+3   2.50926E+3
  -1.27751E+3   3.83910E+3
  -2.80296E+3  -1.73727E+3
  -1.44292E+3  -2.24457E+3
   1.65970E+3  -1.44196E+3
  -1.89716E+3   2.38776E+3
  -2.00137E+3   1.96266E+3
  -4.49302E+3   1.37220E+3
  -3.83928E+3  -2.05012E+3
  -2.76197E+2  -1.00171E+3
  -2.83057E+3  -2.47304E+2
  -3.22052E+3  -2.14942E+3
  -1.48841E+3  -4.35987E+3
  -1.13578E+3  -3.38148E+3
   5.35334E+2   7.84739E+2
  -2.94917E+2   8.24729E+2
  -5.13043E+2   9.32998E+2
  -4.39832E+3  -2.62799E+2
  -1.75344E+3  -9.35610E+2
  -2.12651E+3  -2.30080E+3
   1.03583E+3  -1.03578E+3
   1.61811E+3  -2.45757E+3
   1.87062E+2  -5.24195E+2
   1.42234E+3  -5.90043E+1
  -2.92352E+2  -5.03643E+2
  -9.76567E+1  -2.65843E+3
   7.30614E+1  -1.62989E+2
  -2.77082E+3   9.46566E+2
  -2.86324E+2   9.09698E+2
  -8.01032E+2   9.56860E+0
   9.23063E+2  -9.88338E+2
   2.63982E+2   9.37334E+2
  -2.31329E+3   3.38516E+2
  -2.02473E+2  -1.14163E+3
  -1.00648E+3  -1.41919E+3
   3.41519E+3  -1.05457E+3
   8.38958E+2   1.29907E+3
  -1.83040E+3   1.81819E+3
  -2.96415E+3   8.55776E+2
   9.11940E+0  -5.67588E+2
  -3.99145E+2  -1.58367E+3
  -1.47382E+3   1.32684E+3
   1.92253E+3  -3.12879E+2
  -1.14995E+3   2.68481E+3
   3.16713E+3  -9.65709E+2
   1.33390E+3   3.46111E+3
   8.09872E+2   1.81882E+3
   1.65046E+3  -3.61062E+2
  -1.05109E+3   1.16366E+3
   2.46548E+3   2.03532E+3
   1.04314E+3  -1.83252E+2
   5.76907E+2   1.63918E+3
   5.83025E+0   2.77879E+3
  -5.48188E+2   1.63507E+3
  -2.47378E+3  -1.97105E+2
   2.93135E+2  -1.30360E+3
   2.27531E+3  -1.06571E+1
   3.67351E+3   1.23925E+3
   7.64098E+2   3.90041E+2
  -8.47764E+2  -1.76941E+3
  -1.46966E+3   6.83363E+1
   2.17472E+2  -2.22660E+1
   2.05215E+3   4.46543E+2
   8.23218E+2  -1.05590E+2
   1.17194E+3  -5.30157E+2
   1.22834E+2  -1.07619E+3
   9.66764E+2   1.40910E+1
   2.79775E+3   1.05522E+3
   3.02932E+2  -7.66910E+2
  -1.55988E+3  -1.04070E+3
   9.98368E+2  -1.90856E+3
   1.41079E+3   1.88883E+3
  -9.78692E+2   8.93174E+2
   2.26543E+2  -1.92783E+3
  -1.42481E+3  -1.43412E+3
  -4.96652E+2  -5.10459E+2
   2.08498E+2  -5.85348E+2
  -6.70987E+1  -2.00861E+3
  -2.05280E+2  -1.10930E+3
   5.43116E+2  -1.74912E+3
   1.33061E+3   1.11452E+3
   2.00628E+3   6.64344E+2
   8.55301E+1   1.06378E+3
  -1.59766E+3  -2.07004E+2
   9.40169E+2   2.43110E+2
   9.29965E+1   5.14430E+2
  -4.82710E+2   5.64836E+2
   1.48771E+3  -1.41240E+2
  -2.55021E+2   1.80669E+3
  -1.32552E+3   1.26306E+3
   6.05139E+2   7.15412E+2
  -2.13715E+3   6.67663E+1
  -2.84817E+2  -1.25183E+3
  -3.32039E+2   2.78131E+2
   1.47983E+3   6.26038E+2
   7.13396E+2   6.24727E+2
  -7.33379E+2   1.34107E+2
   5.23691E+2   1.21012E+3
  -3.07717E+2  -4.81743E+2
   1.50966E+3  -2.31936E+2
   1.13472E+3  -8.00378E+2
   2.65093E+3  -1.49906E+3
   1.50457E+3   1.40458E+3
  -1.40413E+3   2.52712E+3
  -7.54334E+2  -2.39266E+1
  -1.42149E+3  -1.97161E+3
  -7.51616E+2  -5.10219E+2
   1.66071E+3   1.76868E+3
   1.21200E+3   6.85792E+2
   5.61066E+2  -8.70750E+2
  -7.94190E+2   8.88214E+2
   1.79935E+3   1.49744E+3
  -2.03848E+2   1.33730E+3
  -1.07869E+3  -2.42368E+3
  -9.99155E+2  -1.43144E+3
   3.02836E+2  -7.30161E+2
   1.44151E+3   1.86201E+3
  -4.52165E+2   5.41472E+2
  -9.44791E+2   1.01310E+3
   2.15096E+1  -1.60693E+3
   1.36597E+3   7.48248E+2
   9.30807E+2   2.18835E+3
  -2.49928E+2  -2.71614E+3
   4.83269E+2  -5.97602E+2
   2.21697E+2  -9.40373E+2
   9.76683E+2   6.15888E+2
   1.58659E+3  -8.68134E+2
  -1.24306E+3  -2.85089E+2
   7.58155E+2  -1.99010E+3
   1.92592E+3  -8.16169E+2
  -8.07429E+2   1.36168E+2
   9.30456E+2   1.95438E+3
  -1.58018E+3  -2.00608E+3
   1.39353E+3  -3.86333E+2
   5.19822E+2   5.48966E+2
   4.88745E+2  -3.31935E+2
  -3.83907E+2  -3.14074E+3
   8.74170E+2  -1.29735E+3
   3.94265E+3   2.42549E+2
   1.17129E+3  -2.34155E+2
  -2.31820E+3   7.96818E+2
  -1.69867E+3  -8.59175E+2
   2.15971E+2  -6.20825E+2
   1.64535E+3   1.06064E+3
   1.18950E+3   4.68881E+2
   8.14341E+1   1.26529E+3
  -1.82270E+2  -1.82284E+3
   9.63579E+2  -1.69371E+3
  -6.53222E+2   1.46608E+3
   5.23910E+2   6.50691E+2
  -5.85063E+2  -1.16080E+3
  -4.21620E+2  -3.87285E+2
   4.48606E+2  -8.53227E+1
  -4.95264E+2   9.43209E+2
  -1.14889E+3  -1.07533E+2
  -2.07357E+3  -1.17217E+2
   1.30665E+3   1.03942E+3
   2.68089E+1   1.19723E+2
   2.80677E+2   3.77585E+2
  -3.40649E+2  -8.23310E+2
  -3.68645E+2   2.69475E+2
   6.51494E+2   2.49567E+3
  -1.02699E+3   1.19372E+3
  -1.02555E+3  -8.48357E+2
  -1.01481E+3  -1.89090E+1
   2.64075E+3   2.49981E+2
  -8.01994E+2   8.89729E+2
  -1.43721E+3  -6.05641E+2
  -2.91438E+2  -3.50557E+2
   5.12815E+2   2.02331E+3
   5.28001E+2   5.50715E+2
  -2.49052E+3   1.90033E+3
  -1.37805E+3  -3.62592E+2
   1.58909E+3  -1.34892E+3
  -3.63462E+2   2.10255E+3
   1.25551E+3   6.78411E+2
   2.82069E+2   3.03800E+3
  -1.28920E+3   6.49771E+2
  -1.70042E+2  -6.81083E+2
  -4.94182E+1   1.30942E+3
  -5.82111E+2  -8.93839E+2
  -3.02077E+2  -8.03463E+2
   7.27130E+2  -1.67416E+2
  -5.29087E+2  -7.41281E+2
   2.57104E+2   5.71746E+2
  -1.91072E+3   1.42060E+3
  -1.71782E+3  -1.50112E+3
   1.41363E+3   5.37490E+2
   1.76743E+3   4.66863E+2
  -1.69504E+3  -4.74932E+2
  -1.02795E+3  -3.54072E+2
  -2.06583E+2  -1.57658E+0
  -6.24100E+2   1.68961E+3
  -3.72199E+2  -4.92483E+2
  -9.72262E+2  -5.97414E+2
   1.40598E+3  -5.16898E+2
   6.75004E+2  -2.88775E+2
  -2.53481E+3  -6.06041E+2
  -4.29136E+2   1.05754E+2
   1.25334E+2  -1.49620E+3
   2.97897E+1  -4.26398E+2
  -1.31683E+3  -2.53858E+2
  -5.38776E+2   2.25415E+2
   4.10389E+2  -6.23033E+2
   1.30219E+3   6.56423E+2
  -8.25349E+1  -2.15672E+3
  -7.56078E+1  -6.60802E+1
  -1.43979E+3  -1.48543E+2
   5.20391E+2  -2.60670E+2
   1.09824E+3  -8.49022E+2
   1.10429E+3   1.67940E+2
  -1.28812E+3   1.59550E+3
   2.32342E+2   9.15100E+2
   1.77340E+3  -1.34508E+3
  -9.92350E+2  -8.77416E+2
  -1.42530E+3   3.74162E+3
  -2.02292E+3   3.29070E+2
  -1.45712E+3  -1.66727E+3
   2.12579E+3   1.63073E+3
   6.67428E+2   2.18187E+3
   1.69446E+2  -1.19604E+2
  -1.92404E+3   1.28191E+3
  -7.02699E+2  -9.91845E+2
   2.01194E+3  -4.18361E+2
   1.71999E+3  -1.00649E+3
  -6.69417E+2  -5.58047E+2
   1.15975E+3   2.55186E+2
  -6.98473E+2   8.51125E+2
   1.22466E+3   4.12118E+2
  -2.18360E+3  -5.82207E+2
   1.26754E+2  -1.46359E+3
   6.43830E+2  -1.26836E+2
   1.91787E+3  -1.39989E+3
  -2.68264E+2   3.37938E+2
  -1.78529E+3   6.28690E+2
   2.94426E+2  -1.57786E+1
   9.97931E+2  -6.19121E+2
   8.72533E+2   2.70793E+2
   4.74274E+1  -2.49423E+1
   5.16551E+2  -8.29001E+2
  -2.60885E+2   1.66502E+3
   1.03962E+2  -9.91082E+2
   2.58469E+2   6.50916E+2
  -1.40137E+3  -3.68095E+2
  -1.40251E+3   8.36133E+2
   2.15292E+3  -1.39230E+2
  -2.47989E+3   7.99116E+1
  -2.83397E+3  -4.71613E+1
  -9.53036E+2  -1.60843E+3
   1.61827E+3  -2.02719E+3
   1.13642E+3  -6.87518E+2
  -1.43587E+3   7.44501E+1
  -2.01252E+3  -9.23742E+2
  -5.52283E+2  -2.41620E+3
  -5.17837E+2  -5.21556E+2
   8.58675E+2  -2.00441E+1
   1.57604E+3  -8.25242E+2
  -3.68464E+2   1.08808E+3
   7.69983E+2   1.01294E+3
   2.16881E+3   1.09431E+3
   9.70600E+2   1.09428E+3
  -1.85674E+3   8.19240E+2
  -1.30324E+3   9.43600E+2
   2.68968E+2  -9.99440E+2
   2.58219E+1   3.71759E+2
  -1.06879E+3  -1.17742E+3
   1.06546E+3   6.36558E+2
   2.12232E+3   9.01500E+2
   7.29148E+2  -5.41070E+1
  -6.05526E+2  -1.33465E+3
