 
 $NMID
 ID=''
 FMTDAT='(2E13.5)'
 TRAMP=   1.00000E+0
 VOLUME=   1.00000E+0
 $END
   7.18625E+1  -1.86048E+2
   2.04169E+3  -1.49241E+3
  -3.42583E+3  -8.28714E+2
  -1.31580E+3  -2.80847E+3
  -2.55900E+3   6.95491E+2
  -1.88635E+3  -8.17817E+1
   2.00528E+3   2.61532E+3
   5.28399E+2   1.57150E+3
  -1.73433E+3   1.75271E+3
  -1.90816E+3  -1.20354E+2
  -1.03284E+3  -3.30768E+3
   2.57756E+3  -7.55659E+3
   2.66582E+3   6.90213E+2
   4.26802E+2   4.27356E+3
  -4.61440E+3   8.09618E+2
  -3.34814E+3  -3.16582E+3
   1.44023E+3  -2.68981E+2
   4.59826E+3   1.16596E+3
   1.80239E+3  -1.87337E+2
   1.34190E+3  -3.92699E+3
  -1.80752E+3  -5.63182E+3
   3.39257E+3  -2.30327E+3
   1.85729E+2   4.00119E+2
  -3.43303E+3   2.35771E+3
  -1.10485E+3   1.07767E+3
   3.48149E+3   1.43843E+1
   4.07778E+3   4.38828E+2
   2.16790E+3   3.07092E+3
  -1.76912E+3   1.15111E+3
  -2.83367E+3  -2.38032E+3
   3.44172E+3  -5.81237E+3
   4.48702E+3   6.80974E+2
  -4.39901E+2   4.39402E+3
   1.45221E+3   2.95620E+3
   1.86333E+3   1.21940E+3
  -2.45682E+2   3.44961E+3
  -4.06114E+3   1.79391E+3
  -2.32489E+3  -3.84560E+3
   6.28145E+2  -2.81674E+3
   3.52776E+2  -1.82051E+3
   3.06852E+3  -1.52519E+3
   1.54046E+3   4.36950E+3
  -4.44822E+3   2.72882E+3
  -4.73847E+3   3.34759E+2
  -3.59147E+3  -2.27697E+3
  -1.50685E+3  -2.03015E+3
  -3.30345E+3   3.55939E+2
  -3.32949E+2  -3.58763E+3
  -5.46506E+2  -1.53948E+3
  -3.15113E+2   2.17031E+3
  -7.55905E+2   1.19990E+3
  -1.55567E+3   2.73304E+2
  -3.80776E+3  -1.82475E+3
   9.32362E+2  -2.75781E+3
   1.27406E+3   1.76138E+3
   2.98200E+3   1.80782E+2
   4.32197E+3   3.14223E+3
   3.05966E+3   4.32860E+3
   1.93056E+3   5.47006E+3
  -1.91983E+3   2.50669E+3
   5.37349E+2   6.16072E+2
  -6.71656E+2  -2.46751E+3
   2.64878E+3  -2.64059E+3
   1.92586E+3  -1.09063E+3
  -2.35204E+3  -1.11693E+3
  -1.33593E+3  -5.64051E+3
   9.75927E+2  -4.40221E+3
   1.47156E+3  -1.50814E+3
  -1.11755E+3   2.53871E+3
  -1.82817E+3  -5.81423E+2
   1.63226E+2  -2.07421E+3
   7.87100E+2  -6.64349E+2
  -1.41905E+3   2.97836E+2
   6.50234E+2   7.73801E+2
   5.80474E+2   6.32880E+1
   8.24573E+2  -1.32574E+3
   1.58424E+3   2.01869E+3
   2.90225E+3   8.33835E+2
   1.00223E+3  -1.23424E+3
   6.32497E+2  -1.55990E+3
   2.09599E+3   6.62047E+1
  -1.39205E+3   7.34229E+2
   4.52077E+2   2.87487E+2
  -5.09030E+2  -3.01202E+3
   1.44962E+3  -1.15486E+2
   1.26788E+3   3.93107E+2
  -5.77890E+2   1.23335E+3
  -3.51589E+3   2.84838E+3
  -3.08177E+3  -8.33333E+2
  -4.12712E+2  -4.14170E+2
  -6.33574E+2   1.12944E+3
  -9.70616E+2   5.33199E+2
   9.33103E+2  -1.16831E+3
   2.78896E+3  -1.56542E+3
   5.28468E+3   1.10389E+3
   1.90512E+3   3.88113E+3
  -5.70964E+2   2.58580E+3
   2.25849E+2  -2.39482E+3
   1.36375E+3  -3.36052E+3
   3.23091E+3  -1.70667E+3
   1.76923E+3   3.85059E+3
  -4.62946E+3   1.19646E+3
  -3.85911E+3   4.12675E+2
  -6.35129E+2  -3.55349E+3
   1.04443E+3  -3.33423E+2
   8.09426E+2  -2.31031E+3
   7.58229E+2   1.50671E+3
   2.29049E+3   9.72484E+2
   2.33712E+3   1.20129E+3
   3.77011E+3   4.76215E+3
  -1.80701E+3   3.46790E+3
  -1.98173E+3   1.45728E+3
  -2.30041E+3  -4.27512E+2
  -1.26675E+3   1.07993E+2
  -2.43462E+2  -1.48024E+3
   1.00073E+3  -1.76990E+3
   1.16645E+3  -1.95112E+3
   2.30011E+3   2.70894E+3
   9.19816E+2  -3.77935E+2
  -1.31837E+3  -1.26658E+3
  -1.72373E+3  -2.15108E+2
  -1.91533E+3  -1.15129E+3
   2.44355E+2   1.03506E+3
  -7.40238E+1   1.93090E+3
  -2.44040E+2   7.23425E+2
  -8.87423E+2   6.20594E+2
   1.00966E+2   5.96327E+2
  -2.39240E+3   2.03275E+3
  -1.06359E+3  -1.25261E+2
   6.56292E+2  -2.60010E+3
   1.10603E+3  -3.12561E+2
  -1.12784E+3   1.47638E+2
  -4.88137E+2   2.07733E+3
  -1.57725E+3  -8.69243E+2
  -5.30549E+2  -2.88983E+3
   3.57125E+3  -9.32262E+2
   4.04183E+3   9.22688E+2
   5.68267E+2   1.86516E+3
  -6.60281E+2  -5.04595E+2
   1.56626E+3  -1.23150E+3
  -5.05897E+2   1.78879E+3
   1.38754E+2   1.23681E+3
  -1.05461E+3   1.54734E+3
   9.97784E+2  -5.77352E+2
   2.45836E+3   1.09517E+3
   1.54035E+3   2.26405E+3
  -1.33731E+3   2.83225E+1
   5.63771E+2   8.50229E+2
  -6.62597E+2   1.01874E+3
  -2.64530E+3   1.58561E+2
  -1.63219E+2  -1.21877E+3
   3.71001E+2  -3.04880E+3
   1.49033E+3   1.20388E+3
   5.73031E+2   2.27073E+2
  -1.31305E+3   1.25135E+3
  -2.59468E+3   1.48015E+3
  -2.87951E+2   3.87269E+1
  -4.22603E+2   5.40695E+2
  -8.32303E+2   2.86711E+3
  -3.64339E+2   1.16085E+3
   3.73206E+2   9.58889E+2
   1.11309E+3   4.04506E+2
   9.82652E+2   1.78516E+3
   5.54054E+1   2.78209E+3
  -9.68152E+2   1.94418E+3
   1.20933E+3  -3.07511E+3
   2.20573E+3  -6.58900E+2
   7.07106E+2   1.11386E+3
  -2.31284E+3   7.63612E+2
  -2.36504E+3  -1.69527E+3
  -1.11229E+3  -2.42780E+3
  -6.76541E+2  -2.33051E+3
  -1.12104E+3  -5.35648E+2
  -6.41172E+2  -1.66279E+2
   1.90165E+2   4.97975E+2
   3.34286E+3  -2.10582E+3
   1.27818E+3   1.78583E+3
  -4.90420E+2  -9.52876E+2
  -1.36606E+3  -6.07238E+2
  -4.64765E+2  -2.34868E+3
   1.64034E+3  -7.45065E+2
  -1.05237E+3   4.19602E+2
   4.81276E+2   3.30049E+2
   8.47403E+2   7.70552E+1
  -1.29813E+3   4.71571E+2
  -2.67568E+3   1.19920E+3
  -9.13232E+2   1.52838E+3
  -2.52102E+3  -3.00385E+3
  -3.02077E+2  -7.54054E+2
   9.96259E+2  -5.23888E+2
   1.07395E+3   4.99181E+2
  -2.62374E+3   2.93958E+3
  -2.10320E+3   1.08368E+3
  -3.70013E+1   1.38850E+2
  -1.19741E+3   7.64988E+2
  -1.23174E+3   4.20842E+2
  -6.14468E+2   1.14246E+2
  -1.71743E+1  -9.31428E+2
  -2.66379E+2   5.87375E+2
  -1.86591E+3   1.27259E+2
  -1.32984E+3  -3.79980E+2
  -2.88649E+3  -1.37665E+3
   1.54230E+3   7.08394E+2
   8.63034E+2   1.38014E+3
  -2.54399E+3   3.16211E+2
   1.47626E+2   1.70452E+3
  -7.31563E+2  -2.50706E+3
   7.08642E+2  -9.23090E+2
  -1.14677E+3   7.28926E+2
  -1.86191E+3   2.67838E+2
  -1.15576E+3  -1.60097E+3
   1.63552E+3  -5.35334E+2
   1.14105E+3   6.50426E+2
  -8.97913E+2   5.33157E+2
  -6.84723E+2   7.60006E+2
  -2.31589E+3  -1.58830E+2
  -9.14408E+2  -1.14628E+3
   1.31762E+3   2.03066E+3
  -2.01089E+3  -6.65878E+2
   7.34099E+2   6.12266E+1
  -2.03155E+3   9.60318E+2
  -1.02428E+3   1.95548E+3
   1.27433E+1   2.63434E+3
   9.34041E+0  -4.02538E+2
   7.22641E+1   6.47721E+2
  -1.19587E+2  -3.16435E+2
   6.59222E+1   1.45877E+2
  -1.17071E+3   1.82368E+3
   2.77586E+2  -1.14288E+3
  -5.82745E+1  -2.05496E+3
  -1.76402E+2  -1.31820E+3
   1.37000E+3  -8.32399E+2
  -1.04948E+2  -1.32574E+3
   2.60013E+2  -2.24100E+3
   1.28469E+3  -1.06198E+3
  -8.43664E+2   1.31566E+3
  -2.19860E+3   1.62925E+3
  -2.22418E+3  -9.15888E+2
   1.70006E+3   4.59348E+2
  -7.56355E+2   3.10956E+2
   3.52645E+2   4.82247E+1
   2.34301E+3   3.68189E+2
   1.51286E+3  -4.75322E+2
  -2.97711E+2   1.75261E+3
   5.78490E+2   2.05796E+1
  -3.09943E+0  -3.54166E+2
   2.67618E+2  -3.91332E+2
   3.18249E+3  -6.63756E+2
  -5.74335E+1   1.19959E+3
  -1.17792E+3   2.30158E+2
  -2.63876E+3   1.99011E+1
  -3.02742E+3  -8.47149E+2
  -2.07776E+3  -1.32814E+3
   9.81532E+2   2.30900E+3
  -2.24386E+2  -3.07484E+2
  -3.32474E+2  -2.18885E+3
  -2.69240E+2  -5.89592E+2
  -6.12855E+1  -1.25203E+2
   1.77093E+3   6.71758E+2
   4.41912E+2   1.91131E+2
   7.17455E+1   3.58292E+2
  -1.32290E+2   1.74804E+3
  -2.04578E+2   6.77090E+0
  -3.98060E+2  -1.92752E+3
   1.40160E+2  -1.24209E+3
   6.66613E+2  -1.05457E+3
   5.27774E+2  -3.72949E+2
   2.40048E+2   1.96474E+3
  -5.80990E+2   7.75062E+2
   1.43747E+3  -1.55109E+3
   1.22232E+3  -1.55645E+3
   1.78364E+3  -3.95893E+2
  -3.39999E+2  -2.67883E+2
  -7.74401E+2   4.02836E+0
   1.28661E+1  -1.74019E+3
  -5.46344E+2  -1.99004E+3
   6.70416E+2  -2.86591E+1
   4.16971E+2  -9.64995E+2
   1.48060E+2  -1.92232E+3
   1.68172E+3   6.83752E+2
  -4.42593E+2   1.20652E+3
   6.30500E+2   1.54812E+2
  -1.09316E+2   3.54108E+2
   1.90808E+3  -1.48980E+3
   5.50997E+2   2.76959E+2
  -3.80895E+2   5.49337E+2
   9.74114E+2  -1.86623E+3
  -8.59319E+2  -8.25820E+2
  -2.29871E+2  -1.59370E+3
   4.22552E+2  -8.49156E+2
  -5.45209E+2   1.44171E+3
   8.12944E+2  -2.20071E+3
   5.79592E+2  -3.33602E+2
   8.31675E+2  -9.35011E+2
  -4.16623E+2   2.00397E+2
  -6.16577E+2  -8.77373E+2
   3.12148E+1  -1.30672E+3
   8.13511E+2  -3.19519E+3
   1.17798E+3  -8.68263E+2
   1.54656E+3   1.01266E+2
   1.13200E+3  -1.71157E+3
   2.11718E+3  -4.68403E+2
   2.62981E+2  -1.89639E+1
  -9.17955E+2   6.11582E+2
   2.34049E+2  -1.31498E+3
  -1.98939E+3   2.49323E+1
   3.63107E+2  -5.54789E+2
   2.14772E+3   7.07495E+2
  -5.35271E+2  -1.76688E+3
   9.00464E+2  -1.55766E+3
  -1.83150E+3   3.24466E+2
   7.65533E+2  -3.54208E+2
   1.72743E+3  -2.05608E+3
  -1.45638E+3  -9.09250E+2
  -8.70377E+2  -1.07931E+3
   5.70114E+2  -1.48033E+3
   9.66396E+2   4.66714E+2
   1.71279E+3  -1.26831E+1
   1.40861E+3   1.05258E+3
  -8.09082E+1  -1.48659E+3
  -1.01927E+3  -1.08919E+3
  -2.27282E+2  -8.23543E+2
  -4.21306E+2   8.86623E+1
   3.43098E+2  -1.02788E+3
  -2.25909E+3  -9.58624E+2
   3.48755E+2  -2.03569E+3
  -3.45914E+2   4.86825E+2
   1.95125E+2  -8.83639E+0
  -1.25252E+2  -2.54765E+3
  -7.99462E+2  -1.89566E+3
   7.66896E+2  -5.36029E+2
   2.07892E+3   1.44148E+3
   1.36949E+2  -1.38391E+2
  -7.07896E+2   5.73167E+2
  -1.94141E+2  -1.23378E+3
  -1.22430E+3  -4.75628E+2
  -4.02891E+2   9.42387E+1
  -8.70227E+2   1.04768E+3
   1.30278E+3  -1.45985E+3
   2.91748E+1   4.28354E+2
  -1.32554E+3   9.52088E+2
   1.08398E+2  -4.35172E+2
  -4.45625E+2  -8.41812E+2
   3.56992E+2  -1.95597E+3
   3.84019E+2  -3.20175E+2
  -1.30004E+3  -2.03307E+3
   4.81019E+2  -7.90204E+2
   9.54306E+2   2.04087E+3
  -7.03464E+2  -1.19257E+3
  -1.22708E+3  -5.25886E+2
  -3.83957E+2  -7.22076E+2
  -3.11571E+2   1.49527E+3
  -2.55645E+2   9.67760E+2
  -2.57891E+3  -2.80504E+2
   3.79250E+2   1.35752E+3
  -4.15228E+2   3.15940E+2
  -1.33501E+3   4.51353E+1
   1.20541E+3  -1.04379E+3
  -1.24881E+2  -2.23830E+2
  -1.44101E+2  -1.38420E+3
  -2.72261E+3  -5.82066E+2
  -1.97977E+1  -1.18120E+3
   5.26491E+2  -8.86250E+2
   1.09799E+3  -5.63438E+2
   1.27303E+3  -3.03517E+2
   9.94188E+2   1.28317E+3
   6.57443E+2   8.32352E+1
