 LCModel (Version 6.3-1N) Copyright: S.W. Provencher.          Ref.: Magn. Reson. Med. 30:672-679 (1993).                
 Slice_N1@26_20  02-Jun-2023 14:38:08
 27 lines in following concentration table = NCONC+1
    Conc.  %SD /Cr+PCr  Metabolite                                         
 1.30E-06  33% 2.9E-04 Mac                                                 
 3.61E-02  27%   8.000 Cr                                                  
    0.000 999%   0.000 PCr                                                 
 7.04E-02  22%  15.585 Ins                                                 
 8.10E-02  17%  17.938 NAA                                                 
 6.61E-02  22%  14.631 Tau                                                 
 1.17E-02  34%   2.585 PCho                                                
    0.000 999%   0.000 GPC                                                 
 8.31E-02  18%  18.394 Glu                                                 
 5.50E-03 166%   1.219 Gln                                                 
 2.33E-02  52%   5.168 Ala                                                 
    0.000 999%   0.000 Asc                                                 
 5.66E-03  93%   1.252 Asp                                                 
 4.45E-03  70%   0.985 GABA                                                
 4.04E-03  80%   0.894 Glc                                                 
 2.63E-03 148%   0.583 GSH                                                 
    0.000 999%   0.000 Lac                                                 
 4.21E-03 229%   0.932 NAAG                                                
    0.000 999%   0.000 PE                                                  
 1.17E-02  34%   2.585 GPC+PCho                                            
 8.52E-02  14%  18.870 NAA+NAAG                                            
 8.86E-02  20%  19.613 Glu+Gln                                             
 3.61E-02  27%   8.000 Cr+PCr                                              
 8.52E-02  14%  18.870 NAA+NAAG                                            
 3.61E-02  27%   8.000 Cr+PCr                                              
 8.86E-02  20%  19.613 Glu+Gln                                             
   6 lines in following misc. output table
  FWHM = 0.058 ppm    S/N =   2                                            
  Data shift = 0.070 ppm                                                   
  Ph: 134 deg      20.1 deg/ppm                                            
  alphaB,S = 3.1E+01,   2.6E+01                                            
   18 spline knots.   Ns = 6(2)                                            
   2 inflections.     1 extrema                                            
  654 points on ppm-axis = NY
      4.000000     3.994181     3.988363     3.982544     3.976726     3.970907     3.965088     3.959270     3.953451     3.947633
      3.941814     3.935995     3.930177     3.924358     3.918540     3.912721     3.906902     3.901084     3.895265     3.889446
      3.883628     3.877809     3.871991     3.866172     3.860353     3.854535     3.848716     3.842898     3.837079     3.831260
      3.825442     3.819623     3.813805     3.807986     3.802167     3.796349     3.790530     3.784712     3.778893     3.773074
      3.767256     3.761437     3.755619     3.749800     3.743981     3.738163     3.732344     3.726526     3.720707     3.714888
      3.709070     3.703251     3.697433     3.691614     3.685795     3.679977     3.674158     3.668339     3.662521     3.656702
      3.650884     3.645065     3.639246     3.633428     3.627609     3.621791     3.615972     3.610153     3.604335     3.598516
      3.592698     3.586879     3.581060     3.575242     3.569423     3.563605     3.557786     3.551967     3.546149     3.540330
      3.534512     3.528693     3.522874     3.517056     3.511237     3.505419     3.499600     3.493781     3.487963     3.482144
      3.476326     3.470507     3.464688     3.458870     3.453051     3.447232     3.441414     3.435595     3.429777     3.423958
      3.418139     3.412321     3.406502     3.400684     3.394865     3.389046     3.383228     3.377409     3.371591     3.365772
      3.359953     3.354135     3.348316     3.342498     3.336679     3.330860     3.325042     3.319223     3.313405     3.307586
      3.301767     3.295949     3.290130     3.284312     3.278493     3.272674     3.266856     3.261037     3.255219     3.249400
      3.243581     3.237763     3.231944     3.226125     3.220307     3.214488     3.208670     3.202851     3.197032     3.191214
      3.185395     3.179577     3.173758     3.167939     3.162121     3.156302     3.150484     3.144665     3.138846     3.133028
      3.127209     3.121391     3.115572     3.109753     3.103935     3.098116     3.092298     3.086479     3.080660     3.074842
      3.069023     3.063205     3.057386     3.051567     3.045749     3.039930     3.034111     3.028293     3.022474     3.016656
      3.010837     3.005018     2.999200     2.993381     2.987563     2.981744     2.975925     2.970107     2.964288     2.958470
      2.952651     2.946832     2.941014     2.935195     2.929377     2.923558     2.917739     2.911921     2.906102     2.900284
      2.894465     2.888646     2.882828     2.877009     2.871191     2.865372     2.859553     2.853735     2.847916     2.842098
      2.836279     2.830460     2.824642     2.818823     2.813004     2.807186     2.801367     2.795549     2.789730     2.783911
      2.778093     2.772274     2.766456     2.760637     2.754818     2.749000     2.743181     2.737363     2.731544     2.725725
      2.719907     2.714088     2.708270     2.702451     2.696632     2.690814     2.684995     2.679177     2.673358     2.667539
      2.661721     2.655902     2.650084     2.644265     2.638446     2.632628     2.626809     2.620991     2.615172     2.609353
      2.603535     2.597716     2.591897     2.586079     2.580260     2.574442     2.568623     2.562804     2.556986     2.551167
      2.545349     2.539530     2.533711     2.527893     2.522074     2.516256     2.510437     2.504618     2.498800     2.492981
      2.487163     2.481344     2.475525     2.469707     2.463888     2.458070     2.452251     2.446432     2.440614     2.434795
      2.428977     2.423158     2.417339     2.411521     2.405702     2.399884     2.394065     2.388246     2.382428     2.376609
      2.370790     2.364972     2.359153     2.353335     2.347516     2.341697     2.335879     2.330060     2.324242     2.318423
      2.312604     2.306786     2.300967     2.295149     2.289330     2.283511     2.277693     2.271874     2.266056     2.260237
      2.254418     2.248600     2.242781     2.236963     2.231144     2.225325     2.219507     2.213688     2.207870     2.202051
      2.196232     2.190414     2.184595     2.178777     2.172958     2.167139     2.161321     2.155502     2.149683     2.143865
      2.138046     2.132228     2.126409     2.120590     2.114772     2.108953     2.103135     2.097316     2.091497     2.085679
      2.079860     2.074042     2.068223     2.062404     2.056586     2.050767     2.044949     2.039130     2.033311     2.027493
      2.021674     2.015856     2.010037     2.004218     1.998400     1.992581     1.986763     1.980944     1.975126     1.969307
      1.963489     1.957670     1.951852     1.946033     1.940215     1.934397     1.928578     1.922760     1.916941     1.911123
      1.905304     1.899486     1.893667     1.887849     1.882030     1.876212     1.870393     1.864575     1.858756     1.852938
      1.847119     1.841301     1.835482     1.829664     1.823845     1.818027     1.812208     1.806390     1.800571     1.794753
      1.788934     1.783116     1.777297     1.771479     1.765660     1.759842     1.754023     1.748205     1.742386     1.736568
      1.730749     1.724931     1.719113     1.713294     1.707476     1.701657     1.695839     1.690020     1.684202     1.678383
      1.672565     1.666746     1.660928     1.655109     1.649291     1.643472     1.637654     1.631835     1.626017     1.620198
      1.614380     1.608561     1.602743     1.596924     1.591106     1.585287     1.579469     1.573650     1.567832     1.562013
      1.556195     1.550376     1.544558     1.538739     1.532921     1.527102     1.521284     1.515465     1.509647     1.503829
      1.498010     1.492192     1.486373     1.480555     1.474736     1.468918     1.463099     1.457281     1.451462     1.445644
      1.439825     1.434007     1.428188     1.422370     1.416551     1.410733     1.404914     1.399096     1.393277     1.387459
      1.381640     1.375822     1.370003     1.364185     1.358366     1.352548     1.346729     1.340911     1.335092     1.329274
      1.323455     1.317637     1.311818     1.306000     1.300182     1.294363     1.288545     1.282726     1.276908     1.271089
      1.265271     1.259452     1.253634     1.247815     1.241997     1.236178     1.230360     1.224541     1.218723     1.212904
      1.207086     1.201267     1.195449     1.189630     1.183812     1.177993     1.172175     1.166356     1.160538     1.154719
      1.148901     1.143082     1.137264     1.131445     1.125627     1.119808     1.113990     1.108171     1.102353     1.096534
      1.090716     1.084898     1.079079     1.073261     1.067442     1.061624     1.055805     1.049987     1.044168     1.038350
      1.032531     1.026713     1.020894     1.015076     1.009257     1.003439     0.997620     0.991802     0.985983     0.980165
      0.974346     0.968528     0.962709     0.956891     0.951072     0.945254     0.939435     0.933617     0.927798     0.921980
      0.916161     0.910343     0.904524     0.898706     0.892887     0.887069     0.881251     0.875432     0.869614     0.863795
      0.857977     0.852158     0.846340     0.840521     0.834703     0.828884     0.823066     0.817247     0.811429     0.805610
      0.799792     0.793973     0.788155     0.782336     0.776518     0.770699     0.764881     0.759062     0.753244     0.747425
      0.741607     0.735788     0.729970     0.724151     0.718333     0.712514     0.706696     0.700877     0.695059     0.689240
      0.683422     0.677603     0.671785     0.665967     0.660148     0.654330     0.648511     0.642693     0.636874     0.631056
      0.625237     0.619419     0.613600     0.607782     0.601963     0.596145     0.590326     0.584508     0.578689     0.572871
      0.567052     0.561234     0.555415     0.549597     0.543778     0.537960     0.532141     0.526323     0.520504     0.514686
      0.508867     0.503049     0.497230     0.491412     0.485593     0.479775     0.473956     0.468138     0.462319     0.456501
      0.450682     0.444864     0.439045     0.433227     0.427408     0.421590     0.415771     0.409953     0.404134     0.398316
      0.392497     0.386679     0.380860     0.375042     0.369223     0.363405     0.357586     0.351767     0.345949     0.340130
      0.334312     0.328493     0.322675     0.316856     0.311038     0.305219     0.299401     0.293582     0.287764     0.281945
      0.276127     0.270308     0.264490     0.258671     0.252853     0.247034     0.241216     0.235397     0.229579     0.223760
      0.217942     0.212123     0.206305     0.200486
 NY phased data points follow
  -9.62627E-02 -4.70159E-01  4.08883E-02 -2.85340E-02 -2.37583E-01 -2.57205E-01  3.78239E-02 -1.94669E-01 -1.76340E-01  1.61294E-01
  -3.73106E-02 -1.91173E-01  1.09925E-01  1.63701E-01 -1.08739E-01  2.04856E-01  1.09447E-01  3.49050E-01  1.31583E-01  1.76305E-01
   5.43790E-01 -2.87996E-02 -4.43120E-01 -2.57442E-01  3.79012E-01  1.49558E-01 -5.04373E-02  3.86417E-01  3.24919E-02 -7.27971E-02
   1.75058E-01 -2.59931E-01 -1.47141E-01 -2.90886E-01 -3.25506E-01 -9.00335E-02 -4.83881E-01 -1.40870E-01 -1.70981E-02 -3.14332E-01
  -3.24897E-03  2.04713E-01  5.46223E-02  1.06662E-01  4.32724E-01  5.82350E-01 -9.71739E-03  9.04278E-02  3.29816E-01  1.78241E-01
   5.87434E-01 -6.47445E-02  1.69752E-01  3.87977E-01 -4.47347E-01 -1.26927E-01 -2.65328E-01 -1.81150E-01 -4.20868E-02 -1.62083E-01
  -2.12501E-01 -5.21901E-01 -1.89045E-01 -7.85577E-02 -2.20229E-01 -2.03415E-01 -4.46648E-02 -1.28792E-02 -6.18915E-02  5.36705E-02
   4.68818E-01  4.26094E-02 -2.84076E-01  4.00964E-01 -1.41313E-01 -1.06829E-02  2.84381E-01 -3.51228E-01 -1.45497E-01  7.39381E-02
   2.41249E-03  5.23865E-01  2.16214E-01 -3.95650E-01 -4.71177E-02 -1.81648E-01  6.97568E-02 -1.03155E-01  1.24194E-02  2.43325E-01
   6.40311E-02  4.05196E-01 -5.59491E-02  8.06080E-02  6.93368E-02 -2.05238E-01 -1.79380E-01 -1.19668E-01 -1.23912E-01 -2.59530E-01
  -6.88310E-02 -3.27041E-01  5.52681E-02  1.84972E-01 -1.12579E-01  2.00702E-01 -6.36034E-03  2.41333E-01  9.32566E-02 -1.89268E-01
   5.71683E-01  1.33404E-01  2.62073E-02  2.26823E-01  2.18633E-01  4.85680E-01  1.54263E-01  2.50648E-01  4.16403E-01  3.94665E-01
  -2.30277E-01 -2.62989E-01  1.01362E-01  2.94050E-01  2.59788E-01  1.74104E-01  1.39787E-01 -7.90201E-02 -1.71927E-01 -8.57875E-01
  -3.25748E-01 -3.65110E-01 -1.82716E-01 -1.66823E-01 -4.25210E-01 -1.64774E-01 -6.31899E-01 -6.99633E-01 -8.22086E-01 -1.66993E-01
  -6.26067E-01  8.57868E-02  1.63334E-01 -4.03852E-01  4.34227E-02 -2.33391E-01  7.33075E-02 -1.24640E-01 -5.34742E-02 -4.45180E-01
   1.36518E-01  2.40428E-01  3.52290E-01  2.88053E-01 -2.98810E-01  2.06318E-01  2.12350E-01  3.95352E-01  1.29588E-01  2.69264E-01
  -7.18138E-03  1.46921E-01  5.60076E-01  2.35860E-01  2.57748E-01  3.38666E-01  2.34956E-01  3.97813E-01  2.31503E-01 -1.51246E-01
   2.98859E-02 -1.01278E-01 -2.24882E-02 -1.78448E-02 -2.24838E-01 -3.11426E-01  1.08916E-01 -2.71541E-01 -4.14687E-01 -2.95531E-01
  -3.48758E-02 -2.28413E-01 -4.44616E-01  2.54258E-01 -2.07170E-01  3.13294E-01 -4.21729E-02 -1.58710E-01  2.36854E-01 -2.85088E-01
  -4.55961E-01 -2.92206E-01 -1.25387E-01 -7.67164E-02  3.80244E-02 -3.00421E-01  8.04445E-02 -2.89097E-01 -6.22943E-01 -4.69910E-01
   1.75260E-02  2.23218E-01  1.43747E-01  1.35675E-01 -4.14304E-01 -1.70644E-01 -1.26207E-02  9.36088E-02  2.19465E-01 -9.25605E-02
  -2.29984E-01 -3.06944E-02 -2.82681E-01 -1.37757E-01 -9.21173E-02 -1.28893E-01 -8.68792E-02  6.71317E-02  4.27386E-01 -3.70517E-02
   3.00411E-03  2.79187E-01  3.59223E-01  4.13165E-01  2.52745E-01  6.63599E-02  7.57910E-02 -2.38096E-01 -2.24249E-02  2.52498E-01
   3.67359E-01  5.54942E-01  1.72347E-01  1.03447E-01  3.05734E-01  2.43791E-01  1.35977E-01  4.07728E-01 -1.81053E-01 -1.47721E-01
   2.24881E-01 -7.93836E-02 -1.94713E-01  3.25899E-02 -1.38970E-01 -3.81422E-01 -1.85880E-01  3.01022E-02  1.18829E-01 -2.91210E-01
   2.88921E-01 -2.10523E-01  9.50030E-02  3.93134E-01 -2.90254E-01  1.58187E-01 -1.54960E-01  1.09115E-01  1.31885E-01 -7.83203E-02
  -1.21949E-01  2.54199E-02 -1.03179E-01 -1.54286E-01  2.74655E-01  3.41127E-01  3.24400E-01  3.01048E-02  1.45218E-01 -3.47411E-02
  -6.86154E-02  2.64252E-01  2.45266E-01 -5.65398E-03 -3.83374E-01 -1.01919E-01  1.55814E-01  1.44377E-01  1.29501E-01 -1.56650E-01
  -5.66311E-02 -2.66438E-01 -3.58761E-01 -2.06958E-01 -1.45338E-01  2.28716E-02 -1.42109E-01 -3.84916E-02  2.36732E-02  8.51818E-02
   2.55865E-01  4.16885E-01  3.28914E-01  5.98232E-01  2.77498E-01  1.60830E-01  8.46231E-01  1.47741E-01 -5.96829E-02  4.52413E-02
   1.80064E-01  3.82437E-01  1.17712E-01  3.84198E-01  3.70166E-01  3.61317E-01  4.09343E-01 -3.38721E-02  2.72822E-01  4.00472E-01
   5.41021E-03  1.84314E-01 -4.91335E-02 -9.55769E-03  5.88386E-01  3.18805E-01 -7.89749E-02  2.53578E-01  2.33356E-01 -4.40100E-03
  -3.23215E-01 -1.39825E-01  4.90327E-01  6.86327E-02  2.18216E-02 -5.03774E-02 -1.04915E-01  5.65388E-02 -3.74545E-01 -1.35802E-01
  -2.18744E-01  3.93482E-02  6.96706E-02 -3.12692E-01 -1.43277E-01 -2.86807E-01 -2.67730E-01 -4.41440E-01 -1.42731E-01 -4.98583E-01
  -4.71370E-01 -6.99814E-01 -1.23038E+00 -6.11124E-01 -5.33590E-01 -1.11663E-01 -2.75662E-01 -3.16472E-01 -6.41435E-01 -5.51680E-01
  -2.89484E-01 -4.19521E-01 -3.12824E-01 -2.39917E-01  1.70673E-01 -2.85214E-01  8.95562E-03  3.74402E-02  5.15020E-02  2.37646E-01
   1.69308E-01 -7.62876E-02 -2.78883E-01 -3.35449E-01 -3.70055E-01  4.58145E-02 -1.04168E-01  1.94340E-01 -4.71771E-01 -3.54796E-01
   2.91822E-01  7.54814E-02  3.97223E-01  4.18015E-01 -1.73386E-01 -3.19692E-01  2.72071E-01 -2.17394E-01  8.68277E-02  4.26680E-01
  -1.39866E-02  1.80703E-01  1.55964E-01  1.10131E-01  4.22361E-01  1.95891E-01  2.82137E-01  4.79499E-01  7.91002E-03  4.90075E-01
   1.10820E-01 -1.66321E-02  2.63906E-01  9.65469E-03  1.03953E-01  2.34387E-01  6.15771E-01  1.25988E-01  2.98820E-01  7.77494E-02
  -1.28654E-01  2.36053E-01 -4.86202E-02  3.28203E-01  1.28398E-01  4.09110E-02  1.03287E-01 -7.24486E-02 -5.85662E-02  3.32330E-01
   8.72995E-02 -1.92079E-01  6.75372E-02 -2.85923E-01 -1.52479E-01 -1.96000E-01  1.23105E-01 -2.97508E-03 -2.00311E-01 -3.12588E-01
  -1.93782E-01  5.43089E-01 -8.95496E-02 -1.10873E-01  1.83107E-01 -5.87043E-02  2.60844E-02 -7.66898E-02  5.66301E-02  5.73653E-01
   8.56158E-02  1.27810E-01  6.39383E-02 -6.09646E-02  2.90820E-01  3.93472E-02  6.30937E-01  2.82543E-01  7.77983E-02  1.19899E-01
  -2.21098E-01 -2.05485E-01 -2.04867E-01 -1.19546E-01  5.15764E-03 -9.49467E-02  9.02872E-02  5.65187E-01  2.56192E-01  2.61668E-01
  -1.78109E-01 -9.30796E-02 -1.62069E-01 -2.71674E-01  1.67578E-01  6.42923E-02 -4.19631E-02 -2.63536E-01  1.89173E-01  3.53047E-02
  -2.93794E-01 -2.12144E-01 -1.71705E-01 -1.90921E-01 -2.80302E-01 -3.18224E-01  1.88928E-02  2.73043E-02  1.19912E-01  3.33114E-01
  -2.91374E-01 -1.67363E-01 -6.28292E-02 -2.35322E-01 -4.67885E-01 -4.82396E-01 -4.45171E-01 -9.62256E-02  6.26910E-02 -1.49867E-01
  -9.62100E-02 -9.10702E-02 -5.33320E-02 -2.97327E-01  2.78668E-01  4.14026E-02 -1.32249E-01  1.46188E-01 -1.27589E-01 -8.72537E-02
  -1.19366E-01 -2.22055E-01  3.45678E-02  2.61180E-01  1.10454E-01  4.61000E-01 -8.31634E-02  4.13938E-01  4.93641E-01 -1.69815E-01
   5.91556E-01  2.14904E-01  2.31236E-01  3.65258E-01  3.92198E-02 -1.15777E-01 -8.57169E-02 -6.62435E-02 -2.92601E-02  4.19522E-01
   3.45685E-01  2.33012E-02  7.81913E-02  1.17972E-01 -4.31696E-02  1.25280E-03 -1.63387E-01 -2.45063E-01  7.88756E-02  3.98528E-01
  -6.38724E-02 -4.40204E-01 -2.97863E-01 -2.99798E-01  5.56814E-03 -2.43485E-01 -3.83361E-01 -1.82247E-01 -4.25871E-01 -3.50897E-01
  -3.94126E-01 -4.77047E-01 -5.02794E-01 -4.63864E-01 -1.07267E-01 -3.35796E-01 -7.89582E-02 -8.75571E-02 -1.98094E-01 -5.12599E-02
  -2.03735E-01  1.92468E-01 -2.15048E-01 -1.22934E-01  2.35294E-01  1.56033E-01  1.72560E-01  2.93558E-01  8.99497E-02 -1.37171E-01
   2.04527E-01  3.05088E-02 -1.08942E-01 -1.84615E-01 -1.74729E-02 -8.39819E-02 -3.59435E-02 -1.09782E-01  2.74087E-02  2.87541E-01
   1.20494E-01  4.15348E-01  2.35643E-01  1.04728E-01  2.01550E-01  2.68609E-01  1.68523E-01 -2.95194E-01 -2.34808E-01  1.15371E-01
  -3.27488E-01  1.80405E-01  1.53290E-01 -4.21485E-01  6.00453E-02  2.55372E-01  2.92584E-01  6.09126E-02  1.93652E-01  1.79519E-01
   1.47861E-01 -3.03154E-01  3.72012E-01  6.82231E-01  5.22476E-02  2.67227E-01  2.44768E-01  6.32294E-02 -3.11084E-01  9.01612E-02
   1.98602E-01  4.36255E-01 -2.58256E-01 -2.91298E-01  2.85223E-01 -3.27053E-02  1.01537E-02 -3.32445E-01 -3.56734E-01 -1.49680E-01
   2.42727E-01  2.56301E-01  3.86673E-01  1.79031E-01  1.37681E-01 -2.78709E-02 -8.65212E-02  7.95261E-02  2.19888E-02  2.41260E-01
   1.94120E-01  4.48392E-02 -6.26597E-02  5.79363E-02 -2.69753E-01  2.50768E-01  1.98705E-01  1.33419E-01 -3.53095E-02 -4.98069E-02
   3.95450E-01 -2.65467E-01  1.45442E-01  2.98002E-01 -2.59016E-01 -4.29191E-01 -8.26603E-02  1.14768E-01  1.94435E-01 -2.94958E-01
  -1.51149E-01  2.46613E-01 -1.21391E-01 -1.03267E-01 -7.34828E-02  5.39813E-02  1.03411E-01  4.17256E-01 -1.58422E-01 -1.98178E-01
   8.61528E-02 -7.94925E-02 -2.89598E-02 -2.00603E-01  2.73360E-01  3.15490E-01  1.11632E-01  2.59350E-01  2.48953E-01 -1.16734E-02
  -3.22644E-02  8.63288E-02 -3.55460E-01 -1.59362E-01
 NY points of the fit to the data follow
   3.78281E-02  2.69645E-02  1.18594E-02 -5.88573E-03 -1.59481E-03 -7.86777E-03  8.40831E-03  2.19971E-02  2.36784E-02  5.41190E-02
   4.50146E-02  1.07164E-01  7.76163E-02  1.86243E-01  1.11282E-01  2.45711E-01  1.23717E-01  2.35732E-01  1.14485E-01  2.01689E-01
   9.37436E-02  1.58204E-01  6.46102E-02  1.01659E-01  3.04180E-02  4.70900E-02 -7.21297E-03 -1.02847E-02 -4.50147E-02 -6.04672E-02
  -7.58256E-02 -9.38580E-02 -1.00193E-01 -1.25338E-01 -1.09980E-01 -1.37738E-01 -9.38697E-02 -1.26485E-01 -5.36142E-02 -8.91048E-02
   6.53393E-03 -1.93013E-02  7.88164E-02  6.58630E-02  1.40609E-01  1.26921E-01  1.69020E-01  1.48682E-01  1.66826E-01  1.43576E-01
   1.41741E-01  1.11696E-01  9.08214E-02  6.49200E-02  1.67496E-02 -8.62905E-03 -5.49618E-02 -1.01325E-01 -1.23960E-01 -1.64936E-01
  -1.70785E-01 -1.89054E-01 -1.66721E-01 -1.81237E-01 -1.18029E-01 -1.24182E-01 -4.90595E-02 -9.13788E-03  2.94871E-02  8.67399E-02
   8.78076E-02  1.27426E-01  9.13325E-02  1.20528E-01  6.13248E-02  7.37112E-02  3.88166E-03  1.19303E-02 -7.01673E-02 -4.23164E-02
  -9.91909E-02 -6.09415E-02 -5.01420E-02 -2.35183E-02  2.12049E-02  5.85882E-02  9.42025E-02  1.31712E-01  1.42899E-01  1.58049E-01
   1.54060E-01  1.34649E-01  1.41697E-01  6.91091E-02  1.00242E-01 -3.79936E-02  3.75840E-02 -1.60216E-01  6.08783E-03 -2.25314E-01
   2.47114E-02 -1.91248E-01  7.22606E-02 -1.09183E-01  1.22291E-01 -1.97033E-02  1.68386E-01  6.86874E-02  2.07170E-01  1.46944E-01
   2.37027E-01  2.12686E-01  2.51442E-01  2.51240E-01  2.52396E-01  2.54740E-01  2.50317E-01  2.46355E-01  2.36009E-01  2.09606E-01
   1.93915E-01  1.20577E-01  1.22948E-01 -1.35272E-03  5.69930E-02 -1.25468E-01 -5.35896E-02 -2.65150E-01 -1.95121E-01 -3.83923E-01
  -2.94223E-01 -4.19106E-01 -3.75173E-01 -4.12172E-01 -4.74202E-01 -4.07969E-01 -5.41840E-01 -3.82860E-01 -4.93690E-01 -3.10191E-01
  -3.99700E-01 -2.23681E-01 -2.99358E-01 -1.44093E-01 -1.94818E-01 -8.04795E-02 -1.07229E-01 -2.96193E-02 -2.14462E-02  2.22749E-02
   4.99870E-02  6.67346E-02  7.98816E-02  9.03114E-02  9.70046E-02  1.23815E-01  1.45275E-01  1.68924E-01  1.95965E-01  2.01399E-01
   2.21063E-01  2.20155E-01  2.42586E-01  2.20999E-01  2.35000E-01  1.73163E-01  1.53629E-01  7.11194E-02  1.81994E-02 -3.11791E-02
  -7.59544E-02 -1.03179E-01 -1.41087E-01 -1.54653E-01 -1.87765E-01 -1.84315E-01 -2.03710E-01 -1.93442E-01 -2.04501E-01 -1.83895E-01
  -1.81099E-01 -1.56636E-01 -1.41447E-01 -1.30996E-01 -1.19732E-01 -1.13919E-01 -1.03272E-01 -9.94988E-02 -8.98834E-02 -8.68108E-02
  -7.89510E-02 -7.54809E-02 -6.84852E-02 -6.43643E-02 -5.82830E-02 -5.42793E-02 -4.90934E-02 -4.43329E-02 -3.93674E-02 -3.44017E-02
  -2.98475E-02 -2.60291E-02 -2.24901E-02 -1.96272E-02 -1.77205E-02 -1.52175E-02 -1.44837E-02 -1.25323E-02 -1.29596E-02 -1.27336E-02
  -1.37853E-02 -1.36778E-02 -1.50881E-02 -1.91254E-02 -1.95534E-02 -1.80705E-02 -1.57736E-02 -8.25109E-03 -8.89472E-03  1.25317E-03
   7.21363E-03  3.06688E-02  4.39452E-02  8.21092E-02  9.10572E-02  1.31334E-01  1.36088E-01  1.65198E-01  1.67645E-01  1.93039E-01
   1.82937E-01  1.97939E-01  1.64109E-01  1.65674E-01  1.27176E-01  1.22434E-01  8.63824E-02  7.50243E-02  4.08376E-02  2.78799E-02
   9.03467E-04 -7.49877E-03 -3.00935E-02 -3.77439E-02 -5.51062E-02 -6.69854E-02 -7.23209E-02 -8.19020E-02 -9.20815E-02 -9.22045E-02
  -1.07903E-01 -9.86028E-02 -1.17628E-01 -9.39219E-02 -1.15078E-01 -7.03391E-02 -8.91023E-02 -3.15198E-02 -3.92818E-02  3.34768E-03
   1.93791E-02  3.95726E-02  6.78496E-02  6.72852E-02  9.85710E-02  8.52999E-02  1.05015E-01  8.89547E-02  9.38763E-02  7.47559E-02
   6.88296E-02  4.28559E-02  2.51166E-02 -1.15041E-02 -4.11924E-02 -8.35884E-02 -1.18718E-01 -1.54011E-01 -1.81516E-01 -2.11494E-01
  -2.18635E-01 -2.32727E-01 -2.19259E-01 -1.93480E-01 -1.57843E-01 -9.72271E-02 -4.23579E-02  1.67351E-02  7.29398E-02  1.15294E-01
   1.54458E-01  1.88531E-01  2.09090E-01  2.37763E-01  2.40786E-01  2.62524E-01  2.51953E-01  2.61022E-01  2.42715E-01  2.40504E-01
   2.17457E-01  2.14747E-01  1.93601E-01  1.92268E-01  1.76822E-01  1.74114E-01  1.62093E-01  1.56829E-01  1.45773E-01  1.37636E-01
   1.24120E-01  1.15451E-01  9.67050E-02  8.62401E-02  6.01643E-02  4.44026E-02  1.20375E-02 -7.25144E-03 -4.23082E-02 -5.62853E-02
  -9.18566E-02 -8.99567E-02 -1.26920E-01 -1.03764E-01 -1.37106E-01 -9.87439E-02 -1.23823E-01 -9.09450E-02 -1.01788E-01 -9.32333E-02
  -3.68316E-02 -8.55975E-02 -2.53726E-02 -1.31855E-01 -9.79112E-02 -2.25066E-01 -1.89835E-01 -3.09502E-01 -3.37837E-01 -4.18101E-01
  -5.65512E-01 -5.66447E-01 -7.51558E-01 -6.58368E-01 -7.40797E-01 -6.02224E-01 -6.46909E-01 -4.99792E-01 -5.27916E-01 -3.88185E-01
  -3.80568E-01 -2.66508E-01 -2.46915E-01 -1.62620E-01 -1.16383E-01 -6.41498E-02 -1.75513E-02  4.43109E-03  6.50676E-03  1.83437E-02
   1.13999E-02  2.09153E-02  1.11202E-02  1.93142E-02  1.04816E-02  1.78131E-02  1.15629E-02  1.81918E-02  1.49005E-02  2.08674E-02
   2.02810E-02  2.56020E-02  2.73124E-02  3.17077E-02  3.51409E-02  3.84411E-02  4.26976E-02  4.51091E-02  4.92680E-02  5.09036E-02
   5.46248E-02  5.57257E-02  5.90737E-02  6.01074E-02  6.28237E-02  6.40240E-02  6.58657E-02  6.75120E-02  6.85880E-02  7.08341E-02
   7.11977E-02  7.34687E-02  7.32604E-02  7.49658E-02  7.41751E-02  7.51356E-02  7.37567E-02  7.39273E-02  7.19276E-02  7.12275E-02
   6.85404E-02  6.69930E-02  6.36798E-02  6.15231E-02  5.77085E-02  5.52701E-02  5.12894E-02  4.87201E-02  4.48823E-02  4.21607E-02
   3.88407E-02  3.60711E-02  3.32836E-02  3.07725E-02  2.84208E-02  2.61854E-02  2.44156E-02  2.24552E-02  2.11872E-02  1.96973E-02
   1.87961E-02  1.70616E-02  1.16498E-02  1.51629E-02  1.02758E-02  1.94211E-02  2.91849E-02  3.56417E-02  5.99673E-02  6.01820E-02
   1.00777E-01  9.09345E-02  1.57019E-01  1.26196E-01  2.08835E-01  1.51949E-01  2.21159E-01  1.55139E-01  2.01338E-01  1.41643E-01
   1.75456E-01  1.25911E-01  1.47700E-01  1.10876E-01  1.22210E-01  9.79907E-02  1.01153E-01  8.92710E-02  8.61447E-02  8.53025E-02
   8.45237E-02  8.74350E-02  8.96979E-02  9.19027E-02  9.22641E-02  9.28575E-02  9.12918E-02  9.00418E-02  8.69189E-02  8.40560E-02
   7.99437E-02  7.57922E-02  7.13140E-02  6.61248E-02  6.17626E-02  5.60031E-02  5.20713E-02  4.63200E-02  4.28692E-02  3.76305E-02
   3.47823E-02  3.04135E-02  2.83506E-02  2.50950E-02  2.39751E-02  2.19973E-02  2.19381E-02  2.11308E-02  2.18627E-02  2.22224E-02
   2.35931E-02  2.49323E-02  2.68370E-02  2.87100E-02  3.07008E-02  3.28291E-02  3.46099E-02  3.67354E-02  3.81783E-02  4.00154E-02
   4.09770E-02  4.22939E-02  4.24719E-02  4.32416E-02  4.26256E-02  4.27717E-02  4.16254E-02  4.09179E-02  3.95355E-02  3.82172E-02
   3.66490E-02  3.48702E-02  3.31468E-02  3.10841E-02  2.92371E-02  2.70888E-02  2.51695E-02  2.30243E-02  2.11022E-02  1.90722E-02
   1.70646E-02  1.48921E-02  1.24684E-02  9.93550E-03  6.80381E-03  3.67755E-03 -3.52989E-04 -4.30458E-03 -9.50014E-03 -1.44763E-02
  -2.12592E-02 -2.72664E-02 -3.53488E-02 -4.20927E-02 -5.07830E-02 -5.78627E-02 -6.65530E-02 -7.32853E-02 -8.11515E-02 -8.68717E-02
  -9.31910E-02 -9.74847E-02 -1.01682E-01 -1.04199E-01 -1.06221E-01 -1.06784E-01 -1.06763E-01 -1.05572E-01 -1.03989E-01 -1.01323E-01
  -9.85828E-02 -9.46877E-02 -9.09523E-02 -8.59914E-02 -8.15472E-02 -7.60127E-02 -7.09858E-02 -6.53223E-02 -5.96742E-02 -5.43464E-02
  -4.82532E-02 -4.34012E-02 -3.72232E-02 -3.26815E-02 -2.67898E-02 -2.27744E-02 -1.72461E-02 -1.38125E-02 -8.89352E-03 -5.95921E-03
  -2.00103E-03  6.86005E-04  3.67334E-03  6.04501E-03  8.31473E-03  1.02595E-02  1.19954E-02  1.36290E-02  1.49569E-02  1.63186E-02
   1.73983E-02  1.86509E-02  1.95805E-02  2.06831E-02  2.15627E-02  2.22861E-02  2.30824E-02  2.34644E-02  2.42219E-02  2.45419E-02
   2.50877E-02  2.53196E-02  2.57055E-02  2.56992E-02  2.61240E-02  2.60085E-02  2.63190E-02  2.63298E-02  2.63951E-02  2.63465E-02
   2.61880E-02  2.60939E-02  2.58762E-02  2.60199E-02  2.57524E-02  2.58991E-02  2.56131E-02  2.57334E-02  2.55671E-02  2.56016E-02
   2.58366E-02  2.58608E-02  2.64854E-02  2.65299E-02  2.73944E-02  2.73934E-02  2.84654E-02  2.83548E-02  2.96412E-02  2.93948E-02
   3.08476E-02  3.02689E-02  3.18670E-02  3.10928E-02  3.28207E-02  3.23176E-02  3.39853E-02  3.37248E-02  3.52786E-02  3.51576E-02
   3.67096E-02  3.69644E-02  3.83417E-02  3.90388E-02  3.99740E-02  4.07955E-02  4.16108E-02  4.22409E-02  4.31768E-02  4.36996E-02
   4.46368E-02  4.51005E-02  4.59957E-02  4.64956E-02  4.74342E-02  4.80849E-02  4.89096E-02  4.97383E-02  5.05654E-02  5.17778E-02
   5.27883E-02  5.42844E-02  5.53479E-02  5.71338E-02  5.83486E-02  6.05347E-02  6.20671E-02  6.47287E-02  6.65297E-02  6.97146E-02
   7.15353E-02  7.51318E-02  7.69827E-02  8.10239E-02
 NY background values follow
     6.565E-02    6.546E-02    6.526E-02    6.506E-02    6.486E-02    6.467E-02    6.447E-02    6.427E-02    6.407E-02    6.388E-02
     6.368E-02    6.348E-02    6.328E-02    6.309E-02    6.289E-02    6.269E-02    6.249E-02    6.230E-02    6.210E-02    6.190E-02
     6.170E-02    6.150E-02    6.131E-02    6.111E-02    6.091E-02    6.071E-02    6.052E-02    6.032E-02    6.012E-02    5.992E-02
     5.972E-02    5.953E-02    5.933E-02    5.913E-02    5.893E-02    5.873E-02    5.854E-02    5.834E-02    5.814E-02    5.794E-02
     5.774E-02    5.755E-02    5.735E-02    5.715E-02    5.695E-02    5.675E-02    5.656E-02    5.636E-02    5.616E-02    5.596E-02
     5.576E-02    5.556E-02    5.537E-02    5.517E-02    5.497E-02    5.477E-02    5.457E-02    5.437E-02    5.418E-02    5.398E-02
     5.378E-02    5.358E-02    5.338E-02    5.318E-02    5.299E-02    5.279E-02    5.259E-02    5.239E-02    5.219E-02    5.199E-02
