 LCModel (Version 6.3-1N) Copyright: S.W. Provencher.          Ref.: Magn. Reson. Med. 30:672-679 (1993).                
 Slice_N1@24_10  02-Jun-2023 14:37:53
 27 lines in following concentration table = NCONC+1
    Conc.  %SD /Cr+PCr  Metabolite                                         
 3.96E-06   9% 5.6E-04 Mac                                                 
 2.83E-02  93%   4.002 Cr                                                  
 2.82E-02  86%   3.998 PCr                                                 
 6.87E-02  18%   9.728 Ins                                                 
    0.118   8%  16.702 NAA                                                 
 4.82E-02  23%   6.832 Tau                                                 
 1.02E-02 154%   1.441 PCho                                                
 4.64E-03 310%   0.657 GPC                                                 
 5.95E-02  20%   8.423 Glu                                                 
 8.62E-03  89%   1.220 Gln                                                 
    0.000 999%   0.000 Ala                                                 
 6.90E-02  25%   9.766 Asc                                                 
 2.98E-03 298%   0.421 Asp                                                 
 8.30E-03  61%   1.176 GABA                                                
 9.03E-03  65%   1.279 Glc                                                 
 3.28E-03 103%   0.465 GSH                                                 
    0.000 999%   0.000 Lac                                                 
    0.000 999%   0.000 NAAG                                                
    0.000 999%   0.000 PE                                                  
 1.48E-02  22%   2.098 GPC+PCho                                            
    0.118   8%  16.702 NAA+NAAG                                            
 6.81E-02  21%   9.643 Glu+Gln                                             
 5.65E-02  16%   8.000 Cr+PCr                                              
    0.118   8%  16.702 NAA+NAAG                                            
 5.65E-02  16%   8.000 Cr+PCr                                              
 6.81E-02  21%   9.643 Glu+Gln                                             
   6 lines in following misc. output table
  FWHM = 0.070 ppm    S/N =   2                                            
  Data shift = 0.128 ppm                                                   
  Ph: -64 deg     -13.8 deg/ppm                                            
  alphaB,S = 9.7E-01,   9.2E+01                                            
   18 spline knots.   Ns =11(1)                                            
  ( 9) 3 infls.   ( 4) 2 extrs.                                            
  654 points on ppm-axis = NY
      4.000000     3.994181     3.988363     3.982544     3.976726     3.970907     3.965088     3.959270     3.953451     3.947633
      3.941814     3.935995     3.930177     3.924358     3.918540     3.912721     3.906902     3.901084     3.895265     3.889446
      3.883628     3.877809     3.871991     3.866172     3.860353     3.854535     3.848716     3.842898     3.837079     3.831260
      3.825442     3.819623     3.813805     3.807986     3.802167     3.796349     3.790530     3.784712     3.778893     3.773074
      3.767256     3.761437     3.755619     3.749800     3.743981     3.738163     3.732344     3.726526     3.720707     3.714888
      3.709070     3.703251     3.697433     3.691614     3.685795     3.679977     3.674158     3.668339     3.662521     3.656702
      3.650884     3.645065     3.639246     3.633428     3.627609     3.621791     3.615972     3.610153     3.604335     3.598516
      3.592698     3.586879     3.581060     3.575242     3.569423     3.563605     3.557786     3.551967     3.546149     3.540330
      3.534512     3.528693     3.522874     3.517056     3.511237     3.505419     3.499600     3.493781     3.487963     3.482144
      3.476326     3.470507     3.464688     3.458870     3.453051     3.447232     3.441414     3.435595     3.429777     3.423958
      3.418139     3.412321     3.406502     3.400684     3.394865     3.389046     3.383228     3.377409     3.371591     3.365772
      3.359953     3.354135     3.348316     3.342498     3.336679     3.330860     3.325042     3.319223     3.313405     3.307586
      3.301767     3.295949     3.290130     3.284312     3.278493     3.272674     3.266856     3.261037     3.255219     3.249400
      3.243581     3.237763     3.231944     3.226125     3.220307     3.214488     3.208670     3.202851     3.197032     3.191214
      3.185395     3.179577     3.173758     3.167939     3.162121     3.156302     3.150484     3.144665     3.138846     3.133028
      3.127209     3.121391     3.115572     3.109753     3.103935     3.098116     3.092298     3.086479     3.080660     3.074842
      3.069023     3.063205     3.057386     3.051567     3.045749     3.039930     3.034111     3.028293     3.022474     3.016656
      3.010837     3.005018     2.999200     2.993381     2.987563     2.981744     2.975925     2.970107     2.964288     2.958470
      2.952651     2.946832     2.941014     2.935195     2.929377     2.923558     2.917739     2.911921     2.906102     2.900284
      2.894465     2.888646     2.882828     2.877009     2.871191     2.865372     2.859553     2.853735     2.847916     2.842098
      2.836279     2.830460     2.824642     2.818823     2.813004     2.807186     2.801367     2.795549     2.789730     2.783911
      2.778093     2.772274     2.766456     2.760637     2.754818     2.749000     2.743181     2.737363     2.731544     2.725725
      2.719907     2.714088     2.708270     2.702451     2.696632     2.690814     2.684995     2.679177     2.673358     2.667539
      2.661721     2.655902     2.650084     2.644265     2.638446     2.632628     2.626809     2.620991     2.615172     2.609353
      2.603535     2.597716     2.591897     2.586079     2.580260     2.574442     2.568623     2.562804     2.556986     2.551167
      2.545349     2.539530     2.533711     2.527893     2.522074     2.516256     2.510437     2.504618     2.498800     2.492981
      2.487163     2.481344     2.475525     2.469707     2.463888     2.458070     2.452251     2.446432     2.440614     2.434795
      2.428977     2.423158     2.417339     2.411521     2.405702     2.399884     2.394065     2.388246     2.382428     2.376609
      2.370790     2.364972     2.359153     2.353335     2.347516     2.341697     2.335879     2.330060     2.324242     2.318423
      2.312604     2.306786     2.300967     2.295149     2.289330     2.283511     2.277693     2.271874     2.266056     2.260237
      2.254418     2.248600     2.242781     2.236963     2.231144     2.225325     2.219507     2.213688     2.207870     2.202051
      2.196232     2.190414     2.184595     2.178777     2.172958     2.167139     2.161321     2.155502     2.149683     2.143865
      2.138046     2.132228     2.126409     2.120590     2.114772     2.108953     2.103135     2.097316     2.091497     2.085679
      2.079860     2.074042     2.068223     2.062404     2.056586     2.050767     2.044949     2.039130     2.033311     2.027493
      2.021674     2.015856     2.010037     2.004218     1.998400     1.992581     1.986763     1.980944     1.975126     1.969307
      1.963489     1.957670     1.951852     1.946033     1.940215     1.934397     1.928578     1.922760     1.916941     1.911123
      1.905304     1.899486     1.893667     1.887849     1.882030     1.876212     1.870393     1.864575     1.858756     1.852938
      1.847119     1.841301     1.835482     1.829664     1.823845     1.818027     1.812208     1.806390     1.800571     1.794753
      1.788934     1.783116     1.777297     1.771479     1.765660     1.759842     1.754023     1.748205     1.742386     1.736568
      1.730749     1.724931     1.719113     1.713294     1.707476     1.701657     1.695839     1.690020     1.684202     1.678383
      1.672565     1.666746     1.660928     1.655109     1.649291     1.643472     1.637654     1.631835     1.626017     1.620198
      1.614380     1.608561     1.602743     1.596924     1.591106     1.585287     1.579469     1.573650     1.567832     1.562013
      1.556195     1.550376     1.544558     1.538739     1.532921     1.527102     1.521284     1.515465     1.509647     1.503829
      1.498010     1.492192     1.486373     1.480555     1.474736     1.468918     1.463099     1.457281     1.451462     1.445644
      1.439825     1.434007     1.428188     1.422370     1.416551     1.410733     1.404914     1.399096     1.393277     1.387459
      1.381640     1.375822     1.370003     1.364185     1.358366     1.352548     1.346729     1.340911     1.335092     1.329274
      1.323455     1.317637     1.311818     1.306000     1.300182     1.294363     1.288545     1.282726     1.276908     1.271089
      1.265271     1.259452     1.253634     1.247815     1.241997     1.236178     1.230360     1.224541     1.218723     1.212904
      1.207086     1.201267     1.195449     1.189630     1.183812     1.177993     1.172175     1.166356     1.160538     1.154719
      1.148901     1.143082     1.137264     1.131445     1.125627     1.119808     1.113990     1.108171     1.102353     1.096534
      1.090716     1.084898     1.079079     1.073261     1.067442     1.061624     1.055805     1.049987     1.044168     1.038350
      1.032531     1.026713     1.020894     1.015076     1.009257     1.003439     0.997620     0.991802     0.985983     0.980165
      0.974346     0.968528     0.962709     0.956891     0.951072     0.945254     0.939435     0.933617     0.927798     0.921980
      0.916161     0.910343     0.904524     0.898706     0.892887     0.887069     0.881251     0.875432     0.869614     0.863795
      0.857977     0.852158     0.846340     0.840521     0.834703     0.828884     0.823066     0.817247     0.811429     0.805610
      0.799792     0.793973     0.788155     0.782336     0.776518     0.770699     0.764881     0.759062     0.753244     0.747425
      0.741607     0.735788     0.729970     0.724151     0.718333     0.712514     0.706696     0.700877     0.695059     0.689240
      0.683422     0.677603     0.671785     0.665967     0.660148     0.654330     0.648511     0.642693     0.636874     0.631056
      0.625237     0.619419     0.613600     0.607782     0.601963     0.596145     0.590326     0.584508     0.578689     0.572871
      0.567052     0.561234     0.555415     0.549597     0.543778     0.537960     0.532141     0.526323     0.520504     0.514686
      0.508867     0.503049     0.497230     0.491412     0.485593     0.479775     0.473956     0.468138     0.462319     0.456501
      0.450682     0.444864     0.439045     0.433227     0.427408     0.421590     0.415771     0.409953     0.404134     0.398316
      0.392497     0.386679     0.380860     0.375042     0.369223     0.363405     0.357586     0.351767     0.345949     0.340130
      0.334312     0.328493     0.322675     0.316856     0.311038     0.305219     0.299401     0.293582     0.287764     0.281945
      0.276127     0.270308     0.264490     0.258671     0.252853     0.247034     0.241216     0.235397     0.229579     0.223760
      0.217942     0.212123     0.206305     0.200486
 NY phased data points follow
  -1.74937E-01 -7.35556E-02  1.55056E-01 -1.91497E-01 -2.74216E-01  5.41839E-02  2.32576E-01  3.27785E-01  9.37273E-02 -1.25563E-01
  -5.03775E-03  3.51307E-01  3.56938E-01  5.68932E-01  2.14420E-01  2.67046E-01  3.42956E-01  5.59083E-01  4.05748E-01 -1.33173E-01
   1.04669E-01  8.36685E-02  2.52341E-01 -6.53028E-02  9.89231E-02 -2.84708E-03 -2.20893E-01 -3.83340E-02 -1.38700E-01 -1.08816E-01
  -2.86579E-01 -2.42998E-01 -3.26945E-01 -3.32978E-01 -2.19517E-01 -1.89217E-01 -3.11568E-01 -2.25982E-01 -3.00734E-01 -3.03575E-01
  -1.58578E-01 -3.50320E-01 -3.39037E-02 -1.56494E-01 -2.77770E-01  1.14384E-01 -1.41083E-01  6.50050E-02  3.34721E-01  3.26646E-02
   2.01246E-01  3.44626E-01  3.18664E-01  9.35772E-02  2.80873E-01  3.06909E-01  1.41209E-01  3.61588E-01  7.57816E-02 -2.00284E-01
  -4.34853E-02  1.05613E-01  8.22694E-02  1.68747E-01  7.69168E-02  1.53566E-01  1.16686E-01 -1.37497E-01 -6.61063E-03  1.99365E-01
   1.56060E-01  5.44075E-02  1.31757E-02 -7.45078E-02  4.30144E-02 -1.48594E-02 -1.30410E-01  7.56760E-02 -3.03439E-02 -1.76123E-01
  -8.23361E-02 -3.57820E-01  6.14148E-02  3.63451E-03 -1.57800E-01 -1.19629E-01 -3.64843E-01  3.59611E-01  3.13391E-01  1.19490E-01
   2.49527E-01 -4.78127E-02 -4.41339E-02  2.88955E-01 -1.35462E-01  2.50091E-02  5.11754E-01  1.24074E-01 -8.99344E-02 -5.42093E-02
   1.64861E-01  4.62308E-02 -4.01754E-02 -2.26853E-01  8.85707E-02  1.75186E-01  2.34856E-01  4.47650E-01  3.09274E-01  2.57392E-01
   2.75048E-01  2.89088E-01  1.56983E-01  1.31805E-01  6.03042E-02  6.62986E-01  3.18138E-01  2.39999E-01  4.54129E-01  1.57502E-01
   4.20917E-01  2.42465E-01 -3.29931E-01 -2.07530E-01  1.05791E-01 -1.47973E-01  2.77394E-02 -1.14782E-01  3.29651E-02 -4.66484E-01
  -2.10066E-01 -2.77713E-01 -6.60321E-01 -1.12130E-02 -7.64664E-01 -6.29317E-01 -4.64324E-01 -5.87762E-01 -5.74796E-01 -3.39215E-01
  -3.12473E-01 -3.28165E-01 -4.33452E-01 -4.65560E-01  6.07637E-03 -2.75846E-01 -3.89405E-01 -3.36326E-01  1.56964E-01 -1.52976E-01
  -1.35623E-01  1.15135E-01 -2.44284E-01 -7.40562E-02 -1.80430E-01 -5.46393E-02  3.09713E-01  4.19847E-01  6.13058E-01  5.06020E-01
   3.73614E-01  6.07835E-01  2.48281E-01  6.77484E-01  5.19302E-01 -6.13717E-02  5.38343E-01  4.46256E-01  2.18363E-01  9.97939E-02
  -5.84503E-02 -1.68520E-01 -2.84634E-01 -3.27880E-01 -2.97619E-01 -4.33676E-01 -5.28287E-01 -5.93043E-01 -3.41485E-01 -2.35072E-01
  -5.68834E-01 -3.48274E-01 -6.04166E-01 -5.79131E-01 -1.40589E-01 -2.92140E-01 -3.55204E-01 -2.79822E-01 -1.36741E-01 -4.12641E-01
  -4.12468E-01  1.15105E-03  5.07805E-02 -2.10455E-01 -4.32189E-01 -4.20357E-01 -3.44455E-01 -1.94595E-01 -2.99331E-01  1.51589E-01
   2.07370E-01  1.22340E-02  2.08259E-01 -3.60134E-01 -2.11077E-01 -4.06257E-02 -2.19086E-01 -4.41018E-02 -2.11244E-02 -1.47347E-01
  -1.96492E-01 -9.46322E-02 -5.23995E-02  5.01852E-02  4.42669E-02  2.05953E-01  2.88533E-01 -1.87892E-01 -1.18460E-01  1.47887E-01
  -1.66953E-01 -6.03119E-02  1.90951E-01  2.31008E-01  1.66078E-01  2.82937E-01  4.75482E-01  3.09915E-01  2.06920E-01  2.83488E-01
   2.57900E-01  4.48931E-01  4.49272E-01 -1.99651E-02  1.38220E-02 -5.74487E-02  1.43666E-01  9.02187E-02 -9.82899E-02 -1.89634E-01
  -3.41681E-01  1.68606E-02 -7.14823E-02  1.33337E-02  3.05698E-02 -1.12781E-01 -1.65292E-01  1.59117E-01  3.17212E-01 -1.35459E-01
  -1.12386E-01 -2.71847E-02  4.23109E-03 -9.87414E-02 -4.48992E-01 -1.35347E-01 -6.85737E-02 -6.05881E-02  3.05887E-01 -8.38575E-02
   5.28588E-02 -1.12132E-01 -3.60177E-02  4.69658E-01  4.63556E-01  1.12538E-01 -2.03038E-01  1.46544E-01 -8.77891E-02  4.00376E-02
   4.83067E-01  3.44528E-01  2.66474E-01  3.65273E-01 -2.05944E-01 -1.69896E-01 -2.19805E-02 -3.68023E-02  2.08703E-01 -1.87848E-01
   2.76270E-02 -1.37727E-01 -1.83962E-01 -2.54960E-01 -5.68341E-02  2.41467E-01 -2.25757E-03  1.81424E-01  2.77628E-01  3.09857E-01
   2.47266E-01  8.89534E-02  1.45211E-01  3.90856E-01  7.80090E-02  3.98939E-01  3.28913E-01 -4.60203E-03  1.77634E-01  1.49331E-01
   5.11738E-01  2.33434E-01  3.89612E-01  3.60558E-01  5.29437E-02  4.53815E-01  3.42233E-01  2.29555E-01  4.79947E-01  6.61287E-01
   5.19471E-01  3.51701E-01  2.92373E-01  4.36575E-01  3.43371E-01 -3.49627E-02  3.96341E-01  1.52966E-01  2.06078E-02  1.89470E-01
  -1.41019E-01  3.28877E-02 -2.12145E-01 -2.47810E-02 -4.16785E-02 -2.00774E-01 -1.02091E-01 -1.64860E-01 -4.03618E-01 -2.01456E-01
   2.40887E-01 -1.56464E-01  3.64951E-01  2.69003E-01 -9.70095E-02 -4.46844E-02 -7.54792E-02 -3.35926E-01 -6.18604E-01 -2.72710E-01
  -5.16311E-01 -7.42349E-01 -1.07818E+00 -8.85508E-01 -9.29359E-01 -1.10579E+00 -7.87727E-01 -1.18059E+00 -8.42710E-01 -4.67112E-01
  -8.44007E-01 -6.54990E-01 -4.66296E-01 -2.62206E-01 -2.75484E-02 -1.43933E-01 -5.17089E-02 -1.10785E-01  1.71195E-01 -4.52348E-02
   6.61798E-02  2.97923E-02 -5.01145E-01  2.21018E-01  1.48708E-01  1.02630E-01  1.32357E-01 -2.78848E-01 -1.12433E-01  5.19355E-02
  -7.11778E-02  1.09254E-01 -4.40765E-02  9.30876E-02  5.97372E-01  1.12086E-01  3.04719E-01  1.35427E-01 -1.10041E-01  2.60895E-02
   1.28275E-01  1.71746E-01  3.40491E-01  9.63420E-02 -2.41392E-01  7.71282E-01  3.22440E-01  2.82982E-01  2.97259E-01  1.93903E-01
   7.25330E-01  6.00707E-02 -7.68057E-02 -6.99926E-02  2.50539E-02  1.49359E-01  1.57754E-01  1.16172E-01  4.03798E-01  3.59827E-01
   2.84968E-01  3.65323E-01  1.07030E-01  3.20789E-01  1.04654E-01  1.00211E-01  4.97514E-02 -2.53847E-01 -4.34270E-02 -1.38539E-01
  -1.23268E-01  1.03188E-01 -1.59413E-01 -3.52264E-02 -2.11279E-01 -1.50494E-01 -1.11306E-01 -2.82267E-01  2.23111E-01 -8.41704E-02
  -2.51223E-01  1.87626E-02  2.01302E-01 -1.11520E-01  1.60533E-01  9.64514E-02  1.89636E-02  3.13915E-02 -2.58118E-01  1.66798E-01
  -4.04293E-01 -8.01538E-02  5.72003E-02 -1.07843E-01 -1.11199E-01 -1.91912E-01 -1.85917E-02 -3.66415E-01 -2.16550E-01  8.16350E-02
   5.75243E-02 -3.57047E-01 -6.52556E-02  1.68478E-01  2.10710E-01  1.86665E-01  1.71326E-01  1.93484E-01  1.76655E-01  2.04104E-01
  -3.31075E-03  1.97710E-01  1.32736E-01  8.64649E-02  2.23127E-01  2.50812E-01 -1.03062E-01 -1.15529E-01  3.93985E-02  7.14478E-02
   1.55679E-01  2.98490E-02  1.09837E-01 -2.35432E-02 -3.38563E-01 -2.77318E-01 -2.04638E-01 -3.14186E-01  2.53046E-01 -6.61138E-02
  -4.06802E-01 -1.65133E-01 -3.66492E-01 -3.06853E-01 -5.58653E-01 -4.01281E-01 -1.34322E-01 -3.40821E-01 -3.07432E-01 -3.06916E-01
  -3.61101E-01 -1.63507E-01  4.55847E-02  1.88736E-01 -5.56254E-02 -2.25950E-01  1.54094E-01  3.57513E-01  5.76922E-02 -7.67742E-02
   4.59026E-02  6.88653E-02  3.23321E-01  3.04718E-01  3.01488E-01  2.77912E-01  2.10173E-01  1.12720E-01  1.29767E-01  3.36530E-01
   1.19815E-01  1.70336E-01  5.35150E-02  2.06264E-01  4.24500E-01  2.59423E-01  4.22124E-01  1.08682E-01 -4.36544E-02  5.51323E-02
   1.76746E-01  1.96575E-01 -3.67952E-02 -1.21960E-02  1.52509E-02 -1.32510E-01 -7.82618E-02  1.98273E-01 -2.35861E-01  6.99139E-02
   1.39521E-01 -1.76459E-01  1.87399E-01 -5.62918E-02  3.43589E-02 -5.54616E-01 -5.31308E-01 -1.89511E-01 -5.82316E-01 -4.05827E-01
  -7.01744E-01 -7.15129E-01 -3.90205E-01 -5.24456E-01 -4.34176E-01 -5.47762E-01 -7.58940E-01 -4.05597E-01 -7.44877E-01 -7.28780E-01
  -4.51285E-01 -3.81096E-01 -1.45216E-01 -3.86728E-01 -4.60180E-01 -5.54017E-01 -4.26042E-01 -2.97784E-01 -2.66497E-01  9.54102E-02
  -2.05309E-02 -2.39420E-01  2.44474E-01 -1.58674E-01  8.41945E-02  2.67144E-01 -4.99987E-01 -4.28961E-02 -8.28103E-02  2.07416E-01
   1.48228E-01 -3.33408E-02  2.59519E-01 -7.44102E-02  1.29256E-01 -5.47818E-02 -3.52397E-01 -9.67362E-02  1.44754E-02  1.41922E-01
   3.50632E-01  8.51163E-02 -1.05384E-01 -1.69078E-01 -1.42524E-01 -6.73846E-02 -9.93751E-02  6.18694E-02 -8.54972E-02 -1.03083E-01
  -8.12616E-03  2.28091E-02 -1.71480E-01 -1.36131E-01  6.82852E-02 -2.19251E-01 -7.28818E-02 -3.38291E-01 -3.29948E-01 -9.14975E-02
  -2.27830E-01 -1.69062E-03 -1.36347E-01  6.82203E-02 -1.89412E-01 -2.32701E-01  6.96143E-03 -7.00829E-04  4.97902E-02 -2.76280E-01
   1.06227E-01  1.92682E-01  1.71139E-01  1.29375E-01  3.02684E-01  1.37086E-01 -1.87135E-01  6.77229E-02 -6.18784E-02  1.37251E-01
  -3.09081E-01 -6.82908E-02  9.32219E-02 -1.56824E-01  3.83427E-01  1.19712E-02  3.69307E-01  2.46003E-01 -1.87339E-01  4.32852E-01
  -6.10970E-02 -3.09578E-01 -6.51509E-02 -1.47618E-01  5.52922E-02  2.00247E-01  1.91288E-01 -6.10632E-03 -5.04578E-02 -4.46626E-02
  -1.15407E-01 -2.26944E-01 -4.58695E-02  3.51547E-01 -9.10614E-02 -1.86321E-01 -1.95180E-01 -9.27232E-02  3.00419E-01 -1.16829E-01
  -2.03052E-02 -6.86343E-02 -7.20582E-03  7.95152E-02  2.15192E-01  1.75448E-01 -2.21556E-01  2.21369E-01 -1.67819E-01 -1.37219E-02
   4.08665E-01  3.93643E-01  1.38440E-01 -3.95739E-03
 NY points of the fit to the data follow
   2.33900E-01  2.04697E-01  1.83721E-01  1.78478E-01  1.71001E-01  1.68961E-01  1.76723E-01  1.91500E-01  2.08339E-01  2.25996E-01
   2.45768E-01  2.65458E-01  2.85598E-01  3.05720E-01  3.21675E-01  3.31322E-01  3.31518E-01  3.21378E-01  3.00359E-01  2.70942E-01
   2.34980E-01  1.90538E-01  1.40373E-01  8.94600E-02  4.22938E-02  2.12025E-03 -3.51652E-02 -6.63550E-02 -8.78871E-02 -1.08771E-01
  -1.31795E-01 -1.56532E-01 -1.83774E-01 -2.08423E-01 -2.35961E-01 -2.57441E-01 -2.78835E-01 -2.90256E-01 -2.89853E-01 -2.77577E-01
  -2.51345E-01 -2.12573E-01 -1.64959E-01 -1.10061E-01 -5.00734E-02  1.41678E-02  7.86764E-02  1.39228E-01  1.91444E-01  2.32768E-01
   2.61438E-01  2.76432E-01  2.76445E-01  2.58650E-01  2.32402E-01  1.90478E-01  1.32426E-01  7.30716E-02  1.29931E-02 -4.40169E-02
  -8.60815E-02 -1.11891E-01 -1.20541E-01 -1.15385E-01 -9.82646E-02 -7.14850E-02 -3.64459E-02  5.80989E-03  5.40786E-02  1.09197E-01
   1.51936E-01  1.69553E-01  1.71048E-01  1.55907E-01  1.26038E-01  8.84575E-02  5.03668E-02  1.44624E-02 -2.12711E-02 -4.93695E-02
  -6.83018E-02 -7.76869E-02 -7.07296E-02 -4.98532E-02 -1.77726E-02  2.44414E-02  7.32946E-02  1.24644E-01  1.68123E-01  1.99798E-01
   2.14951E-01  2.11282E-01  1.91966E-01  1.61069E-01  1.27151E-01  9.30981E-02  5.77540E-02  2.74991E-02  5.98226E-03 -5.64080E-03
  -7.48304E-03 -5.76750E-04  1.37315E-02  3.36068E-02  5.82538E-02  8.63048E-02  1.16431E-01  1.47049E-01  1.75331E-01  1.98184E-01
   2.13714E-01  2.21937E-01  2.28695E-01  2.30381E-01  2.31153E-01  2.33637E-01  2.37082E-01  2.36456E-01  2.35857E-01  2.21826E-01
   1.92353E-01  1.46240E-01  8.86115E-02  2.51200E-02 -3.54052E-02 -6.63029E-02 -8.36736E-02 -1.18413E-01 -1.77711E-01 -2.52240E-01
  -3.27749E-01 -3.93327E-01 -4.42293E-01 -4.76469E-01 -5.03483E-01 -5.24393E-01 -5.37499E-01 -5.36130E-01 -5.19027E-01 -4.89138E-01
  -4.52197E-01 -4.13353E-01 -3.73103E-01 -3.26122E-01 -2.73902E-01 -2.13192E-01 -1.44084E-01 -7.16434E-02 -6.88465E-03  3.78805E-02
   6.90102E-02  9.36759E-02  1.13754E-01  1.29795E-01  1.40582E-01  1.43113E-01  1.75202E-01  2.51558E-01  3.36792E-01  4.00326E-01
   4.30774E-01  4.33283E-01  4.15621E-01  3.88568E-01  3.55902E-01  3.10206E-01  2.45339E-01  1.61488E-01  6.59300E-02 -3.13133E-02
  -1.23485E-01 -2.08604E-01 -2.88934E-01 -3.61563E-01 -4.21244E-01 -4.66317E-01 -4.92939E-01 -4.95477E-01 -4.71636E-01 -4.29442E-01
  -3.91897E-01 -3.65750E-01 -3.44131E-01 -3.24496E-01 -3.05885E-01 -2.88321E-01 -2.71423E-01 -2.55694E-01 -2.40818E-01 -2.26432E-01
  -2.12413E-01 -1.98946E-01 -1.85933E-01 -1.73149E-01 -1.60506E-01 -1.48155E-01 -1.36628E-01 -1.25831E-01 -1.15439E-01 -1.05390E-01
  -9.58527E-02 -8.71698E-02 -7.95869E-02 -7.29524E-02 -6.73079E-02 -6.22843E-02 -5.75866E-02 -5.32316E-02 -4.93523E-02 -4.61220E-02
  -4.33048E-02 -4.09243E-02 -3.89067E-02 -3.81430E-02 -4.48108E-02 -5.51074E-02 -5.78803E-02 -4.86108E-02 -3.32403E-02 -2.30699E-02
  -1.76161E-02 -2.62477E-03  2.65907E-02  6.75639E-02  1.13794E-01  1.58215E-01  1.95759E-01  2.25209E-01  2.49022E-01  2.68752E-01
   2.83064E-01  2.88441E-01  2.82165E-01  2.64853E-01  2.38532E-01  2.05364E-01  1.67005E-01  1.26916E-01  8.99724E-02  5.49217E-02
   1.90657E-02 -1.57357E-02 -4.40264E-02 -6.14216E-02 -7.02188E-02 -7.66046E-02 -9.30242E-02 -1.11416E-01 -1.24710E-01 -1.39963E-01
  -1.54972E-01 -1.66385E-01 -1.68412E-01 -1.67110E-01 -1.62347E-01 -1.49116E-01 -1.28396E-01 -1.00630E-01 -6.87782E-02 -3.37543E-02
   2.89541E-03  3.95329E-02  7.59696E-02  1.09160E-01  1.38087E-01  1.61982E-01  1.77438E-01  1.83505E-01  1.80692E-01  1.71905E-01
   1.61656E-01  1.42602E-01  1.15721E-01  8.31892E-02  4.09490E-02 -5.80887E-03 -5.40241E-02 -9.58589E-02 -1.26598E-01 -1.46020E-01
  -1.54230E-01 -1.52575E-01 -1.42045E-01 -1.22584E-01 -9.70212E-02 -6.58136E-02 -3.08744E-02  6.57069E-03  4.49188E-02  8.26002E-02
   1.18160E-01  1.49660E-01  1.75765E-01  1.94730E-01  2.05000E-01  2.08370E-01  2.05647E-01  1.99887E-01  1.94648E-01  1.90906E-01
   1.90733E-01  1.93449E-01  1.97743E-01  2.02662E-01  2.06724E-01  2.09566E-01  2.11176E-01  2.10548E-01  2.08087E-01  2.02386E-01
   1.94087E-01  1.81453E-01  1.65063E-01  1.44057E-01  1.18264E-01  8.69934E-02  5.11544E-02  1.30844E-02 -2.44231E-02 -5.78833E-02
  -8.58298E-02 -1.07246E-01 -1.21685E-01 -1.31273E-01 -1.34807E-01 -1.35716E-01 -1.32607E-01 -1.27721E-01 -1.20594E-01 -1.12202E-01
  -9.80173E-02 -2.79278E-02  7.34442E-02  1.17130E-01  7.51363E-02 -3.16894E-02 -1.68826E-01 -3.08882E-01 -4.35651E-01 -5.49151E-01
  -6.63055E-01 -7.78963E-01 -8.85784E-01 -9.67372E-01 -1.01168E+00 -1.01919E+00 -9.98084E-01 -9.56912E-01 -8.93927E-01 -8.05360E-01
  -6.97841E-01 -5.71502E-01 -4.28323E-01 -2.81411E-01 -1.56697E-01 -8.50291E-02 -5.38106E-02 -3.59835E-02 -2.51064E-02 -1.85789E-02
  -1.49599E-02 -1.32018E-02 -1.27145E-02 -1.27494E-02 -1.25000E-02 -1.16873E-02 -9.97664E-03 -7.46038E-03 -3.92691E-03  7.47951E-04
   6.67386E-03  1.35271E-02  2.11805E-02  2.90756E-02  3.71068E-02  4.50965E-02  5.28164E-02  6.03164E-02  6.70817E-02  7.33445E-02
   7.89024E-02  8.40089E-02  8.88697E-02  9.37887E-02  9.88524E-02  1.04008E-01  1.09041E-01  1.13785E-01  1.18181E-01  1.22393E-01
   1.26393E-01  1.30086E-01  1.33181E-01  1.35656E-01  1.37193E-01  1.37603E-01  1.36718E-01  1.34721E-01  1.31549E-01  1.26974E-01
   1.21074E-01  1.13785E-01  1.05314E-01  9.58881E-02  8.58435E-02  7.53871E-02  6.47610E-02  5.40018E-02  4.32170E-02  3.24836E-02
   2.20776E-02  1.22572E-02  2.95896E-03 -5.91467E-03 -1.42119E-02 -2.19545E-02 -2.91764E-02 -3.59144E-02 -4.20096E-02 -4.74863E-02
  -5.20361E-02 -5.53377E-02 -5.74164E-02 -5.84888E-02 -5.88719E-02 -5.85804E-02 -5.74862E-02 -5.53607E-02 -5.20888E-02 -4.78531E-02
  -4.30113E-02 -3.75539E-02 -3.15145E-02 -2.47804E-02 -1.71570E-02 -8.74102E-03  4.74735E-04  1.06337E-02  2.18837E-02  3.44906E-02
   4.85436E-02  6.40083E-02  8.06047E-02  9.81265E-02  1.16023E-01  1.33948E-01  1.51687E-01  1.69144E-01  1.85898E-01  2.01295E-01
   2.14656E-01  2.25577E-01  2.33798E-01  2.39262E-01  2.42010E-01  2.41637E-01  2.38222E-01  2.31947E-01  2.23105E-01  2.12064E-01
   1.99250E-01  1.85034E-01  1.69790E-01  1.53805E-01  1.37253E-01  1.20349E-01  1.03655E-01  8.74958E-02  7.22312E-02  5.81344E-02
   4.53341E-02  3.38025E-02  2.35920E-02  1.50427E-02  8.38509E-03  3.69661E-03  9.85442E-04  1.34354E-04  8.23470E-04  2.78836E-03
   6.00907E-03  1.04846E-02  1.60323E-02  2.25515E-02  2.94690E-02  3.65571E-02  4.35545E-02  5.01347E-02  5.61005E-02  6.12535E-02
   6.55264E-02  6.87940E-02  7.09579E-02  7.19886E-02  7.19421E-02  7.09822E-02  6.92032E-02  6.65133E-02  6.28425E-02  5.82956E-02
   5.30905E-02  4.73486E-02  4.12833E-02  3.52165E-02  2.92476E-02  2.33440E-02  1.74297E-02  1.14251E-02  5.42651E-03 -5.27566E-04
  -6.43694E-03 -1.22086E-02 -1.83223E-02 -2.51355E-02 -3.29782E-02 -4.20672E-02 -5.27322E-02 -6.51472E-02 -7.94426E-02 -9.56993E-02
  -1.14165E-01 -1.34991E-01 -1.57825E-01 -1.82076E-01 -2.07358E-01 -2.33279E-01 -2.59251E-01 -2.84660E-01 -3.08768E-01 -3.30854E-01
  -3.50227E-01 -3.66561E-01 -3.79766E-01 -3.89658E-01 -3.96333E-01 -3.99892E-01 -4.00298E-01 -3.97751E-01 -3.92523E-01 -3.84983E-01
  -3.75168E-01 -3.63635E-01 -3.50825E-01 -3.36853E-01 -3.21735E-01 -3.05676E-01 -2.89142E-01 -2.72465E-01 -2.55326E-01 -2.37771E-01
  -2.20179E-01 -2.02622E-01 -1.85380E-01 -1.68653E-01 -1.52545E-01 -1.37179E-01 -1.22684E-01 -1.09190E-01 -9.65519E-02 -8.48670E-02
  -7.43641E-02 -6.49300E-02 -5.65401E-02 -4.92273E-02 -4.29125E-02 -3.71769E-02 -3.18954E-02 -2.72773E-02 -2.31587E-02 -1.94224E-02
  -1.60821E-02 -1.29259E-02 -1.00285E-02 -7.46056E-03 -5.07955E-03 -2.92259E-03 -1.03188E-03  4.72829E-04  1.55558E-03  2.59354E-03
   3.89490E-03  5.09490E-03  5.73058E-03  5.87225E-03  5.72426E-03  5.38296E-03  4.83206E-03  4.38830E-03  4.16109E-03  3.87204E-03
   3.29378E-03  2.39407E-03  1.36145E-03  3.32804E-04 -6.16927E-04 -1.60118E-03 -2.64665E-03 -3.60977E-03 -4.44261E-03 -5.21460E-03
  -5.70565E-03 -5.76585E-03 -5.17029E-03 -4.40748E-03 -3.71872E-03 -3.02199E-03 -2.33126E-03 -1.69511E-03 -1.03845E-03 -2.47487E-04
   7.96608E-04  1.67254E-03  2.08798E-03  2.23635E-03  2.33655E-03  2.78905E-03  3.67739E-03  4.80065E-03  5.90356E-03  6.81611E-03
   7.73719E-03  8.88116E-03  1.02773E-02  1.18900E-02  1.34418E-02  1.46836E-02  1.56471E-02  1.65986E-02  1.72764E-02  1.75766E-02
   1.77689E-02  1.79180E-02  1.79309E-02  1.78458E-02  1.76353E-02  1.75474E-02  1.76051E-02  1.76231E-02  1.75715E-02  1.75689E-02
   1.77519E-02  1.82913E-02  1.92013E-02  2.06247E-02  2.21523E-02  2.37460E-02  2.55456E-02  2.76495E-02  3.02030E-02  3.31620E-02
   3.63196E-02  3.94736E-02  4.26708E-02  4.58932E-02
 NY background values follow
     7.320E-02    7.315E-02    7.311E-02    7.307E-02    7.302E-02    7.298E-02    7.294E-02    7.289E-02    7.285E-02    7.281E-02
     7.276E-02    7.272E-02    7.267E-02    7.263E-02    7.259E-02    7.254E-02    7.250E-02    7.246E-02    7.241E-02    7.237E-02
     7.232E-02    7.228E-02    7.224E-02    7.219E-02    7.215E-02    7.210E-02    7.206E-02    7.201E-02    7.197E-02    7.192E-02
     7.188E-02    7.183E-02    7.179E-02    7.174E-02    7.169E-02    7.165E-02    7.160E-02    7.156E-02    7.151E-02    7.146E-02
     7.142E-02    7.137E-02    7.132E-02    7.127E-02    7.123E-02    7.118E-02    7.113E-02    7.108E-02    7.103E-02    7.098E-02
     7.093E-02    7.088E-02    7.083E-02    7.078E-02    7.073E-02    7.068E-02    7.063E-02    7.058E-02    7.053E-02    7.048E-02
     7.042E-02    7.037E-02    7.032E-02    7.027E-02    7.021E-02    7.016E-02    7.010E-02    7.005E-02    6.999E-02    6.994E-02
