 
 $NMID
 ID=''
 FMTDAT='(2E13.5)'
 TRAMP=   1.00000E+0
 VOLUME=   1.00000E+0
 $END
   7.34927E+2   3.26445E+2
  -1.94692E+1   3.16734E+3
   6.32458E+3  -2.89387E+3
   2.84908E+3  -2.96012E+3
  -2.94070E+3  -4.44948E+3
  -5.24177E+2  -1.73276E+3
  -3.91429E+2   2.76609E+2
  -4.62344E+3  -2.52895E+3
   1.61416E+3  -8.20322E+2
  -7.01299E+2  -8.57774E+2
   1.42220E+2  -1.00971E+3
   2.67479E+3   7.59797E+2
   9.33138E+2   2.12186E+3
  -3.70125E+3   6.97395E+2
  -2.90642E+3  -1.94839E+3
   2.52851E+3  -6.19382E+2
   1.02059E+3  -2.56673E+2
   3.66133E+3   3.06651E+3
  -2.64371E+3   1.51698E+3
   6.48844E+2  -2.18558E+3
   3.98811E+3  -3.82707E+2
  -1.29627E+3   4.14047E+3
  -4.55657E+3   3.60768E+3
   6.43440E+2  -4.25675E+3
   3.93967E+3   1.03495E+3
   3.01348E+0   4.78979E+3
  -2.38091E+3   1.63788E+3
  -1.19771E+2  -2.83896E+3
   2.90672E+2  -3.28978E+3
   4.12355E+3  -1.69680E+3
   3.21309E+3   6.27327E+3
  -3.27859E+3   4.60857E+3
  -5.50194E+3  -1.73162E+3
  -1.14534E+3  -2.57282E+3
  -1.21754E+3   2.05480E+3
  -3.57898E+3  -3.50783E+3
   2.37154E+3  -3.74240E+3
   4.24012E+3   2.00262E+3
  -1.66187E+3   2.78857E+3
  -9.87753E+2   1.16988E+1
  -2.08763E+3   2.98779E+3
  -3.39561E+3  -6.38210E+2
  -3.18075E+3  -5.18342E+3
   5.33752E+3  -4.38571E+3
   3.20850E+3  -4.10025E+2
   2.57156E+3   7.46697E+2
   2.65492E+3   2.82832E+3
   2.44115E+3   1.48949E+3
  -3.45316E+2   8.41062E+2
  -2.73787E+3  -8.48333E+2
  -2.72721E+3  -2.18362E+3
  -1.42171E+3  -3.43917E+3
   1.78941E+3  -1.93345E+3
   5.58114E+2   2.48608E+3
  -2.25473E+3   1.16994E+3
  -2.30555E+3   1.55620E+3
  -5.56201E+3  -8.25622E+2
  -2.75927E+3  -2.13439E+3
  -3.47615E+1  -5.15469E+3
   1.57091E+3  -2.69451E+3
   4.26444E+3  -2.12967E+3
   5.60609E+3   1.44374E+3
   8.74441E+2   2.37213E+3
  -2.05951E+3  -6.13781E+2
   4.26146E+2  -2.31663E+3
   2.13156E+3   8.57346E+2
  -1.93839E+2   2.35329E+3
  -4.27574E+3   3.08223E+2
  -6.27150E+1  -1.21786E+3
   7.67424E+2   1.50001E+3
   6.01545E+2   2.01698E+3
  -1.02578E+3   4.38540E+2
   1.16953E+2  -1.53844E+3
   1.27977E+3  -4.56523E+3
   3.31935E+3  -1.67334E+3
   2.47721E+3   1.13010E+3
   6.88547E+2   7.80477E+2
  -2.03589E+3   3.09129E+2
   3.75582E+3   2.28335E+3
   2.65667E+2   1.07994E+3
  -1.41674E+3   2.46630E+3
  -2.22441E+3   2.22420E+3
   1.73503E+3   3.43981E+3
  -7.10560E+2   1.99374E+3
  -3.47165E+3   2.10048E+3
  -3.89220E+3   5.14780E+2
  -6.90217E+2  -2.35584E+3
   3.09255E+3  -1.10363E+3
   2.56285E+3  -4.79893E+2
   3.63394E+2   7.11052E+2
  -5.73947E+2   2.91559E+2
   1.90454E+3  -1.76618E+2
   1.18262E+3   2.98893E+3
  -2.88278E+3   6.15492E+2
  -3.88600E+3   2.91975E+2
   6.55518E+2  -3.78643E+3
   2.02608E+3  -2.47750E+3
   2.72074E+3   1.27369E+3
  -2.37383E+3   7.60997E+1
  -1.30774E+3  -2.48483E+3
   1.65280E+3  -2.24619E+3
   2.39750E+3   1.06643E+3
   2.36933E+3   2.97022E+3
  -2.41434E+3   1.63081E+3
  -2.28614E+3  -2.05007E+3
  -1.50939E+3  -1.68922E+3
  -2.03354E+3  -1.99856E+3
  -2.92157E+3  -1.54805E+3
  -1.06004E+3  -1.58782E+3
   1.11597E+3  -1.62286E+3
   3.16956E+3  -1.62682E+3
   3.13029E+3   1.06671E+0
   1.62173E+2   2.27119E+3
   1.67631E+3  -1.98180E+2
  -6.99291E+2   4.35563E+2
  -2.04278E+3   3.13332E+2
   1.31236E+3  -4.15655E+3
   1.61928E+3  -1.38063E+3
   1.29638E+3  -7.82150E+2
  -2.50693E+2  -2.23435E+2
  -1.33229E+2   1.19703E+3
  -1.63896E+3   1.02096E+3
   6.67850E+2  -2.28719E+3
   3.16767E+3  -1.29354E+3
   1.05614E+2   4.46689E+2
  -2.87995E+2   7.19022E+2
   1.85479E+3  -1.36499E+2
   1.61867E+3   1.51659E+3
  -1.42508E+3  -9.59112E+2
  -8.92153E+2   1.75362E+3
  -1.46359E+2   5.92211E+2
   1.46217E+3  -7.10077E+2
   2.46261E+3  -1.18033E+3
   2.48937E+3   2.88771E+3
  -1.05485E+3   2.49656E+3
  -1.58287E+3   1.47446E+2
  -1.41184E+3  -9.67333E+2
   1.72384E+2  -3.09445E+3
   1.42673E+3   1.23242E+2
  -1.19296E+3  -1.03301E+3
   1.00877E+3   3.62489E+2
   1.30032E+3  -6.17867E+2
   2.49494E+3   2.59947E+3
   1.34429E+3   8.47279E+2
   3.84348E+2   2.26720E+3
  -2.50244E+3  -1.12696E+2
   1.05235E+1   1.26076E+2
  -1.87766E+3   9.36546E+1
  -1.58149E+3   6.35352E+2
  -1.57155E+3   2.15058E+3
  -1.95027E+2  -1.06073E+3
  -3.86006E+3  -1.04914E+3
   8.88874E+2  -1.36987E+3
   5.66937E+2  -5.94686E+2
   1.00633E+3  -9.71147E+2
  -3.36620E+2  -1.75069E+2
  -2.57357E+2   9.10878E+2
  -1.57360E+3  -1.27798E+3
  -2.40499E+2   7.24744E+2
  -7.91443E+2   9.16085E+1
  -9.51979E+2   1.45481E+3
  -2.26239E+2   4.02261E+2
   4.15372E+2  -1.29522E+3
   8.91173E+2   7.02553E+2
  -4.21947E+2   1.69102E+3
  -6.88461E+2   3.66964E+3
   7.70234E+2  -1.49907E+3
   1.71074E+3   7.55027E+2
   2.77831E+2   2.33740E+3
  -1.53022E+3   4.32720E+3
  -1.65008E+3  -2.20451E+2
  -1.72444E+3  -8.14843E+2
  -2.79381E+2  -2.49490E+1
  -9.38708E+2  -6.52354E+2
   1.39493E+3  -9.46175E+2
   2.27862E+3   9.98400E+2
   2.85319E+3  -7.18436E+2
   8.20525E+2   1.45451E+3
  -3.95157E+2   2.76063E+3
  -2.18902E+3   1.58659E+2
   4.64537E+2  -1.82236E+3
   8.07859E+1  -7.11307E+2
   1.46503E+3  -4.31390E+2
  -1.22369E+3   1.23431E+3
   9.48121E+2   1.44110E+3
   2.03320E+3   1.77082E+3
   1.18318E+3   1.17538E+3
  -1.96941E+3  -1.95529E+2
  -3.53204E+3  -1.91942E+3
   5.15753E+2  -1.74868E+3
   2.53042E+3  -1.03814E+3
   8.60374E+2   1.52986E+3
   8.73689E+1  -2.29917E+2
   2.94239E+2   8.74375E+2
   3.81994E+2   8.81544E+2
  -4.07089E+2  -1.71566E+3
   1.32520E+1  -8.06431E+2
   6.33874E+2  -3.46593E+2
   9.67071E+0  -1.99172E+0
   2.04640E+3   1.10182E+3
  -1.18563E+3   1.97778E+3
  -7.45334E+2   4.44920E+2
   4.28674E+2  -3.41324E+3
   1.31259E+3  -1.13729E+3
   3.03543E+3   1.52541E+3
  -4.18396E+2  -1.82524E+3
   2.51282E+2  -4.11756E+2
   1.07317E+3  -3.60683E+2
   1.06310E+3   3.49011E+2
   2.12498E+3   1.54968E+3
  -2.09919E+3   1.09997E+3
   1.62560E+3  -1.74518E+3
   1.25245E+3  -1.87202E+2
   3.23831E+3  -2.22060E+2
   6.38748E+1   2.51154E+3
  -1.22261E+3   1.16448E+3
  -4.44311E+2   7.07141E+2
  -2.06673E+3  -1.45540E+1
   1.55471E+2   1.36217E+3
   6.02245E+2  -2.03372E+3
   1.05708E+3  -1.30925E+3
  -5.54007E+2   4.23541E+2
   1.28579E+3  -9.27567E+2
  -3.97223E+2  -8.87063E+2
   2.58336E+3  -1.34565E+3
   3.12051E+3   8.43882E+1
   1.80676E+3   1.18047E+3
  -6.32635E+2   3.18797E+3
   5.60143E+2  -1.23443E+3
  -1.92790E+2   3.81762E+2
   1.24781E+3   4.54549E+2
  -7.31407E+2   9.51537E+2
  -3.06417E+2   4.09489E+2
   4.65035E+2  -2.25367E+3
   6.27934E+2  -3.70651E+2
   1.79342E+3   8.49970E+2
  -4.69940E+2   8.81300E+2
  -1.45224E+3  -3.48761E+2
   4.58374E+2  -2.28810E+3
   6.60242E+2  -2.43551E+3
   9.21644E+2  -2.92799E+2
  -1.22056E+3   1.87107E+3
   3.65212E+2   3.14381E+1
  -3.01636E+3  -1.34221E+3
  -7.68203E+2  -2.30314E+3
   3.33087E+2   4.85589E+2
  -3.29877E+3   6.27661E+2
   1.22848E+3  -1.95946E+3
   7.02846E+2  -5.15049E+2
   7.95308E+2   3.11306E+3
  -9.95630E+2   1.29709E+2
  -6.36867E+2   2.31480E+3
  -3.38373E+2  -1.91674E+3
  -6.17282E+2  -1.77010E+3
  -1.86657E+2   3.10638E+2
   1.58065E+3  -1.39091E+3
   1.03974E+3  -5.94897E+1
   4.42430E+2   3.95482E+2
  -1.60354E+3   1.58796E+3
  -9.79655E+2  -4.24481E+2
  -6.20478E+2   5.21449E+1
  -1.78404E+3  -1.34885E+3
   1.56592E+2   3.60377E+2
   3.15068E+2   7.44794E+2
  -1.75247E+3  -4.80537E+1
   9.73043E+1  -7.70313E+2
  -3.12293E+2  -2.70847E+3
  -1.20237E+3   9.71313E+2
  -1.71799E+3  -1.24025E+3
  -1.19745E+3  -7.58295E+2
   7.30366E+2  -2.20317E+3
  -2.01026E+2   9.74817E+0
   3.45592E+2   1.74537E+3
  -2.35988E+3  -7.80254E+2
  -1.64361E+3  -2.13826E+3
  -4.52048E+2   2.78309E+2
  -1.17422E+3   5.21210E+2
   2.51160E+2   2.67671E+2
  -8.42494E+2  -1.47854E+3
   1.11159E+3  -1.29195E+3
   1.13369E+3   7.27233E+2
  -1.90335E+3  -1.01006E+3
  -1.05123E+3  -1.40524E+3
  -1.72951E+3  -2.43688E+3
  -1.05051E+3  -1.01866E+3
  -1.03978E+3  -3.00566E+2
  -2.21870E+3   1.48057E+3
  -8.86152E+2  -7.17393E+2
   2.62212E+3  -3.26757E+3
   5.56114E+1  -2.82142E+2
   3.88000E+2  -3.46379E+1
  -1.38229E+3  -8.71928E+2
   6.64316E+1   6.58842E+2
  -1.85318E+3   2.61929E+2
  -8.46667E+2   1.49699E+3
  -1.11198E+3   1.06429E+3
  -1.52950E+3  -5.86303E+1
  -1.48569E+3  -1.68675E+3
   2.45771E+3  -8.45190E+2
   9.45933E+2   8.81852E+2
  -1.29144E+3  -8.60461E+2
  -6.06106E+1  -1.04019E+3
   1.58478E+3   1.60750E+3
   5.59014E+2   5.47483E+2
  -1.52016E+3   7.74941E+2
  -1.37240E+3  -1.14648E+3
   2.46173E+3  -3.17516E+2
   7.63770E+2   1.26678E+3
  -1.04039E+3   1.58377E+3
  -1.27681E+2   1.86402E+2
  -6.02395E+2  -1.02084E+3
  -1.27969E+3  -1.51979E+3
   5.83123E+2   2.04721E+3
  -6.02564E+2   1.49673E+3
  -2.48276E+2   8.24214E+1
   9.93043E+2  -6.87959E+2
   7.55250E+2  -8.27261E+1
   8.85173E+2  -1.65036E+2
   1.05890E+3  -2.38551E+3
   1.50792E+2  -1.59320E+3
   1.88577E+3  -8.84374E+2
   1.92651E+3   5.73344E+2
   2.05438E+2   3.42023E+2
  -1.49997E+2  -1.09281E+3
   1.56453E+3   7.66225E+2
   7.02927E+2   1.19425E+3
  -7.14319E+2   7.39293E+2
  -9.00154E+2   5.26381E+2
   1.82568E+3  -6.71832E+2
   1.18912E+3  -8.46117E+2
   3.00937E+2   1.62797E+3
   2.35766E+2   2.70743E+3
   8.81920E+2   7.71802E+2
  -4.72196E+2  -1.28454E+3
  -1.03293E+2   4.41555E+2
   4.87736E+2   8.40707E+2
  -7.60082E+2   2.65458E+2
   4.94874E+2   9.45748E+2
  -6.59350E+2   1.20232E+3
  -9.57265E+2   1.69228E+3
  -1.86090E+3   1.17091E+3
   4.38106E+2   5.63590E+2
  -6.55363E+2  -3.33231E+2
   9.73913E+2  -5.35277E+2
   1.83748E+3   3.83096E+2
   3.35902E+2   1.63202E+3
   2.98452E+2  -8.67860E+1
   1.04360E+3   1.11031E+3
   5.75886E+2   3.63174E+2
  -7.26764E+2  -1.59153E+2
  -1.37834E+3  -1.25902E+3
   9.44600E+2  -4.84163E+2
  -7.89426E+2   5.22000E+1
   7.16595E+1   8.46830E+2
   9.75878E+2   4.86114E+2
   1.09973E+3   4.73937E+2
   2.24519E+3   9.46294E+2
   1.19462E+3  -7.45864E+2
  -2.01354E+3   8.78988E+2
  -1.27220E+3   1.53404E+2
  -6.06182E+2   1.44865E+3
  -4.23103E+2   3.48649E+2
  -1.46416E+3   2.01492E+2
  -6.08924E+2  -3.71597E+2
  -1.15013E+3  -1.84000E+3
  -5.49709E+2   1.06585E+3
  -9.28777E+2  -1.62795E+1
