 
 $NMID
 ID=''
 FMTDAT='(2E13.5)'
 TRAMP=   1.00000E+0
 VOLUME=   1.00000E+0
 $END
  -2.03698E+4   9.42157E+3
  -5.73321E+4   8.38827E+3
  -5.49684E+4   1.81929E+4
  -5.07176E+4   1.68205E+4
  -5.32986E+4   1.60888E+4
  -5.26058E+4   1.83651E+4
  -5.07524E+4   1.71795E+4
  -5.17510E+4   1.62535E+4
  -5.12724E+4   1.76433E+4
  -5.01127E+4   1.65612E+4
  -5.06511E+4   1.56994E+4
  -5.02113E+4   1.65944E+4
  -4.95998E+4   1.61316E+4
  -5.02490E+4   1.53879E+4
  -4.99681E+4   1.58478E+4
  -4.93479E+4   1.54127E+4
  -4.96377E+4   1.49605E+4
  -4.94392E+4   1.52738E+4
  -4.88031E+4   1.50542E+4
  -4.91316E+4   1.46157E+4
  -4.87374E+4   1.49458E+4
  -4.82265E+4   1.48401E+4
  -4.85024E+4   1.46670E+4
  -4.82165E+4   1.46002E+4
  -4.76362E+4   1.44504E+4
  -4.76339E+4   1.43627E+4
  -4.74626E+4   1.43535E+4
  -4.69895E+4   1.39875E+4
  -4.69494E+4   1.36817E+4
  -4.66106E+4   1.36149E+4
  -4.62112E+4   1.34999E+4
  -4.61217E+4   1.33674E+4
  -4.60077E+4   1.31814E+4
  -4.55960E+4   1.28298E+4
  -4.54044E+4   1.27591E+4
  -4.52497E+4   1.28183E+4
  -4.48386E+4   1.26018E+4
  -4.45710E+4   1.24388E+4
  -4.42967E+4   1.25184E+4
  -4.41668E+4   1.24809E+4
  -4.38758E+4   1.22708E+4
  -4.38355E+4   1.21368E+4
  -4.35027E+4   1.18515E+4
  -4.32270E+4   1.17989E+4
  -4.30068E+4   1.18478E+4
  -4.27850E+4   1.17816E+4
  -4.26148E+4   1.17162E+4
  -4.24020E+4   1.16825E+4
  -4.21427E+4   1.16176E+4
  -4.20218E+4   1.15385E+4
  -4.18657E+4   1.14887E+4
  -4.16484E+4   1.13745E+4
  -4.13910E+4   1.14708E+4
  -4.11831E+4   1.15120E+4
  -4.10242E+4   1.14564E+4
  -4.08774E+4   1.13752E+4
  -4.06492E+4   1.12735E+4
  -4.05422E+4   1.12382E+4
  -4.03158E+4   1.10474E+4
  -4.00420E+4   1.10890E+4
  -3.98059E+4   1.10492E+4
  -3.95228E+4   1.10725E+4
  -3.94050E+4   1.10546E+4
  -3.92794E+4   1.10005E+4
  -3.89654E+4   1.09363E+4
  -3.87382E+4   1.09773E+4
  -3.86565E+4   1.09478E+4
  -3.84313E+4   1.09003E+4
  -3.82809E+4   1.07663E+4
  -3.80693E+4   1.07354E+4
  -3.79003E+4   1.07175E+4
  -3.76553E+4   1.06533E+4
  -3.74967E+4   1.05657E+4
  -3.72898E+4   1.04602E+4
  -3.71731E+4   1.04265E+4
  -3.68504E+4   1.04134E+4
  -3.66592E+4   1.03750E+4
  -3.64952E+4   1.03678E+4
  -3.62751E+4   1.04577E+4
  -3.60462E+4   1.03389E+4
  -3.59264E+4   1.02657E+4
  -3.55885E+4   1.03039E+4
  -3.54137E+4   1.02812E+4
  -3.52063E+4   1.02447E+4
  -3.50729E+4   1.01885E+4
  -3.49266E+4   1.00625E+4
  -3.46768E+4   9.94068E+3
  -3.44266E+4   9.95291E+3
  -3.42095E+4   9.89647E+3
  -3.40680E+4   9.90797E+3
  -3.38700E+4   9.93087E+3
  -3.36423E+4   9.92729E+3
  -3.34441E+4   9.87368E+3
  -3.32559E+4   9.85256E+3
  -3.30491E+4   9.81010E+3
  -3.28075E+4   9.72157E+3
  -3.25689E+4   9.72573E+3
  -3.23909E+4   9.76543E+3
  -3.22707E+4   9.78809E+3
  -3.20994E+4   9.64184E+3
  -3.17901E+4   9.57087E+3
  -3.15463E+4   9.64260E+3
  -3.13794E+4   9.59684E+3
  -3.11542E+4   9.59030E+3
  -3.09621E+4   9.55590E+3
  -3.08048E+4   9.50142E+3
  -3.05645E+4   9.47201E+3
  -3.03931E+4   9.39132E+3
  -3.00903E+4   9.38455E+3
  -2.98718E+4   9.31985E+3
  -2.95590E+4   9.32002E+3
  -2.93117E+4   9.35061E+3
  -2.91635E+4   9.30776E+3
  -2.89845E+4   9.27742E+3
  -2.87402E+4   9.21380E+3
  -2.85696E+4   9.16473E+3
  -2.83059E+4   9.10364E+3
  -2.80736E+4   9.04146E+3
  -2.78119E+4   9.06288E+3
  -2.76419E+4   9.06102E+3
  -2.74179E+4   9.04352E+3
  -2.72696E+4   8.98510E+3
  -2.70271E+4   8.90234E+3
  -2.68162E+4   8.84638E+3
  -2.65982E+4   8.80443E+3
  -2.64308E+4   8.71849E+3
  -2.62474E+4   8.73198E+3
  -2.59547E+4   8.59499E+3
  -2.56668E+4   8.61888E+3
  -2.55383E+4   8.59348E+3
  -2.53935E+4   8.50023E+3
  -2.51759E+4   8.49754E+3
  -2.48821E+4   8.49629E+3
  -2.47841E+4   8.43109E+3
  -2.45207E+4   8.39637E+3
  -2.44193E+4   8.26442E+3
  -2.41715E+4   8.27466E+3
  -2.39506E+4   8.23082E+3
  -2.37289E+4   8.18763E+3
  -2.34915E+4   8.12567E+3
  -2.33391E+4   8.06355E+3
  -2.31047E+4   8.07021E+3
  -2.29649E+4   8.02461E+3
  -2.28567E+4   7.99907E+3
  -2.26147E+4   7.88981E+3
  -2.23716E+4   7.84355E+3
  -2.21783E+4   7.76608E+3
  -2.20451E+4   7.77524E+3
  -2.18983E+4   7.64292E+3
  -2.16491E+4   7.65017E+3
  -2.15229E+4   7.49872E+3
  -2.14400E+4   7.37558E+3
  -2.11365E+4   7.28039E+3
  -2.09827E+4   7.27781E+3
  -2.07871E+4   7.26624E+3
  -2.06076E+4   7.23466E+3
  -2.05309E+4   7.15992E+3
  -2.04060E+4   6.97992E+3
  -2.02315E+4   6.95241E+3
  -1.99786E+4   6.91983E+3
  -1.98228E+4   6.84209E+3
  -1.96868E+4   6.71655E+3
  -1.94806E+4   6.70324E+3
  -1.93291E+4   6.63090E+3
  -1.91731E+4   6.58171E+3
  -1.90523E+4   6.43260E+3
  -1.88943E+4   6.38148E+3
  -1.86632E+4   6.23966E+3
  -1.85132E+4   6.20083E+3
  -1.83680E+4   6.16775E+3
  -1.82518E+4   6.07219E+3
  -1.81698E+4   5.98046E+3
  -1.79544E+4   5.87043E+3
  -1.78392E+4   5.88605E+3
  -1.76170E+4   5.75120E+3
  -1.75414E+4   5.66072E+3
  -1.73414E+4   5.56081E+3
  -1.71759E+4   5.54383E+3
  -1.70888E+4   5.51121E+3
  -1.69709E+4   5.37418E+3
  -1.68212E+4   5.30637E+3
  -1.66623E+4   5.20083E+3
  -1.64893E+4   5.19421E+3
  -1.64191E+4   5.09403E+3
  -1.63253E+4   4.96896E+3
  -1.61061E+4   4.96710E+3
  -1.60544E+4   4.88712E+3
  -1.59247E+4   4.77275E+3
  -1.57871E+4   4.70120E+3
  -1.56074E+4   4.66349E+3
  -1.54994E+4   4.60109E+3
  -1.54194E+4   4.53352E+3
  -1.52881E+4   4.49086E+3
  -1.51482E+4   4.30483E+3
  -1.50012E+4   4.31089E+3
  -1.48722E+4   4.23640E+3
  -1.48445E+4   4.11843E+3
  -1.46298E+4   4.07872E+3
  -1.44983E+4   4.04119E+3
  -1.44120E+4   3.98137E+3
  -1.43990E+4   3.86086E+3
  -1.42104E+4   3.79866E+3
  -1.41192E+4   3.77139E+3
  -1.39574E+4   3.68511E+3
  -1.39543E+4   3.64982E+3
  -1.37209E+4   3.67168E+3
  -1.37017E+4   3.53367E+3
  -1.35888E+4   3.46484E+3
  -1.34349E+4   3.45182E+3
  -1.33640E+4   3.40614E+3
  -1.32821E+4   3.38950E+3
  -1.31357E+4   3.22658E+3
  -1.31430E+4   3.15739E+3
  -1.29086E+4   3.14641E+3
  -1.28969E+4   3.09298E+3
  -1.27733E+4   3.04577E+3
  -1.26871E+4   2.95672E+3
  -1.25961E+4   2.92734E+3
  -1.25172E+4   2.81418E+3
  -1.24922E+4   2.81444E+3
  -1.23771E+4   2.75497E+3
  -1.22285E+4   2.70566E+3
  -1.22162E+4   2.67491E+3
  -1.20404E+4   2.66399E+3
  -1.20464E+4   2.58233E+3
  -1.19203E+4   2.51358E+3
  -1.17485E+4   2.50281E+3
  -1.17512E+4   2.46500E+3
  -1.16567E+4   2.47437E+3
  -1.16191E+4   2.37136E+3
  -1.15267E+4   2.32055E+3
  -1.14341E+4   2.32515E+3
  -1.13510E+4   2.28955E+3
  -1.12324E+4   2.24704E+3
  -1.11523E+4   2.17118E+3
  -1.10105E+4   2.16419E+3
  -1.10304E+4   2.14531E+3
  -1.09460E+4   2.11653E+3
  -1.08759E+4   2.10037E+3
  -1.08258E+4   2.10473E+3
  -1.07264E+4   2.03111E+3
  -1.05676E+4   1.99681E+3
  -1.05236E+4   1.99433E+3
  -1.04850E+4   1.92096E+3
  -1.04250E+4   1.95387E+3
  -1.03681E+4   1.91805E+3
  -1.02846E+4   1.85313E+3
  -1.02288E+4   1.84757E+3
  -1.01147E+4   1.87205E+3
  -1.00319E+4   1.78105E+3
  -1.00078E+4   1.81223E+3
  -9.92758E+3   1.79840E+3
  -9.90357E+3   1.77048E+3
  -9.78887E+3   1.72941E+3
  -9.71883E+3   1.70368E+3
  -9.67463E+3   1.72556E+3
  -9.58650E+3   1.71272E+3
  -9.52404E+3   1.65401E+3
  -9.45635E+3   1.69812E+3
  -9.44436E+3   1.60043E+3
  -9.37026E+3   1.61597E+3
  -9.31645E+3   1.54611E+3
  -9.18728E+3   1.60956E+3
  -9.16539E+3   1.60894E+3
  -9.10438E+3   1.54029E+3
  -9.05736E+3   1.53293E+3
  -8.96892E+3   1.54700E+3
  -8.95439E+3   1.52977E+3
  -8.85456E+3   1.50470E+3
  -8.74545E+3   1.43863E+3
  -8.77877E+3   1.49084E+3
  -8.66652E+3   1.51053E+3
  -8.61052E+3   1.48431E+3
  -8.52418E+3   1.51017E+3
  -8.53869E+3   1.50898E+3
  -8.37006E+3   1.45379E+3
  -8.33842E+3   1.44225E+3
  -8.31307E+3   1.44181E+3
  -8.26584E+3   1.38225E+3
  -8.19948E+3   1.40264E+3
  -8.15567E+3   1.44084E+3
  -8.03445E+3   1.45767E+3
  -8.04429E+3   1.41629E+3
  -8.01034E+3   1.32062E+3
  -7.96086E+3   1.38160E+3
  -7.87739E+3   1.40054E+3
  -7.82932E+3   1.40477E+3
  -7.76709E+3   1.34891E+3
  -7.71313E+3   1.34095E+3
  -7.62854E+3   1.37294E+3
  -7.57621E+3   1.35043E+3
  -7.53754E+3   1.38624E+3
  -7.46568E+3   1.33599E+3
  -7.48379E+3   1.33175E+3
  -7.38552E+3   1.34896E+3
  -7.33264E+3   1.38082E+3
  -7.27639E+3   1.29754E+3
  -7.14539E+3   1.30940E+3
  -7.16889E+3   1.39619E+3
  -7.05666E+3   1.34314E+3
  -7.10219E+3   1.29454E+3
  -7.00428E+3   1.29651E+3
  -6.98880E+3   1.28908E+3
  -6.85737E+3   1.30232E+3
  -6.80917E+3   1.27671E+3
  -6.80765E+3   1.28838E+3
  -6.77029E+3   1.32520E+3
  -6.68606E+3   1.33115E+3
  -6.66803E+3   1.28277E+3
  -6.59122E+3   1.27858E+3
  -6.54078E+3   1.27879E+3
  -6.41140E+3   1.29461E+3
  -6.41583E+3   1.27440E+3
  -6.39484E+3   1.32835E+3
  -6.34029E+3   1.28500E+3
  -6.27136E+3   1.25196E+3
  -6.21517E+3   1.28803E+3
  -6.25145E+3   1.24230E+3
  -6.18944E+3   1.32055E+3
  -6.06143E+3   1.27596E+3
  -6.00230E+3   1.25665E+3
  -5.97793E+3   1.23855E+3
  -5.92500E+3   1.28249E+3
  -5.92404E+3   1.24284E+3
  -5.84230E+3   1.18531E+3
  -5.78999E+3   1.25656E+3
  -5.78229E+3   1.26404E+3
  -5.69998E+3   1.27878E+3
  -5.61985E+3   1.15475E+3
  -5.60838E+3   1.24761E+3
  -5.63912E+3   1.23780E+3
  -5.54496E+3   1.31490E+3
  -5.48423E+3   1.21830E+3
  -5.46566E+3   1.22104E+3
  -5.36597E+3   1.22204E+3
  -5.36767E+3   1.24475E+3
  -5.30933E+3   1.17318E+3
  -5.29314E+3   1.22166E+3
  -5.21429E+3   1.21167E+3
  -5.22258E+3   1.19872E+3
  -5.18142E+3   1.16827E+3
  -5.13427E+3   1.19968E+3
  -5.11548E+3   1.14880E+3
  -5.05917E+3   1.16436E+3
  -4.99178E+3   1.24768E+3
  -4.98694E+3   1.17325E+3
  -5.00343E+3   1.17315E+3
  -4.90134E+3   1.22790E+3
  -4.83875E+3   1.20841E+3
  -4.79029E+3   1.15451E+3
  -4.71834E+3   1.13028E+3
  -4.74166E+3   1.12048E+3
  -4.68215E+3   1.13735E+3
  -4.70150E+3   1.13423E+3
  -4.62827E+3   1.11925E+3
  -4.58614E+3   1.08192E+3
  -4.54937E+3   1.12268E+3
  -4.53030E+3   1.12475E+3
  -4.48547E+3   1.14806E+3
  -4.47022E+3   1.04751E+3
  -4.39744E+3   1.11971E+3
  -4.35050E+3   1.11239E+3
  -4.30512E+3   1.05536E+3
  -4.27678E+3   1.00113E+3
  -4.21806E+3   1.09418E+3
  -4.24233E+3   1.08795E+3
  -4.21077E+3   1.07074E+3
