 
 $NMID
 ID=''
 FMTDAT='(2E13.5)'
 TRAMP=   1.00000E+0
 VOLUME=   1.00000E+0
 $END
   1.51270E+2  -4.73977E+2
  -6.44304E+2   1.39479E+3
   1.48851E+3  -2.83124E+3
   1.27757E+2   1.21656E+3
   3.55627E+2   1.48506E+3
   2.60194E+3   3.92886E+1
   2.80257E+1  -1.55404E+2
  -1.42064E+3  -1.70538E+3
  -6.18607E+2  -3.72275E+3
  -4.28338E+1  -2.05987E+3
   1.24927E+3  -1.35916E+3
   1.16419E+3   2.26666E+3
  -3.15458E+3   3.36690E+3
  -1.44543E+3   1.29233E+3
  -2.30644E+3   1.84465E+3
   1.33318E+3   2.58140E+2
   2.18080E+3   9.51014E+2
   1.98291E+3  -8.40916E+2
   2.36896E+3   3.31891E+2
   1.47239E+3  -5.18619E+2
   2.33368E+3   5.58083E+2
   1.38042E+3   1.03165E+3
  -4.23791E+3   9.43303E+2
  -3.08105E+3  -3.96424E+3
   2.39364E+3  -3.90705E+2
   2.98938E+3   1.68662E+3
  -3.91777E+3   9.87561E+2
  -1.31906E+3  -2.07162E+3
   3.59021E+3  -2.24431E+3
   3.37138E+3  -4.15915E+2
   3.76461E+3   4.05567E+3
  -3.32743E+3   1.61034E+3
  -1.93339E+3  -2.89916E+3
   5.77766E+2  -2.76289E+3
   6.27821E+2  -3.40410E+3
  -1.08165E+3  -4.09662E+3
   1.19366E+3  -3.32897E+3
   2.12265E+3  -8.62923E+2
   5.02764E+2  -1.99459E+3
  -1.07116E+3  -1.14179E+3
  -5.28594E+3   1.89690E+2
  -6.83407E+3  -3.02411E+3
  -1.10635E+3  -5.68110E+3
   2.59526E+3  -1.81261E+3
   7.78485E+2   3.63225E+2
  -2.95382E+2   2.40477E+3
   4.16694E+2   4.55376E+3
  -1.20623E+3   7.25858E+3
  -1.25953E+3   4.87640E+3
  -8.62016E+2   8.84098E+2
   2.94312E+2   3.77061E+2
   5.46368E+1  -2.96649E+3
   3.14852E+3  -4.76046E+2
   4.46230E+2   4.78770E+3
  -9.36040E+2   5.53779E+2
  -7.24115E+2   1.29518E+3
  -2.67571E+3  -1.47619E+2
  -2.38543E+3  -3.76994E+2
  -1.01035E+3  -3.29199E+3
   1.78171E+3  -3.12150E+2
   4.66134E+3   2.14104E+3
   1.18906E+3   4.04720E+3
  -1.29991E+3   4.86805E+3
  -1.47543E+3   9.71660E+2
  -5.19294E+2   1.24858E+3
   2.79320E+3   1.71360E+3
  -2.40656E+3   3.56502E+3
  -2.58240E+3   1.30739E+3
  -1.07325E+3  -4.78683E+2
  -6.15393E+2   9.95350E+2
  -2.70654E+2  -3.03796E+3
  -1.69753E+3  -2.35540E+3
  -1.64492E+3  -3.73640E+3
  -4.10169E+2  -3.26123E+3
   1.91639E+3  -3.12246E+3
  -7.75283E+2  -3.55729E+2
  -1.43487E+2  -3.07749E+2
   3.56924E+1  -1.59892E+3
   8.23104E+2  -9.50609E+2
   3.12875E+3   2.01715E+3
  -6.63952E-1   1.25580E+3
  -6.06362E+2  -5.86219E+2
   2.51309E+3   1.14677E+3
   1.95265E+3   2.15646E+3
   2.99799E+2  -1.45535E+3
  -3.27508E+2  -1.39173E+3
  -4.81273E+2  -4.54750E+3
   2.66379E+3  -2.38767E+3
   1.82206E+3  -2.38992E+2
   2.10651E+3   5.82246E+2
  -3.88432E+2  -2.57225E+3
  -1.08861E+2  -6.96631E+2
   8.88448E+2   2.73257E+3
  -1.15688E+3  -1.75656E+2
  -2.77648E+3  -9.55117E+2
   3.11297E+2  -2.44466E+3
   1.78356E+3  -2.19217E+3
   1.35817E+3   1.45077E+2
   2.46003E+2   8.72242E+2
  -6.49894E+2  -2.72340E+3
   4.50226E+3  -2.13289E+3
   2.98085E+3   1.95969E+2
   2.26570E+3   1.41828E+3
  -2.22248E+3   2.31675E+3
   3.95343E+1   1.39686E+3
  -9.54250E+2   1.28913E+3
  -1.80509E+3  -2.16601E+3
   4.32213E+2  -1.51635E+3
  -1.60541E+3  -1.86682E+3
   3.27524E+2  -2.77652E+3
   1.53733E+3  -9.20630E+2
   2.05554E+2   1.52584E+3
   7.78701E+2   4.43471E+2
   8.82639E+2   1.74673E+3
  -2.65805E+3   1.62854E+3
  -3.30507E+3   7.78503E+2
  -2.15361E+3  -9.49267E+2
  -2.64848E+2  -7.58449E+2
   1.08968E+3   1.02989E+1
   8.95221E+2   3.17526E+3
  -1.78830E+3   1.95910E+3
  -2.60971E+3  -8.11650E+2
  -2.48627E+3   3.23031E+2
  -9.92615E+2  -3.91312E+2
  -3.12781E+1   1.93747E+3
  -7.05393E+2   1.66394E+3
   4.05857E+2   2.83823E+2
   1.66731E+2   1.46326E+3
  -1.71433E+3  -1.01505E+3
  -1.76952E+3  -6.52396E+2
   6.69391E+2  -7.17582E+2
   4.96759E+2  -3.50757E+3
   3.58816E+3  -2.67154E+3
   1.97905E+3  -1.91418E+2
  -2.19176E+2   4.33811E+2
   2.47722E+2   1.45949E+3
  -2.62310E+3  -4.10125E+2
  -1.68979E+2   1.12380E+3
   7.70322E+2   7.96784E+2
   3.40110E+1   5.49013E+2
  -9.75030E+0   2.61610E+2
   3.22838E+3  -1.94424E+3
   1.27559E+3   1.61346E+3
   7.08141E+2   2.51494E+3
  -6.36521E+2   1.49287E+3
   1.11893E+3   1.11780E+3
  -6.10206E+2   1.37889E+3
  -2.31927E+3  -6.04433E+2
   4.78793E+2   4.57705E+1
  -1.34661E+3   2.21647E+2
  -1.89849E+3  -1.00847E+2
  -1.62515E+2  -1.80888E+3
  -4.97726E+1  -1.56774E+3
   7.59777E+2  -2.13297E+2
   1.06184E+3   4.65286E+2
  -8.52712E+2  -3.53019E+2
   1.67827E+3  -1.11874E+3
   1.72879E+3   1.03222E+3
   2.73943E+3   8.62463E+2
   9.81101E+2   7.12924E+2
   1.83763E+2   5.98256E+2
   3.33909E+2   1.51775E+3
   1.26504E+3   7.05259E+2
   2.01652E+3  -8.34374E+2
   7.46480E+2   2.81824E+2
  -9.25317E+2   2.00529E+2
   2.11021E+3   9.20150E+2
   2.83853E+3   6.34811E+2
   2.19887E+3   7.01559E+2
  -5.33721E+2   3.31227E+3
  -1.04808E+2   1.59866E+3
  -4.91359E+2  -6.61361E+1
  -1.47009E+3   2.02827E+3
  -1.01641E+3   5.96415E+2
   2.26820E+3  -4.09229E+2
   7.96477E+2  -5.10270E+2
  -1.34477E+1  -2.20360E+0
   2.73247E+2  -2.82631E+2
   2.31653E+2   4.11768E+2
   1.25217E+2   9.28755E+2
   1.63937E+2  -1.39876E+3
  -1.18915E+3  -2.17228E+3
   1.31418E+3  -2.75275E+3
  -8.56574E+2  -6.23915E+2
   1.30480E+3  -1.29456E+3
   6.06505E+2   1.69772E+3
  -2.08281E+3   2.48102E+2
   2.67607E+2   6.36733E+2
   1.23609E+3  -2.35782E+3
   5.61093E+2  -1.49329E+3
   3.12278E+3  -1.41766E+3
   1.11454E+3   3.87791E+2
  -6.89521E+2   6.01960E+2
  -1.00000E+3  -1.19056E+3
   1.23267E+1   5.52868E+2
   1.49895E+3   2.95841E+3
   2.38482E+2   3.04458E+2
  -2.45925E+3  -1.41678E+3
  -3.10408E+2   3.47813E+2
   5.04103E+2   1.50217E+3
  -1.45744E+2   2.80266E+3
  -1.94466E+3  -7.12842E+1
   7.14276E+2  -7.00110E+2
   9.63037E+2   1.51255E+2
   8.29030E+2  -1.46294E+2
   3.51997E+1   1.64347E+3
  -1.19191E+3  -6.18988E+2
  -5.29166E+2  -7.04867E+2
   3.82171E+1   1.66682E+3
  -1.13341E+3  -2.70768E+2
  -5.00679E+2   1.63296E+3
  -4.47223E-1   1.10914E+2
   1.79425E+2  -1.21905E+3
   1.39447E+2   8.67422E+2
  -1.25123E+3  -1.46612E+2
  -8.21393E+2  -1.31476E+3
  -8.15602E+2  -4.77033E+2
   3.58010E+2   4.01840E+2
   5.44761E+2   1.24283E+3
  -7.92507E+2   5.06668E+2
  -9.39079E+2  -2.21776E+3
  -2.24826E+2   2.82742E+2
   3.78977E+2   3.57764E+2
  -1.63418E+3   4.11390E+2
  -1.58736E+3  -4.59435E+2
  -2.04368E+1   1.78458E+2
   4.60860E+2   3.45324E+3
  -5.73020E+2   8.44702E+2
  -4.12894E+2  -5.00559E+2
  -1.43303E+3   7.37502E+2
   1.19753E+2   2.57602E+2
  -7.52800E+1  -9.42397E+2
  -2.32314E+3   1.64526E+2
  -1.27513E+3  -3.65152E+2
   1.80811E+3  -1.29544E+2
  -3.85794E+2   1.90636E+3
   4.76811E+2   2.54437E+2
  -2.05070E+3   2.90943E+2
  -6.10710E+2  -6.36662E+2
   6.95991E+2   1.11097E+3
  -8.89027E+2   3.74442E+2
  -3.27944E+2   1.10508E+3
  -1.76481E+3   4.83890E+2
  -8.61493E+2  -2.13943E+1
  -9.64310E+1  -3.01206E+3
   1.24884E+3  -1.15867E+3
  -2.08257E+2   6.35545E+2
   1.27826E+3  -4.55328E+1
  -1.94257E+2  -8.39484E+2
   1.27235E+3  -5.06918E+2
  -8.39803E+2   2.50419E+2
  -8.82439E+2  -4.44868E+2
  -6.92367E+2  -1.81045E+3
  -1.71127E+2   1.10395E+3
   4.36458E+2   2.80826E+1
   1.35340E+3   1.96460E+3
   5.85162E+1   8.23672E+0
  -7.39977E+2   1.46676E+3
  -4.39812E+2   2.18466E+3
  -6.93899E+2   2.21285E+3
  -2.67112E+2  -2.26710E+2
   5.37491E+2  -3.04764E+2
   8.34428E+2  -4.69013E+2
  -4.18508E+2  -6.22747E+2
  -1.84653E+3  -2.04515E+2
  -1.56198E+2   8.97315E+2
   1.31112E+3   2.04595E+2
   1.61082E+3   1.01422E+3
   5.07974E+1   2.36004E+2
  -8.65789E+2   1.15131E+3
   2.16874E+3   6.76491E+2
   2.27290E+3   1.30930E+3
   4.13122E+2   1.29693E+3
   1.11716E+3   1.26433E+3
  -4.32572E+2   1.07310E+2
  -4.48863E+2  -1.04408E+2
  -7.97181E+2   1.26828E+3
   7.71225E+2  -7.63722E+2
   1.31694E+3  -1.06619E+3
  -2.78186E+2   8.85638E+2
  -4.43143E+2   1.77426E+2
   9.54783E+2   8.59857E+2
   4.42728E+1  -7.71351E+2
  -3.80967E+2  -1.59072E+3
   1.50574E+2   8.12479E+1
   4.14083E+2  -7.96021E+2
  -1.77246E+3  -7.66051E+2
  -2.31551E+3   5.75487E+1
   1.70372E+3  -1.84771E+2
  -2.05034E+3  -1.74914E+2
   1.87560E+2  -7.43083E+2
  -6.20536E+2  -8.68778E+2
  -9.83312E+1  -9.92364E+2
  -8.18370E+2  -5.83418E+2
  -1.26255E+3   4.25376E+2
   1.59382E+1   1.41231E+3
  -9.03192E+1  -2.51496E+2
   1.42053E+3   1.51560E+2
  -1.35023E+2  -5.64365E+2
   4.43094E+2   4.37017E+2
  -3.36249E+2  -2.27393E+3
   7.76215E+2   6.53445E+2
   2.70690E+2   2.81641E+2
   9.78963E+2   5.73251E+2
  -1.51903E+3  -9.36563E+2
   4.00497E+2  -1.66363E+3
  -3.48486E+2   1.65994E+3
  -5.36040E+2   1.41236E+2
   2.40428E+3  -1.39599E+3
   8.91053E+2  -9.87917E+2
  -1.13246E+3   4.50318E+2
   1.20676E+3  -2.29569E+2
   7.60648E+2   4.81941E+2
   3.51779E+2  -1.55850E+3
   1.93895E+2   4.30193E+2
   1.71908E+3  -7.59539E+2
   1.16730E+2  -5.97879E+2
  -2.11184E+3   6.48468E+2
  -1.20671E+3  -9.01624E+2
  -2.28391E+2   3.07366E+2
   4.17441E+2  -7.41739E+2
  -1.09856E+3   1.05082E+3
  -2.11855E+3  -8.08061E+2
  -2.51999E+2  -2.19631E+2
  -6.09994E+2  -3.14880E+2
   8.00164E+1   1.16112E+3
  -2.24080E+3  -6.56542E+2
   1.66751E+3  -1.22620E+3
   1.01635E+3   1.12446E+1
   1.36181E+3   5.61648E+2
   1.63244E+3  -1.91024E+3
   1.68381E+3  -5.35797E+2
  -1.61478E+2  -2.53249E+2
  -1.08068E+2   1.02803E+3
   1.44079E+3  -7.91533E+2
  -7.66214E+2  -8.92875E+2
  -1.14997E+1   1.99422E+2
   3.32736E+2  -6.16229E+2
  -4.33830E+0  -5.29471E+2
  -3.43781E+2   2.03584E+3
  -9.90067E+2   8.10246E+1
  -2.09118E+2   7.13236E+2
   1.11887E+3  -7.98078E+2
   9.51190E+2   5.10236E+2
   8.70186E+2  -1.14266E+3
   3.74131E+2  -1.19917E+2
  -1.01895E+3  -1.14270E+3
  -8.28764E+2  -8.88991E+2
  -7.68250E+2   9.44011E+2
  -8.13278E+2   4.20750E+2
  -9.93399E+2  -2.50781E+3
   1.11488E+3   9.73658E+2
   1.24143E+3   2.89853E+2
  -6.36485E+2   3.99198E+2
  -5.02798E+2  -3.74263E+2
   1.80771E+3   2.97121E+2
  -5.17574E+2  -4.86859E+2
  -9.03594E+2   8.48501E+2
  -2.64276E+2   7.10727E+2
  -1.05251E+3  -9.17476E+2
  -9.60791E+2   1.58572E+3
  -1.71650E+2  -1.28720E+3
  -6.77847E+2   5.67031E+2
  -6.19305E+2   8.35679E+2
  -1.78318E+2   6.63840E+2
   2.03508E+3  -6.82792E+2
   2.73238E+2   1.63035E+2
