 LCModel (Version 6.3-1N) Copyright: S.W. Provencher.          Ref.: Magn. Reson. Med. 30:672-679 (1993).                
 Slice_N1@14_15  02-Jun-2023 14:37:01
 27 lines in following concentration table = NCONC+1
    Conc.  %SD /Cr+PCr  Metabolite                                         
 2.43E-06  14% 3.4E-04 Mac                                                 
 3.72E-02  23%   5.150 Cr                                                  
 2.06E-02  43%   2.850 PCr                                                 
 9.00E-02   9%  12.460 Ins                                                 
 9.23E-02   7%  12.775 NAA                                                 
 3.86E-02  18%   5.350 Tau                                                 
 1.35E-02  28%   1.871 PCho                                                
 2.64E-03 151%   0.366 GPC                                                 
 6.29E-02  14%   8.702 Glu                                                 
 1.54E-02  39%   2.126 Gln                                                 
    0.000 999%   0.000 Ala                                                 
 3.23E-02  37%   4.473 Asc                                                 
 1.41E-02  55%   1.948 Asp                                                 
 1.80E-02  22%   2.485 GABA                                                
 1.07E-02  49%   1.488 Glc                                                 
 3.98E-03  80%   0.550 GSH                                                 
    0.000 999%   0.000 Lac                                                 
 1.74E-02  24%   2.402 NAAG                                                
    0.000 999%   0.000 PE                                                  
 1.62E-02  12%   2.236 GPC+PCho                                            
    0.110   7%  15.178 NAA+NAAG                                            
 7.82E-02  13%  10.828 Glu+Gln                                             
 5.78E-02   9%   8.000 Cr+PCr                                              
    0.110   7%  15.178 NAA+NAAG                                            
 5.78E-02   9%   8.000 Cr+PCr                                              
 7.82E-02  13%  10.828 Glu+Gln                                             
   6 lines in following misc. output table
  FWHM = 0.017 ppm    S/N =   6                                            
  Data shift = 0.012 ppm                                                   
  Ph: -60 deg      -7.4 deg/ppm                                            
  alphaB,S = 3.4E+00,   7.1E+00                                            
   18 spline knots.   Ns = 5(1)                                            
  ( 6) 2 infls.   ( 2) 2 extrs.                                            
  654 points on ppm-axis = NY
      4.000000     3.994181     3.988363     3.982544     3.976726     3.970907     3.965088     3.959270     3.953451     3.947633
      3.941814     3.935995     3.930177     3.924358     3.918540     3.912721     3.906902     3.901084     3.895265     3.889446
      3.883628     3.877809     3.871991     3.866172     3.860353     3.854535     3.848716     3.842898     3.837079     3.831260
      3.825442     3.819623     3.813805     3.807986     3.802167     3.796349     3.790530     3.784712     3.778893     3.773074
      3.767256     3.761437     3.755619     3.749800     3.743981     3.738163     3.732344     3.726526     3.720707     3.714888
      3.709070     3.703251     3.697433     3.691614     3.685795     3.679977     3.674158     3.668339     3.662521     3.656702
      3.650884     3.645065     3.639246     3.633428     3.627609     3.621791     3.615972     3.610153     3.604335     3.598516
      3.592698     3.586879     3.581060     3.575242     3.569423     3.563605     3.557786     3.551967     3.546149     3.540330
      3.534512     3.528693     3.522874     3.517056     3.511237     3.505419     3.499600     3.493781     3.487963     3.482144
      3.476326     3.470507     3.464688     3.458870     3.453051     3.447232     3.441414     3.435595     3.429777     3.423958
      3.418139     3.412321     3.406502     3.400684     3.394865     3.389046     3.383228     3.377409     3.371591     3.365772
      3.359953     3.354135     3.348316     3.342498     3.336679     3.330860     3.325042     3.319223     3.313405     3.307586
      3.301767     3.295949     3.290130     3.284312     3.278493     3.272674     3.266856     3.261037     3.255219     3.249400
      3.243581     3.237763     3.231944     3.226125     3.220307     3.214488     3.208670     3.202851     3.197032     3.191214
      3.185395     3.179577     3.173758     3.167939     3.162121     3.156302     3.150484     3.144665     3.138846     3.133028
      3.127209     3.121391     3.115572     3.109753     3.103935     3.098116     3.092298     3.086479     3.080660     3.074842
      3.069023     3.063205     3.057386     3.051567     3.045749     3.039930     3.034111     3.028293     3.022474     3.016656
      3.010837     3.005018     2.999200     2.993381     2.987563     2.981744     2.975925     2.970107     2.964288     2.958470
      2.952651     2.946832     2.941014     2.935195     2.929377     2.923558     2.917739     2.911921     2.906102     2.900284
      2.894465     2.888646     2.882828     2.877009     2.871191     2.865372     2.859553     2.853735     2.847916     2.842098
      2.836279     2.830460     2.824642     2.818823     2.813004     2.807186     2.801367     2.795549     2.789730     2.783911
      2.778093     2.772274     2.766456     2.760637     2.754818     2.749000     2.743181     2.737363     2.731544     2.725725
      2.719907     2.714088     2.708270     2.702451     2.696632     2.690814     2.684995     2.679177     2.673358     2.667539
      2.661721     2.655902     2.650084     2.644265     2.638446     2.632628     2.626809     2.620991     2.615172     2.609353
      2.603535     2.597716     2.591897     2.586079     2.580260     2.574442     2.568623     2.562804     2.556986     2.551167
      2.545349     2.539530     2.533711     2.527893     2.522074     2.516256     2.510437     2.504618     2.498800     2.492981
      2.487163     2.481344     2.475525     2.469707     2.463888     2.458070     2.452251     2.446432     2.440614     2.434795
      2.428977     2.423158     2.417339     2.411521     2.405702     2.399884     2.394065     2.388246     2.382428     2.376609
      2.370790     2.364972     2.359153     2.353335     2.347516     2.341697     2.335879     2.330060     2.324242     2.318423
      2.312604     2.306786     2.300967     2.295149     2.289330     2.283511     2.277693     2.271874     2.266056     2.260237
      2.254418     2.248600     2.242781     2.236963     2.231144     2.225325     2.219507     2.213688     2.207870     2.202051
      2.196232     2.190414     2.184595     2.178777     2.172958     2.167139     2.161321     2.155502     2.149683     2.143865
      2.138046     2.132228     2.126409     2.120590     2.114772     2.108953     2.103135     2.097316     2.091497     2.085679
      2.079860     2.074042     2.068223     2.062404     2.056586     2.050767     2.044949     2.039130     2.033311     2.027493
      2.021674     2.015856     2.010037     2.004218     1.998400     1.992581     1.986763     1.980944     1.975126     1.969307
      1.963489     1.957670     1.951852     1.946033     1.940215     1.934397     1.928578     1.922760     1.916941     1.911123
      1.905304     1.899486     1.893667     1.887849     1.882030     1.876212     1.870393     1.864575     1.858756     1.852938
      1.847119     1.841301     1.835482     1.829664     1.823845     1.818027     1.812208     1.806390     1.800571     1.794753
      1.788934     1.783116     1.777297     1.771479     1.765660     1.759842     1.754023     1.748205     1.742386     1.736568
      1.730749     1.724931     1.719113     1.713294     1.707476     1.701657     1.695839     1.690020     1.684202     1.678383
      1.672565     1.666746     1.660928     1.655109     1.649291     1.643472     1.637654     1.631835     1.626017     1.620198
      1.614380     1.608561     1.602743     1.596924     1.591106     1.585287     1.579469     1.573650     1.567832     1.562013
      1.556195     1.550376     1.544558     1.538739     1.532921     1.527102     1.521284     1.515465     1.509647     1.503829
      1.498010     1.492192     1.486373     1.480555     1.474736     1.468918     1.463099     1.457281     1.451462     1.445644
      1.439825     1.434007     1.428188     1.422370     1.416551     1.410733     1.404914     1.399096     1.393277     1.387459
      1.381640     1.375822     1.370003     1.364185     1.358366     1.352548     1.346729     1.340911     1.335092     1.329274
      1.323455     1.317637     1.311818     1.306000     1.300182     1.294363     1.288545     1.282726     1.276908     1.271089
      1.265271     1.259452     1.253634     1.247815     1.241997     1.236178     1.230360     1.224541     1.218723     1.212904
      1.207086     1.201267     1.195449     1.189630     1.183812     1.177993     1.172175     1.166356     1.160538     1.154719
      1.148901     1.143082     1.137264     1.131445     1.125627     1.119808     1.113990     1.108171     1.102353     1.096534
      1.090716     1.084898     1.079079     1.073261     1.067442     1.061624     1.055805     1.049987     1.044168     1.038350
      1.032531     1.026713     1.020894     1.015076     1.009257     1.003439     0.997620     0.991802     0.985983     0.980165
      0.974346     0.968528     0.962709     0.956891     0.951072     0.945254     0.939435     0.933617     0.927798     0.921980
      0.916161     0.910343     0.904524     0.898706     0.892887     0.887069     0.881251     0.875432     0.869614     0.863795
      0.857977     0.852158     0.846340     0.840521     0.834703     0.828884     0.823066     0.817247     0.811429     0.805610
      0.799792     0.793973     0.788155     0.782336     0.776518     0.770699     0.764881     0.759062     0.753244     0.747425
      0.741607     0.735788     0.729970     0.724151     0.718333     0.712514     0.706696     0.700877     0.695059     0.689240
      0.683422     0.677603     0.671785     0.665967     0.660148     0.654330     0.648511     0.642693     0.636874     0.631056
      0.625237     0.619419     0.613600     0.607782     0.601963     0.596145     0.590326     0.584508     0.578689     0.572871
      0.567052     0.561234     0.555415     0.549597     0.543778     0.537960     0.532141     0.526323     0.520504     0.514686
      0.508867     0.503049     0.497230     0.491412     0.485593     0.479775     0.473956     0.468138     0.462319     0.456501
      0.450682     0.444864     0.439045     0.433227     0.427408     0.421590     0.415771     0.409953     0.404134     0.398316
      0.392497     0.386679     0.380860     0.375042     0.369223     0.363405     0.357586     0.351767     0.345949     0.340130
      0.334312     0.328493     0.322675     0.316856     0.311038     0.305219     0.299401     0.293582     0.287764     0.281945
      0.276127     0.270308     0.264490     0.258671     0.252853     0.247034     0.241216     0.235397     0.229579     0.223760
      0.217942     0.212123     0.206305     0.200486
 NY phased data points follow
  -2.81077E-01  2.70453E-01 -6.90645E-02 -1.01861E-01 -3.93254E-02  4.52914E-02 -2.28312E-01 -3.11710E-01 -2.35786E-01  1.50499E-01
  -1.13002E-01 -1.51986E-01  6.63696E-01  1.85653E-01  3.61668E-01  4.47938E-01  3.58905E-01  2.91778E-01  7.54442E-02 -3.81351E-01
   8.60663E-02  1.99146E-01  7.81724E-02  1.85980E-01 -2.28194E-01  2.52049E-01 -3.36848E-01 -1.60357E-01  2.79208E-02  1.30928E-02
   1.57568E-01  2.56511E-01  6.90750E-02 -1.45814E-01  1.64966E-02 -3.93851E-01 -8.96400E-02 -3.62673E-01 -3.74079E-01 -3.41580E-01
  -2.31380E-01 -1.81551E-03  9.77296E-02 -5.00566E-02  3.13206E-01  5.67737E-01  1.98710E-01  5.14825E-01  2.86190E-01  3.07163E-01
   4.36662E-02  1.84834E-01  1.16780E-01 -1.43526E-01 -2.22291E-03 -1.72229E-01 -1.27871E-01 -2.21319E-01 -1.66299E-01 -4.25152E-01
  -3.92715E-01 -1.32084E-01 -5.00907E-01 -2.86179E-01 -9.84840E-02 -3.26012E-01  1.08892E-01  1.75716E-01  3.98049E-01  3.45270E-02
   3.61218E-01  6.07914E-01 -2.68747E-01  1.21552E-01  5.55346E-02 -3.83851E-02 -2.14924E-01 -5.98238E-01 -3.77743E-01 -4.06942E-01
  -9.08218E-01 -2.63947E-01  2.88353E-01  2.73189E-01  7.83890E-01  7.67347E-01  5.57831E-01  2.51025E-01  4.69696E-01  1.68846E-01
   7.21177E-02  2.34023E-01  2.53101E-02  4.40040E-01  2.01744E-01 -1.54630E-01 -4.19154E-02 -1.02263E-01  1.23545E-02  2.22138E-01
  -9.57561E-02 -2.91454E-01  8.72763E-03  4.71056E-02  1.93154E-01  3.35477E-01  4.10890E-01  4.35741E-01  2.24487E-01  3.13118E-01
   5.51495E-02  2.80248E-01  4.49325E-01  4.99104E-01  5.49311E-01  1.20640E-02  1.61799E-01  2.38375E-01  1.33181E-01  1.79393E-02
   1.21111E-01 -4.04441E-03 -2.48311E-01 -6.65618E-02 -5.50396E-02 -6.05672E-01 -4.00427E-01 -1.04610E-01 -1.98183E-01 -9.58428E-02
  -5.15998E-01 -2.43268E-01 -5.00039E-01 -4.01710E-01 -1.51055E-01 -6.44696E-01 -9.96227E-01 -1.28244E+00 -8.05727E-01 -2.88167E-01
  -3.27452E-01 -8.36362E-02  2.66235E-01 -4.16796E-02 -5.49946E-02 -2.03792E-02  1.18313E-01 -2.51151E-01 -4.65522E-02  3.29949E-01
   1.74331E-01  1.06878E-01  6.84810E-02  3.77741E-01  2.42307E-01  4.70449E-01  4.15164E-01  4.30481E-01  2.90154E-01  3.80034E-01
   3.28745E-01  2.66025E-01  4.63606E-01  3.91916E-01  1.05416E+00  9.69386E-01  8.48839E-01  6.08273E-01 -4.77934E-01 -1.13888E+00
  -6.78545E-01 -8.45363E-01 -6.72722E-01 -3.78037E-01 -5.79104E-01 -4.10027E-01 -7.44809E-01 -3.55505E-01 -3.24721E-01 -4.58741E-01
  -6.48028E-01 -3.39394E-01  4.62191E-02 -4.26091E-01 -1.79128E-01 -2.61593E-01 -2.68213E-01 -2.06010E-01 -2.40646E-01  1.08392E-02
  -3.23083E-01 -4.11985E-01  8.69005E-02 -8.23795E-02 -6.50677E-01 -3.53972E-01 -4.42149E-01 -2.65979E-01  1.71420E-01 -4.04067E-01
   4.74530E-02 -1.25169E-01 -3.23706E-01  2.17161E-01 -1.45939E-02 -6.42779E-02  1.42049E-01 -5.17828E-02 -1.14458E-01  2.21349E-01
  -7.35484E-02 -4.41035E-02 -1.86384E-01  2.96177E-03  4.18264E-02  2.82054E-02  2.68623E-01 -8.30720E-02 -5.64612E-03 -1.59602E-01
  -1.51944E-01  4.71920E-02 -1.36240E-03  3.34092E-02  4.24843E-01  2.78754E-01  6.34524E-01  5.13958E-01  1.48227E-01  4.60363E-01
   5.33877E-01  5.75007E-01  1.43863E-01  1.88761E-01 -1.30052E-02  4.24191E-02 -7.21216E-02  5.96507E-02 -3.00971E-01 -2.34576E-01
   3.00007E-01 -1.86889E-01  8.73622E-02 -1.06112E-01  7.40030E-02 -2.30787E-02 -3.16911E-01 -1.81041E-01  4.69396E-02 -4.07576E-02
  -1.51982E-01 -1.51432E-01 -5.67274E-02  9.05599E-02 -1.06968E-01 -1.14182E-02 -2.39365E-01  1.10482E-01  4.52223E-02  1.05829E-01
   3.53627E-01  3.16860E-01  9.54180E-02 -3.86276E-03  1.40806E-01 -2.32441E-01 -1.45316E-03  3.08299E-01  4.57035E-01  2.63111E-01
   3.65708E-01  5.20257E-02 -1.75200E-02  3.95840E-01  4.77022E-02 -2.98221E-01 -2.12993E-01 -4.12224E-03 -1.88421E-02 -1.58830E-01
  -4.41660E-01 -2.06721E-01 -2.19611E-01 -1.80733E-01 -2.23696E-01  1.26351E-01  4.99269E-01  2.93646E-01  4.31448E-01  1.92304E-01
   1.95443E-01  1.83426E-01  1.60297E-01  1.92140E-01  2.36546E-01  1.61151E-01  8.95712E-02  3.51412E-01  2.67986E-01  4.36287E-01
   5.85254E-01  4.27277E-01  4.58635E-01  1.38130E-01  2.91484E-01  4.14527E-01  5.13262E-02  4.23629E-01  6.58566E-01  4.70913E-01
   2.67014E-01  9.56758E-02 -1.36814E-01  5.34173E-02  2.73746E-01  3.81518E-01  1.24895E-01 -1.35773E-01  1.27893E-01  2.33615E-02
   6.53745E-02 -1.10139E-01 -2.18935E-02 -2.97277E-01 -2.96433E-01  9.94534E-02  8.43035E-02  2.68336E-01 -8.58618E-02  1.45429E-01
   1.72984E-01 -1.03724E-01  9.04774E-02 -4.87776E-02 -1.56572E-01 -1.58461E-01 -3.84069E-01 -7.08050E-01 -7.96765E-01 -5.35969E-01
  -6.50152E-01 -7.91397E-01 -1.36885E+00 -2.35632E+00 -1.69081E+00 -5.95070E-01  1.06135E-01 -9.03192E-02 -1.15482E-01  1.18384E-01
  -6.01763E-03  2.39653E-01  1.24810E-02  3.90272E-01  1.73678E-02 -1.08050E-01  3.21807E-01 -9.00386E-02  1.68393E-01 -3.75565E-02
  -2.38948E-01  4.52837E-02 -5.32642E-02 -3.48872E-01 -1.87408E-01 -1.04354E-01 -2.52926E-01 -1.16724E-01 -1.59794E-01 -2.96120E-01
  -2.55819E-01  1.60037E-01  5.68748E-04  3.34433E-02  1.79862E-01 -2.18189E-02  2.45029E-01  2.57524E-02  1.22540E-01  1.22696E-01
   2.16209E-01  4.40939E-01  3.24877E-01  5.74325E-01 -8.33375E-02  9.33734E-02  6.45922E-01  1.87772E-01  5.08274E-01  6.08975E-01
   3.01538E-01  4.66688E-01  3.80856E-01  2.26708E-01  2.76452E-01  4.86571E-02  1.98413E-01  1.13531E-01 -1.14614E-01  7.36463E-02
   2.08225E-01  3.99708E-01  8.17642E-03  3.07183E-01  4.27513E-01 -1.54331E-01 -5.95428E-02  1.42480E-02  2.44684E-01 -2.61244E-02
  -1.61396E-01 -1.86685E-01 -1.20925E-01 -1.66074E-02 -2.53860E-01  1.73980E-01 -1.42143E-01 -3.23923E-01 -1.66410E-01 -3.02390E-01
  -1.07225E-01 -1.55028E-01 -9.91879E-02 -1.30901E-02 -4.19342E-02 -2.84301E-01 -2.10249E-01  1.37495E-01 -6.22174E-02 -1.02322E-01
   5.85430E-02 -1.13164E-02 -6.36243E-02 -4.41637E-01 -1.96493E-01  4.34310E-02 -3.98691E-01 -1.87102E-02  5.10085E-02 -3.24861E-01
  -1.95755E-01  1.73910E-01 -2.42576E-01 -2.47388E-01  4.82334E-01  1.83834E-01 -4.78773E-02 -6.27227E-03  1.75394E-01  2.53036E-01
   3.23966E-01  4.19805E-01  1.41079E-01 -6.18427E-02  1.22019E-01 -1.54274E-02 -2.19216E-01 -3.70348E-03 -2.66269E-01 -4.16793E-02
   5.19722E-02  2.46513E-01  4.08197E-01  5.13149E-02 -1.04220E-01 -1.44002E-01  2.15956E-01 -3.00226E-01 -8.63761E-02  1.58016E-01
  -3.75239E-01 -1.32365E-01 -2.33501E-01 -1.72022E-01 -2.26230E-01 -3.19442E-01 -1.09605E-01 -1.71840E-01  5.38091E-02  1.98469E-01
   1.86695E-01 -3.20123E-02 -2.10414E-01  1.40822E-01 -2.23383E-03 -6.25063E-02  1.03136E-01 -1.32823E-01  2.05899E-02  1.78778E-01
   1.46733E-02  5.72417E-03  1.42839E-01  2.54582E-01  2.39584E-02  1.47327E-01  5.91899E-01 -7.43334E-02 -1.44107E-01  4.62902E-01
   3.42107E-01 -3.63727E-03 -1.82693E-01  3.41557E-01  3.36422E-01  1.84078E-02  1.59351E-01 -6.67222E-02 -9.33353E-02  1.05740E-01
   8.34713E-03  3.90411E-02  9.47518E-03  1.08175E-02 -1.39474E-01 -1.64523E-01  2.47087E-01  1.93636E-01 -4.42114E-02 -2.93209E-01
  -1.21371E-01 -6.00744E-02 -1.51545E-01 -2.39354E-01 -2.92020E-01 -1.38249E-01 -2.47595E-01 -2.71905E-01 -5.04510E-01 -2.74253E-01
  -5.80863E-01 -6.73698E-01 -9.26248E-02 -1.41776E-01 -1.28334E-01 -3.01280E-02  1.86603E-01 -3.17099E-01 -1.59755E-01 -3.57821E-02
  -1.35664E-01  2.56251E-02 -1.81924E-01  2.68160E-01  1.13254E-03 -1.15878E-01  1.53833E-01  5.30041E-01  4.34654E-01 -3.39542E-02
   1.10393E-01  1.11990E-01  2.66130E-01 -2.56565E-02  1.00437E-01  2.16519E-01 -6.90600E-02  4.33346E-03  1.05658E-01  1.83441E-01
   2.30019E-01  1.65327E-01 -1.47976E-01  1.32880E-01  1.22796E-01 -8.91205E-02  1.05997E-02  9.49361E-02  2.08477E-01  2.51760E-02
   7.76636E-02  6.40424E-02  1.01860E-01  8.85127E-02 -5.79601E-02  1.63253E-01  8.67141E-02  9.65197E-02  2.71397E-01  5.81924E-02
  -1.57629E-01  8.46841E-02  2.30283E-01  6.45472E-02  2.70505E-01 -5.21776E-02 -1.44637E-01 -3.88665E-02 -9.15826E-02  6.31781E-02
   6.96807E-02  2.23770E-01 -1.68759E-01  1.39065E-01  2.23514E-01  3.95741E-02  4.17894E-01  2.40309E-01 -5.76666E-02 -2.56042E-02
   3.27997E-01  1.50972E-01  2.54300E-01  2.83123E-01  2.96157E-01  3.09573E-01 -1.45060E-01  9.49225E-03  1.50690E-01  1.59379E-01
   2.93328E-01 -9.34776E-02 -9.61220E-02  1.99969E-01 -8.21989E-03  8.61754E-02  2.90413E-01  3.21348E-01  1.01900E-01  2.87239E-01
   7.86038E-04  3.03648E-01  4.06196E-01 -2.94829E-01  3.07202E-01 -1.74990E-01 -9.18545E-02  1.13166E-01 -2.01126E-01 -1.64435E-02
  -4.94308E-02  1.92344E-01  1.07534E-01 -3.31390E-02 -1.07580E-01  3.89810E-02  1.54262E-01  3.26106E-01  3.23617E-02 -1.96407E-01
   1.02193E-01  2.17616E-01  2.54876E-01  2.35732E-01 -3.40766E-02 -1.24898E-01  1.75705E-01  2.97656E-02  2.01259E-01  4.77747E-02
  -1.36397E-02  1.96755E-01  4.90160E-04  1.05069E-02
 NY points of the fit to the data follow
   1.44938E-01  1.08555E-01  6.51052E-02  2.64725E-02  3.61449E-03  1.59885E-03  9.72786E-03  2.98487E-02  3.46084E-02  5.71603E-02
   1.40683E-01  1.89069E-01  3.60112E-01  4.61683E-01  4.59533E-01  5.61169E-01  5.48250E-01  3.32506E-01  1.39596E-01  7.63813E-02
   4.86021E-02  4.22474E-02  2.26046E-02 -1.44132E-02 -5.29254E-02 -7.75405E-02 -9.34972E-02 -1.05538E-01 -1.10561E-01 -1.18284E-01
  -1.28387E-01 -1.37878E-01 -1.49830E-01 -1.73347E-01 -2.05973E-01 -2.36973E-01 -2.66363E-01 -2.78731E-01 -2.87410E-01 -2.52190E-01
  -1.94649E-01 -1.06003E-01 -1.18728E-02  5.58269E-02  1.63209E-01  2.36082E-01  2.91230E-01  3.09407E-01  2.42500E-01  1.78309E-01
   1.41882E-01  8.31276E-02  2.84556E-02 -8.81150E-03 -6.32276E-02 -1.26247E-01 -1.89658E-01 -2.67437E-01 -2.98305E-01 -3.85563E-01
  -4.37436E-01 -4.16309E-01 -4.87185E-01 -2.77648E-01 -1.75361E-01 -2.22482E-01  1.20580E-01  3.75541E-01  3.53769E-01  4.20907E-01
   4.78780E-01  3.54808E-01  2.20462E-01  1.13758E-01 -4.08608E-03 -9.20253E-02 -1.85201E-01 -3.51154E-01 -4.57147E-01 -6.00229E-01
  -5.79607E-01 -1.82603E-01  1.04159E-01  2.28086E-01  4.49146E-01  6.03454E-01  5.54870E-01  4.44938E-01  3.62565E-01  3.06873E-01
   2.76161E-01  2.61214E-01  2.42579E-01  2.04435E-01  1.81214E-01  1.09600E-01  8.43909E-02 -2.58800E-02 -9.18451E-02 -1.46153E-01
  -1.71920E-01 -6.70511E-02  6.42681E-02  1.92277E-01  2.71166E-01  2.99507E-01  2.76805E-01  2.70603E-01  2.62896E-01  2.65775E-01
   2.69553E-01  2.71735E-01  2.70914E-01  2.69240E-01  2.67859E-01  2.68601E-01  2.68865E-01  2.53566E-01  2.58703E-01  2.26401E-01
   1.63887E-01  1.39292E-01 -2.40019E-02 -8.61678E-02 -8.87322E-02 -2.73072E-01 -2.63670E-01 -1.79590E-01 -2.15223E-01 -2.80670E-01
  -3.09647E-01 -3.44702E-01 -2.68256E-01 -2.73874E-01 -3.13584E-01 -5.18164E-01 -1.01987E+00 -1.16852E+00 -7.75508E-01 -3.21884E-01
  -1.06505E-01 -2.65339E-02 -1.45964E-02 -1.76820E-03  2.08941E-02  4.51918E-02  6.87355E-02  8.89264E-02  1.08180E-01  1.24837E-01
   1.40394E-01  1.56567E-01  1.73685E-01  1.90720E-01  2.08981E-01  2.30716E-01  2.54950E-01  2.82421E-01  3.14563E-01  3.52149E-01
   4.02799E-01  4.83758E-01  5.98329E-01  5.64288E-01  7.67181E-01  6.95226E-01  7.21741E-01  4.92778E-01 -4.88245E-01 -1.15197E+00
  -9.90025E-01 -6.14848E-01 -4.84261E-01 -4.07481E-01 -4.32463E-01 -4.22122E-01 -3.84421E-01 -3.32251E-01 -3.05823E-01 -2.87099E-01
  -2.76717E-01 -2.57766E-01 -2.39345E-01 -2.26667E-01 -2.16000E-01 -2.06594E-01 -1.98306E-01 -1.88589E-01 -1.75632E-01 -1.66483E-01
  -1.58976E-01 -1.50551E-01 -1.40155E-01 -1.30913E-01 -1.21277E-01 -1.12225E-01 -1.04141E-01 -9.43710E-02 -8.40798E-02 -7.42199E-02
  -6.47649E-02 -5.29513E-02 -3.90760E-02 -2.67552E-02 -2.92975E-02 -4.33920E-02 -4.67152E-02 -3.37562E-02 -1.56230E-02 -2.13909E-02
  -5.13766E-02 -7.29258E-02 -6.81076E-02 -5.70928E-02 -4.38221E-02 -3.04294E-02 -1.58595E-02  5.31066E-03  1.22403E-02 -3.89379E-03
   4.69857E-04  1.96710E-02  6.85170E-02  1.19167E-01  1.55520E-01  2.59692E-01  3.36869E-01  3.05522E-01  2.46755E-01  2.39598E-01
   3.69045E-01  4.48496E-01  2.99742E-01  9.19670E-02 -1.67720E-02 -5.14903E-02 -5.82062E-02 -5.46887E-02 -6.10358E-02 -6.90873E-02
  -7.90251E-02 -8.90495E-02 -9.64115E-02 -1.02329E-01 -1.08352E-01 -1.14823E-01 -1.23612E-01 -1.29690E-01 -1.39397E-01 -1.42733E-01
  -1.51301E-01 -1.53021E-01 -1.31508E-01 -1.63522E-01 -1.52159E-01 -1.31735E-01 -1.08245E-01  4.72688E-02  8.53913E-02  7.83874E-02
   1.45487E-01  2.00880E-01  2.04885E-01  1.46773E-01  1.48253E-01  1.64439E-01  1.68562E-01  1.40392E-01  1.23912E-01  1.24709E-01
   1.10827E-01  8.80896E-02  4.98184E-02  1.49470E-02 -2.18674E-02 -5.11055E-02 -8.62744E-02 -1.30555E-01 -1.68934E-01 -2.28869E-01
  -2.71536E-01 -3.18110E-01 -3.62998E-01 -3.06405E-01 -2.12149E-01 -3.44224E-02  1.77552E-01  2.97615E-01  3.59363E-01  3.30405E-01
   2.57497E-01  1.52908E-01  1.00280E-01  9.36780E-02  1.08055E-01  1.66461E-01  2.23500E-01  2.58198E-01  2.70456E-01  2.68201E-01
   2.46074E-01  2.30448E-01  2.17387E-01  2.06236E-01  1.95535E-01  1.83225E-01  1.65208E-01  1.35703E-01  1.16156E-01  6.58476E-02
   3.78154E-02  1.62929E-02  3.66639E-04  2.13661E-02  4.25018E-02  4.91745E-02  4.18894E-02  2.65334E-03 -6.05689E-02 -1.17843E-01
  -1.51239E-01 -1.74808E-01 -1.73685E-01 -1.57465E-01 -1.22589E-01 -7.72750E-02 -2.60979E-02  3.87084E-02  8.07094E-02  1.14773E-01
   9.81576E-02  4.74430E-02 -4.12846E-02 -9.29267E-02 -2.04966E-01 -2.65182E-01 -3.72601E-01 -6.31145E-01 -6.35329E-01 -4.35714E-01
  -6.05253E-01 -8.77740E-01 -1.60774E+00 -2.29548E+00 -1.77457E+00 -7.19036E-01 -1.33835E-01 -8.60807E-03 -2.76408E-04 -4.69934E-02
  -3.47971E-02 -1.71422E-02  1.46689E-03  1.65471E-02  3.16116E-02  3.89258E-02  5.03628E-02  5.13302E-02  3.75592E-02  2.54447E-02
  -1.83097E-02 -5.41066E-02 -9.21974E-02 -1.27393E-01 -1.41093E-01 -1.39643E-01 -1.20540E-01 -9.22998E-02 -6.32113E-02 -4.21947E-02
  -2.18779E-02 -6.68513E-03  8.24718E-03  2.15700E-02  2.92366E-02  3.48962E-02  4.06622E-02  4.74611E-02  5.39277E-02  6.00883E-02
   6.41850E-02  6.76930E-02  7.26597E-02  7.76288E-02  8.27991E-02  8.59903E-02  8.90035E-02  9.02827E-02  9.39083E-02  9.93969E-02
   1.04575E-01  1.09142E-01  1.11974E-01  1.12056E-01  1.09817E-01  1.06765E-01  1.03887E-01  1.01733E-01  9.91310E-02  9.48266E-02
   8.90544E-02  8.19175E-02  7.52274E-02  6.79901E-02  5.96863E-02  5.26113E-02  4.71433E-02  4.26439E-02  3.59345E-02  3.01042E-02
   2.54416E-02  2.09184E-02  1.77372E-02  1.50610E-02  1.12641E-02  8.13382E-03  5.10007E-03  1.75848E-03 -2.98057E-04 -2.09462E-03
  -3.05168E-03 -3.69283E-03 -4.79106E-03 -3.44836E-03 -1.78521E-04  2.80481E-03  6.60986E-03  1.15990E-02  1.70373E-02  2.27261E-02
   2.83939E-02  3.15964E-02  3.24508E-02  3.58334E-02  4.31312E-02  5.27741E-02  6.25834E-02  7.08330E-02  7.88949E-02  8.78524E-02
   9.90452E-02  1.12725E-01  1.26009E-01  1.38840E-01  1.52115E-01  1.64066E-01  1.76522E-01  1.87886E-01  1.96158E-01  2.00992E-01
   2.03236E-01  2.03351E-01  2.02975E-01  2.01408E-01  1.98867E-01  1.94280E-01  1.87190E-01  1.76934E-01  1.64139E-01  1.51298E-01
   1.40828E-01  1.31860E-01  1.21642E-01  1.11903E-01  1.01294E-01  9.19402E-02  8.51148E-02  7.89962E-02  7.19563E-02  6.57757E-02
   6.13868E-02  5.74378E-02  5.39918E-02  5.16323E-02  5.04697E-02  5.25988E-02  5.71066E-02  6.01976E-02  6.40805E-02  6.93868E-02
   7.49621E-02  8.08922E-02  8.75266E-02  9.35555E-02  9.75885E-02  1.00589E-01  1.02693E-01  1.04549E-01  1.06381E-01  1.09400E-01
   1.13595E-01  1.14097E-01  1.12906E-01  1.10446E-01  1.07518E-01  1.05277E-01  1.01447E-01  9.70887E-02  9.35936E-02  9.13831E-02
   8.85205E-02  8.46775E-02  8.08134E-02  7.72172E-02  7.33095E-02  6.95191E-02  6.53298E-02  6.10736E-02  5.87901E-02  5.72414E-02
   5.42771E-02  4.97393E-02  4.48195E-02  3.94841E-02  3.17188E-02  2.23715E-02  1.33786E-02  3.75366E-03 -6.29006E-03 -2.01793E-02
  -3.74113E-02 -5.70915E-02 -7.70283E-02 -9.52127E-02 -1.12275E-01 -1.29418E-01 -1.45332E-01 -1.58237E-01 -1.69535E-01 -1.79362E-01
  -1.86979E-01 -1.89444E-01 -1.87060E-01 -1.83831E-01 -1.81148E-01 -1.74929E-01 -1.65995E-01 -1.57066E-01 -1.49475E-01 -1.42616E-01
  -1.35942E-01 -1.28870E-01 -1.18935E-01 -1.07885E-01 -9.71669E-02 -8.55716E-02 -7.31842E-02 -6.10347E-02 -5.04698E-02 -3.95904E-02
  -2.92263E-02 -2.04043E-02 -9.99924E-03  1.89624E-04  7.10340E-03  1.33115E-02  2.01330E-02  2.79189E-02  3.56424E-02  3.82983E-02
   4.10042E-02  4.67767E-02  5.06204E-02  5.34413E-02  5.56851E-02  5.71325E-02  5.90302E-02  6.11854E-02  6.24868E-02  6.23388E-02
   6.40468E-02  6.77896E-02  7.08020E-02  7.32546E-02  7.57971E-02  7.75714E-02  7.71009E-02  7.65349E-02  7.73183E-02  7.69879E-02
   7.65992E-02  7.74620E-02  7.70890E-02  7.65950E-02  7.75362E-02  7.79842E-02  7.84298E-02  7.95290E-02  8.03261E-02  8.07762E-02
   7.79400E-02  7.30397E-02  7.30003E-02  7.56341E-02  7.69581E-02  7.58263E-02  7.54245E-02  7.62196E-02  7.51565E-02  7.32182E-02
   7.32336E-02  7.62716E-02  7.86941E-02  7.93000E-02  7.96678E-02  8.09365E-02  8.23899E-02  8.43487E-02  8.48062E-02  8.52389E-02
   8.58497E-02  8.63375E-02  8.50203E-02  8.27020E-02  8.30781E-02  8.46665E-02  8.65290E-02  8.84698E-02  9.00628E-02  9.10262E-02
   9.15015E-02  9.20562E-02  9.50880E-02  9.83529E-02  1.00021E-01  9.97285E-02  9.70716E-02  9.51428E-02  9.56294E-02  9.75283E-02
   9.97451E-02  9.95934E-02  9.75343E-02  9.70897E-02  9.78078E-02  9.88123E-02  9.99568E-02  9.96710E-02  9.88364E-02  1.01214E-01
   1.04377E-01  1.04013E-01  1.03962E-01  1.04864E-01  1.06309E-01  1.08205E-01  1.09703E-01  1.12451E-01  1.17336E-01  1.21788E-01
   1.24527E-01  1.25175E-01  1.26882E-01  1.28899E-01
 NY background values follow
     4.648E-02    4.644E-02    4.640E-02    4.636E-02    4.632E-02    4.628E-02    4.624E-02    4.620E-02    4.616E-02    4.612E-02
     4.608E-02    4.604E-02    4.600E-02    4.596E-02    4.592E-02    4.588E-02    4.584E-02    4.580E-02    4.576E-02    4.572E-02
     4.568E-02    4.564E-02    4.560E-02    4.556E-02    4.552E-02    4.548E-02    4.544E-02    4.540E-02    4.536E-02    4.532E-02
     4.528E-02    4.524E-02    4.520E-02    4.516E-02    4.512E-02    4.508E-02    4.504E-02    4.500E-02    4.496E-02    4.492E-02
     4.488E-02    4.483E-02    4.479E-02    4.475E-02    4.471E-02    4.467E-02    4.463E-02    4.459E-02    4.455E-02    4.451E-02
     4.447E-02    4.443E-02    4.439E-02    4.435E-02    4.431E-02    4.427E-02    4.423E-02    4.419E-02    4.414E-02    4.410E-02
     4.406E-02    4.402E-02    4.398E-02    4.394E-02    4.390E-02    4.386E-02    4.382E-02    4.378E-02    4.374E-02    4.369E-02
