 
 $NMID
 ID=''
 FMTDAT='(2E13.5)'
 TRAMP=   1.00000E+0
 VOLUME=   1.00000E+0
 $END
  -3.54691E+3   1.66545E+4
  -2.19570E+4   3.81697E+4
  -1.63074E+4   4.04002E+4
  -1.66028E+4   3.65903E+4
  -1.94989E+4   3.71013E+4
  -1.88818E+4   3.69638E+4
  -2.00329E+4   3.45008E+4
  -2.19697E+4   3.39855E+4
  -2.20123E+4   3.36034E+4
  -2.29833E+4   3.16304E+4
  -2.43842E+4   3.07926E+4
  -2.43658E+4   3.01384E+4
  -2.50046E+4   2.84603E+4
  -2.63601E+4   2.75479E+4
  -2.65274E+4   2.66719E+4
  -2.70096E+4   2.52209E+4
  -2.80284E+4   2.43139E+4
  -2.82166E+4   2.34339E+4
  -2.86876E+4   2.19644E+4
  -2.94332E+4   2.10334E+4
  -2.95933E+4   2.00440E+4
  -2.98920E+4   1.87509E+4
  -3.05724E+4   1.77526E+4
  -3.07055E+4   1.67609E+4
  -3.08778E+4   1.53375E+4
  -3.13076E+4   1.43183E+4
  -3.13623E+4   1.32537E+4
  -3.15608E+4   1.18985E+4
  -3.18070E+4   1.06719E+4
  -3.17918E+4   9.57778E+3
  -3.17191E+4   8.45178E+3
  -3.18477E+4   7.41083E+3
  -3.17404E+4   6.29656E+3
  -3.15738E+4   5.09011E+3
  -3.15292E+4   4.09377E+3
  -3.14560E+4   3.15019E+3
  -3.11965E+4   1.89196E+3
  -3.10239E+4   9.45133E+2
  -3.08098E+4  -3.88066E+1
  -3.04983E+4  -1.13265E+3
  -3.03423E+4  -2.15856E+3
  -3.00280E+4  -3.27203E+3
  -2.95209E+4  -4.40288E+3
  -2.91153E+4  -5.39829E+3
  -2.85850E+4  -6.33061E+3
  -2.80918E+4  -7.39722E+3
  -2.75713E+4  -8.34903E+3
  -2.69600E+4  -9.26721E+3
  -2.63600E+4  -1.01844E+4
  -2.56899E+4  -1.11178E+4
  -2.50238E+4  -1.19968E+4
  -2.42095E+4  -1.29188E+4
  -2.34396E+4  -1.35769E+4
  -2.27707E+4  -1.44612E+4
  -2.19482E+4  -1.51442E+4
  -2.10311E+4  -1.58902E+4
  -2.01698E+4  -1.65046E+4
  -1.92246E+4  -1.72135E+4
  -1.81921E+4  -1.77892E+4
  -1.72265E+4  -1.83393E+4
  -1.62323E+4  -1.87850E+4
  -1.52510E+4  -1.91075E+4
  -1.42513E+4  -1.95999E+4
  -1.30995E+4  -1.99119E+4
  -1.20874E+4  -2.01534E+4
  -1.10316E+4  -2.04000E+4
  -1.00138E+4  -2.06132E+4
  -8.90465E+3  -2.07664E+4
  -7.77977E+3  -2.07126E+4
  -6.74205E+3  -2.07081E+4
  -5.66407E+3  -2.06331E+4
  -4.71322E+3  -2.04573E+4
  -3.64870E+3  -2.02715E+4
  -2.65042E+3  -1.99977E+4
  -1.75041E+3  -1.96938E+4
  -8.19334E+2  -1.93695E+4
   9.56228E+0  -1.90005E+4
   8.40495E+2  -1.86212E+4
   1.67051E+3  -1.79906E+4
   2.37100E+3  -1.76078E+4
   3.11158E+3  -1.70779E+4
   3.77806E+3  -1.66167E+4
   4.41949E+3  -1.59334E+4
   4.99353E+3  -1.53265E+4
   5.65337E+3  -1.47941E+4
   6.16685E+3  -1.41241E+4
   6.58400E+3  -1.34827E+4
   6.97169E+3  -1.28389E+4
   7.29375E+3  -1.22338E+4
   7.73600E+3  -1.15365E+4
   7.97470E+3  -1.09194E+4
   8.21511E+3  -1.02090E+4
   8.41093E+3  -9.68086E+3
   8.70008E+3  -9.01238E+3
   8.74251E+3  -8.39312E+3
   8.82870E+3  -7.84231E+3
   8.95258E+3  -7.18306E+3
   8.93006E+3  -6.55956E+3
   8.98785E+3  -5.98432E+3
   8.97251E+3  -5.50423E+3
   8.91396E+3  -4.96354E+3
   8.91769E+3  -4.52433E+3
   8.80212E+3  -4.00589E+3
   8.70528E+3  -3.55081E+3
   8.72152E+3  -3.06848E+3
   8.49464E+3  -2.64281E+3
   8.39157E+3  -2.22779E+3
   8.26641E+3  -1.84869E+3
   8.12731E+3  -1.43614E+3
   7.91782E+3  -1.08908E+3
   7.79021E+3  -7.01280E+2
   7.48326E+3  -4.74990E+2
   7.32373E+3  -1.07499E+2
   7.12995E+3   1.58680E+2
   6.89979E+3   4.38150E+2
   6.73342E+3   6.92004E+2
   6.39226E+3   9.88372E+2
   6.26124E+3   1.17803E+3
   6.00383E+3   1.38922E+3
   5.76749E+3   1.59180E+3
   5.54550E+3   1.69960E+3
   5.27061E+3   1.91564E+3
   5.05721E+3   1.99564E+3
   4.89518E+3   2.19641E+3
   4.67123E+3   2.23010E+3
   4.33512E+3   2.32081E+3
   4.16080E+3   2.41345E+3
   3.98114E+3   2.44572E+3
   3.73791E+3   2.54397E+3
   3.53015E+3   2.56736E+3
   3.29035E+3   2.63262E+3
   3.07972E+3   2.68098E+3
   2.93341E+3   2.59741E+3
   2.74893E+3   2.59476E+3
   2.55256E+3   2.56888E+3
   2.29450E+3   2.59553E+3
   2.14310E+3   2.52741E+3
   1.96636E+3   2.54091E+3
   1.76494E+3   2.43266E+3
   1.60843E+3   2.42748E+3
   1.45750E+3   2.35977E+3
   1.24996E+3   2.27554E+3
   1.21674E+3   2.21551E+3
   9.99559E+2   2.14682E+3
   8.75791E+2   1.97618E+3
   7.33955E+2   1.95062E+3
   6.24315E+2   1.75924E+3
   5.22331E+2   1.73340E+3
   4.41153E+2   1.61921E+3
   3.60337E+2   1.50341E+3
   2.82986E+2   1.44759E+3
   1.98595E+2   1.28992E+3
   5.26310E+1   1.26064E+3
   1.33842E+1   1.21589E+3
  -4.73786E+0   9.85756E+2
  -1.27032E+2   9.37935E+2
  -1.23593E+2   8.04270E+2
  -1.37637E+2   7.17315E+2
  -1.76216E+2   6.33204E+2
  -2.10064E+2   4.86665E+2
  -2.78455E+2   3.47155E+2
  -2.75740E+2   2.72940E+2
  -3.80215E+2   2.22161E+2
  -2.94081E+2   1.44722E+2
  -3.26052E+2  -1.11810E+1
  -3.36326E+2  -7.93227E+1
  -3.10745E+2  -1.28474E+2
  -2.91611E+2  -2.10214E+2
  -4.00190E+2  -2.99390E+2
  -3.34647E+2  -3.69176E+2
  -3.90753E+2  -4.06337E+2
  -3.76466E+2  -4.84244E+2
  -3.14425E+2  -6.01902E+2
  -3.37779E+2  -5.99854E+2
  -3.03191E+2  -7.38996E+2
  -2.93576E+2  -7.31877E+2
  -3.70754E+2  -8.09032E+2
  -2.87658E+2  -8.71874E+2
  -3.18219E+2  -9.07634E+2
  -2.59038E+2  -9.91037E+2
  -2.57792E+2  -1.02430E+3
  -2.54496E+2  -1.02910E+3
  -2.57941E+2  -1.16762E+3
  -2.67468E+2  -1.20572E+3
  -1.59388E+2  -1.24193E+3
  -2.41123E+2  -1.30328E+3
  -1.45542E+2  -1.33182E+3
  -1.65553E+2  -1.37145E+3
  -1.30068E+2  -1.44430E+3
  -1.00738E+2  -1.45061E+3
  -4.67467E+1  -1.51314E+3
  -4.66821E+1  -1.48941E+3
  -5.32549E+1  -1.54602E+3
  -1.54615E+1  -1.60344E+3
  -5.71381E+1  -1.67062E+3
   5.81753E+1  -1.61793E+3
   7.66720E+1  -1.68991E+3
   7.64560E+1  -1.70207E+3
   3.75107E+1  -1.67986E+3
   1.85716E+2  -1.75097E+3
   1.14854E+2  -1.79769E+3
   1.82050E+2  -1.73033E+3
   2.20252E+2  -1.78449E+3
   2.60615E+2  -1.89674E+3
   3.09169E+2  -1.86247E+3
   3.25583E+2  -1.81758E+3
   3.39115E+2  -1.86413E+3
   4.07730E+2  -1.86684E+3
   4.05481E+2  -1.85253E+3
   3.79186E+2  -1.81850E+3
   4.19048E+2  -1.81115E+3
   4.52561E+2  -1.89340E+3
   4.71645E+2  -1.83700E+3
   5.44162E+2  -1.81114E+3
   5.00914E+2  -1.77114E+3
   5.04407E+2  -1.75294E+3
   5.03418E+2  -1.77801E+3
   5.86194E+2  -1.84200E+3
   5.89664E+2  -1.73165E+3
   6.32515E+2  -1.72459E+3
   6.11241E+2  -1.71032E+3
   6.32897E+2  -1.65421E+3
   5.99452E+2  -1.71275E+3
   6.67480E+2  -1.69136E+3
   6.72539E+2  -1.61622E+3
   6.24211E+2  -1.62153E+3
   7.09281E+2  -1.58958E+3
   7.23529E+2  -1.58671E+3
   6.92567E+2  -1.65859E+3
   6.92870E+2  -1.56913E+3
   6.58635E+2  -1.58906E+3
   6.49005E+2  -1.59915E+3
   6.22248E+2  -1.54296E+3
   7.00749E+2  -1.55020E+3
   6.48438E+2  -1.52129E+3
   6.50566E+2  -1.51894E+3
   6.69021E+2  -1.51174E+3
   6.26584E+2  -1.48565E+3
   6.33438E+2  -1.51978E+3
   6.47463E+2  -1.44860E+3
   6.36587E+2  -1.46315E+3
   6.60290E+2  -1.49200E+3
   6.14133E+2  -1.53666E+3
   6.56590E+2  -1.45896E+3
   6.06967E+2  -1.44085E+3
   5.88126E+2  -1.52712E+3
   6.10723E+2  -1.42469E+3
   6.95565E+2  -1.41881E+3
   5.81931E+2  -1.43911E+3
   6.43859E+2  -1.50678E+3
   6.31233E+2  -1.46852E+3
   6.06417E+2  -1.40025E+3
   6.60222E+2  -1.41934E+3
   6.39441E+2  -1.40554E+3
   6.27866E+2  -1.39878E+3
   5.94482E+2  -1.40454E+3
   6.55839E+2  -1.43077E+3
   6.67512E+2  -1.37277E+3
   7.03118E+2  -1.36987E+3
   6.74961E+2  -1.43349E+3
   7.11154E+2  -1.35643E+3
   6.71343E+2  -1.40716E+3
   6.21334E+2  -1.27906E+3
   6.84621E+2  -1.33174E+3
   6.83329E+2  -1.36592E+3
   7.33723E+2  -1.28741E+3
   7.30122E+2  -1.33991E+3
   6.82412E+2  -1.35217E+3
   7.17111E+2  -1.22536E+3
   6.56754E+2  -1.33773E+3
   7.29282E+2  -1.25593E+3
   7.40566E+2  -1.23989E+3
   7.34385E+2  -1.18943E+3
   7.16185E+2  -1.21847E+3
   6.78170E+2  -1.22171E+3
   7.34548E+2  -1.18585E+3
   6.54875E+2  -1.23696E+3
   6.91396E+2  -1.16973E+3
   7.26353E+2  -1.12589E+3
   6.57709E+2  -1.13301E+3
   7.75352E+2  -1.18124E+3
   6.20760E+2  -1.06341E+3
   6.53939E+2  -1.09076E+3
   6.25893E+2  -1.04423E+3
   7.00752E+2  -1.05907E+3
   6.59114E+2  -1.08199E+3
   6.69640E+2  -1.09344E+3
   6.15017E+2  -1.05246E+3
   5.87512E+2  -1.02867E+3
   6.21768E+2  -1.01855E+3
   5.95579E+2  -1.03615E+3
   6.67102E+2  -9.93332E+2
   6.38442E+2  -1.05760E+3
   5.97918E+2  -9.53503E+2
   5.96241E+2  -9.92811E+2
   5.98312E+2  -9.22250E+2
   6.08508E+2  -9.08416E+2
   6.15144E+2  -9.59048E+2
   6.68677E+2  -8.57323E+2
   5.46166E+2  -8.98918E+2
   5.54949E+2  -8.92760E+2
   5.59023E+2  -8.98450E+2
   5.57421E+2  -8.50591E+2
   4.82395E+2  -7.88840E+2
   4.88884E+2  -8.31236E+2
   5.42518E+2  -8.16105E+2
   5.16380E+2  -7.68477E+2
   4.69800E+2  -7.74436E+2
   4.92479E+2  -7.70893E+2
   5.32009E+2  -7.67517E+2
   4.73976E+2  -7.26202E+2
   4.54853E+2  -6.97967E+2
   4.29914E+2  -6.87274E+2
   4.33086E+2  -7.45507E+2
   3.39971E+2  -6.77399E+2
   3.62782E+2  -7.14895E+2
   3.95441E+2  -6.79931E+2
   4.31172E+2  -7.05816E+2
   3.89548E+2  -6.57818E+2
   3.86350E+2  -7.25897E+2
   4.07371E+2  -6.70481E+2
   3.77452E+2  -6.07847E+2
   3.17355E+2  -6.99924E+2
   3.31905E+2  -6.08989E+2
   2.55553E+2  -6.35808E+2
   3.52751E+2  -6.06199E+2
   3.46636E+2  -5.09933E+2
   2.83397E+2  -5.19330E+2
   2.93495E+2  -5.21348E+2
   2.93384E+2  -6.08934E+2
   2.35176E+2  -5.72517E+2
   2.12086E+2  -5.91811E+2
   2.42715E+2  -5.73701E+2
   3.34355E+2  -5.35900E+2
   2.29662E+2  -5.58800E+2
   2.94168E+2  -5.53134E+2
   3.03634E+2  -4.96320E+2
   2.45050E+2  -5.87269E+2
   1.78298E+2  -4.93970E+2
   1.99661E+2  -4.97168E+2
   2.03654E+2  -4.92705E+2
   2.18385E+2  -4.81622E+2
   1.90817E+2  -4.49692E+2
   1.59425E+2  -4.52908E+2
   1.51932E+2  -4.99310E+2
   1.22861E+2  -4.95532E+2
   1.80743E+2  -4.80269E+2
   1.69566E+2  -4.35513E+2
   1.42835E+2  -4.87918E+2
   1.36872E+2  -4.49918E+2
   1.31845E+2  -4.38317E+2
   1.65220E+2  -4.62672E+2
   1.49004E+2  -4.60201E+2
   9.97310E+1  -4.62786E+2
   1.48615E+2  -4.28704E+2
   9.61400E+1  -4.36713E+2
   1.31736E+2  -3.81170E+2
   7.41096E+1  -3.68653E+2
   1.14009E+2  -4.17314E+2
   1.52513E+2  -4.18757E+2
   1.26157E+2  -3.62501E+2
   7.51597E+1  -3.92872E+2
   8.65157E+1  -3.77558E+2
   5.41165E+1  -3.17877E+2
   6.67003E+1  -3.74215E+2
   4.04864E+1  -3.82018E+2
   6.81797E+1  -3.14642E+2
