 
 $NMID
 ID=''
 FMTDAT='(2E13.5)'
 TRAMP=   1.00000E+0
 VOLUME=   1.00000E+0
 $END
  -2.34675E+4   3.74336E+2
  -5.85134E+4  -1.60955E+4
  -6.05446E+4  -5.64352E+3
  -5.58405E+4  -5.01001E+3
  -5.78897E+4  -6.77293E+3
  -5.81363E+4  -4.07540E+3
  -5.59084E+4  -4.52080E+3
  -5.63720E+4  -5.77740E+3
  -5.63862E+4  -4.26558E+3
  -5.48856E+4  -4.64946E+3
  -5.50283E+4  -5.55545E+3
  -5.48356E+4  -4.49630E+3
  -5.38039E+4  -4.60545E+3
  -5.39840E+4  -5.43867E+3
  -5.37577E+4  -4.91852E+3
  -5.27355E+4  -5.07967E+3
  -5.28670E+4  -5.71344E+3
  -5.28153E+4  -5.27480E+3
  -5.20836E+4  -5.22264E+3
  -5.21181E+4  -5.76215E+3
  -5.18908E+4  -5.27595E+3
  -5.12941E+4  -5.01495E+3
  -5.13546E+4  -5.23815E+3
  -5.12277E+4  -5.07482E+3
  -5.05153E+4  -5.07447E+3
  -5.04357E+4  -5.06282E+3
  -5.03056E+4  -5.01244E+3
  -4.97066E+4  -5.01945E+3
  -4.94594E+4  -5.17371E+3
  -4.92733E+4  -5.09216E+3
  -4.87584E+4  -4.90231E+3
  -4.86237E+4  -4.91309E+3
  -4.83510E+4  -4.94163E+3
  -4.79240E+4  -4.90661E+3
  -4.75966E+4  -4.91567E+3
  -4.73715E+4  -4.68237E+3
  -4.69545E+4  -4.66317E+3
  -4.65551E+4  -4.70783E+3
  -4.64018E+4  -4.49651E+3
  -4.60059E+4  -4.45597E+3
  -4.56860E+4  -4.65899E+3
  -4.54708E+4  -4.74073E+3
  -4.49041E+4  -4.93982E+3
  -4.46112E+4  -4.89516E+3
  -4.42951E+4  -4.89184E+3
  -4.39362E+4  -5.04296E+3
  -4.36419E+4  -5.14805E+3
  -4.33446E+4  -5.21093E+3
  -4.30304E+4  -5.15629E+3
  -4.27147E+4  -5.24853E+3
  -4.23906E+4  -5.26381E+3
  -4.19810E+4  -5.33973E+3
  -4.17095E+4  -5.35169E+3
  -4.15077E+4  -5.25066E+3
  -4.11678E+4  -5.34667E+3
  -4.09477E+4  -5.45191E+3
  -4.06111E+4  -5.51843E+3
  -4.03715E+4  -5.57011E+3
  -4.00234E+4  -5.66432E+3
  -3.97802E+4  -5.72501E+3
  -3.94210E+4  -5.70313E+3
  -3.92094E+4  -5.61574E+3
  -3.90506E+4  -5.70540E+3
  -3.87787E+4  -5.73859E+3
  -3.84616E+4  -5.77801E+3
  -3.82762E+4  -5.70916E+3
  -3.80602E+4  -5.68675E+3
  -3.78443E+4  -5.76521E+3
  -3.75938E+4  -5.81264E+3
  -3.73249E+4  -5.76976E+3
  -3.71417E+4  -5.87079E+3
  -3.69311E+4  -5.81353E+3
  -3.66439E+4  -5.86244E+3
  -3.64439E+4  -5.82694E+3
  -3.62712E+4  -5.74452E+3
  -3.60406E+4  -5.71048E+3
  -3.58172E+4  -5.68883E+3
  -3.56196E+4  -5.75700E+3
  -3.53848E+4  -5.71112E+3
  -3.52629E+4  -5.64088E+3
  -3.50411E+4  -5.65059E+3
  -3.49077E+4  -5.65854E+3
  -3.46579E+4  -5.61065E+3
  -3.45363E+4  -5.61696E+3
  -3.43255E+4  -5.65548E+3
  -3.41320E+4  -5.74561E+3
  -3.40033E+4  -5.77608E+3
  -3.37332E+4  -5.83522E+3
  -3.35352E+4  -5.83216E+3
  -3.33895E+4  -5.88295E+3
  -3.33001E+4  -5.86322E+3
  -3.30166E+4  -5.92700E+3
  -3.29117E+4  -5.93017E+3
  -3.27606E+4  -5.96471E+3
  -3.25906E+4  -5.91920E+3
  -3.23819E+4  -6.02323E+3
  -3.21728E+4  -5.98284E+3
  -3.20097E+4  -6.05617E+3
  -3.18207E+4  -6.04136E+3
  -3.16406E+4  -6.06910E+3
  -3.14072E+4  -6.17836E+3
  -3.11923E+4  -6.18395E+3
  -3.10704E+4  -6.20339E+3
  -3.09164E+4  -6.20802E+3
  -3.07538E+4  -6.26772E+3
  -3.05254E+4  -6.29626E+3
  -3.03487E+4  -6.34179E+3
  -3.02252E+4  -6.30658E+3
  -3.00313E+4  -6.36854E+3
  -2.97482E+4  -6.39283E+3
  -2.95463E+4  -6.33280E+3
  -2.93835E+4  -6.28584E+3
  -2.92117E+4  -6.25916E+3
  -2.90585E+4  -6.28397E+3
  -2.88150E+4  -6.40550E+3
  -2.86215E+4  -6.41048E+3
  -2.84720E+4  -6.40509E+3
  -2.82363E+4  -6.41844E+3
  -2.80303E+4  -6.45370E+3
  -2.78922E+4  -6.29582E+3
  -2.77204E+4  -6.34250E+3
  -2.75208E+4  -6.35467E+3
  -2.73475E+4  -6.37944E+3
  -2.71554E+4  -6.35974E+3
  -2.69969E+4  -6.30138E+3
  -2.68034E+4  -6.27462E+3
  -2.66063E+4  -6.30755E+3
  -2.65010E+4  -6.16782E+3
  -2.62901E+4  -6.19473E+3
  -2.60936E+4  -6.21534E+3
  -2.59986E+4  -6.23040E+3
  -2.57965E+4  -6.08129E+3
  -2.55760E+4  -6.04645E+3
  -2.54540E+4  -5.98657E+3
  -2.53359E+4  -5.99593E+3
  -2.52155E+4  -5.86394E+3
  -2.50026E+4  -5.86520E+3
  -2.48137E+4  -5.79365E+3
  -2.46073E+4  -5.75429E+3
  -2.45179E+4  -5.72311E+3
  -2.43588E+4  -5.67051E+3
  -2.41731E+4  -5.58088E+3
  -2.40200E+4  -5.56634E+3
  -2.38713E+4  -5.57790E+3
  -2.37268E+4  -5.57038E+3
  -2.35877E+4  -5.51447E+3
  -2.34195E+4  -5.45969E+3
  -2.32974E+4  -5.42509E+3
  -2.31147E+4  -5.37397E+3
  -2.29220E+4  -5.35565E+3
  -2.29035E+4  -5.33063E+3
  -2.26916E+4  -5.32673E+3
  -2.24808E+4  -5.29914E+3
  -2.23195E+4  -5.26934E+3
  -2.21749E+4  -5.21421E+3
  -2.20121E+4  -5.22353E+3
  -2.19326E+4  -5.13757E+3
  -2.17546E+4  -5.19404E+3
  -2.16048E+4  -5.14369E+3
  -2.14208E+4  -5.16981E+3
  -2.12195E+4  -5.14003E+3
  -2.10891E+4  -5.20076E+3
  -2.09512E+4  -5.19878E+3
  -2.07741E+4  -5.10137E+3
  -2.06806E+4  -5.17031E+3
  -2.04602E+4  -5.08499E+3
  -2.02862E+4  -5.20550E+3
  -2.01331E+4  -5.14640E+3
  -1.99884E+4  -5.08830E+3
  -1.98624E+4  -5.09824E+3
  -1.96686E+4  -5.10175E+3
  -1.96196E+4  -5.06368E+3
  -1.93541E+4  -5.08008E+3
  -1.91973E+4  -5.06394E+3
  -1.90740E+4  -5.02960E+3
  -1.89115E+4  -5.06978E+3
  -1.87506E+4  -5.04315E+3
  -1.86242E+4  -4.93189E+3
  -1.84587E+4  -5.00252E+3
  -1.83157E+4  -5.08132E+3
  -1.81202E+4  -5.07725E+3
  -1.80361E+4  -4.96615E+3
  -1.78905E+4  -4.97155E+3
  -1.77627E+4  -5.02761E+3
  -1.75716E+4  -5.00169E+3
  -1.74563E+4  -5.02922E+3
  -1.73112E+4  -4.97423E+3
  -1.72132E+4  -4.94290E+3
  -1.70737E+4  -4.90773E+3
  -1.69187E+4  -4.98337E+3
  -1.67396E+4  -4.89821E+3
  -1.66081E+4  -4.89648E+3
  -1.64640E+4  -4.89885E+3
  -1.63805E+4  -4.97503E+3
  -1.62353E+4  -4.87082E+3
  -1.61137E+4  -4.90340E+3
  -1.60209E+4  -4.88663E+3
  -1.58344E+4  -4.89453E+3
  -1.56992E+4  -4.93669E+3
  -1.55646E+4  -4.92461E+3
  -1.54826E+4  -4.91160E+3
  -1.53623E+4  -4.93997E+3
  -1.51881E+4  -4.93945E+3
  -1.50342E+4  -4.90536E+3
  -1.49567E+4  -4.94951E+3
  -1.48355E+4  -4.97573E+3
  -1.47401E+4  -4.94480E+3
  -1.46103E+4  -5.04265E+3
  -1.44585E+4  -4.97724E+3
  -1.44155E+4  -4.95435E+3
  -1.42611E+4  -5.05306E+3
  -1.41163E+4  -4.98676E+3
  -1.40320E+4  -5.00387E+3
  -1.38660E+4  -5.05805E+3
  -1.38063E+4  -4.99072E+3
  -1.36656E+4  -5.06669E+3
  -1.35816E+4  -5.09272E+3
  -1.34513E+4  -5.05920E+3
  -1.33369E+4  -5.02675E+3
  -1.31773E+4  -5.03374E+3
  -1.31004E+4  -5.04549E+3
  -1.29993E+4  -5.06740E+3
  -1.29414E+4  -5.08348E+3
  -1.28939E+4  -5.04492E+3
  -1.26495E+4  -5.15171E+3
  -1.26164E+4  -5.05587E+3
  -1.24753E+4  -5.05219E+3
  -1.23901E+4  -5.10172E+3
  -1.22866E+4  -5.11225E+3
  -1.22090E+4  -5.13213E+3
  -1.20269E+4  -5.05721E+3
  -1.19881E+4  -5.14296E+3
  -1.18908E+4  -5.16026E+3
  -1.17120E+4  -5.12740E+3
  -1.16430E+4  -5.09881E+3
  -1.16262E+4  -5.09656E+3
  -1.15790E+4  -5.13236E+3
  -1.13795E+4  -5.05884E+3
  -1.12908E+4  -5.17616E+3
  -1.12393E+4  -5.10549E+3
  -1.11518E+4  -5.12124E+3
  -1.10441E+4  -5.10670E+3
  -1.09476E+4  -5.13729E+3
  -1.08950E+4  -5.10445E+3
  -1.08316E+4  -5.14076E+3
  -1.07860E+4  -5.10026E+3
  -1.06472E+4  -5.12965E+3
  -1.06710E+4  -5.11781E+3
  -1.05175E+4  -5.13203E+3
  -1.04686E+4  -5.15543E+3
  -1.03826E+4  -5.13445E+3
  -1.02724E+4  -5.16855E+3
  -1.01699E+4  -5.10039E+3
  -1.01268E+4  -5.13317E+3
  -1.00587E+4  -5.16205E+3
  -9.97747E+3  -5.09715E+3
  -9.89902E+3  -5.14503E+3
  -9.89964E+3  -5.13493E+3
  -9.80006E+3  -5.07229E+3
  -9.75003E+3  -5.18704E+3
  -9.63061E+3  -5.10908E+3
  -9.60791E+3  -5.11036E+3
  -9.55521E+3  -5.09949E+3
  -9.49711E+3  -5.09363E+3
  -9.39836E+3  -5.11400E+3
  -9.31320E+3  -5.16339E+3
  -9.28792E+3  -5.11036E+3
  -9.22883E+3  -5.17392E+3
  -9.11831E+3  -5.14703E+3
  -9.04930E+3  -5.15031E+3
  -8.91988E+3  -5.09879E+3
  -8.87572E+3  -5.10741E+3
  -8.86951E+3  -5.13918E+3
  -8.85604E+3  -5.06667E+3
  -8.76298E+3  -5.05518E+3
  -8.70175E+3  -5.00628E+3
  -8.57506E+3  -5.05925E+3
  -8.59564E+3  -5.05388E+3
  -8.52804E+3  -5.01833E+3
  -8.43546E+3  -5.05485E+3
  -8.38667E+3  -4.95520E+3
  -8.37646E+3  -4.96996E+3
  -8.31053E+3  -5.00464E+3
  -8.13732E+3  -4.99418E+3
  -8.15266E+3  -4.97559E+3
  -8.14010E+3  -4.95149E+3
  -8.01454E+3  -4.97353E+3
  -7.96056E+3  -4.96554E+3
  -7.85341E+3  -5.01280E+3
  -7.88585E+3  -4.94014E+3
  -7.85391E+3  -4.98205E+3
  -7.72489E+3  -4.95543E+3
  -7.70033E+3  -4.89184E+3
  -7.61182E+3  -4.93256E+3
  -7.58990E+3  -4.90308E+3
  -7.55818E+3  -4.86272E+3
  -7.45332E+3  -4.88432E+3
  -7.42816E+3  -4.90640E+3
  -7.32905E+3  -4.91436E+3
  -7.28711E+3  -4.82247E+3
  -7.24655E+3  -4.88463E+3
  -7.21731E+3  -4.77292E+3
  -7.12798E+3  -4.80500E+3
  -7.10140E+3  -4.81462E+3
  -7.07636E+3  -4.89213E+3
  -6.97909E+3  -4.83216E+3
  -6.92626E+3  -4.83443E+3
  -6.94973E+3  -4.77246E+3
  -6.88959E+3  -4.80874E+3
  -6.80511E+3  -4.73065E+3
  -6.76529E+3  -4.72451E+3
  -6.72146E+3  -4.80185E+3
  -6.68795E+3  -4.73183E+3
  -6.70756E+3  -4.78568E+3
  -6.59800E+3  -4.70685E+3
  -6.60444E+3  -4.73341E+3
  -6.56856E+3  -4.69601E+3
  -6.51678E+3  -4.70724E+3
  -6.37655E+3  -4.63318E+3
  -6.36634E+3  -4.64225E+3
  -6.32224E+3  -4.64020E+3
  -6.28758E+3  -4.69401E+3
  -6.23678E+3  -4.69009E+3
  -6.23610E+3  -4.66405E+3
  -6.14554E+3  -4.63347E+3
  -6.07171E+3  -4.66241E+3
  -6.06828E+3  -4.67539E+3
  -5.97470E+3  -4.60842E+3
  -5.92614E+3  -4.56332E+3
  -5.99875E+3  -4.60693E+3
  -5.93935E+3  -4.59420E+3
  -5.89595E+3  -4.55250E+3
  -5.79281E+3  -4.57458E+3
  -5.73519E+3  -4.53879E+3
  -5.73645E+3  -4.55645E+3
  -5.65195E+3  -4.52985E+3
  -5.64167E+3  -4.52257E+3
  -5.57816E+3  -4.49431E+3
  -5.52824E+3  -4.52320E+3
  -5.48579E+3  -4.47693E+3
  -5.38723E+3  -4.47987E+3
  -5.45211E+3  -4.44338E+3
  -5.40569E+3  -4.45359E+3
  -5.35973E+3  -4.41169E+3
  -5.35634E+3  -4.47631E+3
  -5.29892E+3  -4.48503E+3
  -5.22881E+3  -4.43251E+3
  -5.21727E+3  -4.41176E+3
  -5.17883E+3  -4.38627E+3
  -5.17186E+3  -4.39432E+3
  -5.09624E+3  -4.37124E+3
  -5.04218E+3  -4.38275E+3
  -4.95749E+3  -4.30517E+3
  -5.00739E+3  -4.36747E+3
  -4.94363E+3  -4.38859E+3
  -4.84628E+3  -4.31146E+3
  -4.90625E+3  -4.28021E+3
  -4.85069E+3  -4.25966E+3
  -4.81638E+3  -4.32644E+3
  -4.82400E+3  -4.32878E+3
  -4.77461E+3  -4.26604E+3
  -4.65431E+3  -4.29800E+3
  -4.72772E+3  -4.31247E+3
  -4.60485E+3  -4.24074E+3
  -4.65129E+3  -4.21911E+3
  -4.52603E+3  -4.21823E+3
  -4.55071E+3  -4.21861E+3
