 LCModel (Version 6.3-1N) Copyright: S.W. Provencher.          Ref.: Magn. Reson. Med. 30:672-679 (1993).                
 Slice_N1@26_10  02-Jun-2023 14:37:53
 27 lines in following concentration table = NCONC+1
    Conc.  %SD /Cr+PCr  Metabolite                                         
 2.98E-06  14% 5.7E-04 Mac                                                 
 4.18E-02  21%   8.000 Cr                                                  
    0.000 999%   0.000 PCr                                                 
 2.91E-02  36%   5.571 Ins                                                 
 6.25E-02  19%  11.978 NAA                                                 
 3.74E-02  28%   7.160 Tau                                                 
    0.000 999%   0.000 PCho                                                
 6.83E-03  42%   1.308 GPC                                                 
 7.01E-02  20%  13.427 Glu                                                 
 2.89E-02  30%   5.535 Gln                                                 
 1.05E-02  76%   2.018 Ala                                                 
    0.000 999%   0.000 Asc                                                 
 2.32E-02  37%   4.436 Asp                                                 
 7.79E-03  62%   1.493 GABA                                                
 6.15E-03  94%   1.179 Glc                                                 
    0.000 999%   0.000 GSH                                                 
    0.000 999%   0.000 Lac                                                 
 1.42E-02  45%   2.714 NAAG                                                
    0.000 999%   0.000 PE                                                  
 6.83E-03  42%   1.308 GPC+PCho                                            
 7.67E-02  17%  14.693 NAA+NAAG                                            
 9.90E-02  18%  18.962 Glu+Gln                                             
 4.18E-02  21%   8.000 Cr+PCr                                              
 7.67E-02  17%  14.693 NAA+NAAG                                            
 4.18E-02  21%   8.000 Cr+PCr                                              
 9.90E-02  18%  18.962 Glu+Gln                                             
   6 lines in following misc. output table
  FWHM = 0.058 ppm    S/N =   2                                            
  Data shift = 0.215 ppm                                                   
  Ph: -88 deg     -17.8 deg/ppm                                            
  alphaB,S = 9.7E-01,   2.6E+01                                            
   18 spline knots.   Ns =10(1)                                            
  ( 9) 3 infls.   ( 4) 2 extrs.                                            
  654 points on ppm-axis = NY
      4.000000     3.994181     3.988363     3.982544     3.976726     3.970907     3.965088     3.959270     3.953451     3.947633
      3.941814     3.935995     3.930177     3.924358     3.918540     3.912721     3.906902     3.901084     3.895265     3.889446
      3.883628     3.877809     3.871991     3.866172     3.860353     3.854535     3.848716     3.842898     3.837079     3.831260
      3.825442     3.819623     3.813805     3.807986     3.802167     3.796349     3.790530     3.784712     3.778893     3.773074
      3.767256     3.761437     3.755619     3.749800     3.743981     3.738163     3.732344     3.726526     3.720707     3.714888
      3.709070     3.703251     3.697433     3.691614     3.685795     3.679977     3.674158     3.668339     3.662521     3.656702
      3.650884     3.645065     3.639246     3.633428     3.627609     3.621791     3.615972     3.610153     3.604335     3.598516
      3.592698     3.586879     3.581060     3.575242     3.569423     3.563605     3.557786     3.551967     3.546149     3.540330
      3.534512     3.528693     3.522874     3.517056     3.511237     3.505419     3.499600     3.493781     3.487963     3.482144
      3.476326     3.470507     3.464688     3.458870     3.453051     3.447232     3.441414     3.435595     3.429777     3.423958
      3.418139     3.412321     3.406502     3.400684     3.394865     3.389046     3.383228     3.377409     3.371591     3.365772
      3.359953     3.354135     3.348316     3.342498     3.336679     3.330860     3.325042     3.319223     3.313405     3.307586
      3.301767     3.295949     3.290130     3.284312     3.278493     3.272674     3.266856     3.261037     3.255219     3.249400
      3.243581     3.237763     3.231944     3.226125     3.220307     3.214488     3.208670     3.202851     3.197032     3.191214
      3.185395     3.179577     3.173758     3.167939     3.162121     3.156302     3.150484     3.144665     3.138846     3.133028
      3.127209     3.121391     3.115572     3.109753     3.103935     3.098116     3.092298     3.086479     3.080660     3.074842
      3.069023     3.063205     3.057386     3.051567     3.045749     3.039930     3.034111     3.028293     3.022474     3.016656
      3.010837     3.005018     2.999200     2.993381     2.987563     2.981744     2.975925     2.970107     2.964288     2.958470
      2.952651     2.946832     2.941014     2.935195     2.929377     2.923558     2.917739     2.911921     2.906102     2.900284
      2.894465     2.888646     2.882828     2.877009     2.871191     2.865372     2.859553     2.853735     2.847916     2.842098
      2.836279     2.830460     2.824642     2.818823     2.813004     2.807186     2.801367     2.795549     2.789730     2.783911
      2.778093     2.772274     2.766456     2.760637     2.754818     2.749000     2.743181     2.737363     2.731544     2.725725
      2.719907     2.714088     2.708270     2.702451     2.696632     2.690814     2.684995     2.679177     2.673358     2.667539
      2.661721     2.655902     2.650084     2.644265     2.638446     2.632628     2.626809     2.620991     2.615172     2.609353
      2.603535     2.597716     2.591897     2.586079     2.580260     2.574442     2.568623     2.562804     2.556986     2.551167
      2.545349     2.539530     2.533711     2.527893     2.522074     2.516256     2.510437     2.504618     2.498800     2.492981
      2.487163     2.481344     2.475525     2.469707     2.463888     2.458070     2.452251     2.446432     2.440614     2.434795
      2.428977     2.423158     2.417339     2.411521     2.405702     2.399884     2.394065     2.388246     2.382428     2.376609
      2.370790     2.364972     2.359153     2.353335     2.347516     2.341697     2.335879     2.330060     2.324242     2.318423
      2.312604     2.306786     2.300967     2.295149     2.289330     2.283511     2.277693     2.271874     2.266056     2.260237
      2.254418     2.248600     2.242781     2.236963     2.231144     2.225325     2.219507     2.213688     2.207870     2.202051
      2.196232     2.190414     2.184595     2.178777     2.172958     2.167139     2.161321     2.155502     2.149683     2.143865
      2.138046     2.132228     2.126409     2.120590     2.114772     2.108953     2.103135     2.097316     2.091497     2.085679
      2.079860     2.074042     2.068223     2.062404     2.056586     2.050767     2.044949     2.039130     2.033311     2.027493
      2.021674     2.015856     2.010037     2.004218     1.998400     1.992581     1.986763     1.980944     1.975126     1.969307
      1.963489     1.957670     1.951852     1.946033     1.940215     1.934397     1.928578     1.922760     1.916941     1.911123
      1.905304     1.899486     1.893667     1.887849     1.882030     1.876212     1.870393     1.864575     1.858756     1.852938
      1.847119     1.841301     1.835482     1.829664     1.823845     1.818027     1.812208     1.806390     1.800571     1.794753
      1.788934     1.783116     1.777297     1.771479     1.765660     1.759842     1.754023     1.748205     1.742386     1.736568
      1.730749     1.724931     1.719113     1.713294     1.707476     1.701657     1.695839     1.690020     1.684202     1.678383
      1.672565     1.666746     1.660928     1.655109     1.649291     1.643472     1.637654     1.631835     1.626017     1.620198
      1.614380     1.608561     1.602743     1.596924     1.591106     1.585287     1.579469     1.573650     1.567832     1.562013
      1.556195     1.550376     1.544558     1.538739     1.532921     1.527102     1.521284     1.515465     1.509647     1.503829
      1.498010     1.492192     1.486373     1.480555     1.474736     1.468918     1.463099     1.457281     1.451462     1.445644
      1.439825     1.434007     1.428188     1.422370     1.416551     1.410733     1.404914     1.399096     1.393277     1.387459
      1.381640     1.375822     1.370003     1.364185     1.358366     1.352548     1.346729     1.340911     1.335092     1.329274
      1.323455     1.317637     1.311818     1.306000     1.300182     1.294363     1.288545     1.282726     1.276908     1.271089
      1.265271     1.259452     1.253634     1.247815     1.241997     1.236178     1.230360     1.224541     1.218723     1.212904
      1.207086     1.201267     1.195449     1.189630     1.183812     1.177993     1.172175     1.166356     1.160538     1.154719
      1.148901     1.143082     1.137264     1.131445     1.125627     1.119808     1.113990     1.108171     1.102353     1.096534
      1.090716     1.084898     1.079079     1.073261     1.067442     1.061624     1.055805     1.049987     1.044168     1.038350
      1.032531     1.026713     1.020894     1.015076     1.009257     1.003439     0.997620     0.991802     0.985983     0.980165
      0.974346     0.968528     0.962709     0.956891     0.951072     0.945254     0.939435     0.933617     0.927798     0.921980
      0.916161     0.910343     0.904524     0.898706     0.892887     0.887069     0.881251     0.875432     0.869614     0.863795
      0.857977     0.852158     0.846340     0.840521     0.834703     0.828884     0.823066     0.817247     0.811429     0.805610
      0.799792     0.793973     0.788155     0.782336     0.776518     0.770699     0.764881     0.759062     0.753244     0.747425
      0.741607     0.735788     0.729970     0.724151     0.718333     0.712514     0.706696     0.700877     0.695059     0.689240
      0.683422     0.677603     0.671785     0.665967     0.660148     0.654330     0.648511     0.642693     0.636874     0.631056
      0.625237     0.619419     0.613600     0.607782     0.601963     0.596145     0.590326     0.584508     0.578689     0.572871
      0.567052     0.561234     0.555415     0.549597     0.543778     0.537960     0.532141     0.526323     0.520504     0.514686
      0.508867     0.503049     0.497230     0.491412     0.485593     0.479775     0.473956     0.468138     0.462319     0.456501
      0.450682     0.444864     0.439045     0.433227     0.427408     0.421590     0.415771     0.409953     0.404134     0.398316
      0.392497     0.386679     0.380860     0.375042     0.369223     0.363405     0.357586     0.351767     0.345949     0.340130
      0.334312     0.328493     0.322675     0.316856     0.311038     0.305219     0.299401     0.293582     0.287764     0.281945
      0.276127     0.270308     0.264490     0.258671     0.252853     0.247034     0.241216     0.235397     0.229579     0.223760
      0.217942     0.212123     0.206305     0.200486
 NY phased data points follow
  -7.53522E-02 -1.94177E-01 -5.31167E-01 -1.71326E-01 -6.06321E-01 -4.26413E-01 -5.82409E-01 -2.21668E-01 -2.24064E-01 -3.39650E-01
   7.68585E-02 -1.28745E-01  1.56710E-01 -2.28063E-02  1.12410E-01 -3.85069E-01  8.49606E-02  1.09905E+00  1.78345E-01  2.11239E-01
   1.44378E-01  7.43730E-01  8.86521E-01  1.60909E-01  7.66736E-01  7.22784E-01  8.59290E-02  3.87754E-02  1.47372E-01 -7.58538E-02
   8.42194E-02 -1.57614E-01 -1.40174E-01 -5.21816E-01 -6.84969E-01 -1.01309E-01 -3.90776E-01 -2.24698E-01 -1.92192E-01 -1.19469E-01
  -6.78735E-01 -3.16114E-01  2.78067E-01 -2.81599E-01  1.33930E-01 -1.10507E-01  2.92228E-03  3.77386E-01  2.44381E-01  2.03158E-01
   2.77846E-01  3.02585E-01  1.15051E-01  4.54401E-01  4.34239E-01  3.88918E-01  1.39518E-01 -3.88830E-02 -7.84459E-02 -2.76967E-01
   6.41733E-03 -4.25077E-01 -1.83099E-01  4.52590E-03 -1.11893E-01  1.68951E-01 -1.92249E-01  2.82357E-01  4.18628E-01  1.43612E-01
  -1.41995E-01  1.91170E-01  1.96116E-01 -5.46997E-01 -8.21818E-03 -2.48081E-01 -1.92673E-01  3.81624E-01  1.74423E-01 -2.70273E-01
  -3.03301E-01 -1.11817E-01 -2.96485E-01 -9.96592E-02 -2.50482E-02  1.74754E-01  2.16724E-01 -3.82025E-01 -4.57295E-01  2.46892E-01
   7.21929E-02  1.81486E-01  2.23338E-01 -1.90001E-01  3.73961E-01  5.47835E-02  1.76134E-01  7.88770E-02 -3.63818E-01 -2.96739E-02
  -2.27989E-01 -3.93742E-01 -1.99977E-01  4.15019E-02 -1.45418E-01 -1.34981E-01 -6.68291E-02  1.56724E-01  1.76628E-01  1.72092E-01
   5.02874E-01  3.17650E-02 -1.38651E-01  1.83520E-01  1.02264E-01  1.70608E-01  5.34166E-01  2.75049E-01 -4.89863E-02 -4.79670E-02
   6.14965E-02  6.27457E-01  4.62878E-01 -3.87504E-02  2.28060E-01  2.48069E-01  2.67611E-01 -8.98587E-03 -4.91626E-01 -1.32851E-01
   2.72232E-03 -2.44297E-01 -5.01366E-01 -2.59410E-01 -5.61488E-01 -9.48193E-01 -6.54889E-01 -1.06581E+00 -7.14146E-01 -3.11343E-01
  -6.11031E-01 -6.14280E-01 -3.20766E-01 -1.72829E-01 -1.34876E-01 -2.99274E-01 -3.47675E-01 -9.83294E-02 -5.85449E-01 -1.25602E-01
  -2.43280E-01 -4.66311E-01  2.18703E-01  9.84350E-02  2.41154E-01 -3.72443E-01 -3.72705E-01  6.37808E-02  2.09533E-01  5.32518E-01
   3.08936E-01  2.56070E-01  3.76485E-01  8.41839E-01  6.29715E-01  2.68622E-01  4.77809E-01  5.90710E-01  7.35207E-01  3.37240E-01
  -1.46700E-01  1.35287E-01 -7.71008E-02 -3.29139E-01 -5.87995E-01 -7.35233E-01 -1.30805E-01 -4.31593E-01 -6.83220E-01 -8.66650E-01
  -4.99429E-01 -2.92552E-01 -2.19665E-01  2.53891E-01 -2.16067E-01 -1.27825E-01 -4.04220E-01 -6.33210E-01 -4.09370E-01 -3.17966E-01
  -4.20942E-01 -5.93946E-01 -5.49877E-01 -6.73793E-01 -4.40586E-01 -2.79967E-01 -3.60056E-01 -1.40387E-01 -2.96660E-01 -3.79968E-01
   4.04530E-01 -2.25845E-01 -3.11419E-01  3.59271E-01  1.06106E-01  1.32741E-01 -2.24701E-01 -2.32119E-01 -1.06595E-01  1.54597E-01
   3.44828E-01 -6.62363E-02 -3.49766E-01 -1.11767E-01  3.65208E-01  2.23210E-01 -8.11311E-02 -1.39251E-01 -3.39915E-01 -2.11125E-02
   7.58532E-02 -2.05684E-01 -9.01279E-02 -2.39863E-01 -7.58615E-02  2.54933E-01  1.91498E-01 -1.65311E-01  5.19785E-02 -4.98407E-02
   4.92253E-01  1.10086E+00  1.27735E-01  2.28203E-01  5.56485E-01  7.53413E-01  6.49020E-01  5.25850E-01  4.49115E-01  2.87811E-01
   3.33274E-01  6.79827E-02  1.23992E-01  2.72569E-02  1.21064E-01  1.54574E-01 -1.11819E-02 -1.44875E-01 -3.41679E-02 -5.12600E-02
  -3.05152E-01 -1.50811E-01 -2.04959E-01 -4.73894E-01 -1.21533E-01 -2.11896E-01 -3.90997E-01  2.88412E-01 -2.89492E-01 -2.90946E-01
  -2.85372E-01 -5.16877E-01 -5.67526E-02 -3.74186E-01  1.03063E-01  2.37241E-01  1.68640E-01 -2.54919E-02  1.90733E-01  3.58861E-01
  -3.59013E-02  4.93941E-01  2.68838E-01  6.34046E-01  3.26165E-01 -9.67693E-02  5.12925E-02 -3.92785E-01 -2.84883E-02  1.88965E-01
   1.63481E-02 -6.03659E-01 -3.18090E-01 -3.03989E-01 -2.14905E-01  8.18139E-02 -2.67222E-01 -1.49944E-02  2.29538E-01  1.48829E-01
   2.82582E-01  6.37563E-01  4.60677E-02  6.55224E-01  4.83665E-01  1.55345E-01  5.00613E-01  1.73143E-02  2.05395E-01  3.57876E-01
   4.34578E-01  1.00966E-01  5.63543E-01 -1.93586E-02  1.53829E-01  4.43808E-01  9.57033E-02  9.27718E-01  3.04876E-01  5.30472E-01
   6.08991E-01  1.34996E-01  4.98453E-01  9.62443E-01  6.19736E-01  4.48225E-01  5.74860E-01  2.12514E-01  6.60480E-02 -3.27331E-01
  -7.48080E-03 -1.00005E-01 -3.45194E-01 -2.40381E-01 -2.57469E-01  3.22577E-02 -3.32590E-02 -1.76017E-01 -2.33674E-01  6.97160E-02
   2.15709E-01  2.66477E-01  2.93315E-01  9.74479E-02  2.13667E-01  1.74591E-02 -1.57468E-01 -3.43743E-01 -3.20298E-01 -6.94543E-01
  -1.13707E+00 -7.78935E-01 -1.08274E+00 -1.02065E+00 -8.26044E-01 -1.18131E+00 -1.27841E+00 -5.37977E-01 -4.83753E-01 -8.25003E-01
  -6.06301E-01 -5.03627E-01 -1.94228E-02 -2.74777E-03  3.68233E-01  1.34860E-01  6.45198E-02  5.40294E-01 -2.41987E-01  9.42072E-02
   1.24078E-02 -7.02580E-01 -7.59915E-02 -5.10953E-01 -2.65151E-01  4.24182E-02 -5.25860E-01 -1.68140E-01 -3.08307E-01 -2.51088E-01
  -1.75835E-03  2.79022E-01 -5.64326E-01 -5.00468E-02  4.78479E-01  1.01145E-01  5.36000E-01 -2.90876E-02  3.33999E-01  3.34366E-02
   1.36161E-01 -4.40693E-02 -6.56220E-02  1.35078E-01 -2.20312E-01  2.02448E-01  1.95395E-01  2.10857E-01 -3.39502E-01  5.32709E-02
   1.18809E-05 -2.39229E-01  5.39144E-02  3.48829E-02  1.30413E-02  3.19431E-01  2.81104E-01  9.61772E-02  6.61787E-01  3.09288E-01
   3.26412E-01  3.70442E-01  3.27946E-01  3.22511E-01  5.01495E-02  3.33719E-02  5.27596E-02  4.37630E-02  5.04355E-01  5.06136E-01
   1.24597E-01  1.94350E-01 -6.93455E-02  4.80498E-02 -2.07964E-01 -3.90325E-01 -1.62085E-01 -3.03775E-02 -3.04172E-01 -1.99732E-01
   8.27298E-03  8.24877E-04  3.97767E-02 -1.15060E-02  3.98956E-02 -3.86749E-01 -1.58961E-01 -8.02668E-02  1.96017E-01 -2.05207E-01
  -2.36386E-01 -1.54102E-02 -4.62126E-01  2.76444E-01  2.16369E-03  1.06059E-01 -4.87207E-02 -1.08662E-01  2.30651E-02 -3.26204E-01
   3.02971E-01 -5.59156E-02  3.08103E-01  2.05568E-01 -2.27559E-01  3.69519E-01  3.50931E-01  1.78824E-01 -3.66668E-02  2.90850E-01
   8.58236E-02  2.01892E-01 -1.18971E-02  2.42318E-01  2.22586E-01 -2.31468E-01  8.32742E-01 -2.65301E-01 -4.76672E-01 -7.26062E-02
  -8.20341E-02 -1.21745E-01 -3.53894E-01 -1.77459E-02 -5.07014E-01 -8.78788E-02 -1.42386E-01 -7.12338E-02  3.25774E-02 -3.00688E-01
   5.49105E-02 -2.64766E-01 -6.65440E-01 -2.26434E-01 -1.40246E-01 -2.51757E-04  1.95959E-01 -1.87692E-01 -2.46978E-01  2.44095E-01
   3.25542E-01 -3.42890E-01  2.05277E-01 -1.26716E-02  4.13113E-02  4.03002E-01  2.06254E-01  6.44475E-01  1.11537E-01  1.52519E-01
   2.79304E-01 -3.33177E-01 -3.14932E-01  3.18305E-01 -3.67260E-01  1.79811E-01  2.99576E-01 -6.92773E-01  5.17839E-01  1.69283E-01
  -2.20040E-01  3.13470E-01  2.80497E-02 -1.83102E-02  3.76392E-01 -6.70117E-03 -3.19707E-01  1.39278E-01  3.37796E-02  1.39881E-01
   1.69671E-01 -1.89522E-01 -2.33630E-02  2.96684E-02 -1.32198E-01  2.49278E-01  1.64971E-01 -7.96796E-02  1.03780E-01  1.99572E-01
   5.75523E-02  8.97581E-02 -7.67432E-02 -2.38091E-01 -7.72075E-02 -1.59691E-01 -1.97915E-01 -6.17974E-01 -7.49287E-02  1.15549E-01
  -8.31136E-01 -6.30393E-01 -2.06108E-01 -5.70513E-01 -5.90904E-01 -1.79582E-01 -5.62349E-01 -2.06050E-01 -1.15111E-01 -4.93728E-01
  -2.50730E-01 -5.72998E-01 -5.22057E-01 -2.99022E-01 -3.83960E-01 -5.44885E-01 -4.16840E-01 -6.30483E-01 -4.43851E-01 -7.44684E-02
  -4.84288E-01 -4.32315E-01 -3.82842E-01  4.31317E-02 -2.72108E-01 -3.57760E-01  1.83307E-01 -3.38703E-01 -4.72057E-01 -1.78139E-01
  -2.98306E-01 -5.87012E-01 -4.36415E-01 -1.14842E-01  2.17617E-01 -3.56210E-01 -2.61392E-01  1.67072E-01 -3.93871E-01  2.03503E-01
  -2.04746E-02 -6.17244E-01 -3.11902E-02 -3.19161E-01 -6.62087E-01 -5.86937E-01 -3.08037E-01  1.08514E-01 -3.11573E-01 -6.72826E-02
  -2.43799E-01 -1.30107E-01  4.30414E-01 -5.17448E-01 -1.22605E-01  1.07183E-01 -2.75005E-01  5.81195E-02 -3.48928E-01 -8.03241E-02
   3.43259E-01 -2.40808E-01  5.40984E-02  2.67402E-01 -6.06591E-02  4.39195E-02  2.41344E-01  1.06023E-01  2.62317E-01  4.53837E-01
  -1.92775E-01  1.13295E-01 -8.10221E-02 -3.29109E-01 -3.06542E-01 -2.62303E-01  1.96157E-01 -3.31896E-02  3.42845E-01  6.41885E-02
  -2.44097E-01 -6.46219E-02 -1.72667E-01 -2.16181E-01  1.61248E-02 -3.79086E-02 -1.57646E-01  4.94123E-01  1.96485E-01 -1.50795E-01
   1.72460E-01 -1.11857E-01  1.73492E-02  3.21213E-01 -3.54996E-01 -3.64425E-01  1.20757E-01  3.21238E-01  8.40776E-02 -2.76797E-02
  -7.33078E-02 -2.87131E-01 -5.87105E-03 -2.29829E-01 -2.32560E-01 -2.32446E-01 -2.14017E-01  1.25570E-01  3.94011E-01  3.18675E-02
  -3.05000E-01 -1.12980E-01 -6.23331E-02  3.37466E-01  3.85015E-01  2.38742E-01 -2.28926E-01 -1.45145E-01 -2.02817E-01 -2.13028E-01
   4.56389E-01  1.71571E-01  6.21432E-02  3.88947E-01
 NY points of the fit to the data follow
   2.78139E-02  1.37428E-02  1.11222E-02  1.48155E-02 -5.33506E-04 -9.98203E-02 -1.72076E-01 -1.81763E-01 -1.53906E-01 -1.10878E-01
  -5.68379E-02  1.23864E-02  9.39479E-02  1.69901E-01  2.39712E-01  3.11963E-01  3.83416E-01  4.43912E-01  4.77176E-01  4.88220E-01
   4.89111E-01  4.82675E-01  4.54756E-01  3.98085E-01  3.24711E-01  2.39136E-01  1.60266E-01  1.21887E-01  8.58865E-02  4.71752E-02
   6.22559E-03 -5.33464E-02 -1.19471E-01 -1.97941E-01 -2.67976E-01 -3.29549E-01 -3.64011E-01 -3.65707E-01 -3.39074E-01 -2.93445E-01
  -2.34932E-01 -1.66670E-01 -9.28955E-02 -1.74309E-02  5.72212E-02  1.29203E-01  1.95526E-01  2.51644E-01  2.88618E-01  2.98062E-01
   2.85345E-01  2.58233E-01  2.23888E-01  1.86780E-01  1.41664E-01  1.10491E-01  7.60309E-02  2.91418E-02 -1.29261E-02 -5.73816E-02
  -1.02389E-01 -1.37884E-01 -1.59412E-01 -1.66629E-01 -1.60302E-01 -1.42515E-01 -1.13543E-01 -7.71726E-02 -3.72400E-02  9.01532E-03
   7.08947E-02  1.23251E-01  1.43199E-01  1.51781E-01  1.41576E-01  1.03699E-01  5.15192E-02 -7.35566E-03 -5.67109E-02 -9.42110E-02
  -1.27775E-01 -1.48618E-01 -1.52501E-01 -1.40482E-01 -1.17383E-01 -8.60012E-02 -4.39233E-02  1.78236E-02  8.78496E-02  1.67610E-01
   2.22707E-01  2.49779E-01  2.27280E-01  1.70407E-01  9.98250E-02  2.16063E-02 -5.26625E-02 -1.13569E-01 -1.60967E-01 -1.96471E-01
  -2.19722E-01 -2.31518E-01 -2.29348E-01 -2.13483E-01 -1.85833E-01 -1.49609E-01 -1.05121E-01 -5.33007E-02  7.72619E-04  5.09936E-02
   9.08019E-02  1.11416E-01  1.23495E-01  1.33486E-01  1.39232E-01  1.45383E-01  1.58549E-01  1.68688E-01  1.98617E-01  2.27521E-01
   2.71452E-01  2.92184E-01  2.88000E-01  2.52362E-01  1.94107E-01  1.84698E-01  1.84153E-01  1.39624E-01  5.49410E-02 -4.61570E-02
  -1.53859E-01 -2.65120E-01 -3.75563E-01 -4.62966E-01 -5.25527E-01 -5.75473E-01 -6.11661E-01 -6.30512E-01 -6.18659E-01 -5.76746E-01
  -5.26371E-01 -4.77099E-01 -4.35032E-01 -3.77677E-01 -3.11964E-01 -2.35678E-01 -1.56602E-01 -1.07183E-01 -7.61306E-02 -5.22300E-02
  -3.25057E-02 -1.72439E-02 -7.11531E-03 -2.97728E-03 -6.43996E-03 -2.38939E-02 -6.92028E-02 -4.39522E-02  1.12774E-01  2.98884E-01
   4.39876E-01  5.35947E-01  6.04798E-01  6.37297E-01  6.24390E-01  5.77777E-01  5.20218E-01  4.49576E-01  3.50768E-01  2.21584E-01
   8.24065E-02 -4.28801E-02 -1.53901E-01 -2.66827E-01 -3.84381E-01 -4.80878E-01 -5.37427E-01 -5.46026E-01 -4.99975E-01 -4.43851E-01
  -4.11141E-01 -3.87394E-01 -3.65661E-01 -3.45213E-01 -3.26054E-01 -3.07274E-01 -2.90240E-01 -2.74761E-01 -2.60734E-01 -2.47874E-01
  -2.35521E-01 -2.24222E-01 -2.17125E-01 -2.12042E-01 -2.02875E-01 -1.87112E-01 -1.69248E-01 -1.56933E-01 -1.49235E-01 -1.36597E-01
  -1.14413E-01 -8.86860E-02 -6.46443E-02 -4.31048E-02 -2.38088E-02 -1.05877E-02 -6.32923E-03 -7.51068E-03 -9.99788E-03 -9.98175E-03
  -1.20957E-02 -2.30281E-02 -3.80146E-02 -4.78505E-02 -5.34415E-02 -8.08721E-02 -1.20833E-01 -1.38811E-01 -1.37910E-01 -1.30685E-01
  -1.31622E-01 -1.31800E-01 -1.04193E-01 -6.00964E-02 -8.95204E-03  4.83017E-02  1.10526E-01  1.72096E-01  2.22202E-01  2.56056E-01
   2.81549E-01  3.01058E-01  3.09602E-01  3.00933E-01  2.74976E-01  2.37465E-01  1.94181E-01  1.55958E-01  1.18268E-01  7.46766E-02
   3.02272E-02 -1.66793E-02 -5.06641E-02 -6.79224E-02 -8.13556E-02 -8.77284E-02 -9.29957E-02 -1.17912E-01 -1.42326E-01 -1.58719E-01
  -1.82203E-01 -2.10817E-01 -2.30999E-01 -2.29836E-01 -2.30310E-01 -2.35206E-01 -2.26942E-01 -2.19721E-01 -2.04893E-01 -2.02189E-01
  -1.96443E-01 -1.84071E-01 -1.60150E-01 -1.23720E-01 -8.17423E-02 -3.85135E-02  8.65030E-03  5.07860E-02  8.70489E-02  1.26581E-01
   1.64175E-01  2.07895E-01  2.38135E-01  2.50894E-01  2.28407E-01  1.48382E-01  4.39949E-02 -8.37780E-02 -2.16818E-01 -3.23634E-01
  -4.01986E-01 -4.41479E-01 -4.49511E-01 -4.30666E-01 -3.84238E-01 -3.25550E-01 -2.54760E-01 -1.78109E-01 -9.67531E-02 -1.18907E-02
   7.15203E-02  1.49346E-01  2.14197E-01  2.56044E-01  2.76333E-01  2.70387E-01  2.49872E-01  2.29357E-01  2.10187E-01  2.06417E-01
   2.08862E-01  2.18127E-01  2.29775E-01  2.33669E-01  2.34393E-01  2.24498E-01  2.08104E-01  1.97133E-01  1.92785E-01  1.97998E-01
   2.07139E-01  2.23379E-01  2.29867E-01  2.28830E-01  2.07504E-01  1.67068E-01  1.03950E-01  2.37477E-02 -6.67414E-02 -1.54981E-01
  -2.29007E-01 -2.89015E-01 -3.23097E-01 -3.39151E-01 -3.39373E-01 -3.15727E-01 -2.49046E-01 -1.70141E-01 -1.25110E-01 -1.04989E-01
  -1.00171E-01 -8.62896E-02  9.33527E-02  2.79462E-01  3.21492E-01  2.30195E-01  7.54596E-02 -1.13016E-01 -3.27363E-01 -5.43668E-01
  -7.11957E-01 -8.30911E-01 -9.33750E-01 -1.02253E+00 -1.07857E+00 -1.07211E+00 -1.00945E+00 -9.31027E-01 -8.71349E-01 -7.99388E-01
  -6.70450E-01 -5.04502E-01 -3.08676E-01 -1.19276E-01 -2.07607E-02  2.43241E-02  4.99819E-02  6.37763E-02  6.86545E-02  6.56916E-02
   5.66844E-02  4.34102E-02  2.70724E-02  8.76376E-03 -9.59433E-03 -2.60808E-02 -4.05414E-02 -5.17220E-02 -5.93449E-02 -6.26165E-02
  -6.12048E-02 -5.50559E-02 -4.62369E-02 -3.46128E-02 -2.28744E-02 -1.08817E-02  4.54227E-04  1.12711E-02  2.15395E-02  3.01431E-02
   3.75799E-02  4.32234E-02  4.77865E-02  5.17379E-02  5.60925E-02  6.15091E-02  6.75857E-02  7.35848E-02  7.96063E-02  8.56565E-02
   9.21539E-02  9.90328E-02  1.05824E-01  1.12050E-01  1.18422E-01  1.24107E-01  1.28619E-01  1.31404E-01  1.32955E-01  1.32989E-01
   1.30721E-01  1.26723E-01  1.20748E-01  1.13483E-01  1.05162E-01  9.58751E-02  8.57169E-02  7.51895E-02  6.43383E-02  5.35209E-02
   4.26090E-02  3.19953E-02  2.22931E-02  1.29172E-02  3.51310E-03 -5.48131E-03 -1.45173E-02 -2.36036E-02 -3.27477E-02 -4.16674E-02
  -5.09252E-02 -5.97783E-02 -6.76032E-02 -7.63496E-02 -9.46879E-02 -1.14063E-01 -1.29339E-01 -1.37566E-01 -1.30650E-01 -1.11496E-01
  -8.61391E-02 -5.93491E-02 -3.36239E-02 -1.03725E-02  9.73865E-03  2.69275E-02  4.15022E-02  5.22113E-02  5.87308E-02  6.19067E-02
   6.34908E-02  6.45050E-02  6.49685E-02  6.43910E-02  6.18737E-02  5.96155E-02  6.41546E-02  7.47261E-02  9.25694E-02  1.15610E-01
   1.38200E-01  1.58680E-01  1.76621E-01  1.91700E-01  2.03445E-01  2.11971E-01  2.16132E-01  2.16268E-01  2.13001E-01  2.06703E-01
   1.97384E-01  1.85646E-01  1.71998E-01  1.56941E-01  1.40653E-01  1.23030E-01  1.04293E-01  8.58127E-02  6.77770E-02  5.01338E-02
   3.30261E-02  1.68479E-02  1.80351E-03 -1.20709E-02 -2.42241E-02 -3.41742E-02 -4.17272E-02 -4.67978E-02 -4.89598E-02 -4.91182E-02
  -4.80663E-02 -4.53114E-02 -4.05232E-02 -3.41175E-02 -2.61719E-02 -1.78581E-02 -8.98436E-03  5.18395E-04  9.84485E-03  1.82352E-02
   2.56036E-02  3.22152E-02  3.76649E-02  4.15980E-02  4.41532E-02  4.58215E-02  4.67850E-02  4.70313E-02  4.59254E-02  4.30988E-02
   3.90104E-02  3.44525E-02  2.96503E-02  2.43632E-02  1.94131E-02  1.53877E-02  1.20068E-02  9.11080E-03  6.24214E-03  3.74462E-03
   2.30909E-03  1.97680E-03  3.11048E-03  4.50950E-03  5.88420E-03  6.84608E-03  6.79114E-03  4.53048E-03 -4.14439E-04 -8.21526E-03
  -1.86688E-02 -3.26442E-02 -5.13114E-02 -7.39419E-02 -9.91519E-02 -1.26793E-01 -1.57159E-01 -1.89373E-01 -2.21864E-01 -2.53027E-01
  -2.81820E-01 -3.07344E-01 -3.29296E-01 -3.47641E-01 -3.62136E-01 -3.73147E-01 -3.80989E-01 -3.85551E-01 -3.86812E-01 -3.84926E-01
  -3.80731E-01 -3.74056E-01 -3.65967E-01 -3.56724E-01 -3.45749E-01 -3.33113E-01 -3.19611E-01 -3.05716E-01 -2.91582E-01 -2.75820E-01
  -2.58763E-01 -2.41913E-01 -2.25000E-01 -2.08323E-01 -1.91821E-01 -1.75645E-01 -1.60575E-01 -1.46471E-01 -1.33105E-01 -1.20132E-01
  -1.08088E-01 -9.78606E-02 -8.88687E-02 -8.10259E-02 -7.44416E-02 -6.91018E-02 -6.44654E-02 -6.01515E-02 -5.64905E-02 -5.29245E-02
  -4.92500E-02 -4.63192E-02 -4.34788E-02 -4.03948E-02 -3.78141E-02 -3.53081E-02 -3.29102E-02 -3.09549E-02 -2.95998E-02 -2.90369E-02
  -2.81653E-02 -2.62760E-02 -2.46223E-02 -2.40854E-02 -2.41857E-02 -2.43004E-02 -2.43748E-02 -2.52076E-02 -2.60516E-02 -2.60415E-02
  -2.56729E-02 -2.61097E-02 -2.75481E-02 -2.89581E-02 -3.02831E-02 -3.17061E-02 -3.35104E-02 -3.57603E-02 -3.77958E-02 -3.91835E-02
  -4.05477E-02 -4.14219E-02 -4.17362E-02 -4.10413E-02 -4.01459E-02 -3.93135E-02 -3.85004E-02 -3.76924E-02 -3.70011E-02 -3.62508E-02
  -3.56585E-02 -3.48071E-02 -3.42973E-02 -3.48086E-02 -3.56938E-02 -3.67886E-02 -3.70640E-02 -3.63378E-02 -3.52397E-02 -3.41005E-02
  -3.33128E-02 -3.23302E-02 -3.06227E-02 -2.85409E-02 -2.63057E-02 -2.44576E-02 -2.31465E-02 -2.20068E-02 -2.07011E-02 -2.00862E-02
  -2.02386E-02 -2.03075E-02 -2.03466E-02 -2.11379E-02 -2.21849E-02 -2.29915E-02 -2.30113E-02 -2.26661E-02 -2.32900E-02 -2.49735E-02
  -2.65755E-02 -2.76326E-02 -2.79424E-02 -2.80346E-02 -2.74303E-02 -2.68053E-02 -2.60897E-02 -2.51914E-02 -2.40389E-02 -2.24741E-02
  -2.05463E-02 -1.81627E-02 -1.57962E-02 -1.38981E-02
 NY background values follow
     2.004E-02    2.012E-02    2.020E-02    2.028E-02    2.036E-02    2.044E-02    2.052E-02    2.059E-02    2.067E-02    2.075E-02
     2.083E-02    2.091E-02    2.099E-02    2.107E-02    2.115E-02    2.123E-02    2.131E-02    2.138E-02    2.146E-02    2.154E-02
     2.162E-02    2.170E-02    2.178E-02    2.186E-02    2.193E-02    2.201E-02    2.209E-02    2.217E-02    2.224E-02    2.232E-02
     2.240E-02    2.248E-02    2.255E-02    2.263E-02    2.271E-02    2.278E-02    2.286E-02    2.293E-02    2.301E-02    2.309E-02
     2.316E-02    2.324E-02    2.331E-02    2.339E-02    2.346E-02    2.353E-02    2.361E-02    2.368E-02    2.375E-02    2.383E-02
     2.390E-02    2.397E-02    2.404E-02    2.412E-02    2.419E-02    2.426E-02    2.433E-02    2.440E-02    2.447E-02    2.454E-02
     2.461E-02    2.468E-02    2.475E-02    2.481E-02    2.488E-02    2.495E-02    2.502E-02    2.508E-02    2.515E-02    2.521E-02
