 LCModel (Version 6.3-1N) Copyright: S.W. Provencher.          Ref.: Magn. Reson. Med. 30:672-679 (1993).                
 Slice_N1@20_18  02-Jun-2023 14:37:29
 27 lines in following concentration table = NCONC+1
    Conc.  %SD /Cr+PCr  Metabolite                                         
 1.98E-06  17% 2.2E-04 Mac                                                 
 3.34E-02  22%   3.719 Cr                                                  
 3.85E-02  19%   4.281 PCr                                                 
 6.82E-02  11%   7.584 Ins                                                 
 8.22E-02   8%   9.141 NAA                                                 
 6.03E-02  11%   6.706 Tau                                                 
 7.86E-03  21%   0.874 PCho                                                
 3.88E-03  49%   0.432 GPC                                                 
 8.48E-02  10%   9.428 Glu                                                 
 1.09E-02  51%   1.209 Gln                                                 
 6.77E-03  91%   0.753 Ala                                                 
 1.33E-02  86%   1.482 Asc                                                 
 7.98E-03  93%   0.887 Asp                                                 
 1.20E-02  33%   1.336 GABA                                                
 6.00E-03  84%   0.667 Glc                                                 
 6.16E-03  43%   0.685 GSH                                                 
 1.41E-03 427%   0.157 Lac                                                 
 1.07E-02  35%   1.188 NAAG                                                
    0.000 999%   0.000 PE                                                  
 1.17E-02  16%   1.306 GPC+PCho                                            
 9.29E-02   8%  10.329 NAA+NAAG                                            
 9.56E-02  10%  10.637 Glu+Gln                                             
 7.19E-02   8%   8.000 Cr+PCr                                              
 9.29E-02   8%  10.329 NAA+NAAG                                            
 7.19E-02   8%   8.000 Cr+PCr                                              
 9.56E-02  10%  10.637 Glu+Gln                                             
   6 lines in following misc. output table
  FWHM = 0.012 ppm    S/N =   7                                            
  Data shift = 0.017 ppm                                                   
  Ph: -18 deg     -14.2 deg/ppm                                            
  alphaB,S = 5.8E-01,   4.6E-01                                            
   18 spline knots.   Ns = 5(1)                                            
   2 inflections.     1 extrema                                            
  654 points on ppm-axis = NY
      4.000000     3.994181     3.988363     3.982544     3.976726     3.970907     3.965088     3.959270     3.953451     3.947633
      3.941814     3.935995     3.930177     3.924358     3.918540     3.912721     3.906902     3.901084     3.895265     3.889446
      3.883628     3.877809     3.871991     3.866172     3.860353     3.854535     3.848716     3.842898     3.837079     3.831260
      3.825442     3.819623     3.813805     3.807986     3.802167     3.796349     3.790530     3.784712     3.778893     3.773074
      3.767256     3.761437     3.755619     3.749800     3.743981     3.738163     3.732344     3.726526     3.720707     3.714888
      3.709070     3.703251     3.697433     3.691614     3.685795     3.679977     3.674158     3.668339     3.662521     3.656702
      3.650884     3.645065     3.639246     3.633428     3.627609     3.621791     3.615972     3.610153     3.604335     3.598516
      3.592698     3.586879     3.581060     3.575242     3.569423     3.563605     3.557786     3.551967     3.546149     3.540330
      3.534512     3.528693     3.522874     3.517056     3.511237     3.505419     3.499600     3.493781     3.487963     3.482144
      3.476326     3.470507     3.464688     3.458870     3.453051     3.447232     3.441414     3.435595     3.429777     3.423958
      3.418139     3.412321     3.406502     3.400684     3.394865     3.389046     3.383228     3.377409     3.371591     3.365772
      3.359953     3.354135     3.348316     3.342498     3.336679     3.330860     3.325042     3.319223     3.313405     3.307586
      3.301767     3.295949     3.290130     3.284312     3.278493     3.272674     3.266856     3.261037     3.255219     3.249400
      3.243581     3.237763     3.231944     3.226125     3.220307     3.214488     3.208670     3.202851     3.197032     3.191214
      3.185395     3.179577     3.173758     3.167939     3.162121     3.156302     3.150484     3.144665     3.138846     3.133028
      3.127209     3.121391     3.115572     3.109753     3.103935     3.098116     3.092298     3.086479     3.080660     3.074842
      3.069023     3.063205     3.057386     3.051567     3.045749     3.039930     3.034111     3.028293     3.022474     3.016656
      3.010837     3.005018     2.999200     2.993381     2.987563     2.981744     2.975925     2.970107     2.964288     2.958470
      2.952651     2.946832     2.941014     2.935195     2.929377     2.923558     2.917739     2.911921     2.906102     2.900284
      2.894465     2.888646     2.882828     2.877009     2.871191     2.865372     2.859553     2.853735     2.847916     2.842098
      2.836279     2.830460     2.824642     2.818823     2.813004     2.807186     2.801367     2.795549     2.789730     2.783911
      2.778093     2.772274     2.766456     2.760637     2.754818     2.749000     2.743181     2.737363     2.731544     2.725725
      2.719907     2.714088     2.708270     2.702451     2.696632     2.690814     2.684995     2.679177     2.673358     2.667539
      2.661721     2.655902     2.650084     2.644265     2.638446     2.632628     2.626809     2.620991     2.615172     2.609353
      2.603535     2.597716     2.591897     2.586079     2.580260     2.574442     2.568623     2.562804     2.556986     2.551167
      2.545349     2.539530     2.533711     2.527893     2.522074     2.516256     2.510437     2.504618     2.498800     2.492981
      2.487163     2.481344     2.475525     2.469707     2.463888     2.458070     2.452251     2.446432     2.440614     2.434795
      2.428977     2.423158     2.417339     2.411521     2.405702     2.399884     2.394065     2.388246     2.382428     2.376609
      2.370790     2.364972     2.359153     2.353335     2.347516     2.341697     2.335879     2.330060     2.324242     2.318423
      2.312604     2.306786     2.300967     2.295149     2.289330     2.283511     2.277693     2.271874     2.266056     2.260237
      2.254418     2.248600     2.242781     2.236963     2.231144     2.225325     2.219507     2.213688     2.207870     2.202051
      2.196232     2.190414     2.184595     2.178777     2.172958     2.167139     2.161321     2.155502     2.149683     2.143865
      2.138046     2.132228     2.126409     2.120590     2.114772     2.108953     2.103135     2.097316     2.091497     2.085679
      2.079860     2.074042     2.068223     2.062404     2.056586     2.050767     2.044949     2.039130     2.033311     2.027493
      2.021674     2.015856     2.010037     2.004218     1.998400     1.992581     1.986763     1.980944     1.975126     1.969307
      1.963489     1.957670     1.951852     1.946033     1.940215     1.934397     1.928578     1.922760     1.916941     1.911123
      1.905304     1.899486     1.893667     1.887849     1.882030     1.876212     1.870393     1.864575     1.858756     1.852938
      1.847119     1.841301     1.835482     1.829664     1.823845     1.818027     1.812208     1.806390     1.800571     1.794753
      1.788934     1.783116     1.777297     1.771479     1.765660     1.759842     1.754023     1.748205     1.742386     1.736568
      1.730749     1.724931     1.719113     1.713294     1.707476     1.701657     1.695839     1.690020     1.684202     1.678383
      1.672565     1.666746     1.660928     1.655109     1.649291     1.643472     1.637654     1.631835     1.626017     1.620198
      1.614380     1.608561     1.602743     1.596924     1.591106     1.585287     1.579469     1.573650     1.567832     1.562013
      1.556195     1.550376     1.544558     1.538739     1.532921     1.527102     1.521284     1.515465     1.509647     1.503829
      1.498010     1.492192     1.486373     1.480555     1.474736     1.468918     1.463099     1.457281     1.451462     1.445644
      1.439825     1.434007     1.428188     1.422370     1.416551     1.410733     1.404914     1.399096     1.393277     1.387459
      1.381640     1.375822     1.370003     1.364185     1.358366     1.352548     1.346729     1.340911     1.335092     1.329274
      1.323455     1.317637     1.311818     1.306000     1.300182     1.294363     1.288545     1.282726     1.276908     1.271089
      1.265271     1.259452     1.253634     1.247815     1.241997     1.236178     1.230360     1.224541     1.218723     1.212904
      1.207086     1.201267     1.195449     1.189630     1.183812     1.177993     1.172175     1.166356     1.160538     1.154719
      1.148901     1.143082     1.137264     1.131445     1.125627     1.119808     1.113990     1.108171     1.102353     1.096534
      1.090716     1.084898     1.079079     1.073261     1.067442     1.061624     1.055805     1.049987     1.044168     1.038350
      1.032531     1.026713     1.020894     1.015076     1.009257     1.003439     0.997620     0.991802     0.985983     0.980165
      0.974346     0.968528     0.962709     0.956891     0.951072     0.945254     0.939435     0.933617     0.927798     0.921980
      0.916161     0.910343     0.904524     0.898706     0.892887     0.887069     0.881251     0.875432     0.869614     0.863795
      0.857977     0.852158     0.846340     0.840521     0.834703     0.828884     0.823066     0.817247     0.811429     0.805610
      0.799792     0.793973     0.788155     0.782336     0.776518     0.770699     0.764881     0.759062     0.753244     0.747425
      0.741607     0.735788     0.729970     0.724151     0.718333     0.712514     0.706696     0.700877     0.695059     0.689240
      0.683422     0.677603     0.671785     0.665967     0.660148     0.654330     0.648511     0.642693     0.636874     0.631056
      0.625237     0.619419     0.613600     0.607782     0.601963     0.596145     0.590326     0.584508     0.578689     0.572871
      0.567052     0.561234     0.555415     0.549597     0.543778     0.537960     0.532141     0.526323     0.520504     0.514686
      0.508867     0.503049     0.497230     0.491412     0.485593     0.479775     0.473956     0.468138     0.462319     0.456501
      0.450682     0.444864     0.439045     0.433227     0.427408     0.421590     0.415771     0.409953     0.404134     0.398316
      0.392497     0.386679     0.380860     0.375042     0.369223     0.363405     0.357586     0.351767     0.345949     0.340130
      0.334312     0.328493     0.322675     0.316856     0.311038     0.305219     0.299401     0.293582     0.287764     0.281945
      0.276127     0.270308     0.264490     0.258671     0.252853     0.247034     0.241216     0.235397     0.229579     0.223760
      0.217942     0.212123     0.206305     0.200486
 NY phased data points follow
  -1.20109E-01 -3.78872E-01 -2.60735E-01 -2.93722E-01 -2.39657E-01 -2.41410E-01 -2.85831E-01 -1.25757E-01 -3.12900E-01  3.25768E-01
   3.12996E-01  5.41756E-01  6.91060E-01  1.77043E-01  1.41745E-01  6.92109E-01  4.13249E-01  1.26503E-02  1.37534E-01  8.09913E-02
   1.13245E-01 -1.29734E-01 -9.69703E-02 -4.17660E-01 -4.91146E-03 -8.78628E-02 -1.86465E-02  1.82754E-01 -3.51804E-01 -8.14220E-02
  -2.72383E-01  7.19284E-02 -4.45828E-02 -4.72921E-01 -1.01769E-01 -3.86579E-01 -3.33492E-01  7.28160E-03 -1.99125E-01  1.10434E-01
   8.53088E-02  1.00674E-01  1.90928E-01  3.00813E-01  4.68823E-01  2.42748E-01  5.24399E-01  2.37924E-01  1.95289E-01  2.99840E-01
   3.22383E-01  9.10286E-02 -2.41880E-01 -3.39498E-01 -2.04090E-01  5.39572E-02 -3.22998E-01 -1.01568E-01 -6.38665E-02 -3.73100E-01
  -3.68407E-01 -1.68319E-01 -3.11294E-01 -1.84433E-01 -2.82148E-01 -1.69237E-01  4.87360E-01  1.45242E-01  5.06091E-02  2.02643E-01
   2.10932E-01  5.94349E-02  1.39512E-01  5.56019E-02  2.37808E-01  2.62953E-01 -9.86172E-02 -5.78042E-02 -4.44835E-01 -5.52065E-01
  -5.43279E-01 -2.30065E-01  8.11225E-02 -1.61036E-01  2.57627E-01  5.44984E-01  1.77850E-01  2.99525E-01  1.80584E-01  2.35209E-01
  -3.10848E-02 -4.47032E-02  5.44749E-01  1.25769E-01  1.56453E-01  9.66104E-02  2.08156E-02  1.50097E-01  4.05573E-02 -3.84294E-01
  -4.37044E-01 -1.42684E-01 -1.23692E-02  4.37599E-01  1.77597E-01  2.16744E-01  5.54156E-01  6.08915E-01  4.02391E-01  3.76017E-01
   4.35355E-01  1.97669E-01  2.31128E-01  5.37700E-02  2.58730E-01  1.62157E-01  1.09138E-01  2.07937E-01 -3.26743E-02  3.32859E-01
   1.53893E-01  3.04338E-01  2.53870E-01 -4.22506E-02 -1.07610E-01 -5.01368E-01  1.11477E-01 -3.09819E-01 -5.71953E-01 -5.15003E-01
  -1.01990E+00 -5.82576E-01 -3.94053E-01 -6.92777E-01 -6.27983E-01 -2.39011E-01 -8.25256E-01 -9.66221E-01 -4.47251E-01 -1.77681E-01
  -1.66878E-01 -6.52962E-02  1.92062E-02 -7.99517E-02 -3.16190E-02 -6.50454E-02  2.29435E-02 -1.82157E-01  1.93148E-01  7.77052E-03
   6.76029E-02  1.28310E-01 -7.19909E-02  5.23625E-01  3.05204E-01  2.93531E-01  3.17479E-01  3.08555E-01  2.98218E-01  5.07383E-01
   5.03035E-01  4.47519E-01  8.26950E-01  6.23257E-01  6.95029E-01  1.14691E+00  1.15575E+00 -6.43254E-03 -1.12709E+00 -8.58020E-01
  -7.78723E-01 -6.58230E-01 -3.03268E-01 -5.57955E-01 -4.73959E-01 -7.23295E-01 -3.05100E-01 -2.73225E-01 -6.02897E-01 -3.46922E-01
  -6.62280E-01 -2.12143E-01 -2.25375E-01 -4.12699E-01 -4.34915E-01 -1.62859E-01 -2.99600E-01 -3.54297E-01 -9.76554E-02 -1.80224E-01
  -7.47647E-03 -4.74143E-01 -1.00932E-01 -9.76349E-02 -2.23219E-01 -2.37887E-01 -1.66881E-01 -8.86551E-02 -3.47948E-02  4.31081E-01
   1.94487E-02  2.26262E-01  1.04976E-02 -2.75304E-01 -1.39791E-01 -1.19406E-01 -2.97949E-01 -5.67232E-02  3.06097E-01 -5.41623E-02
   1.54806E-01  1.55250E-01  3.52000E-02 -2.55966E-01  4.04424E-02  1.60429E-01  5.31020E-03  2.61090E-02 -8.08431E-02  6.92897E-02
  -1.80615E-01  1.99675E-02 -1.99097E-01 -1.99488E-01  1.15889E-01  3.03367E-01  2.72764E-01  1.50409E-01  2.19053E-01  1.81687E-01
   7.01085E-01  3.68456E-01 -2.56525E-02 -6.09233E-02  2.29987E-02  9.57110E-02  4.63365E-02  2.07192E-03 -2.15443E-01 -3.06895E-02
  -1.14644E-01 -3.36111E-02 -2.54286E-02 -2.97948E-01 -1.67044E-01  5.10178E-02 -6.80439E-02  1.48156E-01  2.01717E-01  6.81848E-03
   1.53093E-02  9.03404E-02  1.33812E-01 -1.58967E-01  2.47857E-01  1.31846E-02 -1.74619E-02  1.27882E-01 -2.32352E-01  1.61262E-01
   2.22954E-01  2.37696E-01 -6.27542E-02  2.20532E-01  4.11402E-01 -2.74177E-01 -2.96223E-01 -1.31226E-01  1.00746E-01  1.19106E-01
   2.16353E-01  1.18835E-01 -1.18798E-01  1.06449E-01 -2.50619E-01 -3.64238E-01 -1.91081E-01 -4.68313E-02  9.42503E-04 -3.68717E-01
  -3.29919E-01 -4.97405E-01 -5.32479E-01 -2.07984E-01  5.41883E-02  3.33626E-01  3.61272E-01  3.33495E-01  6.47294E-01  6.77472E-01
   3.68071E-01  2.85606E-01  1.57665E-01  2.44231E-01  3.02960E-01  2.50671E-01  1.56014E-01  2.46783E-01  1.39524E-01  1.30603E-02
   1.34314E-01  8.81504E-02  2.71430E-02  5.57006E-03  2.63928E-01  3.02120E-01  3.16302E-01  5.37581E-01  5.41006E-01  1.94092E-01
   2.64563E-01  3.49509E-01  4.13879E-01  3.68477E-01  1.11720E-01  1.30509E-01  4.22369E-02 -5.75789E-03 -1.58740E-01  2.00803E-01
   3.65188E-02 -2.35805E-01 -2.24951E-01 -1.44503E-01 -1.86383E-01 -1.02850E-01  3.69162E-01  1.29070E-01  2.46294E-01  1.38872E-01
   2.16884E-01  1.11872E-01 -9.38196E-02 -1.15295E-01 -1.39207E-01 -1.75714E-01 -6.03995E-01 -5.49728E-01 -3.30996E-01 -1.85215E-01
  -1.93182E-01 -2.94988E-01 -2.52997E+00 -2.68620E+00 -3.36203E-01 -5.17124E-01 -3.37864E-01 -8.07837E-02 -1.67640E-01  2.66174E-01
   2.55558E-01  3.37628E-01  4.03152E-01  3.17125E-01  1.82968E-01  1.52183E-01  1.89280E-01  8.45524E-02  2.75970E-01  2.85244E-01
   2.75176E-01  1.21842E-01  2.69024E-01  2.06501E-01 -3.57473E-01 -1.86153E-02  4.50395E-03 -2.84421E-02 -2.31996E-01  5.11421E-02
   1.54584E-01 -1.47208E-01  1.82304E-01 -2.49348E-01 -2.28907E-01  1.19398E-01  1.83347E-01  2.15379E-01 -4.33460E-02  3.88247E-02
   1.77868E-01 -8.06262E-02  4.96109E-02  1.85860E-01  1.64696E-01  3.52530E-03  1.64770E-01  5.89837E-02 -1.30978E-01  2.78653E-01
  -1.74020E-01 -6.73570E-03  1.27039E-02  9.29771E-02  2.86198E-01 -1.52611E-02  2.47906E-01  2.41735E-01  3.30122E-01  2.68862E-02
  -7.06795E-02  1.59297E-01 -1.34005E-01 -7.65511E-03  1.81333E-01 -1.27607E-01 -4.97795E-02 -1.38785E-02  3.86876E-02 -8.41743E-02
  -2.09735E-01  1.76737E-01  1.57534E-01 -7.58630E-02 -4.57092E-01 -1.27618E-01  1.53952E-01 -1.82365E-01 -3.83541E-01 -3.04862E-01
  -2.26859E-01 -1.48201E-01  5.17140E-02 -3.69499E-01 -2.40078E-01  5.91460E-02 -2.51443E-01 -1.32887E-01  2.17924E-02 -2.73986E-03
  -6.37872E-03 -7.08655E-02 -8.10581E-03 -4.15360E-02 -7.39698E-02  3.07993E-02  4.22326E-01  2.00305E-01 -2.22469E-01 -9.01276E-02
   7.69651E-02  2.77971E-01 -5.78621E-02  4.47265E-02  2.34084E-01  1.85565E-01 -3.63196E-02  3.47542E-01  3.84074E-01 -1.37539E-01
   4.38669E-01  1.44682E-01  1.45710E-01  1.86718E-01  1.03065E-01  1.48528E-01 -1.47730E-01 -1.78263E-01 -3.83006E-01 -1.84883E-01
   3.18696E-02  3.06409E-01  1.57560E-01  8.06633E-02  7.27550E-02 -2.06730E-01  1.37989E-02 -1.73072E-01 -3.01729E-01 -1.29600E-01
  -3.60113E-01 -6.48531E-02 -1.90799E-02 -3.47747E-01 -2.15589E-02 -1.17448E-01 -1.95857E-01 -2.41275E-01  8.33393E-02  9.75722E-02
  -4.62534E-01  5.33195E-02  8.17488E-02  5.17601E-02  1.98295E-01  2.61755E-03  1.78905E-01  6.82987E-03  1.50617E-02 -7.26739E-03
  -5.94708E-02 -9.18134E-03  5.15734E-02  3.52260E-01  9.59343E-02  9.41887E-02  1.78948E-01  1.42565E-01  1.85500E-01  1.26074E-01
  -1.05138E-01 -7.99968E-02  1.34344E-01 -7.57181E-02  1.27721E-01  1.23182E-01  1.52068E-01 -4.81889E-02  1.50303E-02  1.90141E-01
   1.61787E-01  3.96426E-01  1.29083E-01  3.60982E-01  2.23221E-02 -1.12524E-02  1.40743E-01 -2.35425E-02  1.43560E-01 -3.64789E-02
   2.05868E-02 -8.99476E-02 -2.82444E-02 -1.23506E-01 -2.90979E-01 -3.11843E-01 -2.88878E-01 -4.28108E-01 -6.92070E-01 -5.75338E-01
  -5.28196E-01 -3.38651E-01 -2.01635E-01 -1.58614E-02  8.74379E-02 -2.18659E-01 -2.43061E-01 -3.93082E-02 -3.11376E-02 -9.32427E-02
  -3.11496E-01 -2.43179E-01 -1.89095E-01 -1.47306E-01  1.12323E-01 -6.84532E-02 -9.25239E-03  2.32997E-01  1.46200E-01 -1.91760E-02
   2.80486E-02 -7.20040E-02  5.48588E-02  2.50542E-01  1.16809E-01  3.17549E-01  3.76364E-01 -7.92019E-02 -1.64781E-01  3.21516E-01
   1.39657E-01  4.62422E-01  4.17698E-01 -2.03642E-03  3.24173E-01 -1.15377E-01  1.53867E-01  2.53826E-01  1.23089E-01  2.75901E-01
   1.36869E-01  2.18085E-01  9.58982E-02  6.41538E-02 -9.76162E-02  7.66888E-02 -3.86100E-02 -1.08137E-02 -7.77178E-02 -3.74548E-01
   1.79989E-01  1.15334E-01  2.35813E-02  3.67040E-02  1.02881E-01  2.95322E-02 -9.93233E-02 -7.07676E-02 -2.49431E-02  2.70560E-01
  -1.07968E-01 -1.87109E-01 -1.73977E-01 -2.04272E-01 -9.32886E-02  5.81745E-02 -3.30734E-02 -2.15895E-01  1.60309E-01 -9.04090E-02
   1.70408E-03 -2.67661E-02 -2.41865E-01  1.51369E-02 -3.04964E-02 -3.85888E-02 -1.04330E-01  6.61897E-02  1.55799E-01  2.92380E-01
   2.46636E-01 -1.84169E-01 -2.05518E-01 -2.39042E-01 -7.40166E-02  9.73367E-02 -2.82333E-01 -8.82496E-02  2.30909E-01  1.66860E-02
  -9.77133E-03  8.04818E-02  9.87759E-02 -1.45208E-01 -2.42855E-02  1.06283E-01 -7.78480E-02 -9.90348E-02 -7.66686E-02  8.30330E-02
  -4.15536E-02 -2.21788E-01 -1.40578E-01  8.86595E-02 -2.58198E-02 -2.62174E-01 -1.77673E-01 -4.60161E-02 -5.05608E-02 -1.40234E-01
  -3.53476E-02  4.84346E-02  8.18754E-02 -2.54213E-01 -1.03671E-01  1.82367E-01  6.41199E-02  1.58633E-01 -2.78828E-02  1.07962E-01
   3.08289E-02 -9.64971E-02 -3.98000E-02 -1.29839E-01
 NY points of the fit to the data follow
  -5.12062E-03 -1.07402E-02 -2.79952E-02 -4.16580E-02 -3.75446E-02 -2.95071E-02 -1.69242E-02  3.25257E-02 -2.33700E-03  5.32982E-02
   5.01906E-02  5.95484E-01  7.62778E-01  2.36188E-01  1.67754E-01  6.80349E-01  6.09817E-01  1.17167E-01  1.18623E-01  1.04117E-01
   7.79702E-03 -1.22449E-02 -3.83799E-02 -6.03978E-02 -8.42907E-02 -1.01197E-01 -1.20912E-01 -1.35229E-01 -1.40536E-01 -1.51575E-01
  -1.68072E-01 -1.69926E-01 -1.80981E-01 -2.08043E-01 -2.37994E-01 -2.41785E-01 -2.77518E-01 -2.70174E-01 -2.76826E-01 -1.81757E-01
  -3.24073E-03 -1.12871E-02  1.73261E-01  2.88856E-01  3.54816E-01  3.77550E-01  2.54889E-01  1.79367E-01  1.27670E-01  1.24177E-01
   6.83975E-02  1.41210E-02  9.25111E-03 -2.58207E-02 -6.26861E-02 -1.06165E-01 -1.48275E-01 -1.75816E-01 -1.76102E-01 -2.03316E-01
  -2.83658E-01 -3.25187E-01 -3.56220E-01 -1.73899E-01 -2.90214E-01 -2.39804E-01  2.96186E-01  6.40040E-02  1.19983E-01  5.19870E-01
   3.29862E-01  2.18390E-01  2.06927E-01  1.17023E-01  4.78148E-02 -3.48650E-02 -7.28013E-02 -1.54813E-01 -2.79791E-01 -5.89618E-01
  -5.61820E-01 -7.92064E-03 -4.31722E-02 -7.25759E-02  3.61335E-01  4.22857E-01  3.16308E-01  3.08049E-01  2.74240E-01  2.36533E-01
   2.01510E-01  1.83552E-01  1.46387E-01  9.80295E-02  6.95856E-02 -1.89160E-02 -5.75138E-02 -3.19543E-01 -3.35743E-01 -4.87656E-01
  -3.92879E-01 -7.95415E-02  2.09352E-02  2.33795E-01  2.64536E-01  2.35001E-01  2.52456E-01  2.45088E-01  2.41441E-01  2.38709E-01
   2.42713E-01  2.42106E-01  2.37605E-01  2.36420E-01  2.36190E-01  2.36432E-01  2.37351E-01  2.34182E-01  2.19972E-01  2.28308E-01
   2.01677E-01  1.86906E-01  2.55843E-02 -1.43460E-02  2.19251E-02 -2.66192E-01 -5.00988E-02 -3.25147E-01 -4.54988E-01 -5.88859E-01
  -7.18709E-01 -4.27617E-01 -4.82851E-01 -1.30631E-01 -3.11061E-01 -3.89352E-01 -7.63444E-01 -1.01276E+00 -3.60318E-01 -2.20200E-01
  -1.99590E-01 -4.47481E-02 -1.30322E-02  1.44430E-02  4.21095E-02  6.93774E-02  8.97092E-02  1.09479E-01  1.28753E-01  1.41867E-01
   1.59546E-01  1.76707E-01  1.91625E-01  2.09498E-01  2.28820E-01  2.51381E-01  2.76787E-01  3.06967E-01  3.37890E-01  3.74996E-01
   4.34083E-01  5.24230E-01  5.76297E-01  5.80627E-01  7.05806E-01  9.88903E-01  1.13948E+00 -1.15907E-01 -1.24369E+00 -9.51532E-01
  -6.61086E-01 -6.60372E-01 -5.60781E-01 -4.52040E-01 -4.47419E-01 -4.07534E-01 -3.43819E-01 -3.14470E-01 -3.07092E-01 -2.96273E-01
  -2.59954E-01 -2.36355E-01 -2.31411E-01 -2.14730E-01 -2.05751E-01 -2.00832E-01 -1.88137E-01 -1.73573E-01 -1.65102E-01 -1.61494E-01
  -1.49583E-01 -1.38509E-01 -1.30669E-01 -1.20168E-01 -1.10506E-01 -1.04335E-01 -9.59616E-02 -8.48922E-02 -7.87472E-02 -7.25709E-02
  -6.58815E-02 -5.06981E-02 -3.61906E-02 -4.08466E-02 -5.20359E-02 -5.54746E-02 -3.87487E-02 -1.99146E-02 -2.66388E-02 -4.84450E-02
  -5.61612E-02 -4.91670E-02 -4.33566E-02 -4.23276E-02 -3.47814E-02 -2.92390E-02 -7.75977E-03  1.14155E-02 -7.85174E-03 -2.71058E-02
   1.07026E-03  2.56109E-02  4.79849E-02  2.73324E-02  1.20546E-01  3.07458E-01  3.03165E-01  1.80871E-01  8.67858E-02  2.86108E-01
   5.75602E-01  3.52241E-01  9.19567E-02  8.67187E-02  2.16131E-02 -2.60403E-02 -2.71769E-02 -3.82385E-02 -4.50675E-02 -5.52445E-02
  -6.52811E-02 -7.18795E-02 -7.46338E-02 -8.00066E-02 -8.14540E-02 -9.06781E-02 -8.98946E-02 -9.40898E-02 -1.00613E-01 -1.01511E-01
  -1.12404E-01 -1.01222E-01 -1.05460E-01 -1.42095E-01 -1.27473E-01 -1.83088E-01 -2.20990E-02  1.46458E-01 -1.06480E-01  8.54412E-02
   2.20052E-01  1.42293E-01  1.78314E-01  6.35290E-02  1.76814E-01  1.87495E-01  1.05970E-01  9.73048E-02  9.71794E-02  9.12633E-02
   4.85899E-02  3.38944E-02 -6.27186E-03 -4.21247E-02 -7.24533E-02 -1.15997E-01 -1.66653E-01 -1.98592E-01 -2.70192E-01 -3.07094E-01
  -4.27025E-01 -4.70534E-01 -3.48357E-01 -3.39321E-01 -4.30264E-02  2.10739E-01  2.85722E-01  5.02880E-01  4.71507E-01  3.51677E-01
   3.35012E-01  2.53887E-01  2.21041E-01  2.07700E-01  1.75324E-01  2.31856E-01  2.45959E-01  2.50330E-01  2.84656E-01  2.63726E-01
   2.53120E-01  2.48202E-01  2.32418E-01  2.27364E-01  2.18045E-01  2.05485E-01  1.92309E-01  1.76634E-01  1.51981E-01  1.09462E-01
   1.09990E-01  5.38030E-02  5.94791E-02  7.04460E-02  4.09393E-02  5.25857E-02 -6.70328E-03 -5.64953E-02 -1.13021E-01 -1.41708E-01
  -1.93367E-01 -2.13965E-01 -2.11866E-01 -2.24509E-01 -1.71636E-01 -9.42410E-02  9.70180E-03  7.64228E-02  1.14931E-01  1.07915E-01
   4.07236E-02  2.46477E-02 -1.46178E-01 -1.01148E-01 -1.92383E-01 -1.89797E-01 -4.27340E-01 -4.91358E-01 -2.81996E-01 -1.45927E-01
  -1.81011E-01 -3.21667E-01 -2.45562E+00 -2.56348E+00 -5.25855E-01 -5.18153E-01 -4.64594E-01 -8.51354E-02 -9.26008E-02 -6.62208E-02
  -3.98196E-02 -1.58642E-02  2.84609E-03  1.55757E-02  2.82932E-02  3.91098E-02  4.84808E-02  5.40214E-02  4.60748E-02  5.09965E-02
   3.60168E-03  2.40953E-03 -3.77716E-02 -7.13219E-02 -6.00815E-02 -7.55755E-02 -4.96340E-02 -3.26267E-02 -2.03710E-02 -2.45385E-03
   7.57485E-03  2.04730E-02  3.36153E-02  4.04488E-02  4.26806E-02  4.98328E-02  5.42037E-02  6.00074E-02  6.57690E-02  6.82064E-02
   6.99393E-02  7.38016E-02  7.82222E-02  8.18667E-02  8.55186E-02  8.70469E-02  8.76911E-02  8.80105E-02  9.37782E-02  9.66567E-02
   9.98601E-02  1.04554E-01  1.05044E-01  1.03596E-01  1.01640E-01  9.94299E-02  9.75668E-02  9.57136E-02  9.33426E-02  8.82259E-02
   8.27439E-02  7.83825E-02  7.31584E-02  6.42811E-02  5.74150E-02  5.42681E-02  4.92220E-02  4.29874E-02  3.68707E-02  3.37635E-02
   2.77920E-02  2.44090E-02  2.34768E-02  1.83069E-02  1.52524E-02  1.36129E-02  8.79064E-03  6.34338E-03  5.00277E-03  3.26912E-03
   2.55564E-03 -4.88053E-04 -4.63869E-04  2.88827E-03  2.88772E-03  4.75895E-03  9.49923E-03  1.19474E-02  1.85074E-02  3.03233E-02
   3.68752E-02  4.00650E-02  5.02804E-02  8.32576E-02  1.44677E-01  1.34477E-01  1.46081E-01  1.34135E-01  6.88815E-02  7.29426E-02
   8.31290E-02  8.36132E-02  9.47507E-02  1.05309E-01  1.15154E-01  1.23826E-01  1.36102E-01  1.43537E-01  1.49213E-01  1.52689E-01
   1.53136E-01  1.54282E-01  1.53569E-01  1.51734E-01  1.50635E-01  1.45872E-01  1.41484E-01  1.29588E-01  1.20559E-01  1.08783E-01
   1.19501E-01  1.15557E-01  1.08654E-01  1.06528E-01  8.15925E-02  7.26905E-02  6.67973E-02  5.56521E-02  4.93083E-02  4.47702E-02
   4.05069E-02  3.58739E-02  3.19687E-02  2.81534E-02  2.79116E-02  3.18476E-02  3.22102E-02  3.22091E-02  3.77687E-02  4.00944E-02
   4.33070E-02  5.01624E-02  5.47535E-02  5.81397E-02  6.07216E-02  6.37956E-02  6.42330E-02  6.45235E-02  6.75556E-02  7.15656E-02
   7.34726E-02  7.12229E-02  7.13189E-02  6.89220E-02  6.80456E-02  6.55381E-02  5.95745E-02  5.80474E-02  5.58331E-02  5.31698E-02
   4.97397E-02  4.63850E-02  4.39326E-02  4.00401E-02  3.70558E-02  3.38029E-02  2.78210E-02  2.59309E-02  2.62305E-02  2.23295E-02
   1.82510E-02  1.58247E-02  1.30911E-02  7.35626E-03 -1.35199E-03 -7.79806E-03 -1.42197E-02 -2.17539E-02 -2.90129E-02 -4.28515E-02
  -5.81485E-02 -7.46232E-02 -8.89143E-02 -1.02403E-01 -1.18928E-01 -1.34120E-01 -1.45864E-01 -1.55891E-01 -1.67840E-01 -1.79209E-01
  -1.84136E-01 -1.82920E-01 -1.84099E-01 -1.87054E-01 -1.83999E-01 -1.76033E-01 -1.71591E-01 -1.66261E-01 -1.60177E-01 -1.56214E-01
  -1.52731E-01 -1.45079E-01 -1.36251E-01 -1.31050E-01 -1.22426E-01 -1.11647E-01 -1.02872E-01 -9.51216E-02 -8.57521E-02 -7.63681E-02
  -7.16689E-02 -6.31703E-02 -5.10350E-02 -4.68567E-02 -4.35688E-02 -3.72847E-02 -2.98335E-02 -2.15307E-02 -2.07772E-02 -2.10489E-02
  -1.22279E-02 -9.23732E-03 -9.44594E-03 -4.57081E-03 -5.39489E-03 -4.12657E-03  3.77254E-04  1.00854E-04 -1.99289E-03 -1.74425E-03
   2.97146E-03  3.50667E-03  3.86841E-03  8.52833E-03  9.89090E-03  8.57912E-03  8.15058E-03  9.79380E-03  8.83129E-03  6.77797E-03
   8.99818E-03  8.14847E-03  5.66525E-03  6.86548E-03  6.71253E-03  5.90948E-03  6.16949E-03  7.18168E-03  1.00636E-02  7.77502E-03
  -1.02144E-03 -1.07170E-03  4.52539E-03  2.22708E-03 -2.71170E-04 -8.96837E-04  1.79600E-03  3.50391E-04 -4.84074E-03 -5.26881E-03
  -2.43279E-03 -1.01569E-04 -1.88890E-03 -2.26648E-03 -1.16290E-03 -6.97135E-04  6.48659E-04  1.03343E-03 -5.64993E-04  1.53590E-03
   2.67116E-03  4.90765E-04 -3.35046E-03 -3.63312E-03 -1.92396E-03 -3.48579E-03 -1.85853E-03 -3.87048E-04 -1.82804E-04 -1.08884E-03
  -2.90435E-03  2.77554E-04  3.21366E-03  3.60841E-03  5.08183E-03  1.49373E-03 -2.04078E-03 -1.55752E-03 -1.06792E-03  7.75694E-04
   8.84645E-04 -2.95487E-03 -3.71023E-03 -3.45799E-03 -4.40596E-03 -2.45133E-03 -4.63509E-03 -8.33428E-03 -5.87250E-03 -2.34570E-03
  -4.97324E-03 -7.42862E-03 -5.09601E-03 -6.26493E-03 -5.50880E-03 -6.25037E-03 -7.48152E-03 -2.51407E-03  1.30532E-04  5.18527E-04
   8.89483E-04  8.53163E-04  2.12706E-03 -1.09116E-04
 NY background values follow
    -1.524E-02   -1.484E-02   -1.445E-02   -1.406E-02   -1.367E-02   -1.328E-02   -1.289E-02   -1.249E-02   -1.210E-02   -1.171E-02
    -1.132E-02   -1.093E-02   -1.054E-02   -1.015E-02   -9.755E-03   -9.364E-03   -8.973E-03   -8.583E-03   -8.193E-03   -7.803E-03
    -7.414E-03   -7.025E-03   -6.636E-03   -6.247E-03   -5.859E-03   -5.471E-03   -5.084E-03   -4.697E-03   -4.310E-03   -3.924E-03
    -3.538E-03   -3.153E-03   -2.768E-03   -2.384E-03   -2.000E-03   -1.617E-03   -1.234E-03   -8.520E-04   -4.705E-04   -8.964E-05
     2.906E-04    6.702E-04    1.049E-03    1.427E-03    1.805E-03    2.182E-03    2.558E-03    2.933E-03    3.308E-03    3.682E-03
     4.055E-03    4.427E-03    4.798E-03    5.169E-03    5.539E-03    5.908E-03    6.276E-03    6.643E-03    7.010E-03    7.375E-03
     7.740E-03    8.104E-03    8.467E-03    8.828E-03    9.189E-03    9.549E-03    9.909E-03    1.027E-02    1.062E-02    1.098E-02
