 
 $NMID
 ID=''
 FMTDAT='(2E13.5)'
 TRAMP=   1.00000E+0
 VOLUME=   1.00000E+0
 $END
   4.00516E+2  -5.14441E+2
   3.34328E+2   2.38728E+3
   4.88544E+3  -5.65696E+3
   4.08485E+2  -1.63463E+3
  -3.43166E+3  -2.09893E+3
  -1.60198E+3   1.78278E+3
  -1.75465E+3   1.39845E+3
  -1.38431E+3  -1.35890E+3
  -1.60204E+2  -5.30303E+3
   1.78847E+3  -2.12013E+3
   1.27269E+3  -1.17969E+0
   1.78920E+3   5.09173E+3
  -4.65909E+3   1.78108E+3
  -1.98351E+3   5.11264E+1
   9.86977E+2  -1.67843E+3
  -6.77672E+2   3.25778E+2
   3.19010E+3   4.20903E+2
   2.11189E+3   3.03648E+2
   2.93353E+3   1.06785E+3
   1.43987E+3  -1.15077E+3
   1.70384E+3  -1.20144E+3
   4.22429E+3   2.32655E+3
  -8.69055E+2  -9.75894E+2
  -2.79944E+3  -2.99400E+3
   2.68573E+3  -4.57005E+3
  -3.46272E+2   1.57473E+3
  -4.07270E+3  -7.23050E+2
  -2.65373E+3  -4.26601E+3
   1.51986E+3  -4.36536E+3
   1.91937E+3   1.23044E+2
   2.81253E+2   5.74048E+3
  -6.34658E+3   5.75943E+3
  -3.88451E+3   8.16395E+2
  -2.40555E+3   1.84831E+2
  -1.02645E+3  -1.25299E+2
  -8.65123E+2  -1.15823E+3
   2.36728E+3  -1.88638E+3
   3.28784E+3   2.99529E+3
   2.87386E+2   2.15093E+3
  -2.61741E+3   1.98735E+3
  -2.65658E+3   3.20130E+3
  -1.73448E+3  -2.40884E+3
   1.68327E+3  -3.00968E+3
   2.80747E+3   5.71623E+2
   2.46605E+3   1.68278E+3
   1.39744E+3   1.47285E+3
   1.32389E+3   1.77497E+3
  -6.43625E+2   1.79462E+3
   2.05496E+2   2.22201E+2
  -2.08567E+3  -1.31685E+1
  -1.69879E+3  -2.30748E+3
   5.49882E+2  -2.12957E+3
   2.61064E+3  -4.48774E+2
   2.59310E+3   2.95675E+3
  -5.82176E+2   2.89815E+3
  -1.50689E+3   2.26830E+3
  -3.23061E+3   1.34869E+3
  -3.49120E+3  -2.96630E+3
  -1.46316E+3  -4.73065E+3
   2.77073E+3  -3.72941E+3
   2.15519E+3   1.60555E+2
   2.95381E+2   1.16423E+3
  -1.32605E+3   1.02206E+3
  -1.48574E+3  -2.83940E+3
   2.01485E+2  -1.91259E+3
   2.18114E+3  -5.55211E+2
   4.25928E+2  -4.56841E+1
  -3.76699E+3   4.24401E+2
   1.01342E+3  -3.50773E+3
   2.26192E+3  -1.43739E+3
  -5.40517E+2   7.93216E+2
   4.40465E+2  -1.10580E+3
   4.03619E+2  -2.19944E+3
   9.02060E+2  -3.20484E+3
   1.78790E+2  -1.19176E+3
   1.22910E+3   1.86057E+3
   7.47259E+2  -2.05817E+3
   2.39269E+3  -2.47390E+3
   2.93247E+3  -9.70168E+2
   1.70641E+3  -4.88767E+2
  -2.46792E+3  -3.81387E+2
  -1.47607E+3   6.92552E+2
   1.85459E+3   1.11979E+3
  -5.04270E+1   1.82927E+3
  -1.08476E+3   9.75549E+2
  -1.63079E+3  -1.48843E+3
   1.00381E+3  -2.69787E+3
   4.65829E+3  -2.18616E+3
   3.77614E+3   1.86875E+3
  -1.84610E+3   1.26028E+2
  -1.20749E+2  -2.52048E+2
   9.85335E+2   9.79977E+2
   5.48910E+2   2.93878E+3
  -2.17370E+3   4.16365E+2
  -2.53871E+3  -5.62971E+2
   1.19782E+3  -8.21705E+2
   2.24225E+3  -2.69776E+2
  -7.27015E+2   4.13108E+3
  -1.42291E+3   1.38482E+3
  -1.72540E+3  -2.96330E+3
   2.39377E+3  -2.91577E+3
   4.14951E+3  -1.13628E+3
   1.73596E+3   3.41090E+3
  -2.86130E+3   1.87732E+3
  -7.46993E+2   2.07086E+3
  -1.26997E+3   3.49118E+2
  -1.61454E+3   1.26437E+3
  -6.54074E+2   1.24726E+3
   3.88368E+2  -1.32427E+3
   1.22465E+3   9.50349E+2
   4.31530E+3   1.10432E+3
  -3.88701E+2   2.73267E+3
  -5.14521E+2   2.80720E+3
  -8.74755E+2   5.23289E+1
  -8.06354E+2   2.20019E+3
  -1.62947E+3  -1.25075E+3
  -1.27281E+3   1.00744E+3
   9.21004E+2  -1.03353E+3
  -1.05682E+3  -9.08302E+1
   2.91929E+2  -1.90558E+2
  -1.14722E+3  -2.05518E+2
  -1.19432E+3  -8.12083E+2
   1.16460E+3  -5.53491E+2
   1.24916E+3   1.04954E+3
  -8.15614E+1   4.40552E+2
  -2.16214E+3   3.52721E+2
   1.69226E+2   1.89321E+3
   1.73548E+3  -1.83153E+2
   2.33719E+3  -7.96504E+2
  -1.84306E+2   8.23652E+2
  -9.51880E+2  -2.34536E+3
   2.60361E+3  -1.14684E+3
   3.49795E+3  -2.25329E+3
  -1.71560E+2   4.85047E+3
  -3.75500E+2   3.48846E+3
  -9.75163E+1  -1.02196E+3
  -7.96987E+1  -1.24531E+3
  -1.72690E+2   2.08085E+2
  -1.21066E+3   3.08182E+2
   7.30588E+2   1.76996E+3
  -2.05299E+3   3.15495E+2
  -8.81685E+2  -1.66248E+2
   2.72029E+2   7.07157E+2
  -1.70890E+3   3.21790E+3
  -5.24411E+2   6.71176E+1
   1.93579E+3  -2.95942E+2
   5.50134E+2   1.17215E+2
  -6.99274E+2  -5.76740E+2
   2.11865E+0   4.79702E+2
  -2.84406E+3   7.62131E+1
  -1.35182E+3  -1.19151E+3
  -2.51035E+3  -6.78647E+2
  -9.93016E+1   2.87605E+2
   1.82111E+3  -1.07587E+3
  -4.93605E+2  -6.23848E+2
  -1.38506E+3   7.59504E+2
   9.20325E+2   9.66888E+2
  -6.30894E+2  -6.60034E+2
   6.91185E+2   3.78678E+2
  -5.76688E+2   2.37962E+2
   2.76220E+3   6.53227E+2
   4.55109E+1  -4.34074E+2
  -8.34436E+1  -4.41281E+2
  -9.60741E+2   1.82085E+3
  -7.00867E+2   9.74292E+2
  -1.55003E+1  -5.84647E+2
   1.71952E+2   9.54398E+2
   3.10757E+3   8.06291E+2
   4.82447E+2   3.12511E+3
   1.96120E+2   1.97216E+3
  -7.51751E+2  -3.47429E+2
  -8.04701E+2  -2.11489E+2
   2.61418E+2  -2.43691E+3
   2.37120E+2  -1.84228E+3
   1.68382E+2  -8.80080E+2
  -3.92930E+1   7.62743E+2
   4.07736E+2  -9.74673E+2
  -1.85989E+3  -1.09260E+2
   7.53406E+2   2.55663E+2
  -9.53248E+2   1.61986E+3
   6.10293E+2   2.84628E+2
   1.61336E+3  -9.36448E+2
   2.04905E+2  -2.48725E+3
   1.34251E+3  -1.23728E+3
  -1.38044E+3  -6.30775E+2
  -7.26534E+2  -6.47395E+2
  -9.42732E+2   1.71714E+3
  -1.12650E+2  -2.95892E+2
  -1.69132E+3  -2.08402E+3
  -3.10498E+2  -1.64721E+2
   4.78283E+1  -1.04159E+3
   5.80861E+2   8.22573E+2
   4.86571E+2   5.42622E+2
  -3.01987E+2  -8.80739E+2
   5.90356E+2  -1.62429E+3
   6.09394E+2  -4.16063E+2
   2.43578E+2   1.67770E+3
  -2.25377E+3  -5.18065E+2
  -1.35550E+3   1.43616E+3
   2.74881E+2  -2.15165E+2
  -9.07948E+2   1.69779E+3
  -8.01279E+1   2.41142E+2
  -7.51041E+2  -1.78266E+3
   1.31158E+3  -1.46966E+3
  -4.81895E+2   1.77675E+2
   2.61574E+2  -1.56645E+3
  -5.81668E+2   1.23726E+3
   2.60710E+2   1.78328E+2
  -1.20760E+2   5.17324E+2
  -5.22905E+2   5.87180E+2
  -3.58003E+3   1.47314E+3
  -1.31574E+3  -9.92674E+2
   3.60032E+2   7.14822E+2
   1.86577E+3   5.25510E+2
  -1.17622E+3   7.91041E+2
  -1.14854E+3   9.70081E+2
  -1.39175E+3   2.21998E+1
  -2.22624E+2  -7.27028E+2
  -1.04081E+3   7.40340E+2
   2.50934E+2   9.01524E+1
   2.58764E+2  -1.03154E+3
  -7.70696E+2  -1.49878E+3
  -5.82801E+1   4.84367E+2
  -7.80998E+2  -3.12415E+2
  -1.47017E+3   1.05877E+3
   1.49646E+1   1.31482E+3
   3.44726E+2   2.71374E+2
  -9.51673E+2  -1.56670E+3
  -1.64045E+3   1.21543E+3
  -2.67122E+3  -3.16956E+2
  -2.45803E+3  -7.80145E+1
  -6.22179E+2   5.77074E+2
   1.07360E+2  -3.61662E+2
   1.15444E+2  -5.13568E+2
   7.76560E+2   1.40848E+1
  -1.95543E+3   2.38398E+3
  -6.94433E+2   2.27728E+3
  -1.23870E+3  -2.63707E+3
  -2.40530E+3  -1.03011E+3
   1.05855E+2   4.63478E+2
  -1.19153E+3   1.09517E+3
   2.89925E+2   1.15275E+3
   2.31622E+2   8.28098E+2
  -4.75745E+2  -1.38835E+3
   7.58980E+2  -1.04247E+3
   9.52135E+2  -1.78502E+3
   1.02008E+3  -3.04889E+2
   1.42861E+3  -1.21213E+3
   3.54086E+2  -1.01172E+2
   8.61196E+2   2.86623E+2
   4.73091E+2  -2.17022E+2
  -6.51184E+2   2.49745E+1
  -1.02740E+3  -1.00573E+3
   8.70550E+2  -6.45396E+1
   6.84320E+2   3.10518E+2
  -6.63621E+1  -2.15773E+3
  -1.20980E+3   4.40690E+2
   1.30793E+3  -1.20103E+3
   9.11000E+2   2.98352E+2
  -1.84893E+3  -1.03679E+3
   2.18018E+2   5.46730E+1
   1.31959E+3   6.85808E+2
   7.35739E+2  -3.78185E+2
  -1.02647E+2  -1.10281E+3
   9.14786E+2  -1.74405E+3
  -1.23188E+3  -1.05090E+2
   1.11394E+1   4.97090E+2
   1.72886E+3   9.08248E+2
  -1.47503E+3  -2.85869E+3
  -1.15821E+3  -4.29648E+2
   1.10864E+3  -1.77132E+3
   1.32978E+2   2.28573E+2
  -6.77999E+2   4.56667E+2
  -1.54934E+3   4.40665E+2
   2.14476E+3  -1.69921E+3
  -6.30542E+2   1.71597E+3
  -7.08275E+2  -5.27652E+2
   3.11883E+2  -1.39053E+3
   9.05839E+2   7.95484E+2
  -2.35476E+2  -5.70272E+2
   1.14759E+3  -6.21821E+2
  -2.57341E+2   5.55956E+1
   3.41890E+2  -6.57608E+2
  -1.71109E+0   8.73025E+1
   1.22420E+3   1.04953E+3
   2.10379E+2  -1.32764E+3
  -1.18987E+3   2.87038E+2
   1.88748E+3   1.10507E+3
   1.59337E+1   5.99364E+2
  -1.68267E+3   1.99187E+2
   8.50341E+2   7.58175E+2
   1.10498E+3   1.05423E+3
   6.68758E+2   5.59893E+2
   2.06039E+2   1.09505E+3
   7.77382E+1   1.02083E+3
  -1.21057E+3   1.36019E+3
  -2.63312E+2  -5.56549E+2
  -3.68132E+2  -9.33036E+0
   1.57300E+3  -4.04869E+1
  -3.36665E+2   5.91778E+2
   8.52931E+2   2.05502E+2
   1.06774E+2  -1.02737E+3
  -4.36822E+2  -8.72438E+2
  -1.72058E+3  -1.24711E+3
  -1.39761E+3   1.38824E+3
   1.15278E+3  -1.71322E+3
   2.42526E+2  -1.17136E+3
   5.50559E+2   1.28484E+3
   6.80441E+2  -2.39293E+2
  -1.17016E+3  -1.18097E+3
   5.93742E+2  -3.41603E+2
   1.46386E+3   1.94336E+2
  -6.08940E+2   1.22333E+3
  -2.62802E+2  -7.34631E+2
  -2.02764E+3  -1.06371E+3
   1.41035E+3  -4.02355E+2
   1.25228E+3  -3.51207E+2
   2.67321E+2   3.32828E+2
  -2.62869E+2   8.22564E+2
  -8.81026E+2  -1.27644E+2
  -1.06634E+3  -1.69592E+3
   1.39151E+3  -6.73891E+2
   4.87606E+2  -1.45756E+3
  -2.18617E+2  -9.74820E+1
   9.29263E+2  -7.65176E+2
   1.03241E+3  -4.15057E+1
  -1.36081E+2  -2.28018E+3
  -3.47960E+1  -2.87857E+2
  -1.40282E+3  -2.58815E+3
   9.79976E+1   1.30735E+3
  -1.95919E+3  -1.18805E+3
  -4.66017E+2  -2.97029E+2
  -4.14037E+2   1.65857E+2
  -1.80823E+3  -3.39888E+2
   3.27897E+2   2.18750E+3
   3.15122E+3   1.04616E+2
   6.29877E+2  -1.49255E+3
   1.96529E+3   1.12396E+3
   8.43960E+1   1.33396E+3
   3.82310E+2  -1.47759E+2
  -1.12131E+2  -1.95877E+3
  -1.27997E+2  -9.32027E+2
   3.55694E+2   7.94995E+2
   4.57640E+2  -3.85264E+2
  -1.73520E+3  -3.17509E+2
  -1.00052E+3  -1.20159E+3
  -1.17102E+3  -1.09374E+3
   1.18173E+3  -5.15366E+2
  -3.05612E+2   1.47955E+3
  -2.48679E+2  -1.16423E+3
  -7.50569E+2  -1.38159E+3
   8.95840E+1   6.07996E+2
  -6.41723E+2  -1.44715E+3
   3.43503E+2  -2.49409E+3
   5.31035E+2  -5.14258E+2
   1.37988E+3  -5.19959E+1
   1.62357E+3   5.40725E+2
  -2.02792E+3   1.60483E+3
  -4.11149E+2   9.36680E+2
   1.69999E+3   3.52636E+2
   1.24190E+3  -3.54008E+1
  -8.60843E+2  -9.81500E+1
   7.64865E+2   3.28830E+2
  -3.81763E+2   5.19795E+2
   4.98037E+2  -2.58190E+2
  -8.65099E+2  -8.17085E+2
   2.65858E+2  -1.14263E+3
