 
 $NMID
 ID=''
 FMTDAT='(2E13.5)'
 TRAMP=   1.00000E+0
 VOLUME=   1.00000E+0
 $END
  -1.81802E+4  -9.38364E+3
  -3.81703E+4  -3.59431E+4
  -4.40565E+4  -2.80596E+4
  -4.08927E+4  -2.52595E+4
  -4.17374E+4  -2.71002E+4
  -4.31792E+4  -2.46880E+4
  -4.14719E+4  -2.37427E+4
  -4.15568E+4  -2.45955E+4
  -4.24541E+4  -2.30537E+4
  -4.12064E+4  -2.22643E+4
  -4.11009E+4  -2.26299E+4
  -4.15815E+4  -2.11970E+4
  -4.08884E+4  -2.03900E+4
  -4.07764E+4  -2.07718E+4
  -4.09073E+4  -1.97591E+4
  -4.01299E+4  -1.89698E+4
  -4.00253E+4  -1.89413E+4
  -4.01176E+4  -1.80203E+4
  -3.95687E+4  -1.72053E+4
  -3.94451E+4  -1.70970E+4
  -3.93860E+4  -1.61300E+4
  -3.90703E+4  -1.51816E+4
  -3.89766E+4  -1.49601E+4
  -3.88706E+4  -1.42137E+4
  -3.83800E+4  -1.34680E+4
  -3.82943E+4  -1.30934E+4
  -3.82834E+4  -1.25402E+4
  -3.77472E+4  -1.18663E+4
  -3.74876E+4  -1.16313E+4
  -3.72703E+4  -1.09719E+4
  -3.69608E+4  -1.03333E+4
  -3.68634E+4  -1.01155E+4
  -3.65866E+4  -9.66775E+3
  -3.60760E+4  -9.15982E+3
  -3.58148E+4  -8.63745E+3
  -3.55905E+4  -8.11846E+3
  -3.51273E+4  -7.59425E+3
  -3.49131E+4  -7.09939E+3
  -3.46997E+4  -6.66669E+3
  -3.42445E+4  -6.16252E+3
  -3.39242E+4  -5.75785E+3
  -3.36884E+4  -5.40791E+3
  -3.31860E+4  -5.00630E+3
  -3.28365E+4  -4.58566E+3
  -3.24968E+4  -4.19007E+3
  -3.21537E+4  -3.78104E+3
  -3.18436E+4  -3.43951E+3
  -3.14451E+4  -3.06546E+3
  -3.10943E+4  -2.62327E+3
  -3.07983E+4  -2.36394E+3
  -3.04589E+4  -1.98406E+3
  -3.00458E+4  -1.61416E+3
  -2.97161E+4  -1.25538E+3
  -2.94034E+4  -7.97741E+2
  -2.90327E+4  -5.02834E+2
  -2.87332E+4  -2.35540E+2
  -2.84169E+4   7.80089E+1
  -2.79869E+4   3.31216E+2
  -2.76272E+4   5.41232E+2
  -2.72487E+4   8.33201E+2
  -2.68336E+4   1.11116E+3
  -2.64523E+4   1.41736E+3
  -2.61033E+4   1.58486E+3
  -2.57770E+4   1.80954E+3
  -2.53848E+4   2.09475E+3
  -2.49672E+4   2.34137E+3
  -2.47375E+4   2.55712E+3
  -2.43824E+4   2.76163E+3
  -2.39088E+4   2.92057E+3
  -2.35999E+4   3.16988E+3
  -2.32321E+4   3.26973E+3
  -2.28086E+4   3.42518E+3
  -2.24250E+4   3.58892E+3
  -2.20358E+4   3.73540E+3
  -2.16095E+4   3.83713E+3
  -2.13687E+4   4.03072E+3
  -2.09057E+4   4.13650E+3
  -2.05378E+4   4.35382E+3
  -2.02303E+4   4.46673E+3
  -1.98488E+4   4.58163E+3
  -1.94524E+4   4.60488E+3
  -1.91959E+4   4.72557E+3
  -1.88074E+4   4.73574E+3
  -1.85279E+4   4.81138E+3
  -1.81049E+4   4.81845E+3
  -1.77522E+4   4.82541E+3
  -1.73194E+4   4.83612E+3
  -1.69770E+4   4.81551E+3
  -1.66591E+4   4.84179E+3
  -1.62777E+4   4.88184E+3
  -1.59396E+4   4.87668E+3
  -1.56556E+4   4.86715E+3
  -1.52577E+4   4.85397E+3
  -1.48236E+4   4.91060E+3
  -1.45544E+4   4.85730E+3
  -1.41995E+4   4.81528E+3
  -1.38347E+4   4.85509E+3
  -1.35341E+4   4.86259E+3
  -1.31899E+4   4.75013E+3
  -1.28059E+4   4.68198E+3
  -1.24108E+4   4.63654E+3
  -1.21542E+4   4.57825E+3
  -1.18220E+4   4.57855E+3
  -1.16094E+4   4.59904E+3
  -1.12013E+4   4.55851E+3
  -1.09130E+4   4.45360E+3
  -1.06013E+4   4.39496E+3
  -1.03057E+4   4.40013E+3
  -9.93811E+3   4.31236E+3
  -9.65736E+3   4.24923E+3
  -9.37542E+3   4.28014E+3
  -9.06855E+3   4.24660E+3
  -8.80090E+3   4.16016E+3
  -8.53560E+3   4.16085E+3
  -8.31590E+3   4.06427E+3
  -7.99499E+3   4.03846E+3
  -7.77521E+3   3.94929E+3
  -7.43299E+3   3.94252E+3
  -7.29369E+3   3.91938E+3
  -7.03955E+3   3.82368E+3
  -6.82512E+3   3.85731E+3
  -6.67470E+3   3.75769E+3
  -6.40498E+3   3.63353E+3
  -6.12989E+3   3.58161E+3
  -6.01229E+3   3.57158E+3
  -5.80159E+3   3.52816E+3
  -5.65394E+3   3.41156E+3
  -5.49877E+3   3.41138E+3
  -5.29463E+3   3.24757E+3
  -5.17340E+3   3.24148E+3
  -5.04561E+3   3.14371E+3
  -4.86509E+3   3.01520E+3
  -4.70187E+3   3.01924E+3
  -4.64504E+3   2.95265E+3
  -4.53496E+3   2.72147E+3
  -4.42859E+3   2.75583E+3
  -4.29563E+3   2.62831E+3
  -4.18638E+3   2.51402E+3
  -4.03852E+3   2.45539E+3
  -3.94485E+3   2.31250E+3
  -3.83195E+3   2.18163E+3
  -3.77058E+3   2.13470E+3
  -3.70099E+3   1.99957E+3
  -3.61298E+3   1.96063E+3
  -3.51258E+3   1.79434E+3
  -3.43608E+3   1.78828E+3
  -3.38306E+3   1.69133E+3
  -3.35141E+3   1.66179E+3
  -3.25130E+3   1.47445E+3
  -3.15147E+3   1.35868E+3
  -3.15489E+3   1.20963E+3
  -3.12808E+3   1.13525E+3
  -3.13323E+3   1.05797E+3
  -3.00785E+3   1.00125E+3
  -3.03335E+3   8.72664E+2
  -3.03427E+3   8.17211E+2
  -2.94704E+3   7.05780E+2
  -2.90957E+3   6.07436E+2
  -2.81386E+3   5.61420E+2
  -2.78704E+3   3.80384E+2
  -2.81674E+3   2.99856E+2
  -2.81083E+3   3.12033E+2
  -2.87939E+3   1.81624E+2
  -2.74515E+3   8.29518E+1
  -2.77885E+3  -2.51164E+1
  -2.76489E+3  -5.41275E+1
  -2.77666E+3  -2.66196E+2
  -2.77493E+3  -3.07362E+2
  -2.79978E+3  -2.97116E+2
  -2.80454E+3  -4.28017E+2
  -2.77778E+3  -4.79484E+2
  -2.77471E+3  -5.47891E+2
  -2.83071E+3  -6.64162E+2
  -2.77724E+3  -7.51762E+2
  -2.82654E+3  -8.05505E+2
  -2.81663E+3  -8.53170E+2
  -2.83817E+3  -9.29194E+2
  -2.89354E+3  -1.01150E+3
  -2.97362E+3  -1.05071E+3
  -2.93565E+3  -1.18515E+3
  -3.01054E+3  -1.19461E+3
  -3.04758E+3  -1.30025E+3
  -3.08366E+3  -1.36885E+3
  -3.02845E+3  -1.40552E+3
  -3.04783E+3  -1.44190E+3
  -3.13313E+3  -1.51191E+3
  -3.03378E+3  -1.61112E+3
  -3.18235E+3  -1.67983E+3
  -3.12345E+3  -1.70945E+3
  -3.15360E+3  -1.72433E+3
  -3.17926E+3  -1.81374E+3
  -3.20563E+3  -1.76406E+3
  -3.34126E+3  -1.88269E+3
  -3.26017E+3  -1.95496E+3
  -3.29979E+3  -2.04400E+3
  -3.36665E+3  -1.97601E+3
  -3.34117E+3  -2.05649E+3
  -3.35300E+3  -2.13135E+3
  -3.41908E+3  -2.12023E+3
  -3.42048E+3  -2.15559E+3
  -3.46941E+3  -2.19808E+3
  -3.45782E+3  -2.23910E+3
  -3.49519E+3  -2.24866E+3
  -3.54158E+3  -2.27238E+3
  -3.58383E+3  -2.28318E+3
  -3.53250E+3  -2.32938E+3
  -3.56248E+3  -2.36129E+3
  -3.66278E+3  -2.43643E+3
  -3.64505E+3  -2.42434E+3
  -3.61576E+3  -2.39229E+3
  -3.75893E+3  -2.46595E+3
  -3.71329E+3  -2.46055E+3
  -3.71709E+3  -2.45614E+3
  -3.73293E+3  -2.38339E+3
  -3.77264E+3  -2.42647E+3
  -3.75845E+3  -2.46610E+3
  -3.78954E+3  -2.41028E+3
  -3.81715E+3  -2.47840E+3
  -3.77020E+3  -2.42186E+3
  -3.84456E+3  -2.44747E+3
  -3.89812E+3  -2.44560E+3
  -3.91031E+3  -2.41556E+3
  -3.86387E+3  -2.42186E+3
  -3.90340E+3  -2.43816E+3
  -3.88587E+3  -2.46217E+3
  -3.90565E+3  -2.40872E+3
  -3.94824E+3  -2.35128E+3
  -3.96820E+3  -2.32623E+3
  -3.97211E+3  -2.34339E+3
  -3.98270E+3  -2.33930E+3
  -3.97825E+3  -2.31340E+3
  -3.97217E+3  -2.24018E+3
  -3.97952E+3  -2.33538E+3
  -4.02718E+3  -2.25332E+3
  -3.98779E+3  -2.18464E+3
  -4.02720E+3  -2.19851E+3
  -4.06904E+3  -2.16192E+3
  -3.95824E+3  -2.13710E+3
  -3.99923E+3  -2.14147E+3
  -4.03533E+3  -2.09381E+3
  -4.00502E+3  -2.07998E+3
  -4.01409E+3  -2.03635E+3
  -4.03438E+3  -2.06401E+3
  -4.01327E+3  -1.99226E+3
  -3.95902E+3  -1.94900E+3
  -3.97280E+3  -1.94717E+3
  -4.00612E+3  -1.91591E+3
  -4.04092E+3  -1.86221E+3
  -4.02640E+3  -1.87609E+3
  -3.99982E+3  -1.77141E+3
  -3.95517E+3  -1.82562E+3
  -3.95073E+3  -1.72234E+3
  -3.98943E+3  -1.78249E+3
  -4.03421E+3  -1.72061E+3
  -3.91897E+3  -1.69740E+3
  -3.97872E+3  -1.65342E+3
  -4.00537E+3  -1.64365E+3
  -3.93628E+3  -1.53331E+3
  -3.95504E+3  -1.52031E+3
  -3.93989E+3  -1.52454E+3
  -3.85632E+3  -1.46084E+3
  -3.90027E+3  -1.43579E+3
  -3.90565E+3  -1.40294E+3
  -3.81887E+3  -1.32624E+3
  -3.85033E+3  -1.35081E+3
  -3.76237E+3  -1.28704E+3
  -3.80867E+3  -1.30774E+3
  -3.76661E+3  -1.24771E+3
  -3.72962E+3  -1.20334E+3
  -3.77278E+3  -1.16793E+3
  -3.74292E+3  -1.11300E+3
  -3.66183E+3  -1.11360E+3
  -3.71262E+3  -1.07630E+3
  -3.65297E+3  -1.04231E+3
  -3.62671E+3  -9.84346E+2
  -3.57432E+3  -9.75487E+2
  -3.59089E+3  -9.27881E+2
  -3.48559E+3  -8.37214E+2
  -3.43965E+3  -8.10069E+2
  -3.54456E+3  -7.76451E+2
  -3.52433E+3  -7.49553E+2
  -3.40751E+3  -7.52637E+2
  -3.47045E+3  -6.94032E+2
  -3.41853E+3  -6.29226E+2
  -3.35150E+3  -5.99842E+2
  -3.37522E+3  -5.80404E+2
  -3.28375E+3  -6.35123E+2
  -3.20804E+3  -5.43119E+2
  -3.29380E+3  -4.64318E+2
  -3.17790E+3  -5.09412E+2
  -3.10086E+3  -3.95148E+2
  -3.13118E+3  -4.04108E+2
  -3.05634E+3  -3.96517E+2
  -3.13556E+3  -3.85747E+2
  -3.07010E+3  -3.16032E+2
  -2.96687E+3  -3.29997E+2
  -2.99148E+3  -3.04357E+2
  -2.94982E+3  -2.41118E+2
  -2.95771E+3  -2.39188E+2
  -2.91836E+3  -1.74756E+2
  -2.85577E+3  -2.51262E+2
  -2.80974E+3  -1.73230E+2
  -2.83646E+3  -1.78174E+2
  -2.84018E+3  -9.87817E+1
  -2.70483E+3  -1.31186E+2
  -2.63647E+3  -1.28756E+2
  -2.66803E+3  -8.67310E+1
  -2.61423E+3  -1.77584E+1
  -2.56017E+3   4.93322E+1
  -2.51984E+3   8.98284E+0
  -2.57697E+3   1.90292E+1
  -2.49734E+3   6.25763E+1
  -2.48340E+3   1.97387E+1
  -2.38822E+3   1.22080E+2
  -2.36927E+3   1.48456E+2
  -2.27538E+3   1.93837E+2
  -2.31310E+3   2.07042E+2
  -2.32467E+3   1.97954E+2
  -2.16524E+3   2.47614E+2
  -2.20629E+3   2.18294E+2
  -2.16320E+3   2.14198E+2
  -2.08857E+3   1.91730E+2
  -2.14020E+3   2.47179E+2
  -2.05674E+3   2.47508E+2
  -2.02296E+3   2.50314E+2
  -1.89416E+3   2.63322E+2
  -1.99062E+3   3.14652E+2
  -1.96267E+3   3.30286E+2
  -1.89282E+3   2.52974E+2
  -1.86999E+3   3.07545E+2
  -1.86863E+3   3.70253E+2
  -1.86436E+3   3.73936E+2
  -1.79001E+3   3.34069E+2
  -1.74043E+3   3.34131E+2
  -1.68241E+3   3.90987E+2
  -1.69759E+3   4.05644E+2
  -1.61156E+3   3.58109E+2
  -1.61620E+3   4.34787E+2
  -1.59715E+3   3.96694E+2
  -1.53154E+3   4.05861E+2
  -1.50545E+3   3.77199E+2
  -1.50619E+3   3.64949E+2
  -1.41235E+3   4.11529E+2
  -1.47728E+3   4.01073E+2
  -1.43511E+3   4.67423E+2
  -1.40012E+3   3.99288E+2
  -1.43991E+3   4.36230E+2
  -1.36403E+3   4.74531E+2
  -1.30706E+3   4.17142E+2
  -1.22607E+3   4.32276E+2
  -1.25389E+3   4.16053E+2
  -1.22360E+3   4.11075E+2
  -1.16919E+3   4.29949E+2
  -1.18903E+3   4.05639E+2
  -1.17890E+3   4.21970E+2
  -1.08272E+3   4.83648E+2
  -1.10710E+3   4.37657E+2
  -1.05650E+3   4.58290E+2
  -1.07709E+3   4.19888E+2
  -1.01292E+3   4.66834E+2
  -1.03187E+3   3.26886E+2
  -9.75217E+2   4.11363E+2
  -9.34822E+2   4.45514E+2
  -9.21498E+2   3.47977E+2
  -8.77021E+2   4.56967E+2
  -8.95986E+2   3.74601E+2
  -8.64733E+2   3.88445E+2
