 
 $NMID
 ID=''
 FMTDAT='(2E13.5)'
 TRAMP=   1.00000E+0
 VOLUME=   1.00000E+0
 $END
   6.15051E+2   8.35851E+1
  -4.54248E+2   2.91652E+3
   4.61463E+3  -3.32676E+3
   1.79691E+3  -1.12608E+3
  -1.75895E+3  -1.77697E+3
   2.62777E+2  -1.69594E+3
  -1.74854E+3   2.83312E+3
  -2.20061E+3  -1.21190E+3
   7.30001E+2  -2.13168E+3
   1.37892E+3  -2.36775E+2
   2.66969E+3  -1.54356E+3
   4.94334E+3   3.18096E+3
  -1.87420E+3   2.31436E+3
  -4.74647E+3   1.25418E+3
  -3.08260E+2  -1.92440E+3
   3.86936E+3  -1.27147E+3
   3.45478E+3   1.19083E+3
   1.78199E+3   1.07906E+3
  -7.00482E+2   9.55577E+2
   2.36889E+3  -2.91763E+3
   5.90597E+3   1.47414E+3
   2.25765E+2   2.84350E+3
  -4.61807E+3  -1.42764E+3
   6.38312E+2  -6.35005E+3
   3.93454E+3   4.02600E+1
  -5.47037E+2   3.56673E+3
  -5.39406E+3  -3.44955E+2
  -2.06322E+3  -5.30238E+3
   3.91041E+3  -4.64318E+3
   5.85942E+3   1.21231E+3
   1.39415E+3   5.49052E+3
  -3.44134E+3   3.64084E+3
  -4.80998E+3  -2.10784E+3
  -1.09432E+2  -2.13862E+3
  -2.45737E+3  -1.96689E+3
  -1.24233E+3  -5.96926E+3
   2.09523E+3  -6.83874E+3
   4.97006E+3   9.12361E+2
  -1.69296E+3   1.94395E+3
  -4.29924E+2   9.88553E+2
  -3.60098E+3   8.76386E+2
  -5.77787E+3   1.14695E+3
   7.15447E+1  -7.54854E+3
   3.52692E+3  -1.88489E+3
   3.05104E+3   3.36584E+3
   6.41961E+2   1.83178E+3
   2.04576E+3   3.03430E+3
   1.81034E+3   2.55304E+3
  -3.17388E+2   3.32935E+3
  -6.00674E+2   1.23246E+3
   1.30573E+2  -9.26742E+2
   2.10383E+3  -2.92988E+3
   2.84459E+3  -1.62523E+3
   3.16999E+3   4.45588E+3
   2.66566E+2   2.34682E+3
  -3.20141E+3   1.45402E+3
  -2.26168E+3  -1.28329E+3
  -3.79009E+3  -3.06343E+3
  -1.39090E+3  -3.47865E+3
   2.87831E+3  -2.82570E+3
   5.65679E+3   5.59824E+2
   3.59517E+3   2.89715E+3
  -4.58300E+2   3.52138E+3
  -4.12010E+3  -5.34722E+2
  -1.61280E+2  -1.20387E+3
   3.04902E+3   1.59219E+3
  -1.98766E+3   3.45804E+3
  -5.43334E+3   4.58619E+2
  -1.38478E+3  -4.18601E+2
   1.40176E+3  -3.95949E+2
  -1.86280E+3   1.92795E+3
  -1.77261E+3   3.20768E+3
  -1.04993E+3   1.01182E+2
   1.89527E+3  -2.26280E+3
   3.19480E+3  -1.47826E+3
   4.15434E+2   2.72443E+3
  -1.21323E+3   2.71679E+2
  -1.77098E+2  -1.75512E+3
   1.56808E+3  -8.12458E+2
  -2.15099E+1   2.27170E+3
  -2.58135E+3   6.57023E+2
  -2.46936E+3   2.14107E+3
  -4.27099E+2   1.73541E+3
   4.58836E+2   3.87780E+3
  -3.80920E+3   4.07493E+3
  -5.56254E+3   5.50624E+2
  -2.76868E+3  -3.14321E+3
   1.72227E+3   1.19184E+3
   2.37230E+3   2.56810E+3
  -1.95308E+3   2.06880E+3
  -1.06215E+3   2.10185E+3
  -6.20760E+2   3.97665E+3
  -9.84574E+2   1.27449E+3
  -5.31967E+3   2.33126E+3
  -3.73259E+3  -3.69684E+3
  -6.72991E+2  -3.77158E+3
  -1.24332E+3  -1.45974E+3
  -8.25981E+2   5.75441E+2
  -2.52247E+3  -5.10779E+2
  -3.69272E+3  -4.67038E+3
   8.66738E+2  -5.03789E+3
   2.49868E+3   6.00055E+2
  -4.64110E+2   2.04183E+3
  -1.94640E+3   3.78360E+3
  -4.77896E+3   8.13290E+2
  -1.94821E+3  -1.79599E+3
  -1.61834E+3  -1.80986E+3
  -2.93983E+3  -1.64992E+3
  -2.02916E+3  -5.16487E+3
   3.32769E+3  -2.90834E+3
   3.86329E+3   4.46307E+2
   2.58580E+3   2.74713E+3
  -6.97519E+2   1.05919E+3
   1.55961E+3   1.03894E+3
   7.68966E+2   1.00081E+3
  -2.43941E+3   4.10512E+2
  -2.70728E+3  -2.08311E+2
   2.71553E+3  -6.37096E+2
   5.34578E+2  -2.13802E+3
   1.90727E+3   1.80812E+2
  -9.33967E+1  -1.18255E+3
  -6.06494E+2  -9.49175E+2
   6.78156E+2  -9.90057E+2
   3.85481E+3  -1.81994E+3
   3.45971E+3   2.76979E+3
   1.62178E+3   7.64651E+2
   2.33940E+3   1.64267E+3
   4.29100E+3   1.42047E+3
   6.80907E+2   1.38255E+3
   1.21889E+2   1.84328E+2
  -1.02421E+2  -2.05894E+3
   1.63307E+3  -1.98480E+3
   3.85953E+3   1.32514E+3
   1.50890E+2   2.16270E+3
  -1.95451E+2   1.90718E+3
  -2.60381E+3   2.24689E+3
  -5.58718E+2  -7.36808E+2
   3.45813E+2   2.53646E+2
  -4.48668E+2   7.06784E+2
  -1.16820E+3   1.27608E+3
   1.18192E+1   6.77483E+2
   1.76400E+3  -1.43042E+3
   4.52589E+3   1.76766E+3
   9.31678E+2   2.41839E+3
  -2.14070E+2  -6.31144E+2
   2.44252E+1   9.79431E+2
   3.72475E+2  -9.37398E+1
  -2.12809E+3  -5.80660E+2
   1.29382E+3  -2.19164E+3
  -2.95605E+3  -1.85370E+3
   8.30575E+2  -1.66391E+2
   7.25328E+2  -2.16392E+3
   2.14940E+2  -2.38600E+3
   2.53216E+3  -5.53946E+2
   3.15766E+3  -2.33897E+3
   7.74079E+2   3.36243E+3
   7.45816E+2   1.77442E+3
  -1.90728E+3   7.77493E+2
   2.35132E+3  -3.14801E+2
   1.83375E+3  -8.63555E+2
  -4.45824E+2   2.35394E+2
   1.09555E+3   4.33734E+2
   1.29074E+3  -1.77584E+3
   1.04244E+3  -6.08001E+2
  -1.83108E+2  -5.56729E+2
  -9.76394E+2  -7.88728E+2
   2.18664E+3  -2.18193E+3
   1.51517E+3  -1.99489E+3
   1.84432E+3   2.04025E+3
  -4.93161E+2   5.95766E+2
  -1.41788E+3   4.59713E+2
  -2.40889E+3  -1.15272E+3
  -2.21662E+3  -9.05338E+2
   2.11506E+3  -1.97064E+3
   2.83608E+3  -1.38108E+1
   1.72017E+3  -1.95099E+3
   1.85298E+3   4.15423E+2
   3.41215E+2   3.96134E+2
  -2.38357E+3   1.79498E+3
  -2.23373E+3  -2.56520E+2
  -1.19528E+3  -1.31356E+3
  -2.09127E+3  -3.49809E+3
   2.29741E+2  -4.62685E+2
  -1.01038E+3   7.75999E+2
  -2.36587E+2   3.62032E+2
   1.55018E+3   3.39991E+2
  -9.42610E+2   7.00194E+2
  -2.57168E+3   7.19368E+2
  -7.82161E+2  -9.27410E+2
   1.83333E+3  -2.27060E+3
   2.31243E+3  -4.44927E+2
   3.74958E+2  -7.69378E+2
  -4.80286E+2   7.99401E+2
  -5.32861E+2   1.96543E+3
   3.54146E+0  -9.95863E+2
  -4.39760E+2   1.94753E+3
   1.91728E+2  -6.26753E-1
  -2.42252E+3  -7.46199E+2
   1.14922E+3   1.07196E+3
   6.13683E+2   1.80139E+3
  -2.50349E+3   8.35355E+2
  -3.26042E+3  -2.44730E+2
  -1.56849E+3  -4.56791E+3
   1.34082E+2  -8.39821E+2
   1.84353E+3  -1.73295E+3
  -8.84985E+1  -7.93855E+2
   7.41269E+2  -1.43018E+3
   6.66471E+2  -1.13121E+2
   1.31984E+3   3.47653E+2
  -1.46525E+3   1.12460E+2
  -3.38958E+3   1.11428E+3
  -6.02061E+2  -3.78067E+1
   6.45762E+2   4.48259E+2
   1.50839E+3  -5.80403E+2
   1.24713E+3   2.27700E+3
  -1.17027E+3   5.15541E+2
  -2.14765E+3  -1.82084E+3
  -8.81681E+2   1.99894E+2
   9.92365E+2   9.38120E+2
  -2.18122E+3   2.45349E+2
  -1.83830E+3   2.34389E+1
  -1.05341E+3  -5.45679E+2
  -6.49479E+2  -3.46806E+2
  -6.64392E+2  -1.19822E+3
   5.18614E+1   2.07907E+2
   1.06771E+3   3.14769E+2
   9.47980E+2   8.33595E+2
   1.73264E+3   6.42024E+2
   2.66105E+1   5.10916E+2
  -2.76676E+2   5.74130E+2
  -3.41933E+2  -1.46277E+3
  -8.53727E+2   4.56412E+2
   1.33737E+2  -2.06006E+2
  -6.53034E+2  -3.12871E+3
   6.46111E+2  -1.26838E+3
   2.41490E+3   2.60674E+3
   1.63481E+3   2.39833E+2
  -2.86651E+3  -1.05550E+3
  -1.66256E+3  -1.89021E+2
   4.48324E+2  -1.26651E+3
  -2.07744E+1  -7.91081E+2
  -4.28242E+2   2.98484E+3
   9.17317E+2   6.65199E+2
  -1.35650E+3   1.07842E+3
  -1.22060E+3   1.02216E+3
  -2.00290E+3  -1.68098E+3
  -8.40384E+2  -1.10130E+2
   1.49050E+3  -9.31794E+2
   1.88768E+3  -1.73708E+3
   3.85865E+2   2.48360E+3
   9.03240E+2   1.17558E+3
  -1.19355E+3  -1.90927E+3
  -1.17567E+3  -1.07383E+3
   4.31856E+2   5.18100E+2
  -1.64572E+3  -1.29091E+3
   4.36487E+2  -2.16478E+3
   1.56448E+3   6.11264E+2
   1.03290E+3   1.93463E+3
  -6.27000E+2   1.81010E+3
  -1.70858E+3  -1.49490E+2
  -2.10993E+3  -5.60215E+2
   6.28539E+2  -1.02280E+2
  -1.02525E+3   6.17430E+2
   1.13901E+3   6.00404E+2
  -2.65722E+3   5.22336E+2
   2.17136E+2  -8.73207E+2
   1.14800E+3   4.94932E+2
   3.46015E+2  -1.62160E+3
  -1.86695E+3  -1.63736E+2
  -7.72762E+2  -4.11277E+1
   1.01420E+3  -4.23443E+0
   1.73308E+3   1.00261E+3
  -3.56360E+2   1.63409E+3
  -1.11651E+3   1.15025E+3
  -1.93175E+3  -1.76180E+3
  -7.93201E+2  -6.28032E+2
  -5.51391E+2  -1.23971E+3
   5.80949E+2  -7.71128E+2
   3.08187E+2  -1.73688E+3
   1.89193E+3   1.45036E+3
   1.89144E+3   1.13144E+3
   2.28828E+1  -7.20236E+2
  -2.73719E+2   6.40358E+2
  -2.16227E+3  -7.74104E+2
   5.90082E+2  -3.29205E+2
  -1.93553E+2  -1.01235E+3
   4.11453E+2   1.28880E+3
  -5.84305E+1   8.06479E+2
   1.24802E+3   2.90103E+2
   1.34814E+2   4.59127E+2
   2.54203E+2   2.94514E+3
   2.55438E+2  -7.91932E+2
  -4.56737E+2   8.50098E+2
  -8.29310E+2  -1.78793E+3
   1.70110E+3   5.97883E+2
  -2.03009E+3  -8.82616E+2
  -8.96148E+2  -6.03350E+2
   2.98758E+3   5.63458E+2
   1.42567E+3   1.22716E+3
  -1.06147E+3   9.21571E+0
  -1.61618E+1  -2.19814E+2
  -1.44972E+2   3.30855E+1
   1.70507E+3   1.93888E+3
  -8.06181E+2  -5.41630E+2
  -1.97010E+3  -5.48820E+2
   9.17110E+2  -2.37800E+3
   1.82213E+3  -2.50223E+2
   9.76825E+2   2.35407E+3
  -1.47689E+2  -1.23855E+3
  -8.59816E+2  -6.85318E+2
  -3.73764E+2  -1.02391E+3
   6.18524E+2  -6.42850E+2
   1.31525E+2   5.64386E+2
  -1.84019E+3  -7.44764E+2
   6.93821E+2  -3.61737E+1
   7.90518E+2   9.51980E+2
   9.46463E+1   1.05078E+3
  -1.11767E+3   3.38378E+3
  -1.46480E+3   2.60422E+2
   5.02437E+2  -2.09393E+3
  -4.06675E+2  -1.73338E+3
   1.43314E+2   1.57981E+3
  -9.31538E+2   7.28966E+2
   2.84751E+2  -4.11949E+1
  -2.24427E+3  -9.03646E+2
  -8.56448E+1  -5.63820E+2
  -1.81250E+3   2.10611E+3
  -1.62147E+2  -1.86691E+3
   1.33387E+3   5.23618E+2
   2.58636E+3   5.59554E+2
  -1.97334E+2  -1.65485E+2
  -4.77949E+2   8.65463E+1
  -1.14694E+3  -5.79011E+2
   7.05638E+2  -2.07859E+3
   1.82097E+2  -7.22905E+2
  -1.34487E+3   2.23185E+3
  -7.31461E+1   5.97711E+2
   4.68483E+2  -2.76861E+3
   1.68818E+3   1.92909E+3
  -1.24078E+3   1.05962E+3
  -5.04584E+2  -7.37442E+2
  -6.56066E+2  -4.54108E+2
   1.90531E+3  -6.76987E+2
   8.27855E+2  -1.56232E+3
   9.08969E+2   5.44109E+1
  -2.00010E+2  -2.28376E+2
  -1.48717E+3  -6.29029E+2
   1.57215E+3   4.61963E+1
  -1.81625E+3  -3.05084E+2
   5.47983E+2   5.25069E+2
  -1.03835E+3  -4.07687E+2
  -6.13796E+2  -9.08545E+2
   2.10091E+3   1.28404E+3
   5.95112E+1  -2.03763E+2
   1.27598E+3  -4.67032E+2
   5.76538E+2  -1.15969E+3
   9.85198E+2  -3.45986E+2
  -1.43680E+3   1.17334E+3
   8.71627E+2   4.11694E+2
   2.92014E+2  -1.99052E+3
   7.15296E+2  -6.34692E+1
   1.58871E+2   6.65718E+2
  -5.63101E+2  -1.79881E+3
  -7.92477E+2   1.20218E+2
  -3.83174E+2   1.32665E+3
   2.94167E+2   1.44797E+3
   1.25093E+2   1.59535E+3
