 
 $NMID
 ID=''
 FMTDAT='(2E13.5)'
 TRAMP=   1.00000E+0
 VOLUME=   1.00000E+0
 $END
   3.77903E+2  -3.69302E+2
   7.41924E+2   1.42815E+3
  -1.07949E+3  -4.31045E+3
  -1.25277E+3   3.74577E+2
  -1.75378E+3   1.02661E+3
   4.76865E+2  -2.87352E+2
   1.40499E+3   4.42111E+3
  -1.95125E+2   1.29082E+3
   1.96802E+3  -8.86261E+2
  -2.38102E+3  -2.01145E+3
  -2.46645E+2  -3.92213E+3
   5.30606E+3  -2.09709E+3
   1.52038E+3   1.18118E+3
  -3.01311E+3   3.03431E+3
  -3.14111E+3   1.15589E+3
  -1.06165E+3  -2.81079E+3
   3.04347E+3  -1.23649E+3
   1.93524E+3  -9.03447E+2
  -1.69991E+2   2.88930E+3
  -6.94292E+2  -4.99254E+3
   5.92495E+2  -2.89973E+3
   5.16046E+2   3.70836E+2
  -9.57076E+2   2.26765E+3
  -4.39731E+3   1.53492E+2
  -7.73415E+2  -4.40350E+3
   2.48340E+3   9.89442E+2
  -9.77905E+2   3.30230E+3
  -5.15822E+3   1.40737E+3
  -1.82337E+3  -4.02438E+3
   2.27829E+3  -1.98283E+3
   6.29224E+3   3.02644E+2
   2.34226E+3   6.88099E+3
  -4.41245E+3   3.02147E+3
  -9.73967E+2  -5.12778E+2
   9.14428E+2   1.78955E+3
  -3.02804E+3   1.67339E+2
  -7.55934E+2  -5.72625E+3
   5.29335E+3  -1.93784E+3
   2.10950E+3   1.04702E+3
   1.91248E+3   1.98006E+3
   7.29186E+2   3.59542E+3
  -4.68285E+3   3.87478E+3
  -5.85590E+3  -3.44596E+3
  -8.43836E+1  -3.65586E+3
   2.93411E+3  -1.40869E+3
   2.55634E+3  -5.15860E+2
   2.83308E+3   9.15233E+2
   2.80983E+3   3.32647E+3
  -1.77617E+3   4.11117E+3
  -3.06420E+3   3.28364E+3
  -4.06304E+3   1.17807E+3
  -3.56906E+3  -1.11365E+3
   2.64544E+3  -1.92194E+3
   3.39587E+3  -4.89652E+1
   1.57004E+3   1.70549E+3
   1.68319E+3   1.27763E+3
  -9.82222E+2   4.26929E+2
  -4.70901E+3  -2.99553E+1
  -4.48095E+3  -2.60255E+3
  -1.34508E+3  -5.13537E+3
   1.40244E+3  -4.12325E+3
   3.79171E+3  -2.35177E+3
   1.76919E+3   2.07312E+3
   4.04892E+2   7.41349E+2
   4.98468E+2  -1.97038E+3
   1.88851E+3   2.63064E+2
   3.09688E+3   2.10470E+3
  -3.27704E+3   1.03070E+3
  -3.46051E+3   5.49409E+2
  -8.23614E+2  -5.23586E+2
  -2.65027E+2   6.89338E+2
  -2.28871E+3   5.86398E+2
  -2.40118E+2  -2.23928E+3
   2.24099E+2  -1.53974E+3
  -1.59457E+2  -7.04069E+2
   5.88654E+2  -1.70422E+3
  -6.77994E+2  -1.91534E+3
   9.23849E+2  -3.60507E+3
   6.57310E+2  -2.57404E+3
   3.07894E+3   8.02543E+2
   2.90419E+2   9.01898E+2
   4.94741E+2   1.45933E+3
   1.63052E+3  -2.41540E+3
   2.98103E+3   3.48287E+3
   6.23628E+2   4.08553E+3
  -3.94116E+3   3.79429E+3
  -2.80658E+3   1.20580E+2
   4.77120E+2  -3.18640E+3
   3.05649E+3   2.66348E+2
   1.85139E+3   1.83034E+3
  -8.46975E+2  -2.35954E+3
   3.30155E+2  -6.19689E+2
   6.92531E+2   1.35399E+3
  -1.44610E+3   3.73016E+3
  -2.40822E+3   8.48982E+2
  -1.88829E+3  -1.22816E+3
   2.23241E+3  -3.62395E+3
   2.89105E+3  -5.82400E+2
   1.49399E+3   2.68438E+3
  -1.63130E+3  -8.59147E+2
  -3.64406E+2  -2.56667E+3
   2.84077E+3  -1.59213E+3
   2.84661E+3   2.41360E+3
   7.59520E+2   2.75860E+3
   1.23693E+3   1.01819E+3
   7.07676E+2  -3.28101E+0
  -5.59822E+2   9.52760E+2
  -2.31657E+3   2.73306E+3
  -3.09221E+3  -1.66420E+3
   2.37913E+1  -2.75368E+3
   2.12198E+3  -2.30788E+3
   1.56051E+3   6.19482E+2
   2.36917E+3   8.70233E+2
   7.45466E+2   1.35683E+3
  -1.44980E+2   1.37488E+3
  -2.15495E+3   2.76125E+3
  -1.32725E+3  -1.35259E+3
   1.00770E+3   6.93100E+2
  -5.21557E+2  -1.91857E+3
   3.43132E+2  -4.93112E+2
  -2.76719E+2   1.99828E+3
  -1.63444E+3   1.74657E+3
   1.73853E+1   1.71488E+3
  -2.66362E+3  -2.24128E+2
   2.53195E+3   7.91253E+2
  -1.52049E+3   3.79334E+2
   3.70622E+2  -1.90746E+3
   8.45003E+2  -1.88703E+3
   9.82831E+2   1.30873E+3
   1.04280E+2   1.43229E+3
  -2.95561E+2  -1.87087E+2
  -1.86340E+3  -1.57421E+3
   2.59416E+3  -2.11121E+3
   2.35536E+3   2.30488E+3
  -1.26305E+3   1.89604E+3
  -1.82421E+3   1.14050E+3
  -4.20246E+2  -5.69331E+2
   4.64598E+2  -3.35983E+1
   1.38305E+2  -1.03065E+3
   8.87248E+2  -7.09093E+2
  -1.10713E+3  -1.32921E+3
   8.12023E+2  -1.67493E+3
   3.27265E+3   2.37127E+3
  -2.17463E+2   1.15938E+3
  -1.99550E+3   1.61499E+3
  -8.51410E+2   9.15695E+2
   8.90099E+2  -7.00915E+1
   3.89096E+2   9.86382E+1
  -1.55989E+3   1.06311E+3
   1.25867E+2   6.00073E+2
  -3.22492E+2   5.57376E+2
  -1.68488E+3  -9.93123E+2
  -1.74068E+3  -1.37330E+3
  -9.10877E+2  -2.78641E+3
  -1.07692E+2  -9.98513E+2
   1.35181E+3   7.42683E+2
  -1.28413E+3  -3.96545E+2
  -1.04194E+2   1.81168E+3
  -1.45410E+3  -1.07058E+3
   9.39779E+2   5.39927E+2
  -1.36432E+3  -1.40146E+3
   5.16599E+1   2.05735E+3
  -1.83406E+3  -1.63223E+3
  -2.50377E+2  -7.79109E+2
  -1.61210E+3  -1.01218E+3
   1.17534E+3   2.45617E+3
   8.77796E+1  -4.42960E+2
  -6.71085E+2  -3.10537E+2
   1.73639E+3   3.60861E+2
   7.64982E+2   1.45387E+3
   1.19046E+3   4.90061E+2
  -1.69571E+3   6.37190E+2
  -1.95738E+1   1.13611E+3
  -8.85123E+2   4.01047E+2
  -3.68154E+2  -8.08499E+2
  -1.34518E+3  -9.46005E+2
  -5.69705E+2  -3.48604E+3
   1.48592E+3  -7.09149E+2
   1.77805E+3  -2.16668E+2
  -1.72637E+3  -1.01169E+2
  -2.55974E+2  -1.42441E+2
   1.31560E+3  -1.24007E+3
   2.63949E+3  -9.29307E+2
   1.03557E+3  -4.08641E+2
   5.62022E+2  -6.52456E+2
   1.37085E+3  -3.38192E+1
   2.10821E+3   2.30209E+3
   2.00783E+3  -1.43482E+3
  -1.35467E+3  -1.64208E+3
   1.48939E+2  -2.21615E+3
  -1.52070E+3  -9.46705E+2
   1.87992E+3  -6.14051E+2
   5.91016E+2   8.58898E+2
  -2.10389E+3   1.28366E+3
  -1.83192E+3  -2.09060E+3
   1.79077E+3  -2.16047E+2
   4.04335E+2  -1.19501E+3
   1.59557E+3   4.06868E+1
   1.06244E+2  -2.15725E+3
   2.23025E+3  -5.70107E+0
   7.78342E+2   2.27037E+3
   4.71408E+2   1.77953E+2
  -6.81982E+2  -1.54185E+3
  -1.16136E+3  -4.15346E+2
   1.81910E+2   1.57556E+3
   2.00611E+3  -8.13924E+2
   4.03640E+2   2.66782E+2
   6.04114E+2  -5.27914E+1
   1.79304E+2   9.15060E+1
   1.40468E+2  -7.82089E+2
  -2.33738E+3  -3.96130E+2
  -6.93470E+2  -2.14286E+3
  -1.77316E+3  -8.32975E+2
   1.06072E+3   1.57336E+3
   1.38039E+3  -6.09909E+2
   1.29561E+3  -6.99060E+2
  -1.78223E+3   9.36600E+2
  -8.86574E+2  -1.32086E+3
  -8.89364E+2  -1.55719E+3
  -1.10414E+3   1.43192E+3
  -1.51133E+3  -7.38189E+2
  -1.43935E+2  -4.26568E+2
  -3.25805E+2  -1.00926E+3
   9.92774E+2  -1.02106E+3
  -4.32076E+2   5.25308E+2
   6.96844E+2  -1.01723E+3
   1.27595E+3   7.97423E+2
   4.94739E+2   6.92325E+2
  -1.81805E+2  -8.09426E+2
   2.81935E+2   5.54135E+2
   6.05214E+1  -1.58062E+3
  -2.73482E+2  -7.44361E+2
  -2.33572E+3   1.15185E+3
  -1.89043E+3  -1.17719E+3
   9.80376E+2  -1.32889E+3
   2.76599E+2  -4.34993E+2
  -1.94090E+3  -7.66257E+1
   6.86861E+2   2.88754E+2
  -1.06122E+3   1.13182E+2
   6.96534E+2  -1.15291E+3
   1.10522E+3  -1.58021E+3
   7.33322E+2   8.08718E+2
  -2.01583E+3  -1.27340E+3
  -7.26106E+2  -1.11146E+3
   3.73733E+2  -3.95401E+2
   1.36843E+3   1.44984E+3
  -1.30191E+3   9.61283E+2
   5.54331E+0  -1.70152E+3
  -1.33526E+3  -8.73322E+1
  -5.10127E+2   1.32066E+3
   7.49334E+2   1.35365E+3
   5.61067E+2  -1.06540E+2
  -2.94409E+3  -3.62673E+2
   6.93686E+1   6.86980E+2
  -9.39626E+2  -2.11611E+2
   1.98188E+1   2.96903E+2
  -9.28555E+2  -1.58449E+2
  -4.87069E+2  -7.41306E+2
   8.94212E+2  -7.90487E+2
  -6.20998E+2  -1.67927E+2
   4.42275E+2  -4.24213E+2
  -5.49876E+2  -7.17457E+2
  -6.04209E+2   2.01516E+2
   1.25873E+3   2.02511E+3
   2.21661E+2   4.73671E+2
  -1.15122E+3  -1.41865E+3
  -4.76724E+2   5.46805E+2
   2.49798E+2   1.89945E+3
  -1.16669E+2   1.44249E+3
  -1.08661E+3  -3.55237E+2
   2.16143E+2   4.14731E+2
  -1.11388E+1  -2.34373E+2
   9.74892E+2   1.68110E+3
   1.22788E+3  -2.28491E+2
  -2.28546E+3   2.14545E+3
  -1.68281E+3  -7.33438E+2
  -8.01463E+2  -1.65264E+2
  -9.39983E+2   1.67244E+2
  -2.09287E+3   1.90006E+2
  -6.62222E+2  -2.19736E+2
   6.70873E+2   4.64960E+1
   6.16400E+2   4.32362E+2
  -4.87358E+2   1.60918E+3
  -1.83508E+3  -7.69262E+2
   8.36904E+1   4.65094E+2
   5.44302E+2   1.80327E+3
  -2.05869E+3   1.24331E+3
  -6.77623E+2  -3.92275E+2
  -6.49376E+2   7.58471E+2
  -1.39534E+3  -6.57078E+2
  -1.72748E+3   4.88750E+2
   9.70466E+2   1.11381E+2
   1.44866E+3   2.37027E+2
   6.97633E+1   8.42206E+2
  -1.50121E+3   2.24823E+3
  -3.54836E+2   4.03286E+2
  -1.35398E+3   1.52594E+3
  -1.84412E+3  -5.26092E+2
   1.57065E+3   7.66815E+2
   6.38682E+2   2.75135E+2
   1.46991E+2   4.09748E+2
   2.92931E+2   3.18676E+2
  -1.08192E+3   4.90045E+2
   1.43775E+3   3.10593E+3
   2.56716E+3   8.66398E+2
   5.52968E+2   1.19414E+3
   1.40906E+3  -1.48853E+3
  -1.71258E+2   1.20543E+3
  -5.36296E+2   1.00956E+3
  -4.50709E+1   1.40657E+3
  -1.52767E+3   6.94246E+2
  -1.02971E+1   1.44199E+3
  -1.01727E+3   2.05839E+3
   2.96708E+2   3.03854E+2
  -6.17271E+1  -3.30127E+2
   2.73093E+3  -2.03900E+0
   2.17382E+3   5.68646E+2
   2.30066E+3   8.32183E+2
   6.18487E+2   2.42421E+3
   1.60853E+3   2.54982E+2
   1.47347E+3   2.41199E+2
   1.09746E+2  -1.95814E+3
   3.79763E+2   4.49296E+2
   9.31507E+2   1.26421E+3
   1.47894E+2  -4.84352E+2
  -4.24146E+2   3.59490E+2
  -7.48914E+2   4.75940E+2
   1.58617E+3  -9.59497E+1
   5.13993E+2   5.04553E+1
   2.28301E+3  -2.03313E+3
  -1.53893E+2  -1.31979E+3
   4.98170E+2   1.26660E+3
  -7.55639E+2  -3.96683E+2
  -6.35442E+2   2.36533E+2
  -7.04311E+1  -7.07942E+2
  -1.17429E+3  -1.65731E+3
  -5.04274E+2   4.85754E+2
   4.94262E+2  -3.36040E+2
   7.14187E+2  -1.66500E+3
   8.80455E+2   2.89904E+2
   7.89637E+2  -8.34588E+2
   8.41674E+2   3.63775E+2
  -8.96249E+2  -9.88076E+2
   1.69016E+3   7.83832E+2
  -6.32638E+2  -3.20259E+2
  -3.24723E+2   1.45018E+1
  -2.16526E+3   4.60057E+1
   4.85958E+2   1.62914E+3
   2.44164E+2   7.85282E+2
  -2.59375E+2   1.01533E+3
   9.90301E+2  -1.71420E+3
  -1.86632E+3   1.92854E+2
   6.30768E+2   1.57722E+3
  -6.16752E+0  -1.02240E+3
  -8.79917E+1   5.43849E+2
  -5.65663E+2  -1.22925E+3
  -1.14883E+3  -7.08375E+2
   1.18950E+3   1.16917E+3
   2.17512E+2  -4.41549E+1
  -1.86543E+3   1.21194E+3
   8.91942E+2  -6.81163E+2
  -6.25307E+2   4.04050E+2
  -1.05547E+3   1.05158E+3
  -7.60063E+2   5.53010E+1
  -4.71044E+2   8.98640E+2
  -6.00538E+2  -2.34792E+3
   2.76060E+2  -2.69113E+1
