 LCModel (Version 6.3-1N) Copyright: S.W. Provencher.          Ref.: Magn. Reson. Med. 30:672-679 (1993).                
 Slice_N1@16_12  02-Jun-2023 14:37:07
 27 lines in following concentration table = NCONC+1
    Conc.  %SD /Cr+PCr  Metabolite                                         
 2.50E-06  13% 2.7E-04 Mac                                                 
 4.27E-02  27%   4.636 Cr                                                  
 3.10E-02  38%   3.364 PCr                                                 
 9.13E-02   9%   9.916 Ins                                                 
 8.43E-02   8%   9.157 NAA                                                 
 6.62E-02  11%   7.196 Tau                                                 
 1.55E-02  13%   1.689 PCho                                                
    0.000 999%   0.000 GPC                                                 
 6.92E-02  13%   7.516 Glu                                                 
 2.15E-02  31%   2.339 Gln                                                 
 3.44E-03 203%   0.374 Ala                                                 
 9.54E-03 126%   1.036 Asc                                                 
 1.20E-02  62%   1.300 Asp                                                 
 9.21E-03  43%   1.001 GABA                                                
 8.40E-03  58%   0.912 Glc                                                 
 8.47E-03  44%   0.920 GSH                                                 
    0.000 999%   0.000 Lac                                                 
 1.20E-02  39%   1.302 NAAG                                                
    0.000 999%   0.000 PE                                                  
 1.55E-02  13%   1.689 GPC+PCho                                            
 9.63E-02   8%  10.459 NAA+NAAG                                            
 9.07E-02  12%   9.854 Glu+Gln                                             
 7.36E-02   9%   8.000 Cr+PCr                                              
 9.63E-02   8%  10.459 NAA+NAAG                                            
 7.36E-02   9%   8.000 Cr+PCr                                              
 9.07E-02  12%   9.854 Glu+Gln                                             
   6 lines in following misc. output table
  FWHM = 0.023 ppm    S/N =   4                                            
  Data shift = 0.006 ppm                                                   
  Ph: -68 deg     -11.6 deg/ppm                                            
  alphaB,S = 7.6E-01,   1.0E+01                                            
   18 spline knots.   Ns = 6(1)                                            
  ( 5) 2 infls.   ( 2) 1 extrs.                                            
  654 points on ppm-axis = NY
      4.000000     3.994181     3.988363     3.982544     3.976726     3.970907     3.965088     3.959270     3.953451     3.947633
      3.941814     3.935995     3.930177     3.924358     3.918540     3.912721     3.906902     3.901084     3.895265     3.889446
      3.883628     3.877809     3.871991     3.866172     3.860353     3.854535     3.848716     3.842898     3.837079     3.831260
      3.825442     3.819623     3.813805     3.807986     3.802167     3.796349     3.790530     3.784712     3.778893     3.773074
      3.767256     3.761437     3.755619     3.749800     3.743981     3.738163     3.732344     3.726526     3.720707     3.714888
      3.709070     3.703251     3.697433     3.691614     3.685795     3.679977     3.674158     3.668339     3.662521     3.656702
      3.650884     3.645065     3.639246     3.633428     3.627609     3.621791     3.615972     3.610153     3.604335     3.598516
      3.592698     3.586879     3.581060     3.575242     3.569423     3.563605     3.557786     3.551967     3.546149     3.540330
      3.534512     3.528693     3.522874     3.517056     3.511237     3.505419     3.499600     3.493781     3.487963     3.482144
      3.476326     3.470507     3.464688     3.458870     3.453051     3.447232     3.441414     3.435595     3.429777     3.423958
      3.418139     3.412321     3.406502     3.400684     3.394865     3.389046     3.383228     3.377409     3.371591     3.365772
      3.359953     3.354135     3.348316     3.342498     3.336679     3.330860     3.325042     3.319223     3.313405     3.307586
      3.301767     3.295949     3.290130     3.284312     3.278493     3.272674     3.266856     3.261037     3.255219     3.249400
      3.243581     3.237763     3.231944     3.226125     3.220307     3.214488     3.208670     3.202851     3.197032     3.191214
      3.185395     3.179577     3.173758     3.167939     3.162121     3.156302     3.150484     3.144665     3.138846     3.133028
      3.127209     3.121391     3.115572     3.109753     3.103935     3.098116     3.092298     3.086479     3.080660     3.074842
      3.069023     3.063205     3.057386     3.051567     3.045749     3.039930     3.034111     3.028293     3.022474     3.016656
      3.010837     3.005018     2.999200     2.993381     2.987563     2.981744     2.975925     2.970107     2.964288     2.958470
      2.952651     2.946832     2.941014     2.935195     2.929377     2.923558     2.917739     2.911921     2.906102     2.900284
      2.894465     2.888646     2.882828     2.877009     2.871191     2.865372     2.859553     2.853735     2.847916     2.842098
      2.836279     2.830460     2.824642     2.818823     2.813004     2.807186     2.801367     2.795549     2.789730     2.783911
      2.778093     2.772274     2.766456     2.760637     2.754818     2.749000     2.743181     2.737363     2.731544     2.725725
      2.719907     2.714088     2.708270     2.702451     2.696632     2.690814     2.684995     2.679177     2.673358     2.667539
      2.661721     2.655902     2.650084     2.644265     2.638446     2.632628     2.626809     2.620991     2.615172     2.609353
      2.603535     2.597716     2.591897     2.586079     2.580260     2.574442     2.568623     2.562804     2.556986     2.551167
      2.545349     2.539530     2.533711     2.527893     2.522074     2.516256     2.510437     2.504618     2.498800     2.492981
      2.487163     2.481344     2.475525     2.469707     2.463888     2.458070     2.452251     2.446432     2.440614     2.434795
      2.428977     2.423158     2.417339     2.411521     2.405702     2.399884     2.394065     2.388246     2.382428     2.376609
      2.370790     2.364972     2.359153     2.353335     2.347516     2.341697     2.335879     2.330060     2.324242     2.318423
      2.312604     2.306786     2.300967     2.295149     2.289330     2.283511     2.277693     2.271874     2.266056     2.260237
      2.254418     2.248600     2.242781     2.236963     2.231144     2.225325     2.219507     2.213688     2.207870     2.202051
      2.196232     2.190414     2.184595     2.178777     2.172958     2.167139     2.161321     2.155502     2.149683     2.143865
      2.138046     2.132228     2.126409     2.120590     2.114772     2.108953     2.103135     2.097316     2.091497     2.085679
      2.079860     2.074042     2.068223     2.062404     2.056586     2.050767     2.044949     2.039130     2.033311     2.027493
      2.021674     2.015856     2.010037     2.004218     1.998400     1.992581     1.986763     1.980944     1.975126     1.969307
      1.963489     1.957670     1.951852     1.946033     1.940215     1.934397     1.928578     1.922760     1.916941     1.911123
      1.905304     1.899486     1.893667     1.887849     1.882030     1.876212     1.870393     1.864575     1.858756     1.852938
      1.847119     1.841301     1.835482     1.829664     1.823845     1.818027     1.812208     1.806390     1.800571     1.794753
      1.788934     1.783116     1.777297     1.771479     1.765660     1.759842     1.754023     1.748205     1.742386     1.736568
      1.730749     1.724931     1.719113     1.713294     1.707476     1.701657     1.695839     1.690020     1.684202     1.678383
      1.672565     1.666746     1.660928     1.655109     1.649291     1.643472     1.637654     1.631835     1.626017     1.620198
      1.614380     1.608561     1.602743     1.596924     1.591106     1.585287     1.579469     1.573650     1.567832     1.562013
      1.556195     1.550376     1.544558     1.538739     1.532921     1.527102     1.521284     1.515465     1.509647     1.503829
      1.498010     1.492192     1.486373     1.480555     1.474736     1.468918     1.463099     1.457281     1.451462     1.445644
      1.439825     1.434007     1.428188     1.422370     1.416551     1.410733     1.404914     1.399096     1.393277     1.387459
      1.381640     1.375822     1.370003     1.364185     1.358366     1.352548     1.346729     1.340911     1.335092     1.329274
      1.323455     1.317637     1.311818     1.306000     1.300182     1.294363     1.288545     1.282726     1.276908     1.271089
      1.265271     1.259452     1.253634     1.247815     1.241997     1.236178     1.230360     1.224541     1.218723     1.212904
      1.207086     1.201267     1.195449     1.189630     1.183812     1.177993     1.172175     1.166356     1.160538     1.154719
      1.148901     1.143082     1.137264     1.131445     1.125627     1.119808     1.113990     1.108171     1.102353     1.096534
      1.090716     1.084898     1.079079     1.073261     1.067442     1.061624     1.055805     1.049987     1.044168     1.038350
      1.032531     1.026713     1.020894     1.015076     1.009257     1.003439     0.997620     0.991802     0.985983     0.980165
      0.974346     0.968528     0.962709     0.956891     0.951072     0.945254     0.939435     0.933617     0.927798     0.921980
      0.916161     0.910343     0.904524     0.898706     0.892887     0.887069     0.881251     0.875432     0.869614     0.863795
      0.857977     0.852158     0.846340     0.840521     0.834703     0.828884     0.823066     0.817247     0.811429     0.805610
      0.799792     0.793973     0.788155     0.782336     0.776518     0.770699     0.764881     0.759062     0.753244     0.747425
      0.741607     0.735788     0.729970     0.724151     0.718333     0.712514     0.706696     0.700877     0.695059     0.689240
      0.683422     0.677603     0.671785     0.665967     0.660148     0.654330     0.648511     0.642693     0.636874     0.631056
      0.625237     0.619419     0.613600     0.607782     0.601963     0.596145     0.590326     0.584508     0.578689     0.572871
      0.567052     0.561234     0.555415     0.549597     0.543778     0.537960     0.532141     0.526323     0.520504     0.514686
      0.508867     0.503049     0.497230     0.491412     0.485593     0.479775     0.473956     0.468138     0.462319     0.456501
      0.450682     0.444864     0.439045     0.433227     0.427408     0.421590     0.415771     0.409953     0.404134     0.398316
      0.392497     0.386679     0.380860     0.375042     0.369223     0.363405     0.357586     0.351767     0.345949     0.340130
      0.334312     0.328493     0.322675     0.316856     0.311038     0.305219     0.299401     0.293582     0.287764     0.281945
      0.276127     0.270308     0.264490     0.258671     0.252853     0.247034     0.241216     0.235397     0.229579     0.223760
      0.217942     0.212123     0.206305     0.200486
 NY phased data points follow
   1.27534E-01 -9.21254E-03 -1.45105E-01 -3.50177E-02 -1.33290E-01 -2.43020E-01 -1.68344E-01 -3.97546E-01 -3.72952E-01 -1.15883E-01
  -5.39544E-02  1.33773E-02  2.06567E-01  4.28946E-01 -1.07154E-01  1.79934E-01  3.68346E-01  6.02362E-02  1.16727E-01  1.46768E-01
   2.41788E-01  4.94912E-02 -4.58847E-02 -4.71588E-02 -7.78464E-02 -9.03761E-03 -2.32677E-01 -2.48831E-01  2.93851E-01  1.14054E-01
   2.83429E-02  1.28773E-01 -4.83611E-02  4.47061E-02 -1.70503E-02 -1.84439E-01 -2.30557E-01 -2.91429E-01 -2.74907E-01 -8.51524E-02
   7.66527E-02  3.21010E-01  3.55418E-01  3.86967E-01  3.18478E-01  3.17355E-01  3.43153E-01  2.58365E-01  2.72038E-01  1.09717E-01
   8.67181E-02  4.28898E-02 -3.72869E-02 -7.29710E-02 -1.60101E-02 -8.34393E-02 -1.45338E-01 -2.86769E-01 -4.41172E-01 -1.68503E-01
  -1.94229E-01 -4.40819E-01 -5.21811E-01 -5.66102E-01 -3.83538E-01 -3.70011E-01 -3.89504E-01  9.69095E-03  1.29946E-01  5.68653E-02
   4.49953E-01  5.32652E-01  1.60102E-01  2.28487E-02 -2.37286E-01 -6.46057E-03  1.58777E-01 -2.18307E-01 -3.22211E-01 -1.38291E-01
  -2.79218E-01 -3.29730E-01  1.19346E-01  9.66090E-02  4.31919E-01  6.18546E-01  5.98205E-01  3.95775E-01  2.68988E-01  3.58799E-01
   3.34301E-01  2.72337E-01 -2.12843E-01  2.78922E-01  2.08838E-01 -6.05172E-02  2.05140E-01  4.59717E-02 -1.71942E-01 -3.87620E-01
  -2.03004E-01 -5.66039E-02 -1.21306E-02 -9.58752E-03  2.35380E-01  4.96535E-01  5.28422E-01  4.55366E-01  3.84708E-01  4.72124E-01
   5.42655E-01  2.89457E-01  3.54104E-01  5.86573E-01  3.02654E-01  1.79598E-01  2.88188E-01  4.22461E-01  3.59404E-01  3.90519E-01
   3.27020E-01  1.86833E-01  2.08058E-01 -3.63888E-02 -1.50564E-01 -8.22753E-02 -2.26125E-01 -3.31551E-01 -5.67841E-01 -5.82161E-01
  -4.03214E-01 -7.34925E-01 -7.80244E-01 -5.94499E-01 -5.38208E-01 -7.66821E-01 -9.57103E-01 -6.40278E-01 -3.58656E-01 -4.41436E-01
  -3.82592E-01 -7.64541E-02 -2.18938E-01 -3.36364E-01 -1.76745E-01 -5.03600E-02  1.10399E-01 -7.30920E-02  1.75426E-01  3.19266E-01
   8.26294E-02  3.19079E-01 -6.94369E-02  1.49183E-01  3.15463E-01  2.30571E-01  4.86743E-01  5.25963E-01  4.17523E-01  2.22014E-01
   7.75245E-01  6.19927E-01  4.61681E-01  5.73643E-01  9.36437E-01  9.01161E-01  8.79676E-01  3.86031E-01 -7.24313E-01 -6.18569E-01
  -9.91604E-01 -9.56669E-01 -1.12475E+00 -7.60926E-01 -5.12896E-01 -5.84251E-01 -3.76701E-01 -5.44068E-01 -2.90601E-01 -5.29587E-01
  -4.72201E-01 -4.33295E-01 -2.46548E-01 -3.61697E-01 -1.39297E-01 -2.19815E-01 -1.71248E-01  1.54707E-01 -3.27499E-01 -2.47039E-01
  -5.75024E-01 -2.02560E-01 -5.15299E-02 -4.53784E-01 -8.52238E-02  9.91221E-02 -2.16765E-01  7.07509E-02  1.69667E-01 -2.42595E-01
  -2.11704E-01 -2.54441E-01 -2.25162E-01 -1.10872E-01  2.49246E-01  1.88609E-02  1.18258E-01  1.70203E-01  1.37020E-01  1.08614E-01
  -1.48231E-01  1.47735E-01  1.55615E-02  1.41666E-01 -1.55052E-01 -3.75392E-02 -1.76003E-02 -1.78142E-01  1.83869E-01 -1.03259E-01
   1.44645E-01 -5.88626E-02  7.30897E-02  4.07122E-01  1.04691E-01  3.66936E-01  2.63433E-01  1.67026E-01  1.63763E-01  1.87600E-01
   5.86939E-01  6.46181E-01  4.86225E-01  1.07124E-02 -1.03195E-01  5.37371E-02 -3.10609E-01 -8.80100E-02  3.42755E-02  1.18789E-01
  -1.65941E-02 -3.67571E-01  1.28273E-01 -3.03091E-02 -1.56908E-02 -7.76671E-02 -7.13278E-02  3.67387E-01 -5.77420E-02 -2.54917E-01
  -2.06852E-01 -8.04537E-04 -1.19136E-01 -7.73695E-02  7.75429E-02 -1.61548E-01  1.15731E-01  1.50329E-01 -3.51252E-02  1.50153E-01
   1.93752E-01  6.56812E-02  9.48357E-02  4.90011E-02  6.97869E-02  1.01535E-01  1.69933E-01  9.75346E-02  4.75072E-02  1.81366E-01
   2.76145E-01  1.57846E-01  6.17951E-03  1.62775E-02 -1.40201E-01 -1.05943E-01 -3.84244E-01  3.39059E-02  2.04668E-01 -3.71064E-01
  -1.74500E-01 -3.04637E-01 -4.26210E-01 -4.95438E-01 -6.83299E-02  4.19866E-01  3.56399E-01  4.84914E-01  4.65420E-01  4.25927E-01
   1.33564E-01  2.85952E-01  3.32348E-01 -1.93912E-01  1.72953E-01  2.03928E-01  2.99020E-02  1.81285E-01  1.58441E-01  5.46628E-02
   4.35767E-02  1.71318E-01  1.49836E-02  2.71977E-01  1.24938E-01  2.19035E-01  3.19229E-01  7.20430E-02  1.95605E-01  7.00044E-02
   4.00144E-01  4.21857E-01  1.95976E-01  8.54229E-02  1.96060E-01  1.39000E-01  4.46414E-02  6.45837E-02  1.54131E-01 -8.35129E-02
  -3.43080E-01 -1.09298E-02 -5.39469E-01 -2.31609E-01 -1.06426E-01 -4.25394E-01 -9.77231E-02  9.37414E-02  2.25772E-02 -1.02977E-01
   3.32395E-01  2.69626E-01  3.45318E-01 -1.03482E-01 -3.04777E-01 -4.83858E-03 -5.90066E-01 -6.16563E-01 -4.11788E-01 -4.00144E-01
  -4.99148E-01 -8.10323E-01 -1.35180E+00 -1.67830E+00 -1.10960E+00 -8.42107E-01 -7.00850E-01 -2.87461E-01 -2.10761E-01  2.41723E-01
   3.43596E-01  1.70916E-01 -9.58919E-02  2.19839E-02  3.78179E-01  6.08518E-02  2.81758E-01  4.25776E-01  1.21077E-01  1.28112E-01
   3.20704E-01  4.33622E-02  1.96805E-01  2.85492E-01 -1.32166E-01  5.45907E-02  5.08849E-02 -9.87666E-02  1.70533E-02  8.28747E-02
  -2.23959E-02  6.24483E-02  1.76778E-01  1.56297E-01  6.21282E-02  3.00778E-01  2.54092E-01  1.64107E-01  2.85312E-01  2.35605E-01
   2.67510E-01  2.85604E-02  1.54948E-01 -2.81228E-03  3.80813E-03  1.54056E-01  1.99894E-01  2.20139E-01  3.06359E-02  1.49074E-01
   3.22242E-01  2.08198E-01  5.67836E-03  4.95232E-01  4.81998E-01  3.64707E-01  3.28403E-01  1.17701E-01  1.96284E-02  9.30814E-02
   2.26638E-01  2.38875E-01  5.99375E-02 -2.27029E-01  6.60573E-02 -2.23549E-01  9.47746E-02  2.23657E-01 -6.21618E-02  1.12767E-02
  -3.76772E-01 -1.43917E-01 -5.23731E-02 -1.41606E-01 -3.71245E-02 -2.85372E-01 -3.40387E-01 -1.82684E-01 -4.90071E-01  6.49409E-02
  -1.78235E-01 -6.08261E-01 -3.44366E-02 -4.51627E-01 -3.28134E-01 -1.88988E-01 -1.46000E-01 -1.46255E-01 -2.03637E-01 -1.83826E-01
  -2.74984E-01 -8.30023E-02 -1.24582E-01  1.37316E-01  3.90173E-02 -4.21121E-02  2.48339E-01  1.18407E-01  2.00524E-01 -1.66232E-02
  -2.60211E-01  1.23134E-02 -8.72700E-02  1.30232E-01  4.36213E-01  1.50678E-01  1.33519E-01  3.25776E-01  1.75426E-01  1.23287E-01
   1.07866E-01  3.25202E-01  5.13511E-01  1.61905E-01  3.31429E-01  2.72575E-01  1.93124E-02 -5.19662E-02 -1.71483E-01 -3.52652E-01
  -9.38751E-02  1.73200E-01 -7.51999E-02  2.19470E-01  1.25697E-01  9.29693E-02 -1.90116E-01 -3.18476E-01  6.19794E-02 -2.14128E-01
  -2.81396E-01 -2.66948E-01 -2.89599E-01 -1.75476E-01 -6.98607E-02 -1.53315E-01 -1.69643E-01 -1.99225E-01 -5.73444E-02 -2.90219E-02
  -2.27871E-01 -1.48313E-01  1.97794E-01  1.36328E-01 -3.54217E-01 -4.24512E-02 -1.25518E-02  4.70092E-02 -6.11594E-02 -1.46025E-01
   3.00064E-01 -1.51813E-01  1.39940E-01  3.20714E-01 -5.77708E-02  8.67810E-02 -4.46928E-04 -6.28363E-02  3.30453E-02  1.71265E-01
  -5.13685E-02  2.02369E-03 -8.52299E-02 -1.00473E-01  1.56549E-01  1.74927E-01  2.94396E-01  1.17472E-02  2.91846E-01  1.82786E-01
   2.42793E-01  3.10296E-01  1.56965E-01  6.14679E-01  2.22409E-01  2.59329E-01  8.79966E-02  1.19041E-01  1.90280E-01  1.41241E-01
   1.15931E-01 -2.44196E-01  7.82849E-02 -3.61891E-01 -2.84717E-01 -2.02528E-01 -3.55043E-01 -2.94052E-01 -5.44576E-01 -2.79825E-01
  -5.33376E-01 -5.64813E-01 -3.15528E-01 -2.62210E-01 -1.08980E-01 -8.92505E-02 -2.67850E-01 -8.63334E-02  2.16696E-01 -5.34182E-01
  -3.04428E-01 -2.21794E-01 -7.06891E-01  1.28028E-01 -2.65659E-01 -3.61610E-01  6.32760E-02  8.17491E-03  1.37534E-01 -1.05859E-02
  -5.28898E-02 -3.42976E-02  4.16835E-01 -4.45940E-02  2.40412E-01  4.59096E-01 -1.66666E-01  3.10053E-01  8.35107E-02  8.19900E-02
   3.22350E-01  5.10118E-02  4.47602E-02  1.90697E-01  8.68754E-02  1.08906E-01  1.06826E-01  6.02215E-02  4.01031E-03 -1.57547E-01
  -1.84426E-02  5.79650E-02  1.16572E-01  2.15190E-02  1.19000E-01  7.27322E-02 -1.59802E-01 -1.39390E-01 -1.38450E-02 -4.65091E-02
   1.80059E-01  1.32768E-01 -1.89033E-01  1.41549E-01  5.70192E-02 -7.12384E-02 -2.21609E-02  1.36694E-01  1.02446E-01  1.01258E-01
  -3.04792E-03 -2.61596E-01 -2.10399E-01  1.62779E-02  3.28364E-01 -7.24588E-02 -1.32194E-01  3.57922E-02 -4.34669E-02 -8.63926E-02
   7.94155E-02 -1.67253E-02 -6.68859E-02  2.88694E-01  9.13543E-02 -1.27496E-01 -8.68341E-02 -1.21516E-02 -2.89741E-02  6.78966E-03
  -1.48111E-01 -6.07522E-02 -1.64198E-01 -2.82011E-01 -1.73361E-01 -6.63576E-02  2.95510E-01 -4.47628E-02 -1.36686E-01  1.53679E-01
   1.87776E-01 -1.12764E-01  1.82530E-02  2.87946E-01 -2.84314E-02  2.80329E-02  1.09369E-01  2.94067E-02 -4.09053E-02  1.55475E-01
   7.93729E-02  5.75543E-03  2.27037E-01 -3.21644E-01 -9.68442E-02  2.87821E-01 -1.13989E-01 -2.95294E-02  1.29945E-02  3.57091E-02
  -8.98419E-02  5.06726E-02  1.28164E-01 -2.30840E-02  1.38161E-01  1.34725E-01  6.49722E-02  3.55788E-01  2.82385E-01 -3.05499E-01
   5.74002E-02 -5.22733E-03  9.70619E-02  1.74522E-01
 NY points of the fit to the data follow
   3.15508E-02  2.77642E-02  2.24317E-02  1.47203E-02  9.51372E-03  8.80259E-03  2.17325E-02  3.50944E-02  3.06737E-02  7.30035E-02
   1.51591E-01  2.34291E-01  3.79072E-01  4.71472E-01  4.96851E-01  5.89862E-01  5.85357E-01  4.10582E-01  2.66192E-01  1.90117E-01
   1.14511E-01  2.50904E-02 -1.43378E-02 -2.39160E-02 -4.93900E-02 -7.01523E-02 -8.90891E-02 -1.03963E-01 -1.14221E-01 -1.24303E-01
  -1.33096E-01 -1.43321E-01 -1.58347E-01 -1.79178E-01 -1.94940E-01 -2.17703E-01 -2.34727E-01 -2.35953E-01 -2.06673E-01 -1.35410E-01
  -3.48191E-02  5.21709E-02  1.34846E-01  2.17034E-01  2.76682E-01  2.82494E-01  2.61238E-01  2.21029E-01  1.62903E-01  1.14458E-01
   6.50859E-02  2.23008E-02 -1.26095E-02 -4.70605E-02 -8.45025E-02 -1.29504E-01 -1.81333E-01 -2.39538E-01 -2.78775E-01 -3.27642E-01
  -3.65157E-01 -3.35244E-01 -3.70239E-01 -3.66716E-01 -2.70782E-01 -2.82027E-01 -1.69286E-01  9.60104E-02  1.81008E-01  2.58696E-01
   3.89154E-01  4.10449E-01  3.15726E-01  2.09678E-01  1.36157E-01  2.98193E-02 -5.93869E-02 -1.83018E-01 -3.18628E-01 -4.32771E-01
  -5.19399E-01 -4.02011E-01 -1.86798E-01 -6.48442E-02  1.43688E-01  4.04915E-01  5.02976E-01  4.71242E-01  4.38330E-01  4.14961E-01
   3.40640E-01  2.70665E-01  2.23576E-01  1.84543E-01  1.23226E-01  6.21170E-02 -3.70925E-02 -1.65919E-01 -2.70221E-01 -3.27572E-01
  -3.00819E-01 -1.61018E-01 -7.88916E-03  1.50292E-01  2.61229E-01  3.21008E-01  3.47811E-01  3.35478E-01  3.24558E-01  3.08548E-01
   3.06627E-01  3.05454E-01  3.03376E-01  3.01255E-01  2.99434E-01  2.98004E-01  2.96904E-01  2.85312E-01  2.87417E-01  2.82713E-01
   2.36599E-01  2.16089E-01  1.32900E-01  3.57447E-02 -2.98766E-02 -1.35737E-01 -2.84385E-01 -3.59480E-01 -4.64298E-01 -6.24810E-01
  -7.20843E-01 -5.82947E-01 -5.02190E-01 -4.87706E-01 -5.48665E-01 -7.91904E-01 -8.92677E-01 -7.13269E-01 -5.31321E-01 -4.21986E-01
  -2.51674E-01 -6.35520E-02  2.22894E-02  1.95224E-02  4.32889E-02  6.98062E-02  9.47707E-02  1.17189E-01  1.37860E-01  1.57009E-01
   1.74811E-01  1.92590E-01  2.10210E-01  2.28118E-01  2.48014E-01  2.71213E-01  2.96867E-01  3.26867E-01  3.62054E-01  4.05427E-01
   4.67072E-01  5.57309E-01  5.17615E-01  6.17603E-01  7.77554E-01  8.14892E-01  7.66580E-01  2.78509E-01 -5.40269E-01 -8.19801E-01
  -8.16128E-01 -8.63385E-01 -8.50740E-01 -6.47253E-01 -4.17189E-01 -3.92159E-01 -3.69556E-01 -3.45270E-01 -3.25246E-01 -3.10068E-01
  -2.85491E-01 -2.64301E-01 -2.51196E-01 -2.40329E-01 -2.26719E-01 -2.16277E-01 -2.07631E-01 -1.97694E-01 -1.86749E-01 -1.76898E-01
  -1.66837E-01 -1.54841E-01 -1.44122E-01 -1.33803E-01 -1.23143E-01 -1.12250E-01 -1.02160E-01 -9.18762E-02 -8.23724E-02 -7.34934E-02
  -6.31316E-02 -5.03549E-02 -3.74812E-02 -3.17712E-02 -3.49079E-02 -3.65907E-02 -3.03923E-02 -2.15952E-02 -1.99212E-02 -2.94235E-02
  -3.98778E-02 -4.19635E-02 -4.28379E-02 -4.44086E-02 -3.90373E-02 -2.51569E-02 -1.02862E-02 -1.11244E-04 -5.17063E-04  4.20928E-03
   1.56326E-02  2.64764E-02  4.59575E-02  7.83358E-02  1.47501E-01  2.26563E-01  2.44430E-01  2.32104E-01  2.37254E-01  2.90157E-01
   3.53964E-01  3.13588E-01  2.08219E-01  1.39515E-01  8.11229E-02  7.59285E-03 -5.15971E-02 -6.54091E-02 -6.19556E-02 -6.90363E-02
  -7.70149E-02 -8.37383E-02 -8.98155E-02 -9.42782E-02 -9.77577E-02 -1.01292E-01 -1.04047E-01 -1.07441E-01 -1.10330E-01 -1.12643E-01
  -1.17009E-01 -1.06745E-01 -1.18948E-01 -1.35907E-01 -1.17161E-01 -1.10237E-01 -6.07954E-02  4.36240E-03  1.34087E-02  6.14594E-02
   1.25241E-01  1.44717E-01  1.34707E-01  1.17660E-01  1.46022E-01  1.50377E-01  1.29583E-01  1.36066E-01  1.38460E-01  1.46262E-01
   1.29758E-01  1.05345E-01  8.14663E-02  4.41468E-02  9.76070E-03 -3.26422E-02 -7.44962E-02 -1.12698E-01 -1.59217E-01 -2.02683E-01
  -2.47666E-01 -3.05853E-01 -3.20810E-01 -2.84854E-01 -1.92748E-01 -1.78107E-02  1.53869E-01  2.88590E-01  3.82073E-01  3.94907E-01
   3.58884E-01  2.99619E-01  2.48527E-01  2.12247E-01  1.89365E-01  2.00964E-01  2.12211E-01  2.21297E-01  2.29345E-01  2.28280E-01
   2.23928E-01  2.15440E-01  2.06947E-01  1.96099E-01  1.86672E-01  1.76367E-01  1.59720E-01  1.44986E-01  1.19316E-01  9.08339E-02
   6.59623E-02  3.85351E-02  1.85485E-02  9.92980E-03 -3.94052E-03 -2.01641E-02 -4.99539E-02 -9.16301E-02 -1.45356E-01 -1.88954E-01
  -2.25851E-01 -2.53254E-01 -2.54720E-01 -2.35699E-01 -1.97993E-01 -1.44458E-01 -8.13591E-02 -2.00223E-02  2.89805E-02  5.51281E-02
   4.23999E-02 -2.72449E-03 -3.93154E-02 -9.89277E-02 -1.65192E-01 -2.38969E-01 -3.62883E-01 -4.74761E-01 -3.49293E-01 -3.43692E-01
  -5.44212E-01 -8.66443E-01 -1.39587E+00 -1.60667E+00 -1.21238E+00 -8.60692E-01 -6.39078E-01 -3.47077E-01 -4.36960E-02  5.97443E-02
  -7.99111E-03 -2.29199E-03  1.09819E-02  2.33341E-02  3.20103E-02  3.99382E-02  4.69482E-02  4.71653E-02  4.53650E-02  3.75695E-02
   2.25128E-02  6.99843E-03 -1.07048E-02 -2.82862E-02 -3.67789E-02 -4.00941E-02 -3.34043E-02 -2.26021E-02 -9.70151E-03  4.36085E-03
   1.71630E-02  3.01891E-02  4.06113E-02  4.98929E-02  5.63797E-02  6.18128E-02  6.72894E-02  7.18827E-02  7.64047E-02  8.04909E-02
   8.39666E-02  8.74140E-02  9.10263E-02  9.47334E-02  9.80353E-02  1.00718E-01  1.02667E-01  1.04525E-01  1.07016E-01  1.10384E-01
   1.13518E-01  1.17082E-01  1.19037E-01  1.19235E-01  1.17494E-01  1.14495E-01  1.11728E-01  1.08373E-01  1.03962E-01  9.89307E-02
   9.31512E-02  8.64637E-02  7.90698E-02  7.08937E-02  6.25187E-02  5.51375E-02  4.88054E-02  4.21680E-02  3.48304E-02  2.89602E-02
   2.38531E-02  1.82989E-02  1.39476E-02  1.01867E-02  6.70227E-03  3.33271E-03 -9.38437E-05 -3.12762E-03 -5.77199E-03 -8.08899E-03
  -9.63525E-03 -1.10201E-02 -1.15776E-02 -1.02832E-02 -7.98789E-03 -5.49094E-03 -1.63046E-03  4.01975E-03  1.12170E-02  1.79412E-02
   2.53654E-02  3.33610E-02  4.14943E-02  5.63313E-02  7.36139E-02  8.34737E-02  8.88226E-02  8.95416E-02  8.46220E-02  8.29971E-02
   8.68319E-02  9.44947E-02  1.04298E-01  1.17590E-01  1.31837E-01  1.44180E-01  1.56380E-01  1.66999E-01  1.75200E-01  1.81218E-01
   1.84695E-01  1.85604E-01  1.84996E-01  1.83052E-01  1.79600E-01  1.74861E-01  1.67578E-01  1.57710E-01  1.46120E-01  1.34204E-01
   1.22929E-01  1.11195E-01  9.96987E-02  8.88178E-02  7.82608E-02  6.86409E-02  6.05458E-02  5.21216E-02  4.44639E-02  3.83487E-02
   3.32649E-02  2.82805E-02  2.39338E-02  2.11079E-02  1.98318E-02  2.06500E-02  2.25669E-02  2.51953E-02  2.90005E-02  3.36460E-02
   3.84277E-02  4.37297E-02  4.98771E-02  5.56456E-02  6.00562E-02  6.35343E-02  6.62348E-02  6.81049E-02  6.96870E-02  7.26938E-02
   7.47848E-02  7.47112E-02  7.42552E-02  7.27903E-02  7.03615E-02  6.70799E-02  6.25094E-02  5.82862E-02  5.48331E-02  5.12137E-02
   4.69441E-02  4.24769E-02  3.87969E-02  3.48885E-02  3.02500E-02  2.53158E-02  2.06304E-02  1.64989E-02  1.30647E-02  9.83687E-03
   5.72451E-03  1.28009E-03 -3.27781E-03 -9.09363E-03 -1.69866E-02 -2.58227E-02 -3.49269E-02 -4.43938E-02 -5.56311E-02 -6.92346E-02
  -8.49263E-02 -1.02822E-01 -1.21931E-01 -1.40403E-01 -1.59013E-01 -1.76788E-01 -1.92331E-01 -2.06133E-01 -2.18813E-01 -2.29715E-01
  -2.37371E-01 -2.40729E-01 -2.41045E-01 -2.40349E-01 -2.37296E-01 -2.30744E-01 -2.22309E-01 -2.14158E-01 -2.06531E-01 -1.98144E-01
  -1.89912E-01 -1.81834E-01 -1.72258E-01 -1.61966E-01 -1.51183E-01 -1.39362E-01 -1.26923E-01 -1.14755E-01 -1.03576E-01 -9.24585E-02
  -8.15147E-02 -7.16069E-02 -6.10844E-02 -5.20428E-02 -4.43622E-02 -3.66639E-02 -2.91099E-02 -2.15670E-02 -1.58399E-02 -1.20111E-02
  -7.12562E-03 -2.08548E-03  1.08256E-03  3.53726E-03  5.96569E-03  8.42396E-03  9.98535E-03  1.14012E-02  1.26169E-02  1.30510E-02
   1.45492E-02  1.68919E-02  1.87109E-02  2.06049E-02  2.30892E-02  2.46931E-02  2.45959E-02  2.47971E-02  2.53472E-02  2.45091E-02
   2.41620E-02  2.43632E-02  2.37784E-02  2.37641E-02  2.38183E-02  2.31667E-02  2.35522E-02  2.47678E-02  2.53011E-02  2.45475E-02
   2.19903E-02  1.98161E-02  1.96846E-02  1.99892E-02  1.95154E-02  1.92546E-02  2.02701E-02  2.04027E-02  1.83398E-02  1.69529E-02
   1.75548E-02  1.87898E-02  1.97543E-02  2.03790E-02  2.18958E-02  2.33207E-02  2.45297E-02  2.52145E-02  2.59160E-02  2.70716E-02
   2.80448E-02  2.82140E-02  2.72136E-02  2.61199E-02  2.67371E-02  2.72912E-02  2.82154E-02  3.00688E-02  3.15809E-02  3.29433E-02
   3.33186E-02  3.41078E-02  3.72321E-02  4.01013E-02  4.14546E-02  4.18681E-02  4.09240E-02  4.02698E-02  4.04361E-02  4.12683E-02
   4.21619E-02  4.19814E-02  4.20963E-02  4.30376E-02  4.37185E-02  4.41501E-02  4.47789E-02  4.52525E-02  4.64342E-02  4.91553E-02
   5.07574E-02  5.13043E-02  5.30623E-02  5.54485E-02  5.69434E-02  5.85830E-02  6.11549E-02  6.54035E-02  7.05839E-02  7.52932E-02
   7.89232E-02  8.23956E-02  8.60133E-02  8.91615E-02
 NY background values follow
     3.772E-02    3.788E-02    3.803E-02    3.818E-02    3.834E-02    3.849E-02    3.865E-02    3.880E-02    3.896E-02    3.911E-02
     3.926E-02    3.942E-02    3.957E-02    3.973E-02    3.988E-02    4.003E-02    4.019E-02    4.034E-02    4.049E-02    4.065E-02
     4.080E-02    4.095E-02    4.110E-02    4.126E-02    4.141E-02    4.156E-02    4.171E-02    4.186E-02    4.201E-02    4.216E-02
     4.231E-02    4.246E-02    4.261E-02    4.276E-02    4.291E-02    4.306E-02    4.321E-02    4.335E-02    4.350E-02    4.365E-02
     4.379E-02    4.394E-02    4.408E-02    4.423E-02    4.437E-02    4.451E-02    4.465E-02    4.480E-02    4.494E-02    4.508E-02
     4.522E-02    4.536E-02    4.550E-02    4.564E-02    4.577E-02    4.591E-02    4.605E-02    4.618E-02    4.632E-02    4.645E-02
     4.658E-02    4.672E-02    4.685E-02    4.698E-02    4.711E-02    4.724E-02    4.737E-02    4.749E-02    4.762E-02    4.775E-02
