 LCModel (Version 6.3-1N) Copyright: S.W. Provencher.          Ref.: Magn. Reson. Med. 30:672-679 (1993).                
 Slice_N1@15_19  02-Jun-2023 14:37:18
 27 lines in following concentration table = NCONC+1
    Conc.  %SD /Cr+PCr  Metabolite                                         
 2.55E-06  14% 3.1E-04 Mac                                                 
 3.73E-02  17%   4.517 Cr                                                  
 2.87E-02  22%   3.483 PCr                                                 
 8.83E-02  10%  10.695 Ins                                                 
 8.22E-02   8%   9.957 NAA                                                 
 4.56E-02  15%   5.529 Tau                                                 
 6.73E-03  47%   0.816 PCho                                                
 5.07E-03  59%   0.615 GPC                                                 
 5.86E-02  16%   7.095 Glu                                                 
 2.76E-02  25%   3.340 Gln                                                 
    0.000 999%   0.000 Ala                                                 
 2.08E-02  57%   2.524 Asc                                                 
 6.74E-03 111%   0.816 Asp                                                 
 8.20E-03  49%   0.993 GABA                                                
 8.77E-03  58%   1.063 Glc                                                 
 8.35E-03  46%   1.012 GSH                                                 
    0.000 999%   0.000 Lac                                                 
 1.26E-02  32%   1.525 NAAG                                                
    0.000 999%   0.000 PE                                                  
 1.18E-02  16%   1.430 GPC+PCho                                            
 9.48E-02   8%  11.482 NAA+NAAG                                            
 8.61E-02  13%  10.435 Glu+Gln                                             
 6.60E-02   9%   8.000 Cr+PCr                                              
 9.48E-02   8%  11.482 NAA+NAAG                                            
 6.60E-02   9%   8.000 Cr+PCr                                              
 8.61E-02  13%  10.435 Glu+Gln                                             
   6 lines in following misc. output table
  FWHM = 0.012 ppm    S/N =   6                                            
  Data shift = 0.017 ppm                                                   
  Ph: -26 deg      -8.1 deg/ppm                                            
  alphaB,S = 1.4E+00,   2.0E-01                                            
   18 spline knots.   Ns = 5(1)                                            
   3 inflections.     1 extrema                                            
  654 points on ppm-axis = NY
      4.000000     3.994181     3.988363     3.982544     3.976726     3.970907     3.965088     3.959270     3.953451     3.947633
      3.941814     3.935995     3.930177     3.924358     3.918540     3.912721     3.906902     3.901084     3.895265     3.889446
      3.883628     3.877809     3.871991     3.866172     3.860353     3.854535     3.848716     3.842898     3.837079     3.831260
      3.825442     3.819623     3.813805     3.807986     3.802167     3.796349     3.790530     3.784712     3.778893     3.773074
      3.767256     3.761437     3.755619     3.749800     3.743981     3.738163     3.732344     3.726526     3.720707     3.714888
      3.709070     3.703251     3.697433     3.691614     3.685795     3.679977     3.674158     3.668339     3.662521     3.656702
      3.650884     3.645065     3.639246     3.633428     3.627609     3.621791     3.615972     3.610153     3.604335     3.598516
      3.592698     3.586879     3.581060     3.575242     3.569423     3.563605     3.557786     3.551967     3.546149     3.540330
      3.534512     3.528693     3.522874     3.517056     3.511237     3.505419     3.499600     3.493781     3.487963     3.482144
      3.476326     3.470507     3.464688     3.458870     3.453051     3.447232     3.441414     3.435595     3.429777     3.423958
      3.418139     3.412321     3.406502     3.400684     3.394865     3.389046     3.383228     3.377409     3.371591     3.365772
      3.359953     3.354135     3.348316     3.342498     3.336679     3.330860     3.325042     3.319223     3.313405     3.307586
      3.301767     3.295949     3.290130     3.284312     3.278493     3.272674     3.266856     3.261037     3.255219     3.249400
      3.243581     3.237763     3.231944     3.226125     3.220307     3.214488     3.208670     3.202851     3.197032     3.191214
      3.185395     3.179577     3.173758     3.167939     3.162121     3.156302     3.150484     3.144665     3.138846     3.133028
      3.127209     3.121391     3.115572     3.109753     3.103935     3.098116     3.092298     3.086479     3.080660     3.074842
      3.069023     3.063205     3.057386     3.051567     3.045749     3.039930     3.034111     3.028293     3.022474     3.016656
      3.010837     3.005018     2.999200     2.993381     2.987563     2.981744     2.975925     2.970107     2.964288     2.958470
      2.952651     2.946832     2.941014     2.935195     2.929377     2.923558     2.917739     2.911921     2.906102     2.900284
      2.894465     2.888646     2.882828     2.877009     2.871191     2.865372     2.859553     2.853735     2.847916     2.842098
      2.836279     2.830460     2.824642     2.818823     2.813004     2.807186     2.801367     2.795549     2.789730     2.783911
      2.778093     2.772274     2.766456     2.760637     2.754818     2.749000     2.743181     2.737363     2.731544     2.725725
      2.719907     2.714088     2.708270     2.702451     2.696632     2.690814     2.684995     2.679177     2.673358     2.667539
      2.661721     2.655902     2.650084     2.644265     2.638446     2.632628     2.626809     2.620991     2.615172     2.609353
      2.603535     2.597716     2.591897     2.586079     2.580260     2.574442     2.568623     2.562804     2.556986     2.551167
      2.545349     2.539530     2.533711     2.527893     2.522074     2.516256     2.510437     2.504618     2.498800     2.492981
      2.487163     2.481344     2.475525     2.469707     2.463888     2.458070     2.452251     2.446432     2.440614     2.434795
      2.428977     2.423158     2.417339     2.411521     2.405702     2.399884     2.394065     2.388246     2.382428     2.376609
      2.370790     2.364972     2.359153     2.353335     2.347516     2.341697     2.335879     2.330060     2.324242     2.318423
      2.312604     2.306786     2.300967     2.295149     2.289330     2.283511     2.277693     2.271874     2.266056     2.260237
      2.254418     2.248600     2.242781     2.236963     2.231144     2.225325     2.219507     2.213688     2.207870     2.202051
      2.196232     2.190414     2.184595     2.178777     2.172958     2.167139     2.161321     2.155502     2.149683     2.143865
      2.138046     2.132228     2.126409     2.120590     2.114772     2.108953     2.103135     2.097316     2.091497     2.085679
      2.079860     2.074042     2.068223     2.062404     2.056586     2.050767     2.044949     2.039130     2.033311     2.027493
      2.021674     2.015856     2.010037     2.004218     1.998400     1.992581     1.986763     1.980944     1.975126     1.969307
      1.963489     1.957670     1.951852     1.946033     1.940215     1.934397     1.928578     1.922760     1.916941     1.911123
      1.905304     1.899486     1.893667     1.887849     1.882030     1.876212     1.870393     1.864575     1.858756     1.852938
      1.847119     1.841301     1.835482     1.829664     1.823845     1.818027     1.812208     1.806390     1.800571     1.794753
      1.788934     1.783116     1.777297     1.771479     1.765660     1.759842     1.754023     1.748205     1.742386     1.736568
      1.730749     1.724931     1.719113     1.713294     1.707476     1.701657     1.695839     1.690020     1.684202     1.678383
      1.672565     1.666746     1.660928     1.655109     1.649291     1.643472     1.637654     1.631835     1.626017     1.620198
      1.614380     1.608561     1.602743     1.596924     1.591106     1.585287     1.579469     1.573650     1.567832     1.562013
      1.556195     1.550376     1.544558     1.538739     1.532921     1.527102     1.521284     1.515465     1.509647     1.503829
      1.498010     1.492192     1.486373     1.480555     1.474736     1.468918     1.463099     1.457281     1.451462     1.445644
      1.439825     1.434007     1.428188     1.422370     1.416551     1.410733     1.404914     1.399096     1.393277     1.387459
      1.381640     1.375822     1.370003     1.364185     1.358366     1.352548     1.346729     1.340911     1.335092     1.329274
      1.323455     1.317637     1.311818     1.306000     1.300182     1.294363     1.288545     1.282726     1.276908     1.271089
      1.265271     1.259452     1.253634     1.247815     1.241997     1.236178     1.230360     1.224541     1.218723     1.212904
      1.207086     1.201267     1.195449     1.189630     1.183812     1.177993     1.172175     1.166356     1.160538     1.154719
      1.148901     1.143082     1.137264     1.131445     1.125627     1.119808     1.113990     1.108171     1.102353     1.096534
      1.090716     1.084898     1.079079     1.073261     1.067442     1.061624     1.055805     1.049987     1.044168     1.038350
      1.032531     1.026713     1.020894     1.015076     1.009257     1.003439     0.997620     0.991802     0.985983     0.980165
      0.974346     0.968528     0.962709     0.956891     0.951072     0.945254     0.939435     0.933617     0.927798     0.921980
      0.916161     0.910343     0.904524     0.898706     0.892887     0.887069     0.881251     0.875432     0.869614     0.863795
      0.857977     0.852158     0.846340     0.840521     0.834703     0.828884     0.823066     0.817247     0.811429     0.805610
      0.799792     0.793973     0.788155     0.782336     0.776518     0.770699     0.764881     0.759062     0.753244     0.747425
      0.741607     0.735788     0.729970     0.724151     0.718333     0.712514     0.706696     0.700877     0.695059     0.689240
      0.683422     0.677603     0.671785     0.665967     0.660148     0.654330     0.648511     0.642693     0.636874     0.631056
      0.625237     0.619419     0.613600     0.607782     0.601963     0.596145     0.590326     0.584508     0.578689     0.572871
      0.567052     0.561234     0.555415     0.549597     0.543778     0.537960     0.532141     0.526323     0.520504     0.514686
      0.508867     0.503049     0.497230     0.491412     0.485593     0.479775     0.473956     0.468138     0.462319     0.456501
      0.450682     0.444864     0.439045     0.433227     0.427408     0.421590     0.415771     0.409953     0.404134     0.398316
      0.392497     0.386679     0.380860     0.375042     0.369223     0.363405     0.357586     0.351767     0.345949     0.340130
      0.334312     0.328493     0.322675     0.316856     0.311038     0.305219     0.299401     0.293582     0.287764     0.281945
      0.276127     0.270308     0.264490     0.258671     0.252853     0.247034     0.241216     0.235397     0.229579     0.223760
      0.217942     0.212123     0.206305     0.200486
 NY phased data points follow
  -2.89874E-01 -4.12961E-02 -1.34363E-01 -1.91834E-01  1.10444E-01  6.12755E-02  1.11744E-01 -2.15510E-01 -4.55833E-02  1.92698E-01
  -3.62546E-02  5.58763E-01  5.73945E-01  2.23853E-01  8.60478E-02  5.53389E-01  8.02308E-01  2.61357E-02 -1.02061E-01 -2.22911E-01
  -2.76327E-01  3.17915E-01  2.30603E-02 -2.05998E-01 -1.46124E-01 -2.47294E-01 -5.89912E-02  7.17067E-02  8.14704E-03 -3.53628E-01
   8.65807E-02  4.84879E-02 -2.10882E-01  2.23399E-01  5.86633E-02 -3.14099E-01 -5.57248E-01 -2.86978E-01 -1.83465E-01 -2.29926E-01
  -7.01814E-02  1.67215E-01  3.06203E-01  2.05875E-01  4.88340E-01  3.06975E-01  1.61328E-01  4.47059E-01  9.86989E-02  1.64379E-01
   1.39773E-01  1.64607E-01  2.69725E-01 -2.74874E-01 -7.20498E-02 -1.44168E-01 -3.28443E-01 -1.97695E-01 -3.14204E-01 -1.54003E-01
   2.77612E-02 -4.14999E-01 -4.09390E-01 -7.28827E-02 -6.97128E-01 -3.84633E-01  2.77100E-01  3.06671E-01  3.99074E-01  5.32516E-01
   2.36528E-01  1.03754E-01  4.34541E-01 -1.80968E-02 -3.14596E-01 -1.19894E-01 -2.16863E-01 -4.37208E-01 -3.76297E-01 -6.85804E-01
  -6.14894E-01  8.79109E-02 -1.77310E-01 -1.13440E-01  6.72712E-01  3.35662E-01  4.79911E-01  6.21526E-01 -2.64611E-02  4.25897E-01
   1.26169E-01  1.16181E-01  2.31627E-01  5.38896E-02  4.13408E-01  2.13964E-01  1.04127E-01 -1.82952E-01 -7.68171E-02 -1.00470E-01
  -1.43534E-01 -6.52242E-02  2.25911E-01  4.21068E-01  1.35871E-01  5.16323E-01  6.58571E-01  4.72364E-01  3.10563E-01  3.69341E-01
   4.02192E-01  4.16020E-01  3.09538E-01  2.90931E-01  2.66867E-01  2.31635E-01  4.82684E-01  2.65683E-01  1.74433E-01  2.20575E-01
   1.63419E-01 -5.68803E-02 -5.18668E-02 -3.32655E-01 -5.20707E-01 -3.31372E-01 -4.24909E-01 -2.53096E-01 -4.95446E-01 -5.05659E-01
  -4.99615E-01 -5.31568E-01 -2.83453E-01 -4.60699E-01 -5.13308E-01 -5.26316E-01 -7.18691E-01 -7.02691E-01 -5.77184E-01 -7.48763E-01
  -2.74932E-01 -5.35278E-03 -4.69196E-01 -1.80136E-01 -4.83343E-02 -1.42484E-01  1.00543E-01 -7.23609E-02 -1.41131E-01  2.49355E-01
   1.94589E-01  2.13001E-01  2.92812E-01 -7.63442E-02  7.04072E-02  3.48957E-01  4.55369E-01  3.21760E-01  1.63622E-01  5.21049E-01
   5.00173E-01  3.74282E-01  5.97498E-01  8.10922E-01  1.03248E+00  1.15484E+00  7.39575E-01 -2.24968E-01 -1.02677E+00 -1.20679E+00
  -7.13496E-01 -5.91414E-01 -8.90033E-01 -4.24842E-01  1.68640E-01 -1.96816E-01 -7.25339E-01 -3.84179E-01 -2.93881E-01 -4.42405E-01
  -1.64627E-01 -1.83384E-01 -4.32876E-01 -2.35269E-01 -5.63811E-02 -4.35406E-01 -4.20495E-01 -2.85193E-01 -2.85535E-01 -2.30855E-01
   3.42768E-02 -4.58493E-02 -3.79931E-01 -1.90131E-01 -1.37344E-01 -1.65012E-01 -2.76343E-01  5.16137E-03 -6.43712E-02 -1.56284E-01
  -7.87198E-02  1.42967E-01  2.11219E-01 -3.00627E-01 -1.14571E-02 -1.54872E-01  2.21979E-02  7.65389E-02 -4.45874E-02 -2.98403E-02
   2.36349E-02  3.65591E-01 -4.46770E-02 -7.06063E-02 -3.48437E-01 -9.16006E-02  7.61510E-03 -2.08735E-01  1.73081E-01 -1.93604E-01
  -5.73609E-02  1.89971E-01  1.19867E-01  3.36763E-01  6.13211E-02  3.10919E-01  7.40999E-01  2.38250E-01  1.91163E-01  4.12082E-01
   4.16432E-01  5.33942E-01  2.94094E-01 -2.05388E-01  1.06761E-01  9.82560E-02  1.39832E-01  1.70385E-01 -4.08101E-01 -1.30080E-01
  -3.93624E-01 -3.54985E-01  2.43920E-01  9.71036E-02 -2.78313E-02  2.28155E-01 -8.87348E-02 -1.43989E-01  4.01793E-03 -1.77250E-01
   1.01179E-01 -8.93868E-03  1.29975E-02  7.48314E-02 -1.50666E-01 -3.15188E-01  4.24490E-01  2.32638E-01  8.60151E-02  3.38259E-01
  -1.45022E-01  1.25922E-01 -2.91991E-01  2.47335E-01  1.37368E-01 -1.15345E-01  5.16082E-01  1.88131E-01  3.30178E-01  2.40737E-01
   4.16608E-01  4.92696E-01  1.43055E-01  6.01563E-02  1.29210E-01  2.84312E-03 -2.36962E-01  1.24283E-01  1.47703E-01 -1.76551E-01
  -4.38265E-01 -5.35261E-01 -1.03742E-01 -2.45677E-01 -9.92589E-02  2.60660E-01  3.28883E-01  6.81096E-01  3.60012E-01  8.42177E-03
  -3.28796E-02  1.66292E-01 -1.75488E-01 -8.70287E-02  5.39254E-01  1.63949E-01 -1.07085E-01  8.70533E-04  2.99861E-01  3.14287E-01
   2.37671E-01  4.16600E-01  3.79331E-01  2.98560E-01  3.60140E-01  3.60081E-01  4.55326E-01  3.54523E-01  1.53972E-01  2.64104E-01
   4.29501E-01  2.53319E-01  1.85388E-01  3.13057E-01 -5.43592E-02  4.77153E-02  5.25166E-02 -2.18999E-01 -1.94595E-01 -3.14696E-01
  -1.81343E-01 -2.05972E-02 -3.95758E-01 -5.46172E-01 -2.07607E-01  1.89374E-03  1.10770E-01  1.53340E-01  2.54868E-01 -8.84488E-03
  -2.99557E-01 -2.50821E-02  9.86563E-02 -2.87098E-01 -1.01190E-01 -3.13703E-01 -7.42568E-01 -2.73968E-01 -3.47584E-01 -3.10009E-01
  -3.03353E-01 -9.84196E-01 -2.37457E+00 -2.22862E+00 -6.38812E-01 -3.01584E-01 -3.26252E-02 -1.25733E-01 -1.65641E-01  2.58017E-01
   1.73750E-01 -3.57372E-01 -3.41193E-01  3.25229E-01  1.57755E-01  2.34832E-01  1.91224E-01  1.86085E-03  4.72191E-01  3.95766E-01
   2.43675E-01  1.66369E-01  2.33266E-01  1.48171E-01 -6.57022E-02 -8.18766E-02  1.28312E-01 -2.27101E-03 -1.67231E-01  2.94884E-01
   5.26340E-02  3.12135E-01  3.56440E-01  3.58913E-02  2.20004E-01  2.83302E-01  1.84536E-01 -1.18441E-01  1.40972E-01  1.29031E-01
   4.31311E-01  3.30991E-01  6.36568E-02  3.06527E-01  7.05652E-02  1.73264E-02 -9.80283E-03  3.13169E-01  1.79151E-01  1.97444E-01
   2.58713E-01 -1.75711E-02  3.19060E-01  2.74120E-01  1.10324E-01  9.03948E-02  5.86229E-01  2.99992E-01  2.17998E-01  7.55771E-01
  -1.88520E-01 -2.47563E-01  1.40334E-03 -1.72223E-01 -2.33060E-01 -2.16766E-01 -1.14882E-01 -1.82720E-01 -1.23542E-01 -3.49643E-01
  -9.36108E-02  3.89088E-02 -1.18618E-01 -1.64171E-01 -2.24700E-01 -3.35901E-01 -1.04004E-01 -1.71767E-01 -4.93815E-01 -1.84003E-01
  -6.46741E-02 -4.10548E-02 -3.14734E-01 -2.06960E-01 -2.32681E-01 -4.06386E-01 -2.26275E-01 -1.02824E-01 -6.30208E-02 -4.35184E-02
  -1.99721E-01 -3.84229E-01  5.00789E-02  1.26455E-01  1.99228E-02 -3.52203E-01 -1.78119E-01  2.20407E-02 -5.05577E-02 -2.09293E-02
  -2.85142E-01  1.14105E-01  8.26773E-02  2.40257E-01  4.80524E-01  1.18498E-01  2.27127E-01  4.18595E-01  1.88156E-01  1.74928E-01
   4.86721E-01  4.77963E-01  1.96710E-01  1.31307E-01  8.65647E-02  2.71119E-01  1.11623E-01 -3.99720E-01  2.45325E-01  3.37758E-01
   4.40903E-02  1.57571E-01 -1.46635E-02  1.46721E-02 -1.26227E-01 -2.21546E-01 -9.64924E-03 -3.04273E-01 -2.51753E-01 -5.43134E-03
  -2.49360E-01  1.48602E-01 -1.80537E-01 -1.40411E-01  1.71632E-01 -2.44122E-01  1.26898E-01 -1.38053E-01 -2.53872E-01  1.84460E-02
  -1.27498E-01 -4.19017E-02 -7.33886E-02  7.34997E-02  1.33549E-02  4.80095E-02  2.01162E-01 -1.69153E-01 -1.04001E-01  1.09199E-01
   2.36437E-01  2.13302E-01 -8.03977E-02 -9.98299E-02  1.82720E-01  1.92547E-02  1.64238E-01  2.89873E-01 -3.24225E-01  2.99939E-02
   2.73999E-01  2.59899E-01  9.63155E-02 -7.92680E-02  9.58215E-02  3.58290E-01  4.28322E-01 -1.80441E-02  9.03323E-03 -1.01122E-01
   2.67280E-01  2.20187E-01 -2.10290E-01  5.01868E-02  2.76069E-02  1.14881E-01  1.91031E-01  1.40801E-01  1.70100E-01 -2.26026E-04
  -1.83611E-01 -3.04993E-01 -4.70978E-01 -2.58220E-01 -3.60657E-01 -2.13836E-02 -1.70234E-01 -5.93838E-01 -3.84831E-01 -5.99176E-01
  -1.29041E-01 -1.05673E-01  5.41243E-02 -7.29577E-02 -1.78171E-01  9.66454E-02 -3.23614E-01 -2.45657E-01 -2.35571E-01  5.54131E-02
  -2.59075E-01 -3.46819E-01  6.57295E-02  1.91412E-01  2.65694E-01  5.80821E-02  2.55189E-01  1.96516E-01  1.22559E-01  1.50721E-01
   3.27192E-01  2.26360E-02  9.82539E-02  2.24900E-01  1.31238E-01  2.60353E-01 -1.48977E-01  2.41221E-01  1.57460E-01  2.37037E-01
   3.61656E-01  2.54464E-01  4.75552E-01  2.52569E-01 -7.96903E-02  9.41983E-02  4.09149E-01 -1.30270E-01  2.92525E-02 -9.25132E-02
   8.17168E-02  1.39761E-01 -3.72771E-01  9.50503E-02  2.25174E-01  1.55858E-01  3.57895E-01  3.36202E-01 -1.31236E-01  1.08786E-01
   9.61871E-02  5.84421E-02  1.45134E-03 -3.93768E-01  5.83929E-02 -7.76650E-02 -3.75099E-01 -7.34679E-02 -6.94224E-02 -2.75465E-02
  -5.75706E-02 -1.48541E-01  1.08512E-01  1.75070E-01  1.90075E-01  4.40076E-03  5.20374E-02 -2.25558E-01 -1.06722E-01  1.76879E-02
  -3.19500E-01  2.51912E-01  5.53472E-02 -1.18816E-01  1.01218E-01  2.92180E-01  1.80065E-01  1.48960E-02  1.72805E-01  1.56311E-01
  -1.40685E-01 -3.13876E-01 -1.82950E-01  2.33668E-02  2.82920E-01 -8.17153E-02 -8.07149E-03  6.48452E-02  1.12034E-01  9.94678E-03
   3.38836E-02 -3.70642E-02 -1.77123E-01  2.41572E-01  5.59815E-02  1.59730E-01  9.71133E-02  2.01021E-01  1.36625E-01  1.89890E-01
   5.73072E-02 -2.70270E-01  2.12322E-01  7.17071E-02 -1.23404E-01 -7.23012E-02  4.16645E-02 -7.13539E-02 -1.29796E-01 -2.31045E-01
  -2.24547E-01 -1.00176E-01 -2.08527E-02  1.22206E-02  2.61806E-02  2.11008E-01  1.07806E-01  1.59820E-01 -1.52168E-01 -2.66010E-01
  -1.39921E-02  3.77938E-01  1.62369E-01 -1.48270E-01
 NY points of the fit to the data follow
   8.35969E-02  6.08834E-02  3.41385E-02  1.00854E-02  6.95003E-03  1.65214E-02  1.52569E-02 -2.40771E-02  1.24464E-01  9.85756E-02
   1.16273E-01  5.04926E-01  7.18264E-01  2.70624E-01  1.92754E-01  7.31863E-01  7.20458E-01  3.13220E-01  1.29417E-01  7.70835E-02
  -2.04863E-02  2.70859E-02 -1.63250E-02 -5.23797E-02 -7.15204E-02 -9.03662E-02 -1.14128E-01 -1.16060E-01 -1.24656E-01 -1.39457E-01
  -1.40626E-01 -1.46304E-01 -1.69925E-01 -1.99222E-01 -2.41588E-01 -2.66654E-01 -3.26756E-01 -3.09243E-01 -2.89417E-01 -2.29219E-01
  -2.59681E-02  1.89379E-01  2.30388E-01  2.75630E-01  3.33987E-01  2.88245E-01  2.59681E-01  1.94222E-01  1.47621E-01  1.27050E-01
   8.51605E-02  2.07167E-02  1.13161E-02 -3.53796E-02 -8.59971E-02 -1.30073E-01 -1.83666E-01 -2.08092E-01 -2.46411E-01 -2.68167E-01
  -2.85204E-01 -5.54369E-01 -4.30260E-01 -2.06211E-01 -5.36435E-01 -1.78989E-01  3.76338E-01  1.51280E-01  2.77998E-01  6.50406E-01
   4.57006E-01  3.14455E-01  2.64011E-01  1.19871E-01  8.00696E-02  2.00094E-03 -2.16817E-01 -2.79044E-01 -3.92136E-01 -8.55500E-01
  -6.75009E-01 -4.88676E-02  8.15505E-03  1.07449E-01  5.19899E-01  5.71231E-01  4.60141E-01  4.26974E-01  3.39788E-01  2.84629E-01
   2.73920E-01  2.59043E-01  2.26820E-01  1.95859E-01  1.46637E-01  8.20430E-02 -3.38240E-02 -1.47658E-01 -2.42273E-01 -2.70183E-01
  -1.56212E-01  2.29457E-02  1.83986E-01  2.79386E-01  2.84791E-01  2.62015E-01  2.65220E-01  2.50539E-01  2.52633E-01  2.56382E-01
   2.55808E-01  2.53817E-01  2.48868E-01  2.44241E-01  2.43648E-01  2.42927E-01  2.44308E-01  2.50165E-01  2.46445E-01  1.92660E-01
   2.34889E-01  1.17185E-01 -7.92032E-02  1.69388E-03 -2.07491E-01 -2.84762E-01 -2.27315E-01 -3.53909E-01 -5.07581E-01 -5.51906E-01
  -4.62002E-01 -4.10685E-01 -2.00490E-01 -1.94248E-01 -3.51196E-01 -5.91015E-01 -8.47689E-01 -8.43788E-01 -4.07278E-01 -1.46428E-01
  -1.04880E-01  1.17405E-02 -6.30565E-03  2.68596E-02  5.61406E-02  8.21304E-02  1.01726E-01  1.21403E-01  1.37728E-01  1.49905E-01
   1.65663E-01  1.80245E-01  1.93902E-01  2.10914E-01  2.29438E-01  2.48383E-01  2.71948E-01  2.97201E-01  3.20282E-01  3.46603E-01
   3.87483E-01  4.42739E-01  6.66634E-01  6.99620E-01  7.78478E-01  9.62613E-01  6.47646E-01 -2.15367E-01 -1.01282E+00 -1.14931E+00
  -8.30770E-01 -5.66220E-01 -4.80250E-01 -3.87648E-01 -4.09889E-01 -3.76661E-01 -3.24335E-01 -2.98509E-01 -2.74341E-01 -2.83828E-01
  -2.70404E-01 -2.38122E-01 -2.22869E-01 -2.14826E-01 -2.03650E-01 -2.07578E-01 -2.01688E-01 -1.80909E-01 -1.72563E-01 -1.69073E-01
  -1.60614E-01 -1.47732E-01 -1.39067E-01 -1.25590E-01 -1.14782E-01 -1.08827E-01 -9.98466E-02 -9.00157E-02 -7.96975E-02 -7.22500E-02
  -6.63798E-02 -5.02309E-02 -4.21027E-02 -4.85786E-02 -5.67534E-02 -5.72736E-02 -3.89617E-02 -2.42797E-02 -3.97335E-02 -6.03665E-02
  -6.22050E-02 -5.50939E-02 -5.01489E-02 -3.75697E-02 -2.66272E-02 -2.34611E-02 -3.79159E-03  1.73789E-02 -1.09948E-03 -2.16163E-02
  -3.01765E-02  3.06519E-02  7.41022E-02  6.51824E-02  1.72425E-01  2.84209E-01  2.71828E-01  1.85631E-01  1.07379E-01  2.76326E-01
   4.94584E-01  3.45886E-01  1.07001E-01  1.95661E-02 -3.73851E-02 -5.50519E-02 -4.14770E-02 -5.60238E-02 -6.50232E-02 -7.63427E-02
  -8.73779E-02 -9.60293E-02 -9.84947E-02 -1.04584E-01 -1.05958E-01 -1.15751E-01 -1.20407E-01 -1.18557E-01 -1.19811E-01 -1.22372E-01
  -1.13348E-01 -1.14331E-01 -1.72550E-01 -1.27780E-01 -1.52989E-01 -2.29049E-01  7.12557E-03  8.74439E-02 -3.96621E-02  5.27259E-02
   1.71191E-01  1.59531E-01  7.67539E-02  8.02980E-02  1.22602E-01  1.35659E-01  1.34688E-01  1.68707E-01  1.91674E-01  2.17255E-01
   2.04082E-01  1.51511E-01  1.15756E-01  5.48882E-02  3.47607E-02 -7.65056E-03 -3.27241E-02 -9.16803E-02 -1.37360E-01 -1.79722E-01
  -2.89260E-01 -2.91076E-01 -2.56760E-01 -2.30758E-01 -3.72934E-02  1.54999E-01  2.60284E-01  3.88395E-01  3.86847E-01  2.97518E-01
   2.39003E-01  1.81254E-01  1.59179E-01  1.47304E-01  1.51040E-01  1.85512E-01  1.96331E-01  2.05504E-01  2.16975E-01  2.04675E-01
   2.01682E-01  1.94677E-01  1.85162E-01  1.83387E-01  1.79674E-01  1.63895E-01  1.50737E-01  1.38460E-01  8.30857E-02  6.44413E-02
   3.74399E-02 -9.60020E-03  1.12362E-02  1.35685E-02  4.71561E-04 -1.04235E-02 -5.83759E-02 -1.60417E-01 -2.28326E-01 -2.94137E-01
  -3.49119E-01 -3.47064E-01 -3.23398E-01 -2.68129E-01 -1.80539E-01 -6.76223E-02  2.14033E-02  8.67406E-02  1.22054E-01  8.56799E-02
   6.85035E-02  7.61923E-03 -4.23873E-02 -1.85969E-01 -1.82656E-01 -2.29044E-01 -4.80785E-01 -3.11363E-01 -1.68949E-01 -4.31116E-01
  -2.75977E-01 -1.00541E+00 -2.48722E+00 -2.07174E+00 -7.89269E-01 -3.51334E-01 -1.46133E-01 -7.24648E-03 -1.09434E-01 -5.97700E-02
  -3.36231E-02 -1.21805E-02  1.95264E-03  1.46466E-02  2.38156E-02  3.61544E-02  4.46428E-02  4.32480E-02  5.11436E-02  3.41082E-02
   1.47779E-02  1.64583E-03 -2.77067E-02 -4.66661E-02 -4.97248E-02 -4.91046E-02 -3.59342E-02 -1.84466E-02 -7.76817E-03  8.87344E-03
   1.71604E-02  3.07940E-02  4.49628E-02  4.99544E-02  5.40675E-02  5.95790E-02  6.46606E-02  7.12578E-02  7.80299E-02  8.04259E-02
   8.28165E-02  8.67613E-02  9.24021E-02  9.70621E-02  1.00095E-01  1.02694E-01  1.01885E-01  1.04233E-01  1.10571E-01  1.15903E-01
   1.20225E-01  1.24918E-01  1.25321E-01  1.22365E-01  1.19603E-01  1.17728E-01  1.14773E-01  1.11879E-01  1.09227E-01  1.02414E-01
   9.45124E-02  8.88918E-02  8.16575E-02  7.08104E-02  6.26620E-02  5.81975E-02  5.21320E-02  4.28549E-02  3.74260E-02  3.22222E-02
   2.48804E-02  2.21637E-02  2.02959E-02  1.46292E-02  1.12175E-02  7.97229E-03  2.94234E-03 -1.02624E-04 -2.81119E-03 -3.67290E-03
  -5.12760E-03 -8.33455E-03 -7.13365E-03 -3.71082E-03 -3.69500E-03  7.14662E-04  6.21828E-03  9.24229E-03  1.59843E-02  2.31781E-02
   2.58228E-02  2.44863E-02  2.67017E-02  3.38077E-02  4.40003E-02  5.35757E-02  6.11922E-02  6.79323E-02  7.62744E-02  8.68647E-02
   1.00154E-01  1.14788E-01  1.27114E-01  1.41195E-01  1.54134E-01  1.68343E-01  1.82021E-01  1.92742E-01  2.00367E-01  2.02988E-01
   2.04056E-01  2.05695E-01  2.04657E-01  2.04018E-01  2.02050E-01  1.95597E-01  1.86805E-01  1.74222E-01  1.59168E-01  1.48711E-01
   1.38412E-01  1.27490E-01  1.17790E-01  1.04835E-01  9.39439E-02  8.67070E-02  7.93837E-02  7.02922E-02  6.36619E-02  5.80245E-02
   5.27094E-02  4.78663E-02  4.41378E-02  4.00315E-02  4.06841E-02  4.62944E-02  4.74266E-02  4.96402E-02  5.58392E-02  5.97354E-02
   6.56686E-02  7.49850E-02  8.19421E-02  8.53451E-02  8.90881E-02  9.22100E-02  9.33249E-02  9.48079E-02  9.94461E-02  1.04393E-01
   1.05651E-01  1.05542E-01  1.02799E-01  1.00821E-01  9.96284E-02  9.49466E-02  8.95336E-02  8.66523E-02  8.43496E-02  8.09034E-02
   7.67784E-02  7.32988E-02  7.00922E-02  6.42323E-02  6.09740E-02  5.69706E-02  5.01218E-02  4.82518E-02  4.85838E-02  4.47911E-02
   3.98704E-02  3.63779E-02  3.27926E-02  2.50612E-02  1.49891E-02  7.27703E-03 -1.19964E-03 -1.03328E-02 -2.13288E-02 -3.79610E-02
  -6.01603E-02 -8.17440E-02 -1.00230E-01 -1.18048E-01 -1.37329E-01 -1.56762E-01 -1.73153E-01 -1.86039E-01 -1.99417E-01 -2.13365E-01
  -2.18594E-01 -2.16527E-01 -2.16468E-01 -2.18582E-01 -2.12823E-01 -2.02454E-01 -1.95226E-01 -1.88935E-01 -1.80262E-01 -1.75489E-01
  -1.70932E-01 -1.59693E-01 -1.48677E-01 -1.39778E-01 -1.29033E-01 -1.14314E-01 -1.02423E-01 -9.31029E-02 -8.00555E-02 -6.77539E-02
  -6.12467E-02 -4.95319E-02 -3.64574E-02 -2.90659E-02 -2.27679E-02 -1.69813E-02 -6.83206E-03  4.02489E-03  4.54494E-03  6.65303E-03
   1.61075E-02  1.88826E-02  2.15803E-02  2.65546E-02  2.62196E-02  2.70982E-02  3.27465E-02  3.38791E-02  2.98393E-02  3.14927E-02
   3.70419E-02  3.86267E-02  4.04784E-02  4.59627E-02  4.80156E-02  4.59755E-02  4.63890E-02  4.80698E-02  4.65014E-02  4.59966E-02
   4.74177E-02  4.61147E-02  4.54348E-02  4.51536E-02  4.47825E-02  4.71467E-02  4.74487E-02  4.71398E-02  5.12136E-02  4.75699E-02
   3.78890E-02  3.85347E-02  4.37720E-02  4.44113E-02  4.12706E-02  4.03698E-02  4.11642E-02  3.99523E-02  3.58585E-02  3.42849E-02
   3.85197E-02  4.17433E-02  4.10403E-02  4.04978E-02  4.15423E-02  4.21373E-02  4.49039E-02  4.58433E-02  4.50227E-02  4.64979E-02
   4.86025E-02  4.52332E-02  4.04879E-02  4.13574E-02  4.24721E-02  4.32675E-02  4.43035E-02  4.55505E-02  4.73759E-02  4.46272E-02
   4.40825E-02  5.04716E-02  5.28985E-02  5.43594E-02  5.51239E-02  4.93642E-02  4.60850E-02  4.70909E-02  4.79189E-02  5.10741E-02
   5.04428E-02  4.64501E-02  4.64738E-02  4.51700E-02  4.50314E-02  4.72857E-02  4.50462E-02  4.12344E-02  4.48272E-02  4.79592E-02
   4.49823E-02  4.44671E-02  4.39933E-02  4.34843E-02  4.51113E-02  4.40534E-02  4.48427E-02  5.02119E-02  5.38568E-02  5.44687E-02
   5.33567E-02  5.38879E-02  5.45361E-02  5.29048E-02
 NY background values follow
     4.571E-02    4.572E-02    4.572E-02    4.573E-02    4.574E-02    4.574E-02    4.575E-02    4.576E-02    4.576E-02    4.577E-02
     4.578E-02    4.578E-02    4.579E-02    4.580E-02    4.580E-02    4.581E-02    4.582E-02    4.582E-02    4.583E-02    4.584E-02
     4.584E-02    4.585E-02    4.585E-02    4.586E-02    4.587E-02    4.587E-02    4.588E-02    4.589E-02    4.589E-02    4.590E-02
     4.590E-02    4.591E-02    4.591E-02    4.592E-02    4.593E-02    4.593E-02    4.594E-02    4.594E-02    4.595E-02    4.595E-02
     4.596E-02    4.596E-02    4.597E-02    4.597E-02    4.598E-02    4.598E-02    4.599E-02    4.599E-02    4.600E-02    4.600E-02
     4.600E-02    4.601E-02    4.601E-02    4.602E-02    4.602E-02    4.602E-02    4.603E-02    4.603E-02    4.603E-02    4.604E-02
     4.604E-02    4.604E-02    4.604E-02    4.605E-02    4.605E-02    4.605E-02    4.605E-02    4.606E-02    4.606E-02    4.606E-02
