 
 $NMID
 ID=''
 FMTDAT='(2E13.5)'
 TRAMP=   1.00000E+0
 VOLUME=   1.00000E+0
 $END
  -5.20830E+1   8.04262E+2
  -2.44903E+3   3.11680E+2
   8.79273E+3   6.81572E+2
  -1.04497E+3  -3.47077E+2
  -4.28476E+2  -2.99876E+3
   3.08398E+3   4.65537E+3
  -2.27392E+3  -2.83424E+3
   2.03619E+3  -5.76072E+3
   4.73224E+3  -3.57221E+3
   1.34267E+2  -4.98267E+3
   2.97550E+3  -6.93580E+2
  -4.02217E+3   3.76574E+3
  -7.45810E+3  -5.58368E+3
  -1.88421E+3  -4.38530E+3
  -8.22287E+2  -2.44898E+2
  -3.49320E+3   1.05141E+3
  -1.57827E+3   6.11382E+2
  -4.58033E+3   2.27977E+3
   5.12022E+2   1.16696E+3
   2.93758E+2   3.22613E+3
  -2.49829E+3   4.82035E+3
  -2.63183E+3   3.57362E+2
   2.46385E+3  -9.42133E+2
   3.10886E+3   4.57721E+3
  -2.35579E+3   2.13080E+3
  -1.60878E+3  -2.50141E+3
   2.82074E+3  -2.25648E+3
   4.56186E+3   3.98218E+3
  -3.52849E+2   4.74373E+3
  -5.08419E+3   1.84803E+3
  -2.02949E+3  -8.22414E+3
   5.39295E+3  -3.61390E+3
   6.88734E+2   6.26887E+3
  -5.75606E+3   2.04651E+3
   9.97916E+1  -1.56730E+3
  -6.92540E+2   1.46494E+3
  -4.33241E+3   9.69309E+2
  -1.15018E+3  -3.70874E+3
   2.78320E+3  -1.01972E+3
   1.28472E+3   1.99451E+3
   3.10378E+3   2.04937E+3
   2.04783E+3   4.84535E+3
  -2.69026E+3   2.19320E+3
  -4.70552E+3  -2.17211E+3
   2.88265E+3  -8.14965E+2
   2.52198E+3   8.53189E+2
   2.06079E+3   1.44150E+2
   2.76179E+3  -3.50371E+2
   2.28150E+3   1.71076E+3
   1.13342E+3   5.31589E+2
  -2.05078E+3  -1.10560E+3
   1.29751E+3  -2.50089E+3
   3.47264E+3  -3.36376E+3
   2.91596E+3   4.70213E+2
   5.98397E+2   1.78975E+3
   9.50701E+2  -5.54361E+2
  -5.42966E+2   1.03610E+3
  -3.26137E+3  -1.50154E+3
  -1.89274E+3  -5.14778E+3
   2.62554E+3  -2.73024E+3
   4.16294E+3   1.48386E+3
   2.11562E+3   1.78432E+3
  -9.39863E+2   4.46987E+3
  -7.30709E+2  -1.46339E+3
   2.78140E+3   2.09236E+3
   2.29007E+2   3.46067E+3
  -4.01892E+3   9.39882E+2
  -3.70584E+3  -3.71776E+3
  -3.72534E+2  -2.22713E+3
  -2.65181E+2  -8.85113E+2
   4.07025E+2  -5.56872E+2
   5.29306E+2  -9.96308E+2
   1.70230E+3  -3.35289E+1
   7.65270E+2   8.01348E+2
  -2.32629E+3  -9.13675E+2
  -1.62796E+3   1.37846E+3
   3.53136E+2  -1.41425E+3
   1.88585E+3   2.07611E+2
  -6.09295E+2  -2.68976E+2
  -3.05860E+3  -3.95213E+2
  -3.53594E+2  -2.58101E+3
   1.92026E+3  -3.61162E+2
  -3.30876E+3   3.06834E+3
  -1.90318E+3  -7.34821E+2
   1.40688E+3  -3.43851E+3
   2.11819E+3  -2.34460E+3
   2.44666E+3   1.35594E+3
  -2.86217E+2   3.16543E+3
  -9.30736E+2   3.46515E+2
  -8.33681E+2  -7.16814E+2
  -6.09004E+1   8.80373E+2
  -1.92695E+3   1.09740E+3
  -7.64640E+2  -1.12367E+3
   9.58008E+2  -1.47064E+3
   1.97198E+3   2.33910E+2
  -1.46927E+3   2.39140E+3
  -9.32746E+2   2.52673E+3
  -1.80964E+3  -3.76430E+3
   2.91301E+3  -2.67807E+3
   4.09702E+2   2.30122E+3
   4.17659E+2   1.31808E+3
  -1.58961E+3  -1.75429E+3
   2.61553E+3  -2.97881E+3
   3.14844E+3  -2.52913E+3
   2.77154E+3   1.01754E+3
   1.15460E+3  -1.79275E+2
   1.75429E+2   2.14473E+2
   2.03386E+3  -4.34086E+2
   1.79323E+3   2.14849E+3
  -3.22227E+3   2.05234E+3
  -4.19325E+2   6.66868E+2
  -1.28890E+3   9.42555E+1
  -1.06169E+3   9.47233E+1
  -1.23715E+3   4.90049E+2
   3.91748E+2  -2.10120E+2
  -1.98565E+3   7.11260E+1
   1.17946E+3  -1.10856E+3
  -1.41597E+2  -1.04008E+3
  -2.51669E+3  -1.20788E+3
  -5.41611E+2  -7.25798E+2
   7.40915E+2  -2.53214E+3
  -8.26822E+2   1.07745E+3
  -8.04744E+2   2.29997E+1
  -9.33514E+2  -1.96772E+3
   1.10574E+3   6.36013E+1
  -3.94502E+2   3.64292E+2
  -2.61301E+2  -1.45273E+3
   1.05823E+3   1.47171E+2
   1.23810E+2   9.55494E+1
   6.67046E+2  -7.83355E+2
  -3.06487E+3   8.55130E+2
  -7.08851E+2  -9.15245E+2
   5.44113E+2  -2.77189E+3
   5.79818E+2   9.20884E+2
   1.54982E+3   9.79500E+2
  -1.52937E+3   3.00305E+3
   7.04964E+2  -1.33409E+2
  -3.46492E+2   2.28714E+3
   8.05052E+2  -1.36196E+3
  -2.22616E+2   2.80796E+2
  -1.66220E+3  -2.32727E+2
  -1.32494E+3   8.25812E+2
   3.94158E+2   1.42649E+3
  -2.28668E+3  -4.63995E+2
  -9.36381E+2   3.34436E+1
  -9.54392E+2  -1.00796E+2
  -3.35916E+2   7.74873E+2
  -2.76043E+1   2.27919E+3
  -5.29748E+2   2.50896E+2
  -3.96444E+2   3.01579E+2
  -1.16597E+3   1.89543E+3
  -1.38046E+3  -2.28835E+2
  -9.52539E+2  -2.00325E+3
  -8.84565E+2  -1.20916E+3
   7.92974E+2   5.02234E+2
  -4.88285E+2  -1.68027E+3
   1.12397E+3   1.04046E+3
   9.56782E+2  -9.76169E+2
  -1.31154E+3   8.84543E+2
  -1.41503E+3  -2.11082E+3
  -1.35251E+3   9.60623E+2
  -1.25001E+3  -1.20062E+3
   6.37718E+2   1.52275E+3
   7.89830E+0  -1.19542E+3
   1.69597E+3   1.36150E+3
  -7.77334E+2   1.22696E+3
  -5.16357E+2  -1.02803E+3
   8.68112E+2  -2.21338E+3
   2.05045E+3   5.82593E+2
   1.58695E+3  -2.23491E+3
   2.85307E+0   5.89683E+1
   2.16992E+3   1.20085E+3
  -1.23013E+3  -1.64566E+3
   1.22491E+3  -7.38925E+2
   2.70849E+3  -7.95860E+2
   3.01248E+2   1.44530E+3
   5.62040E+2   7.76868E+2
  -6.75335E+2   3.54201E+2
  -1.63667E+2   1.56446E+3
   1.52607E+3   6.77958E+2
  -4.18476E+2  -1.49984E+3
  -1.40335E+3   1.50257E+3
   2.51528E+2   3.19737E+2
  -7.21988E+2   1.78859E+3
  -2.18879E+2   1.90775E+3
   1.76785E+2  -1.57794E+2
   1.50049E+3   1.18245E+3
   1.81752E+3   6.63925E+2
   3.68377E+2   7.96600E+2
   9.54457E+2   7.29182E+2
   2.75777E+2   6.75679E+2
   7.90393E+2  -6.69477E+2
   8.78720E+2   2.46129E+2
  -2.42866E+2  -2.45542E+2
   5.45817E+2   2.18254E+3
  -1.16047E+2  -4.73510E+2
   5.97270E+2  -1.30418E+3
   1.28356E+3  -1.72647E+3
   5.43783E+2   1.45239E+2
   1.30826E+3  -1.10361E+3
   1.49949E+2   2.11571E+3
  -1.46750E+3   1.31718E+3
  -8.29045E+2   6.64411E+2
   1.90517E+3  -3.92137E+2
  -1.48664E+3  -2.42339E+3
  -9.82005E+0   8.96563E+2
  -7.43002E+1  -1.22946E+3
  -6.93248E+2   3.21563E+2
  -1.97728E+3  -2.75201E+2
   6.68166E+2  -4.67320E+2
  -5.08750E+2  -4.47364E+2
  -1.06967E+3  -1.09914E+3
  -1.05763E+3   4.98583E+2
   2.15581E+3   6.34971E+2
   2.49570E+2  -6.85792E+2
   1.06736E+3   1.85984E+3
   9.22627E+1   1.01847E+3
   5.15822E+2   1.31709E+3
   1.01367E+3   1.28840E+3
  -1.52222E+2   7.62934E+2
   9.71920E+2  -7.28757E+2
   9.07424E+2   2.99769E+2
   7.65807E+2  -1.79055E+3
   3.02691E+2   3.07432E+2
  -8.64018E+2  -8.77063E+2
  -8.72520E+2  -1.68582E+3
   1.06926E+3   1.09724E+3
   7.08525E+2   1.34001E+3
  -5.36316E+2   8.02440E+2
   9.92693E+2   1.23488E+3
  -1.25698E+3  -7.71164E+2
   1.07630E+3   1.08100E+3
  -3.32320E+2   2.95578E+2
   1.07530E+3  -4.96512E+2
   1.32044E+3   1.07894E+3
  -7.12710E+2   1.54194E+3
   3.50754E+1  -2.49281E+2
  -9.21512E+1  -9.16508E+2
  -3.88287E+2  -3.33150E+1
   1.13807E+3   6.11555E+2
   1.25350E+3   2.21909E+3
  -1.53381E+3  -3.29559E+2
   8.50899E+2  -7.26499E+2
  -1.35152E+3   3.33332E+2
  -1.97943E+2  -2.61059E+2
   4.17508E+2   4.30790E+2
   4.96034E+2   1.12629E+3
  -1.44303E+3   1.14189E+3
  -1.85630E+2   5.89656E+2
  -5.70358E+2   8.16222E+2
  -3.29725E+2  -1.43300E+2
  -1.41839E+3  -5.49737E+2
  -4.12649E+1  -4.42626E+2
  -9.01423E+2   5.50499E+2
   4.26045E+2   3.47758E+2
   1.53223E+3  -7.66864E+2
   6.55310E+2  -3.98719E+2
   7.35141E+2   1.25099E+3
  -9.49639E+1   4.91303E+2
   3.52765E+2   2.24690E+2
   2.23338E+2   1.07346E+3
   2.29175E+1   8.14706E+2
  -2.09537E+3  -2.48102E+3
  -2.32760E+3   1.72477E+3
   6.87757E+2   1.74919E+2
  -7.20067E+2   1.50730E+3
  -8.87127E+2  -3.51800E+2
   1.43245E+3  -9.63150E+2
  -9.19904E+2  -1.52008E+2
  -7.37439E+2  -8.79143E+2
  -1.96865E+2  -1.67869E+2
   4.00935E+2  -5.22063E+2
  -7.96986E+2   2.10136E+1
  -8.28091E+1   1.61683E+3
   4.51042E+2   3.99150E+1
   6.76606E+2   1.17348E+3
  -6.82561E+2  -1.71494E+3
   7.77871E+2  -1.82308E+3
  -1.79977E+3   3.40922E+2
  -4.63652E+1  -5.21752E+2
  -4.16283E+2  -3.24765E+3
   1.50736E+3   3.38695E+2
  -2.84951E+3  -8.46160E+2
  -6.85813E+1   7.70095E+2
  -5.28806E+2  -4.51976E+2
  -1.47774E+3  -1.54904E+2
   3.78046E+2   1.10301E+3
  -8.71312E+2  -4.69636E+2
  -1.46094E+3  -2.31655E+2
  -8.66650E+2  -1.21805E+3
  -2.92475E+2   5.55064E+2
   9.45678E+1   7.45025E+2
  -7.61694E+2  -2.40717E+2
  -3.44560E+2   4.71550E+2
  -7.87143E+2   6.55812E+2
  -8.82491E+2   2.02744E+2
  -6.81394E+2  -1.19043E+3
   1.71967E+2  -3.61163E+2
  -1.44724E+2   2.03216E+3
  -5.59197E+2  -7.70840E+2
  -5.35530E+2  -1.10569E+3
   8.72192E+2   8.43015E+2
  -5.62324E+2   1.23829E+3
   1.08970E+2   1.33153E+3
  -1.08804E+3  -6.11062E+2
   8.03955E+2  -1.23791E+2
  -1.60411E+1   1.32923E+3
   3.43209E+2   5.33830E+2
  -5.71867E+2  -4.18234E+2
  -2.20103E+2  -1.39395E+3
   3.74243E+1   6.06896E+2
   6.91982E+2  -1.03556E+3
  -9.83987E+2  -2.73309E+2
  -2.61644E+2   3.19137E+2
  -6.86746E+2  -1.48877E+3
  -1.34872E+2  -7.82075E+2
  -6.51015E+2  -7.91298E+0
   1.94899E+3   1.49232E+2
   7.32556E+2  -4.15830E+2
   8.03396E+2  -9.02449E+2
   3.40062E+2  -1.53486E+3
  -2.15456E+3  -7.93450E+2
  -1.03106E+3   2.19195E+1
   7.88614E+2  -8.64378E+2
   3.12866E+1  -4.23482E+2
  -1.25567E+3   3.71644E+2
  -4.45211E+2   1.10034E+3
  -1.10836E+2   2.21972E+2
   1.99732E+3   1.30645E+3
  -1.78000E+3   4.63922E+2
  -3.73600E+2   2.59993E+1
   3.63191E+1  -2.11730E+3
  -5.32424E+2   1.30799E+3
  -9.27307E+2  -8.54190E+2
  -2.71368E+3   1.90050E+3
  -8.02595E+2   2.25869E+3
  -1.10074E+3   1.55867E+3
  -2.52990E+2   8.66322E+2
   3.69424E+2   1.13216E+3
   3.49019E+2   6.91542E+2
   1.11279E+3   1.09701E+3
  -6.54133E+2   9.27612E+1
  -1.63705E+3  -1.24164E+2
  -7.67969E+2  -6.70967E+2
  -2.09821E+3  -5.83079E+2
  -4.40185E+2  -1.25127E+3
  -1.25403E+3   6.15525E+2
   1.11275E+3  -1.40381E+3
   1.47554E+3   6.23517E+2
  -3.34735E+2   7.81532E+2
   7.99020E+2   1.21853E+2
   6.92038E+2   3.44322E+3
  -1.19388E+3   2.62256E+1
   2.42221E+2  -6.81486E+2
   3.51044E+2   2.08398E+3
   2.54888E+2   4.74864E+2
  -7.32577E+2  -9.61625E+2
  -7.50388E+1  -3.25560E+1
   4.04432E+2   5.51512E+2
  -1.30331E+3  -1.50695E+3
  -1.30512E+3  -7.50853E+2
   6.49251E+2   4.85763E+1
   1.25534E+3  -5.62896E+2
   9.95460E+2   1.72571E+3
   1.02778E+3  -2.18736E+2
  -3.22858E+2   3.06489E+2
  -3.20609E+2   1.41259E+2
