 LCModel (Version 6.3-1N) Copyright: S.W. Provencher.          Ref.: Magn. Reson. Med. 30:672-679 (1993).                
 Slice_N1@13_12  02-Jun-2023 14:36:35
 27 lines in following concentration table = NCONC+1
    Conc.  %SD /Cr+PCr  Metabolite                                         
 1.67E-06  21% 1.9E-04 Mac                                                 
 2.18E-02  43%   2.450 Cr                                                  
 4.93E-02  18%   5.550 PCr                                                 
 7.43E-02  11%   8.355 Ins                                                 
    0.101   7%  11.336 NAA                                                 
 5.20E-02  14%   5.850 Tau                                                 
 4.48E-03 114%   0.504 PCho                                                
 9.12E-03  54%   1.026 GPC                                                 
 8.27E-02  11%   9.302 Glu                                                 
 3.17E-02  23%   3.570 Gln                                                 
    0.000 999%   0.000 Ala                                                 
    0.000 999%   0.000 Asc                                                 
 1.76E-02  47%   1.982 Asp                                                 
 1.24E-02  35%   1.389 GABA                                                
 8.66E-03  64%   0.974 Glc                                                 
 1.03E-02  40%   1.162 GSH                                                 
    0.000 999%   0.000 Lac                                                 
    0.000 999%   0.000 NAAG                                                
    0.000 999%   0.000 PE                                                  
 1.36E-02  14%   1.530 GPC+PCho                                            
    0.101   7%  11.336 NAA+NAAG                                            
    0.114  10%  12.872 Glu+Gln                                             
 7.11E-02   9%   8.000 Cr+PCr                                              
    0.101   7%  11.336 NAA+NAAG                                            
 7.11E-02   9%   8.000 Cr+PCr                                              
    0.114  10%  12.872 Glu+Gln                                             
   6 lines in following misc. output table
  FWHM = 0.023 ppm    S/N =   5                                            
  Data shift = 0.012 ppm                                                   
  Ph: -74 deg      -7.4 deg/ppm                                            
  alphaB,S = 3.5E+00,   1.3E+01                                            
   18 spline knots.   Ns = 5(1)                                            
  ( 4) 2 infls.   ( 2) 2 extrs.                                            
  654 points on ppm-axis = NY
      4.000000     3.994181     3.988363     3.982544     3.976726     3.970907     3.965088     3.959270     3.953451     3.947633
      3.941814     3.935995     3.930177     3.924358     3.918540     3.912721     3.906902     3.901084     3.895265     3.889446
      3.883628     3.877809     3.871991     3.866172     3.860353     3.854535     3.848716     3.842898     3.837079     3.831260
      3.825442     3.819623     3.813805     3.807986     3.802167     3.796349     3.790530     3.784712     3.778893     3.773074
      3.767256     3.761437     3.755619     3.749800     3.743981     3.738163     3.732344     3.726526     3.720707     3.714888
      3.709070     3.703251     3.697433     3.691614     3.685795     3.679977     3.674158     3.668339     3.662521     3.656702
      3.650884     3.645065     3.639246     3.633428     3.627609     3.621791     3.615972     3.610153     3.604335     3.598516
      3.592698     3.586879     3.581060     3.575242     3.569423     3.563605     3.557786     3.551967     3.546149     3.540330
      3.534512     3.528693     3.522874     3.517056     3.511237     3.505419     3.499600     3.493781     3.487963     3.482144
      3.476326     3.470507     3.464688     3.458870     3.453051     3.447232     3.441414     3.435595     3.429777     3.423958
      3.418139     3.412321     3.406502     3.400684     3.394865     3.389046     3.383228     3.377409     3.371591     3.365772
      3.359953     3.354135     3.348316     3.342498     3.336679     3.330860     3.325042     3.319223     3.313405     3.307586
      3.301767     3.295949     3.290130     3.284312     3.278493     3.272674     3.266856     3.261037     3.255219     3.249400
      3.243581     3.237763     3.231944     3.226125     3.220307     3.214488     3.208670     3.202851     3.197032     3.191214
      3.185395     3.179577     3.173758     3.167939     3.162121     3.156302     3.150484     3.144665     3.138846     3.133028
      3.127209     3.121391     3.115572     3.109753     3.103935     3.098116     3.092298     3.086479     3.080660     3.074842
      3.069023     3.063205     3.057386     3.051567     3.045749     3.039930     3.034111     3.028293     3.022474     3.016656
      3.010837     3.005018     2.999200     2.993381     2.987563     2.981744     2.975925     2.970107     2.964288     2.958470
      2.952651     2.946832     2.941014     2.935195     2.929377     2.923558     2.917739     2.911921     2.906102     2.900284
      2.894465     2.888646     2.882828     2.877009     2.871191     2.865372     2.859553     2.853735     2.847916     2.842098
      2.836279     2.830460     2.824642     2.818823     2.813004     2.807186     2.801367     2.795549     2.789730     2.783911
      2.778093     2.772274     2.766456     2.760637     2.754818     2.749000     2.743181     2.737363     2.731544     2.725725
      2.719907     2.714088     2.708270     2.702451     2.696632     2.690814     2.684995     2.679177     2.673358     2.667539
      2.661721     2.655902     2.650084     2.644265     2.638446     2.632628     2.626809     2.620991     2.615172     2.609353
      2.603535     2.597716     2.591897     2.586079     2.580260     2.574442     2.568623     2.562804     2.556986     2.551167
      2.545349     2.539530     2.533711     2.527893     2.522074     2.516256     2.510437     2.504618     2.498800     2.492981
      2.487163     2.481344     2.475525     2.469707     2.463888     2.458070     2.452251     2.446432     2.440614     2.434795
      2.428977     2.423158     2.417339     2.411521     2.405702     2.399884     2.394065     2.388246     2.382428     2.376609
      2.370790     2.364972     2.359153     2.353335     2.347516     2.341697     2.335879     2.330060     2.324242     2.318423
      2.312604     2.306786     2.300967     2.295149     2.289330     2.283511     2.277693     2.271874     2.266056     2.260237
      2.254418     2.248600     2.242781     2.236963     2.231144     2.225325     2.219507     2.213688     2.207870     2.202051
      2.196232     2.190414     2.184595     2.178777     2.172958     2.167139     2.161321     2.155502     2.149683     2.143865
      2.138046     2.132228     2.126409     2.120590     2.114772     2.108953     2.103135     2.097316     2.091497     2.085679
      2.079860     2.074042     2.068223     2.062404     2.056586     2.050767     2.044949     2.039130     2.033311     2.027493
      2.021674     2.015856     2.010037     2.004218     1.998400     1.992581     1.986763     1.980944     1.975126     1.969307
      1.963489     1.957670     1.951852     1.946033     1.940215     1.934397     1.928578     1.922760     1.916941     1.911123
      1.905304     1.899486     1.893667     1.887849     1.882030     1.876212     1.870393     1.864575     1.858756     1.852938
      1.847119     1.841301     1.835482     1.829664     1.823845     1.818027     1.812208     1.806390     1.800571     1.794753
      1.788934     1.783116     1.777297     1.771479     1.765660     1.759842     1.754023     1.748205     1.742386     1.736568
      1.730749     1.724931     1.719113     1.713294     1.707476     1.701657     1.695839     1.690020     1.684202     1.678383
      1.672565     1.666746     1.660928     1.655109     1.649291     1.643472     1.637654     1.631835     1.626017     1.620198
      1.614380     1.608561     1.602743     1.596924     1.591106     1.585287     1.579469     1.573650     1.567832     1.562013
      1.556195     1.550376     1.544558     1.538739     1.532921     1.527102     1.521284     1.515465     1.509647     1.503829
      1.498010     1.492192     1.486373     1.480555     1.474736     1.468918     1.463099     1.457281     1.451462     1.445644
      1.439825     1.434007     1.428188     1.422370     1.416551     1.410733     1.404914     1.399096     1.393277     1.387459
      1.381640     1.375822     1.370003     1.364185     1.358366     1.352548     1.346729     1.340911     1.335092     1.329274
      1.323455     1.317637     1.311818     1.306000     1.300182     1.294363     1.288545     1.282726     1.276908     1.271089
      1.265271     1.259452     1.253634     1.247815     1.241997     1.236178     1.230360     1.224541     1.218723     1.212904
      1.207086     1.201267     1.195449     1.189630     1.183812     1.177993     1.172175     1.166356     1.160538     1.154719
      1.148901     1.143082     1.137264     1.131445     1.125627     1.119808     1.113990     1.108171     1.102353     1.096534
      1.090716     1.084898     1.079079     1.073261     1.067442     1.061624     1.055805     1.049987     1.044168     1.038350
      1.032531     1.026713     1.020894     1.015076     1.009257     1.003439     0.997620     0.991802     0.985983     0.980165
      0.974346     0.968528     0.962709     0.956891     0.951072     0.945254     0.939435     0.933617     0.927798     0.921980
      0.916161     0.910343     0.904524     0.898706     0.892887     0.887069     0.881251     0.875432     0.869614     0.863795
      0.857977     0.852158     0.846340     0.840521     0.834703     0.828884     0.823066     0.817247     0.811429     0.805610
      0.799792     0.793973     0.788155     0.782336     0.776518     0.770699     0.764881     0.759062     0.753244     0.747425
      0.741607     0.735788     0.729970     0.724151     0.718333     0.712514     0.706696     0.700877     0.695059     0.689240
      0.683422     0.677603     0.671785     0.665967     0.660148     0.654330     0.648511     0.642693     0.636874     0.631056
      0.625237     0.619419     0.613600     0.607782     0.601963     0.596145     0.590326     0.584508     0.578689     0.572871
      0.567052     0.561234     0.555415     0.549597     0.543778     0.537960     0.532141     0.526323     0.520504     0.514686
      0.508867     0.503049     0.497230     0.491412     0.485593     0.479775     0.473956     0.468138     0.462319     0.456501
      0.450682     0.444864     0.439045     0.433227     0.427408     0.421590     0.415771     0.409953     0.404134     0.398316
      0.392497     0.386679     0.380860     0.375042     0.369223     0.363405     0.357586     0.351767     0.345949     0.340130
      0.334312     0.328493     0.322675     0.316856     0.311038     0.305219     0.299401     0.293582     0.287764     0.281945
      0.276127     0.270308     0.264490     0.258671     0.252853     0.247034     0.241216     0.235397     0.229579     0.223760
      0.217942     0.212123     0.206305     0.200486
 NY phased data points follow
  -1.50987E-01 -1.48967E-01 -2.25915E-01 -5.79885E-01 -3.21151E-01 -1.22616E-01 -1.77055E-01 -1.93051E-01 -4.14199E-01  1.96840E-01
   3.75211E-02  5.12564E-01  6.83889E-01  2.30045E-01  3.34137E-01  2.52031E-01  2.42320E-03  1.62642E-01  2.70398E-01  2.35968E-01
   2.81883E-01  1.84548E-01 -6.91052E-02 -1.81396E-01  3.59236E-02 -3.43036E-01 -9.06847E-02 -4.09231E-02 -1.00921E-01 -2.08589E-01
  -7.01029E-02 -1.12096E-01 -2.11468E-01  3.84386E-01 -5.12806E-02 -8.16830E-02 -1.39912E-01 -2.05574E-01 -3.59765E-01 -1.13885E-01
   2.32219E-01  3.26807E-01  3.83502E-01  1.05964E-01  1.89949E-01  1.30379E-01  4.81646E-01  2.25472E-02  1.10329E-01  4.18998E-01
  -2.04501E-01 -1.10346E-01 -2.80312E-02 -2.75693E-01 -4.50710E-01 -2.76681E-01 -3.12398E-01 -3.56262E-01 -7.41244E-03 -1.25534E-01
  -3.69986E-01 -2.38252E-01 -2.18786E-01 -1.00420E-01 -3.60387E-01 -4.47003E-01  1.56578E-01  2.89156E-01  2.49469E-01  5.11820E-01
   2.58861E-01  1.00366E-01  3.33015E-01  1.82269E-01  2.01224E-01  8.93375E-02 -3.62356E-02 -2.03129E-01 -1.33946E-02 -1.53113E-01
  -5.03700E-01 -1.16258E-01 -1.01210E-01  4.50229E-01  4.17855E-01  1.10398E-01  4.57288E-01  2.31583E-01  2.05480E-01  4.50967E-01
   2.78387E-01 -1.29088E-01  1.55178E-01  2.06313E-01  1.56269E-01  5.64428E-02 -3.83506E-01 -2.18954E-02 -1.69584E-01 -2.16155E-01
  -2.82547E-02 -2.87864E-01 -9.55350E-02  8.37389E-02  2.44940E-01  3.09454E-01  3.21779E-01  4.23852E-01  4.67734E-01  2.26942E-01
   2.36153E-01  4.68674E-01  2.86849E-01  3.40199E-01  2.83240E-01  3.80359E-01  5.77886E-01 -9.75729E-02 -9.11298E-02  4.36025E-01
   2.93843E-01  1.82710E-01  2.91463E-02 -1.71232E-01 -4.28223E-01 -3.20723E-01 -2.12683E-01 -2.47852E-01 -3.43543E-01 -4.57127E-01
  -2.71812E-01 -6.69173E-01 -5.53171E-01 -6.31446E-01 -6.46046E-01 -4.97404E-01 -9.69251E-01 -5.49397E-01 -4.69701E-01 -2.72975E-01
  -4.32718E-02 -1.00488E-01 -8.78644E-02  1.37488E-01  5.26759E-01  1.59760E-01  5.96882E-02 -1.01239E-01  2.97791E-01 -4.57936E-03
  -2.20008E-01  3.30631E-01  8.16322E-02  4.19145E-01 -3.26818E-02 -2.96872E-02  7.47768E-02  3.45423E-01  7.87293E-01  5.66382E-01
   8.18400E-01  1.99150E-01  5.22772E-01  1.05700E+00  8.08224E-01  7.37556E-01  8.89484E-01  2.60556E-01 -1.01739E+00 -1.30222E+00
  -1.03808E+00 -6.96328E-01 -6.99864E-01 -4.37088E-01 -2.64062E-01 -4.98845E-01 -5.65956E-01 -3.95367E-01 -6.46688E-01 -3.51839E-01
  -1.48983E-01 -5.26791E-01 -2.20012E-01 -2.52780E-01 -3.20862E-01 -2.16891E-01 -1.88480E-01 -5.82735E-01 -2.22284E-01  6.07534E-03
  -3.03629E-01 -2.02716E-01 -1.28328E-01 -2.39358E-01 -4.80659E-01  1.49879E-02 -1.24676E-01 -2.44933E-01 -1.93829E-01 -1.48550E-01
  -2.16456E-01 -2.48351E-01 -4.99876E-02 -1.80078E-01  1.57094E-01 -2.99633E-01 -2.52971E-01  7.70551E-02 -1.49406E-01  1.01439E-01
  -2.67749E-01 -4.17067E-01  4.13234E-02 -7.84925E-02 -1.19131E-01  1.72200E-02 -6.18821E-02 -2.79357E-01 -3.10062E-01 -5.82830E-02
   1.23493E-01  1.60542E-01 -4.89153E-01 -1.60804E-01  2.72624E-01  2.95490E-01  5.01915E-01  2.54110E-01  8.22935E-01  6.93582E-01
   3.23072E-01  3.18580E-01  4.60113E-01  4.68692E-01 -1.06905E-01 -9.26911E-03 -1.29757E-01 -2.60650E-01 -1.15024E-02 -3.17142E-01
  -4.66679E-01 -4.32537E-03 -2.60571E-01 -2.39630E-01 -1.51555E-01 -3.80085E-01 -6.22252E-02 -1.59954E-01  8.21287E-03  1.53354E-01
   3.03636E-01  9.78490E-02 -9.49864E-02  1.48290E-02 -1.45977E-01 -2.07669E-01 -1.70344E-01  2.97858E-01  9.31259E-02  2.48319E-01
   2.49679E-01 -1.46868E-01  1.12328E-01  1.92350E-01  2.70424E-01  8.70079E-02  5.29699E-02  3.08597E-01  1.49779E-01  4.51887E-02
   5.48909E-01  1.02386E-01 -1.13930E-01  3.25503E-01  1.50431E-01  1.38855E-01 -1.67077E-01 -1.10618E-01 -1.53407E-01 -6.43535E-01
  -3.49963E-01 -1.81015E-01 -4.06445E-01 -7.78005E-02  9.68437E-02  2.59748E-01  7.46142E-01  8.78829E-01  6.29571E-01  4.56765E-01
   4.07007E-01  2.04786E-01  4.47420E-01  3.61995E-01  4.02712E-02  1.13659E-01  3.78226E-01  6.33971E-01  3.34415E-01  3.38510E-01
   3.91187E-01  1.58383E-03  2.19652E-01  5.85873E-01  3.16018E-01  4.01000E-01  3.50285E-01  2.62194E-01  7.11889E-01  1.90353E-01
   2.87602E-01  4.32022E-01  2.41112E-01  2.76946E-01 -4.42307E-01  2.07570E-03 -6.33701E-02 -1.57216E-02  5.78181E-02 -3.56086E-01
  -2.97846E-01 -7.48428E-01 -4.33537E-01 -4.04109E-01 -1.07460E-01 -2.55317E-02  2.57614E-02  2.81572E-01  5.35818E-02  9.12781E-02
  -6.16318E-02  9.70705E-03  2.15959E-02 -5.70180E-02 -9.63901E-02  7.37181E-03 -2.53165E-01 -1.60471E-01 -3.84944E-01 -5.34107E-01
  -5.07912E-01 -1.16368E+00 -1.83943E+00 -2.41969E+00 -1.35049E+00 -3.92265E-01  6.89501E-02  1.63084E-01  7.96408E-03  3.90027E-01
   1.01390E-01 -3.95144E-02  1.43792E-01  1.70646E-01  3.28721E-01  2.77343E-01  3.26866E-01  1.36561E-01 -1.33214E-01 -1.27276E-01
  -2.93254E-03  4.93483E-01 -1.16801E-01 -1.91118E-01  7.87677E-02 -1.16668E-01 -2.05849E-02  1.68851E-02  1.78447E-01  2.70040E-01
   2.44647E-01 -4.11277E-02  3.24601E-01 -2.06705E-02 -1.33245E-03  1.77243E-01 -1.28586E-01  1.17860E-01  1.48319E-01  3.56774E-01
   4.69068E-02  3.10362E-02  3.02643E-01  2.72534E-01  1.17295E-01  2.58949E-02  8.98140E-02  1.54015E-03  7.22032E-02  1.87865E-01
  -3.29688E-02  5.07532E-04  1.73369E-01  3.38335E-01  3.66326E-01  1.64246E-01  3.71032E-01  5.05657E-01  2.17264E-01 -4.05392E-01
  -1.43485E-02  1.37079E-01 -2.90102E-01 -2.00592E-01 -2.42373E-02 -2.32253E-01 -5.17555E-01 -1.58236E-01 -1.65622E-01  7.85999E-02
  -1.04125E-01 -4.96444E-01 -2.14425E-01 -1.77066E-01  8.80062E-02  2.79507E-02 -5.05981E-01 -4.34745E-02 -1.91006E-01 -4.87448E-01
  -4.98546E-02 -9.26052E-02  4.06656E-02 -3.06397E-02 -1.21302E-01 -2.84899E-01  4.46950E-02  1.61206E-03  5.54803E-02  1.53944E-01
  -6.17439E-02  2.44119E-01  4.15742E-02  2.53564E-02 -1.72859E-01 -3.93529E-02  9.35918E-02 -8.93567E-02 -1.47647E-01  8.49894E-02
   1.32998E-02 -2.05828E-01  2.82472E-02  8.47119E-02  2.16326E-01  9.23538E-02  4.13005E-02  3.60073E-01  3.29298E-01  5.90832E-02
   2.53292E-01  8.58185E-03  4.07664E-01  3.94329E-01  3.81323E-02  2.13551E-01  4.56458E-02 -2.38926E-02 -1.55046E-01  3.26477E-01
   1.18050E-01  2.19671E-01  1.81359E-01  5.10744E-02 -9.92400E-02 -2.96362E-01  7.63448E-02 -3.31009E-01 -3.25628E-01 -2.79823E-01
   2.67436E-02 -1.32545E-01 -2.85117E-01  5.20141E-02 -1.74194E-01 -1.88625E-01 -7.57793E-03  1.05351E-01 -1.17805E-01  6.30718E-02
   5.06162E-01  2.04410E-01  2.27309E-01  1.68837E-01 -1.35374E-01  2.19166E-01  6.60792E-02  1.28925E-01  1.38377E-01  2.22414E-02
   2.02166E-01 -5.14079E-02 -1.99106E-01 -6.17863E-02 -2.57755E-02  6.72931E-02 -4.09693E-02 -3.20534E-01  3.88731E-02  1.79627E-01
  -1.79267E-02 -2.35374E-01  2.22380E-01  1.53401E-01  1.24124E-01  4.00127E-01 -2.30874E-01 -9.82194E-02 -1.68089E-01  1.44543E-02
   2.09318E-01 -5.28926E-03  1.31736E-01  1.45715E-01  3.94099E-03 -4.06122E-02  3.13277E-01  3.60099E-01  6.78275E-02  2.17205E-03
   1.43082E-01  1.33131E-01  1.83505E-01 -2.46505E-01 -6.18472E-01 -2.25997E-01 -3.64699E-01 -4.46933E-01 -1.44570E-01 -4.22882E-01
  -2.49209E-01 -1.12778E-01 -3.22553E-01  3.22413E-02 -5.80291E-02 -2.87761E-01 -1.45344E-01  3.06613E-02 -4.20591E-03 -8.65028E-02
  -2.26295E-01 -2.09822E-01  1.76452E-02  1.35896E-02  5.74198E-02  1.28124E-01  1.48419E-01 -1.61262E-01 -1.64346E-01  2.67175E-01
   4.01720E-01  5.38426E-01  1.60057E-01 -1.53337E-01  2.12807E-01  4.08232E-01  5.32212E-01  1.68849E-01 -1.31679E-01  3.48722E-02
   2.94823E-01  9.77089E-02 -9.32462E-02  4.20450E-01  2.10766E-01 -4.57892E-02 -4.31221E-02  1.48193E-01 -2.15229E-02 -2.30465E-01
   2.28363E-01  6.65971E-03  1.96464E-02  9.64428E-02 -2.40808E-01 -8.09662E-02  1.58211E-01  1.23868E-01  1.14338E-01  1.14760E-01
   1.82280E-01  4.03783E-02  4.98522E-02 -1.18440E-01 -1.51400E-01  1.25440E-01 -1.33549E-01  1.25641E-01 -1.30656E-01 -2.53817E-01
   3.13566E-01  2.32173E-01 -1.46886E-01 -6.18474E-02  3.72201E-01  3.70717E-01  2.19820E-01  3.99315E-02  5.09747E-02 -1.48001E-01
  -9.00132E-02 -5.91641E-02 -1.44866E-02  1.46472E-01 -1.72226E-01  6.80532E-02  2.48500E-01  1.17532E-01 -8.35601E-02 -1.78691E-01
  -1.74952E-01  9.25785E-02  3.00328E-01  7.50167E-02  4.67693E-03  1.95813E-01  2.25231E-01  9.78568E-02  3.07335E-01  3.95283E-02
   1.80240E-01  2.51097E-01  1.64123E-01  3.83302E-01 -1.23894E-01  1.17441E-02  4.84021E-02  1.23090E-01  3.99461E-01  5.88062E-02
   1.33207E-01  5.84490E-02  8.53750E-03 -1.67441E-01 -1.71180E-01  2.63593E-01 -9.99849E-02 -1.18571E-01 -2.29271E-01 -2.72546E-01
   8.91237E-02  8.12912E-02  3.47610E-01  2.55949E-01 -1.56646E-01 -4.45348E-01  1.98413E-02  7.63225E-02 -2.42534E-02  1.45363E-01
   2.32471E-02  3.61716E-01 -5.84789E-03 -1.38590E-01
 NY points of the fit to the data follow
  -4.00712E-02 -3.62010E-02 -3.12216E-02 -2.68376E-02 -2.25143E-02 -1.52606E-02 -3.33120E-03  3.01624E-02  1.01184E-01  1.71291E-01
   2.64283E-01  4.61713E-01  6.57144E-01  6.63206E-01  5.11547E-01  3.85694E-01  3.12269E-01  2.31996E-01  1.52250E-01  8.47946E-02
   4.94781E-02  2.61571E-02 -7.68219E-03 -4.60102E-02 -7.41765E-02 -9.41024E-02 -1.09300E-01 -1.21564E-01 -1.31020E-01 -1.41057E-01
  -1.51857E-01 -1.64300E-01 -1.82545E-01 -2.09929E-01 -2.40760E-01 -2.57669E-01 -2.57206E-01 -2.36488E-01 -1.67002E-01 -3.37665E-02
   1.25522E-01  2.45401E-01  3.24181E-01  3.62182E-01  3.73466E-01  3.39839E-01  2.65334E-01  1.59707E-01  6.93157E-02  1.11622E-02
  -2.10271E-02 -4.50975E-02 -7.08815E-02 -9.78884E-02 -1.20675E-01 -1.48200E-01 -1.80046E-01 -1.95908E-01 -1.93453E-01 -1.82179E-01
  -1.97088E-01 -2.76235E-01 -3.21915E-01 -2.85650E-01 -2.55118E-01 -1.97398E-01 -2.33591E-02  1.90525E-01  2.97745E-01  3.54547E-01
   3.86119E-01  3.47851E-01  2.68768E-01  1.63534E-01  6.12562E-02 -3.07696E-02 -1.29338E-01 -2.11875E-01 -2.96928E-01 -4.12561E-01
  -4.40557E-01 -2.90842E-01 -5.38793E-02  1.40172E-01  3.01180E-01  4.22364E-01  4.56038E-01  4.15453E-01  3.34417E-01  2.61692E-01
   2.20828E-01  1.96844E-01  1.71094E-01  1.36553E-01  9.08584E-02  3.02616E-02 -4.56865E-02 -1.33815E-01 -2.25015E-01 -2.82689E-01
  -2.67953E-01 -1.62498E-01  3.59918E-03  1.69872E-01  2.77680E-01  3.08063E-01  2.92542E-01  2.69427E-01  2.56003E-01  2.52780E-01
   2.52045E-01  2.49950E-01  2.46738E-01  2.43679E-01  2.41367E-01  2.40280E-01  2.40125E-01  2.39206E-01  2.28684E-01  2.11245E-01
   1.96254E-01  1.46264E-01  6.89718E-02  1.37732E-02 -5.73544E-02 -1.47877E-01 -2.20103E-01 -2.57449E-01 -3.19115E-01 -4.18319E-01
  -4.86178E-01 -5.55491E-01 -5.28259E-01 -4.71403E-01 -5.31495E-01 -7.41406E-01 -8.65052E-01 -7.04284E-01 -3.95484E-01 -1.32214E-01
  -6.61096E-03  1.81891E-02  2.36440E-02  4.03035E-02  6.05166E-02  8.01775E-02  9.86942E-02  1.15880E-01  1.31703E-01  1.46520E-01
   1.61506E-01  1.77246E-01  1.93709E-01  2.11712E-01  2.31688E-01  2.54309E-01  2.80517E-01  3.11277E-01  3.47583E-01  3.93261E-01
   4.57048E-01  5.54589E-01  7.03699E-01  7.57673E-01  7.15403E-01  7.49125E-01  5.99929E-01 -1.73745E-02 -8.71930E-01 -1.25435E+00
  -1.12347E+00 -7.62350E-01 -4.95095E-01 -4.10260E-01 -4.07627E-01 -3.84535E-01 -3.44134E-01 -3.10412E-01 -2.95261E-01 -2.87482E-01
  -2.71311E-01 -2.49297E-01 -2.31527E-01 -2.23454E-01 -2.20908E-01 -2.19067E-01 -2.11326E-01 -2.00977E-01 -1.91181E-01 -1.83454E-01
  -1.74817E-01 -1.64727E-01 -1.53805E-01 -1.43286E-01 -1.33890E-01 -1.25262E-01 -1.16316E-01 -1.05300E-01 -9.30244E-02 -8.21210E-02
  -7.08907E-02 -5.72602E-02 -4.54024E-02 -4.50691E-02 -5.60048E-02 -6.32049E-02 -5.51270E-02 -4.26536E-02 -4.85145E-02 -7.43689E-02
  -1.00381E-01 -1.10588E-01 -1.06561E-01 -9.81369E-02 -9.23873E-02 -9.00410E-02 -8.96707E-02 -8.93463E-02 -8.79011E-02 -8.33713E-02
  -6.30288E-02 -2.53182E-02  1.53809E-02  7.37094E-02  1.68384E-01  2.83507E-01  3.45530E-01  3.12048E-01  2.68422E-01  3.15113E-01
   3.95105E-01  3.60124E-01  1.98641E-01  2.80092E-02 -7.66764E-02 -1.05126E-01 -1.01731E-01 -1.00957E-01 -1.05898E-01 -1.13071E-01
  -1.21048E-01 -1.27729E-01 -1.32089E-01 -1.34439E-01 -1.36859E-01 -1.38981E-01 -1.42642E-01 -1.46203E-01 -1.51595E-01 -1.60497E-01
  -1.76144E-01 -2.00067E-01 -2.10960E-01 -2.12008E-01 -2.27353E-01 -1.97208E-01 -1.05520E-01 -1.48061E-02  1.78951E-02  4.32698E-02
   1.02341E-01  1.32833E-01  1.28586E-01  1.04739E-01  1.06343E-01  1.33852E-01  1.48595E-01  1.61205E-01  1.64206E-01  1.70448E-01
   1.60229E-01  1.25715E-01  7.61327E-02  2.17923E-02 -2.71043E-02 -7.34166E-02 -1.21730E-01 -1.82450E-01 -2.48496E-01 -3.17127E-01
  -3.86228E-01 -4.26830E-01 -4.18942E-01 -3.25973E-01 -1.33906E-01  1.17449E-01  3.44883E-01  4.80788E-01  5.16853E-01  4.51857E-01
   3.46604E-01  2.59436E-01  2.07779E-01  1.98861E-01  2.13012E-01  2.40055E-01  2.61907E-01  2.74328E-01  2.73737E-01  2.61962E-01
   2.46641E-01  2.32556E-01  2.21262E-01  2.13482E-01  2.06711E-01  1.99303E-01  1.90980E-01  1.81422E-01  1.69451E-01  1.53769E-01
   1.33922E-01  1.08414E-01  7.56996E-02  3.41843E-02 -1.76778E-02 -7.57970E-02 -1.43149E-01 -2.16697E-01 -2.85884E-01 -3.40999E-01
  -3.75940E-01 -3.85369E-01 -3.63115E-01 -3.08855E-01 -2.32986E-01 -1.38229E-01 -4.79490E-02  3.77253E-02  9.41143E-02  1.11457E-01
   8.97289E-02  3.70346E-02 -1.86640E-02 -6.49953E-02 -7.96267E-02 -6.97511E-02 -4.37225E-02 -7.34381E-02 -2.76663E-01 -4.95240E-01
  -7.24129E-01 -1.28187E+00 -1.99164E+00 -2.17120E+00 -1.51776E+00 -6.71003E-01 -1.07546E-01  4.59280E-02 -6.10577E-03 -4.44270E-02
  -3.50657E-02 -2.03391E-02 -6.36946E-03  5.14279E-03  1.47324E-02  2.25363E-02  2.61659E-02  2.59747E-02  1.86931E-02  5.85173E-03
  -1.09834E-02 -2.93774E-02 -4.46187E-02 -5.48280E-02 -5.32050E-02 -4.42313E-02 -2.66586E-02 -8.96092E-03  6.93740E-03  1.90002E-02
   2.74456E-02  3.39152E-02  3.96992E-02  4.44484E-02  4.81600E-02  5.14433E-02  5.49137E-02  5.87617E-02  6.26970E-02  6.57427E-02
   6.82866E-02  7.07574E-02  7.36517E-02  7.65607E-02  7.93313E-02  8.12226E-02  8.24790E-02  8.41616E-02  8.67465E-02  9.00643E-02
   9.31467E-02  9.55527E-02  9.63872E-02  9.57488E-02  9.39230E-02  9.17137E-02  8.96645E-02  8.78100E-02  8.54287E-02  8.18814E-02
   7.73097E-02  7.25565E-02  6.76093E-02  6.22523E-02  5.68648E-02  5.24789E-02  4.86184E-02  4.47331E-02  4.07187E-02  3.68529E-02
   3.35410E-02  3.08922E-02  2.86990E-02  2.63933E-02  2.41282E-02  2.19298E-02  1.98082E-02  1.78145E-02  1.63438E-02  1.54363E-02
   1.47318E-02  1.40980E-02  1.42434E-02  1.54753E-02  1.74195E-02  1.99742E-02  2.30874E-02  2.63548E-02  2.99986E-02  3.38433E-02
   3.68496E-02  3.85896E-02  4.02397E-02  4.34678E-02  4.87303E-02  5.51246E-02  6.14756E-02  6.71800E-02  7.28898E-02  7.96687E-02
   8.77873E-02  9.67172E-02  1.05860E-01  1.14802E-01  1.23409E-01  1.31812E-01  1.39832E-01  1.46579E-01  1.51325E-01  1.54013E-01
   1.54964E-01  1.55025E-01  1.54392E-01  1.52967E-01  1.50402E-01  1.46549E-01  1.40775E-01  1.33134E-01  1.24485E-01  1.16408E-01
   1.09141E-01  1.02548E-01  9.58515E-02  8.87524E-02  8.18425E-02  7.61066E-02  7.13905E-02  6.68015E-02  6.24041E-02  5.84335E-02
   5.52752E-02  5.28360E-02  5.07207E-02  4.92557E-02  4.95006E-02  5.12902E-02  5.36418E-02  5.62239E-02  5.93437E-02  6.28431E-02
   6.67253E-02  7.10862E-02  7.52894E-02  7.87546E-02  8.13159E-02  8.32995E-02  8.47469E-02  8.59354E-02  8.76734E-02  8.98408E-02
   9.15379E-02  9.17861E-02  9.05606E-02  8.87922E-02  8.69615E-02  8.49566E-02  8.22242E-02  7.95942E-02  7.74753E-02  7.55628E-02
   7.34512E-02  7.09222E-02  6.81884E-02  6.55269E-02  6.30263E-02  6.02803E-02  5.73625E-02  5.50687E-02  5.36372E-02  5.20914E-02
   4.96856E-02  4.66202E-02  4.30708E-02  3.87252E-02  3.33526E-02  2.72390E-02  2.08859E-02  1.40661E-02  6.02797E-03 -4.07111E-03
  -1.64357E-02 -2.99311E-02 -4.32207E-02 -5.55180E-02 -6.75303E-02 -7.90921E-02 -8.95080E-02 -9.81990E-02 -1.05771E-01 -1.12275E-01
  -1.16392E-01 -1.17196E-01 -1.15976E-01 -1.14069E-01 -1.11125E-01 -1.06617E-01 -1.01089E-01 -9.54771E-02 -9.03537E-02 -8.59967E-02
  -8.14824E-02 -7.58687E-02 -6.91329E-02 -6.19266E-02 -5.43133E-02 -4.61901E-02 -3.81751E-02 -3.03930E-02 -2.27190E-02 -1.56167E-02
  -9.07001E-03 -2.49084E-03  4.37359E-03  1.05183E-02  1.53148E-02  1.95779E-02  2.46363E-02  2.97791E-02  3.34579E-02  3.59776E-02
   3.86129E-02  4.15102E-02  4.41123E-02  4.61346E-02  4.72834E-02  4.83012E-02  4.97620E-02  5.08291E-02  5.12756E-02  5.19797E-02
   5.35808E-02  5.55921E-02  5.74720E-02  5.93817E-02  6.07500E-02  6.11825E-02  6.12108E-02  6.11690E-02  6.10079E-02  6.09346E-02
   6.10615E-02  6.09711E-02  6.07082E-02  6.07955E-02  6.12446E-02  6.16392E-02  6.18050E-02  6.22306E-02  6.28368E-02  6.21047E-02
   5.97136E-02  5.78711E-02  5.81754E-02  5.92343E-02  5.94068E-02  5.90573E-02  5.88919E-02  5.86833E-02  5.77039E-02  5.69899E-02
   5.74926E-02  5.88716E-02  6.00612E-02  6.05656E-02  6.08471E-02  6.15566E-02  6.26714E-02  6.34497E-02  6.36533E-02  6.38299E-02
   6.41472E-02  6.36851E-02  6.26376E-02  6.17871E-02  6.19981E-02  6.28399E-02  6.39101E-02  6.49374E-02  6.57641E-02  6.61990E-02
   6.65405E-02  6.74373E-02  6.90302E-02  7.06174E-02  7.12064E-02  7.04652E-02  6.89110E-02  6.78669E-02  6.81187E-02  6.91674E-02
   6.97132E-02  6.91987E-02  6.82230E-02  6.75572E-02  6.77290E-02  6.84307E-02  6.83936E-02  6.77537E-02  6.80010E-02  6.91151E-02
   6.98591E-02  6.97494E-02  6.94378E-02  6.96862E-02  7.04325E-02  7.12268E-02  7.21724E-02  7.41782E-02  7.67958E-02  7.87758E-02
   7.98162E-02  8.04331E-02  8.08200E-02  8.16549E-02
 NY background values follow
     1.086E-02    1.088E-02    1.089E-02    1.090E-02    1.092E-02    1.093E-02    1.094E-02    1.096E-02    1.097E-02    1.098E-02
     1.100E-02    1.101E-02    1.102E-02    1.104E-02    1.105E-02    1.106E-02    1.108E-02    1.109E-02    1.110E-02    1.112E-02
     1.113E-02    1.114E-02    1.116E-02    1.117E-02    1.118E-02    1.120E-02    1.121E-02    1.122E-02    1.124E-02    1.125E-02
     1.126E-02    1.128E-02    1.129E-02    1.130E-02    1.132E-02    1.133E-02    1.134E-02    1.136E-02    1.137E-02    1.138E-02
     1.140E-02    1.141E-02    1.142E-02    1.144E-02    1.145E-02    1.146E-02    1.147E-02    1.149E-02    1.150E-02    1.151E-02
     1.153E-02    1.154E-02    1.155E-02    1.156E-02    1.158E-02    1.159E-02    1.160E-02    1.161E-02    1.163E-02    1.164E-02
     1.165E-02    1.166E-02    1.168E-02    1.169E-02    1.170E-02    1.171E-02    1.173E-02    1.174E-02    1.175E-02    1.176E-02
