 
 $NMID
 ID=''
 FMTDAT='(2E13.5)'
 TRAMP=   1.00000E+0
 VOLUME=   1.00000E+0
 $END
  -3.70456E+1  -2.49043E+1
  -9.42240E+2   2.18338E+3
   2.92377E+3  -5.45213E+2
   3.61086E+3   5.96834E+2
   3.80287E+3   8.87316E-1
   3.37862E+3  -4.40882E+3
  -1.49503E+3  -2.61341E+3
  -4.12698E+3  -2.14939E+3
  -3.22128E+3  -3.61559E+3
  -2.88482E+2  -1.44668E+3
   1.96813E+3   2.74888E+2
   2.70308E+3   3.41584E+3
   8.22554E+2   5.84104E+3
  -3.49072E+3   2.77726E+3
   1.80046E+3  -3.77902E+2
   3.38987E+3  -2.50110E+3
   3.85063E+3  -1.30781E+3
   2.76385E+3  -1.69612E+3
  -8.05172E+2  -1.66085E+3
  -3.24802E+3  -5.43303E+2
   9.69348E+2  -2.12739E+3
  -8.32478E+2   5.13172E+3
  -1.83670E+3   5.22369E+3
  -1.32713E+3  -1.46983E+3
   1.69866E+3  -8.17660E+2
   2.19521E+3   3.57568E+3
  -2.06868E+3   1.76725E+3
  -1.93792E+3  -2.85450E+3
   1.61447E+3  -8.29601E+3
   5.08220E+3  -3.65442E+3
   5.98936E+3   2.99840E+3
  -4.94235E+3   6.61393E+3
  -6.34465E+3  -1.56754E+3
   5.13020E+2  -3.47257E+3
  -3.75562E+3  -3.00108E+2
  -3.98320E+3  -5.15390E+3
  -2.53784E+1  -5.87346E+3
   5.89846E+3  -1.74378E+2
   8.54739E+2   4.05508E+3
  -1.45341E+2   8.64571E+2
  -3.02821E+3   3.21301E+3
  -4.15653E+3   3.03867E+3
  -1.16251E+3  -5.75087E+3
   7.10629E+3  -4.41321E+3
   5.64935E+3  -9.37336E+1
   4.32329E+3   1.57229E+3
   1.43883E+3   1.34137E+2
   2.59363E+3   3.37190E+3
  -1.24757E+3   2.68669E+3
  -1.25375E+3  -1.59351E+2
  -2.47955E+3  -8.82682E+2
   2.31229E+3  -2.83062E+3
   3.28653E+3  -6.18341E+2
   6.88136E+2   4.39982E+3
  -2.14561E+3   4.70368E+2
  -3.19443E+3   1.64977E+3
  -4.93147E+3   2.21360E+3
  -5.60271E+3  -1.09679E+3
  -1.55473E+3  -3.85249E+3
   2.00994E+3  -3.95450E+3
   5.77238E+3  -1.91758E+3
   5.25931E+3   2.28415E+3
   2.07705E+3   3.99256E+3
  -1.36833E+2   7.47277E+2
   3.00552E+3  -4.03241E+2
   3.70684E+3   3.61880E+3
   1.18103E+3   3.59854E+3
  -3.11248E+3   1.42896E+3
   4.58887E+2   1.61286E+2
  -6.02205E+1   8.44490E+2
  -6.83984E+2   4.73975E+2
  -6.94836E+2   1.44096E+3
  -1.23046E+3   2.78905E+3
   3.47934E+2   5.42582E+2
   1.74575E+3   1.89567E+3
   1.49430E+3   2.16096E+3
  -1.18733E+3   2.10088E+3
   3.20345E+3  -1.78549E+3
   1.94756E+3   1.82867E+3
   3.26852E+3   1.98280E+3
  -3.55224E+2   8.80095E+2
  -1.51710E+3   9.31764E+2
   1.17297E+3   2.16295E+3
  -2.22813E+3   7.87022E+2
  -3.25113E+3  -4.65641E+2
  -3.37743E+3  -3.71160E+3
  -2.05761E+3  -5.28550E+3
   3.99482E+3  -2.30480E+3
   2.84466E+3   1.12918E+3
  -1.06527E+3   4.90163E+2
  -1.87465E+3   1.90484E+2
   2.52844E+2   3.16561E+1
  -5.13056E+2   2.43388E+3
  -5.04927E+3   3.94785E+2
  -3.28709E+3  -3.57332E+3
   5.81883E+2  -4.34320E+3
   2.54341E+3  -1.75745E+3
   1.79434E+2   2.69644E+3
  -4.79125E+3   3.69099E+3
  -3.18617E+3  -3.13000E+3
   1.66406E+3  -2.01959E+3
   4.36531E+3  -7.41438E+2
   1.36721E+3   1.70286E+3
  -2.43639E+3   8.54514E+2
  -2.00212E+3  -1.80075E+3
  -2.45199E+3  -7.06249E+2
  -1.47528E+3  -1.65129E+3
  -3.97730E+3  -2.11238E+3
  -2.65309E+3  -5.36585E+3
   2.25442E+3  -3.97879E+3
   2.79266E+3  -1.58375E+3
   8.10704E+2  -1.19362E+2
   8.51358E+2   6.12358E+2
  -1.97840E+3   4.12532E+2
  -5.37853E+2   1.93217E+3
  -2.80260E+3   5.66723E+1
  -2.11218E+2  -2.53322E+3
   1.11650E+3  -1.72088E+3
   1.31147E+3   1.17680E+3
   1.57787E+3   4.98354E+2
  -1.19758E+3   4.09514E+3
  -2.25273E+3  -1.93396E+1
  -1.34082E+2  -1.36156E+2
   6.64435E+2  -1.28198E+3
   5.56135E+2   1.61358E+2
   1.05414E+3   3.07463E+2
   1.48788E+3  -1.62725E+3
   6.52769E+2   8.92124E+2
  -6.17067E+1   1.72267E+3
  -1.38473E+3   2.07814E+2
  -3.93270E+2  -3.04909E+3
   5.02435E+3  -5.01201E+2
   2.63988E+3   1.81575E+3
  -2.62794E+2   1.98985E+3
  -2.76172E+3   1.66985E+2
  -1.43116E+3  -3.69565E+3
   1.97249E+3  -1.14954E+3
   1.80930E+3  -1.27708E+3
  -5.89483E+2  -1.22501E+2
  -2.06388E+2   3.03018E+2
  -4.28579E+2  -1.11045E+3
   2.88037E+3  -1.15029E+3
   8.62596E+2   1.86860E+3
  -3.93948E+3   3.43458E+3
  -1.74176E+3   1.77391E+2
  -1.31908E+3   8.42393E+2
   8.93001E+2  -4.73445E+1
   2.07755E+2   1.08076E+3
  -2.12760E+3  -3.36217E+2
   2.43635E+2   3.48988E+2
  -1.06370E+3  -6.73091E+2
  -1.34023E+3  -3.06444E+3
  -1.16177E+3  -2.79186E+3
   1.10253E+3  -3.95273E+2
   9.93080E+2   6.99213E+2
   1.09848E+3   3.77905E+3
   1.90172E+1  -1.17940E+3
  -1.55043E+3  -3.82987E+2
  -7.04912E+2  -3.20066E+2
  -3.36558E+2   1.92651E+3
  -5.89148E+2  -1.30121E+3
  -1.65394E+3  -1.02935E+3
  -2.76225E+2  -2.73684E+3
   1.08017E+2   1.50149E+3
  -1.55199E+3   8.80549E+2
  -4.18186E+3  -2.07335E+3
  -2.87668E+3  -2.05686E+3
   1.57710E+2  -2.97940E+3
   1.91558E+3   3.30224E+3
  -3.48468E+3   2.57760E+3
  -4.95799E+2  -8.48218E+1
  -1.24796E+3   6.40540E+1
   8.53651E+2  -7.74266E+2
  -7.96749E+2   5.85563E+1
  -3.66781E+3  -1.56027E+3
   4.32029E+2  -5.94517E+2
   1.69421E+3   1.87160E+3
   1.64798E+3   3.13392E+3
  -1.86112E+3   1.74337E+3
  -8.21613E+2  -7.26151E+2
   1.97104E+2  -1.05088E+3
   3.43334E+2  -1.07742E+3
   3.19971E+2  -9.73668E+2
   1.26018E+3  -1.73441E+3
  -8.45126E+2   1.23595E+3
   1.97450E+2  -3.23475E+2
  -2.47660E+2   1.40887E+3
  -1.73705E+3  -1.28952E+3
  -1.61157E+3  -1.27827E+3
   1.52740E+3  -9.28307E+2
   1.65866E+2   9.07582E+2
   1.13377E+3   1.31322E+3
  -2.18875E+3   3.44731E+2
  -4.98706E+2  -2.14852E+3
   8.79203E+2  -6.73184E+2
  -7.55620E+2   2.01414E+3
  -1.22786E+3  -3.80238E+2
  -1.55316E+3   1.03158E+3
   2.56478E+2   6.97412E+2
  -6.22484E+2   1.20412E+3
  -1.29207E+3   2.51205E+3
  -2.58162E+3  -2.85233E+3
   2.06320E+3  -3.10901E+3
   2.26787E+3  -1.19346E+3
   2.66250E+3   3.89937E+2
  -9.24002E+2   1.98662E+2
  -5.41596E+2   1.31769E+3
   3.28957E+2   3.53520E+2
   1.08076E+3   1.35600E+3
  -8.07448E+2   7.35984E+2
  -1.09428E+3   2.41512E+2
   1.35829E+3  -2.59623E+3
   3.07081E+3   1.41872E+3
   4.34429E+1   2.19522E+3
  -3.51081E+2   2.71031E+3
  -3.83706E+3  -1.64514E+3
   1.67613E+3  -1.66162E+3
   4.52837E+2  -1.20531E+2
  -1.71566E+2   3.94077E+2
   2.42542E+2  -4.39188E+2
   3.21418E+3  -1.53911E+3
   4.70931E+2   1.69179E+1
  -1.21464E+3   2.09410E+3
   4.73807E+1  -1.91282E+2
   3.06165E+2   3.92819E+2
  -1.24336E+3  -1.31474E+3
  -1.32140E+3   2.09100E+2
  -1.59087E+3   1.89850E+3
  -5.30794E+2   1.40744E+3
  -1.30409E+3  -1.20838E+3
   1.60165E+3  -1.49449E+3
   1.82006E+3  -1.58835E+3
  -1.36904E+3  -2.69624E+2
   1.77776E+3  -2.30194E+2
   4.97639E+3   1.14617E+3
   4.50443E+2   2.71224E+3
  -1.12422E+3   2.29696E+3
  -1.64435E+3  -8.81542E+2
  -1.54646E+3   6.10581E+2
   2.61472E+3   8.69264E+2
   2.03970E+3   1.41985E+3
   2.34500E+3  -5.93902E+2
   4.43158E+1  -4.98769E+2
   1.94383E+2  -8.22226E+2
  -2.07201E+2   3.04277E+3
   3.68762E+2   8.30704E+2
   5.40246E+2  -4.42577E+2
   1.60155E+3  -1.09629E+3
   8.68406E+2   2.10532E+3
   7.36907E+2   1.79201E+3
  -1.92470E+3   1.69990E+3
  -4.88818E+2  -1.46721E+3
   7.55848E+1  -1.52853E+3
   1.42491E+3   3.72976E+2
   2.55735E+2  -2.95510E+2
   4.46169E+1   3.45560E+2
  -1.41971E+2   6.81805E+2
   1.68597E+3   1.42782E+3
  -1.53778E+3   8.64532E+2
  -2.19646E+3  -1.06000E+3
   1.88670E+3  -1.13050E+3
  -5.09424E+2  -1.78194E+3
   1.87537E+3  -1.29671E+3
   5.47347E+2   2.35247E+3
  -1.21321E+3   5.65003E+1
   1.56780E+3   4.14206E+2
   1.12172E+3  -1.21092E+1
  -2.71601E+3  -1.43532E+1
   2.29324E+2  -1.40858E+3
   1.59219E+3  -3.37103E+3
   3.24622E+3  -1.39620E+2
   6.62724E+2   6.85518E+2
  -5.04883E+2   1.95451E+3
  -2.54175E+3  -9.70108E+2
   2.28522E+3  -2.00378E+3
   5.54035E+2  -1.38278E+2
   4.70869E+2   2.50656E+2
   2.09036E+2   9.13729E+2
  -2.67444E+2  -1.60787E+3
   6.32024E+2   2.09027E+3
   1.03369E+3   2.10014E+3
  -1.38519E+3   1.63318E+3
  -2.01695E+2  -1.66281E+3
  -7.43045E+2  -1.27649E+3
   2.51286E+2  -1.04237E+1
  -8.09481E+2  -5.35956E+2
  -5.59029E+1  -1.38685E+3
   5.12340E+2  -2.38843E+3
   1.50748E+3  -6.59327E+2
   1.11311E+2   2.00045E+3
   1.53703E+3   1.82953E+3
  -1.16025E+3  -1.14648E+3
   1.10629E+3   7.35311E+2
  -7.92940E+2   2.00422E+3
  -1.71875E+3   2.45246E+3
  -2.61936E+2  -1.13444E+3
   6.65796E+2  -7.55214E+2
   1.89897E+3  -1.54855E+3
  -8.29750E+2   2.54068E+3
  -1.49537E+3  -1.87748E+3
  -1.37990E+3  -1.19684E+3
   1.33269E+3   1.17709E+3
   3.08885E+2   1.42651E+3
   1.09480E+3  -7.47485E+2
  -5.62267E+2  -2.70813E+3
   1.38490E+3  -1.75083E+3
   2.44895E+3   7.17512E+2
   8.33490E+2   1.24469E+3
  -2.77171E+3   1.55844E+3
  -1.09085E+3  -5.53620E+2
   1.96996E+3   2.47654E+1
   1.62722E+3   1.05944E+3
   2.28615E+3   1.13409E+3
  -9.87631E+2  -1.96608E+2
   1.46536E+3   3.83022E+2
   3.54122E+2   5.65163E+2
   2.13081E+2   3.05958E+3
  -6.34397E+2  -1.76778E+1
   9.05351E+2  -1.68561E+3
   1.24367E+3   2.64485E+1
   1.10061E+3   2.75456E+2
  -2.03998E+3   1.99039E+3
   2.94488E+2   2.39434E+2
  -1.26342E+2   2.71642E+2
  -5.42205E+2   2.01512E+3
   2.31503E+2  -1.04712E+3
   8.02981E+1   2.20930E+2
   1.03701E+3   8.06384E+1
   1.48807E+3   7.01815E+2
   1.38375E+3   1.03735E+3
  -8.05977E+2   1.53407E+2
  -7.70263E+2   9.96185E+2
   1.11479E+3  -1.20624E+3
   1.59487E+3   4.12834E+2
   3.12507E+2   7.51166E+2
  -2.20729E+2  -1.07341E+3
  -4.13884E+2  -1.42104E+3
   1.82435E+3   1.02381E+3
   5.29771E+2   1.79398E+3
  -1.52045E+3   1.67502E+3
  -8.14409E+2  -5.35825E+2
  -5.57806E+2  -1.59846E+3
   1.35328E+3  -1.01628E+3
   8.77565E+2   5.58465E+2
  -8.77997E+2   1.53831E+3
  -8.95525E+2  -1.54127E+3
  -1.72351E+3  -1.89940E+3
  -1.38719E+3  -1.04210E+3
  -8.35269E+2  -9.45992E+2
   9.40338E+1  -2.49425E+3
   5.63932E+2  -6.81931E+2
   1.62717E+3   2.23877E+3
  -1.09952E+3   5.51522E+2
  -2.97783E+3  -1.17769E+3
   6.62115E+1  -7.71799E+2
  -5.25864E+1  -2.47956E+3
   5.98960E+1   1.26962E+3
  -5.65521E+2   3.66149E+2
  -4.34065E+2   3.85415E+2
  -7.42105E+1   1.20403E+3
   1.72792E+3   4.46765E+2
   1.04000E+3   1.76658E+3
  -1.91216E+3   1.25467E+3
   1.58320E+2  -7.54684E+2
   4.60090E+2   3.00322E+2
   1.63923E+3   1.27502E+2
   4.37793E+2   6.06401E+2
