 
 $NMID
 ID=''
 FMTDAT='(2E13.5)'
 TRAMP=   1.00000E+0
 VOLUME=   1.00000E+0
 $END
  -2.72511E+3   1.32594E+4
  -1.74359E+4   3.05988E+4
  -1.31250E+4   3.24392E+4
  -1.36512E+4   2.94249E+4
  -1.62454E+4   2.98139E+4
  -1.61371E+4   2.96096E+4
  -1.73772E+4   2.74592E+4
  -1.93530E+4   2.68454E+4
  -1.97309E+4   2.61734E+4
  -2.08394E+4   2.43660E+4
  -2.24328E+4   2.34492E+4
  -2.28899E+4   2.25258E+4
  -2.37745E+4   2.08126E+4
  -2.51490E+4   1.96810E+4
  -2.55282E+4   1.85355E+4
  -2.61914E+4   1.67530E+4
  -2.71706E+4   1.54754E+4
  -2.73436E+4   1.41295E+4
  -2.77508E+4   1.24636E+4
  -2.83429E+4   1.10520E+4
  -2.82501E+4   9.67101E+3
  -2.83180E+4   8.10043E+3
  -2.85810E+4   6.90327E+3
  -2.84825E+4   5.52480E+3
  -2.82112E+4   4.04813E+3
  -2.82289E+4   2.97023E+3
  -2.80101E+4   1.69997E+3
  -2.76854E+4   3.07427E+2
  -2.74522E+4  -9.79068E+2
  -2.71008E+4  -2.05388E+3
  -2.67416E+4  -3.24605E+3
  -2.64465E+4  -4.31944E+3
  -2.59553E+4  -5.48867E+3
  -2.54220E+4  -6.72000E+3
  -2.49376E+4  -7.64549E+3
  -2.42895E+4  -8.68925E+3
  -2.36635E+4  -9.70926E+3
  -2.30643E+4  -1.05760E+4
  -2.22960E+4  -1.14510E+4
  -2.14360E+4  -1.23642E+4
  -2.06802E+4  -1.32614E+4
  -1.95895E+4  -1.40633E+4
  -1.86064E+4  -1.48389E+4
  -1.77013E+4  -1.54231E+4
  -1.66851E+4  -1.59915E+4
  -1.56246E+4  -1.64733E+4
  -1.45791E+4  -1.69402E+4
  -1.35853E+4  -1.73440E+4
  -1.24741E+4  -1.76466E+4
  -1.14280E+4  -1.78973E+4
  -1.03094E+4  -1.80920E+4
  -9.31396E+3  -1.82238E+4
  -8.36385E+3  -1.82297E+4
  -7.44321E+3  -1.81990E+4
  -6.40783E+3  -1.82169E+4
  -5.45977E+3  -1.80690E+4
  -4.59934E+3  -1.79234E+4
  -3.64120E+3  -1.77133E+4
  -2.76009E+3  -1.73878E+4
  -1.97265E+3  -1.70380E+4
  -1.18513E+3  -1.66450E+4
  -4.78799E+2  -1.63820E+4
   2.02150E+2  -1.60082E+4
   8.21450E+2  -1.56077E+4
   1.44885E+3  -1.51481E+4
   2.02782E+3  -1.46965E+4
   2.53088E+3  -1.42430E+4
   2.96877E+3  -1.37627E+4
   3.49408E+3  -1.33260E+4
   3.83892E+3  -1.28197E+4
   4.22616E+3  -1.23034E+4
   4.57219E+3  -1.18592E+4
   4.88979E+3  -1.13629E+4
   5.08376E+3  -1.08318E+4
   5.34802E+3  -1.04272E+4
   5.51275E+3  -9.90187E+3
   5.72855E+3  -9.38642E+3
   5.90010E+3  -8.96698E+3
   5.98133E+3  -8.56449E+3
   6.06414E+3  -8.14322E+3
   6.14228E+3  -7.77830E+3
   6.23751E+3  -7.38623E+3
   6.26342E+3  -7.05408E+3
   6.27940E+3  -6.76068E+3
   6.28534E+3  -6.36816E+3
   6.37530E+3  -5.99339E+3
   6.30245E+3  -5.65442E+3
   6.21580E+3  -5.31805E+3
   6.27143E+3  -5.07546E+3
   6.24490E+3  -4.83192E+3
   6.24556E+3  -4.59444E+3
   6.13847E+3  -4.31954E+3
   6.17321E+3  -4.10751E+3
   6.18696E+3  -3.94585E+3
   6.09374E+3  -3.68604E+3
   6.08648E+3  -3.46141E+3
   6.10401E+3  -3.27164E+3
   6.02647E+3  -3.10243E+3
   5.98439E+3  -2.87477E+3
   5.96703E+3  -2.66955E+3
   5.96116E+3  -2.41701E+3
   5.96935E+3  -2.35507E+3
   5.98096E+3  -2.07539E+3
   5.96426E+3  -1.90487E+3
   5.94340E+3  -1.70613E+3
   5.94747E+3  -1.48903E+3
   5.82445E+3  -1.29003E+3
   5.89284E+3  -1.14612E+3
   5.83503E+3  -9.25517E+2
   5.80317E+3  -6.96631E+2
   5.75906E+3  -5.33627E+2
   5.66910E+3  -3.09898E+2
   5.64035E+3  -1.76499E+2
   5.57522E+3   1.14346E+2
   5.57439E+3   2.33247E+2
   5.49697E+3   4.46598E+2
   5.34876E+3   6.06908E+2
   5.32146E+3   8.45163E+2
   5.25407E+3   9.78554E+2
   5.10780E+3   1.22835E+3
   4.98450E+3   1.43633E+3
   4.92825E+3   1.56427E+3
   4.82803E+3   1.75390E+3
   4.71353E+3   1.93634E+3
   4.64668E+3   1.96428E+3
   4.52332E+3   2.22762E+3
   4.41214E+3   2.33844E+3
   4.30584E+3   2.51162E+3
   4.20988E+3   2.61742E+3
   4.09083E+3   2.72336E+3
   3.92416E+3   2.83869E+3
   3.91255E+3   2.94787E+3
   3.80351E+3   3.09300E+3
   3.69045E+3   3.19211E+3
   3.63082E+3   3.31230E+3
   3.47720E+3   3.42370E+3
   3.38450E+3   3.56682E+3
   3.22244E+3   3.66155E+3
   3.20766E+3   3.80690E+3
   3.16063E+3   3.85201E+3
   3.06450E+3   3.91318E+3
   2.90320E+3   4.09300E+3
   2.92495E+3   4.11245E+3
   2.68967E+3   4.21733E+3
   2.61793E+3   4.39357E+3
   2.49528E+3   4.49547E+3
   2.46332E+3   4.58063E+3
   2.31648E+3   4.65968E+3
   2.22807E+3   4.78030E+3
   2.12198E+3   4.82949E+3
   2.01770E+3   4.93955E+3
   1.86304E+3   4.97746E+3
   1.74732E+3   5.06298E+3
   1.62603E+3   5.15965E+3
   1.44718E+3   5.17113E+3
   1.38898E+3   5.27174E+3
   1.26274E+3   5.33489E+3
   1.09374E+3   5.35887E+3
   9.63043E+2   5.42447E+3
   8.22355E+2   5.52226E+3
   7.35712E+2   5.55234E+3
   5.90209E+2   5.60938E+3
   5.53940E+2   5.65105E+3
   3.08153E+2   5.62482E+3
   2.27564E+2   5.60336E+3
   7.96513E+1   5.62689E+3
  -6.21790E+1   5.61485E+3
  -2.06335E+2   5.69715E+3
  -3.14389E+2   5.65894E+3
  -4.20322E+2   5.67557E+3
  -6.08432E+2   5.61981E+3
  -7.10729E+2   5.52697E+3
  -8.50059E+2   5.54543E+3
  -1.01313E+3   5.50893E+3
  -1.05167E+3   5.44452E+3
  -1.16414E+3   5.45199E+3
  -1.30836E+3   5.33991E+3
  -1.33951E+3   5.30030E+3
  -1.48674E+3   5.24621E+3
  -1.58915E+3   5.21782E+3
  -1.70860E+3   5.13584E+3
  -1.74333E+3   5.08375E+3
  -1.83421E+3   4.98190E+3
  -1.97801E+3   4.92261E+3
  -2.01706E+3   4.89584E+3
  -2.11215E+3   4.74601E+3
  -2.19789E+3   4.70570E+3
  -2.24194E+3   4.61772E+3
  -2.32225E+3   4.53967E+3
  -2.37987E+3   4.42217E+3
  -2.45141E+3   4.31471E+3
  -2.52197E+3   4.28818E+3
  -2.59741E+3   4.18720E+3
  -2.58884E+3   4.15388E+3
  -2.66053E+3   4.02459E+3
  -2.71929E+3   3.94833E+3
  -2.74538E+3   3.89470E+3
  -2.87104E+3   3.74284E+3
  -2.97052E+3   3.73863E+3
  -2.94344E+3   3.55359E+3
  -3.01705E+3   3.49127E+3
  -3.04928E+3   3.42960E+3
  -3.04789E+3   3.35327E+3
  -3.09760E+3   3.26959E+3
  -3.11454E+3   3.14960E+3
  -3.20337E+3   3.09009E+3
  -3.12853E+3   2.91706E+3
  -3.17965E+3   2.84589E+3
  -3.25486E+3   2.74005E+3
  -3.22514E+3   2.64623E+3
  -3.27747E+3   2.57881E+3
  -3.24891E+3   2.44346E+3
  -3.31343E+3   2.33294E+3
  -3.29563E+3   2.31953E+3
  -3.25212E+3   2.13439E+3
  -3.29099E+3   2.04513E+3
  -3.30313E+3   1.90485E+3
  -3.24982E+3   1.85018E+3
  -3.29626E+3   1.77038E+3
  -3.22555E+3   1.66606E+3
  -3.27088E+3   1.55773E+3
  -3.19230E+3   1.45246E+3
  -3.26186E+3   1.34647E+3
  -3.18223E+3   1.33254E+3
  -3.13199E+3   1.09690E+3
  -3.12071E+3   1.09955E+3
  -3.15227E+3   1.00679E+3
  -3.10209E+3   9.77193E+2
  -3.07935E+3   8.77619E+2
  -3.03665E+3   6.97898E+2
  -2.97771E+3   6.68882E+2
  -2.99602E+3   6.13845E+2
  -2.90334E+3   4.97458E+2
  -2.86053E+3   4.69113E+2
  -2.86014E+3   3.99776E+2
  -2.78576E+3   3.13369E+2
  -2.74026E+3   2.38476E+2
  -2.70932E+3   1.60934E+2
  -2.64919E+3   1.55430E+2
  -2.61921E+3   7.82654E+1
  -2.55277E+3   2.75570E+0
  -2.44808E+3  -2.98510E+1
  -2.44067E+3  -1.66895E+2
  -2.37776E+3  -1.66943E+2
  -2.29218E+3  -1.41978E+2
  -2.33925E+3  -1.85154E+2
  -2.25583E+3  -2.66499E+2
  -2.15666E+3  -2.64356E+2
  -2.07786E+3  -3.10350E+2
  -2.10268E+3  -3.47836E+2
  -1.98768E+3  -4.46872E+2
  -1.92339E+3  -4.94595E+2
  -1.86622E+3  -5.26982E+2
  -1.87642E+3  -5.18450E+2
  -1.83591E+3  -6.08661E+2
  -1.78459E+3  -6.00382E+2
  -1.66499E+3  -6.92591E+2
  -1.66556E+3  -6.67488E+2
  -1.60995E+3  -6.80597E+2
  -1.53521E+3  -7.29764E+2
  -1.46770E+3  -6.71127E+2
  -1.38494E+3  -7.06377E+2
  -1.37889E+3  -7.67046E+2
  -1.34743E+3  -8.07984E+2
  -1.26490E+3  -7.99367E+2
  -1.19593E+3  -8.14314E+2
  -1.18368E+3  -7.92526E+2
  -1.07699E+3  -8.09737E+2
  -1.00802E+3  -8.55719E+2
  -9.04849E+2  -8.76798E+2
  -9.46497E+2  -8.73462E+2
  -8.01724E+2  -8.50621E+2
  -7.94475E+2  -8.73262E+2
  -7.53365E+2  -9.32514E+2
  -7.18718E+2  -8.44295E+2
  -6.39414E+2  -8.53011E+2
  -5.33901E+2  -8.66755E+2
  -5.17011E+2  -8.79786E+2
  -3.95900E+2  -8.40048E+2
  -3.57658E+2  -7.98674E+2
  -3.88592E+2  -8.20512E+2
  -3.38088E+2  -7.91891E+2
  -2.03798E+2  -7.82070E+2
  -1.93008E+2  -7.65983E+2
  -1.40601E+2  -7.59558E+2
  -1.54201E+2  -7.89506E+2
  -3.86945E+1  -7.13802E+2
  -4.73837E+1  -7.16773E+2
   1.07361E+0  -6.66759E+2
   6.98209E+1  -6.81653E+2
   4.66096E+1  -6.77622E+2
   1.17510E+2  -6.60680E+2
   1.60906E+2  -6.40346E+2
   1.56585E+2  -6.10243E+2
   1.63866E+2  -6.18219E+2
   1.86072E+2  -6.73501E+2
   2.79204E+2  -5.74254E+2
   2.20092E+2  -6.03114E+2
   3.14726E+2  -5.57364E+2
   3.03939E+2  -4.97528E+2
   3.96905E+2  -5.39343E+2
   4.04672E+2  -4.55247E+2
   2.94325E+2  -5.29342E+2
   4.01751E+2  -4.69670E+2
   4.46153E+2  -4.81119E+2
   4.06636E+2  -4.14518E+2
   4.17244E+2  -4.07663E+2
   4.35709E+2  -3.68742E+2
   4.30951E+2  -4.03685E+2
   5.06843E+2  -3.65732E+2
   4.64701E+2  -3.25397E+2
   4.63895E+2  -3.27682E+2
   5.56401E+2  -2.55396E+2
   5.23164E+2  -3.34621E+2
   5.18135E+2  -2.92200E+2
   5.04842E+2  -1.87497E+2
   5.19872E+2  -2.89304E+2
   4.64596E+2  -1.17509E+2
   4.71251E+2  -1.96598E+2
   4.72059E+2  -1.67188E+2
   4.88892E+2  -1.97340E+2
   5.05069E+2  -1.11708E+2
   5.32941E+2  -1.25444E+2
   4.36710E+2  -2.16317E+2
   4.92362E+2  -1.73295E+2
   4.49681E+2  -2.07603E+2
   4.44398E+2  -1.42201E+2
   4.17522E+2  -1.09727E+2
   3.92730E+2  -1.05054E+2
   3.86242E+2  -1.39645E+2
   4.15496E+2  -5.92124E+1
   4.06103E+2  -1.42160E+2
   4.04234E+2  -8.42912E+1
   3.97690E+2  -1.30857E+2
   4.08610E+2  -8.51792E+1
   4.01666E+2  -6.92305E+1
   3.36960E+2  -7.59137E+1
   2.79750E+2  -1.80029E+1
   3.48023E+2  -8.30469E+1
   3.31985E+2  -1.41289E+2
   3.18855E+2  -3.55052E+1
   3.21662E+2  -5.95615E+1
   2.89137E+2  -3.76443E+1
   2.61553E+2  -8.70688E+1
   2.59170E+2  -9.18827E+1
   2.30670E+2  -2.97650E+1
   1.84613E+2  -3.13013E+1
   1.99917E+2  -4.80878E+1
   1.82085E+2  -6.25023E+0
   7.58091E+1  -5.69274E+1
   1.01413E+2  -2.29893E+1
   9.58156E+1   1.12638E+1
   1.60128E+2  -4.95602E+1
   1.08740E+2  -4.23683E+1
   1.12475E+2  -1.00925E+2
   8.20425E+1  -6.65265E+1
   6.95619E+1  -1.32460E+2
   3.61063E+1  -1.09177E+2
   2.95398E+1  -1.03946E+2
   3.70835E+1  -7.76392E+1
  -2.81774E+1  -7.97013E+1
  -3.98732E+1  -8.85978E+1
  -4.07824E+1  -5.73527E+1
   2.39123E+0  -1.35546E+2
  -5.71896E+1  -7.51947E+1
  -6.25068E+1  -1.05779E+2
  -5.39769E+0  -1.30039E+2
