 
 $NMID
 ID=''
 FMTDAT='(2E13.5)'
 TRAMP=   1.00000E+0
 VOLUME=   1.00000E+0
 $END
  -9.29855E+2   1.58493E+4
  -1.43350E+4   3.82991E+4
  -7.89824E+3   3.98402E+4
  -7.91913E+3   3.64650E+4
  -9.77587E+3   3.74232E+4
  -8.54589E+3   3.73779E+4
  -9.23671E+3   3.54290E+4
  -1.05115E+4   3.54155E+4
  -1.00301E+4   3.52371E+4
  -1.04662E+4   3.36937E+4
  -1.13784E+4   3.33662E+4
  -1.08614E+4   3.29164E+4
  -1.11438E+4   3.17788E+4
  -1.19561E+4   3.14349E+4
  -1.17301E+4   3.10420E+4
  -1.20114E+4   3.00200E+4
  -1.26173E+4   2.95735E+4
  -1.24980E+4   2.90609E+4
  -1.26908E+4   2.81659E+4
  -1.31821E+4   2.76304E+4
  -1.30245E+4   2.70570E+4
  -1.30789E+4   2.62937E+4
  -1.34346E+4   2.57622E+4
  -1.33994E+4   2.52193E+4
  -1.33762E+4   2.42894E+4
  -1.35460E+4   2.38160E+4
  -1.34957E+4   2.31491E+4
  -1.35298E+4   2.24020E+4
  -1.37361E+4   2.17315E+4
  -1.35622E+4   2.11596E+4
  -1.34615E+4   2.05248E+4
  -1.34331E+4   2.00945E+4
  -1.34179E+4   1.95660E+4
  -1.32589E+4   1.88822E+4
  -1.31206E+4   1.85089E+4
  -1.29435E+4   1.81390E+4
  -1.27778E+4   1.75646E+4
  -1.26781E+4   1.72586E+4
  -1.24796E+4   1.69540E+4
  -1.23979E+4   1.65813E+4
  -1.24310E+4   1.62920E+4
  -1.24288E+4   1.59896E+4
  -1.25175E+4   1.55759E+4
  -1.25263E+4   1.53661E+4
  -1.25849E+4   1.50769E+4
  -1.27819E+4   1.47379E+4
  -1.28862E+4   1.44007E+4
  -1.30085E+4   1.40207E+4
  -1.32158E+4   1.35920E+4
  -1.34198E+4   1.31286E+4
  -1.35748E+4   1.27509E+4
  -1.37473E+4   1.21903E+4
  -1.38265E+4   1.16859E+4
  -1.40285E+4   1.11752E+4
  -1.41444E+4   1.05516E+4
  -1.41979E+4   9.95532E+3
  -1.43370E+4   9.29293E+3
  -1.43624E+4   8.71496E+3
  -1.44528E+4   7.96486E+3
  -1.43431E+4   7.34507E+3
  -1.43364E+4   6.73213E+3
  -1.42740E+4   6.04716E+3
  -1.40830E+4   5.36516E+3
  -1.40189E+4   4.74118E+3
  -1.38382E+4   4.16002E+3
  -1.37648E+4   3.45678E+3
  -1.34362E+4   2.89548E+3
  -1.32748E+4   2.29108E+3
  -1.30306E+4   1.67252E+3
  -1.28285E+4   1.05165E+3
  -1.24606E+4   4.18177E+2
  -1.22043E+4  -4.99667E+1
  -1.18787E+4  -6.44139E+2
  -1.15803E+4  -1.12009E+3
  -1.11731E+4  -1.63190E+3
  -1.08558E+4  -2.06820E+3
  -1.04517E+4  -2.50629E+3
  -1.00287E+4  -2.91945E+3
  -9.63282E+3  -3.30054E+3
  -9.19860E+3  -3.67591E+3
  -8.86607E+3  -3.98704E+3
  -8.41572E+3  -4.35479E+3
  -8.02238E+3  -4.59171E+3
  -7.55321E+3  -4.93527E+3
  -7.19207E+3  -5.08414E+3
  -6.75674E+3  -5.33295E+3
  -6.34512E+3  -5.58968E+3
  -5.87507E+3  -5.72811E+3
  -5.61545E+3  -5.84616E+3
  -5.09514E+3  -5.91531E+3
  -4.77836E+3  -6.01432E+3
  -4.42573E+3  -6.09154E+3
  -4.10109E+3  -6.19226E+3
  -3.77760E+3  -6.24408E+3
  -3.41905E+3  -6.35606E+3
  -3.13810E+3  -6.27762E+3
  -2.80042E+3  -6.33068E+3
  -2.57323E+3  -6.32526E+3
  -2.30511E+3  -6.29259E+3
  -1.97632E+3  -6.31693E+3
  -1.74920E+3  -6.29924E+3
  -1.46100E+3  -6.20215E+3
  -1.25887E+3  -6.18756E+3
  -1.04047E+3  -6.05424E+3
  -8.13813E+2  -6.07362E+3
  -5.85332E+2  -6.01100E+3
  -2.98773E+2  -5.88671E+3
  -1.57738E+2  -5.77964E+3
   1.29870E+2  -5.65034E+3
   2.44661E+2  -5.58617E+3
   3.74922E+2  -5.40305E+3
   5.92795E+2  -5.26265E+3
   6.85820E+2  -5.15290E+3
   8.79881E+2  -5.05840E+3
   1.03363E+3  -4.96098E+3
   1.08167E+3  -4.73878E+3
   1.18112E+3  -4.64650E+3
   1.25696E+3  -4.46413E+3
   1.44082E+3  -4.29898E+3
   1.38918E+3  -4.11678E+3
   1.45374E+3  -4.01138E+3
   1.53451E+3  -3.77190E+3
   1.55865E+3  -3.70385E+3
   1.57073E+3  -3.46331E+3
   1.63079E+3  -3.39004E+3
   1.62176E+3  -3.23183E+3
   1.64513E+3  -3.07670E+3
   1.63084E+3  -2.91779E+3
   1.62760E+3  -2.82613E+3
   1.75395E+3  -2.64654E+3
   1.65667E+3  -2.57832E+3
   1.59026E+3  -2.40685E+3
   1.54428E+3  -2.30372E+3
   1.51234E+3  -2.23412E+3
   1.47056E+3  -2.10938E+3
   1.42140E+3  -2.00722E+3
   1.43287E+3  -1.94569E+3
   1.37169E+3  -1.86420E+3
   1.28423E+3  -1.73012E+3
   1.24403E+3  -1.60720E+3
   1.22973E+3  -1.59628E+3
   1.16932E+3  -1.51939E+3
   1.02521E+3  -1.44558E+3
   1.02453E+3  -1.36064E+3
   9.64704E+2  -1.32648E+3
   9.14975E+2  -1.28104E+3
   8.27366E+2  -1.19877E+3
   8.30495E+2  -1.16606E+3
   7.15826E+2  -1.12735E+3
   7.08143E+2  -1.13065E+3
   6.70145E+2  -1.16549E+3
   6.06168E+2  -1.00841E+3
   6.07173E+2  -1.00967E+3
   5.09984E+2  -1.02323E+3
   4.97305E+2  -9.37525E+2
   4.23575E+2  -9.12382E+2
   4.12224E+2  -9.27662E+2
   3.61531E+2  -9.27173E+2
   3.47056E+2  -9.11800E+2
   3.52533E+2  -9.15013E+2
   2.56207E+2  -9.42151E+2
   2.79116E+2  -8.54595E+2
   2.60468E+2  -8.76166E+2
   2.51647E+2  -8.78837E+2
   1.54562E+2  -8.45336E+2
   2.54787E+2  -8.45270E+2
   1.84506E+2  -8.18371E+2
   2.17698E+2  -8.22506E+2
   1.17503E+2  -8.84124E+2
   1.37760E+2  -8.81119E+2
   1.32639E+2  -8.91554E+2
   8.89505E+1  -8.52991E+2
   1.11694E+2  -7.80379E+2
   1.05280E+2  -8.51419E+2
   1.41326E+2  -8.13179E+2
   1.66672E+2  -8.54977E+2
   1.04243E+2  -8.84507E+2
   1.66283E+2  -7.59340E+2
   1.17634E+2  -8.28840E+2
   1.60233E+2  -8.39971E+2
   1.80326E+2  -7.78663E+2
   2.08773E+2  -7.80287E+2
   1.70383E+2  -8.24616E+2
   2.10038E+2  -7.17142E+2
   1.75948E+2  -7.05006E+2
   1.84821E+2  -7.60910E+2
   2.39391E+2  -7.69409E+2
   2.66849E+2  -7.40471E+2
   2.34675E+2  -6.54287E+2
   2.08714E+2  -6.78511E+2
   3.05477E+2  -6.64781E+2
   2.74461E+2  -6.40639E+2
   2.88054E+2  -6.17007E+2
   2.99972E+2  -7.06881E+2
   3.22740E+2  -6.41752E+2
   2.38201E+2  -6.33720E+2
   3.28579E+2  -5.91025E+2
   3.91572E+2  -6.40789E+2
   3.61817E+2  -5.68842E+2
   4.29439E+2  -5.71962E+2
   4.35606E+2  -5.71470E+2
   4.37214E+2  -5.60797E+2
   4.19509E+2  -5.31577E+2
   4.19903E+2  -5.03705E+2
   5.13000E+2  -5.08456E+2
   4.94713E+2  -4.11707E+2
   4.94578E+2  -4.69849E+2
   5.07637E+2  -4.25308E+2
   4.57711E+2  -4.03632E+2
   4.97253E+2  -3.85441E+2
   5.81540E+2  -3.90694E+2
   5.34984E+2  -4.02493E+2
   5.19483E+2  -3.90586E+2
   4.85069E+2  -3.65343E+2
   6.04987E+2  -3.34897E+2
   5.42356E+2  -2.97335E+2
   5.83568E+2  -3.22859E+2
   5.88346E+2  -3.69703E+2
   5.39085E+2  -4.05128E+2
   6.16290E+2  -3.10097E+2
   6.23697E+2  -2.77793E+2
   6.19466E+2  -2.90390E+2
   6.79838E+2  -2.35449E+2
   6.05480E+2  -2.30485E+2
   7.09821E+2  -1.69535E+2
   5.84361E+2  -2.41685E+2
   6.51558E+2  -2.13623E+2
   6.68192E+2  -2.51224E+2
   6.81317E+2  -1.98698E+2
   6.70393E+2  -1.79148E+2
   7.12211E+2  -2.16040E+2
   6.66366E+2  -1.87907E+2
   7.63111E+2  -2.10022E+2
   7.42672E+2  -1.33969E+2
   7.29305E+2  -1.16026E+2
   7.10232E+2  -1.51454E+2
   7.62390E+2  -1.83848E+2
   7.08303E+2  -1.91757E+2
   7.65835E+2  -1.08818E+2
   7.17596E+2  -1.04161E+2
   7.46265E+2  -9.12245E+1
   7.43691E+2  -2.74882E+1
   7.81684E+2  -7.37713E+1
   8.07336E+2  -7.13851E+1
   7.24234E+2  -8.63601E+1
   8.14193E+2  -5.17371E+1
   7.28669E+2  -1.57797E+1
   7.88326E+2  -1.07546E+2
   7.66400E+2   2.27977E+1
   6.94035E+2   5.65140E+0
   7.55306E+2   5.36337E+1
   6.94052E+2   2.48449E+1
   7.14938E+2   1.35201E+1
   7.06177E+2   4.32076E+1
   6.50042E+2  -1.60653E+1
   7.13353E+2   3.28478E+1
   6.92742E+2   1.03201E+2
   6.34898E+2   3.92755E+1
   6.91596E+2   1.13427E+2
   6.86419E+2   2.72112E+1
   6.54672E+2   1.17306E+2
   6.27444E+2   7.36002E+1
   6.17338E+2   3.30610E+1
   6.13973E+2   6.72947E+1
   6.14677E+2   4.13524E+1
   6.10100E+2   5.61986E+1
   5.86565E+2   6.47309E+1
   5.89222E+2   1.48343E+2
   6.46240E+2   7.25342E+1
   5.61019E+2   3.36829E+1
   5.59306E+2   4.30460E+1
   5.63589E+2   1.10007E+2
   6.06407E+2   1.12332E+2
   5.51208E+2   5.93601E+1
   5.15323E+2   2.24557E+2
   4.87859E+2   8.14652E+1
   5.70569E+2   7.92178E+1
   5.22162E+2   5.59981E+1
   4.75400E+2   7.80466E+1
   5.01611E+2   5.09129E+1
   4.97375E+2   9.34112E+1
   4.55102E+2   1.25548E+2
   5.10100E+2   8.72599E+1
   4.46235E+2   9.97405E+1
   4.45681E+2   9.40180E+1
   4.50779E+2   5.37398E+1
   5.19157E+2   1.44830E+2
   5.17531E+2   1.26793E+2
   4.10766E+2   1.10034E+2
   4.20857E+2   7.65848E+1
   4.27696E+2   7.89171E+1
   4.70204E+2   1.18931E+2
   4.25942E+2   1.69717E+2
   3.42187E+2   7.43669E+1
   4.17933E+2   7.89223E+1
   3.56280E+2   8.32035E+1
   3.70307E+2   8.12564E+1
   4.09135E+2   1.66662E+2
   4.05302E+2   1.63136E+2
   4.16350E+2   9.89786E+1
   3.99603E+2   1.49399E+2
   3.26663E+2   5.54125E+1
   3.94688E+2   1.54441E+2
   3.41613E+2   1.49011E+2
   3.63558E+2   1.68470E+2
   3.48139E+2   9.88454E+1
   3.55691E+2   1.25070E+2
   3.44400E+2   1.90578E+2
   3.35036E+2   1.76678E+2
   3.26941E+2   1.39417E+2
   3.53310E+2   2.26596E+2
   3.47704E+2   1.74056E+2
   3.52919E+2   2.01787E+2
   3.31804E+2   1.38004E+2
   3.58199E+2   1.56660E+2
   2.92910E+2   9.84226E+1
   3.04305E+2   1.69510E+2
   3.70185E+2   1.96902E+2
   3.62045E+2   1.84378E+2
   3.09808E+2   1.75442E+2
   2.88535E+2   1.92075E+2
   3.30071E+2   1.41360E+2
   3.07568E+2   1.09121E+2
   3.32395E+2   2.21377E+2
   3.70025E+2   1.59435E+2
   2.92695E+2   1.62019E+2
   3.13339E+2   1.65059E+2
   2.53461E+2   1.62967E+2
   3.62831E+2   1.67792E+2
   2.86778E+2   1.65283E+2
   3.41471E+2   2.05530E+2
   2.89825E+2   2.14072E+2
   2.97783E+2   1.42401E+2
   2.88119E+2   1.89894E+2
   3.27438E+2   1.60342E+2
   3.19925E+2   1.84777E+2
   3.32618E+2   9.39595E+1
   3.16718E+2   1.73074E+2
   3.10977E+2   1.61116E+2
   3.06673E+2   2.65758E+2
   3.25016E+2   1.15387E+2
   2.84862E+2   1.42855E+2
   3.05813E+2   1.59123E+2
   3.01942E+2   1.60077E+2
   2.63825E+2   1.57204E+2
   3.07805E+2   1.80452E+2
   3.44787E+2   1.35076E+2
   3.03650E+2   1.33644E+2
   2.97992E+2   1.37997E+2
   3.83152E+2   1.04612E+2
   3.07341E+2   1.59592E+2
   3.30607E+2   1.76107E+2
   3.11558E+2   2.02132E+2
   3.40287E+2   1.73530E+2
   3.47190E+2   9.86492E+1
   3.61028E+2   1.72308E+2
   3.54783E+2   1.10424E+2
   3.76399E+2   1.61593E+2
   3.74449E+2   1.44669E+2
   3.63352E+2   1.64878E+2
   4.45837E+2   1.74238E+2
   3.82363E+2   1.27342E+2
   3.75314E+2   1.46124E+2
   3.73901E+2   1.44929E+2
   3.45542E+2   2.04051E+2
   3.85182E+2   2.17463E+2
   3.87221E+2   1.24298E+2
