 
 $NMID
 ID=''
 FMTDAT='(2E13.5)'
 TRAMP=   1.00000E+0
 VOLUME=   1.00000E+0
 $END
   1.04378E+2  -4.72796E+2
   1.57745E+3   1.97764E+3
   1.88863E+3  -4.32390E+3
   1.90141E+3  -1.89551E+3
  -3.43561E+2  -2.94876E+3
  -2.19116E+3  -2.88777E+3
  -3.05379E+3   5.89005E+2
  -3.04174E+3   2.15561E+3
  -1.62798E+3  -6.24535E+2
   1.46826E+3  -4.28850E+2
   3.97056E+3  -2.57463E+3
   3.41676E+3  -2.09616E+3
   2.07222E+3  -2.34866E+2
  -1.58813E+3   1.29709E+3
  -1.96231E+3  -1.19049E+3
  -1.41403E+3  -6.75795E+2
  -9.74659E+1  -2.99172E+3
   5.12858E+3  -1.17670E+3
   4.36775E+3   1.43831E+3
   2.48555E+2  -1.11228E+3
   5.52797E+2  -4.56798E+3
   2.11518E+3  -1.99574E+3
   1.57901E+3   2.50119E+3
  -3.84797E+3   1.47999E+2
  -4.25994E+2  -3.46061E+3
   4.61302E+3   1.20097E+3
   4.42118E+2   2.73574E+3
  -3.02380E+3   4.45235E+2
  -4.23871E+3  -5.26878E+3
   9.11771E+2  -6.76152E+3
   7.07430E+3  -1.05137E+3
  -2.17217E+2   5.00519E+3
  -5.23523E+3   5.11373E+3
  -2.75667E+3   8.40838E+1
  -2.02864E+3   1.72617E+3
  -6.88668E+3   1.19406E+3
  -1.94804E+3  -2.59691E+3
   8.41837E+2  -7.81313E+1
  -1.06259E+3   5.97803E+2
  -3.39734E+2   3.08574E+2
   9.26435E+2   4.67612E+3
  -2.87924E+3   6.07017E+3
  -4.95772E+3  -1.66428E+3
  -9.86472E+2  -4.53635E+3
   3.00237E+3  -1.69247E+3
   3.58550E+3   1.62449E+3
   1.42316E+3  -1.51330E+3
   2.90834E+3   1.78811E+3
   2.70697E+3   3.11211E+3
  -2.35072E+3   1.22943E+3
  -1.87718E+3   1.34352E+2
  -2.25323E+3  -3.45097E+3
   6.90203E+2  -3.62872E+3
   4.34056E+2  -5.23042E+2
  -2.80613E+2   2.02482E+3
   1.43250E+3   2.40166E+3
   1.05009E+3   5.17101E+3
  -3.61569E+3   3.48550E+3
  -5.72057E+3  -1.05785E+3
  -3.52465E+3  -2.64066E+3
  -9.67698E+1  -2.45094E+3
   4.06692E+3  -4.43340E+3
   2.65041E+3  -1.26623E+3
   1.28742E+3   2.35374E+3
  -7.35667E+2  -1.21911E+3
   1.26668E+3  -7.55933E+2
   2.44070E+3   1.37719E+2
   2.94931E+2   1.68366E+3
  -2.70116E+3  -1.54030E+3
  -1.60119E+2  -6.24997E+2
  -9.62489E+2   1.48703E+3
  -1.45743E+3   8.02518E+2
  -1.21649E+3   6.32104E+2
  -1.03463E+3   4.53661E+1
  -2.25858E+2  -1.52266E+3
  -1.17821E+3   7.26627E+2
  -9.32052E+2   2.81568E+3
  -8.87657E+2  -5.35706E+2
   1.68222E+3  -2.78629E+3
   5.42805E+2  -9.09750E+2
   4.41883E+2   1.54181E+3
  -4.83448E+2  -1.03646E+3
   1.61258E+3  -1.65536E+3
   3.04185E+3   1.02760E+3
   1.46712E+3   3.29037E+3
  -1.99375E+3   2.74254E+2
  -3.05443E+3  -1.47975E+3
  -8.12613E+2  -4.66345E+3
   2.51118E+3  -2.79761E+3
   1.52867E+3  -4.63096E+2
   8.33296E+2  -1.15396E+3
   1.59793E+3  -1.96263E+3
   4.57786E+3   2.44124E+3
   6.68455E+2   3.03808E+3
  -1.67099E+3   3.09119E+3
  -1.29975E+3  -1.32248E+3
   3.18071E+3  -2.40907E+3
   2.73393E+3  -1.39290E+3
   5.49267E+2   3.69553E+2
  -3.13321E+2   2.29086E+3
  -1.92838E+3  -2.87779E+3
   1.04209E+3  -5.03794E+3
   1.09106E+3  -1.69088E+3
   4.20829E+3   1.73420E+3
   1.29572E+3   2.86077E+3
   5.74128E+2   7.73470E+2
   2.21970E+3   1.91504E+3
  -2.20574E+3   2.76657E+3
  -3.35077E+3   1.57351E+3
  -2.57222E+3  -1.27385E+3
  -5.96903E+2  -4.80647E+3
   1.20863E+3  -4.49381E+3
   8.52671E+2   1.44983E+3
   2.38751E+3   1.94433E+3
   2.43150E+3   2.99937E+3
   1.67446E+3   4.75823E+3
  -1.27240E+3   2.81165E+3
  -2.25424E+3   1.14865E+3
  -2.21261E+2   2.40052E+2
  -1.77348E+3  -2.94936E+2
   1.28255E+3   4.26878E+2
   1.82523E+3   2.58245E+2
  -1.05589E+3   2.18725E+3
  -2.57573E+3  -9.43239E+2
   5.09993E+2   1.92346E+3
   7.66576E+2   5.60582E+2
  -2.14850E+3   1.44652E+3
  -1.29525E+3   8.37484E+2
   8.07010E+2  -9.50380E+2
  -4.19807E+2  -6.26254E+2
  -2.51026E+3  -2.39749E+2
  -2.90383E+3  -1.70216E+2
  -1.42083E+2  -2.12558E+3
   2.77068E+3  -1.08166E+3
   1.01375E+3   2.12282E+3
  -5.99067E+2   4.49842E+3
  -2.01214E+3   7.17563E+2
  -2.33363E+3   4.24493E+2
  -1.56941E+3   4.65950E+2
  -3.77872E+3   1.79004E+3
  -2.13090E+2  -9.16148E+2
  -1.34112E+3  -1.00747E+3
   2.35502E+3   1.90031E+2
   1.04176E+3  -9.18899E+1
  -1.12368E+2   2.80344E+2
  -1.25180E+3  -5.36837E+2
   7.55007E+2  -2.25163E+3
   4.81030E+2   1.28525E+3
   6.18582E+2  -6.02648E+2
   1.18226E+3   2.51345E+2
   1.44144E+3   1.72548E+3
  -3.26279E+3  -1.15891E+3
  -3.35937E+3  -1.95054E+3
  -1.38226E+3  -4.05459E+3
  -8.33362E+2  -2.80177E+3
   9.24215E+2   7.81635E+2
   4.29713E+3  -8.86531E+2
   2.30694E+3   1.23608E+3
   1.24257E+3   1.44690E+3
   2.26168E+3  -4.01464E+1
   1.47676E+3  -8.85489E+2
   1.22198E+3   1.32188E+3
  -2.36445E+3   2.81964E+2
   5.88540E+2  -1.29664E+2
   2.63151E+3  -1.58440E+3
   1.74195E+3  -3.71123E+2
  -2.32777E+3   1.37518E+3
   1.97470E+2  -4.65673E+2
   6.21976E+2  -1.68461E+3
   1.39203E+3  -9.52340E+2
   3.22001E+3   3.23431E+2
  -1.08177E+3  -5.19451E+2
   5.41659E+2   1.27010E+3
  -2.78250E+3   1.59783E+3
  -9.10723E+2   1.64574E+2
  -4.46976E+2  -2.17975E+3
   5.03564E+1  -1.35723E+3
   6.39693E+2  -1.24020E+3
   3.95249E+2  -7.00127E+0
  -2.81428E+2   6.80114E+2
  -7.55404E+2   1.20047E+3
  -1.44533E+3   6.14757E+2
  -1.13002E+3   2.60928E+3
  -5.27974E+1   1.09544E+3
  -5.41197E+2  -1.58550E+3
   1.58344E+3  -7.62023E+2
   2.99429E+3   6.40947E+2
   8.29198E+1  -5.95807E+2
   1.50415E+2   2.14515E+3
  -1.34137E+3   3.59798E+3
  -7.02535E+2  -2.83235E+3
   2.37805E+3   1.44872E+3
   1.37291E+3   2.10065E+3
  -1.06492E+3   2.01070E+3
  -1.06231E+3   1.37327E+3
  -2.02219E+3  -3.57032E+2
   2.24780E+3  -2.17277E+3
  -8.04673E+2  -5.19236E+2
   5.97352E+2  -1.06032E+3
   2.75202E+3  -1.95318E+3
   1.35498E+3   1.80192E+3
   4.03503E+2   2.54137E+3
  -1.36160E+3   1.21240E+3
  -1.10611E+3  -3.27552E+2
   2.78512E+2  -2.28357E+3
   9.36200E+2  -7.49361E+2
   5.13518E+2  -1.67956E+3
   1.85334E+3  -3.65949E+1
   2.27098E+2  -9.36589E+2
  -8.57054E+2  -1.40129E+3
   6.33646E+2  -6.36331E+2
  -3.15433E+3  -2.62436E+2
  -2.79347E+3  -1.09476E+3
   1.12382E+3  -3.06658E+3
   1.01698E+3   3.13145E+2
  -1.66221E+2   3.82248E+1
   5.72722E+2  -2.74008E+2
   2.33132E+3  -6.76453E+2
   1.04780E+3  -9.84749E+2
  -1.04857E+3  -2.26593E+3
  -8.23745E+2  -6.97436E+2
   1.85890E+3  -8.03562E+2
   1.29310E+3  -1.12413E+3
   2.35126E+3  -1.54302E+3
  -6.31936E+2   2.01423E+3
  -7.69220E+2   3.62644E+2
  -1.06775E+3  -2.15864E+3
   4.24256E+2  -1.65957E+3
   2.89822E+3  -4.57664E+2
  -6.49931E+2  -2.75108E+2
  -2.57854E+2  -1.48464E+3
   3.84148E+2   5.48171E+2
  -1.59571E+3   5.86401E+2
  -2.02579E+3   7.73733E+2
  -1.13130E+3  -2.27917E+3
  -1.04896E+3  -2.35916E+3
   2.42745E+3  -2.57789E+3
   7.96368E+2   5.94789E+2
   5.99552E+2   1.50370E+3
  -4.64448E+2  -8.14091E+2
  -2.50809E+3  -1.60664E+3
  -9.17705E+2   6.79217E+2
   2.98063E+3  -2.95886E+2
  -1.47260E+3   8.48077E+2
  -1.10132E+3  -7.72163E+2
   1.98962E+3  -4.17114E+2
  -8.77229E+1   9.86684E+2
   6.88025E+2   3.50817E+2
  -1.03736E+3   1.15968E+3
  -2.55685E+2  -3.05917E+3
   5.79485E+2  -1.90044E+3
   1.16314E+3   9.90069E+2
  -2.43526E+2   4.37407E+3
  -1.03424E+3  -8.54725E+2
  -1.32640E+3   1.23409E+3
  -2.16910E+3   1.03948E+3
  -2.15465E+1  -6.81788E+1
   7.76347E+2  -2.34137E+3
   9.58913E+2  -1.61009E+2
   1.59781E+3   5.57319E+2
  -1.40668E+3  -3.72344E+2
  -5.87954E+2   3.01421E+3
  -1.37295E+3   4.00109E+2
  -9.12511E+2  -1.48580E+3
   9.84008E+2   1.39562E+3
  -1.20685E+3   6.35227E+2
  -1.51516E+3  -1.85490E+3
  -2.31546E+2   7.55908E+2
   1.82773E+3   1.29137E+2
  -2.13408E+2   1.03043E+3
  -3.23505E+3   1.31244E+3
  -2.69756E+3  -7.22599E+2
  -8.24732E+2  -2.05737E+2
   2.51633E+2   7.32579E+2
  -5.26652E+2   1.17913E+3
   5.55290E+2   2.51879E+3
  -8.77765E+2   1.08341E+3
   1.28329E+3  -1.45770E+3
   1.42325E+3   1.09803E+2
  -1.98975E+3  -5.72793E+2
   1.20387E+2  -1.47186E+3
   1.10673E+3  -1.47410E+3
   6.26106E+2   2.87336E+3
  -4.80158E+2   3.13300E+2
  -9.76225E+2   9.31658E+2
  -9.76500E+1   1.51163E+2
   1.09418E+3  -5.55795E+2
   1.72697E+3  -1.42527E+2
   2.31683E+3   9.62700E+0
   1.15133E+2  -3.57287E+0
  -9.56250E+2  -1.20714E+3
  -9.50606E+2  -6.78861E+2
  -1.02237E+3   4.81952E+2
   1.71095E+3   7.18453E+2
  -1.67019E+2   2.67666E+3
   2.40157E+2  -1.44903E+3
   5.20428E+2   3.31486E+2
  -3.67899E+2   1.41172E+3
  -2.18511E+3  -1.04778E+3
  -3.14711E+3  -3.72938E+2
  -1.35277E+2  -2.31651E+2
  -1.38515E+3   2.03688E+3
   1.38029E+2  -8.32676E+2
   1.68722E+2  -9.11686E+2
  -6.60878E+2   2.25194E+3
   6.88403E+2   9.00867E+2
  -9.64348E+1   1.43778E+3
  -1.13578E+2  -1.58813E+3
   3.03935E+2   5.38044E+2
   2.91217E+3  -6.68352E+2
   1.32216E+3   1.06939E+3
   2.29702E+3   7.39092E+2
  -1.13771E+3  -1.57487E+2
   9.80622E+2   3.90916E+1
   1.33194E+2  -1.12989E+3
  -2.81157E+2   8.08907E+2
   1.80808E+2  -9.87306E+2
   1.07188E+3  -1.24686E+3
   1.95222E+3   1.82747E+2
   1.52954E+2   1.94448E+3
  -7.06206E+2  -3.75232E+2
  -2.02947E+3  -8.03144E+2
   1.46835E+3   7.43775E+1
   1.20744E+3   2.31956E+2
  -9.86572E+1   1.07778E+3
   5.53290E+2  -7.68471E+1
   1.70896E+3   9.77317E+2
  -4.24756E+1   2.24731E+3
  -1.53530E+2   1.35834E+3
  -1.70123E+3  -6.13765E+2
  -5.21979E+2  -6.03452E+2
   8.12324E+2   9.44334E+2
   1.35518E+3   1.76839E+3
   1.35754E+2  -1.94214E+3
  -4.17934E+2   1.13797E+3
   3.27720E+2   5.07012E+2
  -4.35765E+2   3.25805E+3
  -5.78198E+2   9.88052E+2
  -3.29275E+2   1.46407E+3
   2.80702E+3  -5.73769E+2
   2.37268E+3   7.70981E+2
  -1.77002E+2  -7.23631E+2
   8.31354E+2  -3.20632E+2
  -6.48048E+2  -1.92783E+3
  -8.97624E+2   1.25042E+3
   5.92006E+2  -1.80929E+2
   5.18600E+2   5.24886E+2
   8.95910E+2  -3.82895E+2
  -3.38057E+2   1.60527E+3
   5.04966E+2  -3.86896E+2
   1.86478E+3   3.65160E+2
   9.00635E+2   1.03828E+3
  -3.46804E+2  -5.37555E+2
  -7.82232E+2  -1.75748E+2
   2.31161E+3   2.71396E+2
  -9.25562E+2   3.06174E+3
   1.07264E+3   9.39325E+2
  -1.52402E+3   9.22012E+2
  -8.30062E+1   2.02827E+2
   2.09814E+2   9.36825E+2
  -1.70286E+3  -2.35263E+2
   1.14671E+3   4.60179E+2
  -1.70983E+2  -7.38360E+2
   3.01413E+3  -6.88101E+2
   4.15406E+2  -1.01139E+3
  -2.30679E+1   7.97431E+2
  -2.65016E+1  -1.81022E+3
