 
 $NMID
 ID=''
 FMTDAT='(2E13.5)'
 TRAMP=   1.00000E+0
 VOLUME=   1.00000E+0
 $END
  -1.90218E+2  -9.80591E+2
   1.40950E+3   5.81932E+2
  -4.67703E+3  -2.40502E+3
   1.23848E+2   3.56981E+3
  -1.14089E+2   4.07536E+3
   3.18123E+3   1.95840E+2
   4.89129E+3   9.67485E+2
   1.50599E+3  -1.73591E+3
   2.08275E+1  -2.16822E+3
   8.68704E+2  -1.61182E+3
  -1.02381E+3  -1.41509E+3
   6.51732E+2  -5.80135E+3
   1.01333E+3  -1.89612E+2
   8.13775E+1   3.16447E+3
  -3.03601E+3   1.81971E+3
  -3.02811E+3  -1.37360E+3
   2.41810E+2  -8.48346E+2
   8.18248E+2  -3.52165E+2
   2.21826E+3   2.75364E+3
  -9.50361E+2   7.89139E+1
   1.46213E+2  -2.88241E+3
   2.98630E+3   2.12708E+3
  -2.74704E+3   3.09729E+3
  -2.41348E+3   1.24905E+3
   1.42604E+3  -2.20234E+3
   2.59921E+3   1.33644E+3
  -3.96948E+2   2.58736E+3
   1.77819E+2  -2.68321E+2
  -2.54226E+3  -1.60867E+3
  -1.93456E+3  -2.29281E+3
   4.55461E+3  -1.97210E+3
   1.46417E+3   4.04552E+3
  -2.64751E+3   3.02066E+3
  -2.68471E+3  -1.16169E+3
  -5.15947E+2   1.36939E+3
  -5.60086E+3   1.66080E+3
  -3.36984E+3  -1.22499E+3
   1.46764E+3  -3.08651E+2
   1.84908E+3   6.57912E+2
   1.89996E+3   1.70335E+3
   1.58733E+3   3.02029E+3
   1.18914E+1   4.42260E+3
  -1.15042E+3   7.07168E+2
   2.74613E+3  -3.88466E+3
   5.70124E+3  -1.44781E+3
   5.00943E+3   8.60224E+2
   4.27145E+3   1.73637E+2
   2.06207E+3  -4.64252E+2
   1.13510E+3  -1.14774E+3
   3.04230E+2   1.41153E+2
  -9.36823E+2  -2.00874E+3
  -2.49453E+3  -6.17434E+3
   3.45514E+3  -4.58407E+3
   2.04392E+3  -1.69965E+3
  -2.13167E+2  -9.82339E+2
   1.60460E+3  -1.18968E+3
  -2.84350E+2   1.01117E+3
  -5.06505E+3   5.32502E+2
  -5.71631E+3  -2.93959E+3
  -7.88899E+2  -2.97387E+3
   2.37479E+3  -1.52330E+3
   1.35263E+3   8.22870E+2
  -1.06891E+3   3.72750E+3
  -3.22409E+3   3.76465E+3
  -2.32557E+3   1.95611E+3
  -5.22114E+1   5.79729E+2
  -2.05768E+3   2.11024E+3
  -5.58927E+3   3.91867E+3
  -2.62279E+3   5.22937E+1
  -3.24834E+3  -1.13559E+3
  -4.53689E+2  -5.17339E+2
  -2.74534E+2  -6.47631E+0
  -1.01819E+2  -1.44079E+3
   2.12542E+2  -2.49688E+3
   1.22175E+3  -1.70972E+3
   9.86629E+2   1.38117E+3
   1.46353E+3   2.14280E+2
  -9.78745E+1  -3.60374E+2
   1.98088E+3   7.24725E+2
   2.04145E+3   3.02679E+3
  -1.05545E+2   1.07996E+3
  -1.36843E+3   2.49043E+3
   8.48578E+2   2.65815E+3
   7.12579E+1   2.06153E+3
  -2.82379E+3   1.07685E+3
  -3.61190E+3   3.66323E+2
  -4.11098E+3  -5.39876E+3
   3.06462E+3  -3.20121E+3
   2.12706E+3  -9.33522E+2
  -1.65623E+2   3.19819E+3
  -7.71372E+2  -6.05416E+2
   1.71189E+3   1.22368E+3
   6.91466E+2   2.25077E+3
  -1.79070E+3   3.33436E+3
  -1.74002E+3  -8.39982E+2
   3.37179E+2  -3.39365E+3
   2.90035E+3  -2.45611E+3
   3.69178E+3   2.72854E+2
  -3.53916E+3   2.11988E+3
  -2.87652E+3  -1.51267E+3
   2.14641E+3  -3.96108E+3
   2.98611E+3  -7.89055E+2
   4.27304E+3   4.85119E+1
  -2.28747E+2   1.90311E+3
  -8.32377E+2  -3.71743E+1
   1.34202E+3  -3.71496E+3
  -6.91812E+2  -2.94346E+3
   2.04556E+2  -2.18442E+3
  -1.42760E+3  -4.88163E+3
  -3.76207E+2  -2.75818E+3
   4.29677E+3  -6.13624E+2
   2.42878E+3  -2.15881E+2
   1.24168E+3   1.40304E+3
   4.77878E+2   2.65460E+3
   5.92534E+2   2.52465E+3
  -2.15574E+3   1.81056E+3
   7.08859E+2  -6.88909E+2
   1.76640E+3  -1.62767E+3
   1.49127E+3  -6.27531E+2
   2.84133E+3  -7.15395E+2
   3.24914E+2   2.63846E+3
  -2.17779E+3   6.89786E+2
  -6.78852E+2  -1.42966E+3
   1.81814E+3   1.19522E+3
   2.93485E+3   1.34328E+3
   8.07924E+2  -4.36417E+2
   1.25038E+3   1.76393E+3
   6.10343E+2   1.30133E+3
  -6.53802E+2   1.93680E+3
  -1.22236E+3  -1.08108E+3
  -1.13373E+3  -3.46518E+2
  -5.67347E+2   9.56426E+2
   3.88782E+3   2.17197E+3
  -1.40535E+3   2.91770E+3
  -3.63237E+3   1.57329E+3
  -7.31836E+2  -1.55091E+3
   5.02588E+2  -5.75416E+2
   3.97343E+1   1.48372E+2
  -1.49446E+3  -1.03167E+3
  -5.99038E+2   3.13652E+2
  -8.55149E+2  -1.65538E+3
   4.24139E+2  -4.72451E+2
   2.55383E+3   1.54174E+3
  -1.37835E+3   1.71678E+3
  -4.98564E+2   5.94465E+1
  -1.44605E+3   7.97339E+2
  -5.92060E+2   4.65806E+2
  -1.48050E+2  -1.81605E+2
  -1.36241E+2   1.14859E+3
  -1.16831E+3  -6.09722E+2
  -1.69109E+3   2.10484E+2
  -6.63236E+2  -3.63265E+3
  -6.33541E+1  -9.06317E+2
   4.61832E+2   3.53247E+2
   1.04731E+3   7.83940E+2
  -1.09661E+3   9.24981E+2
  -1.71447E+3   1.14588E+3
  -8.35544E+2  -1.78052E+2
  -1.12227E+2  -5.54318E+2
  -5.86852E+1  -5.58607E+1
  -1.18642E+3  -1.26903E+2
  -2.88547E+3   9.74945E+1
   3.51412E+2   2.63576E+2
  -4.14525E+1  -2.70365E+3
  -1.45262E+2   9.85501E+2
  -1.30952E+3   8.90739E+2
   9.08789E+2  -5.09057E+2
  -6.86654E+2   2.43603E+2
   1.52582E+3   4.55667E+2
  -1.71798E+2  -2.38951E+2
  -2.72640E+1   1.74799E+2
  -6.11677E+2  -1.22967E+3
   1.25988E+3  -2.76122E+2
  -2.91977E+2   6.63260E+2
  -4.68416E+2   4.05261E+2
  -1.53763E+3   1.97928E+3
  -1.96710E+3  -5.00866E+2
  -1.93071E+3   7.26141E+1
  -1.82582E+3   2.43168E+3
  -2.06443E+3  -6.97081E+2
  -1.15563E+3  -3.46969E+2
   9.95009E+2   8.28307E+1
   1.60275E+2  -4.98786E+2
   1.76091E+2   8.11283E+1
   9.02979E+2  -1.48842E+3
   8.34743E+2   1.51952E+2
  -9.27739E+2   2.90237E+2
  -1.24854E+3  -2.54460E+2
   1.25779E+3  -6.37853E+2
   9.80383E+2  -1.65518E+3
   4.20790E+2   7.49389E+2
   2.66126E+3  -2.60842E+2
   3.17303E+2   3.63406E+2
  -5.75794E+2   1.60023E+3
   8.62803E+2  -5.23744E+2
  -2.59449E+2   1.27748E+3
   1.80007E+2   8.15145E+1
  -1.52053E+3   7.05734E+2
  -2.69617E+3  -6.60033E+2
   8.55773E+2   1.15322E+3
  -4.19298E+2   1.56282E+3
   1.11547E+3  -5.84414E+2
   5.16265E+2   3.22469E+2
  -5.65584E+1  -9.67727E+2
   1.58488E+3   5.60811E+2
  -4.07481E+2  -6.90330E+2
  -3.67260E+2   5.89880E+2
   9.02086E+2  -1.52599E+3
   2.14669E+3   4.71421E+2
   6.48434E+2  -5.88642E+2
  -1.93408E+3  -1.01291E+3
  -5.42183E+2  -1.59348E+2
  -1.04734E+3  -3.73609E+3
   2.05242E+3  -8.84118E+2
   9.14869E+2   5.49199E+2
  -7.05866E+2   1.08334E+3
  -2.33591E+0  -7.72430E+2
   9.73497E+1  -1.94147E+2
   2.16923E+3  -5.64630E+2
  -3.42954E+3  -3.31146E+2
   1.11103E+3  -2.52087E+3
  -1.24118E+2  -5.44091E+2
  -8.91399E+2   7.56979E+2
   3.83763E+2  -1.38094E+3
   2.08188E+3  -3.19260E+2
   3.44728E+2   3.12351E+2
   1.91288E+3   4.71539E+2
   6.60255E+2   1.40072E+3
   1.18199E+3   1.87079E+3
  -8.47698E+1  -4.93077E+2
   7.93384E+2   7.05917E+1
   1.65970E+3   2.23927E+2
  -2.36701E+2  -1.62580E+3
  -4.14990E+2  -6.90627E+2
   5.71941E+2   1.87191E+2
   9.26613E+2  -4.78199E+1
   8.00557E+2   1.14108E+3
   9.31467E+2  -3.14722E+2
  -3.37557E+2  -8.99684E+2
  -2.17378E+2   1.43295E+3
   9.95910E+2  -9.04506E+2
   3.95409E+2   3.18815E+2
   5.69412E+2  -4.61931E+2
  -6.23922E+2  -1.72537E+2
   9.17768E+1  -1.08412E+2
  -1.00106E+3  -1.44509E+3
  -1.59931E+3  -4.61963E+2
   3.53874E+2  -1.01696E+3
   8.69967E+2   1.75311E+3
  -2.20531E+2   8.65577E+2
   5.44349E+2   1.51025E+3
   4.36255E+2  -2.98540E+2
  -1.73967E+3  -5.75017E+2
  -1.28013E+3  -1.21674E+3
   9.16081E+2   3.32277E+2
  -2.70658E+2   2.69121E+2
   2.79399E+2  -2.44223E+3
   6.89116E+2  -2.60359E+2
  -3.02182E+2   5.83708E+2
   7.38074E+2   7.84419E+2
   1.49457E+3  -1.03243E+3
   2.64855E+2  -2.95027E+2
   5.34648E+2   8.82618E+2
   3.96833E+2   1.70566E+3
   1.30506E+3   7.60101E+2
  -9.63668E+2   6.59494E+2
  -7.82553E+2  -1.45899E+3
  -1.34580E+3   2.97582E+2
  -1.64572E+3  -3.34736E+2
  -1.32011E+2   4.81983E+2
   2.69420E+3   1.13939E+3
   5.35716E+1  -5.13784E+2
   1.12767E+3   5.45114E+2
  -6.34372E+1   1.26792E+3
  -1.36034E+2  -2.24054E+3
   7.22973E+2   9.16836E+2
   2.18614E+3   1.37911E+3
   5.34810E+2  -8.42225E+1
   8.51746E+2  -9.12958E+2
  -6.18211E+2  -8.30771E+2
  -8.95652E+2   2.60400E+1
  -1.27846E+3   8.73908E+2
   1.91989E+3   2.15817E+3
   6.32568E+2   4.32254E+1
   5.83969E+2   9.51760E+2
  -3.43705E+2  -1.83120E+2
   1.85341E+2  -1.02137E+3
  -3.15552E+2   2.21487E+3
   4.90444E+2   7.00060E+1
   6.85747E+2   6.37412E+2
   2.03452E+3   1.15091E+3
   4.04010E+1   1.54206E+3
   5.28880E+2   1.88754E+3
  -1.14716E+3  -7.17999E+2
   1.16086E+2   9.02835E+1
  -9.77281E+1   3.67957E+2
  -4.55431E+2   2.49138E+3
  -1.30058E+3   4.92108E+2
   8.82240E+2   2.33877E+2
   8.29319E+2   9.86271E+2
  -2.07345E+3  -2.44249E+2
  -9.02005E+2  -2.77890E+2
   1.12930E+3   7.40871E+1
   5.24055E+1   1.92462E+3
  -6.96377E+2  -1.19953E+3
   4.12835E+2   1.31551E+3
   4.31272E+2  -6.12911E+2
   3.05980E+2   1.49330E+3
   1.32458E+2  -1.17952E+3
   2.90770E+1  -1.53273E+3
  -1.56435E+2   1.91093E+2
  -1.80391E+3   1.94439E+2
  -1.75307E+2   2.48202E+2
   1.30265E+3  -1.65745E+1
  -8.84787E+2   3.21253E+2
  -1.21450E+3   5.35320E+2
  -2.87799E+2  -1.83426E+3
   4.01913E+2  -9.75651E+2
  -3.83929E+2   6.78986E+2
  -9.72338E+2  -3.30778E+3
   9.15510E+1   2.33070E+2
  -6.81661E+2   1.43305E+3
   4.76840E+2   5.18935E+1
   2.18077E+2   1.07123E+3
  -5.48793E+2  -2.26556E+2
   6.24181E+2  -6.65089E+1
  -1.01574E+3  -7.77484E+1
  -1.10055E+3   2.51012E+2
  -2.25076E+3   1.86214E+3
   1.75145E+3  -6.23848E+2
  -9.59273E+2   9.22484E+2
  -8.97888E+2  -3.96528E+2
   1.27727E+3  -4.23680E+2
   1.78602E+3   5.70811E+2
  -3.34636E+3  -1.29125E+3
  -1.01168E+2  -4.27516E+2
  -5.75809E+2  -6.71715E+2
  -7.33896E+2  -4.76101E+2
   2.26339E+2   5.10027E+1
  -1.22303E+3  -4.67985E+2
  -8.06783E+2   2.09825E+2
  -2.31704E+2   1.24448E+3
  -6.78597E+1  -7.76283E+1
  -2.04150E+2   2.41730E+2
   9.29258E+2   2.50792E+2
  -1.61505E+3  -1.79665E+3
   5.18247E+2   1.02139E+2
  -1.99518E+3  -1.00625E+3
  -1.59985E+3  -5.16023E+2
  -1.37028E+2   1.37144E+3
   5.13437E+2  -3.18319E+1
   1.21696E+3  -6.65201E+2
  -1.07182E+3  -1.17373E+3
  -9.55696E+2   7.24807E+2
   1.56777E+2  -9.26792E+2
  -2.35540E+2  -9.25556E+2
   8.72265E+2  -1.68618E+3
  -5.78679E+2  -7.47072E+2
  -5.87198E+2  -1.29923E+3
  -6.89002E+2   9.51391E+1
   4.51777E+1   1.21026E+3
  -1.02911E+3  -8.05045E+2
  -3.29007E+3   1.12426E+3
   8.68941E+2  -3.11944E+1
  -1.81822E+3   1.66209E+3
   1.38249E+3   1.98880E+2
   8.94766E+2  -8.84239E+2
