 
 $NMID
 ID=''
 FMTDAT='(2E13.5)'
 TRAMP=   1.00000E+0
 VOLUME=   1.00000E+0
 $END
  -2.08668E+4   6.52491E+3
  -5.62953E+4   4.97762E+2
  -5.51276E+4   9.94985E+3
  -5.07819E+4   8.78516E+3
  -5.30657E+4   7.34559E+3
  -5.26899E+4   9.43933E+3
  -5.08342E+4   8.38940E+3
  -5.18320E+4   7.22531E+3
  -5.15805E+4   8.39485E+3
  -5.03848E+4   7.58875E+3
  -5.07793E+4   6.79265E+3
  -5.05100E+4   7.70193E+3
  -4.95508E+4   7.20458E+3
  -4.99658E+4   6.36503E+3
  -4.96132E+4   6.62297E+3
  -4.88950E+4   6.21581E+3
  -4.91000E+4   5.47503E+3
  -4.89048E+4   5.61116E+3
  -4.82623E+4   5.27956E+3
  -4.83747E+4   4.60102E+3
  -4.80779E+4   4.62652E+3
  -4.74241E+4   4.35365E+3
  -4.75827E+4   3.87343E+3
  -4.73685E+4   3.66891E+3
  -4.66681E+4   3.19463E+3
  -4.66597E+4   2.80838E+3
  -4.63300E+4   2.70733E+3
  -4.58605E+4   2.14697E+3
  -4.55649E+4   1.63357E+3
  -4.52228E+4   1.56589E+3
  -4.47497E+4   1.33998E+3
  -4.45750E+4   9.91319E+2
  -4.43109E+4   7.63466E+2
  -4.37282E+4   4.44436E+2
  -4.35222E+4   2.29559E+2
  -4.31640E+4   1.69273E+2
  -4.26704E+4  -1.13903E+2
  -4.23233E+4  -2.36522E+2
  -4.20241E+4  -3.42127E+2
  -4.15954E+4  -5.54642E+2
  -4.13295E+4  -7.46394E+2
  -4.10317E+4  -9.64386E+2
  -4.05930E+4  -1.29363E+3
  -4.01505E+4  -1.52076E+3
  -3.98517E+4  -1.63685E+3
  -3.94483E+4  -1.79639E+3
  -3.92417E+4  -2.02399E+3
  -3.88877E+4  -2.18570E+3
  -3.84790E+4  -2.32779E+3
  -3.81735E+4  -2.56693E+3
  -3.78616E+4  -2.73051E+3
  -3.74039E+4  -2.85119E+3
  -3.70879E+4  -2.99854E+3
  -3.67282E+4  -3.16085E+3
  -3.64825E+4  -3.36060E+3
  -3.60819E+4  -3.44180E+3
  -3.58115E+4  -3.54983E+3
  -3.55069E+4  -3.67948E+3
  -3.50748E+4  -3.85795E+3
  -3.47175E+4  -4.03549E+3
  -3.44594E+4  -4.14910E+3
  -3.42281E+4  -4.22075E+3
  -3.39973E+4  -4.25638E+3
  -3.36802E+4  -4.37398E+3
  -3.33729E+4  -4.53671E+3
  -3.31129E+4  -4.57779E+3
  -3.29201E+4  -4.63292E+3
  -3.26125E+4  -4.80220E+3
  -3.23977E+4  -4.90549E+3
  -3.21534E+4  -5.07784E+3
  -3.19693E+4  -5.15801E+3
  -3.17134E+4  -5.26673E+3
  -3.14848E+4  -5.38889E+3
  -3.13092E+4  -5.54184E+3
  -3.10285E+4  -5.62750E+3
  -3.08044E+4  -5.73238E+3
  -3.06547E+4  -5.83248E+3
  -3.03912E+4  -6.00680E+3
  -3.01892E+4  -6.04938E+3
  -2.99710E+4  -6.22073E+3
  -2.97683E+4  -6.30998E+3
  -2.96075E+4  -6.39465E+3
  -2.93508E+4  -6.56801E+3
  -2.91609E+4  -6.69821E+3
  -2.89939E+4  -6.81112E+3
  -2.87588E+4  -6.96659E+3
  -2.84754E+4  -7.19251E+3
  -2.82048E+4  -7.38611E+3
  -2.80110E+4  -7.46018E+3
  -2.78341E+4  -7.59985E+3
  -2.76593E+4  -7.61191E+3
  -2.73967E+4  -7.73971E+3
  -2.72360E+4  -7.79967E+3
  -2.69696E+4  -7.97169E+3
  -2.68195E+4  -8.17471E+3
  -2.65524E+4  -8.25006E+3
  -2.63443E+4  -8.30344E+3
  -2.62101E+4  -8.41272E+3
  -2.59746E+4  -8.64624E+3
  -2.58228E+4  -8.73320E+3
  -2.55091E+4  -8.79196E+3
  -2.53323E+4  -8.90025E+3
  -2.51119E+4  -8.97885E+3
  -2.49235E+4  -9.04084E+3
  -2.47157E+4  -9.15883E+3
  -2.45187E+4  -9.30163E+3
  -2.42996E+4  -9.35291E+3
  -2.41355E+4  -9.43662E+3
  -2.39072E+4  -9.57134E+3
  -2.36863E+4  -9.56931E+3
  -2.33797E+4  -9.58873E+3
  -2.31861E+4  -9.62073E+3
  -2.30865E+4  -9.69736E+3
  -2.29089E+4  -9.75110E+3
  -2.27991E+4  -9.83381E+3
  -2.24987E+4  -9.87973E+3
  -2.23358E+4  -9.88446E+3
  -2.22113E+4  -1.00348E+4
  -2.19968E+4  -1.00263E+4
  -2.18018E+4  -1.01151E+4
  -2.16068E+4  -1.01099E+4
  -2.15126E+4  -1.01665E+4
  -2.12963E+4  -1.02059E+4
  -2.10774E+4  -1.02400E+4
  -2.09827E+4  -1.02827E+4
  -2.07290E+4  -1.03338E+4
  -2.06412E+4  -1.03419E+4
  -2.05209E+4  -1.03642E+4
  -2.02551E+4  -1.04002E+4
  -2.01674E+4  -1.04190E+4
  -1.99713E+4  -1.04065E+4
  -1.96981E+4  -1.04205E+4
  -1.96236E+4  -1.04390E+4
  -1.95155E+4  -1.04363E+4
  -1.93065E+4  -1.05381E+4
  -1.90864E+4  -1.05583E+4
  -1.89766E+4  -1.04946E+4
  -1.87608E+4  -1.05105E+4
  -1.85542E+4  -1.03795E+4
  -1.84640E+4  -1.04622E+4
  -1.83272E+4  -1.03959E+4
  -1.80997E+4  -1.04212E+4
  -1.79928E+4  -1.03293E+4
  -1.77390E+4  -1.04044E+4
  -1.76335E+4  -1.03357E+4
  -1.74808E+4  -1.03539E+4
  -1.73228E+4  -1.02672E+4
  -1.71249E+4  -1.02852E+4
  -1.69408E+4  -1.02757E+4
  -1.68120E+4  -1.01579E+4
  -1.67262E+4  -1.01049E+4
  -1.65225E+4  -1.01199E+4
  -1.63513E+4  -1.00771E+4
  -1.62175E+4  -1.00495E+4
  -1.59912E+4  -9.91871E+3
  -1.59249E+4  -9.87677E+3
  -1.58007E+4  -9.80429E+3
  -1.55619E+4  -9.76170E+3
  -1.54850E+4  -9.76646E+3
  -1.53004E+4  -9.66895E+3
  -1.51666E+4  -9.72153E+3
  -1.50237E+4  -9.66867E+3
  -1.47518E+4  -9.59392E+3
  -1.46652E+4  -9.45455E+3
  -1.45648E+4  -9.44298E+3
  -1.43880E+4  -9.38421E+3
  -1.41651E+4  -9.21709E+3
  -1.39863E+4  -9.24517E+3
  -1.39204E+4  -9.09920E+3
  -1.38023E+4  -9.11164E+3
  -1.36478E+4  -9.01280E+3
  -1.34485E+4  -8.95670E+3
  -1.33562E+4  -8.89956E+3
  -1.30836E+4  -8.80415E+3
  -1.30969E+4  -8.71794E+3
  -1.29038E+4  -8.67886E+3
  -1.27444E+4  -8.58452E+3
  -1.26984E+4  -8.54572E+3
  -1.25354E+4  -8.43272E+3
  -1.23820E+4  -8.39729E+3
  -1.22759E+4  -8.30606E+3
  -1.20810E+4  -8.20772E+3
  -1.19615E+4  -8.16915E+3
  -1.18506E+4  -8.08445E+3
  -1.17378E+4  -7.97999E+3
  -1.15790E+4  -7.90082E+3
  -1.14346E+4  -7.82170E+3
  -1.13992E+4  -7.74193E+3
  -1.12473E+4  -7.72084E+3
  -1.11638E+4  -7.61126E+3
  -1.09865E+4  -7.45580E+3
  -1.09083E+4  -7.42786E+3
  -1.07603E+4  -7.40206E+3
  -1.06584E+4  -7.29300E+3
  -1.04858E+4  -7.20683E+3
  -1.04081E+4  -7.15442E+3
  -1.02501E+4  -7.01475E+3
  -1.01987E+4  -7.04175E+3
  -1.01106E+4  -6.84405E+3
  -1.00112E+4  -6.83813E+3
  -9.90891E+3  -6.78058E+3
  -9.80129E+3  -6.67333E+3
  -9.65968E+3  -6.64524E+3
  -9.53731E+3  -6.50474E+3
  -9.47294E+3  -6.46618E+3
  -9.39796E+3  -6.34446E+3
  -9.32029E+3  -6.30360E+3
  -9.23576E+3  -6.22923E+3
  -9.14520E+3  -6.19940E+3
  -9.12580E+3  -6.13349E+3
  -8.95755E+3  -6.07845E+3
  -8.88250E+3  -6.04583E+3
  -8.78642E+3  -5.89881E+3
  -8.73214E+3  -5.82494E+3
  -8.57764E+3  -5.81445E+3
  -8.56411E+3  -5.77267E+3
  -8.45358E+3  -5.66662E+3
  -8.34779E+3  -5.62302E+3
  -8.24181E+3  -5.56047E+3
  -8.24360E+3  -5.46642E+3
  -8.18792E+3  -5.44290E+3
  -8.08572E+3  -5.38404E+3
  -8.02482E+3  -5.37387E+3
  -7.96756E+3  -5.28652E+3
  -7.83771E+3  -5.20380E+3
  -7.77968E+3  -5.13435E+3
  -7.72736E+3  -5.02813E+3
  -7.63444E+3  -5.00817E+3
  -7.56944E+3  -4.99185E+3
  -7.46395E+3  -4.95310E+3
  -7.42034E+3  -4.91834E+3
  -7.35665E+3  -4.90049E+3
  -7.29768E+3  -4.85156E+3
  -7.20235E+3  -4.83199E+3
  -7.15279E+3  -4.70876E+3
  -7.16895E+3  -4.71500E+3
  -7.08231E+3  -4.69259E+3
  -6.93478E+3  -4.61299E+3
  -6.87209E+3  -4.49209E+3
  -6.84816E+3  -4.51269E+3
  -6.81473E+3  -4.42368E+3
  -6.75153E+3  -4.40388E+3
  -6.68746E+3  -4.40100E+3
  -6.55810E+3  -4.37334E+3
  -6.53630E+3  -4.37016E+3
  -6.54049E+3  -4.32044E+3
  -6.43868E+3  -4.26561E+3
  -6.43075E+3  -4.24699E+3
  -6.31340E+3  -4.16013E+3
  -6.27868E+3  -4.12332E+3
  -6.26107E+3  -4.10289E+3
  -6.21820E+3  -4.08886E+3
  -6.12239E+3  -4.06718E+3
  -6.05210E+3  -4.00701E+3
  -6.04647E+3  -3.98919E+3
  -5.95408E+3  -3.94135E+3
  -5.94225E+3  -3.83571E+3
  -5.88165E+3  -3.87617E+3
  -5.79553E+3  -3.87747E+3
  -5.75818E+3  -3.82486E+3
  -5.83840E+3  -3.90258E+3
  -5.70000E+3  -3.76830E+3
  -5.69524E+3  -3.73152E+3
  -5.72362E+3  -3.71400E+3
  -5.60606E+3  -3.67985E+3
  -5.59563E+3  -3.63493E+3
  -5.58566E+3  -3.58651E+3
  -5.48747E+3  -3.59135E+3
  -5.45871E+3  -3.54890E+3
  -5.37615E+3  -3.55393E+3
  -5.34234E+3  -3.50678E+3
  -5.35368E+3  -3.45933E+3
  -5.29508E+3  -3.43548E+3
  -5.27596E+3  -3.41273E+3
  -5.23663E+3  -3.42141E+3
  -5.18168E+3  -3.32845E+3
  -5.21122E+3  -3.36348E+3
  -5.08863E+3  -3.36867E+3
  -5.09306E+3  -3.30571E+3
  -5.05438E+3  -3.30644E+3
  -5.02483E+3  -3.26940E+3
  -4.98519E+3  -3.23769E+3
  -4.99944E+3  -3.25344E+3
  -5.04440E+3  -3.20578E+3
  -4.90259E+3  -3.13360E+3
  -4.82720E+3  -3.10377E+3
  -4.87177E+3  -3.10794E+3
  -4.79348E+3  -3.07317E+3
  -4.75736E+3  -3.11604E+3
  -4.77067E+3  -3.03553E+3
  -4.69965E+3  -3.10674E+3
  -4.64368E+3  -2.98975E+3
  -4.68820E+3  -3.02627E+3
  -4.58578E+3  -2.97913E+3
  -4.63611E+3  -2.97482E+3
  -4.56366E+3  -2.91482E+3
  -4.50268E+3  -2.97816E+3
  -4.54484E+3  -2.87970E+3
  -4.50731E+3  -2.94506E+3
  -4.52585E+3  -2.90387E+3
  -4.51264E+3  -2.84490E+3
  -4.47919E+3  -2.84143E+3
  -4.38953E+3  -2.85141E+3
  -4.40414E+3  -2.89623E+3
  -4.37051E+3  -2.78068E+3
  -4.42678E+3  -2.82271E+3
  -4.30419E+3  -2.74801E+3
  -4.28324E+3  -2.80301E+3
  -4.27053E+3  -2.78301E+3
  -4.20445E+3  -2.74439E+3
  -4.26808E+3  -2.75965E+3
  -4.20167E+3  -2.76105E+3
  -4.23567E+3  -2.68688E+3
  -4.08653E+3  -2.67733E+3
  -4.11897E+3  -2.62861E+3
  -4.11416E+3  -2.66532E+3
  -4.12690E+3  -2.67187E+3
  -4.05851E+3  -2.59341E+3
  -3.97412E+3  -2.64308E+3
  -4.01894E+3  -2.61132E+3
  -3.96950E+3  -2.57807E+3
  -3.98391E+3  -2.55663E+3
  -3.97600E+3  -2.57239E+3
  -3.94795E+3  -2.54510E+3
  -3.93232E+3  -2.54383E+3
  -3.82394E+3  -2.49296E+3
  -3.79505E+3  -2.53956E+3
  -3.79339E+3  -2.51491E+3
  -3.82615E+3  -2.49180E+3
  -3.75175E+3  -2.45708E+3
  -3.75053E+3  -2.45703E+3
  -3.70945E+3  -2.50530E+3
  -3.76084E+3  -2.43341E+3
  -3.70552E+3  -2.45125E+3
  -3.68173E+3  -2.37771E+3
  -3.64605E+3  -2.44322E+3
  -3.66199E+3  -2.45416E+3
  -3.58210E+3  -2.42649E+3
  -3.62643E+3  -2.43684E+3
  -3.63871E+3  -2.40170E+3
  -3.51837E+3  -2.38096E+3
  -3.48209E+3  -2.36563E+3
  -3.47275E+3  -2.35854E+3
  -3.50795E+3  -2.33086E+3
  -3.42774E+3  -2.31163E+3
  -3.43774E+3  -2.29341E+3
  -3.42371E+3  -2.36325E+3
  -3.41193E+3  -2.24541E+3
  -3.42937E+3  -2.24797E+3
  -3.40216E+3  -2.28668E+3
  -3.37103E+3  -2.25948E+3
  -3.26689E+3  -2.27679E+3
  -3.30453E+3  -2.26134E+3
  -3.28272E+3  -2.28945E+3
  -3.24581E+3  -2.23265E+3
  -3.21314E+3  -2.26477E+3
  -3.15137E+3  -2.27035E+3
  -3.15554E+3  -2.20503E+3
  -3.19225E+3  -2.20105E+3
  -3.15549E+3  -2.23475E+3
  -3.12710E+3  -2.23687E+3
  -3.09694E+3  -2.26884E+3
  -3.07275E+3  -2.24454E+3
  -3.04898E+3  -2.18804E+3
  -2.98690E+3  -2.19808E+3
  -2.94059E+3  -2.17792E+3
  -2.96876E+3  -2.19369E+3
