 
 $NMID
 ID=''
 FMTDAT='(2E13.5)'
 TRAMP=   1.00000E+0
 VOLUME=   1.00000E+0
 $END
  -7.29484E+3   1.50346E+4
  -2.83396E+4   3.21598E+4
  -2.12749E+4   3.70788E+4
  -1.84196E+4   3.44174E+4
  -1.92823E+4   3.53908E+4
  -1.68228E+4   3.67898E+4
  -1.52701E+4   3.55707E+4
  -1.53133E+4   3.59802E+4
  -1.34908E+4   3.68566E+4
  -1.21028E+4   3.62129E+4
  -1.17589E+4   3.64095E+4
  -1.00743E+4   3.69038E+4
  -8.77964E+3   3.64821E+4
  -8.32901E+3   3.67277E+4
  -7.05077E+3   3.70357E+4
  -5.80379E+3   3.65718E+4
  -5.28685E+3   3.67022E+4
  -4.07228E+3   3.69413E+4
  -2.99267E+3   3.65951E+4
  -2.46558E+3   3.64569E+4
  -1.38965E+3   3.64485E+4
  -3.79616E+2   3.60523E+4
   3.33969E+2   3.58685E+4
   1.30551E+3   3.56678E+4
   2.30773E+3   3.51005E+4
   3.17439E+3   3.46848E+4
   4.02389E+3   3.44091E+4
   4.91393E+3   3.38094E+4
   5.53625E+3   3.33880E+4
   6.58073E+3   3.29721E+4
   7.53777E+3   3.24404E+4
   8.35597E+3   3.20130E+4
   9.28701E+3   3.17758E+4
   9.94483E+3   3.12032E+4
   1.07464E+4   3.07029E+4
   1.14738E+4   3.02793E+4
   1.23517E+4   2.96990E+4
   1.30440E+4   2.91779E+4
   1.36440E+4   2.86119E+4
   1.43354E+4   2.80021E+4
   1.48343E+4   2.74302E+4
   1.53282E+4   2.69764E+4
   1.57368E+4   2.63066E+4
   1.62937E+4   2.55711E+4
   1.68262E+4   2.49230E+4
   1.73847E+4   2.42679E+4
   1.78033E+4   2.34515E+4
   1.82920E+4   2.28496E+4
   1.86845E+4   2.20578E+4
   1.90481E+4   2.13949E+4
   1.94467E+4   2.06794E+4
   1.98807E+4   1.98325E+4
   2.02680E+4   1.91422E+4
   2.06249E+4   1.82880E+4
   2.10254E+4   1.76164E+4
   2.12716E+4   1.69189E+4
   2.17002E+4   1.62245E+4
   2.19076E+4   1.55840E+4
   2.21246E+4   1.47763E+4
   2.23336E+4   1.40421E+4
   2.26165E+4   1.33858E+4
   2.28281E+4   1.25826E+4
   2.31095E+4   1.19222E+4
   2.32550E+4   1.13209E+4
   2.33617E+4   1.07791E+4
   2.35247E+4   1.00843E+4
   2.37397E+4   9.46914E+3
   2.38831E+4   8.90596E+3
   2.39612E+4   8.30264E+3
   2.40098E+4   7.72423E+3
   2.40263E+4   7.12116E+3
   2.40943E+4   6.55687E+3
   2.41264E+4   6.04553E+3
   2.40746E+4   5.46773E+3
   2.39802E+4   5.01411E+3
   2.39897E+4   4.43527E+3
   2.39227E+4   3.96428E+3
   2.38118E+4   3.35667E+3
   2.36582E+4   2.87402E+3
   2.36030E+4   2.33090E+3
   2.35152E+4   1.88414E+3
   2.33958E+4   1.47853E+3
   2.32051E+4   1.02735E+3
   2.31102E+4   5.38116E+2
   2.29335E+4   1.24638E+2
   2.26345E+4  -3.23872E+2
   2.24150E+4  -7.76462E+2
   2.21791E+4  -1.17143E+3
   2.20030E+4  -1.58037E+3
   2.17761E+4  -2.09106E+3
   2.15564E+4  -2.48441E+3
   2.12810E+4  -2.90550E+3
   2.10665E+4  -3.25518E+3
   2.07751E+4  -3.63779E+3
   2.04488E+4  -3.96785E+3
   2.01344E+4  -4.38143E+3
   1.98799E+4  -4.79287E+3
   1.95089E+4  -5.26861E+3
   1.92976E+4  -5.52414E+3
   1.89915E+4  -5.79803E+3
   1.86271E+4  -6.13604E+3
   1.83340E+4  -6.52971E+3
   1.80964E+4  -6.87177E+3
   1.77483E+4  -7.10868E+3
   1.74337E+4  -7.49938E+3
   1.71532E+4  -7.75027E+3
   1.67822E+4  -8.07399E+3
   1.65256E+4  -8.31775E+3
   1.61909E+4  -8.58996E+3
   1.58217E+4  -8.81199E+3
   1.54689E+4  -9.08346E+3
   1.51509E+4  -9.32366E+3
   1.48466E+4  -9.51874E+3
   1.46025E+4  -9.71202E+3
   1.42235E+4  -9.90961E+3
   1.38391E+4  -1.00189E+4
   1.35575E+4  -1.02091E+4
   1.32382E+4  -1.03328E+4
   1.28902E+4  -1.04278E+4
   1.25295E+4  -1.05835E+4
   1.22306E+4  -1.07520E+4
   1.19260E+4  -1.08386E+4
   1.15483E+4  -1.08177E+4
   1.11842E+4  -1.08796E+4
   1.07967E+4  -1.10968E+4
   1.05696E+4  -1.11198E+4
   1.01696E+4  -1.12118E+4
   9.81435E+3  -1.12937E+4
   9.50562E+3  -1.13483E+4
   9.15767E+3  -1.13512E+4
   8.90590E+3  -1.13974E+4
   8.50415E+3  -1.14799E+4
   8.16499E+3  -1.14593E+4
   7.89298E+3  -1.14959E+4
   7.59221E+3  -1.15603E+4
   7.26470E+3  -1.15222E+4
   6.97712E+3  -1.15522E+4
   6.68202E+3  -1.15263E+4
   6.36710E+3  -1.15314E+4
   6.17443E+3  -1.15372E+4
   5.87773E+3  -1.15039E+4
   5.61517E+3  -1.15347E+4
   5.30116E+3  -1.15349E+4
   5.06968E+3  -1.14659E+4
   4.83921E+3  -1.14931E+4
   4.61725E+3  -1.13954E+4
   4.37454E+3  -1.14438E+4
   4.07644E+3  -1.13930E+4
   3.87183E+3  -1.13312E+4
   3.69370E+3  -1.12968E+4
   3.51340E+3  -1.12977E+4
   3.37844E+3  -1.11818E+4
   3.10807E+3  -1.10960E+4
   2.92925E+3  -1.10451E+4
   2.80765E+3  -1.10496E+4
   2.61797E+3  -1.09343E+4
   2.41598E+3  -1.08738E+4
   2.35348E+3  -1.07660E+4
   2.14279E+3  -1.06409E+4
   1.93395E+3  -1.06128E+4
   1.76033E+3  -1.05087E+4
   1.66010E+3  -1.04673E+4
   1.54554E+3  -1.03587E+4
   1.36218E+3  -1.02755E+4
   1.22287E+3  -1.01871E+4
   1.15675E+3  -1.00712E+4
   1.00717E+3  -9.93110E+3
   8.70868E+2  -9.83642E+3
   7.56228E+2  -9.72469E+3
   6.97362E+2  -9.67829E+3
   5.28900E+2  -9.49057E+3
   4.74059E+2  -9.44204E+3
   3.17866E+2  -9.32894E+3
   1.28835E+2  -9.18882E+3
   8.82872E+1  -9.10888E+3
  -2.29077E+1  -9.06396E+3
  -8.35637E+1  -8.84881E+3
  -1.82924E+2  -8.81313E+3
  -2.35298E+2  -8.70991E+3
  -3.04317E+2  -8.56760E+3
  -4.62209E+2  -8.51837E+3
  -5.31240E+2  -8.39564E+3
  -5.83713E+2  -8.29297E+3
  -6.23142E+2  -8.22665E+3
  -7.04527E+2  -8.14783E+3
  -8.38456E+2  -7.96439E+3
  -8.93245E+2  -7.95057E+3
  -9.13477E+2  -7.88788E+3
  -9.62771E+2  -7.85702E+3
  -9.54360E+2  -7.69710E+3
  -1.07940E+3  -7.65292E+3
  -1.03187E+3  -7.51758E+3
  -1.09514E+3  -7.37153E+3
  -1.16347E+3  -7.30097E+3
  -1.18726E+3  -7.25491E+3
  -1.21851E+3  -7.19900E+3
  -1.24019E+3  -7.12176E+3
  -1.22578E+3  -7.06626E+3
  -1.33255E+3  -6.89080E+3
  -1.29509E+3  -6.84434E+3
  -1.37782E+3  -6.75290E+3
  -1.37294E+3  -6.66265E+3
  -1.33815E+3  -6.59951E+3
  -1.36058E+3  -6.54741E+3
  -1.36937E+3  -6.48179E+3
  -1.42284E+3  -6.40044E+3
  -1.44566E+3  -6.28775E+3
  -1.43451E+3  -6.19921E+3
  -1.49804E+3  -6.13360E+3
  -1.45360E+3  -6.02482E+3
  -1.45172E+3  -5.96220E+3
  -1.46969E+3  -5.85461E+3
  -1.49893E+3  -5.75550E+3
  -1.45069E+3  -5.73017E+3
  -1.42864E+3  -5.63376E+3
  -1.43621E+3  -5.53185E+3
  -1.50383E+3  -5.48046E+3
  -1.45253E+3  -5.39167E+3
  -1.51919E+3  -5.33132E+3
  -1.54887E+3  -5.20434E+3
  -1.48561E+3  -5.14134E+3
  -1.46907E+3  -5.10393E+3
  -1.55529E+3  -5.04627E+3
  -1.47999E+3  -5.02091E+3
  -1.49180E+3  -4.85121E+3
  -1.51353E+3  -4.80144E+3
  -1.48646E+3  -4.76273E+3
  -1.51171E+3  -4.69491E+3
  -1.47558E+3  -4.57111E+3
  -1.50425E+3  -4.57147E+3
  -1.50562E+3  -4.48275E+3
  -1.45814E+3  -4.47059E+3
  -1.50853E+3  -4.38928E+3
  -1.45715E+3  -4.35617E+3
  -1.45362E+3  -4.30335E+3
  -1.47433E+3  -4.21455E+3
  -1.43434E+3  -4.17301E+3
  -1.41092E+3  -4.11525E+3
  -1.42815E+3  -4.05349E+3
  -1.48256E+3  -3.95884E+3
  -1.44414E+3  -3.97389E+3
  -1.45350E+3  -3.88470E+3
  -1.33465E+3  -3.84838E+3
  -1.44949E+3  -3.81214E+3
  -1.31719E+3  -3.74425E+3
  -1.39563E+3  -3.72400E+3
  -1.27839E+3  -3.61470E+3
  -1.28779E+3  -3.61443E+3
  -1.31848E+3  -3.60430E+3
  -1.31159E+3  -3.46738E+3
  -1.28956E+3  -3.46418E+3
  -1.26072E+3  -3.41027E+3
  -1.22378E+3  -3.30618E+3
  -1.23228E+3  -3.37834E+3
  -1.22844E+3  -3.23264E+3
  -1.26909E+3  -3.24072E+3
  -1.18014E+3  -3.17489E+3
  -1.20319E+3  -3.11903E+3
  -1.14532E+3  -3.09262E+3
  -1.13906E+3  -2.96789E+3
  -1.12096E+3  -2.98659E+3
  -1.09119E+3  -2.93793E+3
  -1.12442E+3  -2.81324E+3
  -1.06560E+3  -2.85233E+3
  -1.13434E+3  -2.75627E+3
  -1.01475E+3  -2.69840E+3
  -1.04187E+3  -2.66975E+3
  -9.95068E+2  -2.64342E+3
  -9.71786E+2  -2.57607E+3
  -9.53935E+2  -2.56135E+3
  -9.86684E+2  -2.47331E+3
  -9.61081E+2  -2.47810E+3
  -9.24249E+2  -2.44848E+3
  -9.13975E+2  -2.39138E+3
  -9.26062E+2  -2.27819E+3
  -8.85590E+2  -2.36467E+3
  -8.82594E+2  -2.24146E+3
  -8.73714E+2  -2.23292E+3
  -8.21359E+2  -2.18527E+3
  -8.76435E+2  -2.14459E+3
  -8.06472E+2  -2.12202E+3
  -8.13066E+2  -2.06430E+3
  -8.02766E+2  -2.00511E+3
  -7.85495E+2  -1.91775E+3
  -7.72755E+2  -1.89991E+3
  -7.36515E+2  -1.92447E+3
  -6.66453E+2  -1.85143E+3
  -7.72194E+2  -1.77074E+3
  -6.84826E+2  -1.73971E+3
  -6.79182E+2  -1.79499E+3
  -6.31758E+2  -1.77784E+3
  -6.29739E+2  -1.70216E+3
  -6.55419E+2  -1.72846E+3
  -5.68745E+2  -1.62145E+3
  -6.28994E+2  -1.57479E+3
  -5.24206E+2  -1.62046E+3
  -5.03368E+2  -1.65366E+3
  -4.88658E+2  -1.52209E+3
  -5.22597E+2  -1.49588E+3
  -4.52636E+2  -1.45645E+3
  -4.82959E+2  -1.42635E+3
  -5.02096E+2  -1.41230E+3
  -4.12323E+2  -1.41125E+3
  -4.08506E+2  -1.41196E+3
  -4.24050E+2  -1.35509E+3
  -3.95383E+2  -1.26876E+3
  -3.51549E+2  -1.31541E+3
  -3.32367E+2  -1.31663E+3
  -2.91167E+2  -1.23980E+3
  -3.44357E+2  -1.17934E+3
  -2.43894E+2  -1.20849E+3
  -2.03308E+2  -1.16247E+3
  -2.76415E+2  -1.19145E+3
  -2.58681E+2  -1.19301E+3
  -2.14960E+2  -1.20326E+3
  -1.89086E+2  -1.15417E+3
  -2.04050E+2  -1.12786E+3
  -2.11693E+2  -1.07548E+3
  -1.47659E+2  -1.03671E+3
  -1.79532E+2  -9.75302E+2
  -1.04514E+2  -1.01396E+3
  -1.18201E+2  -1.02770E+3
  -1.12700E+2  -1.02548E+3
  -7.76498E+1  -1.06041E+3
  -9.79287E+1  -9.68205E+2
  -1.05483E+2  -9.68679E+2
  -1.08790E+1  -9.84263E+2
  -4.73961E+1  -9.62361E+2
  -5.12454E+1  -9.49829E+2
  -4.56823E+1  -9.28015E+2
  -1.22005E+1  -8.95580E+2
   4.44790E+1  -9.08638E+2
   5.39868E+0  -8.84383E+2
   6.83679E+1  -9.67420E+2
   7.51213E+1  -8.78933E+2
   3.95063E+1  -8.72207E+2
   1.11671E+2  -8.55740E+2
   5.52895E+1  -8.58921E+2
   9.48026E+1  -8.71091E+2
   6.57304E+1  -8.69485E+2
   1.37992E+2  -8.37511E+2
   1.52606E+2  -8.34668E+2
   8.19165E+1  -8.47280E+2
   9.39223E+1  -8.14985E+2
   1.11223E+2  -7.96019E+2
   1.40477E+2  -8.15422E+2
   1.00087E+2  -8.37100E+2
   8.30703E+1  -7.84143E+2
   9.47290E+1  -8.54127E+2
   8.42306E+1  -8.26393E+2
   1.55658E+2  -7.81446E+2
   1.85283E+2  -7.23416E+2
   1.01725E+2  -8.41405E+2
   2.33080E+2  -7.86713E+2
   1.31655E+2  -8.42018E+2
   1.21224E+2  -7.98917E+2
   8.57739E+1  -7.84715E+2
   1.08732E+2  -7.58011E+2
   1.27241E+2  -8.27287E+2
   1.33410E+2  -7.75307E+2
   1.57625E+2  -8.05649E+2
   1.43694E+2  -8.23862E+2
   2.13137E+2  -8.60815E+2
   1.20160E+2  -8.14027E+2
   1.40585E+2  -7.88358E+2
   1.38939E+2  -7.97841E+2
   1.77851E+2  -7.35803E+2
