 
 $NMID
 ID=''
 FMTDAT='(2E13.5)'
 TRAMP=   1.00000E+0
 VOLUME=   1.00000E+0
 $END
  -1.30215E+4   9.13315E+3
  -3.87086E+4   1.33391E+4
  -3.55862E+4   2.02459E+4
  -3.25581E+4   1.91247E+4
  -3.42690E+4   1.89681E+4
  -3.33483E+4   2.07613E+4
  -3.20556E+4   1.98869E+4
  -3.28626E+4   1.96520E+4
  -3.22298E+4   2.06629E+4
  -3.13593E+4   2.01093E+4
  -3.18525E+4   1.98212E+4
  -3.12640E+4   2.06235E+4
  -3.05991E+4   2.04840E+4
  -3.10688E+4   2.00425E+4
  -3.06117E+4   2.04638E+4
  -3.00609E+4   2.02306E+4
  -3.01000E+4   2.00971E+4
  -2.96751E+4   2.03224E+4
  -2.90864E+4   2.02247E+4
  -2.91100E+4   2.00997E+4
  -2.86895E+4   2.02926E+4
  -2.80727E+4   2.02153E+4
  -2.79758E+4   2.02555E+4
  -2.75322E+4   2.03935E+4
  -2.69792E+4   2.02461E+4
  -2.67516E+4   2.03175E+4
  -2.64832E+4   2.04753E+4
  -2.60529E+4   2.03802E+4
  -2.58797E+4   2.02475E+4
  -2.56512E+4   2.04044E+4
  -2.51826E+4   2.04403E+4
  -2.50248E+4   2.04580E+4
  -2.49087E+4   2.05234E+4
  -2.44763E+4   2.03858E+4
  -2.42384E+4   2.04365E+4
  -2.39868E+4   2.04429E+4
  -2.36158E+4   2.03735E+4
  -2.33285E+4   2.02392E+4
  -2.29449E+4   2.03040E+4
  -2.25512E+4   2.02984E+4
  -2.23175E+4   2.02168E+4
  -2.20899E+4   2.00691E+4
  -2.17367E+4   1.99483E+4
  -2.13066E+4   1.98407E+4
  -2.09896E+4   1.98751E+4
  -2.05862E+4   1.97648E+4
  -2.02505E+4   1.97292E+4
  -2.00022E+4   1.97913E+4
  -1.96970E+4   1.97288E+4
  -1.94536E+4   1.97142E+4
  -1.91328E+4   1.96653E+4
  -1.87594E+4   1.96580E+4
  -1.83954E+4   1.96837E+4
  -1.81662E+4   1.96899E+4
  -1.78338E+4   1.96478E+4
  -1.76119E+4   1.97057E+4
  -1.74520E+4   1.96260E+4
  -1.71173E+4   1.95883E+4
  -1.68765E+4   1.94015E+4
  -1.65893E+4   1.94180E+4
  -1.62941E+4   1.93434E+4
  -1.61232E+4   1.92544E+4
  -1.58426E+4   1.93379E+4
  -1.56574E+4   1.92174E+4
  -1.54019E+4   1.91727E+4
  -1.50830E+4   1.91632E+4
  -1.48383E+4   1.91409E+4
  -1.46370E+4   1.90488E+4
  -1.43578E+4   1.90923E+4
  -1.41803E+4   1.90330E+4
  -1.38965E+4   1.89378E+4
  -1.36607E+4   1.88904E+4
  -1.33856E+4   1.89318E+4
  -1.31372E+4   1.88481E+4
  -1.29058E+4   1.87689E+4
  -1.26893E+4   1.87521E+4
  -1.24655E+4   1.87028E+4
  -1.22593E+4   1.86473E+4
  -1.19795E+4   1.86095E+4
  -1.17590E+4   1.85582E+4
  -1.15262E+4   1.85558E+4
  -1.13295E+4   1.85188E+4
  -1.10809E+4   1.84951E+4
  -1.08235E+4   1.83988E+4
  -1.06932E+4   1.83547E+4
  -1.03776E+4   1.82124E+4
  -1.02521E+4   1.81478E+4
  -9.95195E+3   1.80966E+4
  -9.73324E+3   1.80772E+4
  -9.54694E+3   1.80855E+4
  -9.30930E+3   1.80056E+4
  -9.11103E+3   1.79437E+4
  -8.79566E+3   1.79423E+4
  -8.70876E+3   1.78818E+4
  -8.45850E+3   1.78364E+4
  -8.30853E+3   1.77364E+4
  -8.04503E+3   1.77244E+4
  -7.89568E+3   1.77096E+4
  -7.70016E+3   1.77514E+4
  -7.57960E+3   1.76523E+4
  -7.37448E+3   1.75502E+4
  -7.19497E+3   1.74994E+4
  -6.97198E+3   1.74485E+4
  -6.89386E+3   1.74407E+4
  -6.78401E+3   1.73601E+4
  -6.54850E+3   1.72668E+4
  -6.38189E+3   1.73319E+4
  -6.26416E+3   1.71781E+4
  -6.12435E+3   1.71793E+4
  -6.01750E+3   1.70053E+4
  -5.78814E+3   1.69395E+4
  -5.59976E+3   1.68562E+4
  -5.48865E+3   1.68528E+4
  -5.43701E+3   1.68415E+4
  -5.26655E+3   1.66797E+4
  -5.13307E+3   1.66411E+4
  -5.02062E+3   1.65851E+4
  -4.94716E+3   1.64091E+4
  -4.71280E+3   1.63126E+4
  -4.63548E+3   1.63225E+4
  -4.48821E+3   1.61758E+4
  -4.37770E+3   1.61134E+4
  -4.35915E+3   1.59704E+4
  -4.22527E+3   1.58822E+4
  -4.02778E+3   1.57711E+4
  -3.94302E+3   1.57253E+4
  -3.81746E+3   1.55487E+4
  -3.70318E+3   1.54674E+4
  -3.55307E+3   1.53528E+4
  -3.43910E+3   1.51533E+4
  -3.36122E+3   1.50185E+4
  -3.17672E+3   1.49837E+4
  -3.11154E+3   1.48454E+4
  -3.00709E+3   1.47856E+4
  -2.86132E+3   1.46872E+4
  -2.77487E+3   1.44902E+4
  -2.65862E+3   1.43014E+4
  -2.46500E+3   1.42799E+4
  -2.34082E+3   1.40901E+4
  -2.21229E+3   1.40101E+4
  -2.12232E+3   1.39500E+4
  -2.03214E+3   1.38353E+4
  -1.84648E+3   1.36787E+4
  -1.78839E+3   1.36086E+4
  -1.72654E+3   1.36338E+4
  -1.55429E+3   1.33881E+4
  -1.43227E+3   1.32434E+4
  -1.36914E+3   1.32478E+4
  -1.23858E+3   1.30196E+4
  -1.10794E+3   1.29837E+4
  -1.03285E+3   1.28414E+4
  -9.78149E+2   1.27832E+4
  -7.95052E+2   1.26867E+4
  -7.12919E+2   1.25995E+4
  -5.24439E+2   1.24920E+4
  -4.23092E+2   1.23454E+4
  -4.01863E+2   1.22840E+4
  -2.02464E+2   1.21988E+4
  -1.53488E+2   1.21138E+4
  -6.02227E+1   1.20713E+4
   5.86506E+1   1.19128E+4
   1.35270E+2   1.18412E+4
   2.63938E+2   1.17705E+4
   3.30183E+2   1.16539E+4
   4.25532E+2   1.16424E+4
   4.81424E+2   1.13864E+4
   5.73393E+2   1.13026E+4
   6.39877E+2   1.11860E+4
   7.48202E+2   1.11649E+4
   8.48179E+2   1.10781E+4
   9.91280E+2   1.10205E+4
   9.96861E+2   1.08958E+4
   1.06101E+3   1.07634E+4
   1.20146E+3   1.06950E+4
   1.19996E+3   1.06933E+4
   1.36943E+3   1.04573E+4
   1.45753E+3   1.04252E+4
   1.59644E+3   1.03562E+4
   1.60105E+3   1.01880E+4
   1.68103E+3   1.01541E+4
   1.72800E+3   1.01008E+4
   1.89262E+3   9.91261E+3
   1.96259E+3   9.95266E+3
   1.93895E+3   9.71878E+3
   2.16061E+3   9.65773E+3
   2.19144E+3   9.62149E+3
   2.18110E+3   9.55673E+3
   2.32858E+3   9.43447E+3
   2.37205E+3   9.38580E+3
   2.43175E+3   9.21751E+3
   2.56904E+3   9.18269E+3
   2.60624E+3   9.05022E+3
   2.75748E+3   9.04964E+3
   2.75269E+3   8.86004E+3
   2.89320E+3   8.87302E+3
   2.84024E+3   8.77213E+3
   3.00492E+3   8.68966E+3
   3.03217E+3   8.55808E+3
   3.13408E+3   8.53848E+3
   3.22150E+3   8.41743E+3
   3.20041E+3   8.39594E+3
   3.31739E+3   8.32693E+3
   3.30992E+3   8.14407E+3
   3.42892E+3   8.09382E+3
   3.48130E+3   8.06584E+3
   3.62707E+3   8.01304E+3
   3.53930E+3   7.84373E+3
   3.65331E+3   7.82919E+3
   3.65893E+3   7.68417E+3
   3.75885E+3   7.63212E+3
   3.89450E+3   7.59925E+3
   3.87789E+3   7.49965E+3
   3.87001E+3   7.47548E+3
   3.97489E+3   7.34058E+3
   4.06496E+3   7.29957E+3
   4.04787E+3   7.17230E+3
   4.07657E+3   7.10780E+3
   4.12597E+3   7.09077E+3
   4.23539E+3   6.97396E+3
   4.29332E+3   6.92871E+3
   4.30925E+3   6.87862E+3
   4.35214E+3   6.72421E+3
   4.40092E+3   6.62910E+3
   4.40604E+3   6.59624E+3
   4.48121E+3   6.54925E+3
   4.50711E+3   6.41503E+3
   4.52197E+3   6.31790E+3
   4.59856E+3   6.32091E+3
   4.67610E+3   6.23828E+3
   4.69424E+3   6.12521E+3
   4.69161E+3   6.02349E+3
   4.72923E+3   6.01400E+3
   4.78496E+3   5.95385E+3
   4.83451E+3   5.84235E+3
   4.84805E+3   5.81790E+3
   4.86336E+3   5.72595E+3
   4.91501E+3   5.68494E+3
   5.00205E+3   5.67313E+3
   4.93118E+3   5.56757E+3
   4.96463E+3   5.44637E+3
   5.04702E+3   5.34754E+3
   5.04098E+3   5.40565E+3
   5.06684E+3   5.25292E+3
   5.11924E+3   5.18063E+3
   5.15933E+3   5.05339E+3
   5.14104E+3   5.02715E+3
   5.12033E+3   5.02482E+3
   5.12342E+3   4.90945E+3
   5.22201E+3   4.82066E+3
   5.21349E+3   4.75138E+3
   5.21967E+3   4.73748E+3
   5.27064E+3   4.69606E+3
   5.24046E+3   4.58858E+3
   5.25866E+3   4.52985E+3
   5.25487E+3   4.43300E+3
   5.32229E+3   4.36329E+3
   5.31989E+3   4.30239E+3
   5.32894E+3   4.29562E+3
   5.36321E+3   4.18136E+3
   5.41376E+3   4.15361E+3
   5.31916E+3   4.02044E+3
   5.39760E+3   3.99617E+3
   5.36859E+3   4.01746E+3
   5.38789E+3   3.83463E+3
   5.41204E+3   3.80697E+3
   5.46442E+3   3.78158E+3
   5.37527E+3   3.67902E+3
   5.44067E+3   3.62486E+3
   5.45724E+3   3.50462E+3
   5.39379E+3   3.46605E+3
   5.36806E+3   3.39925E+3
   5.46203E+3   3.37164E+3
   5.41464E+3   3.30528E+3
   5.46083E+3   3.32649E+3
   5.40056E+3   3.22581E+3
   5.49953E+3   3.09468E+3
   5.46879E+3   3.11121E+3
   5.46135E+3   3.01355E+3
   5.50508E+3   2.92240E+3
   5.42240E+3   2.85671E+3
   5.41785E+3   2.74129E+3
   5.45991E+3   2.76159E+3
   5.42361E+3   2.73943E+3
   5.40019E+3   2.64413E+3
   5.41329E+3   2.59721E+3
   5.42777E+3   2.54152E+3
   5.48435E+3   2.47159E+3
   5.40564E+3   2.41941E+3
   5.37854E+3   2.36587E+3
   5.40793E+3   2.35549E+3
   5.36629E+3   2.30451E+3
   5.40818E+3   2.21231E+3
   5.35054E+3   2.15525E+3
   5.35217E+3   2.10226E+3
   5.39879E+3   2.09533E+3
   5.26675E+3   2.05787E+3
   5.32729E+3   1.99009E+3
   5.30384E+3   1.89597E+3
   5.30129E+3   1.80479E+3
   5.27015E+3   1.78503E+3
   5.24907E+3   1.79241E+3
   5.26623E+3   1.72444E+3
   5.28291E+3   1.70485E+3
   5.22777E+3   1.63271E+3
   5.20071E+3   1.59348E+3
   5.11723E+3   1.50628E+3
   5.16081E+3   1.44069E+3
   5.17376E+3   1.45718E+3
   5.11739E+3   1.36416E+3
   5.14172E+3   1.34448E+3
   5.04101E+3   1.35953E+3
   5.12113E+3   1.23951E+3
   5.07715E+3   1.24008E+3
   5.08016E+3   1.14232E+3
   4.97297E+3   1.07720E+3
   5.01984E+3   1.07163E+3
   5.00408E+3   1.07748E+3
   4.96002E+3   1.07009E+3
   4.94968E+3   9.92815E+2
   4.86450E+3   9.75136E+2
   4.89118E+3   9.10600E+2
   4.91780E+3   9.27071E+2
   4.81836E+3   8.39812E+2
   4.79757E+3   8.45792E+2
   4.83311E+3   7.81334E+2
   4.73501E+3   7.41539E+2
   4.76282E+3   6.95124E+2
   4.76288E+3   5.78174E+2
   4.64778E+3   6.37216E+2
   4.67505E+3   5.27507E+2
   4.68044E+3   5.54690E+2
   4.64866E+3   5.07110E+2
   4.60974E+3   4.44661E+2
   4.59367E+3   3.93085E+2
   4.57788E+3   4.33696E+2
   4.54337E+3   3.74173E+2
   4.44731E+3   3.19547E+2
   4.44706E+3   2.90716E+2
   4.48326E+3   2.20253E+2
   4.42810E+3   2.42548E+2
   4.34751E+3   1.85013E+2
   4.35030E+3   1.30871E+2
   4.29959E+3   1.32356E+2
   4.37159E+3   6.35716E+1
   4.24087E+3   1.00021E+2
   4.26585E+3   1.93177E+1
   4.27246E+3   4.51029E+1
   4.24326E+3   2.02435E+1
   4.14906E+3  -8.07663E+1
   4.11740E+3  -6.02502E+1
   4.12401E+3  -8.61202E+1
   4.03982E+3  -1.20377E+2
   4.09658E+3  -1.27782E+2
   3.92612E+3  -2.15586E+2
   3.98783E+3  -1.70290E+2
   3.98170E+3  -1.82460E+2
   3.98307E+3  -2.52643E+2
   3.99283E+3  -2.20150E+2
   3.94000E+3  -3.10713E+2
   3.89543E+3  -3.40309E+2
   3.85654E+3  -3.24026E+2
   3.89153E+3  -4.03953E+2
   3.83508E+3  -3.58000E+2
   3.80198E+3  -4.05607E+2
   3.73445E+3  -5.17451E+2
   3.76952E+3  -4.56143E+2
   3.74678E+3  -5.26348E+2
