 
 $NMID
 ID=''
 FMTDAT='(2E13.5)'
 TRAMP=   1.00000E+0
 VOLUME=   1.00000E+0
 $END
  -6.19623E+3   1.55132E+4
  -2.83270E+4   3.29569E+4
  -2.42112E+4   3.55548E+4
  -2.47834E+4   3.11588E+4
  -2.84073E+4   3.03858E+4
  -2.85630E+4   2.94973E+4
  -3.00737E+4   2.60408E+4
  -3.26188E+4   2.42756E+4
  -3.31220E+4   2.28828E+4
  -3.42794E+4   1.97320E+4
  -3.61276E+4   1.76131E+4
  -3.62778E+4   1.57481E+4
  -3.69180E+4   1.29394E+4
  -3.83030E+4   1.04800E+4
  -3.82612E+4   8.34532E+3
  -3.83710E+4   5.39829E+3
  -3.89020E+4   2.99776E+3
  -3.85322E+4   7.96282E+2
  -3.82395E+4  -2.00676E+3
  -3.80577E+4  -4.36388E+3
  -3.72700E+4  -6.44890E+3
  -3.65393E+4  -8.98283E+3
  -3.60306E+4  -1.12067E+4
  -3.47751E+4  -1.32470E+4
  -3.35146E+4  -1.54749E+4
  -3.25197E+4  -1.74036E+4
  -3.10025E+4  -1.93340E+4
  -2.93685E+4  -2.12918E+4
  -2.79239E+4  -2.30473E+4
  -2.61673E+4  -2.43894E+4
  -2.44574E+4  -2.58819E+4
  -2.28095E+4  -2.72311E+4
  -2.08293E+4  -2.84691E+4
  -1.88529E+4  -2.95365E+4
  -1.70015E+4  -3.04402E+4
  -1.49981E+4  -3.12027E+4
  -1.28876E+4  -3.18461E+4
  -1.10276E+4  -3.23812E+4
  -8.93336E+3  -3.28105E+4
  -6.88758E+3  -3.31350E+4
  -4.91349E+3  -3.33076E+4
  -2.60438E+3  -3.33678E+4
  -3.79831E+2  -3.32116E+4
   1.69431E+3  -3.28555E+4
   3.67747E+3  -3.23906E+4
   5.71627E+3  -3.18270E+4
   7.72830E+3  -3.11707E+4
   9.54350E+3  -3.03087E+4
   1.13708E+4  -2.93406E+4
   1.31530E+4  -2.82135E+4
   1.47625E+4  -2.69602E+4
   1.62574E+4  -2.56260E+4
   1.75423E+4  -2.42544E+4
   1.88001E+4  -2.28468E+4
   1.99377E+4  -2.12312E+4
   2.10105E+4  -1.96113E+4
   2.19585E+4  -1.79441E+4
   2.25644E+4  -1.62731E+4
   2.31917E+4  -1.43973E+4
   2.36278E+4  -1.27035E+4
   2.38451E+4  -1.10022E+4
   2.40283E+4  -9.32095E+3
   2.40659E+4  -7.58048E+3
   2.40856E+4  -5.88813E+3
   2.37736E+4  -4.22800E+3
   2.35137E+4  -2.72290E+3
   2.31322E+4  -1.25404E+3
   2.25922E+4   1.86996E+2
   2.19296E+4   1.73118E+3
   2.12683E+4   2.95292E+3
   2.05020E+4   4.19972E+3
   1.95836E+4   5.35902E+3
   1.86849E+4   6.34426E+3
   1.77019E+4   7.39495E+3
   1.67024E+4   8.21646E+3
   1.56985E+4   8.99048E+3
   1.45478E+4   9.68673E+3
   1.34737E+4   1.03582E+4
   1.24161E+4   1.07672E+4
   1.13530E+4   1.11678E+4
   1.01766E+4   1.14983E+4
   9.07774E+3   1.17791E+4
   8.00853E+3   1.19610E+4
   6.96636E+3   1.19604E+4
   5.87679E+3   1.19827E+4
   4.90735E+3   1.18983E+4
   3.94170E+3   1.17932E+4
   2.98710E+3   1.16151E+4
   2.08500E+3   1.13164E+4
   1.34912E+3   1.10172E+4
   4.77246E+2   1.07622E+4
  -1.84851E+2   1.03996E+4
  -8.96184E+2   9.99562E+3
  -1.55872E+3   9.58225E+3
  -2.17163E+3   9.14497E+3
  -2.70168E+3   8.63795E+3
  -3.26994E+3   8.13377E+3
  -3.66689E+3   7.70091E+3
  -4.19759E+3   7.23660E+3
  -4.50615E+3   6.76600E+3
  -4.78530E+3   6.25760E+3
  -5.03199E+3   5.71090E+3
  -5.32054E+3   5.25045E+3
  -5.60675E+3   4.79726E+3
  -5.80302E+3   4.25694E+3
  -5.91652E+3   3.77814E+3
  -6.08016E+3   3.32773E+3
  -6.13473E+3   2.89653E+3
  -6.22063E+3   2.47586E+3
  -6.34101E+3   2.02506E+3
  -6.34608E+3   1.57588E+3
  -6.32940E+3   1.18908E+3
  -6.29309E+3   8.08369E+2
  -6.26442E+3   3.86548E+2
  -6.29159E+3   8.87870E+1
  -6.21556E+3  -3.09785E+2
  -6.14791E+3  -5.97342E+2
  -6.00305E+3  -9.71568E+2
  -5.90802E+3  -1.26350E+3
  -5.88696E+3  -1.51583E+3
  -5.76489E+3  -1.84708E+3
  -5.64111E+3  -2.10062E+3
  -5.48446E+3  -2.37833E+3
  -5.35564E+3  -2.68855E+3
  -5.19233E+3  -2.93930E+3
  -5.02109E+3  -3.10505E+3
  -4.84139E+3  -3.23077E+3
  -4.70050E+3  -3.54286E+3
  -4.51104E+3  -3.65965E+3
  -4.38538E+3  -3.89946E+3
  -4.20536E+3  -3.99219E+3
  -4.05139E+3  -4.14188E+3
  -3.81447E+3  -4.28213E+3
  -3.66834E+3  -4.45786E+3
  -3.52127E+3  -4.54586E+3
  -3.32192E+3  -4.62867E+3
  -3.11138E+3  -4.81646E+3
  -2.99139E+3  -4.76212E+3
  -2.77802E+3  -4.84690E+3
  -2.59969E+3  -4.93557E+3
  -2.46157E+3  -4.96238E+3
  -2.27371E+3  -4.95990E+3
  -2.08509E+3  -5.03703E+3
  -1.94144E+3  -5.09657E+3
  -1.68655E+3  -5.15402E+3
  -1.55999E+3  -5.14757E+3
  -1.43431E+3  -5.14574E+3
  -1.18303E+3  -5.11742E+3
  -1.11385E+3  -5.14962E+3
  -9.65020E+2  -5.11170E+3
  -9.00071E+2  -5.14178E+3
  -7.01352E+2  -5.08964E+3
  -5.31727E+2  -5.04382E+3
  -3.90838E+2  -5.00198E+3
  -2.43110E+2  -4.97292E+3
  -1.83222E+2  -4.96575E+3
   1.24112E+0  -4.86362E+3
   9.75527E+1  -4.81112E+3
   1.75489E+2  -4.72446E+3
   2.58049E+2  -4.71161E+3
   3.57291E+2  -4.62633E+3
   5.19840E+2  -4.54127E+3
   5.89344E+2  -4.51886E+3
   5.98382E+2  -4.36802E+3
   7.84808E+2  -4.31492E+3
   7.87337E+2  -4.30095E+3
   8.74585E+2  -4.10808E+3
   8.65732E+2  -4.05622E+3
   1.01075E+3  -4.04900E+3
   1.07070E+3  -3.99484E+3
   1.09673E+3  -3.89825E+3
   1.16334E+3  -3.80933E+3
   1.25530E+3  -3.73654E+3
   1.30252E+3  -3.60316E+3
   1.32063E+3  -3.47275E+3
   1.35884E+3  -3.45423E+3
   1.38939E+3  -3.39160E+3
   1.43830E+3  -3.25094E+3
   1.45110E+3  -3.20497E+3
   1.45829E+3  -3.09763E+3
   1.53051E+3  -2.96459E+3
   1.49913E+3  -2.93362E+3
   1.49532E+3  -2.81353E+3
   1.56470E+3  -2.78291E+3
   1.52224E+3  -2.64537E+3
   1.56394E+3  -2.51288E+3
   1.55013E+3  -2.43826E+3
   1.52371E+3  -2.34931E+3
   1.55263E+3  -2.28258E+3
   1.48266E+3  -2.14645E+3
   1.49538E+3  -2.04109E+3
   1.50345E+3  -2.05406E+3
   1.43070E+3  -1.94301E+3
   1.43895E+3  -1.79067E+3
   1.36260E+3  -1.78516E+3
   1.36334E+3  -1.72309E+3
   1.33335E+3  -1.59715E+3
   1.27543E+3  -1.55794E+3
   1.26852E+3  -1.50285E+3
   1.22187E+3  -1.40685E+3
   1.14742E+3  -1.39400E+3
   1.12059E+3  -1.32545E+3
   1.05963E+3  -1.22050E+3
   1.04046E+3  -1.28277E+3
   9.48199E+2  -1.18014E+3
   9.03231E+2  -1.12070E+3
   9.14935E+2  -1.03525E+3
   9.02441E+2  -1.00619E+3
   7.53916E+2  -1.03599E+3
   7.18068E+2  -9.62480E+2
   7.38476E+2  -9.58522E+2
   6.68937E+2  -9.34155E+2
   5.59742E+2  -9.23563E+2
   5.19799E+2  -8.99376E+2
   5.10556E+2  -8.58617E+2
   5.08495E+2  -8.89866E+2
   4.44123E+2  -7.87826E+2
   4.18804E+2  -8.22547E+2
   3.25192E+2  -8.39867E+2
   2.88944E+2  -8.27451E+2
   3.06136E+2  -7.87331E+2
   2.28047E+2  -8.08515E+2
   2.02277E+2  -8.16922E+2
   2.15265E+2  -7.80760E+2
   2.05794E+2  -8.10660E+2
   1.86288E+2  -8.66199E+2
   7.47081E+1  -7.60221E+2
   1.40777E+2  -8.24029E+2
   1.42799E+2  -7.66457E+2
   1.02807E+2  -7.90310E+2
   1.00651E+2  -8.09564E+2
  -7.15050E+0  -8.13519E+2
   1.20451E+2  -8.14442E+2
   7.28175E+1  -8.02940E+2
   6.33234E+1  -7.19889E+2
   1.27114E+1  -8.16067E+2
  -7.35262E+0  -8.06001E+2
   3.70950E+1  -8.22215E+2
   6.42806E+0  -7.56061E+2
  -6.19428E+1  -7.57447E+2
  -4.13836E+1  -7.30029E+2
   1.78029E+1  -8.39024E+2
  -8.75344E+1  -7.24435E+2
  -5.38504E+1  -7.44684E+2
  -3.30966E+1  -7.04340E+2
  -7.57221E+1  -6.70061E+2
  -3.24059E+1  -7.16434E+2
  -3.21535E+1  -7.04003E+2
  -4.86597E+1  -6.88711E+2
  -6.53667E+1  -6.68696E+2
  -7.33359E+1  -6.87123E+2
  -7.03588E+1  -6.80628E+2
  -6.42329E+1  -6.11353E+2
  -1.79856E+2  -6.68790E+2
  -1.72948E+2  -6.19493E+2
  -1.17625E+2  -6.42162E+2
  -1.69584E+2  -5.85785E+2
  -1.56905E+2  -6.03426E+2
  -1.97963E+2  -6.25112E+2
  -2.07164E+2  -5.78312E+2
  -2.69095E+2  -6.04683E+2
  -2.05035E+2  -5.95764E+2
  -2.62695E+2  -5.47853E+2
  -3.10823E+2  -5.45749E+2
  -2.66807E+2  -4.91658E+2
  -2.64525E+2  -5.52059E+2
  -2.71909E+2  -5.77883E+2
  -3.25908E+2  -5.57289E+2
  -2.75348E+2  -5.02890E+2
  -2.65145E+2  -4.66115E+2
  -4.25796E+2  -5.27762E+2
  -3.45764E+2  -5.24216E+2
  -3.86822E+2  -4.83443E+2
  -3.60274E+2  -4.95025E+2
  -4.43493E+2  -5.51154E+2
  -4.06570E+2  -4.68897E+2
  -4.70020E+2  -5.51503E+2
  -4.11824E+2  -5.67237E+2
  -5.33680E+2  -5.40723E+2
  -4.80180E+2  -5.52868E+2
  -4.67259E+2  -5.36126E+2
  -5.04442E+2  -5.26683E+2
  -4.84367E+2  -5.00836E+2
  -5.05988E+2  -5.24396E+2
  -5.45160E+2  -4.86025E+2
  -5.76306E+2  -5.51554E+2
  -6.09325E+2  -4.51224E+2
  -5.39169E+2  -5.38639E+2
  -6.10708E+2  -5.15299E+2
  -5.42298E+2  -5.57769E+2
  -5.83717E+2  -5.42487E+2
  -5.71343E+2  -5.06292E+2
  -5.97082E+2  -5.06705E+2
  -6.44695E+2  -5.34035E+2
  -6.29837E+2  -4.87717E+2
  -6.37741E+2  -5.59124E+2
  -5.92869E+2  -4.78540E+2
  -6.17148E+2  -4.97314E+2
  -6.25485E+2  -5.07268E+2
  -6.10449E+2  -5.16067E+2
  -6.72192E+2  -5.00605E+2
  -6.36956E+2  -4.25603E+2
  -6.54034E+2  -5.41138E+2
  -6.29726E+2  -5.36749E+2
  -6.63423E+2  -5.54180E+2
  -6.71578E+2  -3.87698E+2
  -6.68395E+2  -4.86942E+2
  -6.63827E+2  -4.93447E+2
  -6.94903E+2  -5.19537E+2
  -7.07682E+2  -4.77289E+2
  -6.79399E+2  -4.54137E+2
  -7.14169E+2  -4.93239E+2
  -6.61545E+2  -4.67675E+2
  -7.12972E+2  -5.37555E+2
  -6.67558E+2  -5.44043E+2
  -7.44788E+2  -4.79741E+2
  -7.21141E+2  -4.58551E+2
  -6.87515E+2  -5.11572E+2
  -7.19474E+2  -4.65579E+2
  -6.66595E+2  -4.53450E+2
  -6.66823E+2  -4.66491E+2
  -7.49163E+2  -4.55320E+2
  -7.38818E+2  -4.00537E+2
  -7.28742E+2  -3.94346E+2
  -7.30229E+2  -4.92824E+2
  -7.38245E+2  -4.65453E+2
  -7.50732E+2  -5.09070E+2
  -7.28706E+2  -4.05539E+2
  -6.60810E+2  -4.18688E+2
  -7.43280E+2  -4.44618E+2
  -7.78883E+2  -3.90843E+2
  -7.93061E+2  -4.12782E+2
  -7.45418E+2  -4.18963E+2
  -6.99680E+2  -3.28210E+2
  -7.72124E+2  -3.92100E+2
  -7.64650E+2  -3.49152E+2
  -7.28653E+2  -3.96577E+2
  -7.83381E+2  -4.26625E+2
  -7.67037E+2  -3.37163E+2
  -7.76609E+2  -3.59858E+2
  -7.79490E+2  -4.20187E+2
  -7.43539E+2  -3.77964E+2
  -8.06393E+2  -3.84481E+2
  -8.34290E+2  -3.77671E+2
  -7.50817E+2  -3.78126E+2
  -8.04264E+2  -3.54569E+2
  -7.73037E+2  -3.23201E+2
  -7.83751E+2  -3.48187E+2
  -7.81903E+2  -3.30391E+2
  -7.81608E+2  -3.73044E+2
  -7.79081E+2  -3.76107E+2
  -7.92837E+2  -3.85229E+2
  -7.50268E+2  -4.03614E+2
  -8.03003E+2  -3.73760E+2
  -7.90221E+2  -3.76705E+2
  -8.00948E+2  -3.89704E+2
  -8.24991E+2  -3.21447E+2
  -8.13912E+2  -4.15923E+2
  -7.09920E+2  -3.68971E+2
  -7.13596E+2  -3.26286E+2
  -7.38902E+2  -3.88980E+2
  -6.68974E+2  -3.18429E+2
  -7.66032E+2  -3.03430E+2
  -6.51533E+2  -3.81059E+2
  -7.11537E+2  -3.56911E+2
  -7.83392E+2  -3.31583E+2
  -7.16505E+2  -2.61254E+2
