 LCModel (Version 6.3-1N) Copyright: S.W. Provencher.          Ref.: Magn. Reson. Med. 30:672-679 (1993).                
 Slice_N1@19_17  02-Jun-2023 14:36:57
 27 lines in following concentration table = NCONC+1
    Conc.  %SD /Cr+PCr  Metabolite                                         
 1.60E-06  18% 2.2E-04 Mac                                                 
 2.92E-02  27%   4.013 Cr                                                  
 2.91E-02  26%   3.987 PCr                                                 
 7.44E-02  10%  10.206 Ins                                                 
 8.02E-02   7%  11.010 NAA                                                 
 6.10E-02  11%   8.363 Tau                                                 
 1.04E-02  17%   1.431 PCho                                                
    0.000 999%   0.000 GPC                                                 
 6.92E-02  12%   9.498 Glu                                                 
 1.29E-02  45%   1.769 Gln                                                 
    0.000 999%   0.000 Ala                                                 
 2.61E-02  45%   3.580 Asc                                                 
 7.23E-03  87%   0.992 Asp                                                 
 1.03E-02  33%   1.410 GABA                                                
 5.61E-03  73%   0.770 Glc                                                 
 8.28E-03  37%   1.136 GSH                                                 
 7.71E-04 815%   0.106 Lac                                                 
    0.000 999%   0.000 NAAG                                                
    0.000 999%   0.000 PE                                                  
 1.04E-02  17%   1.431 GPC+PCho                                            
 8.02E-02   7%  11.010 NAA+NAAG                                            
 8.21E-02  12%  11.267 Glu+Gln                                             
 5.83E-02   9%   8.000 Cr+PCr                                              
 8.02E-02   7%  11.010 NAA+NAAG                                            
 5.83E-02   9%   8.000 Cr+PCr                                              
 8.21E-02  12%  11.267 Glu+Gln                                             
   6 lines in following misc. output table
  FWHM = 0.023 ppm    S/N =   5                                            
  Data shift = 0.017 ppm                                                   
  Ph: -25 deg     -17.4 deg/ppm                                            
  alphaB,S = 1.7E+00,   4.1E-01                                            
   18 spline knots.   Ns = 5(1)                                            
   3 inflections.     3 extrema                                            
  654 points on ppm-axis = NY
      4.000000     3.994181     3.988363     3.982544     3.976726     3.970907     3.965088     3.959270     3.953451     3.947633
      3.941814     3.935995     3.930177     3.924358     3.918540     3.912721     3.906902     3.901084     3.895265     3.889446
      3.883628     3.877809     3.871991     3.866172     3.860353     3.854535     3.848716     3.842898     3.837079     3.831260
      3.825442     3.819623     3.813805     3.807986     3.802167     3.796349     3.790530     3.784712     3.778893     3.773074
      3.767256     3.761437     3.755619     3.749800     3.743981     3.738163     3.732344     3.726526     3.720707     3.714888
      3.709070     3.703251     3.697433     3.691614     3.685795     3.679977     3.674158     3.668339     3.662521     3.656702
      3.650884     3.645065     3.639246     3.633428     3.627609     3.621791     3.615972     3.610153     3.604335     3.598516
      3.592698     3.586879     3.581060     3.575242     3.569423     3.563605     3.557786     3.551967     3.546149     3.540330
      3.534512     3.528693     3.522874     3.517056     3.511237     3.505419     3.499600     3.493781     3.487963     3.482144
      3.476326     3.470507     3.464688     3.458870     3.453051     3.447232     3.441414     3.435595     3.429777     3.423958
      3.418139     3.412321     3.406502     3.400684     3.394865     3.389046     3.383228     3.377409     3.371591     3.365772
      3.359953     3.354135     3.348316     3.342498     3.336679     3.330860     3.325042     3.319223     3.313405     3.307586
      3.301767     3.295949     3.290130     3.284312     3.278493     3.272674     3.266856     3.261037     3.255219     3.249400
      3.243581     3.237763     3.231944     3.226125     3.220307     3.214488     3.208670     3.202851     3.197032     3.191214
      3.185395     3.179577     3.173758     3.167939     3.162121     3.156302     3.150484     3.144665     3.138846     3.133028
      3.127209     3.121391     3.115572     3.109753     3.103935     3.098116     3.092298     3.086479     3.080660     3.074842
      3.069023     3.063205     3.057386     3.051567     3.045749     3.039930     3.034111     3.028293     3.022474     3.016656
      3.010837     3.005018     2.999200     2.993381     2.987563     2.981744     2.975925     2.970107     2.964288     2.958470
      2.952651     2.946832     2.941014     2.935195     2.929377     2.923558     2.917739     2.911921     2.906102     2.900284
      2.894465     2.888646     2.882828     2.877009     2.871191     2.865372     2.859553     2.853735     2.847916     2.842098
      2.836279     2.830460     2.824642     2.818823     2.813004     2.807186     2.801367     2.795549     2.789730     2.783911
      2.778093     2.772274     2.766456     2.760637     2.754818     2.749000     2.743181     2.737363     2.731544     2.725725
      2.719907     2.714088     2.708270     2.702451     2.696632     2.690814     2.684995     2.679177     2.673358     2.667539
      2.661721     2.655902     2.650084     2.644265     2.638446     2.632628     2.626809     2.620991     2.615172     2.609353
      2.603535     2.597716     2.591897     2.586079     2.580260     2.574442     2.568623     2.562804     2.556986     2.551167
      2.545349     2.539530     2.533711     2.527893     2.522074     2.516256     2.510437     2.504618     2.498800     2.492981
      2.487163     2.481344     2.475525     2.469707     2.463888     2.458070     2.452251     2.446432     2.440614     2.434795
      2.428977     2.423158     2.417339     2.411521     2.405702     2.399884     2.394065     2.388246     2.382428     2.376609
      2.370790     2.364972     2.359153     2.353335     2.347516     2.341697     2.335879     2.330060     2.324242     2.318423
      2.312604     2.306786     2.300967     2.295149     2.289330     2.283511     2.277693     2.271874     2.266056     2.260237
      2.254418     2.248600     2.242781     2.236963     2.231144     2.225325     2.219507     2.213688     2.207870     2.202051
      2.196232     2.190414     2.184595     2.178777     2.172958     2.167139     2.161321     2.155502     2.149683     2.143865
      2.138046     2.132228     2.126409     2.120590     2.114772     2.108953     2.103135     2.097316     2.091497     2.085679
      2.079860     2.074042     2.068223     2.062404     2.056586     2.050767     2.044949     2.039130     2.033311     2.027493
      2.021674     2.015856     2.010037     2.004218     1.998400     1.992581     1.986763     1.980944     1.975126     1.969307
      1.963489     1.957670     1.951852     1.946033     1.940215     1.934397     1.928578     1.922760     1.916941     1.911123
      1.905304     1.899486     1.893667     1.887849     1.882030     1.876212     1.870393     1.864575     1.858756     1.852938
      1.847119     1.841301     1.835482     1.829664     1.823845     1.818027     1.812208     1.806390     1.800571     1.794753
      1.788934     1.783116     1.777297     1.771479     1.765660     1.759842     1.754023     1.748205     1.742386     1.736568
      1.730749     1.724931     1.719113     1.713294     1.707476     1.701657     1.695839     1.690020     1.684202     1.678383
      1.672565     1.666746     1.660928     1.655109     1.649291     1.643472     1.637654     1.631835     1.626017     1.620198
      1.614380     1.608561     1.602743     1.596924     1.591106     1.585287     1.579469     1.573650     1.567832     1.562013
      1.556195     1.550376     1.544558     1.538739     1.532921     1.527102     1.521284     1.515465     1.509647     1.503829
      1.498010     1.492192     1.486373     1.480555     1.474736     1.468918     1.463099     1.457281     1.451462     1.445644
      1.439825     1.434007     1.428188     1.422370     1.416551     1.410733     1.404914     1.399096     1.393277     1.387459
      1.381640     1.375822     1.370003     1.364185     1.358366     1.352548     1.346729     1.340911     1.335092     1.329274
      1.323455     1.317637     1.311818     1.306000     1.300182     1.294363     1.288545     1.282726     1.276908     1.271089
      1.265271     1.259452     1.253634     1.247815     1.241997     1.236178     1.230360     1.224541     1.218723     1.212904
      1.207086     1.201267     1.195449     1.189630     1.183812     1.177993     1.172175     1.166356     1.160538     1.154719
      1.148901     1.143082     1.137264     1.131445     1.125627     1.119808     1.113990     1.108171     1.102353     1.096534
      1.090716     1.084898     1.079079     1.073261     1.067442     1.061624     1.055805     1.049987     1.044168     1.038350
      1.032531     1.026713     1.020894     1.015076     1.009257     1.003439     0.997620     0.991802     0.985983     0.980165
      0.974346     0.968528     0.962709     0.956891     0.951072     0.945254     0.939435     0.933617     0.927798     0.921980
      0.916161     0.910343     0.904524     0.898706     0.892887     0.887069     0.881251     0.875432     0.869614     0.863795
      0.857977     0.852158     0.846340     0.840521     0.834703     0.828884     0.823066     0.817247     0.811429     0.805610
      0.799792     0.793973     0.788155     0.782336     0.776518     0.770699     0.764881     0.759062     0.753244     0.747425
      0.741607     0.735788     0.729970     0.724151     0.718333     0.712514     0.706696     0.700877     0.695059     0.689240
      0.683422     0.677603     0.671785     0.665967     0.660148     0.654330     0.648511     0.642693     0.636874     0.631056
      0.625237     0.619419     0.613600     0.607782     0.601963     0.596145     0.590326     0.584508     0.578689     0.572871
      0.567052     0.561234     0.555415     0.549597     0.543778     0.537960     0.532141     0.526323     0.520504     0.514686
      0.508867     0.503049     0.497230     0.491412     0.485593     0.479775     0.473956     0.468138     0.462319     0.456501
      0.450682     0.444864     0.439045     0.433227     0.427408     0.421590     0.415771     0.409953     0.404134     0.398316
      0.392497     0.386679     0.380860     0.375042     0.369223     0.363405     0.357586     0.351767     0.345949     0.340130
      0.334312     0.328493     0.322675     0.316856     0.311038     0.305219     0.299401     0.293582     0.287764     0.281945
      0.276127     0.270308     0.264490     0.258671     0.252853     0.247034     0.241216     0.235397     0.229579     0.223760
      0.217942     0.212123     0.206305     0.200486
 NY phased data points follow
   1.45506E-04 -2.23002E-02 -1.78282E-01 -4.02250E-02  6.04824E-02  7.88937E-02 -7.24353E-02 -3.59168E-01 -1.07776E-01 -2.84123E-01
  -1.70531E-01  5.51711E-02  7.83879E-02  5.96001E-01  5.12149E-01  3.02860E-01  2.98605E-01  2.18409E-01  9.41615E-02  2.83013E-01
   3.57936E-01 -1.84682E-01 -2.07536E-01 -1.12992E-01 -1.50437E-01 -2.31762E-01 -1.59270E-01  7.09512E-02 -5.73616E-02  1.42986E-01
  -2.66988E-02 -6.00360E-02 -3.72147E-02 -1.45856E-01 -9.45462E-02 -3.22198E-01 -4.65252E-02 -1.25792E-01 -4.48651E-01 -2.97351E-01
   1.14406E-02  6.53604E-02  3.04244E-02  1.27097E-01  2.38227E-01  2.29235E-01  5.00404E-01  6.17402E-01  1.71864E-02  1.56514E-01
   3.96892E-01  2.55728E-01  8.92107E-02 -8.24171E-02 -2.09581E-01 -4.86336E-02  2.62415E-01 -3.29166E-02 -3.09747E-01 -2.73111E-01
  -1.58338E-01 -2.87967E-01 -4.19196E-01 -3.01463E-01 -8.74835E-02 -1.25449E-02 -9.28570E-02 -6.28150E-02 -5.99235E-04  1.29812E-01
   6.73945E-02  7.01208E-02  1.65634E-01  1.52191E-01  3.10317E-02 -1.15753E-01  2.57846E-03 -3.38987E-01 -5.36093E-01 -3.38660E-01
  -3.02525E-01 -3.18404E-01 -2.41993E-01  1.11791E-01  3.69360E-02  2.70693E-01  2.45777E-01  1.29249E-01  3.26419E-01  3.12574E-01
   4.31669E-01  8.20939E-02  3.02277E-01  3.50906E-01  3.35203E-02  1.29370E-01  9.45563E-02  6.87094E-02 -8.76225E-02 -3.99036E-01
  -2.53224E-01  2.56505E-02 -1.28878E-01  9.89458E-02  3.14896E-02  8.56217E-02  4.92070E-01  2.72896E-01  3.48600E-01  5.25090E-01
   4.36844E-01  5.33517E-01  3.56053E-01  4.08242E-01  5.05152E-01  3.94907E-01  3.76938E-01  3.46537E-01  4.43900E-01  2.01972E-01
   1.49096E-01  1.48991E-01  3.21101E-01  1.76464E-01 -1.23307E-01 -9.65132E-02 -5.42766E-02 -1.09403E-02 -3.71550E-01 -3.16434E-01
  -4.95377E-01 -6.53200E-01 -6.77758E-01 -5.14014E-01 -3.06612E-01 -2.57130E-01 -4.69161E-01 -8.07370E-01 -3.51652E-01 -3.76604E-01
  -2.49968E-01  1.10801E-02 -1.89735E-01 -1.01455E-01  2.05254E-01  2.87646E-02  2.04208E-02  1.75523E-01  7.27430E-03  2.52804E-01
   1.86680E-01  2.65277E-01  3.90292E-01 -4.38752E-02 -1.53411E-01  7.80559E-02  2.30707E-01  2.96291E-01  3.43109E-02  1.18127E-01
   4.81380E-01  5.29566E-01  2.49666E-01  5.21427E-01  8.37623E-01  6.37264E-01  1.08919E+00  3.10038E-01 -2.76923E-01 -2.68460E-01
  -6.65089E-01 -5.12737E-01 -6.00789E-01 -3.67036E-01 -2.59491E-01 -2.74893E-01 -3.02891E-01 -4.73911E-01 -5.87228E-01 -5.12309E-01
  -3.49583E-01 -3.25445E-01 -2.22937E-01 -3.26347E-01 -1.90597E-01 -2.29572E-01 -5.24935E-01 -3.09055E-01 -3.35899E-01 -2.33496E-01
  -1.32134E-02 -4.00306E-01 -2.30074E-01 -2.68783E-03 -1.99283E-01 -1.71679E-01 -2.81424E-01 -2.80768E-01  7.63574E-02 -1.43551E-01
  -2.62018E-01  1.75062E-01 -1.56067E-01 -2.38136E-01 -8.98512E-02 -2.47547E-01 -1.41646E-01 -7.11782E-02  1.77367E-01  5.93804E-02
  -1.76890E-01 -8.51855E-03 -1.22838E-01  1.46213E-01  9.20440E-02 -3.26935E-01 -1.96373E-01 -9.03535E-02  6.59552E-02 -2.19717E-03
   3.56032E-02 -5.74725E-02  6.30098E-02  1.62589E-01 -1.58036E-01  2.40653E-01  2.11988E-01  1.19138E-01  2.11680E-01  4.74440E-02
   5.14929E-01  3.31052E-01  3.68321E-01  6.07977E-01 -1.99912E-01  1.52285E-02 -1.03728E-01 -1.45067E-01 -5.00992E-02 -4.21416E-01
   9.93488E-02 -1.66426E-01 -9.18615E-02 -2.56919E-02 -1.85451E-01  6.41707E-02 -1.22421E-01  4.36322E-02  5.60216E-02  1.76561E-02
  -7.00420E-04 -1.91092E-01 -1.64087E-02 -2.04627E-02  5.50179E-02  9.80427E-02 -1.39302E-01  1.89604E-02 -2.14247E-01  1.55812E-02
   2.47002E-01 -2.45411E-02 -2.31390E-03 -1.47678E-02  2.77560E-01  2.45091E-01  1.19585E-01 -2.00740E-02 -5.64905E-02  4.75329E-02
   6.09136E-02  2.80812E-01  1.23051E-01 -1.16463E-01  7.42474E-02 -2.74097E-01 -3.84223E-01  5.49765E-02 -2.63054E-01 -5.12782E-01
  -2.97319E-01 -1.75094E-01 -4.57077E-01 -1.43919E-01 -4.93966E-02 -1.01303E-01  2.61719E-01  3.17699E-01  4.18695E-01  3.19118E-01
   2.92062E-01  1.08923E-01  2.99058E-01  3.14518E-02  5.91739E-02  4.32460E-01 -4.21864E-02 -3.33138E-02  4.40162E-02  8.29464E-02
   3.20653E-01  3.53823E-01  1.64250E-01  2.31740E-01 -1.26754E-01  1.06859E-01  2.17258E-01  8.71167E-02  4.91217E-01  4.03335E-01
   4.88952E-01  1.17843E-01  2.75836E-01  1.42737E-01  7.84014E-02  2.52480E-01 -4.25499E-02  2.14168E-01 -3.20641E-01 -2.87856E-01
  -6.39996E-02 -2.71811E-01 -8.18658E-02 -1.02894E-01 -1.78767E-02 -6.22197E-02 -1.29389E-01  7.76621E-02  2.29236E-01  1.42019E-01
   1.38446E-02  2.09956E-01  2.53055E-01  9.54020E-02 -2.64180E-02 -8.57937E-02 -2.78086E-01 -5.56694E-01 -2.23060E-01 -1.43019E-01
  -1.52212E-01 -4.34265E-01 -1.48290E+00 -1.68430E+00 -1.17973E+00 -7.19720E-01 -4.67763E-01 -2.51006E-01  1.46132E-01  1.39776E-01
  -9.11889E-02 -7.17472E-02  1.48954E-01  1.69810E-01  1.23764E-01  2.63285E-01  2.10856E-01  3.04375E-01  6.61092E-02  1.59794E-01
   4.34628E-01  1.74739E-01  3.05342E-01  1.08916E-01 -6.42629E-02  2.13859E-01  1.07132E-01 -2.76386E-01  2.33422E-02  1.70489E-01
   2.15348E-01  2.15994E-01  1.08806E-01  1.18826E-01 -9.40658E-02  6.32476E-02  3.06925E-02  3.61301E-01 -2.98480E-02  1.73193E-01
   5.20430E-01  3.26695E-02  1.21478E-01 -2.70953E-03  1.66002E-01 -7.89468E-05  3.24057E-01  9.48420E-02  1.23816E-01  1.82150E-01
  -3.14209E-01  1.31667E-01  9.12843E-02  1.01810E-01  9.13949E-02  1.79788E-01  3.28734E-01  3.36856E-01  1.39177E-02  1.85453E-01
   2.18791E-01  5.64708E-02  2.01190E-01 -2.96902E-02  8.70195E-03 -4.55575E-02  1.20357E-02  5.19295E-02  1.30736E-01 -1.61555E-01
  -2.31200E-03 -2.33894E-02 -1.02287E-01 -5.50882E-03 -4.30784E-01 -5.67522E-02 -8.65333E-03 -1.34787E-01 -1.97006E-01 -2.62474E-01
  -2.01965E-01 -2.16773E-01 -3.38030E-01 -1.92538E-01 -9.24056E-02 -2.58262E-01 -3.57912E-01 -2.62216E-01 -3.17185E-01 -3.69296E-01
   3.99499E-02 -1.41701E-01 -1.11156E-01 -1.82925E-01 -9.75026E-02  1.27915E-01  8.06779E-02 -1.13093E-01 -4.17559E-02  1.43687E-02
  -2.91804E-01  8.32562E-02 -4.60465E-02 -5.31535E-03  1.24327E-02  1.31291E-01  2.45914E-01  2.30388E-01  1.15481E-01 -2.04254E-01
   1.99290E-01  2.63059E-01 -3.46135E-02 -2.32673E-01 -1.32760E-01  1.48661E-01  1.66787E-01 -1.17595E-01  1.65864E-01 -2.68936E-01
  -3.98034E-01 -1.67798E-02 -8.35675E-02  3.04658E-01  3.27896E-03 -7.68795E-02 -1.81686E-02 -1.25623E-01  3.02554E-02  1.12033E-01
  -1.96117E-01  3.20477E-02 -5.44516E-02 -6.82547E-02  6.31797E-02 -5.09992E-02  1.76260E-01 -7.59592E-02  7.62044E-02 -2.02848E-01
   2.31949E-01  1.47318E-01  4.41007E-03  1.12619E-01 -3.48644E-01  1.56956E-01 -1.12046E-01 -1.01744E-01  2.11465E-01  1.22965E-01
   3.50542E-03 -7.91226E-02 -1.18605E-01  2.67249E-01  4.92158E-02 -2.59546E-01  7.92680E-02  6.35673E-02  2.77889E-02 -6.32197E-02
  -7.94640E-02 -6.72609E-02  1.75726E-01 -1.12784E-01  1.45102E-01  5.90192E-02 -2.21912E-01  4.43917E-01  3.13897E-01 -9.81253E-03
  -5.34426E-02  5.28123E-02  2.98693E-01  1.96932E-01 -1.07100E-01  1.70098E-01  2.43564E-02  2.30559E-01  1.64518E-01 -2.09301E-01
   2.84104E-02  1.37516E-01  2.48417E-01  1.28547E-02 -5.01245E-02 -3.59088E-01 -2.79777E-01 -2.98516E-01 -2.70997E-01 -2.69507E-01
  -3.96277E-01 -1.62566E-01 -3.90531E-01 -1.58296E-01 -8.33511E-02 -5.68447E-02 -2.09765E-01 -2.95279E-01 -2.16182E-02 -2.54707E-01
  -2.58447E-01 -2.70183E-01 -1.89353E-01  1.02318E-01 -1.44880E-01 -2.65836E-02 -2.01315E-02 -2.05429E-01  5.00966E-02  8.15876E-02
   3.02059E-01 -3.15069E-03 -1.06523E-01  8.55376E-02 -8.30044E-02  5.25706E-02  8.90830E-02  1.24774E-01 -1.47686E-01  3.95424E-02
   1.73341E-01 -1.53675E-01  1.28727E-01 -3.57771E-03  6.70605E-02  1.67659E-01 -1.15841E-01  8.37870E-02  2.31090E-01  3.11773E-01
   2.39758E-01  7.89877E-02 -6.14259E-02  8.43457E-03 -8.15296E-03  1.22036E-01  1.11602E-01 -1.99442E-01  1.83586E-01  2.33238E-01
  -3.15929E-02 -9.07675E-02  5.68028E-02  1.14724E-01  1.90509E-01  8.59424E-02 -4.46881E-02  2.10059E-01 -1.53544E-01 -1.76786E-01
   9.94681E-02  8.82029E-02  5.87052E-02 -1.45949E-01 -7.62345E-02  1.65546E-02 -4.99324E-02 -2.16184E-03  6.87753E-02 -3.24168E-03
  -9.37774E-03  9.85105E-02 -2.16724E-01 -2.37501E-01 -3.29639E-02 -5.66606E-02 -3.52843E-03  1.56231E-01  2.41988E-01 -1.15238E-01
  -1.20019E-01 -8.40198E-02  2.99972E-02  1.97869E-01  1.36437E-01  6.16549E-02  4.26750E-02  9.43560E-02 -1.49900E-02 -6.41531E-02
  -2.53467E-03  1.25564E-01  1.81350E-02  2.87527E-01  7.70667E-02 -1.75477E-01  2.16162E-02  1.10332E-01  1.64429E-01  1.39306E-01
  -6.18249E-03 -1.08438E-01  1.42690E-01 -2.70478E-01  2.21286E-01  2.58688E-01 -2.63016E-01  1.09200E-01  4.01458E-01  4.18192E-01
   1.10935E-01  4.26283E-02  5.80087E-02  3.19066E-01  1.04433E-02  2.67128E-02  4.76779E-02 -5.36788E-02 -1.61538E-01  1.47235E-02
   2.47762E-01 -2.63591E-01  3.79824E-02 -1.55958E-01
 NY points of the fit to the data follow
   8.81713E-02  8.15526E-02  5.07917E-02  2.50629E-02  5.78967E-03 -3.18208E-03 -6.38156E-03  1.86670E-02  6.98884E-02  4.22415E-02
   6.19571E-02  8.42166E-02  2.33983E-01  4.83161E-01  5.58927E-01  5.42579E-01  3.92681E-01  2.75340E-01  1.73514E-01  1.05443E-01
   6.29844E-02  4.16595E-02  2.09039E-02 -2.06858E-03 -2.50121E-02 -4.41945E-02 -6.02203E-02 -7.49710E-02 -8.63053E-02 -1.00217E-01
  -1.12906E-01 -1.25579E-01 -1.40091E-01 -1.57815E-01 -1.82223E-01 -1.77729E-01 -2.13026E-01 -2.48730E-01 -2.24272E-01 -2.29397E-01
  -1.08776E-01 -2.10049E-02  2.25909E-02  1.43162E-01  2.27649E-01  2.85123E-01  3.08672E-01  3.01468E-01  2.37304E-01  2.22416E-01
   1.90141E-01  1.37348E-01  1.17167E-01  8.17563E-02  3.71771E-02 -5.13557E-03 -4.02586E-02 -9.30142E-02 -1.40327E-01 -1.54599E-01
  -2.77608E-01 -2.58520E-01 -2.43214E-01 -3.45461E-01 -1.63942E-01 -2.35163E-01 -1.71051E-01  7.00407E-02  5.92927E-02  2.15845E-01
   3.24719E-01  3.13897E-01  2.63668E-01  2.15557E-01  1.29158E-01  1.28598E-02  2.14436E-02 -1.83253E-02 -2.02769E-01 -2.64244E-01
  -4.43407E-01 -4.08962E-01 -1.66350E-01 -1.54504E-01  1.57495E-02  2.53384E-01  3.29632E-01  3.40601E-01  3.43391E-01  3.15574E-01
   2.67385E-01  2.38655E-01  1.91837E-01  1.53981E-01  1.05906E-01  7.27080E-02  1.54569E-02 -9.22914E-02 -1.95348E-01 -3.10590E-01
  -3.08977E-01 -2.16841E-01 -6.53251E-02  9.34841E-02  1.92693E-01  2.44163E-01  2.64236E-01  2.69002E-01  2.63747E-01  2.64143E-01
   2.64266E-01  2.65193E-01  2.65953E-01  2.66153E-01  2.65830E-01  2.66998E-01  2.69012E-01  2.66948E-01  2.37162E-01  2.81659E-01
   2.46424E-01  2.04126E-01  2.28701E-01  6.53139E-03  9.43680E-02 -8.40861E-02 -1.14119E-01 -1.63088E-01 -3.60412E-01 -3.65649E-01
  -6.29463E-01 -6.00643E-01 -5.41867E-01 -3.26334E-01 -2.53249E-01 -1.97492E-01 -5.28970E-01 -6.35846E-01 -5.10207E-01 -3.93832E-01
  -2.77779E-01 -1.51920E-01 -7.47790E-02 -3.58143E-02 -3.88163E-03  2.23638E-02  4.67035E-02  6.71660E-02  8.62216E-02  1.03483E-01
   1.19806E-01  1.35143E-01  1.51662E-01  1.67696E-01  1.84562E-01  2.04379E-01  2.26912E-01  2.54361E-01  2.87980E-01  3.30044E-01
   3.92254E-01  4.98788E-01  3.68724E-01  3.61102E-01  6.11854E-01  6.81220E-01  8.27605E-01  3.22403E-01 -4.03569E-01 -5.69785E-01
  -6.24223E-01 -5.84688E-01 -5.15089E-01 -3.98986E-01 -3.78279E-01 -3.47837E-01 -3.11775E-01 -2.87185E-01 -2.64724E-01 -2.58150E-01
  -2.40817E-01 -2.19746E-01 -2.09453E-01 -2.00016E-01 -1.93436E-01 -1.88498E-01 -1.82605E-01 -1.74408E-01 -1.67164E-01 -1.60796E-01
  -1.53072E-01 -1.45949E-01 -1.37445E-01 -1.29934E-01 -1.22132E-01 -1.14220E-01 -1.07367E-01 -9.81858E-02 -9.34573E-02 -8.81980E-02
  -8.03902E-02 -7.17989E-02 -5.61685E-02 -5.55853E-02 -6.37728E-02 -6.24882E-02 -5.93393E-02 -4.75125E-02 -4.56690E-02 -5.80218E-02
  -6.41576E-02 -6.88573E-02 -7.13273E-02 -6.91448E-02 -6.82943E-02 -6.48753E-02 -6.44152E-02 -6.42108E-02 -6.36652E-02 -5.90726E-02
  -1.79656E-02 -3.44118E-02 -4.61012E-02 -1.26381E-02  4.31465E-02  2.06173E-01  2.46403E-01  1.62593E-01  1.51331E-01  1.73568E-01
   2.57921E-01  2.94504E-01  2.01812E-01  1.34603E-01  6.68309E-02  9.10591E-03 -2.51777E-02 -3.79024E-02 -4.95779E-02 -5.84034E-02
  -6.68534E-02 -7.71982E-02 -7.91889E-02 -8.89638E-02 -8.72806E-02 -9.41296E-02 -1.00196E-01 -9.60964E-02 -1.08764E-01 -1.02538E-01
  -1.17548E-01 -1.29178E-01 -8.70709E-02 -1.65544E-01 -1.65812E-01 -1.37287E-01 -1.63348E-01 -1.63801E-02 -5.02127E-02 -9.75876E-03
   7.50327E-02  1.06259E-01  1.21726E-01  6.79759E-02  1.48494E-01  1.26168E-01  9.55066E-02  1.01584E-01  7.15955E-02  8.42955E-02
   5.99155E-02  5.10137E-02  2.41769E-02 -7.12143E-03 -4.10127E-02 -7.56566E-02 -1.28798E-01 -1.37513E-01 -1.93310E-01 -2.25064E-01
  -2.41217E-01 -3.52564E-01 -3.01551E-01 -2.90183E-01 -2.07882E-01 -7.49580E-04  9.82884E-02  2.42335E-01  3.20554E-01  2.95012E-01
   2.83938E-01  2.39504E-01  1.91023E-01  1.79236E-01  1.44761E-01  1.60046E-01  1.73020E-01  1.82649E-01  1.98851E-01  2.02397E-01
   1.97729E-01  1.92628E-01  1.87300E-01  1.79341E-01  1.74839E-01  1.70473E-01  1.64449E-01  1.59858E-01  1.52565E-01  1.42322E-01
   1.34411E-01  1.13361E-01  9.90039E-02  7.25503E-02  4.07404E-02  1.64353E-02 -4.48192E-02 -6.96702E-02 -1.30427E-01 -1.55284E-01
  -1.80193E-01 -2.12988E-01 -2.02798E-01 -2.21979E-01 -1.94303E-01 -1.73088E-01 -9.99760E-02 -5.04563E-02  5.54563E-03  4.66862E-02
   1.68327E-02  3.53962E-02 -3.52769E-02 -5.06906E-02 -7.21011E-02 -1.04238E-01 -8.84422E-02 -4.33367E-01 -1.56655E-01 -1.21234E-01
  -2.79357E-01 -4.71114E-01 -1.46633E+00 -1.57742E+00 -1.16033E+00 -8.43969E-01 -5.55886E-01 -2.76451E-01 -1.54916E-01 -1.13239E-01
  -7.93731E-02 -5.51648E-02 -3.54592E-02 -2.17714E-02 -9.74627E-03 -2.72508E-03  4.11542E-03  1.26261E-02  3.24810E-03  1.37699E-02
  -5.22289E-03 -1.07333E-02 -1.89698E-02 -4.35447E-02 -3.89110E-02 -5.28886E-02 -4.10894E-02 -3.46377E-02 -2.08239E-02 -1.16914E-02
  -8.80702E-04  6.21927E-03  1.27351E-02  1.94424E-02  2.42736E-02  2.73085E-02  3.09162E-02  3.42388E-02  3.75351E-02  4.13839E-02
   4.43097E-02  4.58936E-02  4.91431E-02  5.06659E-02  5.47361E-02  5.66652E-02  5.88049E-02  6.03037E-02  6.10348E-02  6.39043E-02
   6.53490E-02  6.89549E-02  7.10411E-02  7.24285E-02  7.23960E-02  7.09428E-02  6.94927E-02  6.85104E-02  6.67023E-02  6.38720E-02
   6.13186E-02  5.73594E-02  5.36363E-02  4.91710E-02  4.35744E-02  3.91828E-02  3.45413E-02  3.12920E-02  2.64819E-02  2.20777E-02
   1.88884E-02  1.48356E-02  1.14968E-02  9.30715E-03  6.63482E-03  4.37791E-03  2.31982E-03 -5.02745E-04 -2.26450E-03 -3.95703E-03
  -5.60235E-03 -6.38472E-03 -7.83842E-03 -7.80348E-03 -7.00704E-03 -5.61623E-03 -4.55544E-03 -2.44869E-03  5.30528E-04  2.95386E-03
   8.08859E-03  1.01273E-02  1.15507E-02  1.29124E-02  1.59010E-02  2.06452E-02  2.58889E-02  3.13393E-02  3.62070E-02  4.15969E-02
   4.72788E-02  5.51630E-02  6.20882E-02  7.06651E-02  7.83922E-02  8.59826E-02  9.40663E-02  1.01827E-01  1.08830E-01  1.13637E-01
   1.18281E-01  1.19436E-01  1.20321E-01  1.20382E-01  1.18576E-01  1.17899E-01  1.16504E-01  1.10132E-01  1.05944E-01  9.76733E-02
   9.17485E-02  9.21831E-02  8.48748E-02  8.25476E-02  7.42929E-02  6.45579E-02  5.81360E-02  5.08616E-02  4.43955E-02  3.92044E-02
   3.53587E-02  3.18691E-02  2.84872E-02  2.57936E-02  2.36709E-02  2.30642E-02  2.37116E-02  2.49874E-02  2.69419E-02  2.88561E-02
   3.17449E-02  3.41578E-02  3.82345E-02  4.21318E-02  4.56269E-02  4.87967E-02  5.05129E-02  5.22720E-02  5.28826E-02  5.47392E-02
   5.77383E-02  5.81112E-02  5.82120E-02  5.83990E-02  5.67360E-02  5.62816E-02  5.38732E-02  5.10238E-02  4.92030E-02  4.71421E-02
   4.49212E-02  4.22530E-02  3.98639E-02  3.75288E-02  3.56017E-02  3.24032E-02  2.94864E-02  2.66357E-02  2.41493E-02  2.27381E-02
   2.03720E-02  1.75793E-02  1.51397E-02  1.23777E-02  8.40671E-03  3.15952E-03 -2.60375E-03 -8.60981E-03 -1.42224E-02 -2.13740E-02
  -3.01377E-02 -4.04932E-02 -5.30151E-02 -6.43638E-02 -7.60173E-02 -8.81030E-02 -9.88279E-02 -1.07839E-01 -1.17246E-01 -1.25549E-01
  -1.32810E-01 -1.37343E-01 -1.38615E-01 -1.39558E-01 -1.39886E-01 -1.37972E-01 -1.34139E-01 -1.29212E-01 -1.24275E-01 -1.20068E-01
  -1.14885E-01 -1.10745E-01 -1.05538E-01 -9.85295E-02 -9.32622E-02 -8.53226E-02 -7.86977E-02 -7.04697E-02 -6.29690E-02 -5.64675E-02
  -4.88421E-02 -4.29074E-02 -3.59194E-02 -2.86474E-02 -2.37129E-02 -1.90810E-02 -1.33200E-02 -8.91864E-03 -3.07623E-03 -3.99107E-04
   2.17819E-03  6.11747E-03  8.94662E-03  1.13366E-02  1.30866E-02  1.47161E-02  1.63092E-02  1.76731E-02  1.91570E-02  1.97930E-02
   2.00031E-02  2.17043E-02  2.29284E-02  2.42742E-02  2.61282E-02  2.78052E-02  2.84409E-02  2.82156E-02  2.92886E-02  2.92847E-02
   2.86787E-02  2.95844E-02  2.93733E-02  2.90164E-02  3.01735E-02  2.91301E-02  2.84523E-02  2.98893E-02  3.08798E-02  3.14202E-02
   3.08065E-02  2.81312E-02  2.75801E-02  2.83652E-02  2.80986E-02  2.84735E-02  2.84511E-02  2.96463E-02  2.84944E-02  2.70421E-02
   2.71348E-02  2.73425E-02  2.90335E-02  2.93866E-02  3.00151E-02  3.09873E-02  3.17915E-02  3.27748E-02  3.27525E-02  3.37429E-02
   3.49100E-02  3.54187E-02  3.59886E-02  3.44543E-02  3.46399E-02  3.52150E-02  3.50790E-02  3.67790E-02  3.86368E-02  3.86651E-02
   4.02639E-02  3.88849E-02  4.02770E-02  4.38249E-02  4.45830E-02  4.67480E-02  4.60330E-02  4.44930E-02  4.48056E-02  4.54036E-02
   4.68015E-02  4.74019E-02  4.71537E-02  4.68379E-02  4.83295E-02  4.86159E-02  4.94670E-02  4.98183E-02  4.96482E-02  5.15909E-02
   5.34516E-02  5.40653E-02  5.46026E-02  5.68966E-02  5.78846E-02  5.89248E-02  6.07288E-02  6.20268E-02  6.60407E-02  6.94035E-02
   7.24692E-02  7.52181E-02  7.71640E-02  8.00044E-02
 NY background values follow
     4.003E-02    3.996E-02    3.989E-02    3.982E-02    3.975E-02    3.967E-02    3.960E-02    3.953E-02    3.946E-02    3.939E-02
     3.932E-02    3.925E-02    3.918E-02    3.911E-02    3.903E-02    3.896E-02    3.889E-02    3.882E-02    3.875E-02    3.868E-02
     3.861E-02    3.854E-02    3.846E-02    3.839E-02    3.832E-02    3.825E-02    3.818E-02    3.811E-02    3.804E-02    3.796E-02
     3.789E-02    3.782E-02    3.775E-02    3.768E-02    3.761E-02    3.754E-02    3.746E-02    3.739E-02    3.732E-02    3.725E-02
     3.718E-02    3.710E-02    3.703E-02    3.696E-02    3.689E-02    3.682E-02    3.674E-02    3.667E-02    3.660E-02    3.653E-02
     3.645E-02    3.638E-02    3.631E-02    3.624E-02    3.616E-02    3.609E-02    3.602E-02    3.594E-02    3.587E-02    3.580E-02
     3.572E-02    3.565E-02    3.558E-02    3.550E-02    3.543E-02    3.536E-02    3.528E-02    3.521E-02    3.513E-02    3.506E-02
