 
 $NMID
 ID=''
 FMTDAT='(2E13.5)'
 TRAMP=   1.00000E+0
 VOLUME=   1.00000E+0
 $END
   1.05954E+3   1.84543E+4
  -1.03211E+4   4.64671E+4
  -1.35053E+3   4.76969E+4
  -3.13022E+2   4.40859E+4
  -8.84086E+2   4.58210E+4
   2.11368E+3   4.60841E+4
   2.78171E+3   4.43241E+4
   2.88732E+3   4.49624E+4
   5.11850E+3   4.48988E+4
   5.84000E+3   4.33946E+4
   6.17145E+3   4.33422E+4
   7.87528E+3   4.29207E+4
   8.76677E+3   4.17091E+4
   8.88904E+3   4.15599E+4
   1.01751E+4   4.11367E+4
   1.10034E+4   4.00495E+4
   1.15040E+4   3.97224E+4
   1.26501E+4   3.92954E+4
   1.35504E+4   3.83197E+4
   1.40588E+4   3.79628E+4
   1.52270E+4   3.73625E+4
   1.62285E+4   3.65016E+4
   1.68621E+4   3.60709E+4
   1.78788E+4   3.56587E+4
   1.88002E+4   3.47566E+4
   1.95472E+4   3.43300E+4
   2.05174E+4   3.38473E+4
   2.12125E+4   3.31783E+4
   2.16980E+4   3.26622E+4
   2.25583E+4   3.19396E+4
   2.33161E+4   3.11540E+4
   2.40453E+4   3.05430E+4
   2.48319E+4   2.98442E+4
   2.53220E+4   2.89551E+4
   2.60327E+4   2.80949E+4
   2.67455E+4   2.72605E+4
   2.73690E+4   2.63257E+4
   2.79071E+4   2.53856E+4
   2.85812E+4   2.44530E+4
   2.92127E+4   2.36306E+4
   2.97500E+4   2.28250E+4
   3.02650E+4   2.20519E+4
   3.07118E+4   2.11869E+4
   3.11357E+4   2.03156E+4
   3.16189E+4   1.94253E+4
   3.21123E+4   1.85402E+4
   3.25188E+4   1.77142E+4
   3.29083E+4   1.69117E+4
   3.32718E+4   1.61048E+4
   3.35656E+4   1.53270E+4
   3.39208E+4   1.46083E+4
   3.41043E+4   1.37371E+4
   3.42888E+4   1.28829E+4
   3.45599E+4   1.20419E+4
   3.46906E+4   1.13032E+4
   3.48839E+4   1.05346E+4
   3.49861E+4   9.86277E+3
   3.51306E+4   9.13034E+3
   3.51572E+4   8.38525E+3
   3.51319E+4   7.52814E+3
   3.50888E+4   6.70724E+3
   3.50330E+4   5.97952E+3
   3.49540E+4   5.11262E+3
   3.49184E+4   4.41939E+3
   3.46951E+4   3.63014E+3
   3.45852E+4   2.87719E+3
   3.45047E+4   2.01780E+3
   3.43223E+4   1.30882E+3
   3.40186E+4   5.75927E+2
   3.37871E+4  -9.99187E+1
   3.35505E+4  -9.22373E+2
   3.32695E+4  -1.68704E+3
   3.30044E+4  -2.38313E+3
   3.25686E+4  -3.16929E+3
   3.23104E+4  -3.94952E+3
   3.19846E+4  -4.72049E+3
   3.16276E+4  -5.47670E+3
   3.12360E+4  -6.18585E+3
   3.07840E+4  -6.92599E+3
   3.03963E+4  -7.75338E+3
   2.99569E+4  -8.45960E+3
   2.95519E+4  -9.11422E+3
   2.90578E+4  -9.80040E+3
   2.87138E+4  -1.04977E+4
   2.81699E+4  -1.11438E+4
   2.77671E+4  -1.16801E+4
   2.72923E+4  -1.23318E+4
   2.67841E+4  -1.29067E+4
   2.62409E+4  -1.35293E+4
   2.57747E+4  -1.42093E+4
   2.53002E+4  -1.47992E+4
   2.47208E+4  -1.53582E+4
   2.42556E+4  -1.58636E+4
   2.36762E+4  -1.64594E+4
   2.31032E+4  -1.69817E+4
   2.25430E+4  -1.74079E+4
   2.19095E+4  -1.79505E+4
   2.14270E+4  -1.84149E+4
   2.08406E+4  -1.89676E+4
   2.03592E+4  -1.92639E+4
   1.97712E+4  -1.96757E+4
   1.91924E+4  -2.00891E+4
   1.85873E+4  -2.04994E+4
   1.80235E+4  -2.09038E+4
   1.75306E+4  -2.12202E+4
   1.69506E+4  -2.15256E+4
   1.63032E+4  -2.17811E+4
   1.56537E+4  -2.20909E+4
   1.51560E+4  -2.23057E+4
   1.45671E+4  -2.25454E+4
   1.39054E+4  -2.27957E+4
   1.33589E+4  -2.31053E+4
   1.28116E+4  -2.32962E+4
   1.21564E+4  -2.34762E+4
   1.16271E+4  -2.36712E+4
   1.10701E+4  -2.37870E+4
   1.04906E+4  -2.39323E+4
   9.90230E+3  -2.39866E+4
   9.29134E+3  -2.41420E+4
   8.75982E+3  -2.42727E+4
   8.20809E+3  -2.43456E+4
   7.74396E+3  -2.45092E+4
   7.16806E+3  -2.45390E+4
   6.75965E+3  -2.45191E+4
   6.22981E+3  -2.46014E+4
   5.61617E+3  -2.46755E+4
   5.19202E+3  -2.46114E+4
   4.73376E+3  -2.44971E+4
   4.19400E+3  -2.46382E+4
   3.79118E+3  -2.46282E+4
   3.33568E+3  -2.45417E+4
   2.94416E+3  -2.44874E+4
   2.37487E+3  -2.44158E+4
   1.96411E+3  -2.43650E+4
   1.64116E+3  -2.42743E+4
   1.22315E+3  -2.40934E+4
   8.28662E+2  -2.39305E+4
   4.66450E+2  -2.37952E+4
   3.31091E+1  -2.37001E+4
  -3.35109E+2  -2.35702E+4
  -6.79756E+2  -2.33434E+4
  -1.01792E+3  -2.31572E+4
  -1.39474E+3  -2.30076E+4
  -1.74416E+3  -2.27933E+4
  -2.05771E+3  -2.26096E+4
  -2.39872E+3  -2.23520E+4
  -2.77010E+3  -2.21224E+4
  -2.99465E+3  -2.18595E+4
  -3.30972E+3  -2.16612E+4
  -3.60259E+3  -2.14080E+4
  -3.88907E+3  -2.11170E+4
  -4.22893E+3  -2.08350E+4
  -4.40769E+3  -2.05388E+4
  -4.74423E+3  -2.02918E+4
  -5.02997E+3  -1.99660E+4
  -5.29945E+3  -1.96847E+4
  -5.51163E+3  -1.94174E+4
  -5.73609E+3  -1.90886E+4
  -6.00326E+3  -1.87959E+4
  -6.27194E+3  -1.85166E+4
  -6.40807E+3  -1.82219E+4
  -6.65817E+3  -1.79622E+4
  -6.87618E+3  -1.76201E+4
  -7.02523E+3  -1.73329E+4
  -7.23690E+3  -1.70130E+4
  -7.43720E+3  -1.66681E+4
  -7.64306E+3  -1.63723E+4
  -7.78681E+3  -1.59812E+4
  -8.00680E+3  -1.57290E+4
  -8.11093E+3  -1.53761E+4
  -8.23872E+3  -1.51326E+4
  -8.39940E+3  -1.47152E+4
  -8.48461E+3  -1.44098E+4
  -8.63363E+3  -1.41236E+4
  -8.75225E+3  -1.38076E+4
  -8.88293E+3  -1.34627E+4
  -8.99189E+3  -1.31500E+4
  -9.03219E+3  -1.28276E+4
  -9.13412E+3  -1.24965E+4
  -9.20827E+3  -1.23148E+4
  -9.22408E+3  -1.19949E+4
  -9.37396E+3  -1.16476E+4
  -9.39153E+3  -1.13211E+4
  -9.43051E+3  -1.09941E+4
  -9.47414E+3  -1.07066E+4
  -9.50511E+3  -1.03927E+4
  -9.49480E+3  -1.01108E+4
  -9.57765E+3  -9.85021E+3
  -9.59984E+3  -9.49461E+3
  -9.54542E+3  -9.18382E+3
  -9.53385E+3  -8.80368E+3
  -9.59820E+3  -8.52866E+3
  -9.59844E+3  -8.28068E+3
  -9.54317E+3  -7.93849E+3
  -9.50028E+3  -7.70020E+3
  -9.51512E+3  -7.44035E+3
  -9.54355E+3  -7.10139E+3
  -9.49052E+3  -6.87447E+3
  -9.47073E+3  -6.54124E+3
  -9.45298E+3  -6.26164E+3
  -9.42236E+3  -6.04039E+3
  -9.34853E+3  -5.80109E+3
  -9.29371E+3  -5.53688E+3
  -9.31404E+3  -5.20524E+3
  -9.27767E+3  -4.91383E+3
  -9.23696E+3  -4.75467E+3
  -9.09184E+3  -4.46854E+3
  -9.14583E+3  -4.23515E+3
  -9.03317E+3  -4.00114E+3
  -9.01200E+3  -3.77540E+3
  -8.89941E+3  -3.54062E+3
  -8.80274E+3  -3.27776E+3
  -8.80588E+3  -3.09036E+3
  -8.68090E+3  -2.83867E+3
  -8.66647E+3  -2.60388E+3
  -8.59087E+3  -2.46860E+3
  -8.54204E+3  -2.28442E+3
  -8.46551E+3  -2.15439E+3
  -8.28369E+3  -1.85169E+3
  -8.19515E+3  -1.68118E+3
  -8.17759E+3  -1.45365E+3
  -8.03895E+3  -1.28004E+3
  -7.88972E+3  -1.13189E+3
  -7.91001E+3  -9.62355E+2
  -7.75114E+3  -8.22089E+2
  -7.68077E+3  -5.72864E+2
  -7.58251E+3  -4.69450E+2
  -7.47808E+3  -3.67463E+2
  -7.34765E+3  -2.12396E+2
  -7.32510E+3  -1.59874E+1
  -7.15713E+3   1.18584E+2
  -7.06134E+3   2.47805E+2
  -6.97944E+3   4.09499E+2
  -6.85618E+3   5.44109E+2
  -6.72114E+3   6.54105E+2
  -6.62853E+3   8.28792E+2
  -6.49108E+3   1.04472E+3
  -6.39351E+3   1.04972E+3
  -6.28091E+3   1.17996E+3
  -6.15920E+3   1.28138E+3
  -6.04926E+3   1.38438E+3
  -5.92161E+3   1.50952E+3
  -5.82395E+3   1.54647E+3
  -5.74511E+3   1.73959E+3
  -5.65225E+3   1.80487E+3
  -5.51388E+3   1.93184E+3
  -5.40413E+3   1.96679E+3
  -5.31132E+3   2.11637E+3
  -5.16059E+3   2.06207E+3
  -5.03752E+3   2.25577E+3
  -4.99835E+3   2.34636E+3
  -4.83077E+3   2.39615E+3
  -4.73709E+3   2.47891E+3
  -4.61321E+3   2.54444E+3
  -4.51110E+3   2.70050E+3
  -4.44409E+3   2.71781E+3
  -4.37246E+3   2.75075E+3
  -4.15060E+3   2.78711E+3
  -4.10943E+3   2.80646E+3
  -4.01778E+3   2.81788E+3
  -3.99431E+3   2.90015E+3
  -3.85538E+3   2.97426E+3
  -3.62985E+3   3.00794E+3
  -3.66481E+3   3.03556E+3
  -3.50417E+3   3.08716E+3
  -3.37492E+3   3.06741E+3
  -3.28077E+3   3.13020E+3
  -3.18820E+3   3.14441E+3
  -2.99048E+3   3.13181E+3
  -2.91318E+3   3.13176E+3
  -2.80693E+3   3.20533E+3
  -2.74218E+3   3.22110E+3
  -2.61191E+3   3.23159E+3
  -2.58713E+3   3.25634E+3
  -2.46744E+3   3.23201E+3
  -2.28853E+3   3.26801E+3
  -2.20779E+3   3.30203E+3
  -2.14885E+3   3.28200E+3
  -2.00612E+3   3.19159E+3
  -1.91043E+3   3.26893E+3
  -1.76863E+3   3.23645E+3
  -1.79400E+3   3.24175E+3
  -1.58512E+3   3.22064E+3
  -1.52281E+3   3.16579E+3
  -1.36724E+3   3.24438E+3
  -1.39862E+3   3.19235E+3
  -1.36299E+3   3.17095E+3
  -1.16244E+3   3.07416E+3
  -1.10427E+3   3.11516E+3
  -9.89675E+2   3.07463E+3
  -9.50091E+2   3.04256E+3
  -8.11196E+2   3.06067E+3
  -8.11655E+2   3.02648E+3
  -6.43834E+2   3.04019E+3
  -6.61121E+2   2.99717E+3
  -5.36895E+2   2.98302E+3
  -4.26830E+2   2.91648E+3
  -4.15792E+2   2.91716E+3
  -3.61609E+2   2.82764E+3
  -2.51834E+2   2.77048E+3
  -1.90381E+2   2.77190E+3
  -1.60093E+2   2.71507E+3
  -8.99358E+1   2.69838E+3
  -1.33443E+1   2.67142E+3
   6.36593E+1   2.56914E+3
   7.52844E+1   2.55763E+3
   9.44475E+1   2.49821E+3
   2.12111E+2   2.47794E+3
   3.40852E+2   2.41922E+3
   3.75952E+2   2.36999E+3
   4.09903E+2   2.28320E+3
   4.49311E+2   2.20387E+3
   4.82068E+2   2.15388E+3
   4.87805E+2   2.03598E+3
   5.88915E+2   2.10922E+3
   6.15376E+2   2.00206E+3
   7.12164E+2   1.98651E+3
   7.00490E+2   1.89753E+3
   7.85920E+2   1.83457E+3
   8.23882E+2   1.80230E+3
   8.33606E+2   1.65157E+3
   9.67455E+2   1.68463E+3
   8.67415E+2   1.61218E+3
   8.82970E+2   1.65570E+3
   9.75114E+2   1.48161E+3
   9.69290E+2   1.43970E+3
   1.09073E+3   1.41182E+3
   1.09058E+3   1.32287E+3
   1.05325E+3   1.27284E+3
   1.08181E+3   1.23316E+3
   1.13587E+3   1.09164E+3
   1.15063E+3   1.14565E+3
   1.24621E+3   1.09736E+3
   1.19436E+3   1.02406E+3
   1.26716E+3   9.74348E+2
   1.24478E+3   9.07622E+2
   1.23274E+3   8.55073E+2
   1.33950E+3   7.85992E+2
   1.22085E+3   7.08378E+2
   1.31519E+3   6.69055E+2
   1.31248E+3   5.50856E+2
   1.36397E+3   5.60835E+2
   1.30066E+3   4.80919E+2
   1.39244E+3   5.36000E+2
   1.37325E+3   3.62769E+2
   1.33395E+3   3.40913E+2
   1.31900E+3   2.63207E+2
   1.34618E+3   2.02181E+2
   1.35818E+3   1.98601E+2
   1.33818E+3   2.14231E+2
   1.30401E+3   8.27794E+1
   1.36580E+3   9.88273E+1
   1.33931E+3   2.29426E+1
   1.38522E+3  -5.86120E+1
   1.30895E+3  -8.68675E+1
   1.32348E+3  -1.23591E+2
   1.32174E+3  -1.30691E+2
   1.28789E+3  -2.66700E+2
   1.30616E+3  -2.74721E+2
   1.36037E+3  -3.12267E+2
   1.29177E+3  -3.33695E+2
   1.26524E+3  -3.78139E+2
   1.20554E+3  -4.07708E+2
   1.29318E+3  -4.16642E+2
   1.17466E+3  -4.94089E+2
   1.19048E+3  -4.71335E+2
   1.12563E+3  -5.97348E+2
