 
 $NMID
 ID=''
 FMTDAT='(2E13.5)'
 TRAMP=   1.00000E+0
 VOLUME=   1.00000E+0
 $END
  -2.20105E+4   1.99543E+3
  -5.58277E+4  -1.08577E+4
  -5.68739E+4  -7.33719E+2
  -5.24105E+4  -5.30171E+2
  -5.43519E+4  -2.08528E+3
  -5.44489E+4   3.78646E+2
  -5.22844E+4  -1.61044E+2
  -5.29588E+4  -1.23129E+3
  -5.30623E+4   3.57886E+2
  -5.16733E+4  -1.06362E+1
  -5.19645E+4  -6.79502E+2
  -5.18775E+4   5.67065E+2
  -5.08768E+4   5.75400E+2
  -5.11225E+4  -7.72895E+1
  -5.09049E+4   6.92139E+2
  -5.00848E+4   6.88174E+2
  -5.01567E+4   3.98245E+2
  -4.99640E+4   9.55029E+2
  -4.92503E+4   1.17903E+3
  -4.92570E+4   9.00411E+2
  -4.89361E+4   1.41707E+3
  -4.83367E+4   1.67317E+3
  -4.83873E+4   1.59129E+3
  -4.81117E+4   1.81456E+3
  -4.73789E+4   1.91142E+3
  -4.73868E+4   1.98280E+3
  -4.71269E+4   2.16572E+3
  -4.66518E+4   2.15997E+3
  -4.64468E+4   1.98020E+3
  -4.60885E+4   2.22793E+3
  -4.56548E+4   2.32440E+3
  -4.56160E+4   2.33429E+3
  -4.53620E+4   2.43618E+3
  -4.48787E+4   2.47212E+3
  -4.46571E+4   2.55439E+3
  -4.43787E+4   2.73785E+3
  -4.38757E+4   2.78232E+3
  -4.36364E+4   2.95238E+3
  -4.34273E+4   3.13175E+3
  -4.30700E+4   3.17717E+3
  -4.28345E+4   3.26482E+3
  -4.26891E+4   3.26075E+3
  -4.21842E+4   3.10786E+3
  -4.18707E+4   3.27057E+3
  -4.16396E+4   3.43369E+3
  -4.13514E+4   3.41487E+3
  -4.10164E+4   3.43113E+3
  -4.07685E+4   3.47400E+3
  -4.05207E+4   3.62590E+3
  -4.02072E+4   3.60836E+3
  -4.00434E+4   3.69921E+3
  -3.96653E+4   3.62274E+3
  -3.93518E+4   3.81952E+3
  -3.90242E+4   3.81492E+3
  -3.87677E+4   3.94158E+3
  -3.85268E+4   4.00188E+3
  -3.83241E+4   3.89836E+3
  -3.80148E+4   3.89262E+3
  -3.77009E+4   3.88817E+3
  -3.73868E+4   3.91009E+3
  -3.70210E+4   3.99168E+3
  -3.67625E+4   4.09610E+3
  -3.66450E+4   4.16297E+3
  -3.63622E+4   4.09913E+3
  -3.60412E+4   4.12768E+3
  -3.57001E+4   4.16722E+3
  -3.54574E+4   4.27146E+3
  -3.52466E+4   4.30401E+3
  -3.50198E+4   4.24300E+3
  -3.46983E+4   4.25358E+3
  -3.44186E+4   4.31959E+3
  -3.42047E+4   4.37749E+3
  -3.39170E+4   4.43029E+3
  -3.36856E+4   4.42632E+3
  -3.34167E+4   4.49486E+3
  -3.30960E+4   4.59466E+3
  -3.28073E+4   4.60918E+3
  -3.25695E+4   4.65500E+3
  -3.22965E+4   4.72400E+3
  -3.20402E+4   4.82674E+3
  -3.18259E+4   4.88068E+3
  -3.15268E+4   5.02728E+3
  -3.12919E+4   5.03964E+3
  -3.10656E+4   5.05882E+3
  -3.08513E+4   5.08386E+3
  -3.06709E+4   5.08010E+3
  -3.03374E+4   5.05197E+3
  -3.01145E+4   5.18065E+3
  -2.97616E+4   5.19106E+3
  -2.96502E+4   5.32812E+3
  -2.93791E+4   5.30304E+3
  -2.91619E+4   5.38699E+3
  -2.88941E+4   5.49909E+3
  -2.87528E+4   5.50990E+3
  -2.84795E+4   5.54455E+3
  -2.82379E+4   5.58201E+3
  -2.79641E+4   5.65311E+3
  -2.77789E+4   5.68296E+3
  -2.75830E+4   5.62954E+3
  -2.74114E+4   5.72821E+3
  -2.72304E+4   5.74701E+3
  -2.69396E+4   5.78109E+3
  -2.67476E+4   5.94982E+3
  -2.65928E+4   5.98910E+3
  -2.64781E+4   5.87759E+3
  -2.62579E+4   5.90357E+3
  -2.60520E+4   5.98085E+3
  -2.59328E+4   6.05484E+3
  -2.56325E+4   5.90530E+3
  -2.55103E+4   5.98763E+3
  -2.53156E+4   6.07569E+3
  -2.51102E+4   6.16435E+3
  -2.49606E+4   6.14995E+3
  -2.47878E+4   6.11809E+3
  -2.46391E+4   6.06686E+3
  -2.44387E+4   6.02586E+3
  -2.42490E+4   5.98198E+3
  -2.41177E+4   6.05306E+3
  -2.39737E+4   6.02212E+3
  -2.37017E+4   6.03869E+3
  -2.35812E+4   6.09930E+3
  -2.34333E+4   6.02377E+3
  -2.33067E+4   5.94744E+3
  -2.30966E+4   5.94678E+3
  -2.29307E+4   5.89825E+3
  -2.27681E+4   5.90215E+3
  -2.25309E+4   5.82528E+3
  -2.23719E+4   5.91743E+3
  -2.21859E+4   5.79745E+3
  -2.20535E+4   5.77976E+3
  -2.18795E+4   5.77565E+3
  -2.17612E+4   5.70474E+3
  -2.15104E+4   5.75126E+3
  -2.14300E+4   5.67827E+3
  -2.12596E+4   5.71837E+3
  -2.10921E+4   5.64057E+3
  -2.08801E+4   5.55107E+3
  -2.07526E+4   5.61238E+3
  -2.06072E+4   5.53934E+3
  -2.04495E+4   5.63591E+3
  -2.02798E+4   5.55266E+3
  -2.01358E+4   5.48266E+3
  -1.99903E+4   5.48538E+3
  -1.98574E+4   5.54443E+3
  -1.97304E+4   5.34221E+3
  -1.95722E+4   5.35844E+3
  -1.94221E+4   5.38570E+3
  -1.92890E+4   5.39458E+3
  -1.91601E+4   5.31709E+3
  -1.90045E+4   5.26069E+3
  -1.89063E+4   5.20757E+3
  -1.87284E+4   5.14855E+3
  -1.86504E+4   5.13064E+3
  -1.84378E+4   5.09507E+3
  -1.83487E+4   5.08065E+3
  -1.82047E+4   5.05954E+3
  -1.81176E+4   5.05885E+3
  -1.79688E+4   4.93669E+3
  -1.77571E+4   4.96129E+3
  -1.76937E+4   4.92270E+3
  -1.75829E+4   4.89023E+3
  -1.74428E+4   4.81334E+3
  -1.73450E+4   4.85902E+3
  -1.71785E+4   4.81564E+3
  -1.70282E+4   4.71908E+3
  -1.69585E+4   4.65952E+3
  -1.68314E+4   4.66235E+3
  -1.67014E+4   4.69194E+3
  -1.65349E+4   4.65789E+3
  -1.65331E+4   4.64208E+3
  -1.64393E+4   4.52790E+3
  -1.62415E+4   4.50031E+3
  -1.61154E+4   4.51453E+3
  -1.59685E+4   4.39097E+3
  -1.58118E+4   4.45541E+3
  -1.57361E+4   4.38320E+3
  -1.56047E+4   4.32605E+3
  -1.54877E+4   4.41665E+3
  -1.54116E+4   4.33795E+3
  -1.52768E+4   4.27284E+3
  -1.51674E+4   4.33199E+3
  -1.50632E+4   4.19292E+3
  -1.49158E+4   4.17347E+3
  -1.48706E+4   4.22433E+3
  -1.47224E+4   4.13822E+3
  -1.45923E+4   4.10620E+3
  -1.45301E+4   4.09889E+3
  -1.44388E+4   4.15059E+3
  -1.42912E+4   4.00668E+3
  -1.41463E+4   4.01582E+3
  -1.40916E+4   3.99968E+3
  -1.39123E+4   4.03127E+3
  -1.39623E+4   3.99736E+3
  -1.37939E+4   3.93214E+3
  -1.36905E+4   3.84154E+3
  -1.35609E+4   3.85849E+3
  -1.34356E+4   3.91293E+3
  -1.34116E+4   3.87560E+3
  -1.33200E+4   3.75570E+3
  -1.32551E+4   3.79095E+3
  -1.30718E+4   3.84208E+3
  -1.30542E+4   3.77881E+3
  -1.29803E+4   3.73045E+3
  -1.28073E+4   3.74746E+3
  -1.27146E+4   3.72487E+3
  -1.26709E+4   3.75194E+3
  -1.25716E+4   3.63418E+3
  -1.25253E+4   3.69668E+3
  -1.23628E+4   3.67994E+3
  -1.22852E+4   3.64199E+3
  -1.22095E+4   3.63365E+3
  -1.21807E+4   3.65450E+3
  -1.20217E+4   3.66517E+3
  -1.19243E+4   3.66282E+3
  -1.18808E+4   3.61427E+3
  -1.18404E+4   3.64558E+3
  -1.17004E+4   3.62546E+3
  -1.16230E+4   3.60282E+3
  -1.16015E+4   3.62027E+3
  -1.14584E+4   3.58291E+3
  -1.13793E+4   3.58494E+3
  -1.13729E+4   3.57106E+3
  -1.11330E+4   3.57820E+3
  -1.11793E+4   3.52168E+3
  -1.10391E+4   3.48408E+3
  -1.09659E+4   3.50651E+3
  -1.08966E+4   3.47341E+3
  -1.08332E+4   3.49147E+3
  -1.07726E+4   3.53204E+3
  -1.07402E+4   3.47656E+3
  -1.07069E+4   3.47440E+3
  -1.05474E+4   3.46419E+3
  -1.05277E+4   3.41903E+3
  -1.04632E+4   3.45547E+3
  -1.02815E+4   3.39583E+3
  -1.02206E+4   3.40002E+3
  -1.02546E+4   3.43072E+3
  -1.00820E+4   3.43603E+3
  -1.00484E+4   3.37149E+3
  -9.97090E+3   3.40684E+3
  -9.82682E+3   3.39611E+3
  -9.85035E+3   3.40910E+3
  -9.78412E+3   3.38349E+3
  -9.70332E+3   3.39195E+3
  -9.61447E+3   3.31157E+3
  -9.59663E+3   3.35527E+3
  -9.46553E+3   3.26993E+3
  -9.45336E+3   3.31992E+3
  -9.22474E+3   3.32439E+3
  -9.30733E+3   3.36354E+3
  -9.22566E+3   3.25453E+3
  -9.12576E+3   3.19295E+3
  -9.01560E+3   3.17886E+3
  -9.03466E+3   3.16969E+3
  -8.96009E+3   3.22226E+3
  -8.91708E+3   3.16525E+3
  -8.79431E+3   3.13396E+3
  -8.73504E+3   3.06683E+3
  -8.68561E+3   3.22721E+3
  -8.63313E+3   3.27425E+3
  -8.56444E+3   3.13052E+3
  -8.50995E+3   3.10513E+3
  -8.37376E+3   3.12869E+3
  -8.35470E+3   3.05703E+3
  -8.36015E+3   3.09066E+3
  -8.25915E+3   3.12143E+3
  -8.14675E+3   3.11909E+3
  -8.11563E+3   3.07273E+3
  -8.06669E+3   3.06808E+3
  -8.00727E+3   3.04751E+3
  -7.89044E+3   3.02997E+3
  -7.78798E+3   3.09511E+3
  -7.79486E+3   3.08726E+3
  -7.78645E+3   3.00631E+3
  -7.70432E+3   3.00392E+3
  -7.61902E+3   2.91349E+3
  -7.52180E+3   3.01677E+3
  -7.48244E+3   2.93779E+3
  -7.39328E+3   2.96042E+3
  -7.39461E+3   2.91085E+3
  -7.31621E+3   2.93385E+3
  -7.30394E+3   2.91231E+3
  -7.19199E+3   2.95703E+3
  -7.21248E+3   2.88319E+3
  -7.10530E+3   2.87482E+3
  -7.05436E+3   2.86741E+3
  -6.97935E+3   2.86101E+3
  -7.00700E+3   2.82742E+3
  -6.86066E+3   2.83800E+3
  -6.86181E+3   2.82012E+3
  -6.76193E+3   2.76836E+3
  -6.73639E+3   2.77534E+3
  -6.72056E+3   2.75567E+3
  -6.62429E+3   2.80763E+3
  -6.52418E+3   2.72169E+3
  -6.50512E+3   2.69379E+3
  -6.51255E+3   2.69684E+3
  -6.47733E+3   2.63934E+3
  -6.38679E+3   2.72655E+3
  -6.32045E+3   2.62425E+3
  -6.29135E+3   2.60922E+3
  -6.22839E+3   2.61308E+3
  -6.13323E+3   2.64593E+3
  -6.06155E+3   2.65535E+3
  -6.02953E+3   2.62175E+3
  -6.05017E+3   2.57499E+3
  -5.97388E+3   2.55107E+3
  -5.86355E+3   2.58082E+3
  -5.83857E+3   2.56382E+3
  -5.84458E+3   2.53928E+3
  -5.80889E+3   2.53151E+3
  -5.68168E+3   2.50633E+3
  -5.67986E+3   2.51045E+3
  -5.56034E+3   2.52613E+3
  -5.55255E+3   2.45708E+3
  -5.58633E+3   2.40127E+3
  -5.44729E+3   2.47451E+3
  -5.46240E+3   2.51781E+3
  -5.38146E+3   2.48651E+3
  -5.34198E+3   2.42907E+3
  -5.27589E+3   2.38822E+3
  -5.22180E+3   2.38473E+3
  -5.24702E+3   2.40677E+3
  -5.23190E+3   2.41604E+3
  -5.11568E+3   2.33177E+3
  -5.09642E+3   2.34824E+3
  -5.04701E+3   2.42360E+3
  -5.08466E+3   2.24102E+3
  -4.99825E+3   2.33377E+3
  -4.91278E+3   2.28741E+3
  -4.91780E+3   2.33206E+3
  -4.94666E+3   2.34236E+3
  -4.85082E+3   2.29455E+3
  -4.77197E+3   2.29662E+3
  -4.79314E+3   2.18271E+3
  -4.70156E+3   2.23963E+3
  -4.67390E+3   2.22391E+3
  -4.64788E+3   2.16076E+3
  -4.58872E+3   2.22216E+3
  -4.60607E+3   2.16426E+3
  -4.54673E+3   2.10357E+3
  -4.57257E+3   2.12224E+3
  -4.41887E+3   2.19891E+3
  -4.45351E+3   2.16136E+3
  -4.40687E+3   2.16301E+3
  -4.38495E+3   2.13742E+3
  -4.36026E+3   2.08008E+3
  -4.27606E+3   2.07844E+3
  -4.27670E+3   2.05329E+3
  -4.23742E+3   2.05717E+3
  -4.18042E+3   2.03237E+3
  -4.09922E+3   2.05123E+3
  -4.14440E+3   2.07893E+3
  -4.13378E+3   2.02200E+3
  -4.08425E+3   2.00149E+3
  -4.01221E+3   1.99099E+3
  -3.97442E+3   1.92950E+3
  -3.93530E+3   2.00757E+3
  -3.87891E+3   2.03147E+3
  -3.87507E+3   1.91545E+3
  -3.92154E+3   1.91517E+3
  -3.80423E+3   1.89373E+3
  -3.82051E+3   1.87256E+3
  -3.76745E+3   1.82237E+3
  -3.77368E+3   1.85493E+3
  -3.72343E+3   1.79738E+3
  -3.70627E+3   1.82225E+3
