 LCModel (Version 6.3-1N) Copyright: S.W. Provencher.          Ref.: Magn. Reson. Med. 30:672-679 (1993).                
 Slice_N1@26_21  02-Jun-2023 14:38:06
 27 lines in following concentration table = NCONC+1
    Conc.  %SD /Cr+PCr  Metabolite                                         
 1.46E-06  36% 2.4E-04 Mac                                                 
 4.52E-02  69%   7.512 Cr                                                  
 2.94E-03 999%   0.488 PCr                                                 
    0.123  16%  20.472 Ins                                                 
    0.124  12%  20.613 NAA                                                 
    0.108  19%  17.922 Tau                                                 
    0.000 999%   0.000 PCho                                                
 8.99E-03  48%   1.492 GPC                                                 
    0.102  19%  16.969 Glu                                                 
 1.64E-02  79%   2.725 Gln                                                 
 2.83E-04 999% 4.7E-02 Ala                                                 
 2.93E-02  95%   4.865 Asc                                                 
 8.22E-03 113%   1.364 Asp                                                 
 1.15E-02  47%   1.912 GABA                                                
 6.78E-03  84%   1.125 Glc                                                 
 6.95E-03  89%   1.154 GSH                                                 
    0.000 999%   0.000 Lac                                                 
    0.000 999%   0.000 NAAG                                                
    0.000 999%   0.000 PE                                                  
 8.99E-03  48%   1.492 GPC+PCho                                            
    0.124  12%  20.613 NAA+NAAG                                            
    0.119  20%  19.695 Glu+Gln                                             
 4.82E-02  29%   8.000 Cr+PCr                                              
    0.124  12%  20.613 NAA+NAAG                                            
 4.82E-02  29%   8.000 Cr+PCr                                              
    0.119  20%  19.695 Glu+Gln                                             
   6 lines in following misc. output table
  FWHM = 0.081 ppm    S/N =   1                                            
  Data shift = 0.111 ppm                                                   
  Ph:  44 deg     -10.1 deg/ppm                                            
  alphaB,S = 3.1E+01,   1.0E+02                                            
   18 spline knots.   Ns = 7(2)                                            
   2 inflections.     1 extrema                                            
  654 points on ppm-axis = NY
      4.000000     3.994181     3.988363     3.982544     3.976726     3.970907     3.965088     3.959270     3.953451     3.947633
      3.941814     3.935995     3.930177     3.924358     3.918540     3.912721     3.906902     3.901084     3.895265     3.889446
      3.883628     3.877809     3.871991     3.866172     3.860353     3.854535     3.848716     3.842898     3.837079     3.831260
      3.825442     3.819623     3.813805     3.807986     3.802167     3.796349     3.790530     3.784712     3.778893     3.773074
      3.767256     3.761437     3.755619     3.749800     3.743981     3.738163     3.732344     3.726526     3.720707     3.714888
      3.709070     3.703251     3.697433     3.691614     3.685795     3.679977     3.674158     3.668339     3.662521     3.656702
      3.650884     3.645065     3.639246     3.633428     3.627609     3.621791     3.615972     3.610153     3.604335     3.598516
      3.592698     3.586879     3.581060     3.575242     3.569423     3.563605     3.557786     3.551967     3.546149     3.540330
      3.534512     3.528693     3.522874     3.517056     3.511237     3.505419     3.499600     3.493781     3.487963     3.482144
      3.476326     3.470507     3.464688     3.458870     3.453051     3.447232     3.441414     3.435595     3.429777     3.423958
      3.418139     3.412321     3.406502     3.400684     3.394865     3.389046     3.383228     3.377409     3.371591     3.365772
      3.359953     3.354135     3.348316     3.342498     3.336679     3.330860     3.325042     3.319223     3.313405     3.307586
      3.301767     3.295949     3.290130     3.284312     3.278493     3.272674     3.266856     3.261037     3.255219     3.249400
      3.243581     3.237763     3.231944     3.226125     3.220307     3.214488     3.208670     3.202851     3.197032     3.191214
      3.185395     3.179577     3.173758     3.167939     3.162121     3.156302     3.150484     3.144665     3.138846     3.133028
      3.127209     3.121391     3.115572     3.109753     3.103935     3.098116     3.092298     3.086479     3.080660     3.074842
      3.069023     3.063205     3.057386     3.051567     3.045749     3.039930     3.034111     3.028293     3.022474     3.016656
      3.010837     3.005018     2.999200     2.993381     2.987563     2.981744     2.975925     2.970107     2.964288     2.958470
      2.952651     2.946832     2.941014     2.935195     2.929377     2.923558     2.917739     2.911921     2.906102     2.900284
      2.894465     2.888646     2.882828     2.877009     2.871191     2.865372     2.859553     2.853735     2.847916     2.842098
      2.836279     2.830460     2.824642     2.818823     2.813004     2.807186     2.801367     2.795549     2.789730     2.783911
      2.778093     2.772274     2.766456     2.760637     2.754818     2.749000     2.743181     2.737363     2.731544     2.725725
      2.719907     2.714088     2.708270     2.702451     2.696632     2.690814     2.684995     2.679177     2.673358     2.667539
      2.661721     2.655902     2.650084     2.644265     2.638446     2.632628     2.626809     2.620991     2.615172     2.609353
      2.603535     2.597716     2.591897     2.586079     2.580260     2.574442     2.568623     2.562804     2.556986     2.551167
      2.545349     2.539530     2.533711     2.527893     2.522074     2.516256     2.510437     2.504618     2.498800     2.492981
      2.487163     2.481344     2.475525     2.469707     2.463888     2.458070     2.452251     2.446432     2.440614     2.434795
      2.428977     2.423158     2.417339     2.411521     2.405702     2.399884     2.394065     2.388246     2.382428     2.376609
      2.370790     2.364972     2.359153     2.353335     2.347516     2.341697     2.335879     2.330060     2.324242     2.318423
      2.312604     2.306786     2.300967     2.295149     2.289330     2.283511     2.277693     2.271874     2.266056     2.260237
      2.254418     2.248600     2.242781     2.236963     2.231144     2.225325     2.219507     2.213688     2.207870     2.202051
      2.196232     2.190414     2.184595     2.178777     2.172958     2.167139     2.161321     2.155502     2.149683     2.143865
      2.138046     2.132228     2.126409     2.120590     2.114772     2.108953     2.103135     2.097316     2.091497     2.085679
      2.079860     2.074042     2.068223     2.062404     2.056586     2.050767     2.044949     2.039130     2.033311     2.027493
      2.021674     2.015856     2.010037     2.004218     1.998400     1.992581     1.986763     1.980944     1.975126     1.969307
      1.963489     1.957670     1.951852     1.946033     1.940215     1.934397     1.928578     1.922760     1.916941     1.911123
      1.905304     1.899486     1.893667     1.887849     1.882030     1.876212     1.870393     1.864575     1.858756     1.852938
      1.847119     1.841301     1.835482     1.829664     1.823845     1.818027     1.812208     1.806390     1.800571     1.794753
      1.788934     1.783116     1.777297     1.771479     1.765660     1.759842     1.754023     1.748205     1.742386     1.736568
      1.730749     1.724931     1.719113     1.713294     1.707476     1.701657     1.695839     1.690020     1.684202     1.678383
      1.672565     1.666746     1.660928     1.655109     1.649291     1.643472     1.637654     1.631835     1.626017     1.620198
      1.614380     1.608561     1.602743     1.596924     1.591106     1.585287     1.579469     1.573650     1.567832     1.562013
      1.556195     1.550376     1.544558     1.538739     1.532921     1.527102     1.521284     1.515465     1.509647     1.503829
      1.498010     1.492192     1.486373     1.480555     1.474736     1.468918     1.463099     1.457281     1.451462     1.445644
      1.439825     1.434007     1.428188     1.422370     1.416551     1.410733     1.404914     1.399096     1.393277     1.387459
      1.381640     1.375822     1.370003     1.364185     1.358366     1.352548     1.346729     1.340911     1.335092     1.329274
      1.323455     1.317637     1.311818     1.306000     1.300182     1.294363     1.288545     1.282726     1.276908     1.271089
      1.265271     1.259452     1.253634     1.247815     1.241997     1.236178     1.230360     1.224541     1.218723     1.212904
      1.207086     1.201267     1.195449     1.189630     1.183812     1.177993     1.172175     1.166356     1.160538     1.154719
      1.148901     1.143082     1.137264     1.131445     1.125627     1.119808     1.113990     1.108171     1.102353     1.096534
      1.090716     1.084898     1.079079     1.073261     1.067442     1.061624     1.055805     1.049987     1.044168     1.038350
      1.032531     1.026713     1.020894     1.015076     1.009257     1.003439     0.997620     0.991802     0.985983     0.980165
      0.974346     0.968528     0.962709     0.956891     0.951072     0.945254     0.939435     0.933617     0.927798     0.921980
      0.916161     0.910343     0.904524     0.898706     0.892887     0.887069     0.881251     0.875432     0.869614     0.863795
      0.857977     0.852158     0.846340     0.840521     0.834703     0.828884     0.823066     0.817247     0.811429     0.805610
      0.799792     0.793973     0.788155     0.782336     0.776518     0.770699     0.764881     0.759062     0.753244     0.747425
      0.741607     0.735788     0.729970     0.724151     0.718333     0.712514     0.706696     0.700877     0.695059     0.689240
      0.683422     0.677603     0.671785     0.665967     0.660148     0.654330     0.648511     0.642693     0.636874     0.631056
      0.625237     0.619419     0.613600     0.607782     0.601963     0.596145     0.590326     0.584508     0.578689     0.572871
      0.567052     0.561234     0.555415     0.549597     0.543778     0.537960     0.532141     0.526323     0.520504     0.514686
      0.508867     0.503049     0.497230     0.491412     0.485593     0.479775     0.473956     0.468138     0.462319     0.456501
      0.450682     0.444864     0.439045     0.433227     0.427408     0.421590     0.415771     0.409953     0.404134     0.398316
      0.392497     0.386679     0.380860     0.375042     0.369223     0.363405     0.357586     0.351767     0.345949     0.340130
      0.334312     0.328493     0.322675     0.316856     0.311038     0.305219     0.299401     0.293582     0.287764     0.281945
      0.276127     0.270308     0.264490     0.258671     0.252853     0.247034     0.241216     0.235397     0.229579     0.223760
      0.217942     0.212123     0.206305     0.200486
 NY phased data points follow
   2.66460E-02 -2.27915E-01 -8.98228E-02  6.86001E-01  3.89783E-01  1.82745E-01 -1.79579E-01 -1.72660E-01  2.00275E-01 -1.52982E-02
   5.82604E-02 -1.43171E-01  7.12347E-02  6.40136E-01  1.53429E-02 -1.70332E-01 -7.15715E-02 -4.29121E-01  1.70527E-01  3.10788E-01
  -4.59311E-02  1.09534E-01  1.63922E-01  5.03452E-01  2.19416E-01  1.31577E-01 -1.37415E-01 -4.54556E-02  1.29123E-01 -2.71732E-01
  -2.60959E-01 -1.37526E-01  3.63392E-01 -4.88286E-01 -2.79384E-01  3.27218E-02  9.77307E-02  7.40695E-02 -4.96463E-01 -2.86723E-01
  -4.86542E-01  5.05651E-01  1.98959E-02  9.84840E-02  2.68149E-01 -2.82636E-01  1.10218E-01 -9.41059E-02  7.11024E-01  1.73735E-01
   1.31526E-01  1.19819E-01 -1.02825E-01  5.87379E-01 -3.65898E-01 -2.83899E-01 -6.57260E-02  5.71397E-02  4.34473E-01 -2.09006E-01
  -3.06437E-01 -4.75455E-01 -3.89672E-01  1.40586E-01 -1.22827E-01  1.17457E-02 -2.28501E-01 -8.99339E-01 -7.95791E-02 -9.91812E-02
  -2.26564E-01  3.84695E-02 -2.32361E-01  4.34241E-01  1.42362E-01 -9.47566E-02  3.88798E-01  2.66219E-01  9.15351E-03 -1.16535E-01
  -2.24512E-01 -5.85145E-02 -9.92347E-03  7.81170E-02  3.34619E-01 -4.93480E-02  1.22530E-01 -1.73019E-02 -1.13447E-02  3.68511E-01
   2.12811E-01 -8.79791E-02  1.87716E-01  7.76601E-01  1.81279E-01 -2.25999E-01 -4.78072E-02  2.35617E-01  1.66835E-01 -3.12100E-01
  -3.63646E-01  9.40037E-02 -1.36431E-01  1.09399E-01  2.52627E-01 -1.75245E-01 -2.02592E-01 -4.11286E-01  7.74761E-01  3.29028E-01
  -2.37969E-01  5.02058E-01  1.61218E-01  2.34504E-01 -1.57609E-01  1.60053E-01  5.63455E-01 -1.33311E-01  2.48092E-01  8.47100E-01
   1.05825E-01 -6.20845E-03  3.86410E-01 -1.08632E-01 -9.17606E-02 -5.24098E-01 -6.29904E-01  4.24374E-02 -2.37212E-01 -4.78258E-01
  -5.39060E-01 -1.23706E-01 -1.92833E-01 -4.14758E-01 -1.80332E-01 -8.58378E-01 -1.05088E+00 -2.66655E-01 -8.94498E-04 -6.22489E-01
  -5.85747E-01 -3.82232E-01 -6.50263E-01 -4.25712E-01 -2.09830E-02 -2.14447E-01 -2.98308E-01  2.79956E-01  2.97347E-01  2.83150E-01
   1.25200E-01  9.62611E-02  2.44023E-01  1.59040E-01  2.07482E-01 -4.66199E-02  5.24028E-01  6.15233E-01  3.44229E-01  5.56618E-01
   1.27715E-01 -7.80674E-03  2.34789E-01  9.38515E-01  4.66081E-01  3.90981E-01  4.85211E-01  3.85074E-02  5.13891E-01 -9.36038E-02
   3.52654E-01  2.58162E-03 -4.45299E-01  3.56926E-01 -3.30585E-02 -3.59856E-01 -1.95968E-01  4.87290E-02 -1.63463E-01 -2.05013E-01
  -2.65207E-01  1.14322E-01 -2.59385E-01 -1.35383E-01  1.29590E-02 -4.46173E-01 -1.73425E-01 -6.64248E-01 -4.35834E-01 -3.10114E-02
  -1.41923E-01 -4.38583E-01 -1.24384E-01  9.51815E-02 -3.19519E-01 -1.15087E-01  3.01957E-01  8.93389E-02 -3.95407E-02  1.32409E-02
   9.18846E-02  6.94258E-02 -1.78690E-01  6.92000E-02 -3.80821E-01 -3.58045E-01 -5.25348E-01 -2.45941E-01  5.72548E-02 -9.13276E-02
   2.60602E-01  1.32416E-01  1.86787E-02 -1.94478E-02  5.18750E-01 -2.10956E-01 -1.85963E-01  2.03521E-01  6.03893E-04  3.89921E-01
   3.02206E-01  2.45191E-01 -2.21551E-01 -3.85255E-01  5.35052E-01  2.62576E-01 -2.73963E-01  5.99461E-01 -1.61786E-01  3.05594E-01
   5.31614E-01  2.90489E-01  5.37614E-01 -1.81151E-01  4.41148E-01  3.06543E-01  5.00804E-01 -3.66664E-02 -4.03324E-01 -8.23671E-02
   1.76980E-01  1.88795E-01 -8.37224E-01  1.73590E-01 -1.19228E-01 -8.15905E-01  8.19294E-02 -1.12560E-01 -2.66946E-02 -1.10688E-01
  -1.56676E-01 -1.35986E-01 -4.80153E-01  2.16516E-01 -5.86824E-02 -1.92176E-01  3.74282E-02 -1.24901E-01  5.90299E-02 -4.84738E-02
   3.21388E-01  2.48274E-01 -1.42831E-01 -4.02011E-01  2.09126E-01  1.27463E-01 -2.15459E-01  3.06501E-01  5.06144E-01  6.81603E-01
  -1.45571E-01  1.04519E-01  2.56869E-01  1.13592E-01  2.82159E-01 -3.65225E-01  1.63137E-01  6.39524E-02 -3.20498E-01  1.12503E-01
  -1.85174E-01 -5.18701E-02  4.69009E-01 -2.30894E-01 -6.76071E-01  4.28489E-02  1.06881E-01  2.36333E-02 -1.73410E-01 -3.01427E-01
   2.73397E-02  1.96250E-02  3.02823E-01  7.63982E-02  2.75920E-01  4.46328E-01  2.87351E-01  6.79746E-01  3.11795E-01 -1.61773E-01
  -1.13554E-01  3.87865E-01  3.92532E-01  4.57470E-01  1.77556E-01  4.77575E-01  7.66150E-01  1.40325E-01  4.92083E-01  4.71141E-01
   3.89279E-01  3.45705E-01  6.34178E-01  4.52440E-01  1.80921E-01 -1.02301E-01 -2.06375E-01  5.17593E-01  1.42759E-03 -2.13880E-01
   2.17738E-01  2.28036E-01  5.83236E-02  1.17573E-01 -3.08418E-01 -1.97543E-01  5.10202E-02  1.16803E-01  3.15428E-01  1.16601E-02
  -2.15814E-01 -4.78353E-01 -3.35482E-01 -4.40903E-01 -1.18995E-01 -2.83957E-01 -4.18967E-01 -5.46880E-01 -3.80988E-01 -4.90220E-02
  -5.61342E-01 -4.47942E-01 -8.94438E-01 -1.03303E+00 -9.70101E-01 -5.11992E-01 -4.15476E-01 -6.49616E-01 -8.89412E-01 -6.04006E-01
  -4.60969E-02 -3.62342E-01 -2.41469E-01 -2.23862E-01  9.39232E-02 -2.82204E-01 -6.47577E-02 -4.35367E-02 -3.19186E-01  1.31642E-01
   3.03783E-02  5.70670E-02 -4.77129E-01 -4.50594E-01  1.85536E-01  1.19703E-02  2.90708E-02  3.04646E-01 -1.19323E-01  2.05746E-01
  -2.96303E-01 -3.29329E-01  3.79239E-01 -2.74417E-01 -5.66225E-02 -1.74147E-01 -3.03496E-01 -6.41831E-02  2.74127E-01  3.51501E-01
  -2.43738E-01 -5.85562E-02 -1.50585E-01 -1.13272E-01  5.94014E-01  3.80240E-01  1.45197E-01 -1.01740E-01 -3.45172E-01  1.19974E-01
   4.93978E-01  4.72787E-01  2.13052E-01  2.62640E-01  3.57533E-01  3.13505E-01  3.13769E-01  4.62752E-01  2.29127E-01  2.24786E-01
   3.74995E-01  4.76267E-01  3.88635E-01  3.29821E-01  6.69478E-01  2.56083E-01  2.64449E-01  2.82448E-01 -1.03878E-01 -4.91782E-02
   3.28095E-01  6.22938E-02 -3.25745E-01 -1.68323E-01  3.53067E-02  5.33816E-02  3.39665E-02 -1.16901E-01  8.57037E-02  5.72197E-01
   6.06163E-02  3.91278E-01  3.29509E-01  1.24146E-01  1.85340E-01 -4.26961E-02 -1.69267E-01 -2.51641E-01  1.32803E-01  1.49157E-01
   1.77171E-02 -1.42855E-01 -1.15126E-01 -3.09962E-01  4.60854E-02 -3.36032E-02  4.45370E-01 -6.24884E-02 -2.92270E-01  4.30129E-01
  -2.03912E-01  1.73076E-01 -3.46604E-01 -9.60171E-03 -6.76924E-02  3.60801E-01  3.97847E-01 -1.80026E-01  3.40881E-01 -1.44106E-01
   9.85287E-02 -2.55839E-01 -1.42125E-01  1.65750E-01  7.38626E-02 -4.21832E-01 -5.42380E-02  1.17698E-01 -5.39931E-01 -2.07798E-01
   6.37722E-02 -2.53442E-01 -3.83326E-01  2.39391E-01 -2.94181E-01 -2.32809E-01 -1.22278E-01  3.05274E-01 -1.33834E-01 -3.35925E-01
   2.89016E-01 -5.44620E-01  1.12289E-01  1.56490E-01 -2.71091E-01 -1.55339E-01  6.99226E-02 -3.32380E-01 -3.39136E-01 -2.93379E-01
  -3.52306E-01  8.91253E-02 -1.50083E-01  4.33224E-01 -1.72245E-01 -3.46405E-01  7.86705E-02 -2.60838E-02  2.41410E-01  4.82718E-02
  -2.71325E-02  2.52285E-01  1.82214E-01 -9.79222E-02  2.46729E-01  3.50308E-01  3.49049E-01 -1.19618E-01  8.96896E-02 -9.00586E-02
  -3.98037E-01  2.38822E-01 -4.19110E-02  3.56269E-01  5.56954E-01  1.56868E-01 -5.03218E-02  2.85479E-01  4.36315E-02 -1.57900E-01
   3.99555E-01 -5.24323E-02 -9.18471E-02  9.26944E-02  1.82098E-01  5.18232E-01  5.47392E-01  1.29817E-01 -1.29854E-01 -1.19382E-01
  -3.42170E-01 -2.62111E-01 -1.62806E-02 -4.36338E-02  5.99120E-02 -2.30182E-01 -2.22389E-01 -4.43439E-02 -5.24266E-01 -6.50319E-02
  -1.52315E-01 -3.46659E-01 -1.72624E-01 -4.50614E-01 -2.71071E-01 -1.09563E-01 -9.57927E-02 -2.68429E-01 -1.34868E-01 -2.03006E-01
  -1.53026E-01  1.34018E-01 -2.93823E-02 -3.06941E-01 -4.27550E-01  5.82504E-02  1.71988E-01 -8.63521E-02 -1.72815E-01 -8.01521E-02
   1.70862E-01 -9.74718E-02 -3.88373E-03  9.02938E-02 -1.15773E-01  1.23866E-01 -1.21541E-01 -2.39231E-01  9.53758E-02 -1.19202E-01
  -1.95925E-01  1.94621E-01 -7.82937E-02 -1.00737E-01  1.40515E-01  1.82118E-01  2.09775E-01 -1.74252E-01 -3.84080E-01 -1.25543E-01
  -3.04412E-02 -3.73604E-01 -2.14140E-01 -1.88793E-01 -1.61549E-01 -1.40428E-01 -1.00961E-01 -3.43187E-01 -2.88756E-01  1.28174E-01
   1.47812E-03 -1.12143E-01 -3.44726E-01  2.55739E-02 -4.14805E-01 -1.92185E-01 -2.23599E-01 -4.11642E-01 -5.39849E-02 -2.08046E-01
   1.39836E-01 -3.30599E-01 -4.41131E-01 -2.02536E-01  4.64916E-01 -4.11829E-02  1.42531E-01  3.94759E-01 -5.39250E-01  1.78395E-01
   3.10870E-02 -8.73191E-03  1.55981E-01 -8.39249E-03  1.11272E-01  9.58160E-02  5.37562E-02 -5.44188E-02 -1.12020E-01 -1.57070E-01
  -3.47712E-01 -3.20857E-01  2.20825E-02  1.55931E-01 -2.17271E-01 -3.68909E-01 -3.37752E-01 -5.78932E-01 -9.22022E-02  3.48085E-01
   1.56993E-01 -2.97518E-01 -1.40444E-01 -1.97426E-02  2.30920E-01 -2.12662E-01 -5.26670E-01  6.26239E-02 -1.13677E-01  1.81817E-01
  -2.97439E-01 -2.71729E-01  2.52779E-01  2.40353E-01 -1.05431E-01 -2.59603E-02  2.43909E-01 -2.06640E-01  1.39481E-01 -1.79140E-01
  -3.54068E-01 -1.38727E-01  2.32329E-01  1.81073E-01 -2.23565E-01  3.93191E-01 -1.35412E-01 -1.35927E-01  6.16363E-01  8.23692E-02
   3.25139E-02  1.89059E-01  7.10566E-02 -5.49982E-02
 NY points of the fit to the data follow
   1.40498E-01  1.29920E-01  1.06800E-01  1.06610E-01  8.32647E-02  9.61919E-02  7.27829E-02  1.03098E-01  7.86532E-02  1.30850E-01
   9.13189E-02  1.62774E-01  1.04908E-01  1.96504E-01  1.17484E-01  2.23049E-01  1.25349E-01  2.33886E-01  1.24668E-01  2.25719E-01
   1.11780E-01  1.94210E-01  8.48254E-02  1.40633E-01  4.57680E-02  7.39197E-02 -8.52237E-05  2.74746E-03 -4.55745E-02 -6.23711E-02
  -8.30324E-02 -1.11148E-01 -1.06543E-01 -1.32612E-01 -1.15035E-01 -1.40918E-01 -1.09314E-01 -1.35237E-01 -8.78495E-02 -1.13431E-01
  -5.17549E-02 -7.58421E-02 -5.95615E-03 -2.69220E-02  4.23644E-02  2.53586E-02  8.41180E-02  6.99887E-02  1.08498E-01  9.32091E-02
   1.09907E-01  8.74326E-02  8.01521E-02  5.99216E-02  2.65203E-02  1.28797E-02 -3.48868E-02 -4.47624E-02 -9.30302E-02 -9.88143E-02
  -1.41847E-01 -1.34963E-01 -1.69886E-01 -1.43736E-01 -1.73267E-01 -1.22984E-01 -1.56562E-01 -8.79378E-02 -1.16438E-01 -4.60197E-02
  -6.54880E-02  1.21386E-03 -1.37498E-02  3.76315E-02  2.78779E-02  5.09256E-02  4.99804E-02  4.34284E-02  5.16173E-02  2.25992E-02
   4.56180E-02  3.66407E-03  4.56782E-02  5.09487E-03  4.95626E-02  3.33970E-02  7.15801E-02  7.30633E-02  1.07924E-01  1.23195E-01
   1.40848E-01  1.62252E-01  1.54459E-01  1.74039E-01  1.38403E-01  1.55919E-01  9.57385E-02  1.15641E-01  3.92798E-02  7.12097E-02
   2.88985E-03  5.17896E-02 -3.08704E-03  7.04501E-02  3.09092E-02  1.20337E-01  9.64028E-02  1.90651E-01  1.79723E-01  2.63456E-01
   2.62577E-01  3.24800E-01  3.24415E-01  3.64385E-01  3.50430E-01  3.69615E-01  3.25817E-01  3.38061E-01  2.55472E-01  2.83881E-01
   1.57968E-01  2.07792E-01  3.54441E-02  1.11806E-01 -1.12671E-01  2.64484E-03 -2.72940E-01 -1.15333E-01 -4.26641E-01 -2.33350E-01
  -5.51822E-01 -3.36189E-01 -6.26572E-01 -4.13616E-01 -6.42024E-01 -4.51265E-01 -5.96221E-01 -4.41036E-01 -4.97025E-01 -3.89396E-01
  -3.66837E-01 -3.06845E-01 -2.29383E-01 -2.01937E-01 -1.06521E-01 -9.49125E-02 -8.45169E-03 -1.62178E-03  5.90543E-02  7.58577E-02
   1.12769E-01  1.39958E-01  1.65895E-01  1.82691E-01  2.03716E-01  2.14229E-01  2.29216E-01  2.36679E-01  2.46601E-01  2.51594E-01
   2.55179E-01  2.55131E-01  2.47611E-01  2.42217E-01  2.20221E-01  2.08473E-01  1.66786E-01  1.53073E-01  9.26262E-02  8.28487E-02
   9.98970E-03  6.27587E-03 -7.36255E-02 -6.79076E-02 -1.45152E-01 -1.28109E-01 -1.91899E-01 -1.67027E-01 -2.12061E-01 -1.83621E-01
  -2.07192E-01 -1.79566E-01 -1.82314E-01 -1.59982E-01 -1.46189E-01 -1.38126E-01 -1.23845E-01 -1.21836E-01 -1.06080E-01 -1.06882E-01
  -9.19245E-02 -9.30003E-02 -8.02527E-02 -8.01776E-02 -6.94975E-02 -6.77936E-02 -5.93924E-02 -5.64784E-02 -5.00864E-02 -4.61482E-02
  -4.13648E-02 -3.71584E-02 -3.37690E-02 -3.00143E-02 -2.79214E-02 -2.49085E-02 -2.39600E-02 -2.20081E-02 -2.21317E-02 -2.11369E-02
  -2.16125E-02 -1.81228E-02 -1.82721E-02 -1.20937E-02 -1.22702E-02 -3.07865E-03 -2.37694E-05  1.43057E-02  1.96418E-02  4.05473E-02
   4.60450E-02  7.30012E-02  7.78378E-02  1.10812E-01  1.14866E-01  1.51062E-01  1.51539E-01  1.86705E-01  1.81802E-01  2.13108E-01
   1.99484E-01  2.22627E-01  1.98337E-01  2.10888E-01  1.77987E-01  1.80592E-01  1.41006E-01  1.34660E-01  9.15041E-02  7.87047E-02
   3.68360E-02  2.14691E-02 -1.60536E-02 -2.42788E-02 -5.88662E-02 -6.04549E-02 -9.04390E-02 -8.39990E-02 -1.05701E-01 -9.21577E-02
  -1.11511E-01 -9.10442E-02 -1.09083E-01 -8.08965E-02 -9.67679E-02 -6.00183E-02 -7.21398E-02 -3.08844E-02 -3.51971E-02  4.12309E-03
   8.93920E-03  4.18748E-02  5.35715E-02  7.65082E-02  9.11573E-02  1.01920E-01  1.13430E-01  1.12134E-01  1.13257E-01  1.02201E-01
   8.77535E-02  7.32242E-02  4.42307E-02  3.13495E-02 -6.01624E-03 -1.26054E-02 -5.42315E-02 -5.84467E-02 -9.35912E-02 -9.46206E-02
  -1.18072E-01 -1.13178E-01 -1.18787E-01 -1.02829E-01 -9.06846E-02 -6.22884E-02 -3.53945E-02  3.85539E-03  3.83485E-02  8.52388E-02
   1.19913E-01  1.69379E-01  1.96922E-01  2.43710E-01  2.57223E-01  2.97817E-01  2.94576E-01  3.26684E-01  3.08141E-01  3.30767E-01
   3.00348E-01  3.15800E-01  2.80493E-01  2.91967E-01  2.60867E-01  2.66094E-01  2.41984E-01  2.38822E-01  2.17071E-01  2.07066E-01
   1.83192E-01  1.70340E-01  1.40648E-01  1.29835E-01  9.27754E-02  8.72615E-02  4.26184E-02  4.37738E-02 -7.20290E-03  9.84085E-04
  -5.27535E-02 -3.71527E-02 -8.89071E-02 -6.53499E-02 -1.10211E-01 -8.01324E-02 -1.13597E-01 -8.32822E-02 -1.24928E-01 -1.03839E-01
  -1.49879E-01 -1.41517E-01 -1.83978E-01 -1.88220E-01 -2.34686E-01 -2.49922E-01 -3.16097E-01 -3.36883E-01 -4.24781E-01 -4.41363E-01
  -5.51107E-01 -5.52966E-01 -6.64075E-01 -6.42016E-01 -7.32295E-01 -6.84301E-01 -7.45487E-01 -6.76974E-01 -6.95795E-01 -6.15921E-01
  -5.88302E-01 -5.08382E-01 -4.49529E-01 -3.78557E-01 -3.05016E-01 -2.46621E-01 -1.76094E-01 -1.31723E-01 -8.21455E-02 -5.34342E-02
  -4.84569E-02 -3.39628E-02 -3.55722E-02 -2.63579E-02 -2.90225E-02 -2.30322E-02 -2.42214E-02 -2.04151E-02 -1.87770E-02 -1.64518E-02
  -1.16535E-02 -1.00636E-02 -2.76665E-03 -1.27390E-03  7.33469E-03  9.14294E-03  1.76159E-02  2.00301E-02  2.70251E-02  3.00403E-02
   3.50990E-02  3.82345E-02  4.18457E-02  4.46993E-02  4.74605E-02  5.00324E-02  5.21632E-02  5.44957E-02  5.60798E-02  5.81374E-02
   5.91868E-02  6.08733E-02  6.13912E-02  6.25307E-02  6.25098E-02  6.29745E-02  6.24060E-02  6.21035E-02  6.09465E-02  5.98280E-02
   5.80687E-02  5.62055E-02  5.38655E-02  5.13894E-02  4.85043E-02  4.55931E-02  4.22565E-02  3.91455E-02  3.55288E-02  3.24130E-02
   2.87363E-02  2.57570E-02  2.22087E-02  1.94622E-02  1.62156E-02  1.37922E-02  1.10079E-02  8.96318E-03  6.73388E-03  5.07642E-03
   3.47882E-03  2.25889E-03  1.35078E-03  6.16325E-04  4.37132E-04  2.40059E-04  7.71564E-04  1.13430E-03  2.40743E-03  3.38437E-03
   5.33533E-03  7.01709E-03  9.54839E-03  1.19903E-02  1.50261E-02  1.82449E-02  2.16647E-02  2.56192E-02  2.93496E-02  3.39573E-02
   3.79556E-02  4.30760E-02  4.73179E-02  5.26796E-02  5.70909E-02  6.23312E-02  6.67782E-02  7.14871E-02  7.57437E-02  7.95215E-02
   8.32154E-02  8.57180E-02  8.85454E-02  8.95716E-02  9.12351E-02  9.06635E-02  9.09510E-02  8.87793E-02  8.77255E-02  8.41051E-02
   8.19219E-02  7.71068E-02  7.41247E-02  6.84546E-02  6.50649E-02  5.89834E-02  5.55373E-02  4.94787E-02  4.62654E-02  4.06368E-02
   3.78665E-02  3.30568E-02  3.08452E-02  2.71282E-02  2.55568E-02  2.30290E-02  2.21603E-02  2.07837E-02  2.06320E-02  2.02893E-02
   2.08014E-02  2.13086E-02  2.23317E-02  2.34236E-02  2.47748E-02  2.61939E-02  2.76206E-02  2.91250E-02  3.03922E-02  3.17530E-02
   3.26616E-02  3.36342E-02  3.40670E-02  3.44817E-02  3.44254E-02  3.42101E-02  3.36778E-02  3.28213E-02  3.18725E-02  3.04337E-02
   2.91429E-02  2.72397E-02  2.56183E-02  2.33803E-02  2.14310E-02  1.89873E-02  1.66880E-02  1.41089E-02  1.14310E-02  8.66999E-03
   5.52932E-03  2.47223E-03 -1.23624E-03 -4.72989E-03 -9.11496E-03 -1.32505E-02 -1.84197E-02 -2.33346E-02 -2.93255E-02 -3.50992E-02
  -4.19033E-02 -4.84856E-02 -5.59452E-02 -6.31454E-02 -7.09884E-02 -7.84808E-02 -8.63444E-02 -9.36708E-02 -1.01107E-01 -1.07772E-01
  -1.14302E-01 -1.19785E-01 -1.25015E-01 -1.28920E-01 -1.32581E-01 -1.34653E-01 -1.36595E-01 -1.36794E-01 -1.37073E-01 -1.35555E-01
  -1.34384E-01 -1.31406E-01 -1.29003E-01 -1.24940E-01 -1.21519E-01 -1.16785E-01 -1.12567E-01 -1.07513E-01 -1.02724E-01 -9.76589E-02
  -9.24289E-02 -8.75786E-02 -8.21306E-02 -7.76495E-02 -7.21654E-02 -6.81368E-02 -6.28674E-02 -5.93216E-02 -5.45059E-02 -5.14481E-02
  -4.72423E-02 -4.46001E-02 -4.11001E-02 -3.88356E-02 -3.60493E-02 -3.41180E-02 -3.19816E-02 -3.03779E-02 -2.87588E-02 -2.74724E-02
  -2.62539E-02 -2.52460E-02 -2.42937E-02 -2.35771E-02 -2.27982E-02 -2.23216E-02 -2.16426E-02 -2.14317E-02 -2.08818E-02 -2.08720E-02
  -2.04554E-02 -2.06172E-02 -2.03523E-02 -2.06451E-02 -2.05632E-02 -2.09583E-02 -2.10566E-02 -2.15542E-02 -2.17996E-02 -2.23786E-02
  -2.27096E-02 -2.33596E-02 -2.37086E-02 -2.44116E-02 -2.47386E-02 -2.55416E-02 -2.57656E-02 -2.66711E-02 -2.67513E-02 -2.77519E-02
  -2.76520E-02 -2.87384E-02 -2.84559E-02 -2.95790E-02 -2.91480E-02 -3.02233E-02 -2.96925E-02 -3.07118E-02 -3.01379E-02 -3.11193E-02
  -3.05846E-02 -3.14335E-02 -3.09903E-02 -3.17625E-02 -3.14192E-02 -3.21542E-02 -3.18609E-02 -3.26123E-02 -3.23484E-02 -3.31118E-02
  -3.28481E-02 -3.36047E-02 -3.33705E-02 -3.41090E-02 -3.39499E-02 -3.46854E-02 -3.46170E-02 -3.53710E-02 -3.54024E-02 -3.61774E-02
  -3.63464E-02 -3.72068E-02 -3.75183E-02 -3.84278E-02 -3.88438E-02 -3.97296E-02 -4.02448E-02 -4.10381E-02 -4.16556E-02 -4.23258E-02
  -4.30250E-02 -4.34751E-02 -4.42446E-02 -4.44649E-02 -4.52551E-02 -4.53323E-02 -4.60706E-02 -4.60183E-02 -4.66779E-02 -4.64959E-02
  -4.70838E-02 -4.67663E-02 -4.72688E-02 -4.67579E-02
 NY background values follow
     1.005E-01    1.002E-01    9.993E-02    9.964E-02    9.935E-02    9.906E-02    9.877E-02    9.848E-02    9.819E-02    9.790E-02
     9.761E-02    9.732E-02    9.703E-02    9.674E-02    9.645E-02    9.615E-02    9.586E-02    9.557E-02    9.528E-02    9.499E-02
     9.470E-02    9.441E-02    9.412E-02    9.383E-02    9.354E-02    9.325E-02    9.296E-02    9.267E-02    9.238E-02    9.209E-02
     9.180E-02    9.150E-02    9.121E-02    9.092E-02    9.063E-02    9.034E-02    9.005E-02    8.976E-02    8.947E-02    8.918E-02
     8.889E-02    8.860E-02    8.830E-02    8.801E-02    8.772E-02    8.743E-02    8.714E-02    8.685E-02    8.656E-02    8.627E-02
     8.598E-02    8.568E-02    8.539E-02    8.510E-02    8.481E-02    8.452E-02    8.423E-02    8.394E-02    8.365E-02    8.335E-02
     8.306E-02    8.277E-02    8.248E-02    8.219E-02    8.190E-02    8.161E-02    8.132E-02    8.102E-02    8.073E-02    8.044E-02
