 
 $NMID
 ID=''
 FMTDAT='(2E13.5)'
 TRAMP=   1.00000E+0
 VOLUME=   1.00000E+0
 $END
  -2.28614E+4   1.39213E+3
  -5.73790E+4  -1.39958E+4
  -5.84661E+4  -4.91914E+3
  -5.38469E+4  -5.94804E+3
  -5.58013E+4  -9.06225E+3
  -5.57006E+4  -7.88649E+3
  -5.34301E+4  -9.70476E+3
  -5.38474E+4  -1.22529E+4
  -5.36339E+4  -1.19974E+4
  -5.19468E+4  -1.37950E+4
  -5.17803E+4  -1.57679E+4
  -5.13430E+4  -1.57479E+4
  -5.00284E+4  -1.70162E+4
  -4.98138E+4  -1.91070E+4
  -4.91594E+4  -1.96218E+4
  -4.77583E+4  -2.08026E+4
  -4.74241E+4  -2.24647E+4
  -4.67331E+4  -2.30664E+4
  -4.55016E+4  -2.41500E+4
  -4.48799E+4  -2.55680E+4
  -4.39979E+4  -2.61669E+4
  -4.28873E+4  -2.70728E+4
  -4.22408E+4  -2.84323E+4
  -4.11989E+4  -2.92674E+4
  -3.98341E+4  -3.00430E+4
  -3.90403E+4  -3.10561E+4
  -3.81173E+4  -3.18482E+4
  -3.66339E+4  -3.27871E+4
  -3.54927E+4  -3.36735E+4
  -3.43812E+4  -3.41476E+4
  -3.31760E+4  -3.47189E+4
  -3.21182E+4  -3.55157E+4
  -3.08931E+4  -3.61168E+4
  -2.94569E+4  -3.65714E+4
  -2.84209E+4  -3.71303E+4
  -2.72002E+4  -3.74618E+4
  -2.59195E+4  -3.77859E+4
  -2.47581E+4  -3.81894E+4
  -2.36286E+4  -3.84334E+4
  -2.23803E+4  -3.87651E+4
  -2.12061E+4  -3.91523E+4
  -1.99463E+4  -3.94070E+4
  -1.85115E+4  -3.95627E+4
  -1.74219E+4  -3.96769E+4
  -1.63412E+4  -3.98522E+4
  -1.50379E+4  -3.98583E+4
  -1.37879E+4  -3.99634E+4
  -1.26327E+4  -3.99522E+4
  -1.14462E+4  -3.99908E+4
  -1.03028E+4  -3.99569E+4
  -9.07236E+3  -3.98841E+4
  -7.78424E+3  -3.97652E+4
  -6.71924E+3  -3.95216E+4
  -5.65613E+3  -3.93328E+4
  -4.54320E+3  -3.92225E+4
  -3.34093E+3  -3.89775E+4
  -2.23683E+3  -3.87409E+4
  -1.14467E+3  -3.84149E+4
   2.34338E+1  -3.80270E+4
   1.03760E+3  -3.75964E+4
   2.06632E+3  -3.71694E+4
   3.02741E+3  -3.66915E+4
   4.04203E+3  -3.63303E+4
   5.10213E+3  -3.58924E+4
   6.07112E+3  -3.52709E+4
   7.00944E+3  -3.47212E+4
   7.90001E+3  -3.42742E+4
   8.88704E+3  -3.36861E+4
   9.69999E+3  -3.30894E+4
   1.05583E+4  -3.24117E+4
   1.14021E+4  -3.18270E+4
   1.21661E+4  -3.11024E+4
   1.29708E+4  -3.04706E+4
   1.37160E+4  -2.97758E+4
   1.43967E+4  -2.90005E+4
   1.50499E+4  -2.83748E+4
   1.56980E+4  -2.76818E+4
   1.64324E+4  -2.69227E+4
   1.70589E+4  -2.61711E+4
   1.76751E+4  -2.55181E+4
   1.82940E+4  -2.47470E+4
   1.88286E+4  -2.39745E+4
   1.93731E+4  -2.31374E+4
   1.99080E+4  -2.23637E+4
   2.04185E+4  -2.15578E+4
   2.09590E+4  -2.07170E+4
   2.14111E+4  -1.98977E+4
   2.18113E+4  -1.90448E+4
   2.21544E+4  -1.82879E+4
   2.25250E+4  -1.73617E+4
   2.29282E+4  -1.65312E+4
   2.31733E+4  -1.57310E+4
   2.35567E+4  -1.48444E+4
   2.37624E+4  -1.40491E+4
   2.40193E+4  -1.32116E+4
   2.41650E+4  -1.21960E+4
   2.42585E+4  -1.14538E+4
   2.44017E+4  -1.06234E+4
   2.45582E+4  -9.77475E+3
   2.46499E+4  -8.85176E+3
   2.46917E+4  -7.90102E+3
   2.47251E+4  -7.18260E+3
   2.46636E+4  -6.40953E+3
   2.46814E+4  -5.57658E+3
   2.46012E+4  -4.70106E+3
   2.45204E+4  -3.92835E+3
   2.44426E+4  -3.16940E+3
   2.42352E+4  -2.38281E+3
   2.41238E+4  -1.58962E+3
   2.38530E+4  -7.95233E+2
   2.36046E+4  -1.84810E+2
   2.35189E+4   5.04330E+2
   2.32611E+4   1.20709E+3
   2.29909E+4   1.87466E+3
   2.26654E+4   2.59963E+3
   2.24409E+4   3.26274E+3
   2.20286E+4   3.88344E+3
   2.17060E+4   4.40486E+3
   2.13457E+4   5.04715E+3
   2.09537E+4   5.53064E+3
   2.06196E+4   6.09622E+3
   2.02268E+4   6.64319E+3
   1.97548E+4   7.07687E+3
   1.93359E+4   7.53762E+3
   1.89128E+4   8.01880E+3
   1.85805E+4   8.40866E+3
   1.80127E+4   8.84825E+3
   1.76283E+4   9.19352E+3
   1.72395E+4   9.51901E+3
   1.67602E+4   9.92106E+3
   1.62835E+4   1.01543E+4
   1.58195E+4   1.04146E+4
   1.53920E+4   1.06739E+4
   1.49186E+4   1.09363E+4
   1.44582E+4   1.11911E+4
   1.40073E+4   1.14114E+4
   1.35901E+4   1.15301E+4
   1.31748E+4   1.17484E+4
   1.27225E+4   1.18273E+4
   1.22773E+4   1.19448E+4
   1.18727E+4   1.20187E+4
   1.14245E+4   1.21453E+4
   1.10144E+4   1.22613E+4
   1.05444E+4   1.23682E+4
   1.01960E+4   1.23513E+4
   9.72396E+3   1.23249E+4
   9.33578E+3   1.24086E+4
   8.95465E+3   1.24537E+4
   8.62853E+3   1.24167E+4
   8.25174E+3   1.23994E+4
   7.82720E+3   1.23824E+4
   7.52554E+3   1.23378E+4
   7.16512E+3   1.22017E+4
   6.93873E+3   1.21402E+4
   6.67827E+3   1.21310E+4
   6.26784E+3   1.20306E+4
   6.03611E+3   1.20238E+4
   5.70832E+3   1.19287E+4
   5.41300E+3   1.18266E+4
   5.11873E+3   1.17268E+4
   4.86471E+3   1.17148E+4
   4.61952E+3   1.15905E+4
   4.30607E+3   1.16134E+4
   4.11312E+3   1.14358E+4
   3.80486E+3   1.13148E+4
   3.64076E+3   1.12127E+4
   3.32661E+3   1.11402E+4
   3.17693E+3   1.10042E+4
   2.95559E+3   1.09222E+4
   2.74862E+3   1.08487E+4
   2.61836E+3   1.07098E+4
   2.33771E+3   1.06188E+4
   2.13056E+3   1.05348E+4
   1.98509E+3   1.03731E+4
   1.78189E+3   1.02929E+4
   1.62367E+3   1.00870E+4
   1.40431E+3   1.00281E+4
   1.31294E+3   9.93486E+3
   1.15811E+3   9.85499E+3
   9.36019E+2   9.74347E+3
   7.81773E+2   9.54680E+3
   7.14666E+2   9.47489E+3
   6.70523E+2   9.40255E+3
   4.25298E+2   9.24503E+3
   2.96473E+2   9.17074E+3
   1.79686E+2   8.99309E+3
   7.78620E+1   8.93595E+3
  -9.37116E+1   8.82653E+3
  -1.67249E+2   8.71526E+3
  -2.71335E+2   8.54345E+3
  -2.99608E+2   8.50972E+3
  -5.39521E+2   8.36840E+3
  -5.68055E+2   8.18579E+3
  -7.40573E+2   8.10883E+3
  -7.69725E+2   7.96700E+3
  -8.75885E+2   7.88628E+3
  -9.75124E+2   7.74571E+3
  -1.00239E+3   7.69607E+3
  -1.02849E+3   7.54638E+3
  -1.21531E+3   7.45180E+3
  -1.21777E+3   7.38295E+3
  -1.29582E+3   7.25115E+3
  -1.43078E+3   7.07503E+3
  -1.42479E+3   7.05586E+3
  -1.44481E+3   6.90349E+3
  -1.57718E+3   6.87345E+3
  -1.59159E+3   6.73925E+3
  -1.59681E+3   6.63285E+3
  -1.60496E+3   6.55230E+3
  -1.62207E+3   6.48429E+3
  -1.71716E+3   6.39827E+3
  -1.74528E+3   6.22187E+3
  -1.72777E+3   6.15226E+3
  -1.79627E+3   6.13717E+3
  -1.84410E+3   6.05803E+3
  -1.92901E+3   6.02456E+3
  -1.92208E+3   5.88471E+3
  -1.95682E+3   5.82131E+3
  -1.99384E+3   5.67039E+3
  -2.06518E+3   5.71019E+3
  -1.99595E+3   5.55223E+3
  -2.07047E+3   5.48279E+3
  -2.10422E+3   5.44381E+3
  -2.10442E+3   5.36432E+3
  -2.12612E+3   5.25866E+3
  -2.14865E+3   5.22585E+3
  -2.14614E+3   5.13256E+3
  -2.16558E+3   5.05970E+3
  -2.24621E+3   4.99602E+3
  -2.24149E+3   4.92372E+3
  -2.24823E+3   4.82286E+3
  -2.27109E+3   4.78135E+3
  -2.22038E+3   4.68986E+3
  -2.28440E+3   4.63660E+3
  -2.30225E+3   4.49654E+3
  -2.30034E+3   4.47556E+3
  -2.25934E+3   4.44561E+3
  -2.28232E+3   4.35908E+3
  -2.33574E+3   4.26503E+3
  -2.25603E+3   4.23069E+3
  -2.30372E+3   4.20006E+3
  -2.32475E+3   4.13155E+3
  -2.34909E+3   4.02398E+3
  -2.34728E+3   4.01145E+3
  -2.28766E+3   3.90722E+3
  -2.29878E+3   3.92104E+3
  -2.31621E+3   3.79617E+3
  -2.35899E+3   3.73397E+3
  -2.26445E+3   3.68278E+3
  -2.25206E+3   3.65201E+3
  -2.27681E+3   3.52262E+3
  -2.23139E+3   3.52906E+3
  -2.21271E+3   3.45724E+3
  -2.22682E+3   3.44111E+3
  -2.21917E+3   3.36658E+3
  -2.13601E+3   3.30840E+3
  -2.18771E+3   3.25773E+3
  -2.22750E+3   3.22337E+3
  -2.21326E+3   3.16981E+3
  -2.15850E+3   3.07091E+3
  -2.20297E+3   3.10905E+3
  -2.20313E+3   2.96689E+3
  -2.19782E+3   2.95995E+3
  -2.17657E+3   2.95316E+3
  -2.05999E+3   2.91636E+3
  -2.07652E+3   2.83552E+3
  -2.10613E+3   2.81589E+3
  -2.08595E+3   2.76871E+3
  -2.12945E+3   2.70279E+3
  -2.04806E+3   2.65765E+3
  -2.06050E+3   2.62760E+3
  -2.01790E+3   2.61068E+3
  -1.95488E+3   2.49725E+3
  -1.99645E+3   2.53095E+3
  -1.97970E+3   2.48449E+3
  -1.98721E+3   2.45415E+3
  -2.04926E+3   2.39730E+3
  -1.93253E+3   2.34271E+3
  -1.97474E+3   2.30823E+3
  -1.91639E+3   2.31251E+3
  -1.87336E+3   2.25860E+3
  -1.94224E+3   2.19780E+3
  -1.85922E+3   2.15123E+3
  -1.84936E+3   2.09869E+3
  -1.86281E+3   2.08723E+3
  -1.86985E+3   2.04760E+3
  -1.75534E+3   2.00044E+3
  -1.75861E+3   1.96234E+3
  -1.77834E+3   1.99644E+3
  -1.73633E+3   1.89604E+3
  -1.78247E+3   1.79870E+3
  -1.73033E+3   1.88122E+3
  -1.69474E+3   1.80256E+3
  -1.67090E+3   1.79885E+3
  -1.66220E+3   1.74027E+3
  -1.72550E+3   1.73331E+3
  -1.68499E+3   1.68298E+3
  -1.62510E+3   1.66194E+3
  -1.58359E+3   1.62828E+3
  -1.58997E+3   1.63052E+3
  -1.56994E+3   1.57508E+3
  -1.65462E+3   1.61394E+3
  -1.55383E+3   1.50631E+3
  -1.58939E+3   1.45359E+3
  -1.48142E+3   1.45885E+3
  -1.51253E+3   1.46077E+3
  -1.50859E+3   1.40948E+3
  -1.45098E+3   1.39481E+3
  -1.51625E+3   1.45830E+3
  -1.39735E+3   1.38460E+3
  -1.41115E+3   1.33635E+3
  -1.37745E+3   1.35704E+3
  -1.34655E+3   1.30306E+3
  -1.42001E+3   1.30398E+3
  -1.31759E+3   1.22740E+3
  -1.40421E+3   1.22263E+3
  -1.36507E+3   1.19510E+3
  -1.33674E+3   1.16367E+3
  -1.25379E+3   1.11197E+3
  -1.29778E+3   1.10003E+3
  -1.23634E+3   1.07934E+3
  -1.29158E+3   1.03432E+3
  -1.24370E+3   9.91203E+2
  -1.27767E+3   9.81404E+2
  -1.15796E+3   1.00871E+3
  -1.16485E+3   9.81053E+2
  -1.22759E+3   9.36739E+2
  -1.16459E+3   9.44037E+2
  -1.11745E+3   9.55296E+2
  -1.11109E+3   8.80035E+2
  -1.17666E+3   8.72442E+2
  -1.08723E+3   8.72293E+2
  -1.03596E+3   8.81194E+2
  -1.07007E+3   8.36147E+2
  -1.05642E+3   7.57506E+2
  -9.96840E+2   7.27378E+2
  -1.04217E+3   7.36306E+2
  -9.74456E+2   6.68944E+2
  -9.93150E+2   7.40719E+2
  -9.24067E+2   7.22019E+2
  -9.50433E+2   6.67856E+2
  -9.47623E+2   6.32410E+2
  -9.19614E+2   6.38295E+2
  -9.55121E+2   6.48183E+2
  -8.47359E+2   5.99463E+2
  -9.18349E+2   6.31987E+2
  -7.98620E+2   5.64428E+2
  -7.95908E+2   5.42517E+2
  -8.42988E+2   6.40925E+2
  -7.63463E+2   5.68648E+2
  -7.78079E+2   5.50301E+2
  -7.33577E+2   5.02049E+2
  -8.21902E+2   4.92846E+2
  -7.59481E+2   5.44117E+2
  -7.62602E+2   4.98248E+2
  -6.92631E+2   5.03626E+2
  -7.28343E+2   5.20911E+2
  -6.16722E+2   4.53257E+2
  -6.57872E+2   4.20615E+2
  -6.39151E+2   3.98591E+2
  -6.28808E+2   4.64294E+2
  -6.33893E+2   4.02459E+2
  -6.11684E+2   4.03616E+2
  -5.81189E+2   4.54143E+2
  -5.90319E+2   3.37001E+2
  -6.23799E+2   3.81347E+2
  -5.76225E+2   2.71157E+2
