 
 $NMID
 ID=''
 FMTDAT='(2E13.5)'
 TRAMP=   1.00000E+0
 VOLUME=   1.00000E+0
 $END
  -2.17717E+4   4.63424E+3
  -5.73711E+4  -4.63639E+3
  -5.70988E+4   5.40887E+3
  -5.27859E+4   5.06277E+3
  -5.50846E+4   3.64866E+3
  -5.47737E+4   6.04843E+3
  -5.27068E+4   5.28494E+3
  -5.33130E+4   4.17092E+3
  -5.31302E+4   5.43946E+3
  -5.17269E+4   4.66094E+3
  -5.20680E+4   3.59136E+3
  -5.17347E+4   4.47815E+3
  -5.08540E+4   4.15439E+3
  -5.12238E+4   3.15178E+3
  -5.10084E+4   3.62994E+3
  -5.02372E+4   3.28004E+3
  -5.03555E+4   2.78762E+3
  -5.01046E+4   3.19001E+3
  -4.93841E+4   3.18351E+3
  -4.94530E+4   2.76683E+3
  -4.90533E+4   3.20046E+3
  -4.84801E+4   3.24901E+3
  -4.85683E+4   3.02032E+3
  -4.82966E+4   3.18765E+3
  -4.76660E+4   3.16439E+3
  -4.76003E+4   3.11015E+3
  -4.74287E+4   3.17292E+3
  -4.68664E+4   2.87338E+3
  -4.67220E+4   2.51275E+3
  -4.63452E+4   2.50673E+3
  -4.59533E+4   2.49986E+3
  -4.58523E+4   2.29829E+3
  -4.57258E+4   2.01949E+3
  -4.52166E+4   1.82336E+3
  -4.49326E+4   1.68986E+3
  -4.47005E+4   1.65884E+3
  -4.42803E+4   1.46895E+3
  -4.40165E+4   1.36520E+3
  -4.37526E+4   1.35898E+3
  -4.34271E+4   1.18006E+3
  -4.31711E+4   1.05992E+3
  -4.30578E+4   7.63439E+2
  -4.26304E+4   5.05481E+2
  -4.23062E+4   4.43548E+2
  -4.20235E+4   3.63720E+2
  -4.17513E+4   2.06725E+2
  -4.15103E+4   5.52284E+1
  -4.12093E+4   2.23012E+1
  -4.08759E+4  -7.85907E+1
  -4.05833E+4  -1.81916E+2
  -4.02788E+4  -2.63335E+2
  -3.99545E+4  -3.82954E+2
  -3.96612E+4  -4.39088E+2
  -3.93621E+4  -4.56835E+2
  -3.91551E+4  -5.04966E+2
  -3.88983E+4  -6.94882E+2
  -3.86448E+4  -6.75091E+2
  -3.82948E+4  -8.30805E+2
  -3.79986E+4  -9.36323E+2
  -3.76512E+4  -1.09709E+3
  -3.73187E+4  -1.13387E+3
  -3.70511E+4  -1.08449E+3
  -3.67513E+4  -1.11367E+3
  -3.64558E+4  -1.26857E+3
  -3.60620E+4  -1.36887E+3
  -3.57399E+4  -1.44934E+3
  -3.55269E+4  -1.37500E+3
  -3.51801E+4  -1.54352E+3
  -3.49127E+4  -1.70702E+3
  -3.45420E+4  -1.71216E+3
  -3.42244E+4  -1.79479E+3
  -3.39300E+4  -1.84151E+3
  -3.36299E+4  -1.85194E+3
  -3.33208E+4  -1.92243E+3
  -3.30614E+4  -1.98614E+3
  -3.27146E+4  -2.01297E+3
  -3.25039E+4  -2.00329E+3
  -3.21432E+4  -2.05851E+3
  -3.18903E+4  -2.04441E+3
  -3.15873E+4  -1.99197E+3
  -3.13770E+4  -1.95688E+3
  -3.11556E+4  -2.03424E+3
  -3.09108E+4  -2.06032E+3
  -3.06227E+4  -2.14994E+3
  -3.03540E+4  -2.24874E+3
  -3.01577E+4  -2.31219E+3
  -2.98711E+4  -2.37490E+3
  -2.96070E+4  -2.45428E+3
  -2.93214E+4  -2.39686E+3
  -2.91675E+4  -2.41323E+3
  -2.89162E+4  -2.53906E+3
  -2.86578E+4  -2.53521E+3
  -2.85208E+4  -2.53063E+3
  -2.82280E+4  -2.61828E+3
  -2.79549E+4  -2.67993E+3
  -2.77323E+4  -2.68290E+3
  -2.74722E+4  -2.70244E+3
  -2.72466E+4  -2.68865E+3
  -2.70185E+4  -2.72772E+3
  -2.68073E+4  -2.78498E+3
  -2.65819E+4  -2.89739E+3
  -2.64043E+4  -2.78972E+3
  -2.60852E+4  -2.81755E+3
  -2.60002E+4  -2.78840E+3
  -2.57070E+4  -2.81373E+3
  -2.55261E+4  -2.83623E+3
  -2.52732E+4  -2.88081E+3
  -2.50975E+4  -2.92397E+3
  -2.48752E+4  -2.93856E+3
  -2.46010E+4  -2.99580E+3
  -2.44057E+4  -2.94930E+3
  -2.41814E+4  -2.98031E+3
  -2.40042E+4  -3.02282E+3
  -2.37857E+4  -2.95701E+3
  -2.36629E+4  -2.99503E+3
  -2.33949E+4  -3.11167E+3
  -2.31970E+4  -3.13553E+3
  -2.29791E+4  -3.18624E+3
  -2.27470E+4  -3.20002E+3
  -2.25820E+4  -3.14122E+3
  -2.24335E+4  -3.16387E+3
  -2.21839E+4  -3.18517E+3
  -2.20803E+4  -3.29034E+3
  -2.18226E+4  -3.17703E+3
  -2.16462E+4  -3.26711E+3
  -2.14276E+4  -3.23237E+3
  -2.12792E+4  -3.30160E+3
  -2.11335E+4  -3.29716E+3
  -2.09377E+4  -3.33008E+3
  -2.07134E+4  -3.33825E+3
  -2.05835E+4  -3.42105E+3
  -2.03971E+4  -3.36863E+3
  -2.01273E+4  -3.37259E+3
  -2.00541E+4  -3.37406E+3
  -1.98849E+4  -3.34702E+3
  -1.97686E+4  -3.36742E+3
  -1.95603E+4  -3.36580E+3
  -1.93748E+4  -3.42946E+3
  -1.92746E+4  -3.42348E+3
  -1.90016E+4  -3.38401E+3
  -1.89107E+4  -3.44884E+3
  -1.87383E+4  -3.35811E+3
  -1.85865E+4  -3.37282E+3
  -1.85143E+4  -3.35811E+3
  -1.83176E+4  -3.32569E+3
  -1.81271E+4  -3.29215E+3
  -1.80004E+4  -3.32183E+3
  -1.78129E+4  -3.33908E+3
  -1.77242E+4  -3.33978E+3
  -1.74850E+4  -3.35855E+3
  -1.73447E+4  -3.37949E+3
  -1.73304E+4  -3.32319E+3
  -1.70833E+4  -3.35397E+3
  -1.69713E+4  -3.25488E+3
  -1.67920E+4  -3.26107E+3
  -1.66428E+4  -3.30610E+3
  -1.65612E+4  -3.29216E+3
  -1.64219E+4  -3.27737E+3
  -1.62638E+4  -3.32356E+3
  -1.61035E+4  -3.35931E+3
  -1.59842E+4  -3.30550E+3
  -1.58138E+4  -3.25783E+3
  -1.57529E+4  -3.39176E+3
  -1.55852E+4  -3.27473E+3
  -1.55050E+4  -3.36405E+3
  -1.53513E+4  -3.33784E+3
  -1.52020E+4  -3.35067E+3
  -1.50020E+4  -3.34241E+3
  -1.48919E+4  -3.29548E+3
  -1.47370E+4  -3.34444E+3
  -1.46430E+4  -3.33443E+3
  -1.45779E+4  -3.31056E+3
  -1.43415E+4  -3.31605E+3
  -1.42006E+4  -3.26293E+3
  -1.40989E+4  -3.36350E+3
  -1.39574E+4  -3.34508E+3
  -1.39109E+4  -3.28169E+3
  -1.37113E+4  -3.21571E+3
  -1.36409E+4  -3.24733E+3
  -1.35244E+4  -3.22455E+3
  -1.34058E+4  -3.31881E+3
  -1.32769E+4  -3.30085E+3
  -1.32089E+4  -3.20853E+3
  -1.30557E+4  -3.19607E+3
  -1.29644E+4  -3.18151E+3
  -1.28596E+4  -3.15602E+3
  -1.27184E+4  -3.13299E+3
  -1.26531E+4  -3.23729E+3
  -1.25136E+4  -3.19008E+3
  -1.24180E+4  -3.19384E+3
  -1.22302E+4  -3.12931E+3
  -1.21773E+4  -3.09698E+3
  -1.21103E+4  -3.04458E+3
  -1.19431E+4  -3.10888E+3
  -1.18687E+4  -3.01960E+3
  -1.17934E+4  -3.05049E+3
  -1.16552E+4  -3.04055E+3
  -1.16012E+4  -3.00209E+3
  -1.15218E+4  -3.00033E+3
  -1.13835E+4  -2.94099E+3
  -1.12834E+4  -2.94906E+3
  -1.12335E+4  -2.99288E+3
  -1.11007E+4  -2.92228E+3
  -1.09464E+4  -2.85505E+3
  -1.09382E+4  -2.84451E+3
  -1.07722E+4  -2.82861E+3
  -1.07291E+4  -2.85189E+3
  -1.07133E+4  -2.81734E+3
  -1.05432E+4  -2.79942E+3
  -1.04706E+4  -2.72694E+3
  -1.03972E+4  -2.71588E+3
  -1.03212E+4  -2.78691E+3
  -1.01544E+4  -2.74997E+3
  -1.00660E+4  -2.68604E+3
  -1.00578E+4  -2.67844E+3
  -9.93801E+3  -2.64062E+3
  -9.85422E+3  -2.61593E+3
  -9.71892E+3  -2.54986E+3
  -9.65846E+3  -2.53248E+3
  -9.55169E+3  -2.57723E+3
  -9.50586E+3  -2.57634E+3
  -9.40819E+3  -2.53218E+3
  -9.35115E+3  -2.52005E+3
  -9.24736E+3  -2.58005E+3
  -9.13462E+3  -2.43736E+3
  -9.08048E+3  -2.31080E+3
  -9.05738E+3  -2.43094E+3
  -8.97480E+3  -2.37172E+3
  -8.90408E+3  -2.37195E+3
  -8.78155E+3  -2.37207E+3
  -8.72166E+3  -2.36663E+3
  -8.68480E+3  -2.25608E+3
  -8.64161E+3  -2.27137E+3
  -8.56212E+3  -2.23426E+3
  -8.42616E+3  -2.23668E+3
  -8.35523E+3  -2.13839E+3
  -8.30311E+3  -2.18095E+3
  -8.30532E+3  -2.14291E+3
  -8.19072E+3  -2.14611E+3
  -8.12254E+3  -2.13265E+3
  -8.12210E+3  -2.04303E+3
  -8.01697E+3  -1.99945E+3
  -7.94078E+3  -2.01350E+3
  -7.89447E+3  -1.94928E+3
  -7.90329E+3  -1.97754E+3
  -7.79073E+3  -1.91487E+3
  -7.76985E+3  -1.92367E+3
  -7.68409E+3  -1.94055E+3
  -7.64996E+3  -1.84144E+3
  -7.59534E+3  -1.88015E+3
  -7.54512E+3  -1.78501E+3
  -7.49181E+3  -1.75532E+3
  -7.46785E+3  -1.78899E+3
  -7.37954E+3  -1.70860E+3
  -7.27312E+3  -1.70423E+3
  -7.28193E+3  -1.64347E+3
  -7.23969E+3  -1.64107E+3
  -7.20658E+3  -1.59803E+3
  -7.19781E+3  -1.63168E+3
  -7.19372E+3  -1.51980E+3
  -7.10098E+3  -1.52370E+3
  -7.03592E+3  -1.58453E+3
  -7.02108E+3  -1.48952E+3
  -6.92312E+3  -1.44894E+3
  -6.91358E+3  -1.36959E+3
  -6.93766E+3  -1.42180E+3
  -6.83359E+3  -1.38618E+3
  -6.87048E+3  -1.35554E+3
  -6.78494E+3  -1.32962E+3
  -6.80449E+3  -1.32447E+3
  -6.66301E+3  -1.24584E+3
  -6.64322E+3  -1.21023E+3
  -6.63276E+3  -1.18597E+3
  -6.62312E+3  -1.17739E+3
  -6.56444E+3  -1.19809E+3
  -6.55031E+3  -1.11641E+3
  -6.51580E+3  -1.09086E+3
  -6.51357E+3  -1.03113E+3
  -6.45743E+3  -1.11297E+3
  -6.44259E+3  -9.92867E+2
  -6.40677E+3  -1.03529E+3
  -6.38858E+3  -1.00263E+3
  -6.31929E+3  -1.00281E+3
  -6.34836E+3  -9.11201E+2
  -6.39528E+3  -9.59900E+2
  -6.29085E+3  -9.59680E+2
  -6.27038E+3  -8.49507E+2
  -6.21812E+3  -9.01890E+2
  -6.19269E+3  -8.46760E+2
  -6.17830E+3  -8.07453E+2
  -6.16507E+3  -8.15169E+2
  -6.11082E+3  -7.98339E+2
  -6.10078E+3  -7.92663E+2
  -6.08884E+3  -7.59762E+2
  -6.00172E+3  -7.59703E+2
  -6.04949E+3  -7.43354E+2
  -5.99522E+3  -7.26233E+2
  -5.94553E+3  -6.27248E+2
  -5.91081E+3  -6.65519E+2
  -5.89753E+3  -6.48953E+2
  -5.91560E+3  -6.11748E+2
  -5.88923E+3  -6.26697E+2
  -5.86664E+3  -6.61196E+2
  -5.81161E+3  -6.05338E+2
  -5.81970E+3  -6.03630E+2
  -5.76141E+3  -5.72111E+2
  -5.71298E+3  -5.65259E+2
  -5.70659E+3  -5.18524E+2
  -5.72575E+3  -4.80586E+2
  -5.73723E+3  -4.59733E+2
  -5.66874E+3  -4.22918E+2
  -5.65266E+3  -4.65869E+2
  -5.66517E+3  -4.48921E+2
  -5.62412E+3  -4.65208E+2
  -5.56868E+3  -4.19688E+2
  -5.50067E+3  -3.84469E+2
  -5.56922E+3  -3.60335E+2
  -5.50634E+3  -4.03815E+2
  -5.51845E+3  -3.88325E+2
  -5.51562E+3  -3.54721E+2
  -5.40620E+3  -2.84744E+2
  -5.37953E+3  -2.88029E+2
  -5.40021E+3  -2.89934E+2
  -5.44621E+3  -3.01055E+2
  -5.42089E+3  -2.12490E+2
  -5.33112E+3  -2.92339E+2
  -5.34251E+3  -2.22153E+2
  -5.31458E+3  -2.15023E+2
  -5.31392E+3  -2.01996E+2
  -5.25637E+3  -2.07565E+2
  -5.29088E+3  -1.87064E+2
  -5.31371E+3  -1.82140E+2
  -5.25222E+3  -2.50264E+2
  -5.22967E+3  -1.59962E+2
  -5.18521E+3  -1.52149E+2
  -5.24585E+3  -1.62240E+2
  -5.17904E+3  -1.09623E+2
  -5.17404E+3  -1.15978E+2
  -5.12038E+3  -1.48638E+2
  -5.14894E+3  -1.12233E+2
  -5.13332E+3  -9.69064E+1
  -5.07550E+3  -1.11941E+2
  -5.03933E+3  -6.68494E+1
  -4.97809E+3  -1.04758E+2
  -5.01878E+3  -1.27705E+1
  -5.04383E+3  -9.76419E+1
  -4.95995E+3  -1.84016E+1
  -4.95846E+3  -7.30704E+1
  -4.94632E+3  -3.87189E+1
  -4.91038E+3  -4.67944E+1
  -4.94664E+3  -8.05324E+1
  -4.82121E+3  -3.91569E+1
  -4.83547E+3  -7.34323E+1
  -4.86285E+3   3.91558E+0
  -4.78561E+3  -8.46382E+1
  -4.78866E+3  -3.89885E+1
  -4.76081E+3   1.82305E+1
  -4.68637E+3  -7.20105E+1
  -4.76266E+3   8.16283E+0
  -4.75080E+3  -3.64925E+1
  -4.74488E+3  -1.23445E+1
  -4.66717E+3  -5.20973E+1
  -4.61235E+3  -1.73553E+1
  -4.65252E+3   7.47229E+0
  -4.62289E+3  -1.02610E+1
  -4.60091E+3  -4.89537E+1
  -4.61194E+3   8.83336E+0
