 LCModel (Version 6.3-1N) Copyright: S.W. Provencher.          Ref.: Magn. Reson. Med. 30:672-679 (1993).                
 Slice_N1@21_16  02-Jun-2023 14:37:14
 27 lines in following concentration table = NCONC+1
    Conc.  %SD /Cr+PCr  Metabolite                                         
 2.30E-06  14% 2.6E-04 Mac                                                 
 2.82E-02  40%   3.151 Cr                                                  
 4.34E-02  27%   4.849 PCr                                                 
 7.59E-02  12%   8.482 Ins                                                 
 9.86E-02   7%  11.010 NAA                                                 
 5.88E-02  13%   6.573 Tau                                                 
 1.12E-02  24%   1.252 PCho                                                
    0.000 999%   0.000 GPC                                                 
 5.38E-02  16%   6.011 Glu                                                 
 2.09E-02  32%   2.332 Gln                                                 
    0.000 999%   0.000 Ala                                                 
 2.24E-02  54%   2.503 Asc                                                 
 9.05E-03  84%   1.011 Asp                                                 
 1.09E-02  37%   1.214 GABA                                                
 8.34E-03  60%   0.931 Glc                                                 
 1.45E-02  26%   1.624 GSH                                                 
    0.000 999%   0.000 Lac                                                 
 6.37E-03  85%   0.712 NAAG                                                
 1.09E-02  93%   1.222 PE                                                  
 1.12E-02  24%   1.252 GPC+PCho                                            
    0.105   7%  11.722 NAA+NAAG                                            
 7.47E-02  15%   8.343 Glu+Gln                                             
 7.16E-02   9%   8.000 Cr+PCr                                              
    0.105   7%  11.722 NAA+NAAG                                            
 7.16E-02   9%   8.000 Cr+PCr                                              
 7.47E-02  15%   8.343 Glu+Gln                                             
   6 lines in following misc. output table
  FWHM = 0.023 ppm    S/N =   5                                            
  Data shift = 0.017 ppm                                                   
  Ph: -10 deg     -14.1 deg/ppm                                            
  alphaB,S = 7.6E-01,   1.3E+01                                            
   18 spline knots.   Ns = 7(1)                                            
  ( 5) 4 infls.   ( 1) 3 extrs.                                            
  654 points on ppm-axis = NY
      4.000000     3.994181     3.988363     3.982544     3.976726     3.970907     3.965088     3.959270     3.953451     3.947633
      3.941814     3.935995     3.930177     3.924358     3.918540     3.912721     3.906902     3.901084     3.895265     3.889446
      3.883628     3.877809     3.871991     3.866172     3.860353     3.854535     3.848716     3.842898     3.837079     3.831260
      3.825442     3.819623     3.813805     3.807986     3.802167     3.796349     3.790530     3.784712     3.778893     3.773074
      3.767256     3.761437     3.755619     3.749800     3.743981     3.738163     3.732344     3.726526     3.720707     3.714888
      3.709070     3.703251     3.697433     3.691614     3.685795     3.679977     3.674158     3.668339     3.662521     3.656702
      3.650884     3.645065     3.639246     3.633428     3.627609     3.621791     3.615972     3.610153     3.604335     3.598516
      3.592698     3.586879     3.581060     3.575242     3.569423     3.563605     3.557786     3.551967     3.546149     3.540330
      3.534512     3.528693     3.522874     3.517056     3.511237     3.505419     3.499600     3.493781     3.487963     3.482144
      3.476326     3.470507     3.464688     3.458870     3.453051     3.447232     3.441414     3.435595     3.429777     3.423958
      3.418139     3.412321     3.406502     3.400684     3.394865     3.389046     3.383228     3.377409     3.371591     3.365772
      3.359953     3.354135     3.348316     3.342498     3.336679     3.330860     3.325042     3.319223     3.313405     3.307586
      3.301767     3.295949     3.290130     3.284312     3.278493     3.272674     3.266856     3.261037     3.255219     3.249400
      3.243581     3.237763     3.231944     3.226125     3.220307     3.214488     3.208670     3.202851     3.197032     3.191214
      3.185395     3.179577     3.173758     3.167939     3.162121     3.156302     3.150484     3.144665     3.138846     3.133028
      3.127209     3.121391     3.115572     3.109753     3.103935     3.098116     3.092298     3.086479     3.080660     3.074842
      3.069023     3.063205     3.057386     3.051567     3.045749     3.039930     3.034111     3.028293     3.022474     3.016656
      3.010837     3.005018     2.999200     2.993381     2.987563     2.981744     2.975925     2.970107     2.964288     2.958470
      2.952651     2.946832     2.941014     2.935195     2.929377     2.923558     2.917739     2.911921     2.906102     2.900284
      2.894465     2.888646     2.882828     2.877009     2.871191     2.865372     2.859553     2.853735     2.847916     2.842098
      2.836279     2.830460     2.824642     2.818823     2.813004     2.807186     2.801367     2.795549     2.789730     2.783911
      2.778093     2.772274     2.766456     2.760637     2.754818     2.749000     2.743181     2.737363     2.731544     2.725725
      2.719907     2.714088     2.708270     2.702451     2.696632     2.690814     2.684995     2.679177     2.673358     2.667539
      2.661721     2.655902     2.650084     2.644265     2.638446     2.632628     2.626809     2.620991     2.615172     2.609353
      2.603535     2.597716     2.591897     2.586079     2.580260     2.574442     2.568623     2.562804     2.556986     2.551167
      2.545349     2.539530     2.533711     2.527893     2.522074     2.516256     2.510437     2.504618     2.498800     2.492981
      2.487163     2.481344     2.475525     2.469707     2.463888     2.458070     2.452251     2.446432     2.440614     2.434795
      2.428977     2.423158     2.417339     2.411521     2.405702     2.399884     2.394065     2.388246     2.382428     2.376609
      2.370790     2.364972     2.359153     2.353335     2.347516     2.341697     2.335879     2.330060     2.324242     2.318423
      2.312604     2.306786     2.300967     2.295149     2.289330     2.283511     2.277693     2.271874     2.266056     2.260237
      2.254418     2.248600     2.242781     2.236963     2.231144     2.225325     2.219507     2.213688     2.207870     2.202051
      2.196232     2.190414     2.184595     2.178777     2.172958     2.167139     2.161321     2.155502     2.149683     2.143865
      2.138046     2.132228     2.126409     2.120590     2.114772     2.108953     2.103135     2.097316     2.091497     2.085679
      2.079860     2.074042     2.068223     2.062404     2.056586     2.050767     2.044949     2.039130     2.033311     2.027493
      2.021674     2.015856     2.010037     2.004218     1.998400     1.992581     1.986763     1.980944     1.975126     1.969307
      1.963489     1.957670     1.951852     1.946033     1.940215     1.934397     1.928578     1.922760     1.916941     1.911123
      1.905304     1.899486     1.893667     1.887849     1.882030     1.876212     1.870393     1.864575     1.858756     1.852938
      1.847119     1.841301     1.835482     1.829664     1.823845     1.818027     1.812208     1.806390     1.800571     1.794753
      1.788934     1.783116     1.777297     1.771479     1.765660     1.759842     1.754023     1.748205     1.742386     1.736568
      1.730749     1.724931     1.719113     1.713294     1.707476     1.701657     1.695839     1.690020     1.684202     1.678383
      1.672565     1.666746     1.660928     1.655109     1.649291     1.643472     1.637654     1.631835     1.626017     1.620198
      1.614380     1.608561     1.602743     1.596924     1.591106     1.585287     1.579469     1.573650     1.567832     1.562013
      1.556195     1.550376     1.544558     1.538739     1.532921     1.527102     1.521284     1.515465     1.509647     1.503829
      1.498010     1.492192     1.486373     1.480555     1.474736     1.468918     1.463099     1.457281     1.451462     1.445644
      1.439825     1.434007     1.428188     1.422370     1.416551     1.410733     1.404914     1.399096     1.393277     1.387459
      1.381640     1.375822     1.370003     1.364185     1.358366     1.352548     1.346729     1.340911     1.335092     1.329274
      1.323455     1.317637     1.311818     1.306000     1.300182     1.294363     1.288545     1.282726     1.276908     1.271089
      1.265271     1.259452     1.253634     1.247815     1.241997     1.236178     1.230360     1.224541     1.218723     1.212904
      1.207086     1.201267     1.195449     1.189630     1.183812     1.177993     1.172175     1.166356     1.160538     1.154719
      1.148901     1.143082     1.137264     1.131445     1.125627     1.119808     1.113990     1.108171     1.102353     1.096534
      1.090716     1.084898     1.079079     1.073261     1.067442     1.061624     1.055805     1.049987     1.044168     1.038350
      1.032531     1.026713     1.020894     1.015076     1.009257     1.003439     0.997620     0.991802     0.985983     0.980165
      0.974346     0.968528     0.962709     0.956891     0.951072     0.945254     0.939435     0.933617     0.927798     0.921980
      0.916161     0.910343     0.904524     0.898706     0.892887     0.887069     0.881251     0.875432     0.869614     0.863795
      0.857977     0.852158     0.846340     0.840521     0.834703     0.828884     0.823066     0.817247     0.811429     0.805610
      0.799792     0.793973     0.788155     0.782336     0.776518     0.770699     0.764881     0.759062     0.753244     0.747425
      0.741607     0.735788     0.729970     0.724151     0.718333     0.712514     0.706696     0.700877     0.695059     0.689240
      0.683422     0.677603     0.671785     0.665967     0.660148     0.654330     0.648511     0.642693     0.636874     0.631056
      0.625237     0.619419     0.613600     0.607782     0.601963     0.596145     0.590326     0.584508     0.578689     0.572871
      0.567052     0.561234     0.555415     0.549597     0.543778     0.537960     0.532141     0.526323     0.520504     0.514686
      0.508867     0.503049     0.497230     0.491412     0.485593     0.479775     0.473956     0.468138     0.462319     0.456501
      0.450682     0.444864     0.439045     0.433227     0.427408     0.421590     0.415771     0.409953     0.404134     0.398316
      0.392497     0.386679     0.380860     0.375042     0.369223     0.363405     0.357586     0.351767     0.345949     0.340130
      0.334312     0.328493     0.322675     0.316856     0.311038     0.305219     0.299401     0.293582     0.287764     0.281945
      0.276127     0.270308     0.264490     0.258671     0.252853     0.247034     0.241216     0.235397     0.229579     0.223760
      0.217942     0.212123     0.206305     0.200486
 NY phased data points follow
   1.29782E-01  1.17266E-01 -1.55295E-01 -2.08502E-01  8.69226E-02  4.34394E-01  2.76895E-01  1.21597E-01 -3.79172E-02  2.46929E-02
  -1.02247E-01  6.13211E-02  4.46406E-01  1.52576E-01  1.05834E-01  2.26123E-01  1.35288E-01  1.41856E-01  3.22409E-02 -4.84004E-02
   2.28996E-02  1.18480E-01  2.63432E-02  1.84650E-01  2.32971E-01 -8.14595E-03  5.54885E-02 -3.18264E-02 -5.29021E-02 -5.15987E-02
  -9.11517E-02 -2.89396E-01 -3.46938E-01 -1.12117E-01 -1.85457E-01 -2.74988E-01 -1.51504E-01 -4.59972E-02 -4.13682E-01 -2.74608E-01
   1.46353E-02  1.00787E-01  9.21419E-02  2.14263E-01  3.53427E-01  4.51762E-02  1.96099E-01  2.76763E-01  2.21629E-01  1.85499E-01
   2.71049E-01  2.60583E-01  2.11686E-01  1.39593E-01 -3.10558E-02 -1.53729E-01 -2.84294E-01  2.80121E-02 -3.01279E-01 -2.23450E-01
  -1.84464E-01 -3.34414E-01 -1.50340E-01 -2.80083E-01 -2.29858E-01 -4.83769E-01 -1.40509E-01  3.38362E-01  1.40942E-01  1.33863E-01
   3.51483E-01  1.24879E-01  2.05095E-01  3.76947E-01  1.73874E-01 -8.57584E-02 -9.08385E-02  1.16445E-01 -3.54353E-01 -2.22095E-01
  -3.67890E-01 -3.19917E-01 -1.40408E-01 -2.28727E-01  1.62019E-01  1.15637E-01  3.93322E-01  4.34272E-01  1.78739E-01  1.52748E-01
   5.92570E-02  1.51949E-01  2.80346E-01  3.73004E-02  2.42898E-02 -1.18773E-01  1.38785E-01  4.02039E-02 -3.38887E-01  3.49755E-02
  -4.85956E-01 -2.48107E-01  2.18846E-02  1.52840E-01  2.69979E-01  2.42820E-02  2.02374E-01  3.78954E-01  4.37120E-01  5.98022E-02
   2.47959E-01  3.72278E-01  1.98377E-01  1.70341E-01  1.17577E-01  8.73590E-02  2.66223E-01  5.40543E-01  4.78643E-01  3.65074E-01
   5.28660E-01  4.34654E-01  3.57292E-01  1.91946E-01 -4.21353E-01  4.13304E-02  2.09468E-01 -1.34991E-01 -2.55068E-01 -2.01040E-01
  -2.39136E-01 -5.03364E-01 -3.28416E-01 -4.14333E-01 -4.74200E-01 -2.20285E-01 -3.75270E-01 -6.46833E-01 -4.56663E-01 -4.96242E-01
  -4.47998E-01 -3.49729E-01 -1.67325E-01 -2.26473E-01 -2.35631E-01  2.60532E-01 -1.64117E-01 -3.04524E-01 -1.58130E-01 -5.68331E-02
   1.57684E-01  2.15316E-01  2.50648E-01  2.11093E-02  2.52204E-01  4.26492E-01  2.21539E-01  2.59823E-01  3.33705E-01  3.39703E-01
   4.99570E-01  7.02496E-01  4.81694E-01  7.25899E-01  6.88300E-01  4.66232E-01  1.15872E+00  8.77208E-01 -4.10300E-02 -2.85395E-01
  -3.82740E-01 -7.43596E-01 -6.63352E-01 -5.66616E-01 -3.29141E-01 -4.80638E-01 -7.73944E-01 -3.56258E-01 -6.38661E-01 -4.10338E-01
  -4.72474E-01 -5.43158E-01 -3.24438E-01 -4.03049E-01 -1.95216E-01 -4.91558E-01 -4.73843E-01 -4.00577E-01 -4.41964E-01 -1.71864E-01
  -3.06466E-01 -5.10388E-01 -2.45088E-01 -9.82211E-02 -4.85381E-01 -3.04211E-01  2.96267E-01 -1.47034E-01 -5.02467E-02 -1.39359E-02
  -2.04045E-01 -2.11367E-01 -1.36753E-01  1.88656E-01 -2.01511E-01  1.35961E-01 -1.17112E-01 -4.34797E-02 -3.34770E-02 -3.41226E-01
   7.60789E-02  1.32190E-01  5.39979E-04 -3.12459E-01  3.72074E-03  8.29081E-02 -5.11783E-02 -2.60289E-01  1.66007E-01  6.55830E-02
  -1.74303E-01  1.74938E-01  1.24637E-01  1.15938E-01 -8.99621E-02  1.89238E-01  2.94487E-01  3.54441E-01  1.96173E-01  1.73743E-01
   8.44378E-02  4.24703E-01  4.52017E-01  8.30089E-02  3.81572E-01  6.71126E-02  1.56244E-01  9.95745E-02 -4.48568E-02 -1.95104E-01
  -3.93045E-02 -3.69496E-02 -2.39511E-01  2.08311E-02 -1.68026E-01  5.28230E-02 -5.12866E-02 -1.22170E-01  1.44753E-01 -1.24290E-01
  -2.09692E-01  5.14968E-02  1.29736E-01  1.09248E-02  1.06967E-01  9.53605E-02 -3.17800E-02 -8.59991E-02 -1.20689E-01 -5.35580E-03
   1.57973E-01  3.01738E-01  1.59240E-02  2.93097E-02  3.73525E-01  2.24000E-01  1.15360E-01  2.61160E-01  1.96783E-01  1.43900E-01
   2.63585E-01  2.11488E-01  2.51796E-01  1.56463E-01  2.40133E-01 -2.23493E-03 -4.56433E-02  1.28218E-01 -1.20673E-01  1.68908E-01
   4.24829E-02 -4.43131E-02 -4.31143E-02 -5.99074E-01 -6.31200E-01 -1.22392E-01 -1.04277E-01  2.05543E-01  5.59415E-01  3.27477E-01
   1.10565E-01  2.24771E-01  2.85205E-01 -5.23104E-02  3.45174E-01  2.63224E-01  6.82936E-02  3.21669E-01 -3.62378E-03  1.68869E-01
   1.79285E-01 -1.43375E-01  2.13929E-01  9.97607E-02  2.04390E-01  2.94494E-01  6.39459E-02  3.91417E-01  2.18673E-01  2.72250E-01
   1.39879E-01  2.84100E-01  4.04412E-01  8.20991E-02 -3.77029E-02 -6.97881E-02  1.54908E-01 -1.64512E-01 -1.61585E-02  4.12155E-02
  -2.19657E-01  8.54804E-02 -1.46639E-01 -1.53122E-01  6.31421E-02 -3.47504E-01 -9.24806E-02 -4.98216E-02  1.18280E-01  2.60632E-01
   9.26926E-02  2.44534E-01 -4.71440E-02  5.02563E-02  8.94622E-02 -2.58733E-03 -3.35166E-01 -5.20655E-01 -3.63061E-01 -2.27649E-01
  -4.20759E-01 -1.32996E-01 -1.18532E+00 -2.30851E+00 -9.97864E-01 -9.88348E-01 -7.96434E-01 -5.40657E-01 -4.25196E-01 -1.33076E-01
  -3.03818E-02  2.90628E-01 -7.05419E-02  7.01932E-02  2.52277E-01  5.91321E-02  3.77756E-01  2.18185E-01 -2.41103E-01  1.65291E-01
  -5.48422E-02  2.26601E-01  2.71460E-01 -1.72673E-02  4.96435E-02  2.63271E-02  5.91332E-02 -3.26832E-02  2.16119E-01 -6.24196E-02
   2.02244E-01  1.66276E-01  3.40434E-02  7.56771E-03 -6.93232E-02  2.91671E-01  2.16906E-01 -2.62900E-02  2.79603E-01  2.13478E-01
  -2.40278E-01  1.23408E-01  9.78307E-02  9.12718E-02 -6.78869E-02  1.23375E-01  2.41126E-01  1.29420E-01  2.63997E-02 -8.76885E-03
   3.00208E-01  7.91489E-02  2.35401E-01  3.31946E-01  3.26323E-01  3.11635E-01  2.73990E-01  2.24824E-01  2.89066E-01  2.50972E-01
   2.91796E-01  1.41053E-01  9.15666E-02 -1.52007E-02 -2.56342E-01  4.76832E-02 -1.20867E-01  1.24885E-01 -1.42047E-02 -1.05806E-01
   6.95294E-02 -7.70331E-02 -6.07128E-02  1.50047E-01  5.38218E-02 -1.04016E-01  1.58627E-01  2.12197E-02 -4.47229E-02 -1.43605E-01
  -5.06213E-02 -2.61075E-01 -1.50877E-01  7.14190E-02 -3.25655E-01 -3.17432E-01  9.45600E-02 -9.79581E-02 -3.42406E-01 -1.56319E-01
  -5.93613E-02  9.20695E-02 -1.19094E-01  2.26149E-02 -3.01733E-01 -8.65492E-02  1.99837E-01  1.00304E-02  1.42165E-02 -1.25221E-01
  -1.08015E-01 -3.72433E-01 -2.37041E-02 -1.94141E-03 -7.58937E-02 -1.86218E-01  6.14496E-02  2.88865E-01  1.88248E-01  1.83947E-01
   9.73940E-02  3.03940E-01  1.61491E-01  2.84600E-01 -5.20969E-02 -6.35441E-02 -4.32875E-02 -1.24853E-01 -1.96002E-01 -4.13428E-01
   3.49758E-01  3.15398E-01 -2.51713E-01  9.49882E-02  4.81337E-01  8.49278E-03 -2.31651E-01 -2.41218E-01 -2.67743E-01 -3.65008E-02
   3.63081E-02 -4.84322E-02  6.24008E-02 -9.69864E-02 -1.65014E-01 -4.28617E-02 -3.06871E-01 -4.74116E-02 -2.88630E-01 -1.58860E-01
  -1.57056E-02 -1.24010E-01  2.02581E-01 -1.26336E-01 -5.82250E-02  1.33402E-01  1.61047E-01  4.09064E-02 -1.30408E-01 -1.61248E-01
  -6.30737E-02 -1.71237E-01 -1.20869E-01  8.31009E-02  1.61530E-02 -2.88808E-01 -1.81479E-01  1.95472E-01 -2.15988E-01  2.10325E-01
   1.14733E-01  3.60240E-02  1.17337E-01 -9.58155E-02  3.58042E-01  5.80130E-02  1.10156E-01  2.28575E-01  2.00033E-01  2.22061E-01
   3.60460E-01  3.54291E-01  3.95452E-01  1.55862E-01 -3.51764E-02  1.88613E-01 -2.00425E-01  6.01677E-02  9.87939E-02  6.24856E-02
   2.08090E-01  1.47413E-02 -1.49313E-01  6.51524E-02  4.89887E-02 -2.74990E-01 -4.12360E-02 -1.93291E-01 -4.06695E-01 -4.23704E-01
  -4.61570E-01 -3.47738E-01 -3.58365E-01 -4.69466E-01 -3.84380E-01 -4.18799E-01 -8.12324E-02 -2.58002E-01 -3.28661E-01 -1.12928E-01
  -4.38099E-01 -8.81163E-03 -2.20006E-01 -3.80195E-01 -2.46008E-01 -7.33318E-02 -3.52676E-02 -1.85964E-01 -4.69669E-02 -1.99810E-01
   8.27846E-02  6.77453E-02  4.74303E-02  5.52663E-02 -1.17110E-01  8.89346E-02  6.94265E-02 -9.01239E-02 -1.12549E-01  3.05009E-02
   5.36163E-02  8.85539E-02  2.68187E-01 -2.17985E-01  1.12696E-02  2.96550E-01 -8.78269E-02  1.48393E-01 -6.24829E-02  7.17486E-02
   9.51873E-02 -8.54655E-02  2.11513E-02  2.06830E-01  2.37830E-01  1.44999E-02  3.68540E-01  1.00072E-01 -9.51788E-02  1.25520E-01
   1.80661E-01  7.95081E-02  1.65196E-02  6.55776E-02 -2.97828E-01 -1.39623E-01  1.96764E-03 -1.48385E-01  3.29857E-01  1.01596E-01
  -1.42593E-01  9.83491E-02 -1.16893E-01  2.25804E-03 -1.91024E-01 -5.20569E-02  1.85729E-01 -1.45678E-01  1.48747E-01  1.34082E-01
  -1.31137E-01  2.62757E-01  1.16907E-01 -9.06883E-02  2.88167E-01  1.60427E-01  8.23669E-02  9.10871E-03 -2.71008E-01 -1.14784E-01
   3.59517E-01  6.13309E-02 -8.64327E-02  1.76651E-01  1.28009E-01  1.98542E-01 -3.21240E-02  2.00972E-01  1.17821E-01  4.46550E-02
   1.69770E-01 -9.36170E-03  3.25269E-01 -4.81166E-03 -2.18919E-01  1.23338E-01  4.71384E-03  6.63162E-02  1.92435E-01  8.04126E-02
  -9.05862E-02 -2.82879E-01  2.22641E-02  1.57084E-01  5.22727E-02  2.52008E-02  6.27259E-03  2.86669E-01  2.83762E-01  6.08244E-02
   8.19115E-03  4.95956E-02  6.94260E-02  9.59626E-02  3.24553E-02  9.80028E-02  1.05077E-01  5.59550E-02  6.76588E-02  1.49508E-01
   2.71054E-01  5.50975E-02  1.49487E-01 -4.54758E-02
 NY points of the fit to the data follow
   8.45804E-02  9.00841E-02  9.32542E-02  9.47011E-02  9.29028E-02  8.66542E-02  1.02883E-01  1.06837E-01  9.54104E-02  9.37466E-02
   8.09151E-02  1.55128E-01  3.54138E-01  4.58366E-01  4.17884E-01  4.45194E-01  4.75355E-01  3.75085E-01  2.74478E-01  2.20403E-01
   1.46134E-01  8.73485E-02  5.67642E-02  2.08758E-02 -1.60865E-02 -4.37885E-02 -6.67254E-02 -8.63518E-02 -1.02207E-01 -1.17549E-01
  -1.34422E-01 -1.49530E-01 -1.61155E-01 -1.78309E-01 -1.81013E-01 -1.97560E-01 -2.10514E-01 -2.37058E-01 -2.58148E-01 -2.07900E-01
  -9.02912E-02  8.10514E-03  4.87493E-02  1.11557E-01  1.59836E-01  1.94951E-01  2.30242E-01  2.45436E-01  2.23286E-01  2.02593E-01
   1.86127E-01  1.47509E-01  1.09954E-01  8.02802E-02  3.83021E-02 -5.36742E-03 -5.32299E-02 -8.87995E-02 -1.31074E-01 -2.02769E-01
  -2.29675E-01 -2.90292E-01 -3.15052E-01 -2.43806E-01 -2.64171E-01 -2.68299E-01 -8.72351E-02  3.89780E-02  3.26244E-02  1.76499E-01
   3.06865E-01  2.69001E-01  2.46576E-01  2.16248E-01  1.24591E-01  7.41839E-02  2.99713E-02 -3.09041E-02 -1.05829E-01 -2.62408E-01
  -3.55456E-01 -2.74679E-01 -1.80758E-01 -1.26260E-01  3.81470E-02  2.09267E-01  2.65042E-01  2.96096E-01  3.15314E-01  2.91759E-01
   2.64303E-01  2.34965E-01  2.03583E-01  1.46646E-01  1.19634E-01  7.82940E-02  2.63872E-02 -4.73793E-02 -1.50440E-01 -2.34576E-01
  -2.52019E-01 -1.79623E-01 -7.53959E-02  6.03821E-02  1.44730E-01  1.95443E-01  2.29272E-01  2.50109E-01  2.58741E-01  2.67747E-01
   2.70092E-01  2.71487E-01  2.72366E-01  2.72509E-01  2.71901E-01  2.72127E-01  2.66917E-01  2.61558E-01  2.62809E-01  2.42378E-01
   2.43564E-01  2.23818E-01  1.46802E-01  1.15236E-01  3.04522E-02 -6.40450E-02 -9.61497E-02 -1.13500E-01 -2.35364E-01 -3.56082E-01
  -4.29038E-01 -5.14995E-01 -4.66305E-01 -3.99641E-01 -2.91164E-01 -2.36750E-01 -4.09453E-01 -6.62243E-01 -6.70807E-01 -5.16404E-01
  -4.22924E-01 -3.10239E-01 -1.96817E-01 -1.34340E-01 -8.16047E-02 -1.98078E-02  2.04684E-02  5.24382E-02  7.95078E-02  1.03790E-01
   1.25268E-01  1.45422E-01  1.65447E-01  1.85140E-01  2.04885E-01  2.26596E-01  2.50719E-01  2.79327E-01  3.13918E-01  3.55437E-01
   4.15754E-01  5.09629E-01  4.60163E-01  4.72204E-01  4.71920E-01  5.91057E-01  9.03316E-01  8.21392E-01  1.09280E-01 -4.66957E-01
  -5.12194E-01 -5.97116E-01 -6.16057E-01 -5.29668E-01 -4.99186E-01 -4.99786E-01 -4.28169E-01 -3.74236E-01 -3.49444E-01 -3.37855E-01
  -3.18265E-01 -2.91763E-01 -2.74069E-01 -2.63643E-01 -2.54890E-01 -2.50587E-01 -2.43519E-01 -2.32910E-01 -2.24071E-01 -2.16248E-01
  -2.06979E-01 -1.96677E-01 -1.85708E-01 -1.74673E-01 -1.63634E-01 -1.52554E-01 -1.42102E-01 -1.32144E-01 -1.22024E-01 -1.13230E-01
  -1.06005E-01 -9.65543E-02 -8.29597E-02 -7.18964E-02 -6.97938E-02 -7.28370E-02 -7.21710E-02 -6.36735E-02 -5.49112E-02 -5.50697E-02
  -6.24032E-02 -6.78941E-02 -6.87741E-02 -6.87761E-02 -6.71034E-02 -6.31559E-02 -5.64874E-02 -4.79566E-02 -4.42702E-02 -3.08568E-02
  -1.58713E-02 -4.31932E-03  1.70514E-03 -2.30824E-03  5.41705E-02  1.90121E-01  2.72428E-01  2.35669E-01  1.79116E-01  2.03190E-01
   2.90692E-01  3.38727E-01  2.84281E-01  1.96318E-01  1.31676E-01  6.54601E-02  1.83860E-02 -7.57731E-03 -3.30844E-02 -5.53123E-02
  -7.01096E-02 -8.07054E-02 -9.11727E-02 -9.53748E-02 -1.00487E-01 -1.04431E-01 -1.07164E-01 -1.11015E-01 -1.09619E-01 -1.12113E-01
  -1.17096E-01 -1.02438E-01 -1.09162E-01 -1.18920E-01 -1.23984E-01 -1.49770E-01 -1.13069E-01 -2.49998E-02  5.79968E-03 -2.21156E-03
   9.00271E-02  1.72545E-01  1.48978E-01  1.47659E-01  1.86172E-01  2.00896E-01  1.77964E-01  1.72227E-01  1.74491E-01  1.69928E-01
   1.74285E-01  1.62383E-01  1.42364E-01  1.12034E-01  8.12087E-02  4.92582E-02  1.47343E-02 -1.89889E-02 -5.58658E-02 -8.24284E-02
  -1.05091E-01 -1.43340E-01 -1.75247E-01 -2.01523E-01 -1.97857E-01 -1.29502E-01 -1.90729E-02  8.85257E-02  1.81067E-01  2.42357E-01
   2.43252E-01  2.28796E-01  2.11735E-01  1.84734E-01  1.67166E-01  1.65782E-01  1.75674E-01  1.83510E-01  1.95633E-01  2.02330E-01
   2.00517E-01  1.98666E-01  1.96243E-01  1.88626E-01  1.82935E-01  1.76394E-01  1.67336E-01  1.59549E-01  1.43574E-01  1.28469E-01
   1.08005E-01  8.78913E-02  6.11825E-02  3.89618E-02  1.13872E-02 -1.82395E-02 -4.56622E-02 -8.37863E-02 -1.24057E-01 -1.55370E-01
  -1.77048E-01 -1.94029E-01 -1.97226E-01 -1.88750E-01 -1.68098E-01 -1.39108E-01 -9.62269E-02 -5.94548E-02 -1.24571E-02  2.19555E-02
   3.84817E-02  3.26470E-02  1.64759E-02 -5.71807E-03 -2.60050E-02 -4.22346E-02 -2.31086E-01 -3.42154E-01 -3.68063E-01 -3.19290E-01
  -1.94451E-01 -4.99400E-01 -1.31738E+00 -1.74324E+00 -1.40619E+00 -1.07842E+00 -8.31993E-01 -5.34458E-01 -3.58832E-01 -2.78009E-01
  -1.63749E-01 -8.49099E-02 -4.69372E-02 -2.13632E-02 -4.82567E-03  7.71782E-03  1.86590E-02  2.34145E-02  2.80860E-02  2.56988E-02
   1.89734E-02  8.58751E-03 -3.72322E-03 -1.84175E-02 -3.07989E-02 -3.72849E-02 -3.96983E-02 -3.21249E-02 -2.29061E-02 -1.21698E-02
  -1.36196E-03  8.91275E-03  1.83248E-02  2.85827E-02  3.69218E-02  4.30759E-02  4.80201E-02  5.29464E-02  5.78362E-02  6.30883E-02
   6.75558E-02  7.07747E-02  7.35119E-02  7.69788E-02  8.07943E-02  8.45762E-02  8.77178E-02  8.97715E-02  9.13577E-02  9.33545E-02
   9.63411E-02  9.92837E-02  1.02428E-01  1.04921E-01  1.05567E-01  1.04531E-01  1.03116E-01  1.01369E-01  9.87458E-02  9.57204E-02
   9.18033E-02  8.67999E-02  8.15311E-02  7.60164E-02  6.89918E-02  6.14811E-02  5.51899E-02  4.94700E-02  4.28691E-02  3.65226E-02
   3.10422E-02  2.52480E-02  1.98924E-02  1.60266E-02  1.23396E-02  8.50344E-03  5.22633E-03  1.81246E-03 -1.62874E-03 -4.36300E-03
  -6.27830E-03 -8.01881E-03 -9.71355E-03 -1.07033E-02 -9.87730E-03 -8.82715E-03 -7.38702E-03 -4.92296E-03 -2.30582E-03  1.37001E-03
   6.71805E-03  1.19502E-02  1.46234E-02  1.69762E-02  2.04988E-02  2.60509E-02  3.30277E-02  4.03325E-02  4.73494E-02  5.43360E-02
   6.24255E-02  7.15367E-02  8.20981E-02  9.29264E-02  1.03818E-01  1.14286E-01  1.25202E-01  1.36058E-01  1.46158E-01  1.55147E-01
   1.61740E-01  1.65902E-01  1.68286E-01  1.69013E-01  1.68209E-01  1.66678E-01  1.64091E-01  1.59039E-01  1.51982E-01  1.42625E-01
   1.32631E-01  1.22941E-01  1.13229E-01  1.03463E-01  9.32116E-02  8.32541E-02  7.42982E-02  6.65194E-02  5.83588E-02  5.10004E-02
   4.48890E-02  3.97414E-02  3.50654E-02  3.08753E-02  2.72820E-02  2.49702E-02  2.50180E-02  2.63224E-02  2.78888E-02  3.04552E-02
   3.35665E-02  3.70122E-02  4.16302E-02  4.73797E-02  5.22665E-02  5.65891E-02  6.05643E-02  6.31277E-02  6.46893E-02  6.69280E-02
   6.99130E-02  7.17513E-02  7.25740E-02  7.23323E-02  7.14995E-02  7.04005E-02  6.82525E-02  6.47945E-02  6.14185E-02  5.85305E-02
   5.51891E-02  5.15056E-02  4.77975E-02  4.45212E-02  4.09253E-02  3.70797E-02  3.31189E-02  2.86837E-02  2.45577E-02  2.17174E-02
   1.86234E-02  1.43800E-02  1.04323E-02  6.93000E-03  2.15919E-03 -4.63348E-03 -1.25230E-02 -2.06884E-02 -2.91121E-02 -3.81738E-02
  -4.87146E-02 -6.24769E-02 -7.84159E-02 -9.42558E-02 -1.09983E-01 -1.26206E-01 -1.42003E-01 -1.56411E-01 -1.69409E-01 -1.81541E-01
  -1.92989E-01 -2.01512E-01 -2.05690E-01 -2.07626E-01 -2.09307E-01 -2.08658E-01 -2.04503E-01 -1.98458E-01 -1.92226E-01 -1.85043E-01
  -1.77846E-01 -1.71408E-01 -1.63721E-01 -1.54715E-01 -1.45589E-01 -1.36678E-01 -1.26110E-01 -1.15094E-01 -1.04585E-01 -9.41317E-02
  -8.34403E-02 -7.39898E-02 -6.46101E-02 -5.41873E-02 -4.49689E-02 -3.76868E-02 -3.08132E-02 -2.31076E-02 -1.53282E-02 -9.44815E-03
  -5.59031E-03 -6.17959E-04  4.44643E-03  7.97748E-03  1.11120E-02  1.38604E-02  1.55838E-02  1.80608E-02  2.09578E-02  2.17146E-02
   2.20416E-02  2.38237E-02  2.56654E-02  2.69384E-02  2.93439E-02  3.20692E-02  3.30668E-02  3.36456E-02  3.47810E-02  3.50949E-02
   3.49257E-02  3.53452E-02  3.54814E-02  3.54431E-02  3.55986E-02  3.51211E-02  3.45485E-02  3.50037E-02  3.58637E-02  3.73157E-02
   3.76422E-02  3.50392E-02  3.29086E-02  3.34519E-02  3.41808E-02  3.33683E-02  3.34051E-02  3.40334E-02  3.38650E-02  3.26054E-02
   3.13974E-02  3.18627E-02  3.33951E-02  3.46639E-02  3.51708E-02  3.61428E-02  3.74099E-02  3.85387E-02  3.95665E-02  4.04285E-02
   4.15719E-02  4.33790E-02  4.41451E-02  4.32620E-02  4.28962E-02  4.32359E-02  4.37100E-02  4.48112E-02  4.65546E-02  4.85920E-02
   4.92026E-02  4.88762E-02  5.02896E-02  5.33056E-02  5.60049E-02  5.82152E-02  5.90203E-02  5.77234E-02  5.72864E-02  5.83203E-02
   5.97895E-02  6.12150E-02  6.13806E-02  6.14679E-02  6.21333E-02  6.33175E-02  6.46441E-02  6.55871E-02  6.56014E-02  6.69805E-02
   6.98707E-02  7.13749E-02  7.26655E-02  7.47659E-02  7.69713E-02  7.91292E-02  8.11352E-02  8.35288E-02  8.72771E-02  9.22884E-02
   9.67256E-02  1.00628E-01  1.04575E-01  1.08222E-01
 NY background values follow
     1.842E-02    1.858E-02    1.874E-02    1.890E-02    1.907E-02    1.923E-02    1.939E-02    1.955E-02    1.971E-02    1.987E-02
     2.003E-02    2.019E-02    2.035E-02    2.051E-02    2.067E-02    2.083E-02    2.099E-02    2.115E-02    2.131E-02    2.147E-02
     2.163E-02    2.179E-02    2.195E-02    2.211E-02    2.227E-02    2.242E-02    2.258E-02    2.274E-02    2.290E-02    2.306E-02
     2.322E-02    2.338E-02    2.354E-02    2.369E-02    2.385E-02    2.401E-02    2.417E-02    2.432E-02    2.448E-02    2.464E-02
     2.479E-02    2.495E-02    2.511E-02    2.526E-02    2.542E-02    2.557E-02    2.573E-02    2.588E-02    2.604E-02    2.619E-02
     2.635E-02    2.650E-02    2.665E-02    2.681E-02    2.696E-02    2.711E-02    2.726E-02    2.741E-02    2.757E-02    2.772E-02
     2.787E-02    2.802E-02    2.817E-02    2.832E-02    2.846E-02    2.861E-02    2.876E-02    2.891E-02    2.906E-02    2.920E-02
