 LCModel (Version 6.3-1N) Copyright: S.W. Provencher.          Ref.: Magn. Reson. Med. 30:672-679 (1993).                
 Slice_N1@26_13  02-Jun-2023 14:38:03
 27 lines in following concentration table = NCONC+1
    Conc.  %SD /Cr+PCr  Metabolite                                         
 1.68E-06  22% 2.2E-04 Mac                                                 
 4.32E-02  38%   5.626 Cr                                                  
 1.82E-02  89%   2.374 PCr                                                 
    0.110  12%  14.307 Ins                                                 
 8.50E-02  10%  11.060 NAA                                                 
 6.26E-02  19%   8.149 Tau                                                 
 7.78E-03  60%   1.013 PCho                                                
    0.000 999%   0.000 GPC                                                 
    0.103  12%  13.442 Glu                                                 
 2.46E-02  35%   3.204 Gln                                                 
    0.000 999%   0.000 Ala                                                 
 5.76E-02  30%   7.503 Asc                                                 
 7.05E-03  89%   0.917 Asp                                                 
 4.77E-03  75%   0.621 GABA                                                
 5.26E-03  74%   0.684 Glc                                                 
 1.25E-02  40%   1.625 GSH                                                 
    0.000 999%   0.000 Lac                                                 
    0.000 999%   0.000 NAAG                                                
 1.57E-02 109%   2.048 PE                                                  
 7.78E-03  60%   1.013 GPC+PCho                                            
 8.50E-02  10%  11.060 NAA+NAAG                                            
    0.128  12%  16.646 Glu+Gln                                             
 6.15E-02  14%   8.000 Cr+PCr                                              
 8.50E-02  10%  11.060 NAA+NAAG                                            
 6.15E-02  14%   8.000 Cr+PCr                                              
    0.128  12%  16.646 Glu+Gln                                             
   6 lines in following misc. output table
  FWHM = 0.081 ppm    S/N =   2                                            
  Data shift = 0.081 ppm                                                   
  Ph:  -6 deg      -1.2 deg/ppm                                            
  alphaB,S = 7.0E+00,   2.7E+01                                            
   18 spline knots.   Ns = 6(2)                                            
   2 inflections.     2 extrema                                            
  654 points on ppm-axis = NY
      4.000000     3.994181     3.988363     3.982544     3.976726     3.970907     3.965088     3.959270     3.953451     3.947633
      3.941814     3.935995     3.930177     3.924358     3.918540     3.912721     3.906902     3.901084     3.895265     3.889446
      3.883628     3.877809     3.871991     3.866172     3.860353     3.854535     3.848716     3.842898     3.837079     3.831260
      3.825442     3.819623     3.813805     3.807986     3.802167     3.796349     3.790530     3.784712     3.778893     3.773074
      3.767256     3.761437     3.755619     3.749800     3.743981     3.738163     3.732344     3.726526     3.720707     3.714888
      3.709070     3.703251     3.697433     3.691614     3.685795     3.679977     3.674158     3.668339     3.662521     3.656702
      3.650884     3.645065     3.639246     3.633428     3.627609     3.621791     3.615972     3.610153     3.604335     3.598516
      3.592698     3.586879     3.581060     3.575242     3.569423     3.563605     3.557786     3.551967     3.546149     3.540330
      3.534512     3.528693     3.522874     3.517056     3.511237     3.505419     3.499600     3.493781     3.487963     3.482144
      3.476326     3.470507     3.464688     3.458870     3.453051     3.447232     3.441414     3.435595     3.429777     3.423958
      3.418139     3.412321     3.406502     3.400684     3.394865     3.389046     3.383228     3.377409     3.371591     3.365772
      3.359953     3.354135     3.348316     3.342498     3.336679     3.330860     3.325042     3.319223     3.313405     3.307586
      3.301767     3.295949     3.290130     3.284312     3.278493     3.272674     3.266856     3.261037     3.255219     3.249400
      3.243581     3.237763     3.231944     3.226125     3.220307     3.214488     3.208670     3.202851     3.197032     3.191214
      3.185395     3.179577     3.173758     3.167939     3.162121     3.156302     3.150484     3.144665     3.138846     3.133028
      3.127209     3.121391     3.115572     3.109753     3.103935     3.098116     3.092298     3.086479     3.080660     3.074842
      3.069023     3.063205     3.057386     3.051567     3.045749     3.039930     3.034111     3.028293     3.022474     3.016656
      3.010837     3.005018     2.999200     2.993381     2.987563     2.981744     2.975925     2.970107     2.964288     2.958470
      2.952651     2.946832     2.941014     2.935195     2.929377     2.923558     2.917739     2.911921     2.906102     2.900284
      2.894465     2.888646     2.882828     2.877009     2.871191     2.865372     2.859553     2.853735     2.847916     2.842098
      2.836279     2.830460     2.824642     2.818823     2.813004     2.807186     2.801367     2.795549     2.789730     2.783911
      2.778093     2.772274     2.766456     2.760637     2.754818     2.749000     2.743181     2.737363     2.731544     2.725725
      2.719907     2.714088     2.708270     2.702451     2.696632     2.690814     2.684995     2.679177     2.673358     2.667539
      2.661721     2.655902     2.650084     2.644265     2.638446     2.632628     2.626809     2.620991     2.615172     2.609353
      2.603535     2.597716     2.591897     2.586079     2.580260     2.574442     2.568623     2.562804     2.556986     2.551167
      2.545349     2.539530     2.533711     2.527893     2.522074     2.516256     2.510437     2.504618     2.498800     2.492981
      2.487163     2.481344     2.475525     2.469707     2.463888     2.458070     2.452251     2.446432     2.440614     2.434795
      2.428977     2.423158     2.417339     2.411521     2.405702     2.399884     2.394065     2.388246     2.382428     2.376609
      2.370790     2.364972     2.359153     2.353335     2.347516     2.341697     2.335879     2.330060     2.324242     2.318423
      2.312604     2.306786     2.300967     2.295149     2.289330     2.283511     2.277693     2.271874     2.266056     2.260237
      2.254418     2.248600     2.242781     2.236963     2.231144     2.225325     2.219507     2.213688     2.207870     2.202051
      2.196232     2.190414     2.184595     2.178777     2.172958     2.167139     2.161321     2.155502     2.149683     2.143865
      2.138046     2.132228     2.126409     2.120590     2.114772     2.108953     2.103135     2.097316     2.091497     2.085679
      2.079860     2.074042     2.068223     2.062404     2.056586     2.050767     2.044949     2.039130     2.033311     2.027493
      2.021674     2.015856     2.010037     2.004218     1.998400     1.992581     1.986763     1.980944     1.975126     1.969307
      1.963489     1.957670     1.951852     1.946033     1.940215     1.934397     1.928578     1.922760     1.916941     1.911123
      1.905304     1.899486     1.893667     1.887849     1.882030     1.876212     1.870393     1.864575     1.858756     1.852938
      1.847119     1.841301     1.835482     1.829664     1.823845     1.818027     1.812208     1.806390     1.800571     1.794753
      1.788934     1.783116     1.777297     1.771479     1.765660     1.759842     1.754023     1.748205     1.742386     1.736568
      1.730749     1.724931     1.719113     1.713294     1.707476     1.701657     1.695839     1.690020     1.684202     1.678383
      1.672565     1.666746     1.660928     1.655109     1.649291     1.643472     1.637654     1.631835     1.626017     1.620198
      1.614380     1.608561     1.602743     1.596924     1.591106     1.585287     1.579469     1.573650     1.567832     1.562013
      1.556195     1.550376     1.544558     1.538739     1.532921     1.527102     1.521284     1.515465     1.509647     1.503829
      1.498010     1.492192     1.486373     1.480555     1.474736     1.468918     1.463099     1.457281     1.451462     1.445644
      1.439825     1.434007     1.428188     1.422370     1.416551     1.410733     1.404914     1.399096     1.393277     1.387459
      1.381640     1.375822     1.370003     1.364185     1.358366     1.352548     1.346729     1.340911     1.335092     1.329274
      1.323455     1.317637     1.311818     1.306000     1.300182     1.294363     1.288545     1.282726     1.276908     1.271089
      1.265271     1.259452     1.253634     1.247815     1.241997     1.236178     1.230360     1.224541     1.218723     1.212904
      1.207086     1.201267     1.195449     1.189630     1.183812     1.177993     1.172175     1.166356     1.160538     1.154719
      1.148901     1.143082     1.137264     1.131445     1.125627     1.119808     1.113990     1.108171     1.102353     1.096534
      1.090716     1.084898     1.079079     1.073261     1.067442     1.061624     1.055805     1.049987     1.044168     1.038350
      1.032531     1.026713     1.020894     1.015076     1.009257     1.003439     0.997620     0.991802     0.985983     0.980165
      0.974346     0.968528     0.962709     0.956891     0.951072     0.945254     0.939435     0.933617     0.927798     0.921980
      0.916161     0.910343     0.904524     0.898706     0.892887     0.887069     0.881251     0.875432     0.869614     0.863795
      0.857977     0.852158     0.846340     0.840521     0.834703     0.828884     0.823066     0.817247     0.811429     0.805610
      0.799792     0.793973     0.788155     0.782336     0.776518     0.770699     0.764881     0.759062     0.753244     0.747425
      0.741607     0.735788     0.729970     0.724151     0.718333     0.712514     0.706696     0.700877     0.695059     0.689240
      0.683422     0.677603     0.671785     0.665967     0.660148     0.654330     0.648511     0.642693     0.636874     0.631056
      0.625237     0.619419     0.613600     0.607782     0.601963     0.596145     0.590326     0.584508     0.578689     0.572871
      0.567052     0.561234     0.555415     0.549597     0.543778     0.537960     0.532141     0.526323     0.520504     0.514686
      0.508867     0.503049     0.497230     0.491412     0.485593     0.479775     0.473956     0.468138     0.462319     0.456501
      0.450682     0.444864     0.439045     0.433227     0.427408     0.421590     0.415771     0.409953     0.404134     0.398316
      0.392497     0.386679     0.380860     0.375042     0.369223     0.363405     0.357586     0.351767     0.345949     0.340130
      0.334312     0.328493     0.322675     0.316856     0.311038     0.305219     0.299401     0.293582     0.287764     0.281945
      0.276127     0.270308     0.264490     0.258671     0.252853     0.247034     0.241216     0.235397     0.229579     0.223760
      0.217942     0.212123     0.206305     0.200486
 NY phased data points follow
   1.15343E-01  8.11360E-02 -1.14743E-01 -4.05231E-02  2.38319E-01 -2.35693E-01  6.75586E-02  3.54879E-01 -8.42068E-03  2.49323E-01
   3.50795E-01  1.97286E-01  3.45274E-01  3.48732E-01 -6.74155E-02 -8.46561E-02  7.56507E-03  1.73418E-01  9.91717E-02  2.36318E-01
   2.34517E-01  1.18854E-01  1.63589E-01 -1.37221E-02 -1.17529E-01 -2.55797E-01 -4.29045E-01 -5.77199E-01 -1.81395E-01 -3.57634E-01
  -2.90639E-01 -3.47441E-01 -3.35064E-01 -3.73181E-01 -3.84845E-01 -1.02659E-01 -3.25790E-01 -1.41185E-01 -1.39792E-01  3.22762E-01
   2.44030E-01  2.76028E-01 -2.65536E-02  1.45367E-01  4.53895E-01  2.99683E-01  5.11989E-01  7.41435E-02  5.94827E-01  5.72879E-01
   5.08527E-01  3.32800E-01  3.17490E-01  2.49160E-02 -9.47624E-02  3.36708E-01 -1.43505E-01 -8.77304E-02 -2.14587E-01 -2.51488E-01
  -3.71286E-01 -3.51087E-01 -5.47236E-01 -7.41618E-01 -3.13225E-01 -2.23922E-01 -2.05119E-01  9.11635E-02 -5.23990E-02 -4.04453E-01
   4.15801E-02 -1.75072E-02 -7.28079E-02  1.72161E-01 -1.43509E-02  1.54098E-01 -7.17751E-02 -1.06776E-01  5.10330E-02 -4.41035E-01
  -6.52124E-02  1.74670E-02 -2.18578E-01  1.70749E-01  3.03704E-01 -4.15126E-02  1.01306E-01  2.05838E-02  4.23597E-02  3.94981E-01
  -2.23524E-02  2.12506E-01  1.09434E-01  1.62199E-01  3.67706E-02  2.33039E-01  9.74174E-02 -9.61532E-02  9.90135E-02 -4.67105E-01
   1.77960E-01  1.97348E-01  4.32278E-01  2.53782E-01 -4.92773E-02  8.73262E-02  2.62384E-02  1.57714E-01  2.39136E-01  3.81181E-01
   3.17436E-01  4.62785E-01  7.46646E-02  7.75535E-01  7.71758E-01  2.62904E-01  4.93981E-01  3.10287E-01  1.94164E-02  5.88881E-02
   3.44711E-01  1.68796E-01  2.64628E-01 -6.22726E-02 -3.39506E-01 -3.81481E-02  1.22531E-01 -1.26166E-01 -1.75690E-01 -2.22520E-01
  -2.40777E-01 -5.34938E-01 -5.93713E-01 -4.34643E-01 -4.86309E-01 -1.68656E-01 -3.14887E-01 -3.77733E-01 -3.79348E-01 -2.34302E-01
  -4.42992E-01 -1.89603E-01 -1.61328E-01  5.87279E-03  1.19918E-01 -2.91682E-01  2.95147E-01 -4.83829E-02  3.98319E-02  3.56290E-02
   1.29365E-01  3.22719E-01  1.84331E-01  3.58189E-01  5.09510E-02  2.34521E-01  1.18545E-01  2.14106E-01  5.71856E-01  3.58008E-01
  -4.22206E-02  1.35767E-01  2.85304E-01  2.38170E-01  2.92494E-01  1.76548E-01  2.27504E-01  2.70215E-03  4.08173E-01  3.64057E-01
  -1.60250E-01 -2.34220E-01 -4.10626E-01 -3.33167E-01 -4.57896E-01 -3.57050E-01 -4.77346E-01 -5.55359E-01 -4.42381E-01 -3.75119E-01
  -2.17121E-01 -4.95765E-01 -2.90821E-01 -3.38852E-01 -2.76256E-01 -1.06894E-02 -1.37219E-01  2.51577E-03  5.55046E-02 -2.27439E-01
  -3.60398E-01  1.09536E-01 -2.19224E-01 -4.82452E-01 -3.79118E-02 -4.74987E-02  5.81604E-02  1.37766E-02 -2.62876E-01 -1.57485E-01
   2.14253E-01 -1.76913E-01 -5.57585E-01  3.84008E-02 -2.64206E-02  4.15961E-02  1.13625E-01 -4.09121E-01 -3.66998E-02  8.95145E-02
  -4.53936E-02  1.55036E-01  2.00297E-01 -9.22192E-02 -1.50882E-02  1.17919E-02 -2.69203E-01 -2.22396E-01 -3.20464E-01 -2.17957E-01
  -2.96676E-01  1.12632E-01  3.24381E-01  7.59242E-02  2.92915E-01  3.17833E-01  2.47003E-01  1.29519E-02  6.82472E-02  7.20150E-02
   1.62813E-01  3.27214E-01  1.90452E-01  3.15713E-01  1.72892E-01 -1.53152E-01 -7.26049E-04  1.84235E-01  3.47836E-02 -2.83818E-01
  -2.86137E-01 -9.98154E-02 -1.51130E-01 -1.04114E-01  3.42681E-02 -1.00814E-01 -1.64627E-01 -2.09004E-03 -4.80470E-02 -1.88101E-01
  -2.01311E-01  2.57548E-01  9.91712E-02 -1.58636E-01 -3.98544E-02 -2.01233E-01  7.50995E-02  7.17981E-02  1.09313E-01 -1.00490E-01
  -1.49536E-02  1.23654E-02 -2.94511E-02  2.90258E-01 -2.31903E-01 -7.26925E-02  5.85443E-03  1.64092E-01  3.99752E-01  1.24084E-01
   9.56632E-02 -1.01552E-01  3.19053E-02 -1.34099E-01 -1.57552E-01  1.99847E-01 -1.34301E-01 -3.14970E-01  4.23007E-02 -2.69854E-01
  -2.59833E-01  1.55096E-01 -3.64131E-01 -3.74149E-01 -2.25355E-02  2.06402E-01  2.11817E-01  6.23560E-02  2.73308E-01  3.00442E-01
   3.91605E-01  4.39302E-01  2.15473E-01  9.94024E-02  3.48583E-01  4.75407E-01  5.73230E-01  2.61923E-01  9.97188E-02  4.19798E-01
   1.13886E-01  2.15582E-01  2.31144E-01  2.61741E-01  3.92116E-01  1.38134E-01  1.89523E-01  2.53732E-01  4.62950E-01  5.66374E-01
   4.70088E-01  2.08779E-01  1.08993E-01  7.23953E-02  1.48074E-02  1.38040E-01  5.80727E-02 -6.32562E-02 -1.16472E-01 -5.99169E-02
  -1.44348E-01 -4.28605E-03  1.02694E-01 -1.31432E-01 -2.48563E-01 -2.59944E-01 -2.33391E-01 -3.59359E-01 -1.10430E-01 -1.59791E-01
  -3.22036E-01  4.88272E-03  1.36102E-01 -1.29326E-01 -2.96358E-01 -2.39173E-01 -5.58862E-01 -4.11686E-01 -4.39721E-01 -5.62122E-01
  -6.02544E-01 -6.29294E-01 -5.72678E-01 -7.08554E-01 -4.25407E-01 -7.06709E-01 -3.38232E-01 -3.82239E-01 -7.02969E-01 -2.01344E-01
  -4.42198E-01 -2.66712E-01  7.53083E-02  1.02615E-01  2.73507E-01  4.15125E-01  1.84174E-01  2.05660E-02 -8.74847E-02  9.51854E-03
   3.67130E-01  3.27584E-01  2.19670E-01  1.50238E-01  1.46954E-01  7.85495E-02 -2.15270E-02  1.63044E-01  1.98264E-01 -1.95934E-02
   2.58836E-01  3.45507E-01  1.25135E-01  3.05329E-01  3.92380E-01  1.79001E-01  1.64412E-01 -1.79945E-01  2.08433E-01  6.23021E-01
  -5.96442E-02  9.33034E-02  1.29728E-01  2.44444E-01 -2.70509E-02 -2.79978E-02  2.46395E-01  1.46853E-02  2.71437E-01  1.56382E-01
   3.94993E-01  1.35411E-01 -2.26495E-02  1.92723E-01  3.56550E-02  1.27524E-01  4.38421E-01  2.45589E-01 -1.18298E-01  8.86431E-02
  -5.88383E-02 -3.71950E-02 -3.81622E-02 -6.66883E-02 -1.22126E-01 -9.85206E-02  8.78103E-03 -1.07007E-01 -1.27879E-01 -3.77303E-01
  -3.68383E-01  1.66693E-01  6.35115E-02 -4.76818E-01 -1.50330E-01 -1.73293E-01 -8.05725E-02  5.83320E-03 -2.36037E-01  8.70314E-02
  -1.06993E-01 -7.42871E-02 -1.87387E-01 -5.09218E-01 -1.24822E-01 -3.32429E-01 -3.94196E-01 -3.79790E-02 -1.02322E-01 -1.13814E-01
  -1.68004E-01  1.16969E-01  2.38449E-01 -1.52183E-01 -2.06709E-01  1.62132E-02  4.20830E-02 -1.21173E-01 -9.78234E-02 -5.11962E-02
  -5.44250E-02  7.45330E-02  2.40978E-01  1.14780E-01  3.00685E-01  1.60524E-01 -9.28873E-02  1.80503E-01 -2.07421E-02 -8.35125E-03
  -1.78363E-01 -1.97157E-01  2.60099E-01  3.05145E-04 -4.60140E-02  2.10656E-01 -2.91536E-02  9.39349E-02  2.12142E-01  1.46149E-02
  -1.14036E-02  3.24060E-02  1.95745E-02 -2.34892E-01  1.76002E-01  2.02559E-01  2.09773E-01  1.60696E-02 -2.75968E-01  2.79942E-01
  -1.67016E-01 -1.09263E-01 -1.58966E-01 -9.90387E-02  3.18765E-01 -3.48741E-02 -2.36407E-01 -2.87705E-01 -7.54821E-02 -1.96427E-01
   1.01433E-01 -1.11443E-01 -1.20020E-01  2.76208E-01 -4.54922E-02  2.79221E-02 -1.58094E-02  2.61965E-03  9.52654E-02  6.01820E-02
   2.67963E-02  1.40459E-01  2.71380E-02 -9.09782E-02 -1.37644E-02  1.38195E-02 -1.19091E-01  9.82333E-02  2.74960E-01 -2.31498E-01
   3.12618E-02  1.93404E-02 -1.08378E-03  7.57797E-02 -6.92384E-03  2.33357E-01  1.26563E-01  2.80370E-01  1.09203E-01  4.07109E-02
   5.15646E-02 -2.83462E-02  2.30452E-01  2.39444E-01  3.41453E-01  1.17936E-01 -1.28252E-01  2.35818E-02 -9.71763E-02 -2.41017E-01
   3.40576E-02  7.01628E-02 -1.87264E-01 -2.91782E-01 -2.21214E-01 -1.27859E-01 -3.47783E-01 -3.10239E-01 -4.82666E-01 -4.96681E-01
  -2.06466E-01 -5.77871E-02 -1.86103E-01 -3.22679E-01 -3.92663E-02 -3.34668E-01 -2.02124E-02 -3.47885E-01 -2.28763E-01  1.46479E-01
  -2.52829E-01  2.88824E-01 -1.25998E-01  9.89130E-02 -4.18722E-02 -2.39533E-01  1.54250E-01 -1.88098E-01  3.02408E-02  7.12134E-02
   3.44909E-01  2.72596E-01 -1.15125E-01  1.92135E-01  4.29242E-01  1.57717E-01 -5.76321E-03  4.29431E-03 -8.40295E-02  1.31093E-02
   4.06903E-02 -6.85647E-02 -9.18947E-02 -2.58713E-01  1.79677E-01  1.39442E-01 -2.13854E-01  2.55591E-01  7.54747E-02  1.49783E-01
   1.03374E-01  1.15390E-01  1.56398E-01  1.42859E-01  1.68593E-01 -1.39802E-01  1.83461E-01 -6.81606E-02  1.98618E-01  5.98934E-01
  -3.47254E-02  9.31381E-02  1.36641E-01 -5.55067E-02  3.61545E-01 -2.73242E-01 -1.60467E-01  3.35602E-01  1.59237E-01  5.16239E-01
   2.15135E-01  1.80966E-01  1.87105E-01  2.78509E-01  2.26555E-01  1.61008E-01  1.28136E-01  6.27069E-02  2.74480E-01 -7.57026E-02
  -5.10940E-02  5.79318E-03  4.97768E-02 -8.20541E-02 -9.57777E-02  1.47838E-02 -9.66009E-03  3.19814E-02 -2.46335E-01  1.26023E-03
   1.20824E-01  4.46179E-04  1.35081E-01 -2.16772E-02  4.36013E-02 -1.77258E-01 -2.44079E-01  8.11467E-03 -1.06121E-01 -8.68879E-02
  -6.74783E-02  3.03578E-02 -4.97009E-02 -3.88494E-02 -1.84284E-01  3.10983E-02  9.72829E-02  3.50785E-01  1.01381E-01 -6.46431E-01
   1.30071E-01 -2.43901E-01 -2.14796E-01 -8.27346E-02 -2.79204E-01 -2.41496E-01 -2.02268E-01  3.59807E-01  2.60543E-02 -1.44779E-01
  -8.09701E-02  8.97831E-02  1.12426E-01  1.50645E-02 -3.25574E-01 -2.80442E-02  1.37644E-01 -8.29267E-02 -5.19250E-02 -4.26245E-02
   3.81842E-02  1.50954E-01  4.51708E-01 -1.96060E-01
 NY points of the fit to the data follow
   9.78527E-02  9.87616E-02  5.84032E-02  6.90023E-02  9.21434E-02  9.64397E-02  1.12238E-01  1.38561E-01  1.22959E-01  1.71048E-01
   1.38473E-01  2.00806E-01  1.51126E-01  2.28689E-01  1.51119E-01  2.28950E-01  1.36467E-01  2.14848E-01  1.11660E-01  1.80566E-01
   5.74837E-02  1.15948E-01 -2.64489E-02  2.84253E-03 -1.09472E-01 -1.31505E-01 -1.60485E-01 -2.20877E-01 -2.12492E-01 -2.36337E-01
  -2.57262E-01 -2.77841E-01 -2.95083E-01 -2.89310E-01 -3.08372E-01 -2.57167E-01 -2.70534E-01 -1.85154E-01 -1.77339E-01 -8.79854E-02
  -5.82311E-02  2.41129E-02  6.91513E-02  1.35309E-01  1.91659E-01  2.34006E-01  2.93252E-01  3.04007E-01  3.52780E-01  3.15083E-01
   3.45648E-01  2.53778E-01  2.55240E-01  1.35249E-01  1.16357E-01 -1.87804E-02 -3.90331E-02 -1.52995E-01 -1.85481E-01 -2.12167E-01
  -2.53150E-01 -2.29075E-01 -2.44534E-01 -1.85384E-01 -1.97221E-01 -1.08231E-01 -1.15251E-01 -1.91042E-02 -1.87066E-02  7.14237E-02
   4.59231E-02  1.23884E-01  4.67395E-02  1.12959E-01  4.00750E-02  4.39433E-02  2.47411E-02 -4.72972E-02  2.86637E-03 -1.03616E-01
  -5.50771E-02 -7.69248E-02 -4.51461E-02 -3.11491E-02  3.88980E-02  6.38551E-02  1.36077E-01  1.75731E-01  2.45212E-01  2.66712E-01
   3.19895E-01  2.84361E-01  3.15238E-01  2.04540E-01  2.37014E-01  6.31396E-02  1.90044E-01 -4.06207E-02  1.46983E-01 -5.94483E-02
   1.56719E-01 -4.36450E-02  1.80982E-01  1.77501E-03  2.20123E-01  8.20764E-02  2.73424E-01  1.98276E-01  3.24413E-01  3.14480E-01
   3.45266E-01  3.65710E-01  3.32915E-01  3.38498E-01  3.20474E-01  2.91288E-01  3.01605E-01  2.61252E-01  2.37391E-01  2.03609E-01
   1.35201E-01  9.62838E-02 -1.16174E-03 -2.04413E-02 -1.31411E-01 -1.19646E-01 -2.46870E-01 -2.19292E-01 -3.74384E-01 -3.32733E-01
  -4.74374E-01 -4.06373E-01 -5.25048E-01 -4.29416E-01 -5.05703E-01 -4.13774E-01 -4.12989E-01 -3.55183E-01 -2.92509E-01 -2.47026E-01
  -1.99252E-01 -1.57434E-01 -1.18890E-01 -1.06445E-01 -5.06044E-02 -2.45494E-02  4.65363E-02  8.40802E-02  1.30076E-01  1.56882E-01
   1.57974E-01  1.70683E-01  1.84577E-01  1.99983E-01  2.13845E-01  2.49270E-01  2.90928E-01  3.28209E-01  3.90133E-01  3.73372E-01
   3.78969E-01  3.47511E-01  3.14621E-01  2.83110E-01  2.22145E-01  1.88622E-01  9.63116E-02  7.58150E-02 -2.46550E-02 -4.19370E-02
  -1.49105E-01 -1.62404E-01 -2.68501E-01 -2.76450E-01 -3.84641E-01 -3.55328E-01 -4.24634E-01 -3.44385E-01 -3.30218E-01 -2.50988E-01
  -1.90948E-01 -1.87234E-01 -1.93280E-01 -1.77759E-01 -1.81516E-01 -1.62459E-01 -1.70615E-01 -1.47969E-01 -1.59477E-01 -1.35858E-01
  -1.44228E-01 -1.26550E-01 -1.28042E-01 -1.17140E-01 -1.10025E-01 -1.02437E-01 -9.40241E-02 -8.78597E-02 -8.01605E-02 -7.38085E-02
  -6.75219E-02 -6.24786E-02 -5.88126E-02 -5.54891E-02 -5.30773E-02 -5.07864E-02 -4.96416E-02 -4.84935E-02 -4.86105E-02 -4.81186E-02
  -4.98303E-02 -4.96134E-02 -5.26117E-02 -5.52001E-02 -5.68188E-02 -5.49248E-02 -5.15242E-02 -3.47040E-02 -3.33017E-02 -1.15557E-02
  -6.72430E-03  2.42868E-02  4.11252E-02  7.76613E-02  8.61543E-02  1.20033E-01  1.17784E-01  1.48862E-01  1.38383E-01  1.63057E-01
   1.41047E-01  1.56580E-01  1.26606E-01  1.25201E-01  8.90706E-02  7.07056E-02  3.54729E-02  1.41938E-02 -2.11870E-02 -3.06852E-02
  -6.78346E-02 -8.08266E-02 -1.07035E-01 -1.07179E-01 -1.10404E-01 -1.09068E-01 -1.19949E-01 -1.19258E-01 -1.37032E-01 -1.16713E-01
  -1.46814E-01 -1.11520E-01 -1.38625E-01 -9.73290E-02 -1.16627E-01 -8.04995E-02 -8.39276E-02 -5.77798E-02 -5.11373E-02 -2.50285E-02
  -1.90205E-02  1.49745E-02  1.67842E-02  5.96329E-02  5.18449E-02  8.43092E-02  7.63076E-02  8.20081E-02  7.09732E-02  6.42502E-02
   2.79950E-02  3.50657E-02 -3.79533E-02 -5.23300E-02 -1.11690E-01 -1.53041E-01 -1.77643E-01 -2.21597E-01 -2.07204E-01 -2.24055E-01
  -1.96257E-01 -1.80476E-01 -1.44733E-01 -9.99155E-02 -6.02076E-02  1.82748E-03  4.16963E-02  1.14491E-01  1.52450E-01  2.36664E-01
   2.62457E-01  3.51959E-01  3.45039E-01  4.08689E-01  3.67496E-01  3.69183E-01  3.26661E-01  2.91088E-01  2.66645E-01  2.50177E-01
   2.30401E-01  2.36396E-01  2.20453E-01  2.20966E-01  2.10371E-01  2.02114E-01  1.90908E-01  1.77878E-01  1.55643E-01  1.42934E-01
   1.07134E-01  9.06205E-02  4.73284E-02  1.51648E-02 -2.41116E-02 -7.70580E-02 -1.00698E-01 -1.66915E-01 -1.62818E-01 -2.32170E-01
  -1.97640E-01 -2.62561E-01 -2.09884E-01 -2.63195E-01 -2.05066E-01 -2.45048E-01 -1.83480E-01 -2.15150E-01 -1.50247E-01 -1.72088E-01
  -8.74089E-02 -1.02779E-01 -5.90616E-02 -8.81929E-02 -1.72343E-01 -2.22691E-01 -3.26256E-01 -3.79155E-01 -4.69412E-01 -5.10634E-01
  -5.76623E-01 -5.96179E-01 -6.12472E-01 -6.06437E-01 -6.13641E-01 -5.77792E-01 -5.86251E-01 -5.22646E-01 -5.21816E-01 -4.41364E-01
  -3.63448E-01 -2.79233E-01 -1.25717E-01 -6.28305E-02  4.34222E-02  6.32648E-02  1.99799E-02  1.72353E-02  1.64500E-02  1.84730E-02
   1.95688E-02  1.96405E-02  2.20001E-02  2.06558E-02  2.43270E-02  2.23215E-02  2.73648E-02  2.50932E-02  3.18803E-02  2.98192E-02
   3.83502E-02  3.74730E-02  4.57749E-02  4.70798E-02  5.33899E-02  5.62592E-02  6.07232E-02  6.30891E-02  6.68994E-02  6.82174E-02
   7.19226E-02  7.29435E-02  7.62951E-02  7.74724E-02  8.04825E-02  8.19374E-02  8.41683E-02  8.61623E-02  8.71686E-02  8.94549E-02
   8.94625E-02  9.17595E-02  9.07615E-02  9.26329E-02  9.05649E-02  9.16355E-02  8.87171E-02  8.87648E-02  8.51437E-02  8.38602E-02
   7.94015E-02  7.67481E-02  7.17957E-02  6.84067E-02  6.33874E-02  5.97152E-02  5.47883E-02  5.08586E-02  4.61840E-02  4.20527E-02
   3.80301E-02  3.39753E-02  3.08392E-02  2.69651E-02  2.45724E-02  2.10050E-02  1.93812E-02  1.62062E-02  1.51435E-02  1.28126E-02
   1.24167E-02  1.12043E-02  1.13119E-02  1.08962E-02  1.15323E-02  1.17945E-02  1.32210E-02  1.44045E-02  1.64895E-02  1.85144E-02
   2.12563E-02  2.38971E-02  2.75077E-02  3.09150E-02  3.51745E-02  3.94237E-02  4.41860E-02  4.93081E-02  5.49078E-02  6.08302E-02
   6.72595E-02  7.40384E-02  8.10083E-02  8.82488E-02  9.51702E-02  1.02237E-01  1.08186E-01  1.14793E-01  1.19475E-01  1.25009E-01
   1.27749E-01  1.31410E-01  1.31781E-01  1.33419E-01  1.31162E-01  1.30916E-01  1.26122E-01  1.23887E-01  1.17618E-01  1.13595E-01
   1.06670E-01  1.01534E-01  9.43838E-02  8.84290E-02  8.14359E-02  7.51047E-02  6.88683E-02  6.29496E-02  5.81546E-02  5.29970E-02
   4.97063E-02  4.55102E-02  4.34969E-02  4.06525E-02  4.00389E-02  3.88840E-02  3.92166E-02  3.96295E-02  4.06308E-02  4.21659E-02
   4.40040E-02  4.63866E-02  4.88746E-02  5.15790E-02  5.43694E-02  5.70311E-02  5.93133E-02  6.18082E-02  6.30992E-02  6.51574E-02
   6.55872E-02  6.67130E-02  6.63158E-02  6.65753E-02  6.54251E-02  6.50126E-02  6.33297E-02  6.23718E-02  6.00071E-02  5.84159E-02
   5.56032E-02  5.35331E-02  5.06701E-02  4.82902E-02  4.59345E-02  4.31206E-02  4.09400E-02  3.78880E-02  3.54946E-02  3.24117E-02
   2.95393E-02  2.60702E-02  2.24216E-02  1.82804E-02  1.34008E-02  8.32099E-03  1.88768E-03 -4.34622E-03 -1.25946E-02 -2.00551E-02
  -3.01028E-02 -3.87153E-02 -4.98895E-02 -5.89957E-02 -7.04902E-02 -7.95071E-02 -9.06006E-02 -9.86641E-02 -1.08408E-01 -1.14912E-01
  -1.22090E-01 -1.26630E-01 -1.30659E-01 -1.33166E-01 -1.34200E-01 -1.34620E-01 -1.33231E-01 -1.31425E-01 -1.27896E-01 -1.24311E-01
  -1.19276E-01 -1.14304E-01 -1.08315E-01 -1.02732E-01 -9.60943E-02 -9.01559E-02 -8.31881E-02 -7.70896E-02 -7.02003E-02 -6.37948E-02
  -5.66977E-02 -5.05456E-02 -4.36088E-02 -3.78907E-02 -3.16067E-02 -2.65406E-02 -2.09930E-02 -1.66486E-02 -1.20510E-02 -8.22646E-03
  -4.59683E-03 -1.45442E-03  1.25368E-03  3.90213E-03  5.99334E-03  8.07679E-03  9.84155E-03  1.16845E-02  1.27809E-02  1.44145E-02
   1.53413E-02  1.65536E-02  1.76193E-02  1.82286E-02  1.90739E-02  1.97720E-02  2.02058E-02  2.08775E-02  2.11750E-02  2.17485E-02
   2.20402E-02  2.23366E-02  2.23629E-02  2.19851E-02  2.19548E-02  2.14827E-02  2.12944E-02  2.09413E-02  2.06045E-02  2.04372E-02
   1.97391E-02  1.96207E-02  1.88422E-02  1.87494E-02  1.78595E-02  1.79585E-02  1.68577E-02  1.69174E-02  1.60619E-02  1.62254E-02
   1.56783E-02  1.61198E-02  1.59295E-02  1.63697E-02  1.63257E-02  1.59370E-02  1.66556E-02  1.58319E-02  1.70726E-02  1.59656E-02
   1.73696E-02  1.62219E-02  1.73558E-02  1.60762E-02  1.72661E-02  1.62809E-02  1.74375E-02  1.65903E-02  1.73674E-02  1.68132E-02
   1.72869E-02  1.72868E-02  1.74793E-02  1.78213E-02  1.77160E-02  1.81752E-02  1.77646E-02  1.78868E-02  1.74868E-02  1.73570E-02
   1.67649E-02  1.66772E-02  1.59537E-02  1.55585E-02  1.49233E-02  1.42952E-02  1.39400E-02  1.35414E-02  1.30636E-02  1.29298E-02
   1.22616E-02  1.24717E-02  1.19919E-02  1.24337E-02  1.21519E-02  1.27801E-02  1.22924E-02  1.35098E-02  1.28658E-02  1.44249E-02
   1.37774E-02  1.53803E-02  1.46636E-02  1.64881E-02
 NY background values follow
     4.291E-02    4.277E-02    4.263E-02    4.249E-02    4.235E-02    4.221E-02    4.207E-02    4.194E-02    4.180E-02    4.166E-02
     4.152E-02    4.138E-02    4.124E-02    4.110E-02    4.096E-02    4.082E-02    4.068E-02    4.054E-02    4.040E-02    4.027E-02
     4.013E-02    3.999E-02    3.985E-02    3.971E-02    3.957E-02    3.943E-02    3.929E-02    3.915E-02    3.901E-02    3.887E-02
     3.873E-02    3.859E-02    3.845E-02    3.831E-02    3.817E-02    3.803E-02    3.790E-02    3.776E-02    3.762E-02    3.748E-02
     3.734E-02    3.720E-02    3.706E-02    3.692E-02    3.678E-02    3.664E-02    3.650E-02    3.636E-02    3.622E-02    3.608E-02
     3.594E-02    3.580E-02    3.566E-02    3.552E-02    3.538E-02    3.524E-02    3.510E-02    3.496E-02    3.482E-02    3.468E-02
     3.454E-02    3.440E-02    3.426E-02    3.412E-02    3.398E-02    3.384E-02    3.370E-02    3.356E-02    3.342E-02    3.328E-02
