 
 $NMID
 ID=''
 FMTDAT='(2E13.5)'
 TRAMP=   1.00000E+0
 VOLUME=   1.00000E+0
 $END
   3.78531E+2  -4.33239E+2
   9.91294E+2   3.08279E+2
   8.18767E+2  -2.74487E+3
  -9.71542E+2  -3.41925E+2
  -3.79450E+2   1.69154E+2
   6.04581E+2  -1.32715E+3
  -1.07416E+3   8.44055E+2
   4.64645E+2  -2.72338E+3
  -9.76909E+2  -9.14375E+2
  -1.04536E+3  -2.57729E+3
   2.70637E+1  -1.26180E+3
   1.69637E+2  -9.93995E+2
  -8.64881E+2   3.39021E+2
  -5.87976E+1   3.02849E+3
  -1.66911E+3   1.23714E+3
  -3.12571E+2  -3.46765E+3
   2.63254E+3  -1.52082E+3
   3.34625E+3  -9.02488E+2
   9.58860E+1   7.96310E+2
  -7.17027E+2  -1.65627E+3
   3.85675E+2  -4.09049E+3
   3.12158E+3  -1.27779E+3
  -7.80182E+1   3.41414E+3
  -4.95778E+3   1.33387E+2
  -2.37115E+3  -3.57975E+3
   3.82871E+3   1.37570E+2
   1.15374E+3   3.18849E+3
  -1.38944E+3   4.14446E+3
  -3.00774E+3  -2.56118E+2
  -2.96386E+2  -2.17404E+3
   7.51893E+3  -1.99011E+3
   2.64731E+3   6.41952E+3
  -1.85712E+3   3.51713E+3
  -1.34580E+3   1.38991E+3
  -8.85490E+2   8.65095E+2
  -2.52839E+3   1.27216E+3
  -1.90824E+3  -1.47577E+3
   4.22838E+3  -2.57970E+3
   3.17840E+3  -2.02476E+3
   1.18483E+3   1.42307E+3
   2.33902E+3   1.74306E+3
  -6.70109E+2   4.24179E+3
  -4.80573E+3   9.44003E+2
  -4.67318E+3  -4.56502E+3
  -1.31180E+2  -2.02698E+3
   1.25736E+2  -1.04034E+3
   2.52196E+2   2.87027E+2
   7.88918E+2  -5.90061E+0
  -1.36227E+3  -6.96611E+1
   1.14654E+3  -3.78124E+2
  -2.43130E+3   1.76796E+3
  -2.91538E+3  -1.94628E+3
  -1.43495E+3  -3.00622E+3
   2.59314E+2  -2.39074E+3
   6.62391E+2  -3.18300E+2
   3.82591E+3   4.78227E+2
   4.16156E+3   4.00669E+3
  -8.98496E+2   2.31011E+3
  -2.17504E+3   1.30546E+3
  -2.56597E+3  -6.17581E+2
  -1.05538E+3  -2.05855E+3
   3.62603E+2  -2.70904E+3
   8.93607E+2  -1.94855E+3
   7.23301E+2   1.35299E+3
  -9.43365E+2  -1.70206E+3
   1.71942E+3  -1.49595E+3
   3.87139E+2  -4.35330E+2
   2.14446E+3   1.36103E+3
  -1.35964E+3  -1.12771E+3
  -1.23773E+3   3.14360E+2
  -3.03163E+2  -6.34709E+2
  -4.84215E+2   7.39325E+2
   6.80568E+2   1.47648E+3
   9.41763E+2  -8.59074E+2
   1.67577E+3  -1.03478E+3
   4.52763E+2  -2.73964E+2
  -1.19866E+2   1.38051E+3
  -9.61155E+2   2.25935E+3
  -1.61939E+2  -3.66240E+2
   1.05822E+3  -5.52224E+2
  -4.53030E+2   3.15585E+1
   2.04496E+2   1.09389E+3
  -2.20870E+1  -1.47907E+3
   1.09424E+3  -8.16950E+1
   1.82173E+3   7.45753E+2
   3.20802E+2   3.61861E+3
  -2.32318E+3   1.91586E+2
  -1.94975E+2   5.28364E+2
  -1.01688E+3  -1.48570E+2
   1.51538E+3   2.22207E+2
   8.20621E+2  -4.23369E+2
  -8.87782E+2   1.01114E+3
   2.91517E+3   2.46380E+2
   1.39414E+3  -4.59035E+2
   7.48610E+2   8.96458E+2
  -1.37262E+3   1.64233E+3
  -8.94697E+2  -9.11678E+2
  -1.56494E+2  -1.69101E+3
   1.34981E+3  -9.14264E+2
  -1.77493E+2   1.25836E+3
  -2.02542E+3   8.10737E+1
  -1.53832E+3   1.40035E+3
  -9.87901E+2   6.28584E+2
   3.00965E+3  -3.58162E+1
  -2.57417E+3  -6.27242E+2
   1.23989E+3  -6.27078E+2
   1.41269E+3  -2.21692E+3
  -6.87694E+2   8.68536E+2
  -1.62106E+3   1.78996E+3
  -9.74316E+1   1.61138E+3
  -1.52576E+3  -1.80750E+3
  -7.93517E+2  -2.16740E+3
   1.23384E+3  -2.76499E+3
   1.92315E+3  -6.92002E+2
  -2.71447E+2   9.37852E+2
  -6.52955E+1   1.67358E+2
  -3.62031E+2  -8.11323E+1
  -1.71185E+3  -2.69871E+2
  -2.39442E+2   4.99751E+2
   5.71777E+2   9.89191E+2
   2.04286E+3  -1.18144E+3
  -9.89573E+2  -1.43894E+2
  -3.82136E+2   9.05497E+2
   9.78894E+2   6.88487E+2
  -1.30898E+3   2.66436E+3
   7.29408E+1   9.19379E+2
   9.32536E+2  -1.06973E+3
  -1.00031E+3  -9.14424E+2
  -2.29667E+2   7.92600E+2
  -4.06800E+2   1.07595E+1
   3.95511E+2   1.51691E+2
  -1.73460E+3  -1.11480E+3
  -3.37018E+2  -1.23317E+3
   9.10895E+2  -1.69709E+3
   9.27734E+2  -1.40482E+3
   3.31441E+2   3.69519E+2
   1.07680E+3   2.19468E+3
  -1.21816E+3   4.77560E+2
   2.61087E+2   3.56905E+2
   1.14550E+3  -8.32280E+1
   2.42520E+2   5.75858E+2
  -9.67437E+2   7.01069E+2
  -3.97552E+2   2.64024E+2
  -9.93991E+2  -3.91710E+2
   7.92224E+2   7.53903E+2
   3.23510E+2   1.42373E+3
  -1.94854E+3   8.88759E+2
   7.56824E+2  -6.49810E+2
  -1.31865E+3   2.26814E+3
   4.84476E+2   3.63597E+2
  -2.09418E+3  -5.12082E+2
  -8.19425E+2  -5.61131E+2
  -3.61812E+2   2.97033E+1
  -2.40270E+2   5.06934E+2
  -1.73652E+3  -8.94452E+2
  -2.95872E+2   2.86818E+2
  -6.11403E+2   1.73751E+3
   3.55644E+2  -7.41239E+2
  -2.12981E+3   5.93327E+2
  -7.16730E+1   7.83197E+2
   1.81738E+2  -2.92597E+2
  -5.92033E+2  -1.90058E+3
   7.53563E+2  -9.52967E+1
   1.93542E+2  -4.19286E+2
   1.27002E+3   7.61436E+2
   1.74097E+3   2.33768E+2
   2.61483E+2  -5.39760E+2
   5.65805E+1   1.37718E+3
   2.73593E+2  -6.19665E+2
   7.64674E+1  -1.53190E+1
  -1.94341E+3   1.26230E+3
  -9.73882E+2   7.73349E+2
   1.73430E+2   9.71805E+2
  -3.10173E+2  -5.29376E+2
  -1.12698E+3  -9.30098E+2
  -1.31696E+3   1.06861E+3
   5.51414E+2  -3.72289E+2
   1.21722E+3   5.37090E+2
  -7.40337E+1   1.09898E+3
   7.45008E+2  -1.52347E+3
   9.95051E+1  -6.58973E+2
  -8.09676E+2  -2.07897E+3
  -9.64457E+2  -2.46274E+3
   8.87056E+2  -1.51409E+3
   7.58951E+2   1.12731E+3
   1.09216E+2  -6.26918E+2
   1.14868E+3  -1.62305E+2
   1.16966E+3   2.35544E+3
  -1.25607E+3   1.26691E+3
  -5.42638E+2   8.36347E+2
  -1.21917E+3   1.19490E+2
  -5.88267E+2  -7.24538E+2
   1.41912E+3  -1.23607E+3
   1.54462E+3   1.28103E+3
  -6.07706E+2  -1.64300E+3
   1.77309E+3  -5.33654E+2
  -1.00555E+2  -6.63955E+2
   8.87605E+2  -6.71678E+2
  -6.09547E+2  -1.54092E+3
   1.73915E+3  -5.09592E+2
   1.15843E+3  -2.69017E+2
   4.94620E+1  -1.63197E+3
  -1.54942E+3  -9.02703E+2
   7.36089E+2  -1.49553E+3
   8.25714E+2   1.70749E+2
   2.93632E+2   1.51578E+3
  -7.55216E+2  -5.22649E+2
   3.87228E+2   2.77725E+2
   4.67302E+2   4.71140E+2
  -4.98251E+2  -5.47183E+2
  -7.59596E+2   1.85134E+3
   8.04838E+2   5.97293E+2
  -9.28863E+1   1.30116E+3
   1.00349E+3   2.22589E+2
  -1.04672E+3  -1.54464E+3
  -3.36988E+2   8.65872E+2
   2.29913E+2  -3.26145E+2
   6.70709E+1  -7.14652E+2
   9.31076E+2   9.02071E+2
   7.20511E+2   1.10303E+3
   2.20580E+3   1.33845E+3
  -1.88849E+3  -1.77100E+3
   2.49908E+3   7.12089E+2
  -2.02075E+3  -1.72385E+3
   9.11992E+2  -3.54407E+2
   1.96315E+2  -8.10941E+2
  -1.47307E+3  -1.48420E+3
   1.13089E+3  -8.72094E+2
  -3.72374E+2   7.40844E+2
  -7.87941E+2   3.17181E+2
   2.43795E+2  -1.06032E+3
   1.58543E+3  -7.89852E+2
  -3.97077E+2  -6.71941E+2
  -6.69276E+2  -1.74663E+3
  -1.16990E+3  -5.40903E+2
  -3.23200E+1   7.65488E+2
   8.21366E+1  -1.07507E+3
  -1.92408E+2  -1.06685E+3
  -9.01972E+2  -5.99661E+2
  -1.04763E+3  -8.57903E+2
   1.28255E+3  -8.52943E+2
   3.47832E+2   1.71084E+3
  -5.82050E+2  -6.12334E+2
  -8.47752E+2  -8.86880E+2
   2.00265E+3  -1.09164E+3
   6.07789E+2  -5.93201E+1
  -1.77182E+2   1.17260E+3
   1.36524E+3  -4.82168E+2
  -4.72334E+2   4.26348E+2
   6.38727E+2  -2.50239E+2
   1.01457E+3  -6.78024E+2
   1.40487E+3   1.17428E+3
   3.97070E+2   8.24243E+2
   4.32518E+2   1.73155E+3
   4.04866E+2   3.02110E+2
   1.02979E+3   2.20416E+2
   1.07768E+3   7.29492E+2
   3.01825E+2   1.97151E+3
  -1.33433E+3  -7.56873E+2
   4.81939E+2  -1.54012E+2
   3.05243E+2   1.40521E+3
   1.74146E+3   6.38016E+2
  -7.01068E+2  -7.36564E+2
  -4.36090E+2   1.44318E+3
   1.17178E+3   1.37932E+3
   1.74829E+3  -3.35295E+2
  -1.13382E+3   1.27001E+3
   1.19455E+3  -1.32438E+3
  -2.33846E+2  -3.64882E+2
   1.90855E+3  -4.61633E+2
   1.16026E+3   4.53655E+2
  -5.19170E+2   1.72344E+3
   2.58238E+2  -1.90716E+3
   8.38940E+2   5.50947E+2
   5.34784E+2   1.59870E+3
  -2.29511E+3   1.07716E+3
   3.08580E+2  -1.24077E+3
  -2.16709E+2  -1.18776E+3
   1.04297E+3  -8.28494E+2
  -9.21208E+2  -4.22065E+2
  -7.66621E+2  -8.93539E+2
   1.19800E+3  -9.88758E+2
  -1.80621E+1   6.38256E+2
  -3.47714E-1   9.69486E+2
   6.93689E+2  -1.24509E+1
   2.80696E+1   1.59399E+2
  -1.04377E+3   6.15718E+2
  -2.12670E+2   1.36309E+3
  -1.88289E+2  -5.10717E+1
  -1.46907E+3   1.22547E+3
  -9.53769E+2  -1.86252E+3
  -1.38040E+1  -1.26839E+3
   6.01773E+2  -6.79966E+2
   1.99429E+3  -3.12146E+1
  -9.57967E+2  -1.14347E+3
   8.95497E+2  -6.35695E+2
   1.47400E+3  -9.17749E+2
   9.54722E+2   1.38930E+3
   1.74750E+2  -1.02900E+3
  -6.59334E+2   4.31241E+2
  -1.63863E+3  -8.20278E+1
   7.58151E+2   1.23828E+3
  -7.64658E+2  -1.48995E+2
   5.05354E+2  -4.11482E+1
   4.12052E+2  -4.06704E+2
  -4.30178E+2  -1.17240E+2
  -8.92820E+1   6.47716E+2
  -1.67900E+3  -6.25420E+2
   6.15466E+1   9.82378E+2
   1.17517E+3  -1.62554E+3
   5.63358E+2  -9.19812E+1
  -5.51578E+2  -1.74756E+3
  -9.62878E+2   5.65815E+2
   4.54628E+2   1.02496E+3
  -3.54956E+2   1.36692E+3
  -6.38628E+2   5.83032E+2
  -2.61799E+3  -7.27701E+2
   4.32930E+2   8.59507E+2
   6.96448E+1  -1.45328E+3
   4.24422E+2   6.73570E+2
   7.65894E+2  -3.44488E+2
  -2.63392E+2   1.21759E+3
  -1.93075E+3   8.16077E+2
   1.17169E+3   1.11773E+3
  -7.68858E-1  -8.81389E+2
   1.98924E+3  -5.00227E+2
  -2.27272E+3   2.00802E+2
   2.68804E+3   2.78558E+2
  -6.80358E+2   4.21145E+1
  -9.04769E+2  -1.15252E+3
  -4.52256E+2   1.03605E+3
   9.91425E+2  -7.10987E+2
  -1.76478E+3   1.73528E+3
  -1.33051E+3  -4.93758E+2
  -1.09669E+3  -4.23659E+2
  -1.23997E+3   7.47914E+2
  -1.31124E+3  -2.83752E+2
  -2.76756E+2   3.00044E+2
  -3.79554E+2  -1.77062E+3
   6.82607E+2  -6.23229E+2
   6.01319E+2   1.21495E+3
  -2.94305E+3  -2.19123E+3
  -1.33036E+3  -2.21893E+3
  -2.45523E+3  -1.22483E+3
   1.04084E+3   1.04461E+3
  -3.51455E+2  -7.75964E+2
   8.35245E+2   3.34024E+2
  -6.28266E+2   1.11196E+3
  -1.51190E+2  -6.10781E+2
  -2.32004E+2  -8.57464E+2
  -1.23800E+3   3.67866E+2
   3.00251E+2   1.21977E+3
   4.03839E+2   9.83853E+2
   3.18073E+2  -2.01359E+2
   8.76629E+2   1.28131E+3
  -9.44561E+2   3.74529E+2
   5.77005E+2   1.11877E+3
  -3.67847E+2   6.63940E+2
  -9.69643E+2  -1.51966E+3
   4.43918E+2   1.20628E+2
  -1.04205E+3   9.48266E+2
   1.31350E+2   6.98735E+2
  -1.31583E+3   1.65063E+2
  -2.44479E+2   1.35238E+2
   1.19525E+1  -5.77616E+2
   1.16339E+3  -6.01415E+2
   1.72126E+2   1.91646E+2
