 
 $NMID
 ID=''
 FMTDAT='(2E13.5)'
 TRAMP=   1.00000E+0
 VOLUME=   1.00000E+0
 $END
   3.61865E+2  -1.98692E+1
  -1.46380E+3   1.82002E+3
   5.24410E+3   1.30768E+2
   2.12676E+3  -3.71051E+2
   1.11666E+3  -2.27447E+3
  -4.40316E+2  -2.50377E+3
  -3.46409E+3  -3.12451E+2
  -1.92866E+3  -1.46654E+3
  -2.62174E+2  -1.46404E+3
   9.00084E+2   5.54884E+2
   2.49652E+3   1.46864E+3
   1.76008E+3   3.34405E+3
  -2.02819E+3   1.41376E+3
  -2.26153E+3   1.98213E+3
  -1.42246E+3  -6.82955E+2
   1.69860E+3   1.53947E+2
   1.90062E+3  -5.70481E+2
   1.61386E+3   2.16851E+3
   1.26547E+3   8.71546E+2
   6.69790E+2   4.45440E+2
   3.05485E+3   2.01567E+3
   1.01015E+3   4.23534E+3
  -4.27303E+3   1.87941E+3
  -2.45408E+2  -3.39544E+3
   3.34446E+3  -1.95409E+3
   1.91934E+3   2.66562E+3
  -1.16247E+3   2.47157E+2
   9.12868E+1  -3.68548E+3
   1.36117E+3  -3.17108E+3
   3.51061E+3   7.79085E+1
   3.57349E+3   5.54915E+3
  -3.22983E+3   5.24895E+3
  -3.40974E+3  -2.93169E+3
   2.55464E+2  -8.28561E+2
  -1.46961E+3  -2.18039E+3
  -8.78685E+1  -6.00047E+3
   3.30590E+3  -6.41763E+3
   3.75500E+3   1.16894E+3
   2.90763E+3   3.17241E+3
   1.98930E+3   1.98497E+3
  -1.04794E+3   1.37661E+3
  -3.52954E+3  -2.96427E+3
   6.27300E+1  -6.63782E+3
   3.31646E+3  -3.77889E+3
   1.98947E+3   7.55721E+2
  -2.22195E+3  -2.05897E+3
  -1.55692E+3  -6.06754E+2
  -4.34761E+1   1.23666E+3
  -3.33950E+3   3.50847E+3
  -1.87043E+3   5.75976E+2
  -2.13597E+3  -3.15493E+3
   3.42648E+1  -2.05634E+3
   2.68198E+3   3.75159E+2
   7.07726E+2   4.04887E+3
  -7.19121E+2   4.31912E+3
  -2.99138E+3   1.87049E+3
  -4.79763E+3   4.42864E+2
  -3.96716E+3  -4.82792E+3
  -2.22692E+2  -6.16642E+3
   3.01723E+3  -4.49868E+3
   4.05628E+3  -2.90343E+2
   2.32197E+3   2.30750E+3
  -5.82263E+2   2.49856E+3
  -3.99376E+3   2.91874E+2
  -2.85906E+2  -9.84318E+2
   8.72767E+2   7.33919E+2
  -1.38137E+3   3.14253E+3
  -3.66563E+3   9.02668E+2
   9.62466E+2  -1.50646E+3
   1.86360E+3   1.62828E+3
  -2.71085E+3   3.01796E+2
  -2.77011E+3   1.09156E+3
  -2.41374E+3  -1.26609E+3
   5.06635E+2   3.87960E+2
   2.20504E+3  -8.74629E+2
  -1.66682E+2   2.89979E+3
  -1.08427E+3   6.36610E+2
  -1.55173E+3  -9.68050E+2
  -1.14887E+3  -1.54425E+3
  -7.35661E+1   3.78436E+3
   3.25306E+2   2.35336E+2
  -1.47816E+3  -4.72579E+2
   2.10131E+3   1.02147E+3
   1.86366E+3   8.02491E+2
  -8.27211E+2   2.07401E+3
  -1.45677E+3  -1.78410E+3
   7.98603E+2  -4.05398E+3
   3.97922E+3  -2.69065E+3
   3.14182E+3   1.44979E+3
  -4.83168E+2   3.10234E+3
  -9.92157E+2   3.87678E+2
   1.35885E+3   9.56717E+2
  -4.08774E+3   2.86483E+3
  -4.73593E+3   1.31110E+3
  -9.45377E+2  -1.51502E+3
   1.75036E+3  -1.74172E+2
   1.90970E+3   1.54153E+3
   5.68867E+2   2.43787E+3
  -2.71717E+3  -2.82756E+2
  -2.09082E+3  -3.15035E+3
   2.20095E+3  -2.80209E+3
   4.07787E+3  -7.38984E+2
   2.40557E+3   2.86310E+3
  -2.28404E+3   1.76230E+3
  -3.34530E+3  -1.53949E+3
   3.08248E+2  -3.27829E+3
  -1.30816E+3  -1.61260E+2
  -8.23132E+2   3.91657E+2
  -7.70797E+2  -2.52079E+3
   2.58016E+3  -3.60798E+3
   5.35095E+3  -3.65267E+2
   1.14239E+3   1.85672E+3
   8.50040E+2   1.78962E+3
   3.95475E+2   2.02825E+3
   4.76843E+1   1.31684E+3
  -2.26128E+3  -2.77833E+2
  -6.34521E+2  -1.76869E+3
   1.09134E+3  -1.65709E+3
   1.64446E+3   5.57486E+2
   2.95211E+3   1.86101E+3
  -1.05363E+3   1.53633E+3
  -2.56369E+3   2.01369E+3
   1.90969E+2  -3.16453E+3
   1.74434E+3  -3.01921E+2
   1.00017E+3   1.80206E+3
  -1.23065E+2   9.99145E+2
   1.89780E+3   8.04897E+2
   9.72668E+2   1.28925E+3
  -1.66320E+3   2.54210E+3
  -2.30656E+3   3.53351E+2
  -2.32348E+3  -1.45682E+3
   3.92374E+1  -8.09436E+2
   3.01592E+3   9.49692E+2
   1.19766E+3   2.09710E+3
  -9.28539E+2   2.99531E+3
  -2.30682E+3   1.55471E+3
  -8.21549E+2  -7.39207E+2
  -1.47774E+3  -1.08933E+3
  -3.49649E+1   9.69834E+1
   1.84889E+2  -1.58122E+3
   3.38373E+2  -5.65702E+2
   3.49560E+3  -2.42666E+2
   2.11852E+3   1.47753E+3
  -7.49827E+2   1.16031E+3
  -7.24311E+2  -1.01254E+2
  -4.85486E+2  -2.03773E+3
   2.71497E+3  -1.62109E+2
  -2.20734E+3  -8.13446E+2
  -1.96701E+3   3.11848E+2
  -1.55340E+3  -8.03674E+2
   8.20998E+2   3.84199E+1
   1.02159E+3   4.35349E+2
   1.02613E+3  -2.93854E+3
   9.22721E+2  -1.71394E+3
   2.11063E+3   1.45947E+2
   2.44031E+3   1.50728E+3
   2.81784E+3   2.12972E+3
   1.87462E+2   4.35301E+2
   3.64817E+2  -2.04354E+3
  -1.52890E+3  -8.57881E+2
  -1.74683E+3   1.02428E+3
  -1.69765E+3   4.27514E+1
  -6.79379E+2  -1.85871E+3
   5.66883E+2   1.08310E+2
  -2.47555E+2  -2.15746E+3
  -8.70134E+1  -6.51060E+2
  -7.68159E+2  -1.59853E+3
   3.09234E+3  -2.64666E+2
   9.80845E+2   1.96197E+3
  -1.16224E+3   8.26748E+2
  -7.30482E+2   9.54674E+1
   1.78022E+2  -7.40894E+2
   2.36207E+2  -1.20668E+3
  -1.03182E+3   3.57350E+2
  -8.15395E+2  -8.16811E+2
   3.36745E+3  -7.96868E+2
   2.98623E+3  -2.17869E+3
   2.24271E+3   1.46910E+3
   3.88970E+2   9.38595E+2
  -2.68026E+3  -4.41441E+2
  -1.07739E+2  -1.42570E+3
   9.67877E+2  -3.01192E+3
  -1.07856E+3  -2.49371E+3
  -8.95939E+2  -8.74349E+2
   1.11363E+3  -5.84989E+2
   1.01221E+3   3.38791E+2
  -1.09008E+3   5.31655E+2
  -2.48059E+3  -5.22550E+2
  -2.20311E+3  -2.49772E+3
   1.42487E+3  -2.42177E+2
   1.06454E+3   1.30240E+3
   1.27492E+3   1.28272E+3
  -1.15421E+3  -8.21211E+2
   4.54842E+2   1.30093E+3
  -1.71145E+2  -5.82286E+2
  -4.69209E+2  -1.06069E+3
  -1.01969E+3   4.61002E+2
  -5.02890E+2  -7.88679E+1
   1.64025E+3  -3.79303E+2
  -1.83041E+2   7.51746E+2
  -1.64250E+2   1.18066E+3
  -2.43281E+3   9.33711E+2
  -1.06502E+3   2.89183E+2
   8.57544E+2  -1.35534E+3
  -1.89792E+2  -8.39961E+2
  -7.21844E+2  -2.02821E+2
  -2.54270E+3  -6.77580E+0
  -9.83500E+2  -7.10879E+2
   8.90267E+2   1.25462E+3
   1.24930E+3  -4.86392E+2
  -1.76706E+3   1.97856E+3
   7.83610E+1  -1.88519E+3
   5.74576E+2  -1.76254E+3
  -1.37992E+2   5.15402E+2
  -1.17846E+2   1.33263E+3
  -1.20047E+3   4.16065E+2
  -9.67141E+2  -1.64800E+3
  -2.26454E+2   3.16851E+1
  -7.96808E+2  -3.55086E+2
  -1.80337E+3  -1.44595E+3
  -1.82693E+3   1.83291E+3
   2.94783E+3   7.06635E+2
  -1.51005E+3  -4.75282E+2
   4.96424E+2   1.75123E+2
   2.52722E+2  -1.18165E+3
   2.10753E+3  -1.23144E+3
   1.43326E+3   1.62767E+3
   2.06511E+3   5.55662E+1
  -1.18303E+3   2.56550E+3
  -1.16138E+3   4.67835E+2
  -2.03660E+3   3.26527E+2
   1.89705E+2  -8.26078E+2
  -1.13973E+3  -7.10570E+2
   9.73562E+2  -1.90715E+3
   2.68178E+3  -3.08341E+2
   2.27623E+3   1.09816E+3
  -8.81092E+2   2.23452E+3
  -6.16994E+2   1.07714E+3
   1.92505E+1  -1.17184E+3
   2.26975E+3   1.88132E+3
   1.10642E+3  -9.60238E+2
  -7.97261E+2   4.66058E+2
   3.75675E+2  -8.94493E+1
  -6.35670E+2  -1.45392E+3
   1.00081E+3  -2.21715E+2
  -9.27428E+2   8.02027E+2
   5.63579E+2   9.87827E+2
   7.97392E+2  -2.34519E+3
   1.32994E+3  -1.36820E+3
   1.60031E+3  -4.51790E+2
   1.44930E+2   2.21680E+3
  -2.27567E+3  -1.06642E+3
   5.96869E+2  -6.91899E+2
   2.00061E+2  -5.71382E+2
   7.12005E+2   4.17997E+2
  -8.83067E+2  -7.01373E+2
   2.46625E+3  -1.11831E+3
   3.55777E+2   2.48574E+3
  -1.00355E+3   1.79212E+3
  -7.99683E+2  -3.81908E+1
  -9.97317E+2   3.49430E+1
   1.41836E+2  -7.05198E+2
   2.86324E+2  -8.05844E+2
  -4.88633E+2   1.06807E+3
   2.74051E+2   9.07155E+2
   8.70827E+0   6.11667E+2
   4.95023E+2   1.23053E+3
  -2.10251E+3   2.26156E+2
   1.05371E+3  -2.45798E+3
  -2.15383E+2   3.89853E+2
  -6.45275E+2  -1.92868E+3
   1.97401E+3   2.99084E+2
   1.52758E+3  -1.96546E+2
  -9.65182E+2   5.11701E+2
  -1.17912E+3   1.34457E+3
   1.11056E+3  -1.19373E+3
   4.72922E+2   1.69672E+2
  -1.42290E+2   1.22472E+3
   1.05185E+3   2.10596E+2
   3.39466E+2   7.34664E+2
   5.02947E+2   2.85802E+2
  -1.45946E+3   1.58818E+3
  -9.66017E+2   1.55495E+3
   7.59744E+2   1.84358E+3
   6.99308E+2   6.54917E+2
   4.26595E+2   3.10222E+3
  -1.03168E+3   2.57915E+3
  -8.26833E+2  -1.73603E+3
   1.18934E+3   3.58786E+1
  -2.22763E+3  -1.39834E+3
  -1.11999E+2   7.02888E+2
  -7.83897E+1   3.68703E+3
  -1.91059E+3  -1.25845E+3
   9.92195E+2  -1.46635E+1
   9.37966E+2   2.76065E+3
  -2.31542E+2   1.46112E+2
  -1.75816E+3  -3.71659E+2
   9.43454E+1   6.81914E+2
  -3.28015E+3   8.88796E+2
  -1.06778E+2  -5.57463E+2
   1.32587E+2  -1.04559E+3
   1.13083E+3   3.48188E+2
  -2.61928E+1   9.49037E+2
  -1.93477E+3   2.18453E+3
  -6.31674E+2   1.21631E+3
   3.57280E+2  -2.73712E+2
   7.33024E+2   8.77203E+2
   1.30957E+3  -3.26865E+2
  -1.10294E+3   1.31152E+3
  -1.09350E+3   4.41984E+2
  -7.35316E+2   2.70487E+2
   1.32556E+3   8.43466E+2
   2.48141E+2   1.66925E+3
   1.09280E+3   8.79352E+2
  -6.37608E+2   1.77412E+3
  -8.67226E+2   1.66840E+2
   8.40370E+2   1.65424E+3
  -1.66301E+3  -1.27744E+2
  -1.80911E+3   2.86487E+2
  -1.17463E+3  -6.91121E+2
  -1.18574E+3   1.17998E+2
  -1.12116E+3  -6.50122E+2
  -5.54694E+2  -2.84206E+2
  -1.07095E+2   1.73579E+3
   9.04118E+2  -1.56040E+3
  -4.51782E+2   1.91728E+3
   2.05176E+2  -3.42414E+2
   8.83272E+2  -3.83061E+2
   1.05204E+3  -1.35003E+3
  -5.56784E+1   3.66042E+2
   3.61052E+1   1.91465E+3
   3.26925E+1   2.44243E+2
   1.66578E+3  -4.81316E+2
  -5.45676E+2  -1.09671E+3
  -6.23907E+2  -5.35136E+2
   1.70001E+3   1.48941E+1
  -1.77343E+1  -1.82519E+3
  -9.88878E+2  -9.82407E+2
   4.87205E+2  -2.50968E+2
   4.14252E+2   1.07760E+3
   9.84786E+2   5.21115E+2
   2.08913E+3   4.99916E+2
  -6.29223E+2  -4.88527E+2
   1.52014E+3   6.90267E+2
   1.87077E+2  -7.03277E+2
   6.67776E+2   1.16660E+3
  -1.83107E+3  -1.76317E+3
  -2.41609E+2   6.73280E+2
  -8.86471E+2  -1.39153E+3
  -1.15949E+3  -9.02629E+2
   6.87279E+2  -3.31907E+2
  -9.63092E+2   1.17521E+3
  -5.79093E+1  -2.35528E+3
  -6.20236E+2   1.32490E+3
  -1.75583E+3  -2.02199E+3
   1.37261E+2  -1.17764E+3
   2.05048E+2   4.34743E+2
  -1.41505E+2   9.49215E+2
   4.14813E+2   7.44646E+0
  -7.65646E+2   5.42086E+2
   4.09266E+2   1.15809E+3
   9.65327E+1   1.02286E+3
  -9.43166E+2   4.58915E+2
  -5.52280E+2   7.89942E+2
  -5.08035E+2  -5.84278E+2
   9.23514E+2   2.17932E+2
   2.11394E+3   1.05877E+3
