 
 $NMID
 ID=''
 FMTDAT='(2E13.5)'
 TRAMP=   1.00000E+0
 VOLUME=   1.00000E+0
 $END
  -2.12070E+4   4.05019E+3
  -5.53007E+4  -6.87535E+3
  -5.51337E+4   8.52666E+2
  -5.07223E+4  -1.61293E+3
  -5.26688E+4  -5.10832E+3
  -5.22822E+4  -4.71692E+3
  -4.99661E+4  -7.65582E+3
  -5.02285E+4  -1.06473E+4
  -4.97058E+4  -1.12438E+4
  -4.79092E+4  -1.36796E+4
  -4.75496E+4  -1.62550E+4
  -4.67814E+4  -1.69207E+4
  -4.51904E+4  -1.89611E+4
  -4.46922E+4  -2.14265E+4
  -4.34690E+4  -2.23884E+4
  -4.17523E+4  -2.42288E+4
  -4.08901E+4  -2.61636E+4
  -3.95328E+4  -2.72738E+4
  -3.78218E+4  -2.87295E+4
  -3.66729E+4  -3.04697E+4
  -3.51592E+4  -3.13514E+4
  -3.35096E+4  -3.24154E+4
  -3.22083E+4  -3.39917E+4
  -3.04965E+4  -3.49387E+4
  -2.85172E+4  -3.59575E+4
  -2.70990E+4  -3.71068E+4
  -2.54135E+4  -3.78999E+4
  -2.32692E+4  -3.87987E+4
  -2.14456E+4  -3.96227E+4
  -1.95992E+4  -4.00577E+4
  -1.77043E+4  -4.05560E+4
  -1.60044E+4  -4.12748E+4
  -1.40000E+4  -4.15498E+4
  -1.20659E+4  -4.17609E+4
  -1.03201E+4  -4.20011E+4
  -8.43641E+3  -4.20692E+4
  -6.51596E+3  -4.21091E+4
  -4.79691E+3  -4.20578E+4
  -3.07388E+3  -4.18779E+4
  -1.20977E+3  -4.16608E+4
   6.08950E+2  -4.15188E+4
   2.53200E+3  -4.10470E+4
   4.50219E+3  -4.04312E+4
   6.05314E+3  -3.99061E+4
   7.79847E+3  -3.92031E+4
   9.50715E+3  -3.85158E+4
   1.12289E+4  -3.76478E+4
   1.27579E+4  -3.67704E+4
   1.42847E+4  -3.59458E+4
   1.57928E+4  -3.48609E+4
   1.71678E+4  -3.37571E+4
   1.86666E+4  -3.25227E+4
   1.98007E+4  -3.13184E+4
   2.10093E+4  -3.00775E+4
   2.22704E+4  -2.87461E+4
   2.32991E+4  -2.73813E+4
   2.43210E+4  -2.59623E+4
   2.52999E+4  -2.44207E+4
   2.62023E+4  -2.28255E+4
   2.69323E+4  -2.12458E+4
   2.75072E+4  -1.96990E+4
   2.80584E+4  -1.81499E+4
   2.85471E+4  -1.65471E+4
   2.89992E+4  -1.49396E+4
   2.92887E+4  -1.32748E+4
   2.95122E+4  -1.17046E+4
   2.96923E+4  -1.00911E+4
   2.97797E+4  -8.49453E+3
   2.96947E+4  -6.88892E+3
   2.95228E+4  -5.23375E+3
   2.93799E+4  -3.69688E+3
   2.90807E+4  -2.22085E+3
   2.87218E+4  -7.23244E+2
   2.82504E+4   6.82653E+2
   2.77379E+4   2.04804E+3
   2.71803E+4   3.40903E+3
   2.65492E+4   4.62007E+3
   2.58642E+4   5.93048E+3
   2.51172E+4   7.06137E+3
   2.44046E+4   8.20174E+3
   2.35653E+4   9.22225E+3
   2.26809E+4   1.03677E+4
   2.17728E+4   1.12736E+4
   2.08420E+4   1.21865E+4
   1.98673E+4   1.30113E+4
   1.88040E+4   1.38661E+4
   1.77680E+4   1.45522E+4
   1.67360E+4   1.51327E+4
   1.57202E+4   1.56659E+4
   1.45982E+4   1.62683E+4
   1.35620E+4   1.67609E+4
   1.25162E+4   1.70834E+4
   1.14183E+4   1.73745E+4
   1.04200E+4   1.76731E+4
   9.24441E+3   1.78753E+4
   8.22195E+3   1.79760E+4
   7.18330E+3   1.80140E+4
   6.17078E+3   1.80556E+4
   5.22932E+3   1.80740E+4
   4.21559E+3   1.79400E+4
   3.26799E+3   1.78501E+4
   2.36966E+3   1.75550E+4
   1.48478E+3   1.74180E+4
   6.04109E+2   1.70528E+4
  -2.04764E+2   1.67590E+4
  -9.62333E+2   1.64420E+4
  -1.69434E+3   1.60322E+4
  -2.46628E+3   1.57067E+4
  -3.04708E+3   1.51640E+4
  -3.65437E+3   1.47215E+4
  -4.18588E+3   1.42035E+4
  -4.69834E+3   1.36998E+4
  -5.28110E+3   1.32826E+4
  -5.61836E+3   1.27533E+4
  -6.05664E+3   1.22503E+4
  -6.40830E+3   1.16988E+4
  -6.75740E+3   1.11576E+4
  -6.92348E+3   1.05546E+4
  -7.21761E+3   1.01610E+4
  -7.39720E+3   9.56421E+3
  -7.60417E+3   9.02179E+3
  -7.84508E+3   8.46379E+3
  -7.85363E+3   7.98217E+3
  -8.00030E+3   7.51679E+3
  -8.04727E+3   6.98295E+3
  -8.03087E+3   6.50576E+3
  -8.12799E+3   6.02510E+3
  -8.12263E+3   5.59362E+3
  -8.04349E+3   5.08990E+3
  -7.97721E+3   4.70404E+3
  -7.97734E+3   4.30386E+3
  -7.85655E+3   3.92114E+3
  -7.75848E+3   3.53722E+3
  -7.58198E+3   3.10582E+3
  -7.59554E+3   2.78718E+3
  -7.37446E+3   2.41678E+3
  -7.28131E+3   2.11649E+3
  -7.00299E+3   1.84381E+3
  -6.87465E+3   1.49390E+3
  -6.70322E+3   1.27656E+3
  -6.53415E+3   9.87579E+2
  -6.30535E+3   7.07075E+2
  -6.06662E+3   6.28016E+2
  -5.90298E+3   2.53051E+2
  -5.71498E+3   8.94941E+1
  -5.47250E+3  -1.88706E+2
  -5.35593E+3  -2.74096E+2
  -5.02894E+3  -4.27300E+2
  -4.88220E+3  -5.78885E+2
  -4.64051E+3  -7.64298E+2
  -4.41104E+3  -9.60025E+2
  -4.16101E+3  -1.03218E+3
  -4.01063E+3  -1.10008E+3
  -3.76646E+3  -1.22460E+3
  -3.63766E+3  -1.31520E+3
  -3.29012E+3  -1.42759E+3
  -3.16340E+3  -1.48539E+3
  -2.87802E+3  -1.53209E+3
  -2.69940E+3  -1.61590E+3
  -2.55923E+3  -1.62851E+3
  -2.36823E+3  -1.71422E+3
  -2.13607E+3  -1.80262E+3
  -1.94122E+3  -1.77938E+3
  -1.84598E+3  -1.84008E+3
  -1.51886E+3  -1.80115E+3
  -1.38792E+3  -1.85136E+3
  -1.28973E+3  -1.83096E+3
  -1.01603E+3  -1.89502E+3
  -9.44901E+2  -1.78015E+3
  -7.38575E+2  -1.82181E+3
  -5.92647E+2  -1.79692E+3
  -4.80186E+2  -1.78400E+3
  -3.01851E+2  -1.75602E+3
  -1.50817E+2  -1.75182E+3
  -4.15928E+1  -1.76644E+3
   7.86438E+1  -1.65753E+3
   2.10663E+2  -1.59664E+3
   2.68307E+2  -1.50853E+3
   4.11922E+2  -1.54575E+3
   5.21526E+2  -1.50106E+3
   5.81717E+2  -1.42720E+3
   7.17573E+2  -1.35629E+3
   7.87884E+2  -1.30802E+3
   8.27596E+2  -1.24246E+3
   9.65027E+2  -1.19019E+3
   1.01842E+3  -1.17441E+3
   1.05422E+3  -1.09392E+3
   1.08459E+3  -9.93090E+2
   1.15050E+3  -9.68722E+2
   1.25045E+3  -9.01266E+2
   1.25474E+3  -8.79148E+2
   1.24931E+3  -7.52914E+2
   1.31930E+3  -7.33096E+2
   1.39049E+3  -7.41353E+2
   1.25236E+3  -6.34391E+2
   1.40112E+3  -5.97763E+2
   1.36102E+3  -5.65515E+2
   1.42579E+3  -4.65314E+2
   1.32928E+3  -4.51722E+2
   1.30354E+3  -3.85093E+2
   1.38335E+3  -3.50176E+2
   1.35947E+3  -3.06032E+2
   1.30274E+3  -2.87365E+2
   1.36451E+3  -2.78303E+2
   1.28862E+3  -2.45843E+2
   1.31938E+3  -1.83912E+2
   1.36110E+3  -2.01329E+2
   1.34155E+3  -1.90486E+2
   1.30576E+3  -1.64705E+2
   1.28751E+3  -1.42575E+2
   1.31541E+3  -1.07296E+2
   1.25744E+3  -1.18188E+2
   1.27196E+3  -6.37917E+1
   1.20611E+3  -4.67405E+1
   1.23905E+3  -1.21758E+2
   1.21459E+3  -7.99225E+1
   1.22479E+3  -4.35194E+1
   1.22629E+3  -6.65027E+1
   1.22501E+3  -2.21215E+1
   1.14048E+3  -3.04977E+1
   1.18826E+3  -2.88145E+1
   1.18855E+3  -9.45543E+0
   1.22128E+3  -1.97863E+1
   1.12680E+3   4.26321E+0
   1.21082E+3   1.48667E+1
   1.20060E+3   2.44330E+1
   1.19762E+3  -5.02887E+1
   1.16999E+3   1.95642E+1
   1.16845E+3  -4.83845E+1
   1.18382E+3  -1.76325E+1
   1.12829E+3  -1.93353E+1
   1.11312E+3   3.20108E+1
   1.18364E+3   1.45929E+1
   1.16874E+3   3.68940E+1
   1.02729E+3   6.22980E+0
   1.14859E+3   3.55899E+1
   1.13056E+3  -5.70714E+0
   1.14816E+3   4.17976E+1
   1.11151E+3   6.52227E+1
   1.12630E+3   9.57199E+1
   1.19262E+3   9.34807E+1
   1.17212E+3   1.10168E+2
   1.03888E+3   7.93056E+1
   1.08113E+3   6.97289E+1
   1.10198E+3   1.39555E+2
   1.10493E+3   1.58933E+2
   1.10349E+3   1.45566E+2
   1.07470E+3   1.58529E+2
   1.14371E+3   1.62908E+2
   1.03810E+3   2.57224E+2
   1.00282E+3   1.99058E+2
   1.07283E+3   2.56133E+2
   1.05544E+3   2.25429E+2
   1.07046E+3   1.88215E+2
   9.60748E+2   2.84129E+2
   9.89361E+2   2.61600E+2
   1.02758E+3   3.14348E+2
   9.76040E+2   3.36863E+2
   1.03230E+3   2.78904E+2
   9.73548E+2   3.71998E+2
   9.06056E+2   3.87606E+2
   9.39714E+2   3.05911E+2
   9.36107E+2   3.62891E+2
   8.64548E+2   4.05784E+2
   8.82128E+2   4.46128E+2
   8.74847E+2   4.23576E+2
   8.29720E+2   4.13352E+2
   8.48408E+2   4.01381E+2
   8.64983E+2   4.80271E+2
   7.83931E+2   4.83494E+2
   7.67346E+2   4.78445E+2
   7.91252E+2   4.53429E+2
   7.32077E+2   4.99983E+2
   7.62402E+2   5.44610E+2
   6.93527E+2   5.44263E+2
   6.82254E+2   4.84011E+2
   6.65394E+2   5.74975E+2
   6.24706E+2   5.51797E+2
   6.09219E+2   5.60929E+2
   6.30646E+2   5.09179E+2
   5.80586E+2   5.30142E+2
   5.25057E+2   5.11403E+2
   6.12779E+2   5.93598E+2
   5.17523E+2   5.34233E+2
   5.42771E+2   5.49919E+2
   4.74275E+2   5.28325E+2
   4.52626E+2   6.06821E+2
   4.54250E+2   5.87914E+2
   4.37589E+2   5.73379E+2
   4.16929E+2   5.75086E+2
   3.84828E+2   5.29920E+2
   3.47781E+2   6.00672E+2
   3.64857E+2   5.10517E+2
   3.09850E+2   5.71675E+2
   3.31593E+2   5.45439E+2
   2.58450E+2   5.98524E+2
   2.98063E+2   6.18920E+2
   2.66284E+2   5.94539E+2
   1.93239E+2   5.54810E+2
   1.79938E+2   5.40584E+2
   2.11127E+2   5.86957E+2
   1.23960E+2   5.39947E+2
   1.13845E+2   5.31221E+2
   1.27862E+2   5.48593E+2
   1.31004E+2   5.03389E+2
   7.90780E+1   4.57581E+2
   1.53511E+2   4.86694E+2
   5.51621E+1   4.89067E+2
   4.03539E+1   4.77483E+2
   6.92679E+1   4.86541E+2
  -5.21876E+1   4.17332E+2
   3.74260E+0   4.84991E+2
   2.03435E+1   4.83929E+2
  -6.88070E-2   4.83789E+2
   4.54644E+1   4.32881E+2
  -3.67835E+1   4.05497E+2
  -4.89176E+1   4.61473E+2
  -2.80670E+1   4.19094E+2
  -1.03771E+2   4.42548E+2
  -1.23284E+2   4.31787E+2
  -8.81636E+1   4.07443E+2
  -7.29611E+1   4.42960E+2
  -1.13748E+2   3.94720E+2
  -1.45086E+2   3.94365E+2
  -1.44443E+2   4.26410E+2
  -1.54183E+2   3.92831E+2
  -1.64675E+2   4.28810E+2
  -1.37614E+2   3.73507E+2
  -1.64602E+2   4.15775E+2
  -1.44359E+2   3.22127E+2
  -1.51761E+2   3.36109E+2
  -1.61254E+2   4.24003E+2
  -1.33277E+2   4.11832E+2
  -1.64166E+2   3.88647E+2
  -1.42318E+2   3.71652E+2
  -1.90380E+2   5.01357E+2
  -1.61201E+2   3.58629E+2
  -1.92769E+2   4.23192E+2
  -2.62987E+2   3.60777E+2
  -2.64384E+2   4.38966E+2
  -2.05797E+2   3.84491E+2
  -2.23717E+2   3.11010E+2
  -2.62887E+2   4.22107E+2
  -2.62423E+2   4.12195E+2
  -2.54655E+2   3.72855E+2
  -2.37138E+2   4.06975E+2
  -2.63014E+2   4.34426E+2
  -2.71287E+2   4.09216E+2
  -3.06257E+2   3.73844E+2
  -3.15319E+2   3.59125E+2
  -2.55811E+2   3.48993E+2
  -2.58209E+2   3.51847E+2
  -2.91001E+2   3.92450E+2
  -3.43398E+2   3.53979E+2
  -3.49485E+2   4.04123E+2
  -2.95293E+2   3.48373E+2
  -3.18336E+2   3.85238E+2
  -3.42818E+2   3.26083E+2
  -4.13105E+2   2.95301E+2
  -3.13589E+2   3.70820E+2
  -3.20509E+2   3.36006E+2
  -3.31582E+2   3.45047E+2
  -3.62729E+2   3.23616E+2
  -3.16844E+2   3.26633E+2
  -3.81364E+2   3.25746E+2
  -3.59760E+2   2.69265E+2
  -3.22582E+2   2.89272E+2
