 LCModel (Version 6.3-1N) Copyright: S.W. Provencher.          Ref.: Magn. Reson. Med. 30:672-679 (1993).                
 Slice_N1@19_9  28-Feb-2025 11:42:40
 27 lines in following concentration table = NCONC+1
    Conc.  %SD /Cr+PCr  Metabolite                                         
 3.01E-04   4% 3.3E-04 Mac                                                 
    3.638  41%   4.012 Cr                                                  
    3.616  41%   3.988 PCr                                                 
    4.867  20%   5.367 Ins                                                 
    9.781  10%  10.786 NAA                                                 
    6.224  16%   6.864 Tau                                                 
    1.434  25%   1.581 PCho                                                
    0.000 999%   0.000 GPC                                                 
   11.795  10%  13.007 Glu                                                 
    3.315  26%   3.656 Gln                                                 
    0.000 999%   0.000 Ala                                                 
    1.328 100%   1.464 Asc                                                 
    2.450  42%   2.701 Asp                                                 
    0.485 114%   0.535 GABA                                                
    0.557 123%   0.614 Glc                                                 
    1.239  43%   1.366 GSH                                                 
    1.649  46%   1.819 Lac                                                 
    3.126  24%   3.447 NAAG                                                
    0.210 624%   0.231 PE                                                  
    1.434  25%   1.581 GPC+PCho                                            
   12.907   7%  14.233 NAA+NAAG                                            
   15.111   9%  16.663 Glu+Gln                                             
    7.255  11%   8.000 Cr+PCr                                              
   12.907   7%  14.233 NAA+NAAG                                            
    7.255  11%   8.000 Cr+PCr                                              
   15.111   9%  16.663 Glu+Gln                                             
   6 lines in following misc. output table
  FWHM = 0.041 ppm    S/N =   4                                            
  Data shift = 0.000 ppm                                                   
  Ph:-173 deg       0.0 deg/ppm                                            
  alphaB,S = 1.7E-01,   6.4E+00                                            
   19 spline knots.   Ns = 6(1)                                            
  ( 5) 2 infls.   ( 2) 2 extrs.                                            
  480 points on ppm-axis = NY
      4.100000     4.091866     4.083733     4.075600     4.067466     4.059333     4.051199     4.043066     4.034933     4.026799
      4.018666     4.010532     4.002399     3.994265     3.986132     3.977998     3.969864     3.961731     3.953597     3.945463
      3.937330     3.929196     3.921062     3.912929     3.904795     3.896662     3.888528     3.880394     3.872261     3.864127
      3.855993     3.847860     3.839726     3.831592     3.823459     3.815325     3.807191     3.799058     3.790924     3.782790
      3.774657     3.766523     3.758389     3.750256     3.742122     3.733989     3.725855     3.717721     3.709588     3.701454
      3.693320     3.685187     3.677053     3.668919     3.660786     3.652652     3.644518     3.636385     3.628251     3.620117
      3.611984     3.603850     3.595716     3.587583     3.579449     3.571316     3.563182     3.555048     3.546915     3.538781
      3.530647     3.522514     3.514380     3.506246     3.498113     3.489979     3.481845     3.473712     3.465578     3.457444
      3.449311     3.441177     3.433043     3.424910     3.416776     3.408643     3.400509     3.392375     3.384242     3.376108
      3.367974     3.359841     3.351707     3.343573     3.335440     3.327306     3.319172     3.311039     3.302905     3.294771
      3.286638     3.278504     3.270370     3.262237     3.254103     3.245970     3.237836     3.229702     3.221569     3.213435
      3.205301     3.197168     3.189034     3.180900     3.172767     3.164633     3.156499     3.148366     3.140232     3.132098
      3.123965     3.115831     3.107697     3.099564     3.091430     3.083297     3.075163     3.067029     3.058896     3.050762
      3.042628     3.034495     3.026361     3.018227     3.010094     3.001960     2.993826     2.985693     2.977559     2.969425
      2.961292     2.953158     2.945024     2.936891     2.928757     2.920624     2.912490     2.904356     2.896223     2.888089
      2.879955     2.871822     2.863688     2.855554     2.847421     2.839287     2.831153     2.823020     2.814886     2.806752
      2.798619     2.790485     2.782351     2.774218     2.766084     2.757951     2.749817     2.741683     2.733550     2.725416
      2.717282     2.709149     2.701015     2.692881     2.684748     2.676614     2.668480     2.660347     2.652213     2.644079
      2.635946     2.627812     2.619678     2.611545     2.603411     2.595278     2.587144     2.579010     2.570877     2.562743
      2.554609     2.546476     2.538342     2.530208     2.522075     2.513941     2.505807     2.497674     2.489540     2.481406
      2.473273     2.465139     2.457006     2.448872     2.440738     2.432605     2.424471     2.416337     2.408204     2.400070
      2.391936     2.383803     2.375669     2.367535     2.359402     2.351268     2.343134     2.335001     2.326867     2.318733
      2.310600     2.302466     2.294333     2.286199     2.278065     2.269932     2.261798     2.253664     2.245531     2.237397
      2.229263     2.221130     2.212996     2.204862     2.196729     2.188595     2.180461     2.172328     2.164194     2.156060
      2.147927     2.139793     2.131660     2.123526     2.115392     2.107259     2.099125     2.090991     2.082858     2.074724
      2.066590     2.058457     2.050323     2.042189     2.034056     2.025922     2.017788     2.009655     2.001521     1.993387
      1.985254     1.977120     1.968987     1.960853     1.952719     1.944586     1.936452     1.928318     1.920185     1.912051
      1.903917     1.895784     1.887650     1.879516     1.871383     1.863249     1.855115     1.846982     1.838848     1.830714
      1.822581     1.814447     1.806314     1.798180     1.790046     1.781913     1.773779     1.765645     1.757512     1.749378
      1.741244     1.733111     1.724977     1.716843     1.708710     1.700576     1.692442     1.684309     1.676175     1.668041
      1.659908     1.651774     1.643641     1.635507     1.627373     1.619240     1.611106     1.602972     1.594839     1.586705
      1.578571     1.570438     1.562304     1.554170     1.546037     1.537903     1.529769     1.521636     1.513502     1.505368
      1.497235     1.489101     1.480968     1.472834     1.464700     1.456567     1.448433     1.440299     1.432166     1.424032
      1.415898     1.407765     1.399631     1.391497     1.383364     1.375230     1.367096     1.358963     1.350829     1.342695
      1.334562     1.326428     1.318295     1.310161     1.302027     1.293894     1.285760     1.277626     1.269493     1.261359
      1.253225     1.245092     1.236958     1.228824     1.220691     1.212557     1.204423     1.196290     1.188156     1.180022
      1.171889     1.163755     1.155622     1.147488     1.139354     1.131221     1.123087     1.114953     1.106820     1.098686
      1.090552     1.082419     1.074285     1.066151     1.058018     1.049884     1.041750     1.033617     1.025483     1.017349
      1.009216     1.001082     0.992949     0.984815     0.976681     0.968548     0.960414     0.952280     0.944147     0.936013
      0.927879     0.919746     0.911612     0.903478     0.895345     0.887211     0.879077     0.870944     0.862810     0.854676
      0.846543     0.838409     0.830276     0.822142     0.814008     0.805875     0.797741     0.789607     0.781474     0.773340
      0.765206     0.757073     0.748939     0.740805     0.732672     0.724538     0.716404     0.708271     0.700137     0.692003
      0.683870     0.675736     0.667603     0.659469     0.651335     0.643202     0.635068     0.626934     0.618801     0.610667
      0.602533     0.594400     0.586266     0.578132     0.569999     0.561865     0.553731     0.545598     0.537464     0.529330
      0.521197     0.513063     0.504930     0.496796     0.488662     0.480529     0.472395     0.464261     0.456128     0.447994
      0.439861     0.431727     0.423593     0.415460     0.407326     0.399192     0.391059     0.382925     0.374792     0.366658
      0.358524     0.350391     0.342257     0.334124     0.325990     0.317856     0.309723     0.301589     0.293455     0.285322
      0.277188     0.269055     0.260921     0.252787     0.244654     0.236520     0.228386     0.220253     0.212119     0.203986
 NY phased data points follow
   2.64600E+01  1.74228E+01  1.91174E+01  2.29859E+01  2.09367E+01  2.54705E+01  1.91991E+01  1.32160E+01  1.73024E+01  1.05616E+01
   9.19575E+00  9.15231E+00 -4.36330E+00 -1.74782E+01 -1.17800E+01 -1.23034E+01 -2.38029E+01 -3.24601E+01 -5.01663E+01 -4.27304E+01
  -5.19497E+01 -4.44424E+01 -2.63248E+01 -2.73120E+01 -4.87611E-01 -3.54757E-03  2.68333E+01  3.30007E+01  3.33220E+01  5.67033E+01
   3.68371E+01  3.75926E+01  3.13743E+01  3.47597E+01  3.22080E+01  1.15961E+01  2.41656E+01  2.32672E+01 -6.52269E+00 -1.50367E+01
  -3.32341E+01 -4.08896E+01 -2.06924E+01 -3.44076E+01 -1.39171E+01  1.30138E+01  3.11823E+01  4.44142E+01  6.59799E+01  6.62885E+01
   4.53750E+01  7.75392E+01  6.66146E+01  6.61553E+01  5.00091E+01  3.86697E+01  4.97468E+01  3.07948E+01  3.06803E+01  2.53473E+01
   3.59455E+01  1.25001E+01  3.84475E+01  5.39593E+01  3.54666E+01  6.85648E+01  4.98927E+01  3.38718E+01  3.99421E+01  3.41261E+01
   1.78708E+01  1.62808E+01  6.88267E+00  2.55812E+01  3.91427E+01  2.34084E+01  4.40357E+01  5.22815E+01  6.42820E+01  5.58424E+01
   6.11845E+01  5.52317E+01  4.08775E+01  3.52596E+01  1.76141E+01  2.54897E+01  1.43727E+01  2.75686E+01  2.96985E+01  3.84272E+01
   5.16793E+01  6.17178E+01  9.70632E+01  8.45565E+01  8.11267E+01  9.82876E+01  1.01395E+02  9.95559E+01  1.00973E+02  9.06973E+01
   7.90413E+01  6.86214E+01  6.01329E+01  4.57591E+01  2.82047E+01  2.32525E+01  2.99929E+00 -3.28839E+00 -2.45138E+01 -4.70000E+01
  -6.96465E+01 -7.31909E+01 -7.30428E+01 -9.04376E+01 -5.36731E+01 -5.03553E+01 -3.91488E+01 -1.24847E+01 -1.20588E+01  3.60263E+00
   1.17879E+01  1.73706E+01  2.60418E+01  2.84791E+01  2.76169E+01  5.34318E+01  5.17280E+01  7.10057E+01  9.43428E+01  8.57986E+01
   1.03930E+02  8.77995E+01  7.80573E+01  3.78518E+01 -1.70864E+01 -5.31617E+01 -7.86023E+01 -5.85336E+01 -7.69210E+01 -7.26594E+01
  -5.53168E+01 -6.33061E+01 -5.68446E+01 -5.88871E+01 -5.68486E+01 -5.61524E+01 -4.44638E+01 -5.09237E+01 -5.17880E+01 -4.09028E+01
  -4.28721E+01 -2.48303E+01 -2.55030E+01 -2.21471E+01 -2.27328E+01 -2.21587E+01 -7.97359E+00 -2.31779E+01 -1.30823E+01  1.20598E+00
  -1.61094E+01 -1.93214E+01 -8.16437E+00 -1.55150E+01 -1.58598E+01 -9.41328E-01 -1.63910E+01 -1.55324E+01  5.17025E+00 -6.36478E+00
   2.95319E+00  2.56012E+01  1.61182E+01  2.72797E+01  4.58176E+01  3.73467E+01  2.50154E+01  2.45102E+01  2.63741E+01  1.22812E+01
   7.19062E+00 -8.53369E+00 -3.12337E+01 -3.11021E+01 -3.53474E+01 -2.85359E+01 -2.96089E+01 -4.31628E+01 -4.33189E+01 -4.16045E+01
  -1.90324E+01 -9.77535E+00 -6.47616E+00 -1.71100E+01 -2.13673E+01  2.67865E+01  1.78229E+01  4.04917E+00 -4.05794E+00 -6.01989E+00
   1.27313E+01 -4.77815E+00  9.21795E+00 -6.32998E+00 -6.74108E+00  2.00842E+00 -1.30335E+01 -1.05728E+01 -2.51723E+01 -2.58993E+01
  -4.72596E+01 -4.18802E+01 -3.06693E+01 -1.64840E+01  1.30074E+01  2.23775E+01  4.11940E+01  4.73798E+01  6.09055E+01  5.88674E+01
   4.27499E+01  2.36780E+01  2.07338E+01  1.24063E+01  3.93210E+00  1.32732E+01  1.38748E+01  2.45388E+01  1.90458E+01  2.87866E+01
   1.04901E+01 -6.31764E+00  3.30089E-01 -1.96270E+01 -3.34926E+01 -5.12469E+01 -5.85885E+01 -6.31964E+01 -6.69096E+01 -6.74828E+01
  -5.99080E+01 -5.63399E+01 -5.28458E+01 -5.98788E+01 -4.58729E+01 -2.66883E+01 -3.35026E+01 -2.84274E+01 -5.70135E+01 -3.89011E+01
  -3.72076E+01 -6.79423E+01 -6.41714E+01 -6.66825E+01 -6.09176E+01 -5.38674E+01 -3.60402E+01 -2.42868E+01  4.09688E+01  1.02634E+02
   1.65088E+02  1.96206E+02  1.54002E+02  1.56549E+02  1.46223E+02  1.29254E+02  1.10342E+02  9.51608E+01  8.97980E+01  1.01116E+02
   9.54843E+01  8.47630E+01  8.72646E+01  6.10052E+01  7.38085E+01  7.51887E+01  8.69735E+01  8.02798E+01  6.59893E+01  8.44119E+01
   9.30515E+01  9.01562E+01  5.82572E+01  6.07403E+01  6.57937E+01  6.87193E+01  4.99985E+01  4.32000E+01  5.57473E+01  5.64276E+01
   5.71389E+01  4.11792E+01  4.05825E+01  2.36726E+01  2.68160E+01  1.55559E+01  1.69234E+01  1.03179E+01 -5.67185E+00  8.61705E+00
   2.09226E+00  3.20704E+01  2.30609E+01  2.69872E+01  3.71897E+01  4.23096E+01  5.52087E+01  5.00694E+01  6.80883E+01  5.28283E+01
   7.22293E+01  6.16031E+01  4.23226E+01  6.29012E+01  5.20805E+01  4.38301E+01  5.73002E+01  7.53906E+01  7.83729E+01  9.59785E+01
   8.69545E+01  1.01008E+02  1.22400E+02  1.09776E+02  1.06450E+02  1.09276E+02  1.31302E+02  1.35658E+02  1.22732E+02  1.03574E+02
   9.98944E+01  8.44736E+01  6.85551E+01  5.55375E+01  4.95584E+01  5.25585E+01  2.58650E+01  3.66571E+01  3.43415E+01  4.81205E+01
   6.00090E+01  3.86303E+01  4.03293E+01  2.01792E+01  3.94692E+01  5.97694E+01  6.11458E+01  6.74995E+01  6.49815E+01  7.30025E+01
   6.33374E+01  6.32644E+01  6.67856E+01  5.11462E+01  3.91092E+01  4.89241E+01  5.03836E+01  2.50668E+01  8.55711E+00  1.34446E+01
   4.09683E+01  4.28163E+01  2.25590E+01  2.97194E+01  3.61224E+01  4.16104E+01  4.32257E+01  5.03966E+01  6.53102E+01  5.85702E+01
   5.93818E+01  5.51807E+01  6.18204E+01  7.88833E+01  7.06931E+01  7.22335E+01  8.03919E+01  7.63562E+01  8.24491E+01  9.58918E+01
   8.96624E+01  1.00161E+02  9.81143E+01  1.08448E+02  1.42878E+02  1.29328E+02  1.40197E+02  1.44428E+02  1.54925E+02  1.65092E+02
   1.36119E+02  1.58664E+02  1.49334E+02  1.22673E+02  1.29092E+02  1.00021E+02  8.08670E+01  7.87093E+01  7.00452E+01  6.05093E+01
   4.34366E+01  4.41985E+01  3.30169E+01  1.86240E+01  2.22599E+01  1.31387E+01  4.61741E+00 -1.00048E+01 -7.78147E+00 -1.94133E+01
  -2.31076E+01 -4.23425E+00 -1.75545E+01 -1.61561E+01 -1.05470E+01  2.43394E+00  3.34266E+00 -9.90165E+00 -3.75872E+00  1.60035E+00
  -1.32560E+01 -7.38820E+00  1.04809E+01 -1.51024E+01 -2.10820E+00  2.40302E+00 -2.29428E+00  6.45535E+00  5.97959E-01  9.66621E+00
   3.40173E+00  3.98222E+00 -1.81114E+00  6.59483E+00  1.20765E+00 -4.53421E+00 -3.57140E+00 -1.59254E+01 -5.09704E+00 -6.14092E+00
   1.20929E+01  9.03523E-01 -6.04020E+00 -6.38445E+00 -1.38939E+01  2.37456E-01 -1.47510E+01  4.50206E+00  2.78193E+00 -7.97705E+00
   3.95677E+00 -1.73805E+01 -1.22319E+01  8.97417E+00  1.81942E+00 -1.76766E+00 -2.98236E+00 -5.33867E+00  3.32032E+00  4.47492E+00
  -4.14584E+00  5.87153E-01  2.34792E+01 -5.93378E+00 -7.80548E+00  7.06345E+00 -1.46904E+01  2.16538E+00  6.54576E+00  1.50162E+01
  -6.18900E+00 -2.68810E+00  1.10427E+01 -8.09839E+00  1.91457E+01  1.19928E+01  8.15004E+00  5.81784E+00 -6.91952E-01  1.36212E+01
 NY points of the fit to the data follow
   8.16156E+00  6.34109E+00  4.23036E+00  1.56226E+00 -3.50946E-01 -3.47559E-01  2.66088E+00  7.78759E+00  1.21845E+01  1.26666E+01
   8.88821E+00  3.53354E+00 -6.95612E-01 -2.85077E+00 -3.80316E+00 -9.65981E+00 -1.51921E+01 -2.12049E+01 -3.20367E+01 -4.03186E+01
  -4.40579E+01 -4.30038E+01 -3.30326E+01 -1.80869E+01 -2.24874E-01  1.73434E+01  3.15157E+01  4.12261E+01  4.54525E+01  4.55117E+01
   4.50251E+01  4.58269E+01  4.58075E+01  4.50860E+01  4.43593E+01  4.06444E+01  3.40543E+01  2.45709E+01  1.28976E+01 -1.31407E+00
  -1.55789E+01 -2.70783E+01 -3.06922E+01 -2.33645E+01 -5.76194E+00  1.54648E+01  3.47991E+01  4.82853E+01  5.66269E+01  5.99590E+01
   6.04582E+01  5.80483E+01  5.47299E+01  5.17808E+01  4.50421E+01  3.73978E+01  3.11628E+01  2.38363E+01  1.93969E+01  1.84083E+01
   1.91695E+01  2.27354E+01  2.86000E+01  3.71892E+01  4.50262E+01  4.94670E+01  5.28308E+01  5.25913E+01  4.61800E+01  3.59254E+01
   2.52614E+01  1.80688E+01  1.78479E+01  2.41599E+01  3.43142E+01  4.51298E+01  5.43610E+01  6.35156E+01  6.68282E+01  6.61153E+01
   6.02863E+01  5.04350E+01  3.78561E+01  2.42822E+01  1.18738E+01  6.35751E+00  7.41857E+00  1.64203E+01  2.80582E+01  3.97300E+01
   4.80905E+01  5.40004E+01  5.78075E+01  6.19847E+01  6.54416E+01  6.80195E+01  7.24769E+01  7.62725E+01  7.82940E+01  8.11497E+01
   7.95094E+01  7.56077E+01  6.81871E+01  6.10305E+01  4.98064E+01  3.12162E+01  1.20840E+01 -2.73336E+00 -1.64082E+01 -2.99225E+01
  -4.95411E+01 -6.90351E+01 -7.95097E+01 -7.28791E+01 -5.46127E+01 -3.59394E+01 -2.40331E+01 -1.66154E+01 -1.01078E+01 -4.02720E+00
   1.73833E+00  7.42735E+00  1.31251E+01  1.95535E+01  2.65335E+01  3.55673E+01  5.45568E+01  7.56994E+01  9.11361E+01  1.03191E+02
   1.08991E+02  1.03509E+02  8.22160E+01  4.09220E+01 -9.11603E+00 -4.93905E+01 -6.59011E+01 -6.19002E+01 -5.18645E+01 -4.67388E+01
  -4.59730E+01 -4.61957E+01 -4.70168E+01 -4.78665E+01 -4.82026E+01 -4.80697E+01 -4.73105E+01 -4.57998E+01 -4.35912E+01 -4.08961E+01
  -3.78351E+01 -3.47075E+01 -3.17781E+01 -2.92166E+01 -2.69855E+01 -2.48440E+01 -2.23566E+01 -1.98997E+01 -1.82861E+01 -1.73808E+01
  -1.65391E+01 -1.50810E+01 -1.31936E+01 -1.23646E+01 -1.32068E+01 -1.51912E+01 -1.59878E+01 -1.34205E+01 -9.28717E+00 -6.35801E+00
  -4.08669E+00  3.69306E-01  8.29370E+00  1.68560E+01  2.01729E+01  1.78611E+01  1.40293E+01  1.27724E+01  1.33531E+01  1.08833E+01
   2.29125E+00 -8.87576E+00 -1.80302E+01 -2.28906E+01 -2.54091E+01 -2.72923E+01 -2.81734E+01 -2.82565E+01 -2.88995E+01 -2.68910E+01
  -2.36437E+01 -2.08385E+01 -1.68011E+01 -1.29163E+01 -7.89480E+00 -2.50877E+00  3.25622E-01  2.18809E+00  2.93399E+00  3.56340E+00
   4.99698E+00  5.38043E+00  5.11654E+00  4.86295E+00  4.33396E+00  2.01556E+00 -4.77603E+00 -1.36489E+01 -2.22427E+01 -3.38900E+01
  -3.99514E+01 -4.30738E+01 -4.00970E+01 -2.71563E+01 -8.13677E+00  1.43200E+01  3.85271E+01  5.55985E+01  6.46688E+01  6.17614E+01
   5.15594E+01  3.89505E+01  2.98011E+01  2.47191E+01  2.43666E+01  2.53480E+01  2.50378E+01  2.18905E+01  1.65873E+01  8.22700E+00
  -2.97388E+00 -1.47297E+01 -2.75722E+01 -3.98895E+01 -4.96394E+01 -5.79408E+01 -6.36905E+01 -6.65729E+01 -6.76142E+01 -6.59487E+01
  -6.24795E+01 -5.80467E+01 -5.16304E+01 -4.55436E+01 -3.78567E+01 -3.08478E+01 -2.51108E+01 -2.56478E+01 -3.24349E+01 -3.72031E+01
  -3.82146E+01 -5.72501E+01 -7.34817E+01 -7.87811E+01 -7.48752E+01 -6.19593E+01 -4.21996E+01 -1.69604E+01  2.91515E+01  8.73837E+01
   1.40962E+02  1.62738E+02  1.53155E+02  1.32402E+02  1.19672E+02  1.12228E+02  1.06259E+02  1.01050E+02  9.63100E+01  9.19608E+01
   8.86747E+01  8.66190E+01  8.57171E+01  8.58264E+01  8.64686E+01  8.73207E+01  8.79699E+01  8.80594E+01  8.76848E+01  8.69041E+01
   8.59140E+01  8.45111E+01  8.28957E+01  8.08623E+01  7.88043E+01  7.68571E+01  7.48312E+01  7.26934E+01  7.03618E+01  6.77052E+01
   6.46921E+01  6.11851E+01  5.71966E+01  5.31265E+01  4.93189E+01  4.61498E+01  4.39030E+01  4.30495E+01  4.36765E+01  4.56634E+01
   4.84445E+01  5.15826E+01  5.47106E+01  5.77681E+01  6.08318E+01  6.38585E+01  6.67394E+01  6.94961E+01  7.21754E+01  7.49874E+01
   7.79864E+01  8.09332E+01  8.36533E+01  8.60762E+01  8.81464E+01  8.98589E+01  9.12931E+01  9.22685E+01  9.25388E+01  9.21338E+01
   9.08989E+01  8.91323E+01  8.70180E+01  8.44710E+01  8.13113E+01  7.73904E+01  7.24823E+01  6.64445E+01  5.90551E+01  5.02411E+01
   4.06105E+01  3.13381E+01  2.36020E+01  1.81715E+01  1.54011E+01  1.65191E+01  1.98641E+01  2.50552E+01  3.13255E+01  3.59924E+01
   3.88418E+01  3.94043E+01  3.69625E+01  3.34245E+01  3.04365E+01  3.02766E+01  3.33775E+01  3.84126E+01  4.35757E+01  4.72439E+01
   4.86882E+01  4.83728E+01  4.68983E+01  4.42065E+01  4.04628E+01  3.61071E+01  3.18061E+01  2.84203E+01  2.64100E+01  2.61967E+01
   2.74118E+01  2.97216E+01  3.28521E+01  3.64435E+01  4.02637E+01  4.41803E+01  4.78968E+01  5.13777E+01  5.45352E+01  5.75999E+01
   6.05463E+01  6.36462E+01  6.67349E+01  6.98153E+01  7.30269E+01  7.66777E+01  8.07507E+01  8.53299E+01  9.03970E+01  9.61448E+01
   1.02554E+02  1.09831E+02  1.17678E+02  1.26203E+02  1.34809E+02  1.42936E+02  1.49400E+02  1.53186E+02  1.53345E+02  1.49371E+02
   1.41518E+02  1.31014E+02  1.19396E+02  1.08300E+02  9.86996E+01  9.04944E+01  8.28694E+01  7.50302E+01  6.65716E+01  5.71449E+01
   4.73026E+01  3.76903E+01  2.92689E+01  2.23525E+01  1.71179E+01  1.32442E+01  1.04253E+01  8.23573E+00  6.65911E+00  5.43962E+00
   4.33160E+00  3.23216E+00  2.38336E+00  1.86508E+00  1.53673E+00  1.25278E+00  1.10317E+00  9.72609E-01  8.44251E-01  7.23186E-01
   5.66043E-01  4.53088E-01  4.52646E-01  4.74757E-01  4.09693E-01  2.53757E-01  1.47830E-01  1.27666E-01  1.24671E-01  1.51685E-01
   1.90766E-01  3.49268E-01  4.61981E-01  3.65422E-01  1.35053E-01 -8.12971E-02 -2.07278E-01 -1.29162E-01  8.03248E-02  3.12172E-01
   5.07904E-01  5.81594E-01  5.41915E-01  5.54306E-01  4.98214E-01  3.51390E-01  2.64345E-01  8.60993E-02  1.35472E-02  7.21186E-02
   2.24270E-01  2.91579E-01  3.42021E-01  2.61646E-01  2.59657E-01  2.90681E-01  5.25025E-01  7.58110E-01  9.46346E-01  1.00766E+00
   1.08430E+00  1.08276E+00  1.08136E+00  9.14089E-01  7.96376E-01  6.53936E-01  7.00876E-01  8.44096E-01  1.12857E+00  1.46410E+00
   1.85486E+00  2.03370E+00  1.92116E+00  1.63431E+00  1.40757E+00  1.25756E+00  1.38506E+00  1.50867E+00  1.57984E+00  1.59498E+00
 NY background values follow
     2.996E+01    2.984E+01    2.973E+01    2.961E+01    2.950E+01    2.939E+01    2.927E+01    2.916E+01    2.905E+01    2.894E+01
     2.883E+01    2.872E+01    2.861E+01    2.850E+01    2.839E+01    2.829E+01    2.819E+01    2.809E+01    2.799E+01    2.789E+01
     2.780E+01    2.771E+01    2.762E+01    2.753E+01    2.744E+01    2.736E+01    2.728E+01    2.721E+01    2.713E+01    2.706E+01
     2.700E+01    2.694E+01    2.688E+01    2.682E+01    2.677E+01    2.672E+01    2.667E+01    2.662E+01    2.658E+01    2.654E+01
     2.651E+01    2.647E+01    2.644E+01    2.641E+01    2.638E+01    2.635E+01    2.633E+01    2.631E+01    2.628E+01    2.626E+01
     2.625E+01    2.623E+01    2.621E+01    2.620E+01    2.618E+01    2.617E+01    2.616E+01    2.614E+01    2.613E+01    2.612E+01
     2.611E+01    2.610E+01    2.608E+01    2.607E+01    2.606E+01    2.605E+01    2.604E+01    2.603E+01    2.601E+01    2.600E+01
     2.599E+01    2.597E+01    2.596E+01    2.594E+01    2.592E+01    2.590E+01    2.589E+01    2.587E+01    2.584E+01    2.582E+01
     2.580E+01    2.577E+01    2.574E+01    2.572E+01    2.569E+01    2.565E+01    2.562E+01    2.558E+01    2.555E+01    2.551E+01
     2.547E+01    2.542E+01    2.537E+01    2.533E+01    2.528E+01    2.522E+01    2.517E+01    2.512E+01    2.506E+01    2.500E+01
     2.494E+01    2.488E+01    2.482E+01    2.476E+01    2.470E+01    2.463E+01    2.457E+01    2.450E+01    2.444E+01    2.437E+01
     2.431E+01    2.424E+01    2.417E+01    2.411E+01    2.404E+01    2.398E+01    2.391E+01    2.385E+01    2.378E+01    2.372E+01
     2.365E+01    2.359E+01    2.353E+01    2.347E+01    2.341E+01    2.335E+01    2.330E+01    2.324E+01    2.318E+01    2.312E+01
     2.307E+01    2.301E+01    2.296E+01    2.290E+01    2.285E+01    2.280E+01    2.274E+01    2.269E+01    2.264E+01    2.259E+01
     2.253E+01    2.248E+01    2.243E+01    2.238E+01    2.233E+01    2.227E+01    2.222E+01    2.217E+01    2.212E+01    2.207E+01
     2.201E+01    2.196E+01    2.191E+01    2.186E+01    2.180E+01    2.175E+01    2.170E+01    2.164E+01    2.158E+01    2.153E+01
     2.147E+01    2.141E+01    2.135E+01    2.129E+01    2.123E+01    2.117E+01    2.111E+01    2.104E+01    2.097E+01    2.091E+01
     2.084E+01    2.077E+01    2.069E+01    2.062E+01    2.054E+01    2.046E+01    2.038E+01    2.030E+01    2.022E+01    2.013E+01
     2.004E+01    1.995E+01    1.986E+01    1.976E+01    1.967E+01    1.957E+01    1.947E+01    1.937E+01    1.926E+01    1.916E+01
     1.905E+01    1.894E+01    1.883E+01    1.872E+01    1.861E+01    1.850E+01    1.838E+01    1.827E+01    1.815E+01    1.804E+01
     1.792E+01    1.780E+01    1.768E+01    1.757E+01    1.745E+01    1.733E+01    1.721E+01    1.709E+01    1.697E+01    1.686E+01
     1.674E+01    1.662E+01    1.650E+01    1.639E+01    1.627E+01    1.615E+01    1.604E+01    1.592E+01    1.581E+01    1.570E+01
     1.558E+01    1.547E+01    1.536E+01    1.525E+01    1.514E+01    1.503E+01    1.492E+01    1.481E+01    1.471E+01    1.460E+01
     1.450E+01    1.439E+01    1.429E+01    1.419E+01    1.409E+01    1.399E+01    1.389E+01    1.379E+01    1.369E+01    1.360E+01
     1.350E+01    1.341E+01    1.332E+01    1.323E+01    1.314E+01    1.306E+01    1.298E+01    1.289E+01    1.282E+01    1.274E+01
     1.267E+01    1.260E+01    1.253E+01    1.246E+01    1.240E+01    1.235E+01    1.229E+01    1.224E+01    1.220E+01    1.216E+01
     1.212E+01    1.209E+01    1.206E+01    1.204E+01    1.202E+01    1.201E+01    1.201E+01    1.200E+01    1.201E+01    1.202E+01
     1.204E+01    1.206E+01    1.209E+01    1.212E+01    1.217E+01    1.222E+01    1.227E+01    1.234E+01    1.241E+01    1.249E+01
     1.257E+01    1.267E+01    1.277E+01    1.288E+01    1.300E+01    1.312E+01    1.326E+01    1.340E+01    1.356E+01    1.372E+01
     1.389E+01    1.408E+01    1.427E+01    1.447E+01    1.468E+01    1.490E+01    1.513E+01    1.538E+01    1.563E+01    1.589E+01
     1.617E+01    1.646E+01    1.675E+01    1.706E+01    1.737E+01    1.769E+01    1.802E+01    1.835E+01    1.869E+01    1.904E+01
     1.939E+01    1.974E+01    2.009E+01    2.045E+01    2.081E+01    2.117E+01    2.153E+01    2.188E+01    2.224E+01    2.259E+01
     2.294E+01    2.329E+01    2.363E+01    2.397E+01    2.430E+01    2.462E+01    2.494E+01    2.525E+01    2.554E+01    2.583E+01
     2.611E+01    2.638E+01    2.664E+01    2.689E+01    2.712E+01    2.735E+01    2.757E+01    2.777E+01    2.797E+01    2.815E+01
     2.833E+01    2.849E+01    2.864E+01    2.879E+01    2.892E+01    2.904E+01    2.916E+01    2.926E+01    2.935E+01    2.943E+01
     2.950E+01    2.957E+01    2.962E+01    2.966E+01    2.969E+01    2.971E+01    2.972E+01    2.973E+01    2.972E+01    2.970E+01
     2.967E+01    2.963E+01    2.959E+01    2.953E+01    2.946E+01    2.939E+01    2.931E+01    2.921E+01    2.911E+01    2.901E+01
     2.889E+01    2.877E+01    2.864E+01    2.850E+01    2.835E+01    2.820E+01    2.804E+01    2.788E+01    2.771E+01    2.753E+01
     2.735E+01    2.716E+01    2.697E+01    2.677E+01    2.657E+01    2.636E+01    2.615E+01    2.593E+01    2.571E+01    2.549E+01
     2.526E+01    2.503E+01    2.479E+01    2.455E+01    2.431E+01    2.407E+01    2.382E+01    2.358E+01    2.333E+01    2.307E+01
     2.282E+01    2.256E+01    2.230E+01    2.204E+01    2.178E+01    2.152E+01    2.125E+01    2.099E+01    2.072E+01    2.046E+01
     2.019E+01    1.992E+01    1.966E+01    1.939E+01    1.912E+01    1.885E+01    1.859E+01    1.832E+01    1.806E+01    1.779E+01
     1.753E+01    1.727E+01    1.701E+01    1.675E+01    1.649E+01    1.623E+01    1.597E+01    1.572E+01    1.547E+01    1.521E+01
     1.496E+01    1.471E+01    1.446E+01    1.422E+01    1.397E+01    1.372E+01    1.348E+01    1.324E+01    1.300E+01    1.276E+01
     1.252E+01    1.228E+01    1.205E+01    1.181E+01    1.158E+01    1.135E+01    1.112E+01    1.089E+01    1.066E+01    1.044E+01
     1.021E+01    9.992E+00    9.771E+00    9.551E+00    9.333E+00    9.116E+00    8.900E+00    8.685E+00    8.471E+00    8.259E+00
     8.047E+00    7.836E+00    7.626E+00    7.417E+00    7.209E+00    7.001E+00    6.794E+00    6.587E+00    6.381E+00    6.176E+00
     5.971E+00    5.766E+00    5.561E+00    5.357E+00    5.153E+00    4.949E+00    4.745E+00    4.541E+00    4.337E+00    4.133E+00
 Mac      Conc. = 3.01E-04
   9.57260E+00  8.96287E+00  8.33836E+00  7.75222E+00  7.23364E+00  6.57415E+00  5.63992E+00  4.28027E+00  2.55623E+00  7.19305E-01
  -8.89103E-01 -2.07379E+00 -3.04080E+00 -4.11529E+00 -4.90906E+00 -5.73458E+00 -6.89850E+00 -7.82152E+00 -7.81570E+00 -6.13268E+00
  -2.56288E+00  2.04415E+00  6.50233E+00  9.95149E+00  1.24980E+01  1.44596E+01  1.59001E+01  1.70421E+01  1.83987E+01  2.02174E+01
   2.22600E+01  2.40909E+01  2.53638E+01  2.60876E+01  2.65070E+01  2.68723E+01  2.71410E+01  2.73995E+01  2.80747E+01  2.93638E+01
   3.12268E+01  3.29415E+01  3.39060E+01  3.42056E+01  3.44644E+01  3.51944E+01  3.62697E+01  3.71741E+01  3.74069E+01  3.68119E+01
   3.57006E+01  3.42612E+01  3.27203E+01  3.13580E+01  3.04066E+01  2.97681E+01  2.94331E+01  2.96292E+01  3.02845E+01  3.14402E+01
   3.29405E+01  3.43616E+01  3.55822E+01  3.64780E+01  3.69315E+01  3.66488E+01  3.55787E+01  3.43484E+01  3.34704E+01  3.30283E+01
   3.31878E+01  3.37999E+01  3.51660E+01  3.72704E+01  3.96130E+01  4.15369E+01  4.25599E+01  4.25994E+01  4.20284E+01  4.10862E+01
   4.01492E+01  3.93172E+01  3.87579E+01  3.85205E+01  3.85987E+01  3.89420E+01  3.96268E+01  4.04809E+01  4.13335E+01  4.20832E+01
   4.28468E+01  4.34775E+01  4.39693E+01  4.42179E+01  4.41514E+01  4.35447E+01  4.24428E+01  4.07002E+01  3.84010E+01  3.58046E+01
   3.33189E+01  3.11748E+01  2.91307E+01  2.65675E+01  2.31425E+01  1.86606E+01  1.32050E+01  6.97571E+00  5.26357E-01 -5.09693E+00
