 
 $NMID
 ID=''
 FMTDAT='(2E13.5)'
 TRAMP=   1.00000E+0
 VOLUME=   1.00000E+0
 $END
   2.04705E+4   7.71249E+5
  -7.07603E+5   1.89733E+6
  -5.34393E+5   1.91268E+6
  -6.37083E+5   1.80842E+6
  -6.96482E+5   1.86738E+6
  -6.67008E+5   1.78702E+6
  -7.65438E+5   1.70494E+6
  -8.14130E+5   1.76993E+6
  -7.61797E+5   1.73342E+6
  -8.21661E+5   1.64227E+6
  -8.84612E+5   1.64640E+6
  -8.73684E+5   1.62813E+6
  -8.99092E+5   1.57972E+6
  -9.24780E+5   1.56158E+6
  -9.30620E+5   1.51957E+6
  -9.60374E+5   1.48597E+6
  -9.82092E+5   1.47799E+6
  -9.96085E+5   1.42774E+6
  -1.03436E+6   1.38182E+6
  -1.05306E+6   1.36723E+6
  -1.06511E+6   1.32188E+6
  -1.09658E+6   1.27942E+6
  -1.11046E+6   1.25940E+6
  -1.11918E+6   1.21956E+6
  -1.14445E+6   1.17563E+6
  -1.15110E+6   1.15447E+6
  -1.15649E+6   1.12333E+6
  -1.17191E+6   1.09207E+6
  -1.17842E+6   1.06180E+6
  -1.18219E+6   1.02804E+6
  -1.19908E+6   9.97066E+5
  -1.20596E+6   9.67316E+5
  -1.21437E+6   9.27506E+5
  -1.22613E+6   8.94634E+5
  -1.22943E+6   8.64011E+5
  -1.23585E+6   8.28288E+5
  -1.25011E+6   7.96233E+5
  -1.25568E+6   7.63940E+5
  -1.25621E+6   7.28278E+5
  -1.26175E+6   6.99485E+5
  -1.26294E+6   6.70705E+5
  -1.26189E+6   6.39235E+5
  -1.26054E+6   6.12347E+5
  -1.26031E+6   5.87435E+5
  -1.25944E+6   5.58482E+5
  -1.25902E+6   5.31635E+5
  -1.25830E+6   5.02243E+5
  -1.25923E+6   4.69471E+5
  -1.25597E+6   4.38838E+5
  -1.25100E+6   4.09342E+5
  -1.24999E+6   3.78851E+5
  -1.24909E+6   3.49670E+5
  -1.24441E+6   3.21057E+5
  -1.24028E+6   2.92064E+5
  -1.23613E+6   2.63050E+5
  -1.23147E+6   2.35446E+5
  -1.22409E+6   2.08280E+5
  -1.21514E+6   1.81945E+5
  -1.20665E+6   1.57634E+5
  -1.20025E+6   1.33078E+5
  -1.19264E+6   1.07681E+5
  -1.18374E+6   8.22434E+4
  -1.17585E+6   5.70384E+4
  -1.16728E+6   3.12671E+4
  -1.15548E+6   5.31887E+3
  -1.14291E+6  -1.89700E+4
  -1.13221E+6  -4.26757E+4
  -1.12114E+6  -6.59289E+4
  -1.10974E+6  -8.87089E+4
  -1.09873E+6  -1.12076E+5
  -1.08653E+6  -1.35065E+5
  -1.07265E+6  -1.55705E+5
  -1.05997E+6  -1.75101E+5
  -1.04839E+6  -1.95526E+5
  -1.03494E+6  -2.16670E+5
  -1.02027E+6  -2.36233E+5
  -1.00628E+6  -2.55402E+5
  -9.92882E+5  -2.74976E+5
  -9.77877E+5  -2.94768E+5
  -9.61692E+5  -3.13861E+5
  -9.45584E+5  -3.32625E+5
  -9.30352E+5  -3.50372E+5
  -9.14766E+5  -3.66931E+5
  -8.97895E+5  -3.83960E+5
  -8.81104E+5  -4.00682E+5
  -8.64854E+5  -4.15894E+5
  -8.49034E+5  -4.29501E+5
  -8.32786E+5  -4.43162E+5
  -8.16349E+5  -4.56405E+5
  -7.99445E+5  -4.68614E+5
  -7.83363E+5  -4.79817E+5
  -7.67053E+5  -4.91664E+5
  -7.50664E+5  -5.03812E+5
  -7.32683E+5  -5.14981E+5
  -7.14385E+5  -5.24923E+5
  -6.96735E+5  -5.34192E+5
  -6.80214E+5  -5.43731E+5
  -6.63617E+5  -5.53239E+5
  -6.45352E+5  -5.61864E+5
  -6.27758E+5  -5.69320E+5
  -6.11264E+5  -5.77021E+5
  -5.94097E+5  -5.84824E+5
  -5.75767E+5  -5.91105E+5
  -5.58240E+5  -5.96341E+5
  -5.41563E+5  -6.00914E+5
  -5.25521E+5  -6.05577E+5
  -5.09078E+5  -6.10444E+5
  -4.91559E+5  -6.14706E+5
  -4.74093E+5  -6.17955E+5
  -4.57335E+5  -6.20272E+5
  -4.41571E+5  -6.22647E+5
  -4.24963E+5  -6.26286E+5
  -4.07537E+5  -6.29302E+5
  -3.90144E+5  -6.31768E+5
  -3.73371E+5  -6.33106E+5
  -3.56583E+5  -6.34833E+5
  -3.39431E+5  -6.36535E+5
  -3.22351E+5  -6.36508E+5
  -3.06060E+5  -6.35607E+5
  -2.90897E+5  -6.35030E+5
  -2.75807E+5  -6.35275E+5
  -2.60470E+5  -6.34975E+5
  -2.45023E+5  -6.33843E+5
  -2.29303E+5  -6.32815E+5
  -2.13983E+5  -6.31640E+5
  -1.98334E+5  -6.29555E+5
  -1.83484E+5  -6.26434E+5
  -1.68693E+5  -6.24126E+5
  -1.54229E+5  -6.21419E+5
  -1.39164E+5  -6.18996E+5
  -1.23826E+5  -6.16004E+5
  -1.08534E+5  -6.12684E+5
  -9.38668E+4  -6.08086E+5
  -8.03833E+4  -6.03668E+5
  -6.64998E+4  -5.99808E+5
  -5.28122E+4  -5.95112E+5
  -3.93353E+4  -5.89962E+5
  -2.64967E+4  -5.84665E+5
  -1.33641E+4  -5.79815E+5
  -2.63580E+2  -5.74063E+5
   1.24274E+4  -5.67865E+5
   2.42662E+4  -5.61041E+5
   3.52727E+4  -5.54335E+5
   4.67772E+4  -5.48443E+5
   5.84866E+4  -5.42120E+5
   6.96627E+4  -5.34780E+5
   8.07661E+4  -5.27370E+5
   9.09568E+4  -5.19393E+5
   1.01426E+5  -5.11858E+5
   1.10803E+5  -5.03878E+5
   1.20136E+5  -4.95822E+5
   1.28765E+5  -4.87931E+5
   1.37274E+5  -4.80353E+5
   1.45637E+5  -4.72503E+5
   1.54474E+5  -4.64099E+5
   1.62225E+5  -4.55437E+5
   1.69486E+5  -4.46947E+5
   1.76620E+5  -4.38663E+5
   1.83735E+5  -4.29771E+5
   1.90553E+5  -4.21302E+5
   1.96989E+5  -4.12579E+5
   2.03299E+5  -4.03700E+5
   2.09530E+5  -3.94648E+5
   2.15567E+5  -3.85703E+5
   2.20623E+5  -3.76662E+5
   2.25355E+5  -3.67655E+5
   2.30196E+5  -3.59110E+5
   2.35293E+5  -3.50479E+5
   2.39969E+5  -3.41562E+5
   2.43852E+5  -3.32874E+5
   2.47556E+5  -3.24260E+5
   2.51337E+5  -3.15697E+5
   2.54913E+5  -3.06730E+5
   2.58014E+5  -2.98200E+5
   2.61196E+5  -2.89786E+5
   2.64062E+5  -2.80968E+5
   2.67083E+5  -2.72377E+5
   2.70169E+5  -2.63543E+5
   2.71805E+5  -2.54494E+5
   2.74338E+5  -2.45760E+5
   2.76283E+5  -2.37570E+5
   2.78456E+5  -2.29076E+5
   2.79862E+5  -2.20375E+5
   2.81717E+5  -2.11744E+5
   2.82485E+5  -2.03405E+5
   2.83853E+5  -1.95296E+5
   2.84405E+5  -1.87218E+5
   2.84993E+5  -1.78951E+5
   2.85221E+5  -1.70921E+5
   2.85504E+5  -1.63624E+5
   2.86431E+5  -1.55925E+5
   2.86527E+5  -1.47892E+5
   2.86598E+5  -1.39377E+5
   2.85911E+5  -1.31485E+5
   2.85369E+5  -1.23619E+5
   2.85136E+5  -1.16003E+5
   2.84284E+5  -1.08330E+5
   2.83663E+5  -1.00778E+5
   2.82647E+5  -9.30955E+4
   2.81525E+5  -8.52853E+4
   2.80468E+5  -7.78687E+4
   2.78862E+5  -7.04276E+4
   2.76555E+5  -6.32401E+4
   2.74911E+5  -5.64367E+4
   2.73052E+5  -4.98624E+4
   2.71128E+5  -4.26617E+4
   2.68915E+5  -3.56141E+4
   2.66503E+5  -2.88487E+4
   2.63895E+5  -2.25690E+4
   2.61417E+5  -1.60945E+4
   2.58676E+5  -9.65690E+3
   2.55697E+5  -3.42298E+3
   2.52985E+5   2.41701E+3
   2.50215E+5   8.31368E+3
   2.47180E+5   1.42227E+4
   2.43691E+5   2.02076E+4
   2.40276E+5   2.56481E+4
   2.36489E+5   3.06945E+4
   2.32961E+5   3.56238E+4
   2.29540E+5   4.04241E+4
   2.25774E+5   4.54160E+4
   2.21993E+5   4.99679E+4
   2.18264E+5   5.44718E+4
   2.14456E+5   5.89601E+4
   2.10750E+5   6.32881E+4
   2.06459E+5   6.74692E+4
   2.02361E+5   7.11499E+4
   1.98330E+5   7.48914E+4
   1.94606E+5   7.84596E+4
   1.90401E+5   8.23521E+4
   1.86078E+5   8.55861E+4
   1.82059E+5   8.87120E+4
   1.77732E+5   9.17377E+4
   1.73528E+5   9.46920E+4
   1.69399E+5   9.73178E+4
   1.65391E+5   9.99046E+4
   1.61570E+5   1.02160E+5
   1.57276E+5   1.04763E+5
   1.52954E+5   1.06972E+5
   1.49021E+5   1.09065E+5
   1.44675E+5   1.10882E+5
   1.40741E+5   1.12700E+5
   1.36688E+5   1.14753E+5
   1.32502E+5   1.16299E+5
   1.28098E+5   1.17871E+5
   1.24633E+5   1.19495E+5
   1.20397E+5   1.20976E+5
   1.16680E+5   1.22293E+5
   1.12295E+5   1.23452E+5
   1.08702E+5   1.24415E+5
   1.04900E+5   1.25377E+5
   1.01060E+5   1.26220E+5
   9.71513E+4   1.27221E+5
   9.34031E+4   1.27628E+5
   8.91826E+4   1.28248E+5
   8.60500E+4   1.28843E+5
   8.19952E+4   1.29397E+5
   7.84005E+4   1.29978E+5
   7.47824E+4   1.30420E+5
   7.09339E+4   1.30593E+5
   6.74674E+4   1.30979E+5
   6.38583E+4   1.31031E+5
   5.99945E+4   1.31070E+5
   5.65247E+4   1.30860E+5
   5.31739E+4   1.30833E+5
   4.96754E+4   1.30682E+5
   4.60872E+4   1.30372E+5
   4.27620E+4   1.29842E+5
   3.97579E+4   1.29585E+5
   3.63983E+4   1.28697E+5
   3.33411E+4   1.28267E+5
   3.04340E+4   1.27806E+5
   2.70773E+4   1.27062E+5
   2.41714E+4   1.26276E+5
   2.09339E+4   1.25717E+5
   1.80079E+4   1.25069E+5
   1.48660E+4   1.23964E+5
   1.19700E+4   1.23056E+5
   9.22824E+3   1.21671E+5
   6.44987E+3   1.20630E+5
   3.81643E+3   1.19525E+5
   1.09869E+3   1.18453E+5
  -1.46056E+3   1.17342E+5
  -4.03769E+3   1.15796E+5
  -6.52980E+3   1.14547E+5
  -9.05121E+3   1.13359E+5
  -1.12621E+4   1.11683E+5
  -1.38359E+4   1.10049E+5
  -1.60891E+4   1.08920E+5
  -1.80533E+4   1.07527E+5
  -2.01339E+4   1.06162E+5
  -2.24462E+4   1.04262E+5
  -2.44165E+4   1.02875E+5
  -2.62142E+4   1.01253E+5
  -2.82579E+4   9.94830E+4
  -3.04382E+4   9.78691E+4
  -3.19567E+4   9.62877E+4
  -3.36678E+4   9.47176E+4
  -3.55844E+4   9.31651E+4
  -3.70461E+4   9.15074E+4
  -3.87269E+4   8.96239E+4
  -4.03899E+4   8.80152E+4
  -4.17897E+4   8.60705E+4
  -4.30709E+4   8.45690E+4
  -4.46585E+4   8.26612E+4
  -4.58468E+4   8.10404E+4
  -4.72244E+4   7.91845E+4
  -4.82852E+4   7.76318E+4
  -4.97717E+4   7.56775E+4
  -5.04582E+4   7.37953E+4
  -5.15799E+4   7.21373E+4
  -5.27079E+4   7.03968E+4
  -5.35305E+4   6.84480E+4
  -5.45906E+4   6.67727E+4
  -5.53548E+4   6.50991E+4
  -5.61029E+4   6.31066E+4
  -5.69416E+4   6.13467E+4
  -5.77130E+4   5.96916E+4
  -5.82791E+4   5.79743E+4
  -5.88218E+4   5.63152E+4
  -5.95536E+4   5.46181E+4
  -5.99771E+4   5.29113E+4
  -6.03129E+4   5.06962E+4
  -6.08579E+4   4.94115E+4
  -6.12265E+4   4.72933E+4
  -6.13809E+4   4.57464E+4
  -6.14834E+4   4.39470E+4
  -6.18683E+4   4.22112E+4
  -6.20755E+4   4.05544E+4
  -6.22811E+4   3.89851E+4
  -6.22169E+4   3.71945E+4
  -6.21592E+4   3.55616E+4
  -6.24582E+4   3.41088E+4
  -6.23751E+4   3.22400E+4
  -6.21961E+4   3.09627E+4
  -6.23826E+4   2.93392E+4
  -6.23351E+4   2.77507E+4
  -6.21089E+4   2.62102E+4
  -6.18557E+4   2.43478E+4
  -6.14560E+4   2.29144E+4
  -6.13973E+4   2.16161E+4
  -6.14482E+4   2.03488E+4
  -6.07645E+4   1.86707E+4
  -6.03779E+4   1.72632E+4
  -6.02543E+4   1.59644E+4
  -5.96473E+4   1.45871E+4
  -5.92827E+4   1.33867E+4
  -5.88584E+4   1.17826E+4
  -5.84663E+4   1.04146E+4
  -5.79798E+4   9.36049E+3
  -5.74047E+4   8.37093E+3
  -5.71398E+4   6.89217E+3
  -5.64358E+4   5.81496E+3
  -5.58338E+4   4.65554E+3
  -5.52162E+4   3.25373E+3
  -5.44544E+4   2.17829E+3
  -5.39798E+4   1.32243E+3
  -5.33189E+4   1.88289E+2
  -5.27453E+4  -8.06206E+2
  -5.19520E+4  -1.77118E+3
  -5.13029E+4  -2.77275E+3
  -5.05830E+4  -3.76080E+3
  -4.97157E+4  -4.48866E+3
  -4.91479E+4  -5.61330E+3
  -4.82651E+4  -6.37457E+3
  -4.77268E+4  -7.37841E+3
  -4.68224E+4  -8.12544E+3
