 
 $NMID
 ID=''
 FMTDAT='(2E13.5)'
 TRAMP=   1.00000E+0
 VOLUME=   1.00000E+0
 $END
  -6.61312E+3   2.12587E+4
  -2.48022E+3   2.97831E+4
  -2.98700E+3   2.22396E+3
  -2.37735E+4  -3.15499E+3
  -1.87761E+4   5.21249E+3
   8.09288E+2  -1.10953E+4
  -1.69969E+3  -1.65622E+4
  -4.25724E+3  -4.34751E+3
   6.24133E+3  -6.37962E+3
   6.29513E+3  -8.10851E+3
   4.46022E+3   1.00185E+3
   8.95143E+3   6.05444E+2
   4.99908E+3  -1.76654E+2
   2.73517E+2   5.77252E+3
   2.95576E+3   5.30564E+3
   6.23715E+2   3.34810E+3
  -4.26628E+3   6.32436E+3
  -3.99363E+3   3.95452E+3
  -5.06889E+3  -8.02961E+2
  -5.20705E+3  -9.73337E+2
  -3.29801E+3  -2.95011E+3
  -1.94535E+3  -5.20715E+3
   4.90738E+2  -2.23264E+3
   1.74223E+3  -2.22964E+3
   2.19442E+3  -5.18294E+3
   5.83506E+3  -6.67376E+2
   4.37955E+3   4.25204E+3
  -5.88013E+2   2.19495E+3
   7.37287E+2   1.14982E+3
   2.81125E+3   3.51293E+3
  -1.77886E+3   4.35253E+3
  -4.69632E+3   2.11491E+3
  -3.18925E+3  -9.37910E+2
  -2.18919E+3  -2.86211E+3
  -4.42796E+2  -2.31390E+3
   1.20362E+3  -9.37301E+2
  -1.89223E+2  -1.23833E+3
  -4.04738E+2  -1.71785E+3
   2.39164E+3  -1.33391E+3
   2.15232E+3  -6.73016E+1
   6.47579E+2   4.49799E+2
   1.45367E+3   3.46593E+2
   2.13193E+3   1.36420E+3
   2.37659E+2   2.52329E+3
  -1.00782E+3   1.69420E+3
  -1.28670E+3   1.14835E+3
  -2.05021E+3   1.08385E+3
  -2.62418E+3  -9.80021E+2
  -1.12763E+3  -2.73298E+3
  -3.89126E+1  -2.00663E+3
   8.24295E+2  -9.06207E+2
   6.92299E+2  -8.07281E+2
   6.72393E+2  -4.58622E+2
   8.77497E+2   1.80088E+2
   1.08236E+3   6.71637E+2
   3.55462E+1   7.33182E+2
  -1.42410E+2   4.98626E+0
   6.86045E+2   2.61215E+2
   1.14596E+3   6.21505E+2
   5.42746E+1   1.29308E+3
  -1.09782E+3   1.13487E+3
  -1.15076E+3   2.58974E+2
  -1.44761E+3   3.11475E+2
  -1.62271E+3  -5.37581E+2
  -9.91023E+2  -1.90872E+3
   1.20632E+2  -2.06240E+3
   1.36826E+3  -1.00756E+3
   2.06527E+3  -2.16363E+2
   1.10201E+3   7.37858E+2
   2.63062E+1   6.98205E+2
   3.09550E+2   3.92815E+2
   6.55945E+2   3.07688E+2
  -7.15765E+1   1.34417E+3
  -1.01553E+3   1.21775E+3
  -7.51739E+2   1.39903E+2
  -4.11397E+2  -6.77372E+1
  -5.19946E+2   3.59046E+2
  -6.47480E+2  -1.41371E+2
  -5.03092E+2  -4.55139E+2
   1.48651E+2  -2.18728E+2
   1.24439E+2  -5.48006E+2
   1.65972E+2  -4.64584E+2
   2.66957E+2  -4.98044E+1
   2.89675E+2   2.07323E+2
   2.56231E+2  -5.99729E+1
   5.96041E+2   4.99466E+2
   7.01076E+2   6.65255E+2
  -1.98416E+2   5.49225E+2
  -3.46517E+2   1.33440E+2
   1.88133E+2   1.61657E+2
   1.20551E+2   2.46538E+2
  -4.50871E+2   4.40275E+2
  -9.69587E+2  -5.99406E+1
  -5.91154E+2  -4.27466E+2
   2.96212E+2  -9.59284E+2
   8.38637E+2  -2.69320E+2
   3.60756E+2   1.54403E+2
   2.42836E+2   1.27943E+2
   3.96968E+2  -1.16381E+2
   7.13102E+2   1.70033E+2
   2.92250E+2   8.46425E+2
  -4.72662E+2   2.77629E+2
  -5.26983E+2  -2.07046E+2
   1.25688E+2  -6.33499E+2
   5.89777E+2   1.51658E+1
   1.85988E+2   5.52669E+2
  -3.71057E+2   2.77980E+2
  -4.91393E+2  -2.91253E+2
   2.51574E+2  -8.62239E+2
   7.34358E+2  -3.42952E+2
   2.22010E+2   2.11688E+2
   1.36250E+2   5.26785E+2
  -1.36120E+2   3.54316E+2
   1.47992E+2   7.89355E+1
   1.47475E+2   1.74580E+1
  -1.91405E+2   1.57702E+2
  -4.38039E+2   2.69022E+1
  -1.02501E+1  -5.18294E+2
   3.39699E+2  -2.94513E+2
   8.07857E+2   1.43703E+2
   3.89887E+2   1.93260E+2
  -5.72201E+1   2.54477E+2
   4.27573E+1   2.04146E+2
  -1.12992E+0   1.27443E+2
  -9.97955E+1  -2.10773E+2
  -1.15780E+2  -3.18244E+2
   3.57064E+2  -3.06484E+2
   3.11640E+2   2.77051E+1
   3.84507E+2   7.07715E+1
  -6.54050E+0   2.01837E+2
  -1.38460E+2   2.72050E+2
  -1.15246E+2  -1.74252E+2
  -5.37520E+1  -4.62411E+2
  -5.54400E+1  -1.32352E+2
   3.11461E+1  -1.15368E+2
   1.49406E+2   4.42847E+1
   1.44614E+2   1.04415E+2
   4.58940E+2   1.59094E+2
  -1.24253E+2   4.01165E+2
  -1.97005E+2  -6.77425E+1
  -1.79185E+2  -3.20281E+2
   2.02694E+2  -4.41975E+2
   4.63971E+2   4.10565E+2
  -1.90097E+2   6.24858E+2
  -3.66263E+2   1.02189E+2
  -5.82346E+2  -3.66381E+2
  -5.70239E+2  -2.61163E+2
   2.09498E+1   1.87441E+1
  -1.15959E+2  -1.59144E+2
   1.21951E+1  -5.23411E+2
   1.86447E+2  -2.74327E+2
   4.79179E+2  -7.99190E+0
   7.58412E+1   2.65591E+2
  -1.60647E+2   2.36109E+2
  -5.80462E+1  -1.48290E+2
   7.45287E+1  -7.98298E+1
   2.07238E+1   2.60928E+1
  -3.64339E+1   9.18594E+1
   9.12976E+1   4.38376E+0
  -2.90240E+0  -9.57874E+1
  -1.37397E+2   1.12328E+2
  -5.99698E+1   3.25588E+1
  -1.99254E+2   7.26332E+1
   1.97297E+2  -3.74276E+2
   2.09081E+2  -4.09350E+2
   6.28039E+2  -1.35293E+2
   2.26068E+2   1.99694E+2
  -1.75637E+2  -7.76767E+1
  -9.27056E+1  -8.62728E+1
   1.41224E+2  -3.15023E+1
   1.38466E+2  -7.96492E+1
   2.03526E+1  -3.41733E+1
  -1.68001E+2  -1.66546E+2
  -9.50491E+1  -4.77168E+1
   1.48834E+2  -4.81170E+1
  -9.72979E+1   2.72087E+2
  -5.23362E+1   3.82967E+1
  -2.16799E+2  -4.75936E+2
  -7.08154E+1  -4.17939E+2
   2.01491E+2  -1.61402E+2
   9.42297E+1   2.19108E+2
  -1.73727E+2   5.00912E+1
  -1.91828E+2  -1.39033E+2
  -2.14510E+1  -2.83664E+2
   5.34931E+1  -1.79065E+2
   2.17680E+2  -1.92452E+2
   5.70965E+1  -1.80969E+2
   2.46819E+1  -3.60289E+2
   3.31647E+2  -8.33195E+1
   5.71605E+1   3.78457E+2
  -1.69265E+2   4.84656E+2
  -4.07391E+2  -3.33903E+1
  -3.74005E+1  -2.64983E+2
   1.03258E+2  -3.73340E+2
   1.51330E+2  -1.68391E+2
  -1.71558E+2  -3.68168E+1
  -8.52768E+0  -2.86714E+2
  -1.37816E+2   2.55423E+1
  -1.24261E+2   6.56229E+1
   1.19184E+1  -1.41967E+2
  -2.09453E+2  -9.14559E+1
  -2.96436E+1  -2.26047E+2
   1.80722E+2   3.02382E+2
   1.58599E+2  -2.64927E+1
  -3.50653E+1  -6.23888E+1
  -2.59913E+2   4.88106E+1
  -3.47301E+2  -9.98177E+1
   9.83376E+1  -6.77226E+1
  -2.33663E+2  -4.90621E+1
  -1.58933E+2  -2.08333E+2
  -2.37897E+2   1.69148E+1
   1.54257E+2   1.23576E+2
  -8.45803E+1   2.95874E+2
  -2.53636E+2   2.69722E+2
  -2.86805E+2  -7.16153E+1
  -1.05812E+2  -5.16325E+2
   1.84372E+2  -2.37746E+2
   9.35841E+1   1.22815E+2
  -3.94665E+1   2.35959E+0
  -5.26238E+1   1.40207E+2
   9.47367E+1  -7.01883E+1
  -9.07408E+0   1.57790E+2
  -1.83816E+2   3.08679E+2
  -1.00480E+2  -2.24086E+1
  -2.99620E+1  -1.18781E+2
   2.24215E+2  -5.66813E+1
   1.81147E+2  -1.95704E+1
   3.79791E+2   2.17211E+2
  -1.51075E+2   1.60985E+1
  -3.32427E+2  -2.98461E+1
   5.99934E+1  -1.68662E+2
  -6.90732E+1   2.67019E+1
   9.59187E+1   2.30977E+2
  -8.56863E+1  -6.78035E+1
   8.12764E+1  -8.44570E+1
   2.90070E+2   1.92128E+2
   1.83010E+2   1.47787E+2
  -1.16657E+2   3.65910E+1
   2.51470E+1  -1.93662E+2
   7.96107E+1  -1.91858E+1
   2.26351E+2   2.43172E+0
   1.10158E+1   1.60734E+2
  -1.07074E+2  -2.86069E+1
  -3.61341E+1   4.17869E-1
   1.34684E+2  -6.77153E+0
   2.21623E+2  -3.76745E+1
  -1.65576E+1  -3.34931E+1
   1.60383E+2  -1.18817E+2
   2.23489E+2  -3.57177E+2
   1.55806E+2   1.48608E+2
   1.71761E+2   2.05159E+1
   6.51349E+1   2.13444E+2
  -1.22479E+2  -2.04032E+2
  -2.29326E+2  -1.04286E+2
   1.15853E+2  -1.84661E+1
   3.05178E+2  -1.47204E+1
   2.37844E+1  -5.04163E+1
   1.53412E+2   1.63398E+0
   3.30283E+1  -1.61135E+2
  -2.76614E+1  -1.97955E+2
  -2.20878E+2  -1.69217E+2
   1.67861E+2  -5.10935E+2
   1.76903E+2  -3.84228E+2
   3.55416E+2  -2.03757E+2
   2.43783E+2   9.82116E+1
  -3.64253E+2   1.06009E+2
  -9.78580E+1  -1.45014E+2
   3.58190E+1  -6.24192E+1
  -6.71152E+1  -2.79116E+2
   1.45887E+2  -1.77459E+2
  -2.28031E+1  -1.90000E+2
   3.18602E+1   2.07282E+1
   2.08029E+1  -9.13461E+1
   6.62637E+1   1.16463E+2
  -8.02004E+1   7.16836E+1
  -1.01570E+2  -9.59941E+1
  -2.24765E+2  -2.34726E+2
   1.04003E+0  -1.16705E+2
   7.29723E+1  -5.93754E+1
   1.02932E+2   1.89858E+2
   7.97430E+1  -3.02393E+2
   8.78742E+1  -1.82186E+2
  -2.86576E+1   8.77318E+1
  -1.42261E+2  -2.13126E+1
  -1.73341E+2   1.46982E+2
   5.88003E+1  -1.60815E+2
   2.56601E+2  -1.13123E+2
   1.65551E+2   1.29854E+2
   1.54997E+2   3.77071E+1
  -6.48479E+1   2.98072E+2
  -2.27169E+1   4.92173E+0
   7.61391E+0  -1.11509E+2
  -3.53316E+1  -2.65418E+2
   1.08369E+2   1.18162E+2
   3.33192E+1  -2.18111E+2
   9.21507E+1  -5.00891E+1
   1.74704E+2   3.20900E+1
   6.08820E+1  -4.87050E+1
  -6.07020E-1   9.30998E+1
  -1.40350E+2  -1.76610E+1
   1.15885E+2  -8.87563E+1
   1.42016E+2   7.20939E+1
   3.76922E+1   7.62659E-1
  -1.03542E+1  -5.63026E+1
   1.47251E+1   6.81796E+0
   7.47960E+1  -1.28263E+2
  -6.40375E+1   1.28380E+2
   6.31311E+1  -2.44578E+1
  -1.28721E+2  -4.67290E+1
  -3.49024E+1  -1.57369E+2
   2.15986E+2  -1.01366E+2
  -8.97070E+1  -9.59709E+1
   1.04547E+1  -1.46330E+1
  -3.05644E+0   1.20070E+2
  -1.21039E+1   4.85196E+1
   1.73169E+2   1.81234E+2
   7.14684E+1   2.99089E+1
  -2.74448E+0  -4.94443E+1
  -2.85570E+1  -6.96053E+1
   9.16363E+1  -1.86729E+2
   1.01208E+2   1.98270E+1
  -2.37346E+1   1.83843E+2
   4.65021E+1  -2.98505E+2
   2.60199E+2  -5.78217E+1
   2.63148E+2  -9.94748E+1
  -6.30392E+1  -1.63181E+2
   1.07749E+2   2.50430E+2
  -1.12526E+1  -3.12203E+2
  -4.66647E+1  -2.23106E+2
   1.57425E+2   3.32232E+1
   1.19235E+2   7.90674E+1
   2.29903E+2  -1.06399E+2
   1.30798E+2  -7.00697E+0
   9.90691E+1  -2.09833E+2
   2.64290E+2   1.73969E+2
  -4.17330E+1  -1.65092E+2
   3.76907E+0  -1.33839E+2
   1.68100E+2  -7.31476E+1
   4.64601E+1  -5.47451E+1
   1.73746E+2   6.83287E+1
   5.76141E+1   7.71823E+1
   2.49729E+2   8.29328E+1
   1.33327E+2  -3.72505E+0
   9.13772E+1  -1.73477E+2
   5.17936E+1   1.95254E+0
   8.76156E+1  -1.14023E+2
   1.44927E+2  -1.41140E+2
   2.45676E+1   1.46984E+2
   2.45473E+1   2.54806E+2
   2.27227E+1  -9.31089E+1
   8.75383E+1  -5.02970E+1
  -3.70682E+0  -9.45212E+1
   8.51800E+1   5.18204E+1
  -1.35787E+2   3.51000E+1
   5.51820E+0   4.94711E+1
   1.71490E+2  -1.40732E+2
   1.21176E+2  -1.60288E+2
  -5.46328E+1   1.37544E+1
  -6.35083E+1  -2.40370E+2
  -2.37644E+2  -1.17750E+0
   7.86669E+0  -2.65082E+2
   4.63544E+1  -1.67687E+2
   2.74218E+2  -8.61694E+1
   2.62608E+2  -2.55270E+1
  -1.12962E+2  -1.54000E+2
  -8.16821E+1  -1.06471E+2
  -2.05835E+2  -1.07347E+2
