 
 $NMID
 ID=''
 FMTDAT='(2E13.5)'
 TRAMP=   1.00000E+0
 VOLUME=   1.00000E+0
 $END
   2.78124E+3  -1.52401E+4
  -3.36452E+3  -2.95707E+3
  -3.32010E+2   3.65178E+3
   7.45807E+3   2.40871E+3
  -2.31814E+2   2.47151E+3
  -3.94961E+3   2.34572E+3
   7.92576E+2  -2.11998E+3
   1.27660E+3  -1.07477E+3
   6.51682E+2   2.70877E+3
   3.59467E+2   8.05127E+2
  -2.45846E+3  -1.40390E+1
  -1.29841E+3   9.80953E+2
   1.12631E+3  -1.17207E+3
  -1.00149E+3  -8.51976E+2
  -2.60894E+3   7.64827E+2
  -1.58497E+2  -1.94964E+3
   2.01381E+3  -1.67352E+3
   2.03899E+3   1.40772E+3
   3.33857E+2   2.20344E+2
  -4.16425E+2  -5.01509E+2
  -1.35783E+1   1.41511E+3
  -1.14828E+2   7.99869E+2
   2.45887E+1  -2.61679E+2
   8.11924E+2   9.95436E+2
  -1.25927E+3   6.08593E+2
  -2.19611E+3  -1.42435E+3
   5.38002E+2  -1.28404E+3
   1.34792E+3   1.34098E+3
  -1.31325E+3   6.24592E+2
  -7.34632E+2  -1.90078E+3
   1.32494E+3  -1.80320E+3
   9.49358E+2   6.24181E+2
  -3.90592E+2   1.25556E+3
  -4.60689E+2   1.27850E+2
  -3.47396E+2  -1.54067E+2
  -1.63723E+2  -9.29781E+2
   5.18339E+2  -8.67602E+2
   5.66794E+2   4.38708E+2
   4.96729E+2   8.64885E+2
  -1.13519E+1   9.78984E+1
  -1.20712E+2   3.70212E+2
  -2.88011E+2   6.52172E+2
  -8.19828E+2  -2.18364E+2
  -7.22734E+2  -4.22311E+2
  -9.60714E+2  -7.88182E+2
   1.06334E+2  -1.24826E+3
   1.54030E+3  -8.11210E+2
   1.43077E+3   8.96255E+2
  -3.29772E+2   1.33354E+3
  -7.63657E+2   2.81802E+2
   8.65583E+1  -2.23194E+2
   4.21222E+1   5.83115E+2
  -4.92195E+2   3.51880E+2
   9.14618E+1  -3.88955E+2
   2.58450E+2  -3.59037E+2
  -1.68763E+2   1.00613E+2
  -2.56270E+2   4.94841E+2
   3.45160E+0   4.26500E+2
  -1.63966E+2   1.33150E+2
  -3.93737E+2  -1.03736E+2
  -6.01260E+2  -3.10423E+2
  -2.09838E+2  -4.93587E+2
   8.01073E+2  -3.71170E+2
   1.02405E+3   4.53447E+2
   3.61343E+2   4.37895E+2
   1.27561E+2   2.03075E+2
   3.55207E+2   1.29011E+2
  -1.57303E+2   6.88509E+2
  -5.73469E+2   1.68380E+2
  -1.35864E+0  -7.74990E+2
   4.91425E+2  -3.14025E+2
  -2.34265E+2   6.40365E+2
  -6.43479E+2   2.33781E+2
  -1.03161E+2  -6.16239E+2
   4.62140E+2  -2.57468E+2
  -3.52858E+1   1.93296E+2
  -3.28254E+2   1.98952E+1
   1.81951E+1  -1.33927E+2
   1.48706E+2   8.87675E+1
  -2.98447E+1   9.94884E+1
   3.72762E+2  -3.78350E+2
   5.68722E+2  -4.65414E-1
  -5.48783E+1   7.96490E+1
  -1.55933E+2   1.87172E+2
  -3.82930E+1  -1.69893E+2
   4.46964E+1  -7.58030E+1
  -1.59720E+2  -2.72205E+1
  -1.86276E+2  -8.99665E+1
  -3.32434E+2  -4.45719E+2
  -2.86116E+0  -3.14786E+2
   2.16987E+2   5.25047E+1
  -2.31416E+2  -2.13862E+2
   2.35878E+1  -5.73588E+2
   1.05235E+2  -4.68059E+2
   1.40119E+2  -9.81537E+1
   1.56421E+2  -9.50869E+1
   1.39828E+2  -8.45381E+1
   3.12601E+2  -2.32778E+2
   3.79723E+1  -1.71250E+2
  -1.71548E+2   1.78885E+2
   7.95486E+1  -1.23300E+2
  -1.05189E+2  -9.47299E+1
   4.81802E+1   1.58015E+2
  -1.36252E+2  -8.07337E+1
  -8.66797E+1   4.62624E+1
  -2.62651E+2   2.21352E+2
   4.89169E+1  -6.17665E+1
   7.37336E+1  -1.44295E+2
   1.71299E+2  -2.24333E+2
   6.58696E+1   1.96858E+1
  -5.00871E+1   1.65069E+2
   5.17631E+1   7.68616E+1
  -3.47115E+1   1.65791E+2
   2.04876E+2   9.54184E+1
   2.02117E+2  -1.46182E+2
  -3.94973E+2  -1.65918E+2
   5.66514E+0   1.72175E+2
   4.97069E+1   1.60881E+2
   3.33075E+2  -1.15315E+2
   2.32143E+1   1.54873E+2
  -2.71767E+2  -6.89102E+1
  -1.23095E+2   5.90012E+1
  -2.35396E+1  -5.14881E+1
   6.09221E+1   1.83226E+2
  -2.55781E+2  -1.64705E+2
   8.24883E+1  -2.27026E+2
   1.01314E+2  -1.36398E+2
  -1.70489E+2   1.10373E+2
   2.11747E+2  -7.47571E+1
  -1.52019E+0   1.01098E+2
   1.45775E+2   7.60953E+1
  -2.25418E+2   3.68659E+1
   1.48617E+1   5.39801E+1
   8.33976E+1   3.40094E+2
   1.75304E+1   4.13348E+1
   1.43746E+2   1.72716E+2
   1.30217E+2   1.12988E+2
   1.09491E+1  -1.51093E+1
  -1.48782E+2   3.08602E+1
   2.72878E+2  -1.64920E+2
  -8.06515E+1  -1.72189E+1
   3.57068E+1  -8.33468E+0
   1.18032E+2   1.79785E+2
  -2.06252E+1  -7.49258E+1
  -1.14715E+2   1.30722E+1
   5.82945E+1   3.42341E+2
  -2.13068E+2   3.34828E+1
  -1.05685E+2  -2.00048E+2
  -1.27316E+2   5.99144E+0
   3.37712E+1   1.29989E+2
  -1.96751E+2  -1.32640E+2
   2.25821E+2   2.49591E+0
   3.50285E+1   3.56496E+1
  -4.84658E+0   5.81527E+1
   8.27942E+1  -4.36169E+1
   2.74575E+1  -3.58462E+1
  -3.14756E+1   7.21508E+1
   2.84348E+1   1.57078E+2
  -1.91638E+2   1.48567E+2
  -8.23020E+1  -1.05526E+2
  -2.61067E+2   8.56037E+1
  -1.51379E+2  -5.52503E+1
  -3.40167E+1  -9.36362E+0
   1.81072E+1  -3.96087E+1
   1.41933E+2   5.52738E+1
  -1.79803E+2  -4.78435E+1
  -6.76017E+1  -2.35356E+2
  -7.04086E+1  -4.19825E+1
  -1.95831E+2  -1.82247E+1
  -1.84518E+2   6.27813E+0
   2.07893E+2   4.87675E+0
   1.21981E+2  -2.45653E+2
   9.69009E+1  -1.25629E+2
  -6.40818E+1  -5.62895E+1
  -7.33825E+1   4.82697E+1
  -1.19873E+1  -1.39194E+2
  -1.31990E+2  -5.23138E+1
  -6.83479E+1  -2.03915E+0
   9.11562E+1   1.62763E+1
  -1.31463E+2  -3.29918E+0
   3.40397E+1  -4.43816E+2
   9.74063E+1  -2.18268E+1
   8.73497E+1   6.14230E+1
  -3.45886E+0  -1.25214E+2
   2.94670E+1  -4.21976E+1
  -3.09844E+2   1.13053E+2
   4.65665E-1  -3.63183E+0
   7.30883E+1  -1.59197E+2
   8.86127E+1   9.12155E+1
  -1.25795E+1  -1.24289E+2
   9.06577E+1   1.65525E+2
  -7.01328E+1  -1.27241E+2
   1.06985E+2   9.56399E+0
   1.08761E+2   6.20060E+1
   1.11895E+2   6.62525E+1
  -5.52456E+1   1.92586E+0
   4.58368E+1  -5.37748E+1
   1.00862E+2   1.25666E+2
  -2.49550E+1   3.58365E+1
   5.10352E+1  -9.97013E+1
   8.08485E-2  -6.69067E+1
   1.67518E+2  -1.29335E+1
   1.05262E+2  -1.90396E+1
  -2.08378E+2   9.61873E+1
  -7.67698E+1  -5.93959E+0
   5.03361E+1  -1.29802E+2
   8.43068E+1  -1.69810E+0
  -1.26472E+2   1.54348E+2
   1.18620E+2   2.31034E+2
   6.61652E+1  -7.92594E+1
  -2.55152E+2   5.91456E+1
  -4.88493E+1  -8.22658E+1
   2.76015E+2   1.85420E+2
   1.57974E+2   1.14092E+2
   1.16945E+2  -1.97903E+2
   1.28237E+2  -2.09866E+2
   3.69810E+1  -1.62032E+2
   2.86104E+1   3.51845E+2
  -2.49237E+2   1.62167E+2
   8.69571E+1   3.09423E+1
   8.73397E+0   4.17679E+1
   4.05104E+0   3.50787E+1
   6.06640E+1  -6.44168E+0
   1.19588E+2   1.50046E+2
   9.18679E+0   4.73121E+1
   5.87726E+1  -5.70890E+0
  -3.00944E+1  -1.13247E+2
  -1.23989E+1  -1.92729E+2
   5.39826E+1  -6.85903E+1
  -1.84656E+2   1.09911E+2
  -4.65882E+1  -3.99598E+1
   1.19899E+2   3.18235E+1
  -1.85870E+2  -1.86500E+2
   2.15021E+2  -6.07743E+1
   2.49968E+2   1.20502E+2
  -1.39300E+2  -8.39094E+1
  -1.36999E+2  -1.58612E+2
  -1.21297E+2  -1.78070E+2
   2.17839E+1   1.29217E+1
   1.24192E+2  -1.55442E+2
  -3.99824E+1  -8.73676E+1
   4.71882E+1  -3.75664E+1
  -3.71887E+1   1.20249E+1
  -7.62556E+1  -1.33133E+1
   1.10914E+2   1.07004E+2
   1.45373E+2   1.24871E+1
   2.64519E+1   2.49499E+1
  -2.01664E+2   1.53778E+1
   2.28633E+2   1.13696E+2
  -1.28045E+2   6.09098E+1
  -6.93993E+1  -1.57334E+2
   2.20300E+2  -1.28786E+1
   4.53927E+1   1.43813E+1
   6.60718E+1  -3.21374E+2
   2.03431E+2  -1.38564E+2
  -7.01048E+1   1.65021E+2
  -1.99397E+2  -9.77704E+0
  -5.20978E+1  -7.35960E+1
  -7.47987E+1  -1.59845E+2
   4.26495E+1   1.01472E+2
   1.35986E+2   5.89054E+1
   1.22890E+2  -1.67877E+2
   2.38635E+2  -5.32843E+1
  -6.85342E+1  -5.27793E+1
  -2.71620E+1  -7.43524E+1
   3.40702E+1  -2.13196E+1
   1.84846E+2   1.14446E+1
  -1.27433E+2  -2.14623E+2
   2.55182E+2  -1.72949E+2
  -8.18069E+1   2.69634E+1
  -1.27607E+1  -4.16010E+2
   1.35591E+1  -1.38318E+2
  -7.90181E+1  -4.19318E+1
   1.18865E+2   5.34009E+1
   6.76889E+1   9.93724E+1
  -9.58090E+1  -1.18557E+2
   6.12682E+1  -7.48436E+1
  -2.20946E+1   1.37670E+2
   5.19071E+1  -1.56427E+2
   1.06184E+2  -8.30331E+1
   6.14710E+1   6.73184E+0
   9.45306E+1  -1.11467E+2
   9.56062E+1   3.05297E+1
  -5.48419E+1   1.18704E+2
  -2.49001E+2  -3.06166E+2
  -9.34757E+1   1.40950E+2
   5.19715E+1  -3.21159E+1
   6.66556E+1  -1.86108E+2
   2.66994E+1   4.93759E+1
  -7.75513E+1  -6.82546E+1
   1.03664E+1   4.91220E+1
   1.47057E+2  -9.72854E+1
   4.05678E-1   5.07424E+1
  -7.78001E+1  -1.12922E+1
   5.21945E+0  -1.03096E+2
  -6.63958E+1  -1.29364E+2
  -2.74587E+1  -2.84392E+1
  -2.03211E+2   2.70520E+0
  -5.59766E+1  -4.19086E+1
  -2.68178E+1  -4.37952E+1
   3.11518E+2  -9.81262E+0
  -5.74253E+1  -1.20283E+2
   8.04189E+1  -1.13610E+1
  -3.04029E+1  -8.66077E+1
   1.42089E+2   5.23465E+0
  -7.78849E+1   1.46053E+2
   6.41327E+1   5.47023E+1
  -2.64764E+2   7.91676E+1
   6.46916E+1   5.71910E+1
   9.64266E+1  -2.86041E+2
  -1.44513E+2   7.76999E+1
  -1.06644E+2   7.29025E+1
   3.16861E+2  -4.07850E+1
   2.90970E+1  -3.72459E+1
   1.30376E+2  -6.67153E+1
   4.85526E+1  -6.19017E+1
  -9.52917E+0  -2.47150E+2
   4.56822E+0  -9.71757E+1
   1.68386E+2  -1.79734E+2
   1.00337E+2   1.56747E+2
  -1.35990E+2   7.83599E+1
  -1.26304E+2  -4.26413E+1
   4.00645E+1  -3.26164E+0
   6.35408E+1  -6.18331E+1
  -2.41083E+2   1.76861E+1
   4.57639E+1  -1.67557E+2
  -1.51689E+2  -6.21767E+0
   4.64958E+1   1.34741E+1
   7.67572E+1   1.11293E+1
  -1.81193E+2  -5.81381E+1
  -1.95702E+2   1.78860E+2
   1.43361E+1  -2.01075E+1
  -1.41562E+2  -6.78947E+1
  -2.90273E+1  -1.55995E+2
  -1.20305E+2   1.04407E+2
   4.70659E+1   2.93604E+2
   1.29369E+2  -2.12059E+2
   5.03810E+1   1.41369E+1
  -5.37991E+0  -1.06950E+2
   8.15625E+1   1.87764E+2
  -2.68214E+1   1.55697E+2
  -2.42441E+2   2.15414E+1
   7.44550E+1   1.00266E+2
  -1.78237E+1  -2.65322E+1
  -1.34716E+2   1.98549E+2
  -6.59177E+1  -1.24160E+2
  -3.51612E+1   9.32659E+0
   1.15495E+2  -3.99199E+1
   1.03010E+2   5.84599E+1
   1.76824E+2   5.34481E+1
   2.83430E+1   1.64546E+2
  -1.09915E+2  -1.69423E+2
   4.71975E+1   1.75100E+2
   8.07067E+1   6.08971E+1
   1.09473E+2   1.05234E+2
  -1.46609E+2  -1.74628E+2
   4.17942E+1   7.12169E+1
   1.49074E+2   1.10559E+2
  -1.49579E+1   6.37122E+1
  -6.88680E+1   4.99361E+1
  -5.25558E+1  -1.66777E+2
   1.38437E+1  -4.92009E+1
  -2.01004E+1   8.25893E+1
  -1.53366E+2   9.83918E+1
   1.50584E+2   7.62211E+1
   1.37701E+2  -1.95357E+2
   1.70308E+2  -1.69760E+0
