 
 $NMID
 ID=''
 FMTDAT='(2E13.5)'
 TRAMP=   1.00000E+0
 VOLUME=   1.00000E+0
 $END
  -1.05641E+4  -1.18781E+4
  -1.54816E+4   8.12042E+3
   9.07623E+3   1.42076E+4
   9.28421E+3  -1.09872E+4
  -1.34969E+4  -8.92168E+3
  -2.75067E+3   9.75735E+3
   1.30309E+4   5.08033E+1
  -9.45371E+2  -8.61784E+3
  -4.10422E+3   3.57126E+3
   5.14910E+3   3.33664E+3
  -7.39697E+2  -4.12756E+3
  -3.20928E+3   5.83682E+2
   3.19835E+3   2.68532E+3
  -8.69667E+2  -1.85262E+3
  -3.99998E+3  -3.25151E+2
   2.28239E+3   1.36340E+3
   1.48352E+3   8.34398E+1
  -2.80593E+3   3.81028E+2
  -1.34707E+3   4.94511E+2
   3.23666E+2   3.38271E+1
  -4.50029E+2  -2.15497E+2
   3.03159E+2  -4.68213E+2
   4.41231E+2   2.62104E+2
  -5.72819E+2  -5.08110E+0
  -2.68953E+2  -7.16232E+2
   1.79375E+3   7.62135E+2
   7.86679E+2   1.42159E+3
  -1.16700E+3  -2.68524E+2
  -2.32990E+2  -6.96195E+2
   1.23480E+3   1.58226E+2
  -2.86298E+2   8.21601E+2
  -9.35845E+2   5.39616E+2
   2.44043E+2  -1.02748E+3
  -5.71978E+2  -1.41324E+3
  -5.67681E+1  -1.51143E+2
   1.80869E+3   1.56433E+2
   6.68774E+1  -3.18479E+1
  -1.34075E+3   5.36775E+2
   3.46680E+2  -5.26738E+2
   4.88339E+2  -1.03486E+3
  -9.67292E+2   3.12139E+2
   2.78612E+2  -1.39884E+2
   9.42889E+2  -9.43082E+2
   1.81416E+2   2.43787E+2
   2.93124E+2   5.75772E+2
  -2.39245E+1   2.91488E+2
  -8.26143E+2   8.39172E+2
  -7.38479E+2  -1.96269E+2
  -1.10388E+2  -1.05138E+3
  -3.24509E+2  -5.79125E+2
   2.13248E+2  -1.34257E+2
   3.71230E+2  -2.97409E+2
  -4.00566E+0   3.26985E+1
   5.74058E+1   3.51177E+2
   2.29973E+2   2.87394E+2
  -2.26253E+2  -1.11026E+2
  -2.92935E+2   6.48183E+1
   2.10363E+2  -1.73879E+2
   5.78628E+2  -3.10062E+2
   2.87485E+2   1.76550E+2
   1.83314E+1   7.45657E+2
  -3.53609E+1   5.09897E+2
  -4.17420E+2   5.31617E+2
  -6.33006E+2   1.73869E+2
  -4.99621E+2  -3.67873E+2
  -5.59332E+2  -7.39607E+2
   4.00792E+2  -8.19304E+2
   9.62484E+2  -5.72066E+2
   7.92736E+2   4.59030E+2
   5.31800E+1   6.91858E+2
  -2.04426E+2  -1.43296E+2
   4.77506E+2  -6.09003E+2
   6.47504E+2   4.49790E+2
  -2.03181E+2   1.08589E+3
  -4.37514E+2   2.41337E+2
  -1.88708E+2  -7.24472E+1
   3.26307E+2   2.94542E+2
  -1.50002E+2  -3.18775E+1
  -4.72773E+2  -8.56365E+1
  -1.43809E+2  -2.24686E+2
  -9.92871E+1  -3.71174E+2
  -1.70879E+2  -2.33175E+2
  -1.63735E+2  -1.03951E+2
  -4.86048E+1  -1.68198E+1
   8.83230E+0   1.04084E+2
   7.87382E+1   2.19441E+2
   3.09444E+2   8.59029E+1
   2.23629E+2  -7.08007E+1
  -1.46912E+2   2.18279E+1
   2.82439E+2  -3.29942E+1
   1.02522E+2   2.14235E+2
   1.96217E+2   2.25964E+2
  -2.52808E+2   4.50874E+2
  -8.01272E+2   1.31167E+2
  -2.40896E+2  -4.89497E+2
   1.12245E+2  -5.60265E+2
  -1.15288E+2   1.35771E+2
   1.00030E+2   1.83304E+2
   3.02794E+1  -2.21327E+2
   4.59549E+2  -3.69538E+2
  -3.16894E+1   2.79144E+2
  -3.13717E+1   3.79680E+2
  -5.43539E+2   1.57510E+2
  -1.93841E+2  -6.56465E+2
   2.70617E+2  -2.96133E+2
   1.30342E+2   1.24299E+1
   6.62667E+1   2.12134E+2
  -4.31959E+2   2.09873E+2
  -1.72137E+2  -2.94307E+2
   3.25139E+2  -3.82635E+2
   1.58781E+2  -1.24326E+2
   1.04357E+2   3.23067E+2
   3.94742E+1   2.94659E+2
   1.34692E-1   5.96121E+1
   4.83534E+1   1.87920E+1
   2.58958E+2   2.18995E+2
  -2.49970E+2   1.41257E+2
  -3.32883E+2   1.39137E+2
  -3.69374E+1  -3.46006E+2
   4.12712E+2   7.83128E+1
   3.21273E+2  -3.67911E+1
   1.24424E+2   6.33008E+1
   2.28986E+2   7.95383E+1
   3.11438E+2   1.58948E+2
  -3.07847E+2   6.75694E+1
  -2.01498E+2  -1.46973E+2
   1.67265E+2  -5.46987E+1
  -4.62561E+1  -3.75450E+0
   3.54752E+2  -7.64535E+1
   1.15913E+2   9.72372E+1
  -8.23849E+0   3.94664E+2
  -2.24053E+2   3.60985E+1
  -6.72780E+1  -3.92758E+2
  -9.59564E+1  -1.61992E+2
   2.05624E+2   1.29873E+2
  -7.56257E+0   1.56271E+2
  -1.91539E+2  -3.67526E+0
   3.82124E+2  -3.31251E+2
   1.81646E+2  -7.56638E+1
  -8.48787E+1   8.15203E+1
  -3.57880E+2  -8.85489E+1
  -3.38594E+1  -9.41432E+1
   3.15044E+2  -2.15524E+2
  -9.71598E+1   2.29394E+2
  -1.20791E+1   2.11008E+2
  -2.88732E+2  -5.46496E+1
  -3.66183E+2  -5.29609E+1
  -6.78241E+1   6.44743E+1
  -3.34651E+1  -1.39126E+2
   6.56130E+1  -2.81749E+2
  -2.39599E+2  -1.68084E+2
   1.01137E+2  -1.55614E+2
   1.68300E+2  -1.02753E+2
   7.94753E+1   1.89232E+2
  -1.11852E+2   1.96910E+2
  -2.17193E+2  -2.77327E+1
  -2.24567E+2   3.30157E+1
  -8.31281E+1  -1.23715E+1
  -5.37050E+1   2.07587E+2
  -1.79904E+2  -1.28782E+2
  -2.53327E+2   1.57144E+2
   2.93153E+1   8.46171E+1
  -1.46825E+2  -1.00912E+2
  -2.16669E+2   2.01035E+1
  -1.84982E+2  -1.92375E+2
   1.72187E+2  -1.61972E+2
   1.14347E+2   3.00714E+2
   1.39728E+2   3.50136E+1
  -2.21366E+1  -5.51533E+0
  -3.89475E+1  -1.95036E+2
  -2.18614E+1  -4.98418E+1
   5.54122E+1  -2.71328E+1
  -1.02611E+2   1.56494E+2
  -1.12887E+2  -2.33657E+1
  -2.28620E+1   1.36742E+1
  -2.00226E+2   3.02603E+2
  -2.77898E+1   2.45469E+2
  -1.14668E+2  -7.15944E+1
  -3.32499E+2  -1.78614E+2
  -1.56228E+2   1.27621E+2
   5.23348E+1   1.03908E+2
   9.17359E+1   2.15292E+2
  -2.58371E+2   1.95329E+2
   2.36862E+1  -1.31755E+2
   2.40650E+1  -2.34841E+2
   8.50652E+1   9.05392E+1
  -1.42743E+2  -2.45137E+1
  -1.60161E+2   1.56058E+1
   1.73518E+1   9.88868E+0
   1.22622E+2   2.68663E+2
  -2.66329E+2   1.83952E+2
   5.77243E+0   1.97018E+2
  -1.89169E+2   5.83077E+1
   3.90600E+1   1.36948E+1
  -9.48919E+1   1.87777E+2
  -6.11916E+1  -2.36842E+1
  -5.15320E+1  -2.34613E+2
  -1.67800E+2   1.01090E+2
   1.80726E+2  -7.33626E+0
   1.90161E+2   3.84946E+1
  -6.03390E+1   3.35658E+1
   1.15183E+2  -7.47651E+1
   7.44968E+1   2.03422E+2
  -2.10846E+1  -4.23564E+1
   1.60355E+2   1.08805E+2
  -1.53500E+1   1.72728E+2
  -1.15345E+2   3.96284E+1
   1.99069E+2   1.06963E+2
  -1.86317E+2  -8.02168E+1
  -1.04548E+2   6.22175E+1
  -9.40556E+1   1.34201E+1
  -2.50333E+1  -1.36600E+2
   1.58152E+2   6.07560E+1
   4.21986E+1   2.64011E+2
  -1.71296E+2  -6.29837E+1
  -5.72056E+1  -4.45379E+2
   2.67844E+1  -3.46424E+2
   4.42570E+1  -6.56681E+1
  -8.40294E+1  -1.19207E+2
  -8.45099E+0   6.87796E+0
   1.58475E+2  -9.56041E+1
  -1.21556E+2  -1.25309E+2
  -1.72863E+2   1.53858E+2
   5.17207E+1  -9.77994E+0
  -1.65713E+2   1.14094E+2
   9.55291E+1  -2.16635E+2
   2.61749E+2  -2.21571E+2
   1.01453E+2  -3.38075E+1
  -9.32966E+1   3.95328E+0
  -4.74591E+2  -6.19021E+1
  -1.51217E+2  -1.67966E+2
  -5.81865E+1  -2.07927E+2
  -1.54773E+2   3.15597E+2
  -1.53074E+2   1.73480E+2
   1.61931E+1  -1.17619E+2
   2.39822E+1   2.41508E+1
  -7.61793E+0   1.25948E+2
  -1.82583E+2   1.46175E+2
   9.41607E+1  -1.25019E+2
   7.97472E+1  -2.22066E+2
   4.84723E+1   1.34567E+2
  -1.27381E+1   6.47946E+1
  -5.60641E+1  -1.95069E+2
  -4.46365E+1  -4.00644E+0
  -1.65159E+2   6.59988E+1
   2.86330E+1  -1.59512E+2
   4.93100E+1  -1.40566E+1
   2.09092E+2  -9.45604E+1
  -5.41560E+1  -2.49239E+1
   4.71269E+1   5.47742E+1
   3.10113E+1   8.80001E+1
   1.63451E+2   7.20104E+1
   3.28027E+1   4.36179E+1
  -2.11226E+2   5.54045E+1
   1.84624E+2   8.85582E+1
   1.28512E+1  -5.27517E+1
   3.60781E+1   5.78035E+1
  -7.39200E+1  -3.70364E+0
  -4.19700E+1   1.55593E+2
  -1.89488E+2  -1.60535E+2
  -2.54488E+2   6.27756E+1
   1.19217E+1  -2.02295E+2
   6.45196E+1  -9.90625E+1
  -8.15667E+1  -1.79140E+2
   1.45697E+2   3.32118E+1
  -1.20289E+2  -5.69885E+1
   2.66964E+2   1.70195E+2
  -6.76763E+1  -4.99082E+1
   5.71840E+1  -2.30671E+2
   2.37506E+2   6.16138E+1
  -7.32132E+0   1.05148E+2
   5.80674E+1   1.60767E+2
  -4.44260E+1   7.10932E+1
   7.15197E+1  -3.11597E+1
  -1.57895E+2   7.29087E+1
  -7.37034E+1  -9.87663E+1
   4.74418E+1   3.11588E+1
   1.14515E+2  -1.24403E+2
   5.25757E+1   5.69043E+1
  -2.78324E+1   1.18103E+1
  -7.55945E+0  -1.50259E+2
   2.62249E+1  -9.31901E+1
   2.31024E+2   1.09684E+2
  -1.66878E+2   1.59539E+1
  -3.85770E+1  -1.96652E+1
  -4.53896E+1  -4.77460E+1
   3.01969E+2   3.10599E+1
   2.47595E+2  -1.63921E+2
   3.62976E+2  -1.23657E+0
   9.35110E+1   2.60799E+2
  -4.06134E+1  -8.39582E+1
  -8.00676E+0  -2.50313E+1
  -5.84142E+1  -3.04962E+2
   1.91131E+2   5.68493E+1
  -8.96738E+0   1.75595E+2
  -3.04137E+0   1.77386E+2
   9.64759E+1   1.43923E+2
   2.10023E+2  -1.63826E+1
   4.76323E+1   4.25116E+1
  -1.56903E+1  -1.75214E+2
   2.21644E+1   3.94680E+1
   8.77484E+1  -6.42622E+1
  -1.01759E+1  -8.26339E+1
  -6.10250E+1   2.33830E+1
  -6.23226E+1   1.08828E+2
   4.27431E+1  -1.04982E+2
   3.92170E+1  -2.66200E+2
   1.40177E+2  -2.13347E+2
  -1.18027E+2  -9.46990E-1
  -2.45285E+2  -1.64094E+2
   1.61189E+2  -3.04924E+1
  -3.28424E+1  -2.48239E+2
   1.00734E+2  -3.58561E+1
   5.28867E+1  -9.35337E+1
  -8.71845E+1   1.60200E+2
  -5.41462E+1   1.03701E+2
  -2.12574E+1  -5.05733E+1
  -1.63051E+2   2.75954E+2
   5.24290E+0  -1.48400E+2
   2.25527E+2  -5.79618E+1
   4.64155E+1  -4.63357E+1
   1.14696E+2  -6.61369E+1
   1.35903E+2  -1.66224E+0
   6.94129E+1  -1.04950E+2
   1.22280E+2  -1.63448E+2
   1.97935E+0  -2.64761E+2
   1.95605E+2   3.84849E+2
  -1.62711E+2  -3.45125E+2
   2.36381E+1  -1.19564E+2
   6.93755E+1  -9.87502E+1
  -6.56368E+1   9.34610E+1
   1.47256E+2   1.94446E+0
   4.14344E+1   1.52315E+2
   1.47467E+2  -1.41225E+2
   1.71328E+2   2.09527E+2
   1.10876E+2  -1.42995E+2
  -1.67760E+2   4.98229E+1
  -4.03739E+1   1.27245E+2
   1.57070E+2  -1.77608E+2
  -7.62930E+1   5.43437E+1
   1.70294E+2   1.00690E+2
   1.81561E+2   4.28273E+1
   2.07734E+2   1.47992E+2
   1.12970E+2  -1.06831E+2
   4.36455E+1   5.36301E+1
   3.11540E+2  -1.22423E+2
   6.38838E+1   1.53729E+2
   1.17773E+2   7.65917E+1
  -1.37734E+2   1.54114E+2
  -7.55234E+1  -1.77248E+1
   8.95197E+1   5.01474E+1
   5.51419E+1  -7.17124E+1
   2.25733E+0   2.68058E+2
  -2.71831E+1   1.26706E+2
  -2.01505E+1  -1.63733E+1
   4.08587E+1   1.33110E+2
   9.49682E-1  -7.02388E+1
   6.57925E+1   5.12877E+1
   1.56302E+2  -1.48386E+1
  -5.26955E+1  -1.84253E+1
   1.48873E+2  -3.42729E+1
  -4.28679E+1  -8.00504E+1
   6.26127E+1  -1.66757E+2
   3.81425E+2  -2.75592E+1
   1.73007E+2  -2.12590E+1
   1.76101E+1  -2.63090E+0
  -2.95431E+2  -5.48649E+1
