 
 $NMID
 ID=''
 FMTDAT='(2E13.5)'
 TRAMP=   1.00000E+0
 VOLUME=   1.00000E+0
 $END
   3.85788E+5   5.39748E+5
   5.05974E+5   1.70687E+6
   7.21236E+5   1.58382E+6
   5.66809E+5   1.48230E+6
   4.62758E+5   1.57168E+6
   4.39704E+5   1.57271E+6
   3.84291E+5   1.57102E+6
   3.88109E+5   1.60342E+6
   3.83708E+5   1.54076E+6
   2.93064E+5   1.51804E+6
   2.52857E+5   1.56282E+6
   2.53025E+5   1.55006E+6
   2.22308E+5   1.52811E+6
   2.06382E+5   1.52199E+6
   1.78754E+5   1.49115E+6
   1.31143E+5   1.48429E+6
   1.13870E+5   1.50059E+6
   9.19282E+4   1.47801E+6
   4.16419E+4   1.45919E+6
   8.67961E+3   1.45472E+6
  -2.49309E+4   1.43372E+6
  -6.41811E+4   1.42354E+6
  -8.55121E+4   1.41720E+6
  -1.13967E+5   1.39395E+6
  -1.50736E+5   1.37641E+6
  -1.62349E+5   1.36611E+6
  -1.80440E+5   1.34718E+6
  -2.06019E+5   1.33237E+6
  -2.21271E+5   1.31614E+6
  -2.36744E+5   1.29799E+6
  -2.64418E+5   1.28469E+6
  -2.85423E+5   1.26416E+6
  -3.09904E+5   1.23900E+6
  -3.37277E+5   1.22440E+6
  -3.59449E+5   1.20785E+6
  -3.81344E+5   1.18473E+6
  -4.06354E+5   1.16563E+6
  -4.30300E+5   1.14426E+6
  -4.52929E+5   1.12113E+6
  -4.69880E+5   1.10487E+6
  -4.81990E+5   1.08640E+6
  -4.96629E+5   1.06356E+6
  -5.10116E+5   1.04257E+6
  -5.22482E+5   1.02529E+6
  -5.36047E+5   1.00734E+6
  -5.48773E+5   9.90514E+5
  -5.62377E+5   9.68554E+5
  -5.78379E+5   9.44045E+5
  -5.94215E+5   9.20747E+5
  -6.08869E+5   8.99683E+5
  -6.23040E+5   8.78267E+5
  -6.36905E+5   8.55801E+5
  -6.50337E+5   8.33106E+5
  -6.64532E+5   8.11194E+5
  -6.76195E+5   7.89240E+5
  -6.85996E+5   7.67881E+5
  -6.95827E+5   7.46141E+5
  -7.03367E+5   7.24877E+5
  -7.09824E+5   7.04669E+5
  -7.18157E+5   6.85463E+5
  -7.26306E+5   6.65449E+5
  -7.33276E+5   6.45001E+5
  -7.40436E+5   6.24165E+5
  -7.47962E+5   6.01534E+5
  -7.54361E+5   5.78271E+5
  -7.59147E+5   5.56426E+5
  -7.63071E+5   5.35356E+5
  -7.67483E+5   5.14239E+5
  -7.72519E+5   4.93352E+5
  -7.76672E+5   4.72713E+5
  -7.79671E+5   4.52006E+5
  -7.80636E+5   4.31990E+5
  -7.82087E+5   4.13535E+5
  -7.84195E+5   3.93875E+5
  -7.85611E+5   3.73208E+5
  -7.85491E+5   3.53539E+5
  -7.85857E+5   3.34760E+5
  -7.86088E+5   3.14830E+5
  -7.85244E+5   2.93756E+5
  -7.84720E+5   2.72903E+5
  -7.83760E+5   2.53109E+5
  -7.81499E+5   2.34147E+5
  -7.79206E+5   2.14870E+5
  -7.76605E+5   1.95482E+5
  -7.73500E+5   1.75672E+5
  -7.70017E+5   1.58247E+5
  -7.66191E+5   1.41590E+5
  -7.61595E+5   1.24734E+5
  -7.56335E+5   1.07869E+5
  -7.51096E+5   9.16728E+4
  -7.46236E+5   7.64245E+4
  -7.41213E+5   6.08080E+4
  -7.35288E+5   4.44615E+4
  -7.28576E+5   2.81925E+4
  -7.21331E+5   1.24315E+4
  -7.14572E+5  -2.81090E+3
  -7.08414E+5  -1.74254E+4
  -7.01321E+5  -3.22596E+4
  -6.93387E+5  -4.71602E+4
  -6.85032E+5  -6.10582E+4
  -6.77809E+5  -7.42646E+4
  -6.70317E+5  -8.78118E+4
  -6.61233E+5  -1.00617E+5
  -6.51714E+5  -1.12407E+5
  -6.42504E+5  -1.23284E+5
  -6.34548E+5  -1.34226E+5
  -6.26276E+5  -1.45852E+5
  -6.16972E+5  -1.57103E+5
  -6.06389E+5  -1.67324E+5
  -5.96479E+5  -1.76274E+5
  -5.87645E+5  -1.86169E+5
  -5.78367E+5  -1.97079E+5
  -5.68311E+5  -2.07212E+5
  -5.58028E+5  -2.16559E+5
  -5.47725E+5  -2.25598E+5
  -5.37514E+5  -2.35282E+5
  -5.27008E+5  -2.44415E+5
  -5.15887E+5  -2.52667E+5
  -5.05096E+5  -2.59570E+5
  -4.95105E+5  -2.66312E+5
  -4.84931E+5  -2.73652E+5
  -4.74796E+5  -2.80804E+5
  -4.64125E+5  -2.88265E+5
  -4.53784E+5  -2.94895E+5
  -4.42607E+5  -3.01290E+5
  -4.31621E+5  -3.07272E+5
  -4.20228E+5  -3.12756E+5
  -4.09639E+5  -3.18487E+5
  -3.98933E+5  -3.23885E+5
  -3.88290E+5  -3.29571E+5
  -3.76894E+5  -3.34873E+5
  -3.65119E+5  -3.40055E+5
  -3.53873E+5  -3.44259E+5
  -3.43262E+5  -3.48485E+5
  -3.32200E+5  -3.52795E+5
  -3.21105E+5  -3.56430E+5
  -3.09721E+5  -3.59915E+5
  -2.99472E+5  -3.63173E+5
  -2.88516E+5  -3.66855E+5
  -2.77104E+5  -3.70110E+5
  -2.66191E+5  -3.72366E+5
  -2.55331E+5  -3.74192E+5
  -2.45146E+5  -3.76085E+5
  -2.34859E+5  -3.78211E+5
  -2.24526E+5  -3.80384E+5
  -2.13689E+5  -3.81583E+5
  -2.03313E+5  -3.82359E+5
  -1.93287E+5  -3.83144E+5
  -1.83460E+5  -3.83531E+5
  -1.74144E+5  -3.83744E+5
  -1.64573E+5  -3.83612E+5
  -1.55177E+5  -3.83483E+5
  -1.46534E+5  -3.83549E+5
  -1.37478E+5  -3.83042E+5
  -1.28253E+5  -3.82730E+5
  -1.19556E+5  -3.81372E+5
  -1.11204E+5  -3.80608E+5
  -1.02956E+5  -3.79431E+5
  -9.47030E+4  -3.78406E+5
  -8.66551E+4  -3.76497E+5
  -7.87640E+4  -3.75051E+5
  -7.09871E+4  -3.73312E+5
  -6.31991E+4  -3.71478E+5
  -5.57178E+4  -3.68893E+5
  -4.85831E+4  -3.66399E+5
  -4.22194E+4  -3.64014E+5
  -3.53283E+4  -3.61795E+5
  -2.83898E+4  -3.59629E+5
  -2.16166E+4  -3.56646E+5
  -1.56398E+4  -3.53913E+5
  -9.49783E+3  -3.50941E+5
  -3.61120E+3  -3.48015E+5
   2.57111E+3  -3.45015E+5
   8.28208E+3  -3.41701E+5
   1.36501E+4  -3.38509E+5
   1.93276E+4  -3.35306E+5
   2.50638E+4  -3.32223E+5
   3.11320E+4  -3.28258E+5
   3.58892E+4  -3.24330E+5
   4.07992E+4  -3.20953E+5
   4.56928E+4  -3.17361E+5
   5.11112E+4  -3.14117E+5
   5.59655E+4  -3.09989E+5
   6.06514E+4  -3.05940E+5
   6.53514E+4  -3.02276E+5
   6.96939E+4  -2.98072E+5
   7.39630E+4  -2.93934E+5
   7.77803E+4  -2.89685E+5
   8.14251E+4  -2.85672E+5
   8.51262E+4  -2.82137E+5
   8.96578E+4  -2.78217E+5
   9.36297E+4  -2.73800E+5
   9.75675E+4  -2.69059E+5
   1.01314E+5  -2.64555E+5
   1.04686E+5  -2.60062E+5
   1.08133E+5  -2.55898E+5
   1.11826E+5  -2.51492E+5
   1.14833E+5  -2.47020E+5
   1.18284E+5  -2.42608E+5
   1.21861E+5  -2.37835E+5
   1.24828E+5  -2.32986E+5
   1.27786E+5  -2.28243E+5
   1.29977E+5  -2.23302E+5
   1.32650E+5  -2.18955E+5
   1.35473E+5  -2.14253E+5
   1.38205E+5  -2.09620E+5
   1.40573E+5  -2.04465E+5
   1.42411E+5  -1.99761E+5
   1.44630E+5  -1.95377E+5
   1.46920E+5  -1.90119E+5
   1.48921E+5  -1.85238E+5
   1.50629E+5  -1.80501E+5
   1.51992E+5  -1.76128E+5
   1.54006E+5  -1.71493E+5
   1.55858E+5  -1.66577E+5
   1.57244E+5  -1.61652E+5
   1.58157E+5  -1.57095E+5
   1.58948E+5  -1.52288E+5
   1.59810E+5  -1.48020E+5
   1.60771E+5  -1.43509E+5
   1.61504E+5  -1.39073E+5
   1.61957E+5  -1.34656E+5
   1.62709E+5  -1.30283E+5
   1.63210E+5  -1.25801E+5
   1.63609E+5  -1.21421E+5
   1.63440E+5  -1.16863E+5
   1.63085E+5  -1.13096E+5
   1.63480E+5  -1.09244E+5
   1.63665E+5  -1.04882E+5
   1.63518E+5  -1.00689E+5
   1.63271E+5  -9.65982E+4
   1.62640E+5  -9.28536E+4
   1.62083E+5  -8.89921E+4
   1.61553E+5  -8.48764E+4
   1.60997E+5  -8.15944E+4
   1.60171E+5  -7.78639E+4
   1.59456E+5  -7.44230E+4
   1.58716E+5  -7.08066E+4
   1.57964E+5  -6.71599E+4
   1.56850E+5  -6.37068E+4
   1.56160E+5  -6.06805E+4
   1.55215E+5  -5.73701E+4
   1.53964E+5  -5.41296E+4
   1.52834E+5  -5.06352E+4
   1.51395E+5  -4.73480E+4
   1.50191E+5  -4.44701E+4
   1.49003E+5  -4.13605E+4
   1.47910E+5  -3.78671E+4
   1.46370E+5  -3.50733E+4
   1.44974E+5  -3.24609E+4
   1.43805E+5  -2.98025E+4
   1.42175E+5  -2.69160E+4
   1.41001E+5  -2.39631E+4
   1.39419E+5  -2.11980E+4
   1.37844E+5  -1.87078E+4
   1.36451E+5  -1.61260E+4
   1.34911E+5  -1.36544E+4
   1.33490E+5  -1.09157E+4
   1.31937E+5  -8.22209E+3
   1.30405E+5  -5.89704E+3
   1.29077E+5  -3.11328E+3
   1.27301E+5  -5.44905E+2
   1.25366E+5   1.76491E+3
   1.23587E+5   3.85665E+3
   1.22075E+5   5.94853E+3
   1.20474E+5   8.25242E+3
   1.19008E+5   1.05537E+4
   1.16977E+5   1.29888E+4
   1.15158E+5   1.45435E+4
   1.13302E+5   1.67609E+4
   1.11701E+5   1.83994E+4
   1.09727E+5   2.02963E+4
   1.08047E+5   2.22127E+4
   1.06295E+5   2.39079E+4
   1.04565E+5   2.58651E+4
   1.02813E+5   2.75913E+4
   1.01077E+5   2.92289E+4
   9.87651E+4   3.05599E+4
   9.72331E+4   3.21431E+4
   9.53451E+4   3.34446E+4
   9.37236E+4   3.49913E+4
   9.16424E+4   3.63218E+4
   8.98342E+4   3.75552E+4
   8.79916E+4   3.86695E+4
   8.62830E+4   4.00151E+4
   8.43225E+4   4.11129E+4
   8.24399E+4   4.18876E+4
   8.04883E+4   4.28507E+4
   7.88169E+4   4.38024E+4
   7.71983E+4   4.49361E+4
   7.50136E+4   4.56621E+4
   7.32899E+4   4.67125E+4
   7.15400E+4   4.71640E+4
   6.95707E+4   4.78164E+4
   6.78536E+4   4.84978E+4
   6.60427E+4   4.91233E+4
   6.41856E+4   4.96161E+4
   6.24181E+4   5.00625E+4
   6.07074E+4   5.08035E+4
   5.86833E+4   5.12172E+4
   5.69708E+4   5.16162E+4
   5.54308E+4   5.17974E+4
   5.34955E+4   5.20371E+4
   5.18461E+4   5.25329E+4
   5.00373E+4   5.27896E+4
   4.81804E+4   5.27645E+4
   4.63645E+4   5.30397E+4
   4.48157E+4   5.30457E+4
   4.33000E+4   5.31820E+4
   4.13174E+4   5.34907E+4
   3.96610E+4   5.34141E+4
   3.82118E+4   5.33398E+4
   3.65576E+4   5.33785E+4
   3.49366E+4   5.34636E+4
   3.32509E+4   5.33649E+4
   3.18957E+4   5.33630E+4
   3.01669E+4   5.32514E+4
   2.86834E+4   5.30489E+4
   2.70100E+4   5.27306E+4
   2.58197E+4   5.25222E+4
   2.43355E+4   5.22144E+4
   2.28487E+4   5.21148E+4
   2.13393E+4   5.14859E+4
   1.98007E+4   5.13242E+4
   1.85047E+4   5.11149E+4
   1.71887E+4   5.05723E+4
   1.58437E+4   5.03673E+4
   1.45170E+4   4.97792E+4
   1.36191E+4   4.94484E+4
   1.22565E+4   4.88536E+4
   1.10744E+4   4.81730E+4
   9.80478E+3   4.78921E+4
   8.56963E+3   4.73726E+4
   7.67310E+3   4.66467E+4
   6.43918E+3   4.62785E+4
   5.54349E+3   4.58537E+4
   4.25388E+3   4.50676E+4
   3.25274E+3   4.48285E+4
   2.35472E+3   4.38578E+4
   1.26555E+3   4.31374E+4
   5.28159E+2   4.25289E+4
  -6.19141E+2   4.17483E+4
  -1.39342E+3   4.12633E+4
  -2.06404E+3   4.06750E+4
  -3.02731E+3   3.99955E+4
  -3.88829E+3   3.93210E+4
  -4.74173E+3   3.85651E+4
  -5.33873E+3   3.77125E+4
  -5.90732E+3   3.68802E+4
  -6.69462E+3   3.61577E+4
  -7.32363E+3   3.57073E+4
  -8.08540E+3   3.44540E+4
  -8.49959E+3   3.37822E+4
  -9.27657E+3   3.31597E+4
  -9.48282E+3   3.24930E+4
  -1.02706E+4   3.13910E+4
  -1.06398E+4   3.07016E+4
  -1.10463E+4   2.98313E+4
  -1.14243E+4   2.90723E+4
  -1.19963E+4   2.83530E+4
  -1.24324E+4   2.74182E+4
  -1.26654E+4   2.67927E+4
  -1.28289E+4   2.60605E+4
  -1.34416E+4   2.51760E+4
  -1.35111E+4   2.45525E+4
  -1.37633E+4   2.35071E+4
  -1.42932E+4   2.27477E+4
