 LCModel (Version 6.3-1N) Copyright: S.W. Provencher.          Ref.: Magn. Reson. Med. 30:672-679 (1993).                
 Slice_N1@15_13  28-Feb-2025 11:40:51
 27 lines in following concentration table = NCONC+1
    Conc.  %SD /Cr+PCr  Metabolite                                         
 3.04E-04   4% 2.9E-04 Mac                                                 
    3.373  26%   3.217 Cr                                                  
    5.016  17%   4.783 PCr                                                 
    7.145  11%   6.813 Ins                                                 
    9.780   7%   9.326 NAA                                                 
    6.833  11%   6.516 Tau                                                 
    0.148 542%   0.142 PCho                                                
    1.799  42%   1.716 GPC                                                 
    9.192  10%   8.765 Glu                                                 
    4.058  18%   3.870 Gln                                                 
    3.305  19%   3.152 Ala                                                 
    2.246  48%   2.142 Asc                                                 
    1.909  52%   1.821 Asp                                                 
 2.09E-02 999% 2.0E-02 GABA                                                
    0.790  91%   0.753 Glc                                                 
    1.141  39%   1.088 GSH                                                 
    0.000 999%   0.000 Lac                                                 
    1.893  25%   1.805 NAAG                                                
    0.377 266%   0.360 PE                                                  
    1.948  14%   1.857 GPC+PCho                                            
   11.672   6%  11.131 NAA+NAAG                                            
   13.251   9%  12.636 Glu+Gln                                             
    8.389   8%   8.000 Cr+PCr                                              
   11.672   6%  11.131 NAA+NAAG                                            
    8.389   8%   8.000 Cr+PCr                                              
   13.251   9%  12.636 Glu+Gln                                             
   6 lines in following misc. output table
  FWHM = 0.024 ppm    S/N =   4                                            
  Data shift = 0.024 ppm                                                   
  Ph:-154 deg       0.0 deg/ppm                                            
  alphaB,S = 2.0E-01,   4.0E-01                                            
   19 spline knots.   Ns = 5(1)                                            
   2 inflections.     2 extrema                                            
  480 points on ppm-axis = NY
      4.100000     4.091866     4.083733     4.075600     4.067466     4.059333     4.051199     4.043066     4.034933     4.026799
      4.018666     4.010532     4.002399     3.994265     3.986132     3.977998     3.969864     3.961731     3.953597     3.945463
      3.937330     3.929196     3.921062     3.912929     3.904795     3.896662     3.888528     3.880394     3.872261     3.864127
      3.855993     3.847860     3.839726     3.831592     3.823459     3.815325     3.807191     3.799058     3.790924     3.782790
      3.774657     3.766523     3.758389     3.750256     3.742122     3.733989     3.725855     3.717721     3.709588     3.701454
      3.693320     3.685187     3.677053     3.668919     3.660786     3.652652     3.644518     3.636385     3.628251     3.620117
      3.611984     3.603850     3.595716     3.587583     3.579449     3.571316     3.563182     3.555048     3.546915     3.538781
      3.530647     3.522514     3.514380     3.506246     3.498113     3.489979     3.481845     3.473712     3.465578     3.457444
      3.449311     3.441177     3.433043     3.424910     3.416776     3.408643     3.400509     3.392375     3.384242     3.376108
      3.367974     3.359841     3.351707     3.343573     3.335440     3.327306     3.319172     3.311039     3.302905     3.294771
      3.286638     3.278504     3.270370     3.262237     3.254103     3.245970     3.237836     3.229702     3.221569     3.213435
      3.205301     3.197168     3.189034     3.180900     3.172767     3.164633     3.156499     3.148366     3.140232     3.132098
      3.123965     3.115831     3.107697     3.099564     3.091430     3.083297     3.075163     3.067029     3.058896     3.050762
      3.042628     3.034495     3.026361     3.018227     3.010094     3.001960     2.993826     2.985693     2.977559     2.969425
      2.961292     2.953158     2.945024     2.936891     2.928757     2.920624     2.912490     2.904356     2.896223     2.888089
      2.879955     2.871822     2.863688     2.855554     2.847421     2.839287     2.831153     2.823020     2.814886     2.806752
      2.798619     2.790485     2.782351     2.774218     2.766084     2.757951     2.749817     2.741683     2.733550     2.725416
      2.717282     2.709149     2.701015     2.692881     2.684748     2.676614     2.668480     2.660347     2.652213     2.644079
      2.635946     2.627812     2.619678     2.611545     2.603411     2.595278     2.587144     2.579010     2.570877     2.562743
      2.554609     2.546476     2.538342     2.530208     2.522075     2.513941     2.505807     2.497674     2.489540     2.481406
      2.473273     2.465139     2.457006     2.448872     2.440738     2.432605     2.424471     2.416337     2.408204     2.400070
      2.391936     2.383803     2.375669     2.367535     2.359402     2.351268     2.343134     2.335001     2.326867     2.318733
      2.310600     2.302466     2.294333     2.286199     2.278065     2.269932     2.261798     2.253664     2.245531     2.237397
      2.229263     2.221130     2.212996     2.204862     2.196729     2.188595     2.180461     2.172328     2.164194     2.156060
      2.147927     2.139793     2.131660     2.123526     2.115392     2.107259     2.099125     2.090991     2.082858     2.074724
      2.066590     2.058457     2.050323     2.042189     2.034056     2.025922     2.017788     2.009655     2.001521     1.993387
      1.985254     1.977120     1.968987     1.960853     1.952719     1.944586     1.936452     1.928318     1.920185     1.912051
      1.903917     1.895784     1.887650     1.879516     1.871383     1.863249     1.855115     1.846982     1.838848     1.830714
      1.822581     1.814447     1.806314     1.798180     1.790046     1.781913     1.773779     1.765645     1.757512     1.749378
      1.741244     1.733111     1.724977     1.716843     1.708710     1.700576     1.692442     1.684309     1.676175     1.668041
      1.659908     1.651774     1.643641     1.635507     1.627373     1.619240     1.611106     1.602972     1.594839     1.586705
      1.578571     1.570438     1.562304     1.554170     1.546037     1.537903     1.529769     1.521636     1.513502     1.505368
      1.497235     1.489101     1.480968     1.472834     1.464700     1.456567     1.448433     1.440299     1.432166     1.424032
      1.415898     1.407765     1.399631     1.391497     1.383364     1.375230     1.367096     1.358963     1.350829     1.342695
      1.334562     1.326428     1.318295     1.310161     1.302027     1.293894     1.285760     1.277626     1.269493     1.261359
      1.253225     1.245092     1.236958     1.228824     1.220691     1.212557     1.204423     1.196290     1.188156     1.180022
      1.171889     1.163755     1.155622     1.147488     1.139354     1.131221     1.123087     1.114953     1.106820     1.098686
      1.090552     1.082419     1.074285     1.066151     1.058018     1.049884     1.041750     1.033617     1.025483     1.017349
      1.009216     1.001082     0.992949     0.984815     0.976681     0.968548     0.960414     0.952280     0.944147     0.936013
      0.927879     0.919746     0.911612     0.903478     0.895345     0.887211     0.879077     0.870944     0.862810     0.854676
      0.846543     0.838409     0.830276     0.822142     0.814008     0.805875     0.797741     0.789607     0.781474     0.773340
      0.765206     0.757073     0.748939     0.740805     0.732672     0.724538     0.716404     0.708271     0.700137     0.692003
      0.683870     0.675736     0.667603     0.659469     0.651335     0.643202     0.635068     0.626934     0.618801     0.610667
      0.602533     0.594400     0.586266     0.578132     0.569999     0.561865     0.553731     0.545598     0.537464     0.529330
      0.521197     0.513063     0.504930     0.496796     0.488662     0.480529     0.472395     0.464261     0.456128     0.447994
      0.439861     0.431727     0.423593     0.415460     0.407326     0.399192     0.391059     0.382925     0.374792     0.366658
      0.358524     0.350391     0.342257     0.334124     0.325990     0.317856     0.309723     0.301589     0.293455     0.285322
      0.277188     0.269055     0.260921     0.252787     0.244654     0.236520     0.228386     0.220253     0.212119     0.203986
 NY phased data points follow
  -1.20566E+02 -1.15236E+02 -1.20610E+02 -1.17086E+02 -1.26899E+02 -1.04930E+02 -1.02608E+02 -1.12354E+02 -1.00733E+02 -1.20564E+02
  -1.40191E+02 -1.38561E+02 -1.28215E+02 -1.33632E+02 -1.33428E+02 -1.41768E+02 -1.44195E+02 -1.52944E+02 -1.64159E+02 -2.00968E+02
  -2.13481E+02 -1.53146E+02 -1.57936E+02 -1.28799E+02 -7.97754E+01 -7.91984E+01 -7.92157E+01 -8.41596E+01 -7.24194E+01 -7.71507E+01
  -7.82323E+01 -7.78822E+01 -7.56980E+01 -7.13651E+01 -7.55190E+01 -7.82036E+01 -8.18248E+01 -7.16748E+01 -8.29009E+01 -1.21163E+02
  -1.21399E+02 -1.20932E+02 -1.37841E+02 -1.19379E+02 -1.07988E+02 -8.42803E+01 -5.49751E+01 -4.42802E+01 -4.07141E+01 -4.63230E+01
  -4.92726E+01 -4.13428E+01 -3.42895E+01 -5.96105E+01 -7.37099E+01 -8.98372E+01 -8.42991E+01 -7.11780E+01 -9.64406E+01 -9.62380E+01
  -7.61690E+01 -7.56471E+01 -8.30073E+01 -5.47244E+01 -3.14955E+01 -2.48361E+01 -3.50400E+01 -5.58193E+01 -8.93476E+01 -1.14669E+02
  -9.82915E+01 -9.27468E+01 -8.65467E+01 -8.00975E+01 -4.91027E+01 -3.50357E+01 -3.01993E+01 -1.94633E+01 -3.73687E+01 -2.47468E+01
  -1.76454E+01 -2.31036E+01 -5.30599E+01 -8.15984E+01 -8.41246E+01 -8.55593E+01 -7.16343E+01 -4.74942E+01 -3.66121E+01 -3.41200E+01
  -1.69384E+01 -1.79195E+01 -8.85120E+00  9.33722E-01  3.67940E+00  8.51923E+00  5.40529E+00  7.53473E+00 -9.45490E-01  5.65457E+00
   7.60221E+00 -9.50592E+00 -2.46224E+01 -4.00972E+01 -5.18329E+01 -6.37624E+01 -7.80882E+01 -6.77622E+01 -9.17788E+01 -1.61317E+02
  -2.13600E+02 -2.21058E+02 -1.70211E+02 -1.56912E+02 -1.41092E+02 -1.05092E+02 -9.39360E+01 -9.23079E+01 -9.23078E+01 -6.68504E+01
  -6.12276E+01 -5.30877E+01 -5.85920E+01 -6.85624E+01 -5.90619E+01 -4.01651E+01 -2.72050E+01 -2.51535E+01  1.93161E+01  5.70741E+01
   1.00734E+02  7.62186E+01 -4.62405E+01 -1.21557E+02 -1.32884E+02 -1.25235E+02 -1.35293E+02 -1.34646E+02 -1.27183E+02 -1.23249E+02
  -1.19627E+02 -1.28749E+02 -1.25297E+02 -1.24635E+02 -1.16557E+02 -1.21775E+02 -1.25740E+02 -1.02941E+02 -1.21622E+02 -1.14019E+02
  -1.05303E+02 -1.17206E+02 -9.72131E+01 -1.07324E+02 -1.02058E+02 -9.50704E+01 -9.71063E+01 -9.21252E+01 -8.97640E+01 -8.19495E+01
  -8.43831E+01 -7.90249E+01 -7.96100E+01 -8.06932E+01 -8.68479E+01 -8.22472E+01 -8.82668E+01 -9.13354E+01 -7.32628E+01 -7.45645E+01
  -7.58114E+01 -6.52905E+01 -3.68500E+01 -3.70960E+01 -6.54599E+01 -8.30535E+01 -5.16139E+01 -3.90904E+01 -5.70720E+01 -6.23863E+01
  -8.79667E+01 -8.83858E+01 -1.03128E+02 -9.50773E+01 -9.59466E+01 -1.09865E+02 -8.97000E+01 -9.85979E+01 -8.93529E+01 -8.27681E+01
  -9.42939E+01 -9.81508E+01 -9.22819E+01 -7.97256E+01 -6.19264E+01 -7.05300E+01 -7.12849E+01 -6.95963E+01 -7.49608E+01 -5.02407E+01
  -6.43565E+01 -6.18456E+01 -5.74336E+01 -4.86745E+01 -4.58017E+01 -5.97739E+01 -5.56843E+01 -7.64426E+01 -7.47246E+01 -8.09739E+01
  -8.78055E+01 -1.12736E+02 -1.10009E+02 -7.50711E+01 -6.99971E+01 -2.91287E+01 -7.01094E+00 -1.94653E+00 -5.05479E+00 -1.87150E+01
  -3.52392E+01 -5.46811E+01 -5.73179E+01 -5.94553E+01 -6.11177E+01 -6.58527E+01 -6.71860E+01 -6.58483E+01 -6.31608E+01 -5.80999E+01
  -6.43788E+01 -8.03356E+01 -7.44283E+01 -8.83065E+01 -1.02157E+02 -1.02127E+02 -1.25374E+02 -1.14510E+02 -1.08175E+02 -1.19496E+02
  -1.18993E+02 -1.09865E+02 -1.00784E+02 -9.88011E+01 -9.41714E+01 -7.76038E+01 -6.01629E+01 -7.17132E+01 -8.36374E+01 -8.44543E+01
  -8.93555E+01 -9.55832E+01 -8.52566E+01 -9.48383E+01 -1.02744E+02 -1.52423E+02 -2.00152E+02 -4.16022E+01  8.17940E+01  7.12658E+01
   9.07668E+01  8.89017E+01  7.73555E+01  6.26497E+01  5.66744E+01  5.24414E+01  3.88476E+01  4.87545E+01  3.17331E+01  2.24891E+01
   3.79476E+01  3.30521E+01  2.72635E+01  2.33847E+01  3.03890E+01  2.19470E+01  2.78288E+01  2.78012E+01  8.32095E+00  3.26298E+01
   2.32783E+01  1.42051E+01  3.00502E+01  2.41150E+01  1.78042E+01  2.89404E+01  2.78153E+01  6.34852E+00  1.53273E+01  6.85286E+00
   6.18156E+00  1.42091E+01 -7.15089E+00 -4.74014E+00  3.84371E-02 -1.74276E+01 -2.36021E+01 -1.90647E+01 -2.16813E+01 -2.35141E+01
  -2.38421E+01 -8.23545E+00 -6.02899E+00 -1.78725E+01 -2.87447E+01 -2.07075E+01  2.62179E-01 -7.78594E+00 -8.60934E+00 -3.45515E+00
   8.91194E+00  5.42698E+00 -5.09953E+00 -2.62465E+00 -5.35730E+00 -4.94894E+00 -1.42121E+01 -2.80132E+01 -3.91180E+01 -2.56232E+01
  -3.48835E+01 -4.82302E+01 -3.66948E+01 -5.04098E+01 -7.09955E+01 -7.91226E+01 -7.76379E+01 -8.69038E+01 -7.19364E+01 -5.35359E+01
  -6.45419E+01 -6.07766E+01 -6.25522E+01 -8.53741E+01 -9.68137E+01 -1.10469E+02 -1.17574E+02 -1.04584E+02 -9.32528E+01 -7.21287E+01
  -6.79026E+01 -3.93800E+01 -1.73565E+01 -3.29018E+01 -2.14176E+01 -2.17021E+01 -2.69148E+01 -3.25403E+01 -2.67189E+01 -2.76065E+01
  -3.92419E+01 -2.66665E+01 -2.23201E+01 -2.24906E+01 -2.86140E+01 -3.19395E+01 -4.18222E+01 -5.52564E+01 -5.31274E+01 -4.61836E+01
  -3.59201E+01 -3.89897E+01 -4.69770E+01 -3.57650E+01 -3.49596E+01 -4.72692E+01 -3.21734E+01 -2.84211E+01 -2.50783E+01 -1.72203E+01
  -2.85846E+01 -2.16246E+01 -2.69281E+01 -2.27756E+01 -6.80643E+00 -4.18738E+00  7.23339E+00  1.46326E+01  3.42546E+01  2.93732E+01
   2.52568E+01  4.12633E+01  4.30288E+01  6.29707E+01  6.98422E+01  8.52788E+01  9.10718E+01  9.10072E+01  1.09920E+02  1.00061E+02
   1.00513E+02  8.98639E+01  6.76535E+01  4.65414E+01  3.73025E+01  4.11397E+01  3.20948E+01  2.84873E+01  1.23497E+01  8.73746E+00
  -4.41060E+00 -2.15103E+01 -1.23275E+01 -2.82035E+01 -3.83645E+01 -2.94644E+01 -4.77480E+01 -5.29887E+01 -4.70655E+01 -5.23012E+01
  -3.61592E+01 -4.16563E+01 -4.23728E+01 -3.97341E+01 -5.66016E+01 -4.82026E+01 -3.49526E+01 -4.85365E+01 -6.53398E+01 -4.26024E+01
  -4.25532E+01 -4.63020E+01 -4.31436E+01 -4.54866E+01 -3.56548E+01 -5.61519E+01 -4.49679E+01 -3.97689E+01 -5.14948E+01 -4.95403E+01
  -6.32048E+01 -4.43564E+01 -4.58149E+01 -5.48269E+01 -3.61664E+01 -5.03325E+01 -4.63364E+01 -3.37042E+01 -4.41473E+01 -4.35476E+01
  -3.89794E+01 -3.18965E+01 -4.50986E+01 -5.28661E+01 -4.59174E+01 -3.49828E+01 -4.10388E+01 -5.49922E+01 -3.38252E+01 -3.78168E+01
  -3.65411E+01 -4.25060E+01 -5.19749E+01 -3.56531E+01 -4.04049E+01 -3.89414E+01 -4.26254E+01 -3.73017E+01 -4.23288E+01 -3.44744E+01
  -2.75834E+01 -4.76434E+01 -3.58875E+01 -4.54975E+01 -4.31407E+01 -4.20457E+01 -4.39184E+01 -2.42649E+01 -3.83872E+01 -3.80309E+01
  -3.52631E+01 -2.76705E+01 -3.19238E+01 -5.20256E+01 -3.70079E+01 -3.75184E+01 -4.22833E+01 -4.01936E+01 -2.25567E+01 -2.06529E+01
 NY points of the fit to the data follow
  -1.21873E+02 -1.29901E+02 -1.41122E+02 -1.50437E+02 -1.44787E+02 -1.20527E+02 -1.03774E+02 -1.04776E+02 -1.11163E+02 -1.17421E+02
  -1.23523E+02 -1.28400E+02 -1.29232E+02 -1.28884E+02 -1.31312E+02 -1.35489E+02 -1.34383E+02 -1.49770E+02 -1.60189E+02 -1.85599E+02
  -1.98708E+02 -1.56797E+02 -1.38647E+02 -1.24920E+02 -9.04510E+01 -7.48414E+01 -7.40822E+01 -6.61243E+01 -6.03088E+01 -5.98185E+01
  -5.99299E+01 -5.99598E+01 -5.99990E+01 -6.21520E+01 -6.60163E+01 -7.29195E+01 -7.45250E+01 -8.19420E+01 -9.36653E+01 -1.12415E+02
  -1.36083E+02 -1.39520E+02 -1.28465E+02 -1.15167E+02 -9.87265E+01 -7.52798E+01 -5.93075E+01 -5.18069E+01 -4.64896E+01 -4.39424E+01
  -4.49104E+01 -4.65863E+01 -5.48365E+01 -7.01264E+01 -7.87627E+01 -8.41501E+01 -8.04436E+01 -8.06252E+01 -1.01977E+02 -1.00166E+02
  -8.40211E+01 -8.69122E+01 -7.88067E+01 -5.73925E+01 -4.36671E+01 -3.46633E+01 -3.25858E+01 -4.39295E+01 -7.55192E+01 -9.89582E+01
  -8.92581E+01 -8.47950E+01 -8.72090E+01 -7.04243E+01 -4.92793E+01 -3.84411E+01 -3.28347E+01 -2.50878E+01 -2.36992E+01 -1.61241E+01
  -2.45904E+01 -3.45089E+01 -5.19955E+01 -7.95114E+01 -8.67040E+01 -8.96822E+01 -7.94413E+01 -6.24190E+01 -4.87378E+01 -4.04137E+01
  -3.21248E+01 -2.61683E+01 -2.11940E+01 -1.68473E+01 -1.19167E+01 -5.86922E+00 -2.98562E+00 -1.27490E-01 -3.16216E+00 -3.65015E+00
   7.37567E-01  5.36467E+00 -1.33913E+01 -2.40253E+01 -4.94136E+01 -7.22716E+01 -6.58064E+01 -5.60207E+01 -7.20565E+01 -1.56887E+02
  -2.06727E+02 -1.88771E+02 -1.65271E+02 -1.51509E+02 -1.31468E+02 -1.15309E+02 -1.05582E+02 -9.68296E+01 -8.87792E+01 -8.16303E+01
  -7.48510E+01 -6.76204E+01 -6.03670E+01 -5.22164E+01 -4.27211E+01 -2.99719E+01 -1.74686E+01 -1.45937E+01  1.84441E+01  4.83954E+01
   9.13390E+01  7.74076E+01 -5.27599E+01 -1.33619E+02 -1.40144E+02 -1.43257E+02 -1.46754E+02 -1.35426E+02 -1.27589E+02 -1.25775E+02
  -1.24993E+02 -1.24420E+02 -1.24715E+02 -1.24214E+02 -1.24450E+02 -1.23856E+02 -1.21603E+02 -1.18725E+02 -1.15115E+02 -1.11952E+02
  -1.08621E+02 -1.05903E+02 -1.04181E+02 -1.02112E+02 -9.88482E+01 -9.52784E+01 -9.31480E+01 -9.28729E+01 -9.22878E+01 -9.04661E+01
  -8.71512E+01 -8.41279E+01 -8.51548E+01 -8.77769E+01 -8.78737E+01 -8.53774E+01 -8.19254E+01 -8.23615E+01 -8.67391E+01 -8.75798E+01
  -7.78051E+01 -5.96596E+01 -4.83264E+01 -5.58578E+01 -6.90287E+01 -6.40483E+01 -5.01813E+01 -4.35145E+01 -5.18856E+01 -6.81362E+01
  -7.64084E+01 -8.14722E+01 -8.75547E+01 -9.11849E+01 -9.24719E+01 -9.32592E+01 -9.29203E+01 -9.31911E+01 -9.12412E+01 -8.88004E+01
  -8.92469E+01 -8.53669E+01 -8.59709E+01 -8.11599E+01 -6.49958E+01 -6.88058E+01 -7.22317E+01 -6.32250E+01 -5.96949E+01 -5.92408E+01
  -6.42806E+01 -6.17365E+01 -5.14504E+01 -4.88644E+01 -5.30422E+01 -5.74040E+01 -6.05293E+01 -6.68682E+01 -7.65408E+01 -8.61988E+01
  -8.79909E+01 -9.75311E+01 -9.52510E+01 -8.38564E+01 -7.43231E+01 -3.79632E+01 -1.90302E+01 -1.40801E+01 -4.07553E+00 -1.35105E+01
  -2.85470E+01 -3.44273E+01 -3.68122E+01 -3.84559E+01 -3.75742E+01 -3.75910E+01 -3.90694E+01 -4.36243E+01 -5.04169E+01 -5.95935E+01
  -6.97683E+01 -8.13923E+01 -9.27782E+01 -1.01240E+02 -1.12329E+02 -1.20058E+02 -1.22812E+02 -1.26945E+02 -1.28453E+02 -1.21997E+02
  -1.22925E+02 -1.16835E+02 -1.05670E+02 -9.90757E+01 -8.58313E+01 -8.04969E+01 -7.80272E+01 -7.74829E+01 -8.31362E+01 -8.43891E+01
  -9.58980E+01 -1.08930E+02 -9.51766E+01 -1.03385E+02 -1.01501E+02 -1.60016E+02 -1.93636E+02 -5.44866E+01  6.02368E+01  7.37257E+01
   7.56356E+01  8.10749E+01  6.57433E+01  5.34641E+01  4.75827E+01  4.31900E+01  3.87913E+01  3.45070E+01  3.11323E+01  2.80304E+01
   2.63243E+01  2.51446E+01  2.45896E+01  2.39686E+01  2.36028E+01  2.27397E+01  2.11714E+01  2.01269E+01  1.93356E+01  1.81774E+01
   1.63247E+01  1.42195E+01  1.18358E+01  1.01324E+01  8.05071E+00  5.30011E+00  3.15746E+00  9.29396E-01 -1.82943E+00 -4.73906E+00
  -8.58765E+00 -1.24687E+01 -1.64838E+01 -2.13551E+01 -2.54755E+01 -2.78769E+01 -2.84355E+01 -2.75502E+01 -2.54080E+01 -2.31214E+01
  -2.07283E+01 -1.76139E+01 -1.43641E+01 -1.12735E+01 -8.48307E+00 -6.05593E+00 -3.86785E+00 -1.69432E+00  1.54555E+00  4.81798E+00
   7.40278E+00  9.89533E+00  1.20276E+01  1.42532E+01  1.68898E+01  1.85468E+01  1.95003E+01  1.93848E+01  2.50490E+01  2.35034E+01
   2.66666E+01  1.30725E+01 -1.65213E+01 -3.08637E+01 -4.97876E+01 -5.87621E+01 -5.33275E+01 -5.16745E+01 -5.72659E+01 -6.20788E+01
  -6.79667E+01 -7.49097E+01 -8.04555E+01 -8.30138E+01 -8.28614E+01 -7.92691E+01 -7.37286E+01 -6.83905E+01 -6.38919E+01 -6.06741E+01
  -5.84729E+01 -5.60302E+01 -5.19982E+01 -4.74194E+01 -4.22972E+01 -3.73117E+01 -3.43527E+01 -3.29117E+01 -3.16719E+01 -3.07275E+01
  -3.11781E+01 -3.25363E+01 -3.50881E+01 -3.90303E+01 -4.44140E+01 -4.92949E+01 -5.18455E+01 -5.35523E+01 -5.35119E+01 -5.17167E+01
  -4.92512E+01 -4.55868E+01 -4.15473E+01 -3.73510E+01 -3.27974E+01 -2.87978E+01 -2.49976E+01 -2.14156E+01 -1.81289E+01 -1.43346E+01
  -1.05863E+01 -7.14395E+00 -3.59390E+00  1.77152E-01  3.98871E+00  8.90488E+00  1.44733E+01  1.94575E+01  2.59597E+01  3.35870E+01
   4.06409E+01  4.77792E+01  5.66014E+01  6.59162E+01  7.44206E+01  8.26674E+01  8.85606E+01  9.00860E+01  8.58711E+01  7.65091E+01
   6.43849E+01  5.27522E+01  4.25771E+01  3.38304E+01  2.71134E+01  2.13920E+01  1.46543E+01  5.56891E+00 -3.51780E+00 -1.34250E+01
  -2.33262E+01 -3.10084E+01 -3.68375E+01 -4.14911E+01 -4.51360E+01 -4.71217E+01 -4.81909E+01 -4.90844E+01 -4.99256E+01 -5.09142E+01
  -5.17293E+01 -5.21591E+01 -5.20264E+01 -5.18205E+01 -5.18302E+01 -5.13779E+01 -5.07877E+01 -5.04410E+01 -5.09886E+01 -5.08045E+01
  -4.94615E+01 -4.89848E+01 -4.91784E+01 -4.88664E+01 -4.80872E+01 -4.77645E+01 -4.77756E+01 -4.78391E+01 -4.71819E+01 -4.61244E+01
  -4.57321E+01 -4.53660E+01 -4.53187E+01 -4.52134E+01 -4.52299E+01 -4.48271E+01 -4.42759E+01 -4.38398E+01 -4.31144E+01 -4.26595E+01
  -4.22532E+01 -4.18945E+01 -4.12615E+01 -4.11373E+01 -4.14347E+01 -4.13995E+01 -4.11404E+01 -4.05939E+01 -4.01516E+01 -3.97796E+01
  -3.92726E+01 -3.93396E+01 -3.93473E+01 -3.86479E+01 -3.81587E+01 -3.78012E+01 -3.72303E+01 -3.68966E+01 -3.66339E+01 -3.61447E+01
  -3.57558E+01 -3.54655E+01 -3.53209E+01 -3.54840E+01 -3.51804E+01 -3.50561E+01 -3.47242E+01 -3.39324E+01 -3.28970E+01 -3.22063E+01
  -3.21720E+01 -3.22133E+01 -3.24001E+01 -3.22084E+01 -3.17320E+01 -3.15707E+01 -3.12709E+01 -3.05465E+01 -3.02262E+01 -3.05811E+01
 NY background values follow
    -9.389E+01   -9.356E+01   -9.322E+01   -9.289E+01   -9.255E+01   -9.221E+01   -9.188E+01   -9.154E+01   -9.120E+01   -9.086E+01
    -9.052E+01   -9.019E+01   -8.985E+01   -8.950E+01   -8.916E+01   -8.882E+01   -8.848E+01   -8.813E+01   -8.779E+01   -8.744E+01
    -8.710E+01   -8.675E+01   -8.640E+01   -8.605E+01   -8.570E+01   -8.534E+01   -8.499E+01   -8.464E+01   -8.428E+01   -8.392E+01
    -8.356E+01   -8.320E+01   -8.284E+01   -8.248E+01   -8.211E+01   -8.175E+01   -8.138E+01   -8.102E+01   -8.065E+01   -8.028E+01
    -7.991E+01   -7.954E+01   -7.917E+01   -7.880E+01   -7.843E+01   -7.806E+01   -7.769E+01   -7.732E+01   -7.695E+01   -7.659E+01
    -7.622E+01   -7.585E+01   -7.548E+01   -7.512E+01   -7.475E+01   -7.439E+01   -7.402E+01   -7.366E+01   -7.330E+01   -7.294E+01
    -7.258E+01   -7.222E+01   -7.187E+01   -7.151E+01   -7.116E+01   -7.081E+01   -7.046E+01   -7.012E+01   -6.977E+01   -6.943E+01
    -6.909E+01   -6.875E+01   -6.842E+01   -6.808E+01   -6.775E+01   -6.742E+01   -6.709E+01   -6.677E+01   -6.645E+01   -6.613E+01
    -6.581E+01   -6.549E+01   -6.518E+01   -6.487E+01   -6.457E+01   -6.426E+01   -6.396E+01   -6.366E+01   -6.337E+01   -6.308E+01
    -6.279E+01   -6.250E+01   -6.222E+01   -6.194E+01   -6.166E+01   -6.139E+01   -6.112E+01   -6.085E+01   -6.059E+01   -6.033E+01
    -6.007E+01   -5.981E+01   -5.956E+01   -5.931E+01   -5.906E+01   -5.882E+01   -5.858E+01   -5.834E+01   -5.811E+01   -5.787E+01
    -5.765E+01   -5.742E+01   -5.720E+01   -5.698E+01   -5.676E+01   -5.654E+01   -5.633E+01   -5.612E+01   -5.592E+01   -5.571E+01
    -5.551E+01   -5.531E+01   -5.512E+01   -5.493E+01   -5.474E+01   -5.455E+01   -5.437E+01   -5.419E+01   -5.401E+01   -5.383E+01
    -5.366E+01   -5.349E+01   -5.332E+01   -5.316E+01   -5.300E+01   -5.284E+01   -5.269E+01   -5.254E+01   -5.239E+01   -5.224E+01
    -5.210E+01   -5.196E+01   -5.182E+01   -5.169E+01   -5.156E+01   -5.143E+01   -5.131E+01   -5.119E+01   -5.107E+01   -5.096E+01
    -5.084E+01   -5.074E+01   -5.063E+01   -5.053E+01   -5.043E+01   -5.033E+01   -5.024E+01   -5.015E+01   -5.006E+01   -4.998E+01
    -4.990E+01   -4.982E+01   -4.974E+01   -4.966E+01   -4.959E+01   -4.952E+01   -4.945E+01   -4.939E+01   -4.933E+01   -4.926E+01
    -4.920E+01   -4.915E+01   -4.909E+01   -4.904E+01   -4.899E+01   -4.894E+01   -4.889E+01   -4.884E+01   -4.879E+01   -4.875E+01
    -4.871E+01   -4.867E+01   -4.863E+01   -4.859E+01   -4.855E+01   -4.851E+01   -4.848E+01   -4.844E+01   -4.841E+01   -4.838E+01
    -4.835E+01   -4.832E+01   -4.829E+01   -4.826E+01   -4.824E+01   -4.821E+01   -4.819E+01   -4.816E+01   -4.814E+01   -4.811E+01
    -4.809E+01   -4.807E+01   -4.805E+01   -4.803E+01   -4.801E+01   -4.799E+01   -4.798E+01   -4.796E+01   -4.794E+01   -4.792E+01
    -4.791E+01   -4.789E+01   -4.788E+01   -4.786E+01   -4.785E+01   -4.783E+01   -4.782E+01   -4.781E+01   -4.780E+01   -4.779E+01
    -4.778E+01   -4.777E+01   -4.777E+01   -4.776E+01   -4.776E+01   -4.776E+01   -4.776E+01   -4.776E+01   -4.777E+01   -4.777E+01
    -4.778E+01   -4.779E+01   -4.780E+01   -4.781E+01   -4.783E+01   -4.785E+01   -4.787E+01   -4.789E+01   -4.792E+01   -4.795E+01
    -4.798E+01   -4.801E+01   -4.805E+01   -4.809E+01   -4.813E+01   -4.818E+01   -4.823E+01   -4.828E+01   -4.833E+01   -4.839E+01
    -4.845E+01   -4.852E+01   -4.858E+01   -4.865E+01   -4.873E+01   -4.880E+01   -4.888E+01   -4.897E+01   -4.906E+01   -4.915E+01
    -4.924E+01   -4.934E+01   -4.944E+01   -4.954E+01   -4.965E+01   -4.976E+01   -4.988E+01   -5.000E+01   -5.012E+01   -5.024E+01
    -5.037E+01   -5.051E+01   -5.064E+01   -5.078E+01   -5.093E+01   -5.107E+01   -5.122E+01   -5.137E+01   -5.152E+01   -5.167E+01
    -5.183E+01   -5.198E+01   -5.214E+01   -5.229E+01   -5.245E+01   -5.260E+01   -5.276E+01   -5.291E+01   -5.307E+01   -5.322E+01
    -5.337E+01   -5.351E+01   -5.366E+01   -5.380E+01   -5.394E+01   -5.408E+01   -5.421E+01   -5.435E+01   -5.447E+01   -5.459E+01
    -5.471E+01   -5.483E+01   -5.493E+01   -5.504E+01   -5.513E+01   -5.523E+01   -5.531E+01   -5.540E+01   -5.547E+01   -5.554E+01
    -5.560E+01   -5.566E+01   -5.570E+01   -5.575E+01   -5.578E+01   -5.581E+01   -5.583E+01   -5.584E+01   -5.584E+01   -5.583E+01
    -5.582E+01   -5.580E+01   -5.576E+01   -5.572E+01   -5.567E+01   -5.561E+01   -5.554E+01   -5.546E+01   -5.537E+01   -5.527E+01
    -5.516E+01   -5.504E+01   -5.490E+01   -5.476E+01   -5.461E+01   -5.445E+01   -5.428E+01   -5.410E+01   -5.391E+01   -5.371E+01
    -5.351E+01   -5.330E+01   -5.308E+01   -5.285E+01   -5.261E+01   -5.237E+01   -5.212E+01   -5.187E+01   -5.161E+01   -5.134E+01
    -5.107E+01   -5.079E+01   -5.050E+01   -5.022E+01   -4.992E+01   -4.963E+01   -4.933E+01   -4.902E+01   -4.871E+01   -4.840E+01
    -4.808E+01   -4.777E+01   -4.745E+01   -4.712E+01   -4.680E+01   -4.647E+01   -4.614E+01   -4.581E+01   -4.548E+01   -4.515E+01
    -4.482E+01   -4.448E+01   -4.415E+01   -4.382E+01   -4.348E+01   -4.315E+01   -4.282E+01   -4.249E+01   -4.216E+01   -4.183E+01
    -4.150E+01   -4.117E+01   -4.085E+01   -4.053E+01   -4.021E+01   -3.989E+01   -3.958E+01   -3.927E+01   -3.896E+01   -3.866E+01
    -3.836E+01   -3.806E+01   -3.777E+01   -3.748E+01   -3.720E+01   -3.692E+01   -3.665E+01   -3.638E+01   -3.611E+01   -3.585E+01
    -3.559E+01   -3.533E+01   -3.509E+01   -3.484E+01   -3.460E+01   -3.436E+01   -3.413E+01   -3.391E+01   -3.368E+01   -3.347E+01
    -3.325E+01   -3.305E+01   -3.284E+01   -3.265E+01   -3.245E+01   -3.226E+01   -3.208E+01   -3.190E+01   -3.173E+01   -3.156E+01
    -3.140E+01   -3.124E+01   -3.109E+01   -3.094E+01   -3.080E+01   -3.066E+01   -3.052E+01   -3.039E+01   -3.027E+01   -3.014E+01
    -3.003E+01   -2.991E+01   -2.980E+01   -2.969E+01   -2.959E+01   -2.949E+01   -2.939E+01   -2.929E+01   -2.920E+01   -2.911E+01
    -2.902E+01   -2.894E+01   -2.885E+01   -2.877E+01   -2.869E+01   -2.862E+01   -2.854E+01   -2.847E+01   -2.840E+01   -2.833E+01
    -2.826E+01   -2.819E+01   -2.812E+01   -2.805E+01   -2.799E+01   -2.792E+01   -2.786E+01   -2.780E+01   -2.773E+01   -2.767E+01
    -2.761E+01   -2.755E+01   -2.749E+01   -2.743E+01   -2.738E+01   -2.732E+01   -2.726E+01   -2.720E+01   -2.715E+01   -2.709E+01
    -2.703E+01   -2.698E+01   -2.692E+01   -2.686E+01   -2.681E+01   -2.675E+01   -2.670E+01   -2.664E+01   -2.658E+01   -2.653E+01
 Mac      Conc. = 3.04E-04
  -1.15605E+02 -1.15749E+02 -1.15641E+02 -1.15308E+02 -1.15211E+02 -1.15639E+02 -1.16580E+02 -1.18320E+02 -1.19986E+02 -1.21666E+02
  -1.22526E+02 -1.22428E+02 -1.22080E+02 -1.20863E+02 -1.21395E+02 -1.23821E+02 -1.26609E+02 -1.26974E+02 -1.22143E+02 -1.16390E+02
  -1.12754E+02 -1.07628E+02 -1.02623E+02 -1.00105E+02 -9.89071E+01 -9.74326E+01 -9.54907E+01 -9.36543E+01 -9.10605E+01 -8.84654E+01
  -8.62023E+01 -8.45592E+01 -8.28113E+01 -8.14586E+01 -8.16166E+01 -8.24140E+01 -8.24973E+01 -8.03992E+01 -7.67112E+01 -7.33674E+01
  -7.23565E+01 -7.29035E+01 -7.24921E+01 -7.14289E+01 -6.93617E+01 -6.73367E+01 -6.62488E+01 -6.58837E+01 -6.62109E+01 -6.68855E+01
  -6.85942E+01 -6.97069E+01 -7.00071E+01 -7.05757E+01 -7.11565E+01 -7.12925E+01 -7.10796E+01 -6.97055E+01 -6.75269E+01 -6.62120E+01
  -6.47422E+01 -6.19053E+01 -6.04750E+01 -6.02787E+01 -6.05686E+01 -6.14236E+01 -6.18860E+01 -6.20304E+01 -6.24361E+01 -6.33155E+01
  -6.25498E+01 -5.96663E+01 -5.60563E+01 -5.37722E+01 -5.18212E+01 -5.02766E+01 -5.00964E+01 -5.03627E+01 -5.09811E+01 -5.15191E+01
  -5.19060E+01 -5.21704E+01 -5.27894E+01 -5.21310E+01 -5.10935E+01 -4.99732E+01 -4.86761E+01 -4.75892E+01 -4.63456E+01 -4.56334E+01
  -4.49451E+01 -4.40304E+01 -4.34697E+01 -4.31432E+01 -4.26726E+01 -4.36371E+01 -4.54964E+01 -4.78575E+01 -5.06658E+01 -5.30933E+01
  -5.44407E+01 -5.58569E+01 -5.84098E+01 -6.05491E+01 -6.34849E+01 -6.85652E+01 -7.56202E+01 -8.40083E+01 -8.96709E+01 -9.22948E+01
