 
 $NMID
 ID=''
 FMTDAT='(2E13.5)'
 TRAMP=   1.00000E+0
 VOLUME=   1.00000E+0
 $END
  -2.50996E+5   6.96167E+5
  -1.34441E+6   1.52228E+6
  -1.15134E+6   1.65429E+6
  -1.13974E+6   1.48461E+6
  -1.24672E+6   1.47089E+6
  -1.22166E+6   1.48959E+6
  -1.21048E+6   1.44612E+6
  -1.24138E+6   1.43423E+6
  -1.23585E+6   1.39921E+6
  -1.27158E+6   1.35717E+6
  -1.28912E+6   1.35630E+6
  -1.26997E+6   1.31303E+6
  -1.29941E+6   1.26427E+6
  -1.32314E+6   1.26155E+6
  -1.30941E+6   1.22420E+6
  -1.32451E+6   1.17774E+6
  -1.34606E+6   1.17033E+6
  -1.34492E+6   1.13916E+6
  -1.35916E+6   1.09691E+6
  -1.36861E+6   1.08494E+6
  -1.36836E+6   1.05568E+6
  -1.38217E+6   1.02125E+6
  -1.38951E+6   1.00341E+6
  -1.39074E+6   9.72047E+5
  -1.40307E+6   9.36543E+5
  -1.40346E+6   9.21817E+5
  -1.40604E+6   8.93664E+5
  -1.41872E+6   8.61229E+5
  -1.42045E+6   8.35291E+5
  -1.41720E+6   8.09522E+5
  -1.42841E+6   7.82249E+5
  -1.43002E+6   7.60583E+5
  -1.42843E+6   7.32216E+5
  -1.43307E+6   7.07638E+5
  -1.43182E+6   6.88371E+5
  -1.42984E+6   6.68522E+5
  -1.43623E+6   6.48347E+5
  -1.43803E+6   6.25370E+5
  -1.43449E+6   6.00176E+5
  -1.43514E+6   5.79843E+5
  -1.43357E+6   5.57122E+5
  -1.43065E+6   5.32549E+5
  -1.42732E+6   5.13281E+5
  -1.42513E+6   4.93527E+5
  -1.42238E+6   4.68770E+5
  -1.42204E+6   4.47871E+5
  -1.42005E+6   4.27023E+5
  -1.41707E+6   4.01281E+5
  -1.41152E+6   3.78568E+5
  -1.40663E+6   3.60476E+5
  -1.40398E+6   3.40728E+5
  -1.40132E+6   3.19837E+5
  -1.39719E+6   3.00971E+5
  -1.39360E+6   2.81895E+5
  -1.38890E+6   2.61030E+5
  -1.38382E+6   2.39994E+5
  -1.37807E+6   2.19327E+5
  -1.37030E+6   1.99947E+5
  -1.36239E+6   1.81942E+5
  -1.35705E+6   1.63473E+5
  -1.35123E+6   1.44238E+5
  -1.34431E+6   1.25937E+5
  -1.33814E+6   1.07032E+5
  -1.33121E+6   8.73206E+4
  -1.32120E+6   6.88394E+4
  -1.31101E+6   5.26781E+4
  -1.30236E+6   3.58415E+4
  -1.29390E+6   1.96420E+4
  -1.28568E+6   3.49147E+3
  -1.27821E+6  -1.38858E+4
  -1.26871E+6  -3.21293E+4
  -1.25769E+6  -4.80192E+4
  -1.24854E+6  -6.23136E+4
  -1.24014E+6  -7.86781E+4
  -1.22955E+6  -9.52960E+4
  -1.21786E+6  -1.10451E+5
  -1.20790E+6  -1.24886E+5
  -1.19805E+6  -1.39924E+5
  -1.18695E+6  -1.55290E+5
  -1.17483E+6  -1.70333E+5
  -1.16336E+6  -1.84899E+5
  -1.15190E+6  -1.98216E+5
  -1.14042E+6  -2.12170E+5
  -1.12823E+6  -2.26789E+5
  -1.11539E+6  -2.41472E+5
  -1.10282E+6  -2.54422E+5
  -1.09069E+6  -2.66860E+5
  -1.07871E+6  -2.79657E+5
  -1.06537E+6  -2.92155E+5
  -1.05232E+6  -3.03099E+5
  -1.04004E+6  -3.13479E+5
  -1.02831E+6  -3.24093E+5
  -1.01586E+6  -3.35615E+5
  -1.00212E+6  -3.45762E+5
  -9.87754E+5  -3.54954E+5
  -9.75533E+5  -3.62897E+5
  -9.63600E+5  -3.71910E+5
  -9.51139E+5  -3.81563E+5
  -9.38011E+5  -3.90558E+5
  -9.25069E+5  -3.98129E+5
  -9.13207E+5  -4.06602E+5
  -9.00028E+5  -4.15702E+5
  -8.85760E+5  -4.23868E+5
  -8.71468E+5  -4.31058E+5
  -8.58662E+5  -4.36684E+5
  -8.47077E+5  -4.43100E+5
  -8.35098E+5  -4.49604E+5
  -8.21300E+5  -4.56957E+5
  -8.07313E+5  -4.62489E+5
  -7.94710E+5  -4.66395E+5
  -7.83068E+5  -4.71205E+5
  -7.71002E+5  -4.77900E+5
  -7.57943E+5  -4.84534E+5
  -7.44282E+5  -4.89728E+5
  -7.31285E+5  -4.94907E+5
  -7.18622E+5  -5.00494E+5
  -7.05132E+5  -5.06104E+5
  -6.90971E+5  -5.10257E+5
  -6.77714E+5  -5.13021E+5
  -6.66034E+5  -5.16200E+5
  -6.54614E+5  -5.20054E+5
  -6.42166E+5  -5.24088E+5
  -6.29996E+5  -5.27539E+5
  -6.17880E+5  -5.30890E+5
  -6.05129E+5  -5.34347E+5
  -5.92069E+5  -5.36976E+5
  -5.79403E+5  -5.38837E+5
  -5.67268E+5  -5.41340E+5
  -5.55048E+5  -5.44155E+5
  -5.42383E+5  -5.47410E+5
  -5.29213E+5  -5.50780E+5
  -5.15249E+5  -5.53387E+5
  -5.02226E+5  -5.55132E+5
  -4.89908E+5  -5.56677E+5
  -4.77511E+5  -5.58802E+5
  -4.64578E+5  -5.60209E+5
  -4.52008E+5  -5.61036E+5
  -4.40682E+5  -5.62214E+5
  -4.28599E+5  -5.63804E+5
  -4.16043E+5  -5.65447E+5
  -4.03322E+5  -5.65413E+5
  -3.91321E+5  -5.64730E+5
  -3.80244E+5  -5.64734E+5
  -3.69318E+5  -5.65269E+5
  -3.57191E+5  -5.66274E+5
  -3.44895E+5  -5.65853E+5
  -3.33152E+5  -5.64804E+5
  -3.21037E+5  -5.64582E+5
  -3.09885E+5  -5.63572E+5
  -2.99184E+5  -5.62393E+5
  -2.88320E+5  -5.60873E+5
  -2.77688E+5  -5.59496E+5
  -2.67626E+5  -5.58405E+5
  -2.57494E+5  -5.57386E+5
  -2.47024E+5  -5.55418E+5
  -2.36832E+5  -5.53380E+5
  -2.27529E+5  -5.50964E+5
  -2.18019E+5  -5.49459E+5
  -2.08364E+5  -5.47212E+5
  -1.98687E+5  -5.44657E+5
  -1.89635E+5  -5.42274E+5
  -1.80203E+5  -5.39939E+5
  -1.71037E+5  -5.36892E+5
  -1.61733E+5  -5.33963E+5
  -1.52980E+5  -5.30584E+5
  -1.45232E+5  -5.27787E+5
  -1.36919E+5  -5.25304E+5
  -1.28381E+5  -5.23130E+5
  -1.19699E+5  -5.19559E+5
  -1.12015E+5  -5.16211E+5
  -1.04760E+5  -5.12875E+5
  -9.71575E+4  -5.09878E+5
  -8.98154E+4  -5.06676E+5
  -8.18654E+4  -5.03022E+5
  -7.46149E+4  -4.99424E+5
  -6.75477E+4  -4.96056E+5
  -6.01065E+4  -4.92890E+5
  -5.24683E+4  -4.89196E+5
  -4.50034E+4  -4.84994E+5
  -3.90245E+4  -4.81357E+5
  -3.19270E+4  -4.78034E+5
  -2.53150E+4  -4.74715E+5
  -1.81402E+4  -4.70504E+5
  -1.16558E+4  -4.66310E+5
  -5.27114E+3  -4.62522E+5
   5.52297E+2  -4.58297E+5
   6.51136E+3  -4.54154E+5
   1.24683E+4  -4.49694E+5
   1.75943E+4  -4.45540E+5
   2.26721E+4  -4.41971E+5
   2.89656E+4  -4.38418E+5
   3.54156E+4  -4.34139E+5
   4.16124E+4  -4.29396E+5
   4.67727E+4  -4.24693E+5
   5.24770E+4  -4.20157E+5
   5.74864E+4  -4.15892E+5
   6.31692E+4  -4.11430E+5
   6.85058E+4  -4.06715E+5
   7.43329E+4  -4.02074E+5
   7.95305E+4  -3.97664E+5
   8.49009E+4  -3.92759E+5
   8.98437E+4  -3.87551E+5
   9.43072E+4  -3.82218E+5
   9.86100E+4  -3.77966E+5
   1.03304E+5  -3.73396E+5
   1.08311E+5  -3.68397E+5
   1.12824E+5  -3.63341E+5
   1.17052E+5  -3.58097E+5
   1.20918E+5  -3.53083E+5
   1.25391E+5  -3.48060E+5
   1.29766E+5  -3.42501E+5
   1.33435E+5  -3.36954E+5
   1.37101E+5  -3.32838E+5
   1.40939E+5  -3.28068E+5
   1.45316E+5  -3.22521E+5
   1.48875E+5  -3.16698E+5
   1.51599E+5  -3.11168E+5
   1.54413E+5  -3.06183E+5
   1.57398E+5  -3.01229E+5
   1.60686E+5  -2.96198E+5
   1.63353E+5  -2.91216E+5
   1.65936E+5  -2.85929E+5
   1.68717E+5  -2.81187E+5
   1.71238E+5  -2.75939E+5
   1.73603E+5  -2.70432E+5
   1.75626E+5  -2.65332E+5
   1.77266E+5  -2.60475E+5
   1.79286E+5  -2.55926E+5
   1.81790E+5  -2.51077E+5
   1.83662E+5  -2.45931E+5
   1.85369E+5  -2.40511E+5
   1.86487E+5  -2.35781E+5
   1.87961E+5  -2.31378E+5
   1.89672E+5  -2.26827E+5
   1.90643E+5  -2.21864E+5
   1.91548E+5  -2.17620E+5
   1.92916E+5  -2.13462E+5
   1.93877E+5  -2.09053E+5
   1.95022E+5  -2.04114E+5
   1.95357E+5  -2.00080E+5
   1.95992E+5  -1.95935E+5
   1.96601E+5  -1.91698E+5
   1.97730E+5  -1.87469E+5
   1.98405E+5  -1.83261E+5
   1.98693E+5  -1.78786E+5
   1.99033E+5  -1.75016E+5
   1.99603E+5  -1.71061E+5
   2.00126E+5  -1.67121E+5
   2.00271E+5  -1.62661E+5
   2.00056E+5  -1.59145E+5
   2.00178E+5  -1.55777E+5
   2.00893E+5  -1.52344E+5
   2.01019E+5  -1.47845E+5
   2.00803E+5  -1.44034E+5
   2.00366E+5  -1.40652E+5
   2.00332E+5  -1.37321E+5
   2.00446E+5  -1.33767E+5
   2.00535E+5  -1.29600E+5
   2.00456E+5  -1.26141E+5
   2.00479E+5  -1.22760E+5
   2.00464E+5  -1.19034E+5
   2.00287E+5  -1.15021E+5
   1.99698E+5  -1.11277E+5
   1.98941E+5  -1.08012E+5
   1.98531E+5  -1.05048E+5
   1.98691E+5  -1.01680E+5
   1.98317E+5  -9.82372E+4
   1.97878E+5  -9.47760E+4
   1.97091E+5  -9.14918E+4
   1.96217E+5  -8.82156E+4
   1.95594E+5  -8.51470E+4
   1.95011E+5  -8.18986E+4
   1.94062E+5  -7.88601E+4
   1.93496E+5  -7.61137E+4
   1.93331E+5  -7.32018E+4
   1.92446E+5  -6.95838E+4
   1.91444E+5  -6.61788E+4
   1.90103E+5  -6.30323E+4
   1.89399E+5  -6.06116E+4
   1.88558E+5  -5.76872E+4
   1.87740E+5  -5.47465E+4
   1.86634E+5  -5.17465E+4
   1.85475E+5  -4.91331E+4
   1.84491E+5  -4.67520E+4
   1.83462E+5  -4.36181E+4
   1.82124E+5  -4.08374E+4
   1.80629E+5  -3.83211E+4
   1.79332E+5  -3.63305E+4
   1.78481E+5  -3.42817E+4
   1.77535E+5  -3.14181E+4
   1.76194E+5  -2.88689E+4
   1.74675E+5  -2.65460E+4
   1.73085E+5  -2.43782E+4
   1.71785E+5  -2.19388E+4
   1.70417E+5  -1.98205E+4
   1.68793E+5  -1.74744E+4
   1.67523E+5  -1.56978E+4
   1.66358E+5  -1.37053E+4
   1.64924E+5  -1.12790E+4
   1.63370E+5  -9.01159E+3
   1.61696E+5  -7.28112E+3
   1.60209E+5  -5.75609E+3
   1.59182E+5  -3.99015E+3
   1.57877E+5  -1.97915E+3
   1.56246E+5   1.88993E+2
   1.54375E+5   1.86512E+3
   1.52759E+5   3.33471E+3
   1.51654E+5   5.09732E+3
   1.49727E+5   6.59621E+3
   1.48379E+5   8.18793E+3
   1.46896E+5   9.77570E+3
   1.45277E+5   1.08209E+4
   1.43890E+5   1.24828E+4
   1.42372E+5   1.43091E+4
   1.40556E+5   1.55122E+4
   1.39105E+5   1.68337E+4
   1.37215E+5   1.83164E+4
   1.35616E+5   1.93530E+4
   1.34255E+5   2.08828E+4
   1.32387E+5   2.22755E+4
   1.30834E+5   2.31803E+4
   1.29561E+5   2.43421E+4
   1.27854E+5   2.54712E+4
   1.25944E+5   2.66729E+4
   1.24203E+5   2.74847E+4
   1.22895E+5   2.86257E+4
   1.21465E+5   2.96989E+4
   1.19891E+5   3.08150E+4
   1.17907E+5   3.20111E+4
   1.16160E+5   3.26977E+4
   1.14653E+5   3.35021E+4
   1.13311E+5   3.43047E+4
   1.11550E+5   3.51292E+4
   1.09705E+5   3.58959E+4
   1.08572E+5   3.66730E+4
   1.07103E+5   3.77141E+4
   1.05544E+5   3.85193E+4
   1.03502E+5   3.93455E+4
   1.01763E+5   3.97550E+4
   1.00281E+5   4.01502E+4
   9.88870E+4   4.08326E+4
   9.71673E+4   4.15590E+4
   9.54254E+4   4.22699E+4
   9.36800E+4   4.26875E+4
   9.23484E+4   4.31697E+4
   9.06659E+4   4.37648E+4
   8.90591E+4   4.42424E+4
   8.72418E+4   4.46807E+4
   8.58251E+4   4.47044E+4
   8.48519E+4   4.53077E+4
   8.31947E+4   4.58970E+4
   8.15419E+4   4.62714E+4
   7.97226E+4   4.65839E+4
   7.82157E+4   4.65772E+4
   7.68910E+4   4.70888E+4
   7.51471E+4   4.72837E+4
   7.37811E+4   4.75498E+4
   7.25149E+4   4.75383E+4
   7.10944E+4   4.77023E+4
   6.96704E+4   4.80479E+4
   6.81400E+4   4.84448E+4
   6.67110E+4   4.84027E+4
   6.53573E+4   4.79457E+4
   6.39520E+4   4.83655E+4
   6.28139E+4   4.84195E+4
   6.14501E+4   4.85747E+4
   5.99904E+4   4.87274E+4
