 
 $NMID
 ID=''
 FMTDAT='(2E13.5)'
 TRAMP=   1.00000E+0
 VOLUME=   1.00000E+0
 $END
   5.29355E+5   5.34494E+5
   7.85400E+5   1.77485E+6
   9.05965E+5   1.63460E+6
   7.37791E+5   1.64829E+6
   7.64228E+5   1.76120E+6
   7.79244E+5   1.65779E+6
   6.47830E+5   1.63102E+6
   6.32831E+5   1.72702E+6
   6.68998E+5   1.69047E+6
   6.01420E+5   1.65083E+6
   5.57610E+5   1.67622E+6
   5.38718E+5   1.66143E+6
   4.99475E+5   1.65922E+6
   4.91921E+5   1.66384E+6
   4.66072E+5   1.62880E+6
   4.16748E+5   1.62390E+6
   4.03645E+5   1.64143E+6
   3.76884E+5   1.61831E+6
   3.24241E+5   1.60933E+6
   3.02277E+5   1.61401E+6
   2.73159E+5   1.59600E+6
   2.32367E+5   1.58802E+6
   2.11466E+5   1.58374E+6
   1.82196E+5   1.56611E+6
   1.43668E+5   1.55756E+6
   1.32729E+5   1.54864E+6
   1.10534E+5   1.53080E+6
   8.00461E+4   1.52329E+6
   6.18860E+4   1.51175E+6
   4.22655E+4   1.49368E+6
   1.16447E+4   1.48569E+6
  -9.46087E+3   1.47368E+6
  -3.54933E+4   1.45597E+6
  -6.23305E+4   1.44442E+6
  -8.38801E+4   1.42930E+6
  -1.07609E+5   1.41357E+6
  -1.33706E+5   1.40596E+6
  -1.57456E+5   1.39077E+6
  -1.80606E+5   1.36999E+6
  -2.00802E+5   1.35846E+6
  -2.18768E+5   1.34367E+6
  -2.38509E+5   1.32450E+6
  -2.54245E+5   1.30874E+6
  -2.68914E+5   1.29600E+6
  -2.87544E+5   1.27954E+6
  -3.05308E+5   1.26438E+6
  -3.23116E+5   1.24844E+6
  -3.44460E+5   1.23100E+6
  -3.64738E+5   1.21148E+6
  -3.82444E+5   1.19336E+6
  -4.00966E+5   1.17715E+6
  -4.20373E+5   1.16057E+6
  -4.38203E+5   1.14228E+6
  -4.56359E+5   1.12494E+6
  -4.73353E+5   1.10803E+6
  -4.89711E+5   1.08999E+6
  -5.05453E+5   1.07094E+6
  -5.19309E+5   1.05232E+6
  -5.30896E+5   1.03539E+6
  -5.44591E+5   1.01921E+6
  -5.58811E+5   1.00105E+6
  -5.71757E+5   9.83121E+5
  -5.85356E+5   9.66308E+5
  -5.99819E+5   9.47766E+5
  -6.12493E+5   9.26616E+5
  -6.23403E+5   9.06968E+5
  -6.34436E+5   8.88767E+5
  -6.46027E+5   8.69982E+5
  -6.57184E+5   8.51781E+5
  -6.68273E+5   8.33295E+5
  -6.78691E+5   8.14400E+5
  -6.87425E+5   7.95555E+5
  -6.95415E+5   7.78441E+5
  -7.04558E+5   7.60902E+5
  -7.13536E+5   7.41834E+5
  -7.20829E+5   7.23184E+5
  -7.28232E+5   7.05456E+5
  -7.36181E+5   6.87118E+5
  -7.43654E+5   6.68164E+5
  -7.50515E+5   6.48725E+5
  -7.57073E+5   6.29672E+5
  -7.62830E+5   6.11064E+5
  -7.68210E+5   5.92980E+5
  -7.73844E+5   5.74390E+5
  -7.78314E+5   5.55344E+5
  -7.81602E+5   5.37646E+5
  -7.85244E+5   5.20827E+5
  -7.88398E+5   5.03565E+5
  -7.91089E+5   4.86628E+5
  -7.92582E+5   4.69977E+5
  -7.94165E+5   4.54412E+5
  -7.96177E+5   4.38137E+5
  -7.98332E+5   4.21458E+5
  -7.98912E+5   4.04672E+5
  -7.98897E+5   3.88423E+5
  -7.98777E+5   3.72917E+5
  -7.98876E+5   3.57760E+5
  -7.99307E+5   3.42207E+5
  -7.98861E+5   3.26573E+5
  -7.97579E+5   3.11815E+5
  -7.96568E+5   2.97507E+5
  -7.95775E+5   2.82712E+5
  -7.93926E+5   2.67664E+5
  -7.90572E+5   2.53572E+5
  -7.87567E+5   2.40489E+5
  -7.85337E+5   2.28289E+5
  -7.83127E+5   2.15319E+5
  -7.79869E+5   2.01770E+5
  -7.75464E+5   1.88310E+5
  -7.71009E+5   1.77218E+5
  -7.67602E+5   1.65796E+5
  -7.64792E+5   1.53154E+5
  -7.61297E+5   1.40136E+5
  -7.56719E+5   1.27339E+5
  -7.52464E+5   1.15510E+5
  -7.47942E+5   1.03055E+5
  -7.43565E+5   9.07343E+4
  -7.37825E+5   7.87462E+4
  -7.31694E+5   6.79672E+4
  -7.26188E+5   5.82637E+4
  -7.21559E+5   4.82028E+4
  -7.16529E+5   3.76947E+4
  -7.11218E+5   2.75776E+4
  -7.05636E+5   1.68122E+4
  -6.99607E+5   6.24043E+3
  -6.93209E+5  -3.99068E+3
  -6.86243E+5  -1.35148E+4
  -6.80087E+5  -2.31367E+4
  -6.73954E+5  -3.29828E+4
  -6.67957E+5  -4.27694E+4
  -6.61347E+5  -5.34809E+4
  -6.54138E+5  -6.36814E+4
  -6.46840E+5  -7.30941E+4
  -6.40050E+5  -8.18754E+4
  -6.33002E+5  -9.11582E+4
  -6.25638E+5  -1.00354E+5
  -6.18148E+5  -1.08851E+5
  -6.11338E+5  -1.16588E+5
  -6.04449E+5  -1.25540E+5
  -5.97063E+5  -1.34303E+5
  -5.88730E+5  -1.42699E+5
  -5.80959E+5  -1.49667E+5
  -5.73281E+5  -1.56769E+5
  -5.66157E+5  -1.63840E+5
  -5.59117E+5  -1.71630E+5
  -5.50937E+5  -1.78654E+5
  -5.42572E+5  -1.85281E+5
  -5.34684E+5  -1.91702E+5
  -5.26761E+5  -1.97988E+5
  -5.18746E+5  -2.03840E+5
  -5.10720E+5  -2.09496E+5
  -5.02895E+5  -2.14577E+5
  -4.95591E+5  -2.19407E+5
  -4.88180E+5  -2.24318E+5
  -4.80179E+5  -2.29408E+5
  -4.72354E+5  -2.34318E+5
  -4.64610E+5  -2.38229E+5
  -4.57261E+5  -2.42421E+5
  -4.49520E+5  -2.46482E+5
  -4.41968E+5  -2.50305E+5
  -4.34640E+5  -2.54062E+5
  -4.26892E+5  -2.57695E+5
  -4.18938E+5  -2.61052E+5
  -4.11558E+5  -2.64286E+5
  -4.03932E+5  -2.66903E+5
  -3.96743E+5  -2.69232E+5
  -3.89389E+5  -2.72131E+5
  -3.82388E+5  -2.74976E+5
  -3.75271E+5  -2.77523E+5
  -3.68197E+5  -2.79429E+5
  -3.61164E+5  -2.81295E+5
  -3.54242E+5  -2.83217E+5
  -3.47107E+5  -2.85025E+5
  -3.40268E+5  -2.86911E+5
  -3.33200E+5  -2.88727E+5
  -3.26474E+5  -2.90261E+5
  -3.19437E+5  -2.92565E+5
  -3.12020E+5  -2.94127E+5
  -3.04464E+5  -2.95391E+5
  -2.97678E+5  -2.96261E+5
  -2.91580E+5  -2.97456E+5
  -2.84790E+5  -2.99358E+5
  -2.77567E+5  -3.00731E+5
  -2.70336E+5  -3.01814E+5
  -2.63708E+5  -3.02444E+5
  -2.57140E+5  -3.03282E+5
  -2.50527E+5  -3.03999E+5
  -2.43697E+5  -3.04234E+5
  -2.37730E+5  -3.04495E+5
  -2.31799E+5  -3.05277E+5
  -2.25642E+5  -3.06285E+5
  -2.18611E+5  -3.06964E+5
  -2.11477E+5  -3.07496E+5
  -2.04730E+5  -3.07757E+5
  -1.98452E+5  -3.07784E+5
  -1.92182E+5  -3.08101E+5
  -1.85834E+5  -3.08519E+5
  -1.79164E+5  -3.08412E+5
  -1.72857E+5  -3.08569E+5
  -1.66242E+5  -3.08854E+5
  -1.59474E+5  -3.08856E+5
  -1.52961E+5  -3.08221E+5
  -1.46850E+5  -3.07396E+5
  -1.41347E+5  -3.07039E+5
  -1.35451E+5  -3.07056E+5
  -1.29222E+5  -3.06381E+5
  -1.22923E+5  -3.05877E+5
  -1.17079E+5  -3.05006E+5
  -1.11068E+5  -3.04199E+5
  -1.05600E+5  -3.03362E+5
  -9.92091E+4  -3.02401E+5
  -9.36664E+4  -3.01148E+5
  -8.84370E+4  -2.99968E+5
  -8.29008E+4  -2.99113E+5
  -7.69964E+4  -2.98477E+5
  -7.11803E+4  -2.96645E+5
  -6.59193E+4  -2.95017E+5
  -6.10967E+4  -2.93373E+5
  -5.62745E+4  -2.91822E+5
  -5.11700E+4  -2.90221E+5
  -4.65323E+4  -2.88394E+5
  -4.16623E+4  -2.86764E+5
  -3.70469E+4  -2.85062E+5
  -3.21639E+4  -2.83409E+5
  -2.74160E+4  -2.81467E+5
  -2.30551E+4  -2.79068E+5
  -1.88001E+4  -2.76673E+5
  -1.51686E+4  -2.75012E+5
  -1.07400E+4  -2.73169E+5
  -6.47465E+3  -2.70684E+5
  -2.14300E+3  -2.68415E+5
   1.19961E+3  -2.66004E+5
   4.97285E+3  -2.63959E+5
   8.51924E+3  -2.61644E+5
   1.23974E+4  -2.59234E+5
   1.54472E+4  -2.56749E+5
   1.87597E+4  -2.54638E+5
   2.20504E+4  -2.52158E+5
   2.51993E+4  -2.49533E+5
   2.81347E+4  -2.47046E+5
   3.11855E+4  -2.44490E+5
   3.38103E+4  -2.42288E+5
   3.69122E+4  -2.39823E+5
   4.01227E+4  -2.37138E+5
   4.28968E+4  -2.34140E+5
   4.52283E+4  -2.31789E+5
   4.80044E+4  -2.29189E+5
   5.10376E+4  -2.26710E+5
   5.32368E+4  -2.23977E+5
   5.54260E+4  -2.21115E+5
   5.75366E+4  -2.18716E+5
   6.01613E+4  -2.16566E+5
   6.30078E+4  -2.13601E+5
   6.51250E+4  -2.10522E+5
   6.67312E+4  -2.07883E+5
   6.88088E+4  -2.05385E+5
   7.09885E+4  -2.02678E+5
   7.35956E+4  -2.00476E+5
   7.55724E+4  -1.97352E+5
   7.79762E+4  -1.94777E+5
   8.02185E+4  -1.91998E+5
   8.24505E+4  -1.88796E+5
   8.41942E+4  -1.85709E+5
   8.61091E+4  -1.82916E+5
   8.73624E+4  -1.80388E+5
   8.92466E+4  -1.77731E+5
   9.15451E+4  -1.74971E+5
   9.33379E+4  -1.71865E+5
   9.47780E+4  -1.68800E+5
   9.61097E+4  -1.66104E+5
   9.77724E+4  -1.63449E+5
   9.93463E+4  -1.60465E+5
   1.00880E+5  -1.57837E+5
   1.02162E+5  -1.55157E+5
   1.03822E+5  -1.52433E+5
   1.05203E+5  -1.49738E+5
   1.06521E+5  -1.46358E+5
   1.07724E+5  -1.43390E+5
   1.08872E+5  -1.40703E+5
   1.10292E+5  -1.38030E+5
   1.11148E+5  -1.35024E+5
   1.12432E+5  -1.32388E+5
   1.13335E+5  -1.29601E+5
   1.14299E+5  -1.26874E+5
   1.15336E+5  -1.24116E+5
   1.16168E+5  -1.21297E+5
   1.16939E+5  -1.18250E+5
   1.17142E+5  -1.15734E+5
   1.17905E+5  -1.13420E+5
   1.18920E+5  -1.10923E+5
   1.19799E+5  -1.08276E+5
   1.20124E+5  -1.05246E+5
   1.20482E+5  -1.02695E+5
   1.20834E+5  -9.99971E+4
   1.21381E+5  -9.72129E+4
   1.21976E+5  -9.47312E+4
   1.22145E+5  -9.23343E+4
   1.22294E+5  -8.99693E+4
   1.22863E+5  -8.73004E+4
   1.23148E+5  -8.48815E+4
   1.23023E+5  -8.23226E+4
   1.22890E+5  -8.01416E+4
   1.23258E+5  -7.77724E+4
   1.23566E+5  -7.54401E+4
   1.23601E+5  -7.27359E+4
   1.23269E+5  -7.00618E+4
   1.23133E+5  -6.80110E+4
   1.23095E+5  -6.59483E+4
   1.23138E+5  -6.36213E+4
   1.22742E+5  -6.13491E+4
   1.22368E+5  -5.92290E+4
   1.22471E+5  -5.71363E+4
   1.22332E+5  -5.51046E+4
   1.22292E+5  -5.26715E+4
   1.21542E+5  -5.01469E+4
   1.21169E+5  -4.84173E+4
   1.20619E+5  -4.66633E+4
   1.20316E+5  -4.44481E+4
   1.19850E+5  -4.24641E+4
   1.19418E+5  -4.02442E+4
   1.18700E+5  -3.83972E+4
   1.18568E+5  -3.66701E+4
   1.17750E+5  -3.44519E+4
   1.17119E+5  -3.23258E+4
   1.16227E+5  -3.04279E+4
   1.15802E+5  -2.90911E+4
   1.15440E+5  -2.71622E+4
   1.15032E+5  -2.52627E+4
   1.13976E+5  -2.29197E+4
   1.13205E+5  -2.16317E+4
   1.12335E+5  -2.00695E+4
   1.11651E+5  -1.82778E+4
   1.10669E+5  -1.67677E+4
   1.10021E+5  -1.52009E+4
   1.09108E+5  -1.35948E+4
   1.08794E+5  -1.17729E+4
   1.07661E+5  -1.00788E+4
   1.06945E+5  -8.31338E+3
   1.05779E+5  -6.98234E+3
   1.04590E+5  -5.48617E+3
   1.03941E+5  -4.10292E+3
   1.03213E+5  -2.62900E+3
   1.02030E+5  -1.24231E+3
   1.01185E+5   4.51612E+1
   1.00004E+5   1.54827E+3
   9.90823E+4   2.74464E+3
   9.79049E+4   3.96556E+3
   9.67379E+4   5.33857E+3
   9.56145E+4   6.57660E+3
   9.47777E+4   7.59340E+3
   9.41865E+4   9.01889E+3
   9.29404E+4   1.04278E+4
   9.16089E+4   1.13104E+4
   9.05971E+4   1.24100E+4
   8.95564E+4   1.35439E+4
   8.83504E+4   1.45548E+4
   8.72359E+4   1.55504E+4
   8.60290E+4   1.62996E+4
   8.50838E+4   1.72986E+4
   8.42838E+4   1.84617E+4
   8.28519E+4   1.95588E+4
   8.13394E+4   2.04621E+4
   8.03971E+4   2.11993E+4
   7.92917E+4   2.18204E+4
   7.83203E+4   2.26803E+4
   7.70900E+4   2.36940E+4
   7.59656E+4   2.44612E+4
