 
 $NMID
 ID=''
 FMTDAT='(2E13.5)'
 TRAMP=   1.00000E+0
 VOLUME=   1.00000E+0
 $END
   4.99350E+5   4.92213E+5
   7.77801E+5   1.73389E+6
   9.71077E+5   1.58700E+6
   8.86587E+5   1.49854E+6
   9.57134E+5   1.54008E+6
   1.08076E+6   1.42788E+6
   1.08466E+6   1.34619E+6
   1.12388E+6   1.35356E+6
   1.16911E+6   1.28612E+6
   1.14871E+6   1.24122E+6
   1.17311E+6   1.23204E+6
   1.20403E+6   1.16971E+6
   1.19358E+6   1.12891E+6
   1.20679E+6   1.11981E+6
   1.21295E+6   1.07239E+6
   1.19956E+6   1.03685E+6
   1.22115E+6   1.01580E+6
   1.24018E+6   9.60544E+5
   1.23797E+6   9.10733E+5
   1.26090E+6   8.67253E+5
   1.27189E+6   8.12141E+5
   1.26525E+6   7.70675E+5
   1.27563E+6   7.34982E+5
   1.27893E+6   6.85041E+5
   1.26608E+6   6.49036E+5
   1.26711E+6   6.13423E+5
   1.26292E+6   5.78253E+5
   1.24735E+6   5.56541E+5
   1.23876E+6   5.31057E+5
   1.23107E+6   4.91082E+5
   1.22109E+6   4.60791E+5
   1.21599E+6   4.26892E+5
   1.20628E+6   3.85174E+5
   1.19602E+6   3.49814E+5
   1.18794E+6   3.11941E+5
   1.17661E+6   2.66421E+5
   1.16560E+6   2.27810E+5
   1.15650E+6   1.94801E+5
   1.13773E+6   1.63381E+5
   1.11981E+6   1.35116E+5
   1.10462E+6   1.09464E+5
   1.08557E+6   8.58823E+4
   1.06506E+6   6.43350E+4
   1.04836E+6   4.15113E+4
   1.02993E+6   2.19250E+4
   1.01140E+6   5.54612E+3
   9.92721E+5  -1.39165E+4
   9.72763E+5  -3.44731E+4
   9.52638E+5  -5.43227E+4
   9.33650E+5  -7.44180E+4
   9.12277E+5  -9.52735E+4
   8.92540E+5  -1.13992E+5
   8.72971E+5  -1.31341E+5
   8.52194E+5  -1.46822E+5
   8.30906E+5  -1.61206E+5
   8.11066E+5  -1.74587E+5
   7.91030E+5  -1.84054E+5
   7.69632E+5  -1.92480E+5
   7.48432E+5  -2.02134E+5
   7.29355E+5  -2.11599E+5
   7.10435E+5  -2.19041E+5
   6.90715E+5  -2.25621E+5
   6.70600E+5  -2.32770E+5
   6.51498E+5  -2.39465E+5
   6.32240E+5  -2.44842E+5
   6.12110E+5  -2.49676E+5
   5.92259E+5  -2.54719E+5
   5.73260E+5  -2.58961E+5
   5.55002E+5  -2.62220E+5
   5.37174E+5  -2.63871E+5
   5.19768E+5  -2.65240E+5
   5.02621E+5  -2.65799E+5
   4.85554E+5  -2.66191E+5
   4.69076E+5  -2.66342E+5
   4.52687E+5  -2.65528E+5
   4.36493E+5  -2.64617E+5
   4.20632E+5  -2.63357E+5
   4.05328E+5  -2.61668E+5
   3.90568E+5  -2.60379E+5
   3.75926E+5  -2.58014E+5
   3.61258E+5  -2.54998E+5
   3.47182E+5  -2.51788E+5
   3.33795E+5  -2.48188E+5
   3.21250E+5  -2.44096E+5
   3.08786E+5  -2.39387E+5
   2.96811E+5  -2.34651E+5
   2.85044E+5  -2.29701E+5
   2.73959E+5  -2.24862E+5
   2.63700E+5  -2.19582E+5
   2.53014E+5  -2.14317E+5
   2.42322E+5  -2.09486E+5
   2.32352E+5  -2.04896E+5
   2.22527E+5  -1.99843E+5
   2.12691E+5  -1.94830E+5
   2.03465E+5  -1.89620E+5
   1.94297E+5  -1.84872E+5
   1.85284E+5  -1.79439E+5
   1.76686E+5  -1.74486E+5
   1.68790E+5  -1.69023E+5
   1.61036E+5  -1.63404E+5
   1.53436E+5  -1.57882E+5
   1.46362E+5  -1.52599E+5
   1.39687E+5  -1.47577E+5
   1.33309E+5  -1.41559E+5
   1.26882E+5  -1.36239E+5
   1.20680E+5  -1.31301E+5
   1.15123E+5  -1.26205E+5
   1.09323E+5  -1.21225E+5
   1.03918E+5  -1.16286E+5
   9.84636E+4  -1.11100E+5
   9.37134E+4  -1.06581E+5
   8.91145E+4  -1.01962E+5
   8.42453E+4  -9.74800E+4
   7.96839E+4  -9.26790E+4
   7.57448E+4  -8.80953E+4
   7.16313E+4  -8.35534E+4
   6.76165E+4  -7.93091E+4
   6.40717E+4  -7.53284E+4
   6.00770E+4  -7.14107E+4
   5.65747E+4  -6.70198E+4
   5.29554E+4  -6.31282E+4
   4.96433E+4  -5.95783E+4
   4.62571E+4  -5.64616E+4
   4.33190E+4  -5.26746E+4
   3.99309E+4  -4.95704E+4
   3.70607E+4  -4.59741E+4
   3.44600E+4  -4.25792E+4
   3.14544E+4  -3.93534E+4
   2.90373E+4  -3.62479E+4
   2.61922E+4  -3.36556E+4
   2.36890E+4  -3.06777E+4
   2.12206E+4  -2.79608E+4
   1.87846E+4  -2.56857E+4
   1.67349E+4  -2.31943E+4
   1.41019E+4  -2.06299E+4
   1.16678E+4  -1.82658E+4
   9.30650E+3  -1.63074E+4
   7.12531E+3  -1.40781E+4
   5.02699E+3  -1.20407E+4
   2.73237E+3  -1.02312E+4
   6.84221E+2  -8.57816E+3
  -1.16942E+3  -6.74494E+3
  -3.11039E+3  -4.94658E+3
  -5.15639E+3  -3.41701E+3
  -7.08307E+3  -1.89516E+3
  -9.29465E+3  -3.03849E+2
  -1.08289E+4   8.35189E+2
  -1.31475E+4   2.34615E+3
  -1.48192E+4   3.36352E+3
  -1.67138E+4   4.57536E+3
  -1.83152E+4   5.45495E+3
  -1.99515E+4   6.49367E+3
  -2.15917E+4   7.70774E+3
  -2.33000E+4   9.16917E+3
  -2.47341E+4   9.83936E+3
  -2.64465E+4   1.05433E+4
  -2.76875E+4   1.13201E+4
  -2.90986E+4   1.21991E+4
  -3.05920E+4   1.29387E+4
  -3.17749E+4   1.36614E+4
  -3.32005E+4   1.41565E+4
  -3.44098E+4   1.47118E+4
  -3.55817E+4   1.51931E+4
  -3.65590E+4   1.58947E+4
  -3.77124E+4   1.60101E+4
  -3.85165E+4   1.70297E+4
  -3.95961E+4   1.72746E+4
  -4.06087E+4   1.77279E+4
  -4.15900E+4   1.79061E+4
  -4.21314E+4   1.80054E+4
  -4.27992E+4   1.84640E+4
  -4.35285E+4   1.87749E+4
  -4.42823E+4   1.91415E+4
  -4.48446E+4   1.89091E+4
  -4.54907E+4   1.88844E+4
  -4.58729E+4   1.92453E+4
  -4.66252E+4   1.94057E+4
  -4.71962E+4   1.92615E+4
  -4.74866E+4   1.91391E+4
  -4.75323E+4   1.91656E+4
  -4.80614E+4   1.87946E+4
  -4.85464E+4   1.87457E+4
  -4.85563E+4   1.83547E+4
  -4.87898E+4   1.81417E+4
  -4.89998E+4   1.77368E+4
  -4.89366E+4   1.75422E+4
  -4.88601E+4   1.70634E+4
  -4.90246E+4   1.67707E+4
  -4.89513E+4   1.62522E+4
  -4.88373E+4   1.60748E+4
  -4.91857E+4   1.54769E+4
  -4.89134E+4   1.51505E+4
  -4.90747E+4   1.44433E+4
  -4.88394E+4   1.34455E+4
  -4.87087E+4   1.27475E+4
  -4.85116E+4   1.20008E+4
  -4.85071E+4   1.12614E+4
  -4.84476E+4   1.06488E+4
  -4.80477E+4   9.65971E+3
  -4.79560E+4   9.15465E+3
  -4.79922E+4   8.01586E+3
  -4.77355E+4   7.09883E+3
  -4.72336E+4   6.11328E+3
  -4.71047E+4   5.65071E+3
  -4.66185E+4   4.71291E+3
  -4.65851E+4   3.74507E+3
  -4.60209E+4   2.60649E+3
  -4.58673E+4   1.83378E+3
  -4.57038E+4   9.27067E+2
  -4.54033E+4  -1.79472E+2
  -4.50797E+4  -1.12955E+3
  -4.45669E+4  -2.23590E+3
  -4.40501E+4  -3.05089E+3
  -4.38942E+4  -3.62504E+3
  -4.38201E+4  -4.92547E+3
  -4.32075E+4  -5.89625E+3
  -4.29108E+4  -6.65685E+3
  -4.26553E+4  -7.72235E+3
  -4.22672E+4  -8.46462E+3
  -4.19597E+4  -9.15681E+3
  -4.14056E+4  -1.01660E+4
  -4.12386E+4  -1.09989E+4
  -4.06992E+4  -1.16222E+4
  -4.05148E+4  -1.23279E+4
  -4.02370E+4  -1.33181E+4
  -3.96955E+4  -1.39255E+4
  -3.94112E+4  -1.44818E+4
  -3.87408E+4  -1.50601E+4
  -3.83168E+4  -1.59601E+4
  -3.81698E+4  -1.65209E+4
  -3.77306E+4  -1.70733E+4
  -3.73326E+4  -1.78289E+4
  -3.71791E+4  -1.83202E+4
  -3.65155E+4  -1.88999E+4
  -3.62817E+4  -1.95131E+4
  -3.58457E+4  -1.98893E+4
  -3.53862E+4  -2.04876E+4
  -3.52126E+4  -2.07902E+4
  -3.49226E+4  -2.12884E+4
  -3.43373E+4  -2.16744E+4
  -3.39948E+4  -2.20257E+4
  -3.35507E+4  -2.23727E+4
  -3.32642E+4  -2.27018E+4
  -3.30209E+4  -2.29977E+4
  -3.25081E+4  -2.31700E+4
  -3.19512E+4  -2.36875E+4
  -3.17965E+4  -2.35382E+4
  -3.12649E+4  -2.40863E+4
  -3.08248E+4  -2.41598E+4
  -3.03117E+4  -2.43981E+4
  -2.98422E+4  -2.46496E+4
  -2.96127E+4  -2.49317E+4
  -2.91026E+4  -2.50728E+4
  -2.88189E+4  -2.49738E+4
  -2.79067E+4  -2.53567E+4
  -2.78278E+4  -2.56437E+4
  -2.74161E+4  -2.57481E+4
  -2.68237E+4  -2.58048E+4
  -2.64675E+4  -2.57955E+4
  -2.59251E+4  -2.61845E+4
  -2.55464E+4  -2.63701E+4
  -2.48899E+4  -2.66402E+4
  -2.43624E+4  -2.67192E+4
  -2.41059E+4  -2.66581E+4
  -2.34729E+4  -2.64684E+4
  -2.29769E+4  -2.67121E+4
  -2.25775E+4  -2.67361E+4
  -2.22083E+4  -2.70502E+4
  -2.16682E+4  -2.71111E+4
  -2.09861E+4  -2.68888E+4
  -2.06557E+4  -2.70460E+4
  -1.99833E+4  -2.70672E+4
  -1.97019E+4  -2.69989E+4
  -1.88881E+4  -2.70368E+4
  -1.83880E+4  -2.71315E+4
  -1.80253E+4  -2.70087E+4
  -1.75678E+4  -2.70316E+4
  -1.69625E+4  -2.71825E+4
  -1.65701E+4  -2.71746E+4
  -1.60424E+4  -2.70591E+4
  -1.56928E+4  -2.72573E+4
  -1.49687E+4  -2.73691E+4
  -1.44824E+4  -2.71751E+4
  -1.41063E+4  -2.68838E+4
  -1.35397E+4  -2.71273E+4
  -1.31975E+4  -2.71172E+4
  -1.25845E+4  -2.70583E+4
  -1.22738E+4  -2.67807E+4
  -1.19745E+4  -2.63616E+4
  -1.14853E+4  -2.67358E+4
  -1.11029E+4  -2.65851E+4
  -1.06070E+4  -2.64378E+4
  -1.00426E+4  -2.62167E+4
  -9.80052E+3  -2.61894E+4
  -9.43356E+3  -2.61433E+4
  -9.07793E+3  -2.59261E+4
  -8.36509E+3  -2.59385E+4
  -8.22063E+3  -2.58131E+4
  -7.80779E+3  -2.59869E+4
  -7.34347E+3  -2.57570E+4
  -6.96045E+3  -2.54900E+4
  -6.53425E+3  -2.54468E+4
  -6.10493E+3  -2.53976E+4
  -5.82952E+3  -2.52267E+4
  -5.44477E+3  -2.50386E+4
  -5.37795E+3  -2.51091E+4
  -4.82425E+3  -2.49227E+4
  -4.57243E+3  -2.47079E+4
  -4.13816E+3  -2.47563E+4
  -3.93273E+3  -2.45638E+4
  -3.41910E+3  -2.45105E+4
  -3.49102E+3  -2.44506E+4
  -2.99918E+3  -2.41959E+4
  -2.55351E+3  -2.39871E+4
  -2.28435E+3  -2.41001E+4
  -1.93879E+3  -2.37881E+4
  -1.77001E+3  -2.39561E+4
  -1.51780E+3  -2.37745E+4
  -1.37592E+3  -2.36153E+4
  -1.20506E+3  -2.33944E+4
  -8.80212E+2  -2.32270E+4
  -6.02166E+2  -2.32132E+4
  -2.18635E+2  -2.30521E+4
   1.20024E+2  -2.31616E+4
   8.95888E+1  -2.28435E+4
   2.56134E+2  -2.27337E+4
   4.31024E+2  -2.28362E+4
   5.87630E+2  -2.25177E+4
   1.15779E+3  -2.26166E+4
   1.12762E+3  -2.24009E+4
   1.22698E+3  -2.22895E+4
   1.40618E+3  -2.19632E+4
   1.44061E+3  -2.20052E+4
   1.70495E+3  -2.18845E+4
   1.80440E+3  -2.18412E+4
   1.63132E+3  -2.15968E+4
   2.30446E+3  -2.14668E+4
   2.45809E+3  -2.13721E+4
   2.60452E+3  -2.10598E+4
   2.39588E+3  -2.11545E+4
   2.74260E+3  -2.09218E+4
   2.80922E+3  -2.07728E+4
   3.01059E+3  -2.07787E+4
   3.15542E+3  -2.06121E+4
   3.29703E+3  -2.03312E+4
   3.39319E+3  -2.01588E+4
   3.51606E+3  -2.00668E+4
   3.53076E+3  -2.00249E+4
   3.49630E+3  -1.99166E+4
   3.63320E+3  -1.96292E+4
   4.30480E+3  -1.98233E+4
   4.18498E+3  -1.95412E+4
   4.18343E+3  -1.91742E+4
   4.44743E+3  -1.92128E+4
   4.40718E+3  -1.90686E+4
   4.41744E+3  -1.87930E+4
   4.31100E+3  -1.87117E+4
   4.58193E+3  -1.86547E+4
   4.40045E+3  -1.85544E+4
   4.71921E+3  -1.84641E+4
   4.90985E+3  -1.82494E+4
   4.87762E+3  -1.81516E+4
   4.99183E+3  -1.78183E+4
   4.88081E+3  -1.77972E+4
   4.73371E+3  -1.76602E+4
   4.86828E+3  -1.75160E+4
   4.78980E+3  -1.73894E+4
