 LCModel (Version 6.3-1N) Copyright: S.W. Provencher.          Ref.: Magn. Reson. Med. 30:672-679 (1993).                
 Slice_N1@24_16  28-Feb-2025 11:43:23
 27 lines in following concentration table = NCONC+1
    Conc.  %SD /Cr+PCr  Metabolite                                         
 3.22E-04   5% 6.6E-03 Mac                                                 
    0.391 272%   8.000 Cr                                                  
    0.000 999%   0.000 PCr                                                 
    0.000 999%   0.000 Ins                                                 
    0.336 432%   6.870 NAA                                                 
    1.493 121%  30.526 Tau                                                 
    0.000 999%   0.000 PCho                                                
    1.405  28%  28.726 GPC                                                 
    6.555  26% 134.014 Glu                                                 
    3.500  41%  71.562 Gln                                                 
    0.000 999%   0.000 Ala                                                 
    0.000 999%   0.000 Asc                                                 
    0.394 101%   8.057 Asp                                                 
    0.208 115%   4.252 GABA                                                
    0.267  90%   5.461 Glc                                                 
    4.880  18%  99.785 GSH                                                 
   19.695   7% 402.694 Lac                                                 
    2.233  58%  45.658 NAAG                                                
    0.000 999%   0.000 PE                                                  
    1.405  28%  28.726 GPC+PCho                                            
    2.569  49%  52.528 NAA+NAAG                                            
   10.055  21% 205.576 Glu+Gln                                             
    0.391 272%   8.000 Cr+PCr                                              
    2.569  49%  52.528 NAA+NAAG                                            
    0.391 272%   8.000 Cr+PCr                                              
   10.055  21% 205.576 Glu+Gln                                             
   6 lines in following misc. output table
  FWHM = 0.114 ppm    S/N =   2                                            
  Data shift =-0.089 ppm                                                   
  Ph: -99 deg       0.0 deg/ppm                                            
  alphaB,S = 1.1E-01,   5.0E+01                                            
   19 spline knots.   Ns = 9(1)                                            
  (10) 6 infls.   (11) 3 extrs.                                            
  480 points on ppm-axis = NY
      4.100000     4.091866     4.083733     4.075600     4.067466     4.059333     4.051199     4.043066     4.034933     4.026799
      4.018666     4.010532     4.002399     3.994265     3.986132     3.977998     3.969864     3.961731     3.953597     3.945463
      3.937330     3.929196     3.921062     3.912929     3.904795     3.896662     3.888528     3.880394     3.872261     3.864127
      3.855993     3.847860     3.839726     3.831592     3.823459     3.815325     3.807191     3.799058     3.790924     3.782790
      3.774657     3.766523     3.758389     3.750256     3.742122     3.733989     3.725855     3.717721     3.709588     3.701454
      3.693320     3.685187     3.677053     3.668919     3.660786     3.652652     3.644518     3.636385     3.628251     3.620117
      3.611984     3.603850     3.595716     3.587583     3.579449     3.571316     3.563182     3.555048     3.546915     3.538781
      3.530647     3.522514     3.514380     3.506246     3.498113     3.489979     3.481845     3.473712     3.465578     3.457444
      3.449311     3.441177     3.433043     3.424910     3.416776     3.408643     3.400509     3.392375     3.384242     3.376108
      3.367974     3.359841     3.351707     3.343573     3.335440     3.327306     3.319172     3.311039     3.302905     3.294771
      3.286638     3.278504     3.270370     3.262237     3.254103     3.245970     3.237836     3.229702     3.221569     3.213435
      3.205301     3.197168     3.189034     3.180900     3.172767     3.164633     3.156499     3.148366     3.140232     3.132098
      3.123965     3.115831     3.107697     3.099564     3.091430     3.083297     3.075163     3.067029     3.058896     3.050762
      3.042628     3.034495     3.026361     3.018227     3.010094     3.001960     2.993826     2.985693     2.977559     2.969425
      2.961292     2.953158     2.945024     2.936891     2.928757     2.920624     2.912490     2.904356     2.896223     2.888089
      2.879955     2.871822     2.863688     2.855554     2.847421     2.839287     2.831153     2.823020     2.814886     2.806752
      2.798619     2.790485     2.782351     2.774218     2.766084     2.757951     2.749817     2.741683     2.733550     2.725416
      2.717282     2.709149     2.701015     2.692881     2.684748     2.676614     2.668480     2.660347     2.652213     2.644079
      2.635946     2.627812     2.619678     2.611545     2.603411     2.595278     2.587144     2.579010     2.570877     2.562743
      2.554609     2.546476     2.538342     2.530208     2.522075     2.513941     2.505807     2.497674     2.489540     2.481406
      2.473273     2.465139     2.457006     2.448872     2.440738     2.432605     2.424471     2.416337     2.408204     2.400070
      2.391936     2.383803     2.375669     2.367535     2.359402     2.351268     2.343134     2.335001     2.326867     2.318733
      2.310600     2.302466     2.294333     2.286199     2.278065     2.269932     2.261798     2.253664     2.245531     2.237397
      2.229263     2.221130     2.212996     2.204862     2.196729     2.188595     2.180461     2.172328     2.164194     2.156060
      2.147927     2.139793     2.131660     2.123526     2.115392     2.107259     2.099125     2.090991     2.082858     2.074724
      2.066590     2.058457     2.050323     2.042189     2.034056     2.025922     2.017788     2.009655     2.001521     1.993387
      1.985254     1.977120     1.968987     1.960853     1.952719     1.944586     1.936452     1.928318     1.920185     1.912051
      1.903917     1.895784     1.887650     1.879516     1.871383     1.863249     1.855115     1.846982     1.838848     1.830714
      1.822581     1.814447     1.806314     1.798180     1.790046     1.781913     1.773779     1.765645     1.757512     1.749378
      1.741244     1.733111     1.724977     1.716843     1.708710     1.700576     1.692442     1.684309     1.676175     1.668041
      1.659908     1.651774     1.643641     1.635507     1.627373     1.619240     1.611106     1.602972     1.594839     1.586705
      1.578571     1.570438     1.562304     1.554170     1.546037     1.537903     1.529769     1.521636     1.513502     1.505368
      1.497235     1.489101     1.480968     1.472834     1.464700     1.456567     1.448433     1.440299     1.432166     1.424032
      1.415898     1.407765     1.399631     1.391497     1.383364     1.375230     1.367096     1.358963     1.350829     1.342695
      1.334562     1.326428     1.318295     1.310161     1.302027     1.293894     1.285760     1.277626     1.269493     1.261359
      1.253225     1.245092     1.236958     1.228824     1.220691     1.212557     1.204423     1.196290     1.188156     1.180022
      1.171889     1.163755     1.155622     1.147488     1.139354     1.131221     1.123087     1.114953     1.106820     1.098686
      1.090552     1.082419     1.074285     1.066151     1.058018     1.049884     1.041750     1.033617     1.025483     1.017349
      1.009216     1.001082     0.992949     0.984815     0.976681     0.968548     0.960414     0.952280     0.944147     0.936013
      0.927879     0.919746     0.911612     0.903478     0.895345     0.887211     0.879077     0.870944     0.862810     0.854676
      0.846543     0.838409     0.830276     0.822142     0.814008     0.805875     0.797741     0.789607     0.781474     0.773340
      0.765206     0.757073     0.748939     0.740805     0.732672     0.724538     0.716404     0.708271     0.700137     0.692003
      0.683870     0.675736     0.667603     0.659469     0.651335     0.643202     0.635068     0.626934     0.618801     0.610667
      0.602533     0.594400     0.586266     0.578132     0.569999     0.561865     0.553731     0.545598     0.537464     0.529330
      0.521197     0.513063     0.504930     0.496796     0.488662     0.480529     0.472395     0.464261     0.456128     0.447994
      0.439861     0.431727     0.423593     0.415460     0.407326     0.399192     0.391059     0.382925     0.374792     0.366658
      0.358524     0.350391     0.342257     0.334124     0.325990     0.317856     0.309723     0.301589     0.293455     0.285322
      0.277188     0.269055     0.260921     0.252787     0.244654     0.236520     0.228386     0.220253     0.212119     0.203986
 NY phased data points follow
  -3.00293E+01 -4.65137E+00 -2.24390E+01 -3.38551E+01 -2.30639E+01 -1.53936E+01 -2.14286E+01 -4.69957E+01 -4.25039E+01 -2.04239E+01
  -1.21678E+01 -2.46264E+01 -4.51493E+01 -4.20941E+01 -4.66206E+01 -5.32186E+01 -4.28015E+01 -5.04974E+01 -4.20089E+01 -4.65727E+01
  -4.82656E+01 -3.78592E+01 -5.61622E+01 -4.04953E+01 -4.51670E+01 -4.83313E+01 -5.13260E+01 -6.68517E+01 -4.72390E+01 -8.71195E+01
  -9.56779E+01 -7.84058E+01 -9.08120E+01 -7.91702E+01 -1.06295E+02 -1.01753E+02 -8.64847E+01 -9.86931E+01 -8.10422E+01 -8.70714E+01
  -7.33928E+01 -6.48402E+01 -7.37920E+01 -5.50518E+01 -5.78337E+01 -4.30633E+01 -3.37130E+01 -3.51162E+01 -4.05699E+01 -5.06388E+01
  -2.17004E+01 -2.86073E+01 -2.79370E+01 -2.65737E+01 -4.73905E+01 -3.74322E+01 -4.58751E+01 -4.13919E+01 -3.49552E+01 -2.75743E+01
  -1.62381E+01 -1.50225E+01 -2.95642E+00 -6.75866E+00 -1.23200E+01 -1.55510E+01  3.39683E+00 -3.19610E+00 -1.44884E+01 -4.56286E+00
  -1.44177E+01 -3.09614E-01 -1.49690E+01 -2.92948E+01 -2.25459E+01 -1.65372E+01 -4.67143E+00 -1.16569E+01  2.14652E-01  1.49208E+01
   5.06761E+00  1.16147E+00  2.15707E+01  1.80558E+00 -6.82792E+00  1.72620E+01 -1.35829E+00 -1.62098E+01  4.90948E+00  1.72873E+01
  -1.55296E+00 -1.69469E+00 -8.24234E-01  1.84097E+01  1.65736E+01  1.94279E+01  2.68731E+01 -1.95816E+01  1.62386E+01  1.35142E+01
  -1.58060E+01 -3.29133E+00 -5.65157E+00 -3.95871E+00 -2.30481E+01 -1.94232E+01 -4.10744E+01 -4.61107E+01 -4.25646E+01 -5.71633E+01
  -5.47578E+01 -6.28801E+01 -6.63379E+01 -8.65025E+01 -8.46156E+01 -7.58962E+01 -6.42559E+01 -5.06202E+01 -5.77010E+01 -3.96417E+01
  -2.62692E+01 -2.78538E+01  1.46043E+01  3.67821E+01 -1.09662E+01 -1.56071E+01  1.17708E+01  1.34283E+01  1.26141E+01  4.16939E+00
  -9.76500E+00 -6.91614E-01 -7.26374E+00 -3.17476E+01 -3.37712E+01 -3.97961E+01 -4.86052E+01 -6.68527E+01 -4.84243E+01 -5.28469E+01
  -7.11232E+01 -3.63298E+01 -5.60962E+01 -5.97056E+01 -2.47150E+01 -7.77331E+00 -2.66942E+01 -7.24080E+01 -7.16898E+01 -5.21132E+01
  -4.11878E+01 -5.99321E+01 -6.69043E+01 -4.99043E+01 -4.59147E+01 -3.18261E+01 -3.75331E+01 -2.64462E+01 -1.26384E+01 -2.73609E+01
  -2.63722E+01 -3.15693E+01 -2.45423E+01 -1.81984E+01 -1.91420E+01 -2.39350E+01 -1.26086E+01 -3.40865E+00 -4.13919E+01 -3.57366E+01
  -1.27084E+01 -1.70689E+01 -3.54588E+01 -3.77947E+01 -1.82352E+01 -2.30807E+01 -2.96686E+01 -3.35765E+01 -4.04727E+01 -4.30940E+01
  -3.20614E+01 -3.55998E+01 -3.61593E+01 -4.09145E+01 -3.56730E+01 -3.86222E+01 -4.75426E+01 -1.09402E+01 -2.86553E+01 -3.76079E+01
  -3.43127E+01 -2.19054E+01 -1.94465E+01 -4.20159E+01 -2.37679E+01 -2.90018E+01 -1.06011E+01 -1.96185E+01 -1.50252E+01 -9.80033E-01
  -2.58198E+01 -2.28944E+01 -1.59203E+01 -8.77789E+00 -1.47070E+01 -6.19127E+00 -1.91171E+01 -1.24812E+01 -1.47261E+01 -2.26418E+01
  -1.74582E+01 -1.48208E+01  2.28217E+01 -1.55859E+00  2.55902E+00 -7.54956E-01 -1.21226E+01 -3.26714E+00 -1.72958E+01  1.26163E+01
   9.68635E+00  1.60706E-01 -3.15389E+00  5.09703E-01 -9.58376E+00 -3.18691E+01 -7.15124E+00  2.90109E-02 -1.10720E+01 -1.09429E+01
  -3.15525E+00  3.37241E+00  4.85498E+00 -1.05835E+01 -2.70144E+01 -2.78835E+01 -1.97310E+01 -1.15181E+01 -1.91089E+01 -1.90166E+01
  -1.07144E+01 -9.83797E+00  6.52906E+00  7.81045E+00 -6.85413E+00  7.28386E+00  1.07515E+01  2.33571E+00  2.20709E+00  1.37654E+01
   8.91625E+00  4.12920E+00  1.57345E+01  9.64272E+00  1.68626E+01  2.52618E+01  3.74896E+01  4.51808E+01  5.18902E+01  6.85126E+01
   9.30023E+01  1.04455E+02  9.71532E+01  1.03227E+02  1.01099E+02  9.07764E+01  8.43417E+01  1.04608E+02  9.07189E+01  8.58596E+01
   4.19168E+01  5.23140E+00  9.20094E+01  9.74821E+01  9.81588E+01  8.36569E+01  6.18788E+01  7.00881E+01  4.89988E+01  6.90465E+01
   5.37730E+01  6.75679E+01  7.39914E+01  6.09615E+01  5.85688E+01  4.25095E+01  3.87577E+01  2.18615E+01  3.02379E+01  2.13144E+01
   2.67911E+01  3.23653E+01  1.20256E+01 -4.42610E+00  3.18900E+00  2.78622E+01  7.39547E+00  7.47064E+00  1.41643E+00 -3.25022E+00
   1.44818E+01 -9.01137E+00 -2.08854E+01  1.03191E+00  1.53337E+01  6.33779E+00  7.48098E+00  1.44123E+01  9.02594E+00  1.82481E+01
   2.57978E+01  2.01625E+01  9.23568E+00  6.89065E+00  2.30263E+01  1.11452E+01  3.78915E+00  1.04674E+01 -8.47910E+00 -1.09789E-01
   1.62572E+01  5.90023E+00  7.67460E-01  4.24839E+00 -1.74166E+01 -3.56255E+01 -1.49227E+01 -7.08512E+00  1.87876E+00  1.81943E+01
   8.78913E+00  1.03360E+01  1.61009E+01  1.03838E+01  1.92562E+01  3.29252E+01  2.75045E+01  1.47820E+01  2.49814E+01  3.51208E+01
   3.18755E+01  2.50252E+01  2.34157E+01  2.30490E+01  3.68526E+00  3.20886E+00 -2.71858E+00 -4.58520E+01 -5.77104E+01 -6.11409E+01
  -8.49865E+01 -7.18226E+01 -9.08468E+01 -1.23320E+02 -1.18553E+02 -1.37419E+02 -1.32162E+02 -1.40062E+02 -1.49185E+02 -1.31578E+02
  -1.15438E+02 -9.34793E+01 -9.18702E+01 -7.54670E+01 -6.26896E+01 -4.93487E+01 -4.43030E+01 -2.82715E+01  1.88554E+00 -1.34623E+01
  -1.40608E+01  4.08829E+00  7.79108E+00  1.22846E+01  3.56577E+01  3.39582E+01  2.68939E+01  4.74801E+01  5.02197E+01  4.57796E+01
   4.68102E+01  4.87073E+01  6.31145E+01  7.06851E+01  4.75885E+01  5.66256E+01  7.01136E+01  6.50892E+01  5.79052E+01  6.08550E+01
   6.85784E+01  3.53082E+01  3.43293E+01  2.89405E+01  2.71114E+01  3.46803E+01  9.84082E+00  1.35476E-01 -2.52148E-01  1.11586E+01
  -8.08630E+00 -1.78820E+01 -1.19427E+01 -2.54535E+01 -3.30847E+01 -4.30191E+01 -5.84313E+01 -6.47692E+01 -5.60112E+01 -6.68901E+01
  -6.62920E+01 -5.97453E+01 -7.11064E+01 -7.43558E+01 -5.61261E+01 -5.25066E+01 -6.73848E+01 -7.05051E+01 -7.00682E+01 -5.31247E+01
  -5.79008E+01 -5.28527E+01 -4.38982E+01 -4.99205E+01 -4.96469E+01 -6.49448E+01 -4.67643E+01 -3.50012E+01 -5.38943E+01 -5.25657E+01
  -4.68126E+01 -5.39119E+01 -4.33992E+01 -4.20292E+01 -5.02442E+01 -4.74916E+01 -4.72169E+01 -3.83914E+01 -5.44795E+01 -5.37663E+01
  -4.25019E+01 -3.45649E+01 -3.36692E+01 -3.67925E+01 -2.56364E+01 -4.33390E+01 -3.88480E+01 -3.98147E+01 -2.93593E+01 -3.26773E+01
  -5.42521E+01 -2.57382E+01 -2.80919E+01 -2.62116E+01 -2.53364E+01 -3.81439E+01 -3.32669E+01 -1.79595E+01 -1.99120E+01 -2.35421E+01
  -1.53674E+01 -3.22209E+01 -2.18481E+01 -3.34260E+01 -3.52994E+01 -2.65127E+01 -4.00369E+01 -2.80422E+01 -3.72019E+01 -2.79750E+01
  -2.67674E+01 -3.02522E+01 -2.67353E+01 -3.63178E+01 -2.70946E+01 -3.39304E+01 -5.14128E+01 -4.26493E+01 -1.52277E+01 -2.40063E+01
 NY points of the fit to the data follow
  -6.93559E+01 -6.76651E+01 -6.55228E+01 -6.30306E+01 -6.03245E+01 -5.74575E+01 -5.43385E+01 -5.09510E+01 -4.74284E+01 -4.42254E+01
  -4.14012E+01 -4.01103E+01 -4.01940E+01 -4.15181E+01 -4.41776E+01 -4.64858E+01 -4.87132E+01 -5.01345E+01 -5.08713E+01 -5.10490E+01
  -5.07365E+01 -4.98487E+01 -4.84247E+01 -4.67088E+01 -4.50770E+01 -4.37585E+01 -4.26194E+01 -4.16977E+01 -4.10950E+01 -4.09241E+01
  -4.16362E+01 -4.30060E+01 -4.47812E+01 -4.69472E+01 -4.93705E+01 -5.17495E+01 -5.40443E+01 -5.61749E+01 -5.80579E+01 -5.97556E+01
  -6.10719E+01 -6.16307E+01 -6.13609E+01 -6.05071E+01 -5.95034E+01 -5.83428E+01 -5.58742E+01 -5.07256E+01 -4.29390E+01 -3.46217E+01
  -2.98459E+01 -2.68850E+01 -2.47786E+01 -2.31678E+01 -2.23297E+01 -2.20286E+01 -2.21590E+01 -2.22199E+01 -2.20633E+01 -2.17080E+01
  -2.11094E+01 -1.99804E+01 -1.80968E+01 -1.58090E+01 -1.37469E+01 -1.22898E+01 -1.12621E+01 -1.03580E+01 -9.44824E+00 -8.56204E+00
  -7.71266E+00 -6.85249E+00 -5.90814E+00 -4.97812E+00 -4.09882E+00 -3.32970E+00 -2.70177E+00 -2.39479E+00 -2.41034E+00 -2.59088E+00
  -2.82472E+00 -3.05998E+00 -3.21781E+00 -3.29924E+00 -3.28465E+00 -3.22380E+00 -3.13224E+00 -3.00750E+00 -2.86676E+00 -2.71120E+00
  -2.52075E+00 -2.18637E+00 -1.65655E+00 -9.26672E-01 -2.78506E-01  6.39455E-02 -3.79297E-02 -6.82315E-01 -1.59806E+00 -2.60433E+00
  -4.28729E+00 -6.84885E+00 -1.01272E+01 -1.39754E+01 -1.81960E+01 -2.25622E+01 -2.68936E+01 -3.10127E+01 -3.48091E+01 -3.85908E+01
  -4.25245E+01 -4.62148E+01 -4.89770E+01 -5.02329E+01 -5.04181E+01 -5.05402E+01 -5.12783E+01 -5.13055E+01 -4.80895E+01 -4.04368E+01
  -3.36072E+01 -2.84644E+01 -2.44411E+01 -2.12270E+01 -1.87270E+01 -1.68545E+01 -1.56410E+01 -1.51429E+01 -1.52632E+01 -1.59133E+01
  -1.70196E+01 -1.87060E+01 -2.11722E+01 -2.43294E+01 -2.77559E+01 -3.07049E+01 -3.28578E+01 -3.45908E+01 -3.63121E+01 -3.81251E+01
  -4.00268E+01 -4.18834E+01 -4.33844E+01 -4.45397E+01 -4.54643E+01 -4.62507E+01 -4.71649E+01 -4.83676E+01 -4.93022E+01 -4.97771E+01
  -4.94886E+01 -4.86085E+01 -4.75399E+01 -4.59997E+01 -4.43855E+01 -4.29433E+01 -4.15985E+01 -4.02752E+01 -3.88749E+01 -3.75301E+01
  -3.63035E+01 -3.51712E+01 -3.40931E+01 -3.31088E+01 -3.22695E+01 -3.15643E+01 -3.08616E+01 -3.01728E+01 -2.95938E+01 -2.92372E+01
  -2.91073E+01 -2.91116E+01 -2.91766E+01 -2.92714E+01 -2.94403E+01 -2.97342E+01 -3.01224E+01 -3.04112E+01 -3.05111E+01 -3.05553E+01
  -3.07512E+01 -3.09778E+01 -3.08479E+01 -3.00621E+01 -2.87434E+01 -2.71943E+01 -2.55063E+01 -2.37728E+01 -2.19309E+01 -1.99163E+01
  -1.78634E+01 -1.58687E+01 -1.40878E+01 -1.25333E+01 -1.12261E+01 -1.01226E+01 -9.15940E+00 -8.49008E+00 -8.05276E+00 -8.07597E+00
  -8.74011E+00 -9.60624E+00 -1.08178E+01 -1.20612E+01 -1.31542E+01 -1.42513E+01 -1.50515E+01 -1.55209E+01 -1.55878E+01 -1.50599E+01
  -1.38731E+01 -1.21507E+01 -1.03475E+01 -8.69221E+00 -6.99241E+00 -5.12022E+00 -3.17950E+00 -8.75512E-01  1.65337E+00  4.26084E+00
   6.73748E+00  8.85749E+00  1.06013E+01  1.15245E+01  1.11401E+01  9.22948E+00  5.00481E+00 -5.95214E-01 -7.07534E+00 -1.43467E+01
  -2.10960E+01 -2.73402E+01 -3.30749E+01 -3.80921E+01 -4.21990E+01 -4.52078E+01 -4.70306E+01 -4.75979E+01 -4.69138E+01 -4.49304E+01
  -4.17107E+01 -3.73557E+01 -3.20441E+01 -2.61872E+01 -1.97847E+01 -1.32524E+01 -6.64109E+00 -3.78986E-02  5.99300E+00  1.19856E+01
   1.75994E+01  2.32516E+01  2.85822E+01  3.39293E+01  3.92384E+01  4.46239E+01  4.98602E+01  5.46422E+01  5.90821E+01  6.33070E+01
   6.74163E+01  7.12777E+01  7.41583E+01  7.42808E+01  7.24838E+01  7.06079E+01  6.89113E+01  6.71443E+01  6.51903E+01  6.33542E+01
   6.15923E+01  5.99120E+01  5.83370E+01  5.68140E+01  5.53291E+01  5.38796E+01  5.24608E+01  5.10089E+01  4.94858E+01  4.78829E+01
   4.61156E+01  4.42227E+01  4.21511E+01  3.98702E+01  3.73828E+01  3.46934E+01  3.19652E+01  2.92409E+01  2.65838E+01  2.40204E+01
   2.16203E+01  1.94791E+01  1.76341E+01  1.60901E+01  1.49358E+01  1.42010E+01  1.39710E+01  1.42753E+01  1.50875E+01  1.64584E+01
   1.83475E+01  2.06234E+01  2.31063E+01  2.56496E+01  2.81570E+01  3.06282E+01  3.30244E+01  3.52783E+01  3.73168E+01  3.91421E+01
   4.07155E+01  4.20326E+01  4.30727E+01  4.37970E+01  4.41072E+01  4.39060E+01  4.31756E+01  4.18945E+01  4.00274E+01  3.75492E+01
   3.44609E+01  3.08481E+01  2.68450E+01  2.25903E+01  1.82712E+01  1.40977E+01  1.01597E+01  6.56720E+00  3.50619E+00  1.16349E+00
  -3.46633E-01 -7.71991E-01  2.76870E-01  3.43014E+00  8.39723E+00  1.38462E+01  1.90775E+01  2.23657E+01  2.33353E+01  2.21510E+01
   1.92226E+01  1.49060E+01  9.61454E+00  3.22322E+00 -4.71342E+00 -1.43751E+01 -2.57959E+01 -3.84731E+01 -5.17728E+01 -6.62873E+01
  -8.30594E+01 -1.01512E+02 -1.18037E+02 -1.26178E+02 -1.24877E+02 -1.17473E+02 -1.03574E+02 -9.32898E+01 -8.54697E+01 -7.88180E+01
  -7.26268E+01 -6.66063E+01 -6.06705E+01 -5.47995E+01 -4.89891E+01 -4.32596E+01 -3.76075E+01 -3.20096E+01 -2.64696E+01 -2.09410E+01
  -1.53677E+01 -9.64085E+00 -3.72949E+00  2.42222E+00  8.79931E+00  1.53425E+01  2.19547E+01  2.84911E+01  3.47688E+01  4.06023E+01
   4.58600E+01  5.04267E+01  5.41796E+01  5.70769E+01  5.89828E+01  5.97458E+01  5.92787E+01  5.75438E+01  5.44053E+01  4.98354E+01
   4.39320E+01  3.68712E+01  2.88821E+01  2.03581E+01  1.17659E+01  3.58109E+00 -4.00501E+00 -1.09665E+01 -1.74268E+01 -2.34372E+01
  -2.90649E+01 -3.43590E+01 -3.91735E+01 -4.33475E+01 -4.67721E+01 -4.94714E+01 -5.14347E+01 -5.28083E+01 -5.37624E+01 -5.43693E+01
  -5.46750E+01 -5.48042E+01 -5.48117E+01 -5.47429E+01 -5.45630E+01 -5.42986E+01 -5.39508E+01 -5.35437E+01 -5.31137E+01 -5.26547E+01
  -5.21668E+01 -5.16629E+01 -5.12064E+01 -5.07421E+01 -5.02307E+01 -4.96820E+01 -4.91767E+01 -4.87054E+01 -4.81775E+01 -4.76416E+01
  -4.71132E+01 -4.65978E+01 -4.60543E+01 -4.54946E+01 -4.49511E+01 -4.44550E+01 -4.39977E+01 -4.35199E+01 -4.30173E+01 -4.24868E+01
  -4.19486E+01 -4.14136E+01 -4.09228E+01 -4.04417E+01 -3.99638E+01 -3.95030E+01 -3.90306E+01 -3.85700E+01 -3.81190E+01 -3.76771E+01
  -3.71964E+01 -3.66886E+01 -3.61652E+01 -3.56795E+01 -3.52243E+01 -3.47702E+01 -3.43252E+01 -3.38517E+01 -3.33312E+01 -3.28345E+01
  -3.23801E+01 -3.19520E+01 -3.15339E+01 -3.11401E+01 -3.07367E+01 -3.03574E+01 -2.99816E+01 -2.96294E+01 -2.92532E+01 -2.88919E+01
  -2.85177E+01 -2.81334E+01 -2.77439E+01 -2.73757E+01 -2.70551E+01 -2.67433E+01 -2.63842E+01 -2.59493E+01 -2.54534E+01 -2.49283E+01
 NY background values follow
    -2.994E+01   -3.021E+01   -3.047E+01   -3.073E+01   -3.099E+01   -3.125E+01   -3.152E+01   -3.178E+01   -3.204E+01   -3.229E+01
    -3.255E+01   -3.280E+01   -3.305E+01   -3.330E+01   -3.354E+01   -3.378E+01   -3.402E+01   -3.425E+01   -3.447E+01   -3.469E+01
    -3.491E+01   -3.511E+01   -3.532E+01   -3.551E+01   -3.569E+01   -3.587E+01   -3.604E+01   -3.620E+01   -3.636E+01   -3.650E+01
    -3.663E+01   -3.675E+01   -3.687E+01   -3.697E+01   -3.706E+01   -3.715E+01   -3.722E+01   -3.728E+01   -3.734E+01   -3.738E+01
    -3.742E+01   -3.744E+01   -3.746E+01   -3.746E+01   -3.746E+01   -3.745E+01   -3.743E+01   -3.740E+01   -3.736E+01   -3.731E+01
    -3.726E+01   -3.719E+01   -3.712E+01   -3.703E+01   -3.694E+01   -3.684E+01   -3.673E+01   -3.662E+01   -3.649E+01   -3.636E+01
    -3.622E+01   -3.607E+01   -3.591E+01   -3.575E+01   -3.558E+01   -3.540E+01   -3.521E+01   -3.502E+01   -3.482E+01   -3.461E+01
    -3.440E+01   -3.418E+01   -3.396E+01   -3.372E+01   -3.349E+01   -3.325E+01   -3.300E+01   -3.275E+01   -3.249E+01   -3.223E+01
    -3.196E+01   -3.169E+01   -3.141E+01   -3.113E+01   -3.085E+01   -3.057E+01   -3.028E+01   -2.998E+01   -2.969E+01   -2.939E+01
    -2.908E+01   -2.878E+01   -2.847E+01   -2.816E+01   -2.785E+01   -2.754E+01   -2.722E+01   -2.690E+01   -2.658E+01   -2.626E+01
    -2.594E+01   -2.561E+01   -2.529E+01   -2.496E+01   -2.463E+01   -2.430E+01   -2.397E+01   -2.363E+01   -2.330E+01   -2.296E+01
    -2.263E+01   -2.229E+01   -2.195E+01   -2.162E+01   -2.128E+01   -2.094E+01   -2.060E+01   -2.026E+01   -1.992E+01   -1.958E+01
    -1.924E+01   -1.890E+01   -1.856E+01   -1.822E+01   -1.788E+01   -1.754E+01   -1.720E+01   -1.686E+01   -1.653E+01   -1.619E+01
    -1.586E+01   -1.552E+01   -1.519E+01   -1.486E+01   -1.453E+01   -1.420E+01   -1.388E+01   -1.355E+01   -1.323E+01   -1.291E+01
    -1.259E+01   -1.228E+01   -1.197E+01   -1.165E+01   -1.135E+01   -1.104E+01   -1.074E+01   -1.044E+01   -1.014E+01   -9.851E+00
    -9.562E+00   -9.275E+00   -8.992E+00   -8.713E+00   -8.437E+00   -8.164E+00   -7.894E+00   -7.628E+00   -7.366E+00   -7.106E+00
    -6.850E+00   -6.597E+00   -6.348E+00   -6.102E+00   -5.860E+00   -5.620E+00   -5.384E+00   -5.152E+00   -4.923E+00   -4.697E+00
    -4.474E+00   -4.255E+00   -4.039E+00   -3.826E+00   -3.617E+00   -3.411E+00   -3.208E+00   -3.009E+00   -2.813E+00   -2.620E+00
    -2.431E+00   -2.245E+00   -2.062E+00   -1.883E+00   -1.708E+00   -1.536E+00   -1.368E+00   -1.203E+00   -1.043E+00   -8.869E-01
    -7.348E-01   -5.869E-01   -4.432E-01   -3.039E-01   -1.691E-01   -3.882E-02    8.683E-02    2.078E-01    3.239E-01    4.351E-01
     5.414E-01    6.426E-01    7.386E-01    8.295E-01    9.150E-01    9.951E-01    1.070E+00    1.139E+00    1.202E+00    1.260E+00
     1.311E+00    1.357E+00    1.397E+00    1.430E+00    1.457E+00    1.477E+00    1.490E+00    1.496E+00    1.495E+00    1.486E+00
     1.470E+00    1.446E+00    1.414E+00    1.373E+00    1.324E+00    1.267E+00    1.201E+00    1.125E+00    1.041E+00    9.473E-01
     8.441E-01    7.311E-01    6.083E-01    4.753E-01    3.321E-01    1.784E-01    1.398E-02   -1.612E-01   -3.475E-01   -5.450E-01
    -7.539E-01   -9.742E-01   -1.206E+00   -1.449E+00   -1.703E+00   -1.968E+00   -2.243E+00   -2.530E+00   -2.827E+00   -3.135E+00
    -3.452E+00   -3.781E+00   -4.119E+00   -4.467E+00   -4.826E+00   -5.194E+00   -5.572E+00   -5.959E+00   -6.356E+00   -6.762E+00
    -7.177E+00   -7.601E+00   -8.034E+00   -8.476E+00   -8.927E+00   -9.386E+00   -9.854E+00   -1.033E+01   -1.081E+01   -1.131E+01
    -1.181E+01   -1.232E+01   -1.283E+01   -1.335E+01   -1.388E+01   -1.441E+01   -1.495E+01   -1.549E+01   -1.604E+01   -1.659E+01
    -1.714E+01   -1.769E+01   -1.825E+01   -1.880E+01   -1.936E+01   -1.991E+01   -2.047E+01   -2.102E+01   -2.157E+01   -2.212E+01
    -2.267E+01   -2.321E+01   -2.375E+01   -2.428E+01   -2.481E+01   -2.533E+01   -2.585E+01   -2.636E+01   -2.686E+01   -2.735E+01
    -2.784E+01   -2.831E+01   -2.878E+01   -2.924E+01   -2.968E+01   -3.012E+01   -3.055E+01   -3.097E+01   -3.138E+01   -3.178E+01
    -3.216E+01   -3.254E+01   -3.291E+01   -3.327E+01   -3.362E+01   -3.395E+01   -3.428E+01   -3.459E+01   -3.490E+01   -3.519E+01
    -3.547E+01   -3.574E+01   -3.600E+01   -3.625E+01   -3.648E+01   -3.670E+01   -3.692E+01   -3.711E+01   -3.730E+01   -3.748E+01
    -3.764E+01   -3.779E+01   -3.792E+01   -3.805E+01   -3.816E+01   -3.826E+01   -3.835E+01   -3.843E+01   -3.850E+01   -3.856E+01
    -3.860E+01   -3.864E+01   -3.866E+01   -3.868E+01   -3.868E+01   -3.868E+01   -3.866E+01   -3.864E+01   -3.861E+01   -3.856E+01
    -3.851E+01   -3.845E+01   -3.838E+01   -3.831E+01   -3.822E+01   -3.813E+01   -3.803E+01   -3.792E+01   -3.780E+01   -3.768E+01
    -3.755E+01   -3.741E+01   -3.726E+01   -3.711E+01   -3.696E+01   -3.680E+01   -3.663E+01   -3.645E+01   -3.628E+01   -3.609E+01
    -3.591E+01   -3.571E+01   -3.552E+01   -3.532E+01   -3.511E+01   -3.491E+01   -3.470E+01   -3.449E+01   -3.427E+01   -3.405E+01
    -3.383E+01   -3.361E+01   -3.339E+01   -3.317E+01   -3.294E+01   -3.271E+01   -3.249E+01   -3.226E+01   -3.203E+01   -3.181E+01
    -3.158E+01   -3.136E+01   -3.113E+01   -3.091E+01   -3.068E+01   -3.046E+01   -3.024E+01   -3.001E+01   -2.979E+01   -2.957E+01
    -2.935E+01   -2.912E+01   -2.890E+01   -2.868E+01   -2.846E+01   -2.824E+01   -2.802E+01   -2.780E+01   -2.758E+01   -2.735E+01
    -2.713E+01   -2.691E+01   -2.669E+01   -2.647E+01   -2.625E+01   -2.603E+01   -2.581E+01   -2.559E+01   -2.537E+01   -2.514E+01
    -2.492E+01   -2.470E+01   -2.448E+01   -2.425E+01   -2.403E+01   -2.381E+01   -2.359E+01   -2.336E+01   -2.314E+01   -2.292E+01
    -2.270E+01   -2.247E+01   -2.225E+01   -2.203E+01   -2.181E+01   -2.159E+01   -2.137E+01   -2.115E+01   -2.093E+01   -2.071E+01
    -2.049E+01   -2.027E+01   -2.005E+01   -1.983E+01   -1.962E+01   -1.940E+01   -1.919E+01   -1.897E+01   -1.876E+01   -1.854E+01
    -1.833E+01   -1.812E+01   -1.791E+01   -1.770E+01   -1.749E+01   -1.728E+01   -1.708E+01   -1.687E+01   -1.666E+01   -1.646E+01
    -1.625E+01   -1.605E+01   -1.585E+01   -1.564E+01   -1.544E+01   -1.524E+01   -1.504E+01   -1.484E+01   -1.463E+01   -1.443E+01
    -1.423E+01   -1.403E+01   -1.383E+01   -1.363E+01   -1.344E+01   -1.324E+01   -1.304E+01   -1.284E+01   -1.264E+01   -1.244E+01
 Mac      Conc. = 3.22E-04
  -5.39461E+01 -5.50269E+01 -5.61183E+01 -5.72577E+01 -5.84845E+01 -5.97478E+01 -6.09654E+01 -6.21191E+01 -6.31734E+01 -6.40834E+01
  -6.48001E+01 -6.52850E+01 -6.54858E+01 -6.53814E+01 -6.49729E+01 -6.42608E+01 -6.32725E+01 -6.20476E+01 -6.06456E+01 -5.90753E+01
  -5.73170E+01 -5.52285E+01 -5.28117E+01 -5.03004E+01 -4.80474E+01 -4.62047E+01 -4.45405E+01 -4.30610E+01 -4.18172E+01 -4.06698E+01
  -3.95062E+01 -3.83397E+01 -3.72193E+01 -3.61742E+01 -3.52212E+01 -3.43623E+01 -3.35439E+01 -3.27711E+01 -3.21016E+01 -3.15239E+01
  -3.09620E+01 -3.03394E+01 -2.97043E+01 -2.92274E+01 -2.90481E+01 -2.91281E+01 -2.92698E+01 -2.93355E+01 -2.93533E+01 -2.93991E+01
  -2.95146E+01 -2.97121E+01 -2.99082E+01 -3.00570E+01 -3.01219E+01 -3.00659E+01 -2.98771E+01 -2.95627E+01 -2.91722E+01 -2.86973E+01
  -2.81288E+01 -2.74597E+01 -2.67058E+01 -2.59532E+01 -2.52561E+01 -2.46107E+01 -2.40081E+01 -2.35411E+01 -2.31612E+01 -2.27226E+01
  -2.21921E+01 -2.15608E+01 -2.08479E+01 -2.01224E+01 -1.93253E+01 -1.84476E+01 -1.75462E+01 -1.68284E+01 -1.63519E+01 -1.60099E+01
  -1.57196E+01 -1.54403E+01 -1.51002E+01 -1.46949E+01 -1.42017E+01 -1.36901E+01 -1.32151E+01 -1.27911E+01 -1.24334E+01 -1.21933E+01
  -1.21510E+01 -1.23258E+01 -1.27179E+01 -1.34185E+01 -1.44472E+01 -1.58602E+01 -1.76588E+01 -1.98424E+01 -2.23427E+01 -2.50992E+01
  -2.79991E+01 -3.09189E+01 -3.36973E+01 -3.62989E+01 -3.86734E+01 -4.08055E+01 -4.26977E+01 -4.43220E+01 -4.55607E+01 -4.63572E+01
