 
 $NMID
 ID=''
 FMTDAT='(2E13.5)'
 TRAMP=   1.00000E+0
 VOLUME=   1.00000E+0
 $END
   1.10208E+3   1.19360E+4
   1.45166E+4  -2.59392E+3
   8.80391E+1  -5.02899E+3
  -6.06602E+2   1.22675E+4
   8.66766E+3   9.02214E+3
  -4.19928E+3  -7.39674E+2
  -7.90936E+3   4.51249E+3
   2.98674E+3   2.92101E+3
  -2.54892E+3  -4.57591E+3
  -6.92660E+3   4.88656E+2
   1.13334E+3   1.92582E+3
  -1.07848E+3  -4.19763E+3
  -4.44769E+3  -2.35085E+3
   1.43162E+3   4.18326E+2
   3.93185E+2  -2.89983E+3
  -2.10323E+3  -3.18748E+3
   3.42631E+3  -7.81007E+2
   3.36223E+3  -5.13536E+2
  -2.84129E+2   3.51072E+2
   1.40455E+3   1.15852E+3
   1.34119E+3   1.06609E+3
  -7.90463E+2   3.02503E+2
   1.31191E+3   2.68909E+2
   1.24686E+3   1.49398E+3
  -1.88400E+3   1.21077E+3
  -1.31339E+3  -1.02387E+3
   1.71667E+3  -1.78265E+2
   2.28363E+2   2.27867E+3
  -2.14148E+3   9.64459E+2
  -9.44111E+2  -1.57798E+3
   8.69726E+2  -1.00500E+3
   1.00555E+2   9.33084E+2
  -1.22833E+3   1.39007E+3
  -1.55799E+3  -4.30821E+2
  -1.04750E+3  -2.57253E+3
   7.00472E+2  -1.99146E+3
   2.02809E+3   5.91084E+1
   4.62564E+2   7.73283E+2
   3.04358E+2  -4.93874E+0
   1.15221E+3   1.61360E+1
   9.43421E+0   1.03804E+3
  -9.80102E+2   5.15629E+2
   7.89762E+2  -5.37959E+2
   9.86993E+2   3.32301E+1
  -4.41395E+2   8.52839E+2
   4.06045E+2   2.95092E+2
   7.68415E+2   9.42442E+2
  -1.03998E+3   2.11274E+3
  -2.04981E+3   2.69556E+2
  -1.12156E+3  -1.65871E+3
   6.62591E+1  -1.07070E+3
   3.21157E+1  -7.14496E+2
  -2.01857E+2  -1.03967E+3
   7.32379E+2  -5.79534E+2
   1.35211E+3   1.78345E+1
   4.89707E+2   1.39602E+2
  -4.48156E+2   1.64323E+2
  -2.73421E+2  -4.16754E+2
   6.53968E+2  -6.07870E+2
   7.94979E+2   1.09785E+2
   4.69490E+2   6.92797E+2
   2.88560E+2   6.86077E+2
   1.27553E+2   9.56301E+2
  -8.17143E+2   1.07764E+3
  -1.59455E+3   2.61961E+2
  -1.39183E+3  -7.30037E+2
  -3.25099E+2  -1.46368E+3
   2.43960E+2  -1.22940E+3
   2.74781E+2  -5.31446E+2
  -1.82979E+1   2.05304E+2
  -7.57473E+1  -2.57961E+2
   5.95532E+2  -8.05535E+2
   9.04307E+2  -1.89309E+2
   4.42231E+2   8.27431E+2
  -1.46386E+2   2.19499E+2
   6.99620E+0  -8.10157E+1
  -5.83266E+1   3.08100E+2
  -1.92948E+2   4.69074E+2
  -6.97509E+2   4.29288E+2
  -5.04410E+2   6.38447E+1
  -4.60574E+2  -6.82974E+2
  -3.20886E+2  -2.12181E+2
  -1.30795E+2  -2.27206E+2
  -1.39980E+2  -2.42543E+2
  -3.87101E+2  -2.42055E+2
   2.46683E+2  -3.13737E+2
   5.07985E+2   2.54333E+1
  -2.08344E+1   2.74159E+2
  -3.05276E+2  -2.48972E+1
  -9.99493E+1   2.96831E+1
   5.46034E+2   2.72306E+2
   3.16014E+1   6.41207E+2
  -3.52637E+2   4.29886E+2
  -8.28088E+2  -2.83703E+2
  -1.49513E+2  -6.51079E+2
   3.16304E+2  -1.18076E+2
   4.60078E+1   1.78927E+2
  -1.20819E+2   3.62136E+1
   3.66283E+2  -2.98131E+2
   3.37101E+2   6.30421E+1
  -4.92504E+1   8.58396E+2
  -2.36818E+2   2.48179E+2
  -4.03902E+2  -1.82542E+2
  -6.17242E+1  -5.11420E+2
   1.79699E+2  -2.45819E+2
   2.53349E+2   1.69944E+2
   1.00541E+2   3.60188E+2
  -5.74498E+2  -2.61072E+2
  -1.50105E+2  -8.99807E+2
   4.47810E+2  -5.03926E+2
   5.50831E+2   3.75307E+2
   7.46162E+0   3.79550E+2
  -3.55991E+2   8.40196E+1
  -1.88649E+2  -8.67064E+1
   8.21083E+1   1.07245E+2
  -2.09798E+2   1.13464E+2
  -5.50744E+2  -1.70620E+2
  -3.98840E+2  -5.03321E+2
   2.20331E+2  -3.95965E+2
   4.06659E+2  -3.08360E+2
   2.54463E+2   2.13919E+2
  -2.03246E+1   3.00104E+2
  -2.00127E+2   4.58419E+1
  -3.00879E+2   2.64077E+2
  -3.45324E+2   1.21750E+2
  -1.38413E+1  -3.18579E+1
   1.25607E+1  -2.68887E+2
   4.49906E+1  -2.07770E+2
   1.04083E+1   3.39555E+2
  -4.40824E+2   4.10245E+2
  -3.89933E+2  -1.41629E+1
  -2.90873E+2  -3.84968E+2
   3.01930E+2  -1.51530E+2
  -1.61742E+2   7.15552E+1
  -3.05921E+2   9.77525E+1
   1.75459E+2  -2.86185E+2
   3.35491E+2   3.25828E+2
   1.18074E+2   3.52639E+2
  -2.97228E+2   3.19374E+2
  -2.76966E+2  -1.28060E+2
  -7.17089E+1  -2.62765E+2
   2.49689E+2  -5.88266E+1
  -7.60846E+1   3.74090E+2
  -3.71767E+1   4.72730E+2
  -4.21501E+2   1.20468E+2
  -5.93774E+2  -8.27187E+1
  -1.63923E+2  -1.80192E+1
   2.91951E+2  -4.54747E+1
  -4.93852E+1  -1.22461E+2
   1.58876E+2   7.04983E+1
  -1.75437E+2   1.65363E+1
   3.67427E+1   2.89021E+1
   1.39537E+2   4.05326E+2
  -9.60857E+1   4.67163E+2
  -1.16900E+2  -3.85769E+1
  -8.27003E+1  -3.62517E+1
  -5.24498E+1  -1.69895E+1
  -1.35768E+2   3.94207E+1
  -2.96361E+2  -2.09492E+1
  -2.22456E+2   1.12993E+2
   3.24856E+1  -2.15847E+1
  -1.55357E+0   2.87684E+2
   5.29676E+1  -3.63785E+1
   6.64943E+1  -2.83470E+1
   2.92538E+2   1.86699E+2
   1.67068E+2   3.00220E+2
   4.54007E+0   6.28718E+1
  -2.67070E+2  -2.90682E+1
  -2.50399E+2   2.69382E+1
   8.75527E+1   6.34007E+1
  -1.36635E+2   5.12767E+1
  -3.10625E+2   7.26553E+1
  -1.86400E+1   4.65413E+1
   4.10689E+1  -3.96617E+1
   6.25926E+1   4.52439E+2
   2.66396E+0   1.60273E+2
   5.48724E+1  -8.93174E+1
  -6.80148E+1  -3.19711E+1
   1.69056E+2   7.20753E+1
   3.17947E+2   1.72781E+2
   5.85523E+1   2.85596E+2
  -5.81932E+1   2.54755E+2
   7.82653E+1   1.64522E+2
   2.38081E+1  -6.38939E+1
   8.43415E+1   5.43125E+1
   4.30417E+2   1.12004E+2
   2.76283E+2   1.21044E+2
   3.06436E+2  -1.10532E+2
   1.06713E+2   1.90858E+2
  -1.46293E+2   2.75033E+2
  -3.05898E+2   7.97338E+1
  -7.46960E+1  -3.44529E+2
   2.69823E+2  -2.97430E+2
   4.17015E+2   1.95029E+2
   2.89618E+1   1.14012E+2
   5.07858E+1   2.04915E+1
   1.88976E+1  -1.21148E+2
   1.13451E+2   2.18530E+2
  -1.56025E+2  -3.83585E+1
  -6.07423E+1  -1.45717E+2
   7.80188E+1  -2.91145E+2
   2.27775E+2   1.86314E+0
   1.35351E+2   3.34223E+2
  -1.42747E+2   5.19938E+1
  -1.23372E+2   7.92356E+1
   5.96940E+1   1.74848E+1
   1.21204E+2  -2.00186E+2
   2.43851E+2  -5.40967E+1
  -2.49000E+2  -2.56254E+2
   1.07965E+2  -3.73871E+1
  -4.19254E+1   1.16361E+2
  -2.38237E+1   2.37142E+2
  -1.28960E+2   9.15266E+1
  -3.65916E+2   4.62443E+1
  -7.29765E+0   3.84705E+1
  -5.72135E+1  -1.94118E+2
  -2.29014E+1   2.98886E-1
   4.94037E+1   1.13539E+2
  -1.43307E+2   2.46361E+2
  -1.62316E+2   1.15824E+2
  -1.54924E+2   2.73160E+2
   4.61998E+1   1.00170E+2
  -6.96501E+1   1.37711E+2
  -2.47614E+2  -4.23505E+1
  -2.65544E+2  -2.68671E+2
  -1.21786E+2  -1.21916E+2
  -2.03254E+1   2.83077E+2
  -1.71885E+2   1.16621E+2
  -2.32116E+2   1.17249E+2
  -1.00707E+1  -4.55775E-1
  -1.07161E+2   3.21819E+0
  -1.49774E+2   4.81812E+1
  -1.72363E+2   4.36605E+1
  -1.12706E+1   8.22881E+1
  -1.14772E+2  -4.38081E+1
  -1.44436E+2   6.84252E+1
  -1.00875E+1   8.33463E+0
  -2.16204E+2   1.66457E+2
   1.16763E+2   2.51383E+2
  -1.50950E+2   1.95089E+2
  -5.20464E+1  -6.68900E-1
  -2.17707E+2   1.77693E+2
   1.03179E+2  -4.81453E+1
  -1.23815E+2   1.12147E+2
  -1.25949E+2  -2.43348E+1
  -1.77750E+2  -7.57192E+1
   5.28144E+0  -1.41406E+2
   1.97387E+2   1.48309E+1
  -1.15330E+2   1.96038E+2
  -7.49320E+1   8.44756E+1
  -2.11039E+2   1.21035E+2
  -1.87762E+2  -9.06947E+1
   2.11481E+1   1.04698E+2
   3.55234E+1   1.17459E+2
  -4.41463E+1   1.03730E+2
  -1.57670E+2   3.74438E+2
   2.48365E+2  -5.60435E+1
   4.31862E+1   8.85187E+1
   1.60574E+2   6.16449E+1
  -1.09707E+2   6.33684E+1
  -6.03834E+1  -1.52859E+2
   7.08502E+1  -2.26911E+2
   2.01302E+2   3.36093E+2
   1.78434E+2   4.63650E+1
  -1.67274E+2   2.14891E+1
  -2.13722E+2   3.93850E+1
   8.05722E+1  -1.35333E+2
   1.58221E+1   5.99612E+1
   1.58446E+2   5.29035E+1
   7.38493E+1   1.89228E+2
   1.74894E+1   8.80485E+1
  -4.06411E+1   5.70327E+0
  -1.46106E+2  -7.51303E+1
   1.36509E+2  -2.14589E+2
  -2.53017E+2  -7.93627E+1
  -9.43712E+1  -1.68052E+1
   2.02244E+2   1.87967E+1
   3.07750E+1   4.34566E+1
  -8.05951E+1   1.33668E+2
   1.08785E+1   6.15889E+1
   4.43449E+1  -2.58757E+0
   1.11780E+2  -3.65362E+1
  -1.57624E+2   8.88711E+1
   2.66378E+2   4.54537E+1
   1.88706E+0  -2.81487E+1
   1.16883E+2  -2.27536E+2
   5.70780E+1   7.34910E+1
   1.30547E+2  -8.30107E+1
   1.08448E+2  -1.34222E+2
   6.82240E+1  -4.05030E+1
  -4.01932E+1  -2.38663E+2
   1.33251E+1  -1.54553E+1
  -5.69499E+1  -2.83961E+1
  -1.88353E+1  -1.02100E+2
   4.18265E+1  -4.10955E+0
   1.64471E+2  -1.24505E+1
   3.38441E+1  -5.59792E+1
  -9.97126E+1  -2.20223E+2
   1.68063E+2  -2.73324E+2
   2.29578E+1   1.12757E+2
   1.43329E+2  -1.72389E+2
  -1.78031E+1  -5.11881E+1
  -2.19379E+2   3.42173E+1
  -1.54953E+2  -1.54766E+2
   3.38587E+1   6.82530E+1
   3.07521E+2  -1.21188E+2
  -1.55447E+2   3.69364E+2
   4.86730E+1  -1.24432E+2
  -6.84890E+1  -7.61683E+1
  -2.49889E+2   4.72478E+0
  -1.80089E+2   8.07128E+1
  -7.80260E+1  -3.76524E+1
  -2.20173E+1  -1.65343E+2
  -1.38170E+2   3.50198E+1
  -7.44158E+0   1.77142E+2
  -1.57318E+2  -6.59943E+1
   9.47583E+1   1.03421E+2
  -1.16514E+2  -2.75862E+2
   6.90765E+1  -1.95158E+2
  -4.75647E+0   1.65752E+2
  -1.34493E+2  -1.46813E+2
   4.97249E+1   3.94756E+1
  -1.27514E+2   3.63539E+1
  -1.15397E+2  -3.17941E+1
  -1.10834E+2   8.39069E+1
  -6.05382E+1  -3.68728E+1
  -1.16247E+2  -2.23981E+1
   5.21759E+1  -1.20087E+2
   1.00578E+2  -1.68027E+2
  -2.43294E+1   1.31176E+2
  -8.05043E+1  -8.15024E+0
   7.99593E+0   5.96404E+1
  -6.58186E+1   6.24697E+1
  -7.64998E+1   9.29126E+1
   7.07174E+1   2.93853E+1
  -3.33505E+1  -1.82294E+2
   1.59360E+1  -2.51385E+1
   6.84149E+1  -5.72703E+1
   2.76016E+2   2.46948E+1
  -3.67693E+1   1.91314E+2
  -2.57802E+2  -2.90702E+1
  -1.03494E+2   4.86239E+1
   1.51775E+2  -2.07613E+2
   2.05731E+1  -3.73545E+1
   3.94089E+1  -4.32638E+1
  -1.22399E+2  -1.43228E+1
   6.84495E-1  -7.13311E+1
  -1.61018E+2  -6.00845E+1
  -1.28740E+1  -2.23430E+1
  -2.61031E+2   1.01097E+2
  -3.51426E+1  -6.94446E+0
  -5.33748E+1   8.11217E+1
   1.10926E+2  -1.11776E+2
   4.08447E+0   7.01157E+1
  -6.97126E+0  -6.80478E+1
   1.50493E+2   1.39553E+2
   2.45648E+0  -1.71214E+2
  -6.18719E+1  -1.67064E+2
  -5.19480E+1   1.12769E+2
  -1.45245E+2  -1.08435E+2
   5.06165E+1  -3.49243E+1
   4.06685E+1  -1.06842E+2
  -1.29173E+2   4.79986E+1
   7.10776E+1   2.07448E+2
  -4.29536E+1  -4.10313E+1
   2.73091E+2   1.17012E+2
   1.31993E+2  -1.64446E+1
