 
 $NMID
 ID=''
 FMTDAT='(2E13.5)'
 TRAMP=   1.00000E+0
 VOLUME=   1.00000E+0
 $END
   1.97359E+4   1.30408E+3
   2.76830E+4  -2.05246E+4
  -1.65024E+4  -3.59760E+4
  -3.27448E+4   1.47181E+4
   1.19012E+4   3.76437E+4
   2.92959E+4  -9.05064E+3
  -6.44446E+3  -2.88375E+4
  -1.95220E+4   4.98041E+3
   4.81922E+3   1.98128E+4
   1.53504E+4   9.18779E+2
  -3.83510E+2  -1.01703E+4
  -1.16490E+4  -2.36484E+3
  -3.52932E+3   8.45936E+3
   5.44518E+3   6.06828E+3
   6.54451E+2  -4.93399E+3
  -4.09433E+3  -5.91665E+3
   6.61737E+1   2.08081E+3
   2.21513E+3   3.30687E+3
  -4.47882E+1  -1.15416E+3
  -8.76953E+1  -2.18735E+3
  -6.15538E+2   4.55146E+2
  -2.87805E+2   1.22928E+3
   1.94693E+3  -2.13328E+2
   6.04965E+2  -3.26021E+2
  -2.04183E+3  -1.75786E+2
   5.22868E+2  -3.91907E+2
   2.72196E+3   1.06428E+2
  -3.13418E+2   1.04686E+3
  -1.73360E+3  -1.23211E+2
   2.00881E+2  -1.05886E+3
   6.96424E+2   4.27304E+2
  -7.06234E+2   7.16992E+2
  -1.05076E+3   7.53386E+1
  -7.39498E+2  -3.65284E+2
  -6.65365E+2  -2.05928E+3
   4.40911E+2  -2.53973E+3
   1.29139E+3   8.03054E+2
   5.16581E+2   1.89992E+3
  -3.91631E+2  -5.49049E+2
   2.82824E+0  -7.76443E+2
  -5.27623E+2   5.65234E+2
  -1.56795E+3  -7.33847E+1
  -2.72892E+2  -1.77402E+3
   1.11828E+3  -8.09892E+2
   8.04520E+2   2.77457E+2
   7.88618E+2   7.68285E+2
   2.77647E+2   9.51864E+2
  -1.30087E+3   9.25795E+2
  -1.64304E+3   1.21416E+2
  -5.84200E+2  -9.86173E+2
  -2.54981E+2  -1.22499E+3
  -2.24885E+2  -7.40335E+2
   5.40381E+2  -2.94294E+2
   6.20823E+2   3.36825E+1
   2.79207E+2   5.85774E+2
  -1.02673E+2   7.16629E+2
  -7.74835E+2   9.69858E+2
  -9.18482E+2  -6.15526E+2
   1.39796E+2  -1.46417E+3
   6.99548E+2  -4.08887E+2
   4.92998E+2   5.97781E+2
   5.44892E+2   2.62413E+2
   7.62217E+2   8.09520E+2
  -5.78464E+2   1.46521E+3
  -1.78395E+3   1.16753E+3
  -1.44682E+3  -5.83681E+2
  -2.72312E+2  -1.30762E+3
   3.52613E+2  -1.10214E+3
   7.26299E+2  -4.34193E+2
   5.31555E+2   3.73273E+2
  -3.36747E+2   5.71542E+1
  -4.43906E+2  -4.35299E+2
   8.64868E+2  -1.04826E+0
   7.70389E+2   9.89808E+2
   6.66562E+1   5.75384E+2
  -1.98781E+2  -7.91453E+1
   1.39782E+2  -3.10424E+2
   2.53287E+2   5.50163E+2
  -1.56620E+2   6.37760E+2
  -6.31601E+2   3.13870E+2
  -4.90234E+2  -4.47222E+1
  -3.09711E+2  -1.46053E+2
  -1.54296E+2  -5.60610E+1
   4.78010E+0  -1.15596E+2
  -5.72129E+2  -1.35550E+2
   4.15657E+2  -5.62985E+2
   6.41356E+2  -4.15384E+2
   4.48591E+2   2.95751E+2
  -3.26722E+1   1.28097E+2
   7.25399E+1   8.73117E+1
   8.12365E+2  -1.76653E+2
   3.85490E+2   5.44501E+2
  -8.66376E+1   1.09505E+3
  -8.53974E+2   6.69897E+2
  -6.55297E+2  -4.20723E+2
  -6.49070E+1  -8.09414E+2
   4.04128E+2  -1.39202E+2
  -8.78881E+1   4.04434E+2
  -2.59481E+1  -1.33807E+2
   4.89804E+2  -3.69088E+2
   5.79349E+2   2.95452E+2
   2.19910E+2   8.21174E+2
  -3.87852E+2   3.73859E+2
  -3.88687E+2  -3.20512E+2
  -4.43405E+1  -6.50572E+2
   7.29851E+2  -1.22592E+2
   3.43302E+2   8.80604E+2
  -7.42788E+2   4.34279E+2
  -8.72873E+2  -6.06268E+2
   3.29721E+2  -9.11853E+2
   1.06595E+3  -3.24818E+2
   8.23802E+2   3.04456E+2
   2.54683E+2   6.84156E+2
   3.14456E+2   4.55657E+2
   2.44591E+2   3.04490E+2
  -1.06344E+2   6.66267E+2
  -6.61345E+2   5.73100E+2
  -1.01762E+3  -9.02484E+1
  -3.89072E+2  -1.01536E+3
   4.00145E+2  -9.75010E+2
   9.84795E+2  -1.37994E+2
   7.60226E+2   1.46518E+2
   5.71324E+2   3.06101E+2
   1.26838E+2   4.81884E+2
  -4.93012E+2   5.18969E+2
  -3.08984E+2   5.73673E+1
  -7.23446E+1  -3.71337E+2
   1.79167E+2  -3.93585E+2
   2.60885E+2  -2.14013E+2
   3.74076E+2   3.66133E+2
   1.69777E+2   6.73264E+2
  -5.40229E+2   2.33276E+2
  -4.08132E+2  -2.09425E+2
   2.87355E+2  -1.79809E+2
   1.29543E+2  -2.60250E+1
  -1.39625E+2  -2.11697E+2
   2.62756E+2  -2.45862E+2
   8.59862E+2  -2.07068E+2
   3.45488E+2   5.44646E+2
  -2.11147E+2   4.80401E+2
  -9.36449E+2   2.11536E+2
  -1.34384E+2  -7.09189E+2
   4.76890E+2  -6.03459E+2
   5.82191E+2   2.82284E+2
   2.52334E+2   7.82996E+2
  -2.19162E+2   3.95506E+2
  -2.50996E+2   2.35267E+2
  -2.75662E+2   3.38669E+1
  -5.30042E+2   3.15833E+2
  -4.88843E+2  -2.48585E+2
  -2.78082E+2  -5.01071E+2
   2.39545E+2  -5.21527E+2
   5.64391E+2   1.87611E+1
   5.36008E+2   4.28221E+2
  -7.40027E+1   4.45181E+2
  -2.82704E+2   9.41424E+1
   4.25687E+2   1.68129E+2
   2.03115E+2   6.34413E+2
   2.35659E+2   2.58989E+2
  -1.31936E+1   1.47289E+2
   8.65090E+1   3.69303E+2
   1.77692E+1   1.76267E+2
  -2.51611E+2   2.01925E+2
  -5.37449E+2  -1.39683E+2
   5.11077E+0  -2.12826E+2
   3.05008E+2  -4.88471E+2
   3.78551E+2   1.85938E+2
  -6.67535E+1   3.75157E+2
  -7.91756E+1   1.33853E+2
   1.59299E+2  -9.03727E+1
   1.72559E+2   3.27023E+1
  -2.86248E+1   4.89175E+2
  -1.80881E+2   3.24788E+2
   3.39560E+1   2.16941E+2
  -7.07478E+1   1.98890E+2
   1.56965E+2   2.13952E+2
  -3.40052E+0   3.51073E+2
  -3.75012E+2  -7.49000E+1
  -2.84612E+2  -3.40044E+2
   3.06804E+2  -1.50934E+2
   5.71286E+2   3.64567E+2
   5.51097E+1   5.90945E+2
  -2.00193E+2   4.79541E+2
  -3.51968E+2   8.23119E+1
  -2.08867E+2  -9.67336E+1
  -6.84000E+1  -1.05095E+2
   2.91373E+1  -1.72181E+2
  -7.93922E+1  -2.55254E+2
   3.57627E+2  -4.92406E+1
   1.07076E+3  -6.91094E+0
   3.55417E+2   8.13013E+2
  -1.33712E+2   7.92810E+2
  -3.57406E+2   2.13026E+2
  -1.17291E+2  -1.39601E+2
   1.78055E+1  -9.73116E+1
   1.12141E+2   9.34544E+1
   2.80531E+2  -3.33881E+1
   2.23604E+2  -5.70211E+1
   2.16086E+2   2.55057E+2
  -4.26887E+1   4.44288E+2
  -2.24129E+2   8.96938E+1
  -2.32798E+2  -6.89814E+1
  -1.03956E+2  -6.06094E+2
   2.71003E+2  -5.02923E+2
   3.21019E+2   1.97506E+2
  -1.11629E+2   1.05184E+2
  -3.53011E+2   4.34201E+1
  -1.92515E+2  -1.80613E+2
  -1.16579E+2   2.74768E+2
  -1.45197E+2   3.66843E+2
  -2.51617E+2  -4.44072E+2
   1.43696E+2  -3.11804E+2
   4.04135E+2  -9.82703E+1
   2.61352E+2   8.56268E+2
  -1.91270E+2   6.68218E+2
  -5.64088E+2   2.80408E+2
  -2.94553E+2  -2.28497E+2
   1.00781E+2  -2.07759E+2
   5.29285E+1  -2.48194E+2
   7.67616E+1   1.06555E+2
   1.48294E+2  -6.86298E+1
   2.58513E+2  -1.81687E+1
   2.38068E+2   4.11842E+2
  -4.68266E+1   3.83588E+2
  -5.09321E+2   1.53542E+2
  -2.65848E+2  -7.62323E+1
   1.39247E+1  -1.77113E+2
   4.00088E+2   1.91873E+2
  -1.16854E+2   2.66620E+2
  -2.80173E+1   2.36248E+2
  -2.79984E+2  -2.41266E+2
  -8.40636E+1  -1.73684E+2
   1.22928E+1  -8.24896E+1
  -7.13943E+1   1.29700E+2
  -1.85957E+2  -1.34066E+2
   1.60655E+2   3.28886E+1
   1.05052E+2   1.52503E+2
  -2.02735E+2  -6.41960E+0
  -6.65056E+1   5.21349E+1
  -1.06570E+2  -2.41220E+2
   3.27124E+2  -2.09205E+2
   1.89838E+2   2.70891E+2
   9.57072E+0   3.35707E+2
  -5.65345E+1   1.08466E+2
  -3.02883E+2  -2.24921E+2
   1.24441E+2  -1.70040E+1
   3.06300E+1   2.20816E+2
  -1.46445E+2   2.23368E+1
  -1.72758E+2  -3.13030E+2
   5.53979E+1  -2.83154E+2
   4.82028E+2  -1.91031E+0
   1.46248E+2   4.54324E+2
  -1.81721E+2   3.26130E+2
  -4.91278E+2  -2.64158E+2
   1.49755E+2  -4.24538E+2
   3.68589E+2  -1.53611E+2
   2.92277E+2   1.21346E+2
  -1.53628E+2   1.55457E+2
   1.08976E+2   1.71563E+2
   4.72584E+1   3.20846E+2
  -1.63545E+2   1.45893E+2
  -5.09160E+2  -4.47517E+1
  -4.32466E+2  -3.02916E+2
   1.06799E+2  -3.17650E+2
   1.97015E+2  -1.93248E+2
   3.65837E+2   5.29412E+2
  -1.42859E+2   3.90820E+2
  -2.87734E+2   1.81458E+2
  -3.06965E+2  -4.30829E+2
  -1.14414E+0  -2.11067E+2
   1.64411E+2  -3.07039E+1
  -3.13409E+1  -7.54978E+1
   2.95267E+2   8.76520E+0
   2.37707E+2   1.90713E+2
   1.35431E+2   2.36607E+2
  -1.03918E+2   1.57377E+1
  -4.70598E+2  -6.39274E+1
   6.75401E+1  -3.62502E+2
   2.70183E+1  -1.97888E+2
   3.65784E+1  -7.75753E+1
   1.21365E+2   1.81104E+2
  -9.73147E+1  -2.84443E+1
   4.59326E+1   5.81605E+1
  -3.47868E+1   3.78432E+1
  -1.66050E+2   7.42672E+1
  -3.65282E+2  -5.51553E+1
  -2.07016E+2  -3.66598E+2
   5.44722E+2  -4.27882E+2
   4.62955E+2   5.99964E+1
   1.46953E+2   1.06705E+2
  -1.39736E+0   2.20956E+2
  -3.30131E+1  -5.99852E+1
  -3.43035E+0  -1.83674E+1
  -1.15342E+2  -6.91115E+1
   3.63516E+1  -1.13623E+2
   1.95822E+2  -3.23847E+2
   1.47223E+2  -2.62122E+2
   2.08281E+2   1.83408E+1
   5.05304E+1   3.11071E+1
  -2.45883E+2   6.28623E+1
   9.90320E+1  -3.20162E+2
   9.93827E+1  -2.32770E+2
   3.57711E+2   1.86236E+2
  -1.44090E+2   1.02098E+2
  -1.52773E+2   1.83139E+1
  -5.10425E+1  -3.94797E+2
   9.72207E+1  -2.50091E+2
  -5.06218E+1  -2.22945E+2
  -1.89865E+2  -1.64931E+2
  -5.53425E+1   5.06705E+1
   2.14751E+2  -2.23308E+2
   5.47727E+2  -1.04629E+2
   1.94646E+2   1.46918E+1
   2.43946E+2   6.72692E+1
  -7.82571E+1  -3.07570E+2
   7.43753E+1  -8.64573E+1
   1.77750E+2  -5.12459E+1
  -1.75502E+2  -1.81797E+2
  -7.48447E+1  -9.54056E+1
  -6.93888E+1  -4.57903E+1
   8.50878E+1  -6.20778E+1
   3.43358E+2  -9.82253E+1
  -1.30941E+2   5.27662E+1
   6.58491E+1  -1.27485E+2
   3.45761E+2  -1.30866E+2
   1.62808E+2   2.83312E+1
   1.90236E+2   1.35409E+2
  -1.15978E+2   1.46523E+2
   9.07742E+0  -8.09033E+1
  -1.31741E+2  -2.82487E+2
  -1.15706E+2  -9.77116E+1
   1.80303E+2  -1.97372E+2
   4.91733E+1  -5.30113E+1
   9.36315E+1  -2.15296E+2
   1.75021E+2   7.15154E+1
   1.12088E+2   3.42884E+2
  -1.76131E+2   2.21769E+2
  -4.31516E+2   4.53996E+1
   1.74713E+2  -2.51757E+2
   3.33249E+2  -1.81196E+2
   4.31806E+2   1.11011E+2
  -9.55295E+0  -2.20579E+1
   5.15008E+1  -5.60573E+1
  -8.53640E+1   1.71842E+1
   1.82114E+2   9.68239E+1
   5.91898E+0  -2.29700E+2
  -1.26118E+2   7.06059E+1
   1.96743E+2  -1.79549E+2
   3.70231E+2  -2.32937E+2
   4.51224E+1   1.02310E+2
  -3.31586E+1   1.85949E+2
  -2.39549E+2   2.59298E+2
  -1.95601E+2  -1.64333E+2
   1.63708E+2   2.16177E+1
   8.71385E+1  -1.26431E+2
  -3.87611E+1  -1.63926E+2
   1.78005E+2  -1.13495E+2
   4.62809E+2  -6.33721E+1
   1.45575E+2   1.40054E+2
   9.12577E+1   1.13885E+2
  -2.77515E+2   1.08639E+2
  -2.12597E+2  -5.09159E+2
   1.43647E+2  -2.05633E+2
   4.12446E+2  -6.46235E+1
   2.30262E+2   9.14145E+1
  -3.45143E+0   7.63377E+1
   1.36218E+2   7.23103E+1
