 
 $NMID
 ID=''
 FMTDAT='(2E13.5)'
 TRAMP=   1.00000E+0
 VOLUME=   1.00000E+0
 $END
   6.57184E+3  -7.23868E+3
  -1.93096E+3  -9.71028E+2
   1.51544E+3   6.09418E+3
   6.73257E+3  -6.68253E+2
   2.39875E+3   1.01297E+3
   2.48559E+2   5.87166E+3
  -9.30796E+2  -1.21590E+3
  -3.38694E+3  -1.90679E+3
   2.85127E+2   4.37962E+3
   1.40100E+3   1.96653E+3
  -2.22374E+3  -5.35596E+1
  -2.40669E+3   1.83254E+3
  -8.41422E+2  -4.60508E+2
  -2.03144E+3  -8.02602E+2
  -1.53829E+3   5.27309E+2
  -6.82424E+2  -2.53451E+3
   4.22002E+1  -3.94184E+3
   2.02055E+3  -1.38613E+3
   1.46609E+3  -9.91663E+2
   3.62789E+2  -6.61726E+2
   2.33989E+3   6.90918E+2
   1.99383E+3   5.76600E+1
  -2.00974E+2   8.75451E+0
   9.72196E+2   1.49406E+3
   3.56896E+2   2.14033E+3
  -1.79747E+3   1.51462E+3
  -3.65181E+2   2.14722E+1
   8.63648E+2   2.71460E+2
  -1.59502E+3   1.41650E+3
  -2.43457E+3   4.44998E+2
  -1.06952E+3  -1.53737E+3
   2.64735E+2  -4.97765E+2
   2.04150E+2   4.82227E+1
  -3.50792E+2  -4.61836E+2
  -1.01261E+3  -7.16806E+2
  -6.45352E+1  -9.75202E+2
   9.22123E+2  -1.33384E+3
   1.32779E+3  -4.00694E+2
   1.33638E+3   1.40082E+2
   7.55342E+2  -1.80971E+2
   7.84808E+2   6.69472E+2
  -1.80801E+0   1.39581E+3
  -9.88489E+1   9.51318E+2
   6.49229E+1   5.38800E+2
  -4.04452E+2   4.12926E+2
  -9.66003E+2   1.40484E+2
  -2.88843E+2  -4.81178E+2
   2.85114E+2   2.12859E+2
  -2.39574E+2   5.76951E+2
  -8.50279E+2  -8.80813E+1
  -2.19118E+2  -9.42271E+2
  -6.90722E+1  -7.93354E+2
  -5.15781E+2  -3.91727E+2
  -8.36809E+1  -7.52922E+2
   8.82316E+2  -7.44174E+2
   6.65583E+2  -2.55379E+2
   4.63905E+2   5.27228E+1
   2.00852E+2   1.90868E+2
   2.82232E+2   5.70175E+2
   2.39509E+2   6.03406E+2
  -2.09475E+2   3.29202E+2
  -9.50708E+1   1.32151E+2
  -5.42047E+1   1.94741E+2
  -9.13239E+1   1.15325E+2
  -3.23018E+2   3.08340E+2
  -1.24433E+2  -1.39585E+2
  -2.62501E+2  -2.38294E+2
  -2.95815E+2  -3.84253E+2
  -6.11846E+2  -3.03017E+2
   1.06831E+2  -3.70002E+2
   4.88596E+2  -3.45575E+2
   1.16372E+2  -1.09552E+2
  -5.76454E-1   2.52643E+2
   3.45732E+2  -1.16385E+2
   3.75002E+2   1.43722E+2
   3.41428E+2   2.64773E+2
  -1.93282E+1   3.37054E+2
   7.04050E+1   1.77552E+1
   3.18516E+2   8.34991E+1
  -2.93939E+2   3.79386E+2
   2.17473E+1   4.15582E+1
  -1.26509E+2   1.94395E+2
  -1.28597E+2   5.60517E+1
  -2.29768E+2  -2.29641E+1
  -1.49702E+2  -2.07549E+2
  -7.37388E+1  -8.43755E+1
   5.45433E+1  -1.19022E+2
  -3.57481E+1   4.62489E+1
   1.23349E+2  -2.80262E+2
   1.40001E+2   1.26256E+2
   1.34226E+2  -3.47098E+2
   2.20839E+2  -4.62583E+1
   1.30261E+2  -3.21082E+1
   2.60323E+2  -8.61453E+1
   4.22255E+0   7.97551E+1
   5.06371E+1   3.62408E+2
  -1.61164E+2  -2.03798E+1
  -1.48839E+2   1.17212E+2
  -2.40211E+2   2.22934E+2
  -1.46471E+2   2.33331E+2
  -3.51013E+2   3.42271E+2
  -2.03232E+2  -3.69130E+2
   3.76365E+1  -1.02598E+1
  -1.52970E+1  -2.56128E+1
   1.48897E+2  -5.28416E+1
  -7.30146E+1  -9.33953E+1
   2.12141E+2  -5.63412E+1
   8.94526E+1  -1.53422E+2
   2.50309E+2  -2.31422E+2
   4.23319E+0  -1.00620E+2
  -1.29841E+2   2.37693E+2
  -5.22444E+0   6.43456E+1
  -6.90273E+1  -4.69925E+1
   8.11167E+1   5.05747E+1
  -2.47202E+1   1.51624E+2
  -2.15864E+2   5.74831E+1
  -1.74610E+2  -1.57814E+1
  -3.67065E+1  -8.44232E+1
   6.93252E+1   2.91590E+2
  -8.05677E+1  -2.77170E+2
  -6.65406E+1  -1.28887E+1
   9.39569E+1   6.20709E+1
   3.10440E+0  -1.08924E+2
  -2.47786E+2  -8.14538E+1
  -1.34271E+2  -7.71175E+1
   9.60127E+1  -1.86414E+2
  -3.90716E+1   3.36400E+1
  -1.26944E+2   4.60324E+1
  -1.23536E+2   2.91383E+2
  -3.50257E+1  -2.60935E+2
  -7.40063E+0  -2.94235E+2
   1.15194E+2  -1.41864E+1
  -6.01052E+1   1.00115E+2
   5.94213E+1  -2.69827E+1
   8.04927E+1   3.25806E+2
  -1.61739E+2  -1.30197E+2
  -2.28085E+2   9.42440E+1
  -1.45280E+2  -1.27931E+2
   1.02770E+2   1.60892E+1
  -1.69549E+1  -2.80868E+2
   5.91221E+1  -9.24064E+1
   3.79283E+2  -3.60147E+1
  -1.45711E+2   1.18840E+2
  -1.14132E+2   1.26105E+2
   1.47095E+1  -1.28731E+2
  -2.27728E+1   1.02411E+2
   6.04923E+0   4.59421E+1
  -1.37355E+2  -1.58852E+2
  -1.23532E+2   1.58098E+2
  -2.96183E+1   1.80135E+2
  -1.45053E+2   9.62665E+0
  -3.90180E+1   3.25835E+2
   3.57369E+1   1.40615E+2
  -2.94689E+2   6.52007E+1
  -1.52439E+2  -2.64840E+2
   5.55537E+1  -1.61811E+2
  -2.76681E+1  -1.75505E+2
  -2.91342E+2  -3.90173E+0
   1.04798E+2   5.71864E+1
   2.52891E+2  -2.23304E+1
   1.39565E+2  -1.03885E+2
  -9.23222E+1  -1.34733E+2
   1.96670E+2   1.11130E+2
   3.70051E+2   1.39897E+1
   1.94683E+2   1.48879E+2
  -1.40948E+2   2.88688E+2
  -1.13746E+2  -5.05206E+1
  -7.67756E+1  -4.61104E+1
   1.31379E+2   1.63399E+2
   1.83480E+2   1.25299E+2
  -1.03318E+2  -9.46438E+1
  -5.86842E+1  -8.98304E+1
   9.11064E+0   4.29638E+1
   2.21210E+2   6.93750E+1
   7.04718E+1   5.14094E+1
   2.55537E+1   1.89749E+2
  -7.41789E+1  -6.94929E+1
  -5.24157E+1   1.18863E+2
   8.38801E+1   2.20580E+2
   2.13376E+2  -4.89897E+1
  -2.40464E+2  -1.82498E+2
   2.26809E+1   8.49701E+1
   1.21146E+2   2.29372E+0
   3.32901E+2   3.97486E+1
  -5.88705E+1  -1.21932E+2
  -9.72854E+1  -1.80114E+2
  -7.33337E+1  -1.55639E+2
   7.02341E+1   9.91698E+1
  -6.29541E+1  -1.34981E+2
  -2.24586E+2   5.54991E+1
  -2.33262E+2   1.18538E+2
  -4.47724E+1   1.16710E+1
   1.13843E+2  -1.66683E+2
   2.79317E+2   1.90470E+2
  -3.33313E+1   1.20571E+2
  -1.00872E+2   2.17144E+1
  -4.47964E+1  -3.73557E+1
  -1.74195E+2   7.23965E+1
  -5.53712E+1   7.68358E+1
   1.36481E+2  -3.89845E+1
  -2.40060E+2  -7.94951E+1
  -6.91483E+1  -1.22455E+2
   3.29375E+2   2.36370E+2
  -1.42741E+2   2.75790E+2
   9.97655E+1   1.43857E+2
   7.03743E+1   2.21006E+1
  -1.28507E+1  -6.27573E+0
  -4.57612E+1  -1.56041E+2
  -7.99798E+1   1.29293E+2
  -8.76595E+1  -1.84964E+2
  -1.11882E+0  -1.02921E+2
   2.81231E+2  -1.33184E+1
  -5.03459E+1  -1.26773E+1
  -2.46203E+2  -2.77453E+1
   8.22725E+1  -2.52032E+2
   4.86140E+1  -2.29726E+2
   2.77671E+2   1.55459E+2
  -1.87612E+1   2.37034E+2
   1.09427E+1   2.04868E+2
  -1.48501E+2   5.85641E+1
  -5.33052E+1   1.07633E+1
   2.81606E+2  -1.80074E+0
   1.38986E+2   1.06325E+2
  -5.86220E+1  -2.09405E+1
   6.65631E+1  -1.19449E+2
  -2.11184E+1   1.74643E+1
   1.04448E+2   7.36847E+1
   1.04511E+2   4.28441E+1
  -2.18025E+2  -6.51108E+1
   1.04652E+2  -2.65898E+2
   2.23365E+1   6.60616E+1
  -1.07819E+1   6.78278E+0
  -1.30463E+2   2.88881E+1
   9.80396E+1  -2.30072E+1
   5.43284E+1   8.37126E+1
  -3.56190E+1   8.06447E+1
  -9.89660E+1  -1.73640E+2
  -9.64348E+1  -1.46686E+2
   1.61936E+2  -2.08619E+2
   4.23295E+1   4.70934E+1
   1.27081E+2   7.82459E+0
   5.41911E+1  -6.34217E+1
  -1.37097E+2   3.64537E+1
   3.13285E+2  -1.57457E+2
   2.59793E+1  -6.81690E+0
  -1.30097E+2  -8.60255E+1
   6.11129E+1   1.80950E+2
  -7.23421E+1   6.23455E+1
   1.07052E+2   1.26805E+2
  -1.31103E+2  -1.04956E+1
  -1.74202E+2  -2.20869E+2
  -8.67921E+1   3.84421E+1
  -9.03394E+1  -1.04239E+2
   3.59690E+1  -7.90048E+1
  -3.54498E+1  -1.73091E+2
  -1.24172E+2   9.64869E+1
  -1.45266E+2  -1.32700E+2
   5.15183E+1   1.02812E+2
   5.35167E+0  -7.60579E+1
  -1.82161E+2  -3.99124E+1
  -1.40643E+2  -1.83285E+2
   1.97860E+2  -1.77716E+2
   1.71198E+2   2.21915E+2
  -4.83382E+1   6.91329E+1
  -2.09559E+2   8.62936E+1
   5.75521E+1   1.69324E+2
  -6.58231E+1   3.41807E+1
   1.15314E+2  -1.75888E+2
   4.89328E+1  -1.24892E+1
   3.96483E+1  -4.82468E+1
   6.86244E+1   8.53656E+1
  -4.13195E+1   1.09289E+2
  -3.28102E+1   7.33071E+1
   1.13763E+1   8.89791E-1
  -4.79062E+1   1.39838E+2
  -1.12155E+2  -8.91936E+1
  -3.37339E+1  -2.16325E+1
   4.21126E+1  -2.99132E+1
  -1.97130E+2  -1.61618E+1
   6.01470E+1  -1.18475E+0
  -1.16199E+2   7.03648E+1
  -1.36326E+2  -2.79563E+2
  -3.08706E+1   1.12598E+2
  -1.29597E+1   1.94166E+2
  -1.49369E+1  -3.93221E+1
   7.45092E+1  -1.59630E+1
   7.03653E+1   1.97252E+2
  -1.24869E+2  -2.69584E+1
  -5.39338E+1  -7.67435E+1
  -9.34813E+0  -2.41580E+1
  -1.35056E+2   7.08974E+1
  -1.79185E+2  -1.74149E+2
  -7.99659E+1   1.55570E+2
   1.37657E+2   1.87913E+1
   1.45234E+2  -8.63452E+1
   5.20312E+1  -8.84579E+1
  -8.25605E+1   4.72738E+1
   1.06371E+2   3.46023E+2
  -3.01599E+2  -8.33532E+0
   2.15176E+2  -7.76663E+1
   9.62574E+1  -1.25454E+2
   1.45296E+2  -1.54033E+2
  -1.07735E+2  -4.65075E+1
   2.94095E+0  -1.47389E+2
   4.11488E+1   1.18368E+1
  -1.44101E+1   4.14977E+1
   5.96568E+1   8.63448E+1
   9.95014E+1   1.11997E+2
  -1.05056E+1   2.64149E+2
   1.79955E+2   1.03485E+1
  -1.52885E+2  -9.65399E+1
  -1.61112E+2   1.24674E+2
   2.70456E+1   1.82435E+1
   3.10276E+1   7.81588E+1
   3.91661E+1   1.04718E+2
  -2.58214E+1   1.93695E+0
  -8.59737E+1  -6.26044E+1
  -7.04322E+0  -4.12109E+1
  -7.74900E+1  -6.85927E+1
   7.27397E+1  -5.01812E+1
  -1.28065E+2   2.41876E+1
   1.13554E+2  -1.62612E+2
   6.79603E+1  -8.26694E+1
  -3.87945E+1  -1.01446E+2
   4.39582E+1   6.01556E+0
  -1.15963E+2   2.65329E+2
   8.15919E+1  -1.19713E+1
  -4.65226E+1  -1.33544E+2
  -6.21557E+1   1.86793E+1
   1.54489E+2   1.42094E+1
  -1.06154E+2  -7.70672E+1
  -1.50551E+2   1.24947E+2
   6.28211E+1   7.41577E+1
  -1.21681E+2   2.77911E+2
   2.93499E+1   1.32733E+2
  -4.20666E+1  -1.26987E+2
  -1.38277E+2  -1.42195E+2
   1.53761E+2   8.16472E+0
   1.24444E+2  -9.97889E+1
   8.93098E+1   1.75352E+2
  -1.26440E+2   6.65252E+0
  -7.45899E+1  -4.81709E+1
   2.35150E+2  -1.54562E+2
   5.09990E+1  -3.78915E+1
  -9.84081E+1   6.07735E+1
  -7.28187E+1   1.62959E+1
   7.63267E+1  -1.17699E+2
  -5.46515E+1  -1.17594E+2
  -6.49610E+1   1.28272E+1
  -2.56606E+0   1.81357E+2
  -1.32730E+2  -1.23533E+2
   1.03736E+2  -3.42501E+1
   7.32007E+1   2.32855E+2
   6.25518E+1  -3.17326E+1
   4.09900E+1   3.42480E+1
   2.24356E+2   4.46754E+1
   2.07777E+1   1.84337E+2
  -1.19003E+2  -7.00467E+1
   7.16803E+1   3.23349E+1
   2.80677E+1  -7.15257E+1
   2.60061E+2  -3.34615E+1
  -3.01175E+1  -1.28997E+2
   1.96111E+2  -4.01048E+1
   2.44473E+1  -1.11680E+2
  -1.13332E+2  -9.11115E+1
   2.41823E+2   1.81359E+2
   9.06103E+1   2.17603E+1
