 
 $NMID
 ID=''
 FMTDAT='(2E13.5)'
 TRAMP=   1.00000E+0
 VOLUME=   1.00000E+0
 $END
   1.64264E+3   3.95862E+3
   5.10340E+3  -2.03502E+3
   3.53452E+3  -3.63453E+3
  -2.23710E+2  -4.02353E+2
  -3.58152E+3   1.89933E+3
  -2.79477E+2   1.23348E+3
   3.33493E+3  -1.54577E+2
   1.98765E+3  -1.19474E+3
  -9.25972E+2  -1.37472E+2
  -1.61351E+3   3.09460E+3
  -1.44519E+3   2.57821E+3
   3.49860E+2  -1.01194E+3
   1.10908E+3  -1.25507E+3
  -1.41934E+3   7.33249E+2
  -2.25286E+3  -8.46842E+2
   1.27953E+3  -2.40150E+3
   2.48888E+3   3.49674E+2
  -3.86542E+2   1.57795E+3
  -1.17829E+3  -4.25046E+2
   4.73169E+2  -5.21399E+2
   5.19776E+2   2.51524E+2
   5.31288E+2   8.91563E+1
   4.59436E+2   7.75276E+1
  -7.02679E+2  -1.06621E+2
  -9.13315E+2  -1.06284E+3
   3.85119E+2  -3.35321E+2
   7.17772E+2   1.55968E+3
  -1.18979E+3   9.12194E+2
  -6.70309E+2  -9.66451E+2
   9.25514E+2  -4.67042E+2
  -1.45791E+1   4.51980E+2
  -9.16408E+2   2.34509E+2
  -1.06009E+3  -2.31324E+2
  -5.97257E+2  -2.71855E+2
   3.53448E+2  -9.26972E+2
   1.72331E+3  -3.52409E+2
   9.86495E+2   1.14380E+3
  -1.05538E+3   8.08934E+2
  -6.74505E+2  -4.66507E+2
   1.94484E+2  -1.54541E+2
  -3.46449E+2   3.45566E+2
  -2.24321E+2  -4.73043E+2
   1.00416E+3  -5.95835E+2
   1.06404E+3   2.68994E+2
   3.97290E+2   5.64832E+2
   1.09297E+2   6.45401E+2
  -6.52485E+2   9.97438E+2
  -1.03157E+3   2.92429E+2
  -5.13725E+2  -1.17220E+3
   3.80847E+2  -1.18156E+3
   3.84597E+2  -2.93821E+2
   5.92884E+2  -1.34365E+2
   5.11159E+2  -2.09181E+2
   4.44025E+1   4.93253E+2
  -1.49915E+2   3.03564E+2
  -4.94686E+2   1.40765E+2
  -2.74599E+2  -4.22823E+2
   7.94405E+1  -5.17272E+2
   5.39913E+2  -4.93508E+2
   6.17470E+2   5.92165E+1
   3.66607E+2   2.86269E+2
  -4.62200E+1   4.38907E+2
  -4.40889E+2   6.91667E+2
  -8.19048E+2   5.70544E+2
  -9.49053E+2  -4.96554E+2
  -3.44750E+2  -9.82052E+2
   3.51020E+2  -6.95118E+2
   5.93172E+2  -3.46235E+2
   5.64419E+2   2.25808E+2
  -5.85330E+1   5.37164E+2
  -1.43493E+2   1.86527E+2
   5.56607E+2  -3.07493E+2
   4.20810E+2   5.41597E+2
  -5.88910E+1   6.96862E+2
  -6.65231E+2   1.32666E+2
  -3.27477E+1  -3.53112E+2
   3.20002E+2   8.59689E+0
  -1.56280E+2   4.12307E+2
  -3.68393E+2   1.70947E+2
  -1.97003E+2  -5.41473E+2
  -1.13304E+2  -4.52641E+2
  -1.34529E+2   1.61610E+1
   2.46694E+2   1.67223E+2
   8.23731E+1  -1.86651E+2
   8.68592E+1  -5.41738E+2
   3.59743E+2  -6.52664E+1
   3.73965E+2   4.02085E+2
   3.87075E+2   4.01383E+2
   3.29417E+1   2.00767E+2
   2.90642E+2   1.18131E+2
   1.41647E+2   3.57087E+2
   8.67264E+1   2.20159E+2
  -3.73682E+2   2.57229E+1
  -7.13355E+2  -2.26293E+2
  -8.21185E+1  -5.61579E+2
   6.14192E+2  -4.59999E+2
   3.04658E+2  -4.12605E+1
  -2.80278E+2   1.58016E+2
  -3.97135E+1  -2.66448E+2
   5.11161E+2  -1.65154E+2
   3.02732E+2   5.67545E+2
  -4.50481E+2   5.46991E+2
  -4.77510E+2  -2.49619E+2
   2.51998E+2  -6.31726E+2
   5.03249E+2  -3.46572E+1
   1.37561E+1   3.73691E+2
  -5.74507E+2   4.01549E+2
  -4.60245E+2  -2.93280E+2
  -1.60613E+1  -8.12090E+2
   3.98877E+2  -1.54333E+2
   5.14031E+2   1.40655E+2
   5.05330E+1   1.94068E+2
  -1.70342E+2   3.45520E+2
  -3.98249E+2   7.20842E+1
  -1.15181E+2   2.02136E+2
  -3.47453E+2  -6.01986E+1
  -4.25959E+2   8.66814E+1
  -2.80367E+2  -4.97748E+2
  -5.79276E+1  -5.97178E+2
   7.46689E+2  -1.24616E+2
   2.68370E+2   2.09891E+2
   1.65147E+2   1.92287E+2
  -1.58128E+2   1.55652E+2
  -3.11432E+2   2.60156E+2
  -3.35754E+2  -7.71175E+1
  -4.13108E+2  -3.30209E+2
  -1.72040E+1  -4.39350E+1
   4.61025E+1   7.61160E+1
   8.08092E+1   2.90729E+1
  -8.56899E+1   2.00082E+2
  -4.95421E+2  -1.35991E+1
  -4.66756E+2  -1.98972E+2
  -4.32460E+1  -9.68981E+1
   2.67760E+2  -9.80774E+1
  -1.15719E+2   1.49703E+2
  -7.36029E+1  -7.76772E+1
   3.63763E+2  -6.17087E+1
   9.10481E+1   5.08620E+2
  -4.71347E+2   4.35358E+2
  -5.12410E+2   1.38010E+2
  -9.80210E+1  -2.73308E+2
   1.42573E+2  -2.02058E+2
  -1.09852E+2   8.51955E+1
   8.33815E+1   3.58329E+2
  -4.34143E+2   4.94646E+0
  -2.90065E+2   1.54672E+2
  -1.99595E+2  -1.97089E+2
  -9.97736E+1  -2.49477E+2
   2.94530E+2  -2.68657E+2
   1.51118E+2  -4.46253E+1
   8.68549E+1  -1.89066E+2
   3.87169E+2   1.71306E+2
   4.20351E+1   3.03335E+2
   1.31517E+1   3.47816E+2
  -2.63656E+2   7.33984E+1
   1.08431E+2  -8.46185E+1
   7.11305E-1   9.78746E+1
  -1.73607E+2   4.68895E+1
  -3.56958E+1  -2.40996E+1
  -1.04376E+2  -8.04738E+1
  -1.88212E+1   2.05459E+2
  -2.86977E+2   1.04363E+1
  -1.85050E+2   5.01079E+1
   1.38415E+2  -3.56854E+2
   1.32285E+2  -3.26309E+2
   1.47676E+2   4.71787E+0
  -5.49765E+1   2.07145E+2
   1.72901E+1  -1.08611E+2
  -5.17393E+1   2.11566E+1
   1.71166E+2  -1.32107E+2
  -1.01889E+1   1.54020E+2
  -3.27584E+1   1.71020E+2
  -6.57439E+1  -6.34249E+1
   9.13614E+1   3.20436E+1
  -1.32509E+2  -2.87333E+2
  -7.66706E+1   2.13428E+2
  -2.03105E+2   5.70641E+1
  -3.11278E+2  -8.62094E+1
   1.38037E+2  -1.17752E+2
   1.05382E+2  -1.30846E+2
   1.67120E+1  -2.87618E+1
  -2.14106E+2  -4.57625E+1
  -8.42823E+1  -1.55020E+2
  -1.89406E+2  -1.04463E+2
   1.04912E+2   3.10736E+1
  -1.82771E+2  -3.82926E+1
   2.64663E+2   1.41564E+1
   2.40681E+2   1.27191E+2
   6.08892E+0  -2.69031E+1
   2.09524E+1   3.29508E+2
  -2.43870E+2   1.17844E+2
  -1.34199E+2   7.56199E+1
  -4.95392E+0  -3.08666E+2
  -1.14391E+2  -6.17537E+1
   2.20357E+2   9.12769E+1
   1.28092E+2   2.67486E+2
  -1.14783E+2   5.98117E+1
  -2.07708E+1   2.94649E+2
  -4.66341E+1   7.28041E+1
  -1.75641E+2  -9.73345E+1
   1.07053E+1   1.40929E+2
   1.85491E+2   1.55152E+2
   3.55868E+2   1.47548E+1
  -2.15561E+1   2.20638E+2
  -9.64579E+1  -4.92912E+1
   8.21854E+1   3.35768E+1
  -7.27483E+1   9.64719E+1
  -1.48716E+2   1.74045E+1
  -1.82833E+2   9.83377E+1
   4.34443E+1  -1.12352E+2
  -3.56289E+1  -3.32012E+1
   1.69555E+2  -1.79374E+2
   1.17102E+2  -2.35181E+1
   2.56332E+1   1.67615E+1
  -1.22149E+2   7.31582E+1
   1.53566E+2  -3.14458E+1
  -1.03180E+1   7.27349E+1
   1.10527E+2  -1.84171E+1
  -6.09936E+1  -9.11234E+1
   1.59101E+2  -1.78640E+2
  -9.45827E+1   9.62934E+1
  -8.81216E+1   4.27301E+1
   1.17309E+2   7.33424E+1
  -5.80022E+1  -1.84043E+2
   1.24753E+2  -1.35373E+2
  -6.88302E+1   8.79450E+1
   1.48393E+1   5.18976E+1
  -2.51557E+2  -1.32525E+2
  -1.25719E+2  -7.68443E+1
   3.73798E+1  -7.81555E+1
  -1.83719E+0  -8.03843E+1
   2.42259E+1   1.93715E+1
  -4.00726E+1   1.29870E+2
  -5.53894E+1  -2.14180E+1
  -1.03745E+2   6.93067E+1
   4.93686E+0   2.81703E+1
   3.63697E+1   6.50183E+1
  -1.35343E+1   2.22570E+2
   7.12014E+1  -6.55155E+1
  -1.47058E+2   1.56650E+2
  -2.73357E+2   3.51021E+1
   1.40597E+2  -9.99212E+1
  -7.19320E+1   2.17871E+2
   1.46327E+2  -3.28302E+1
  -1.16682E+2  -2.11567E+1
  -3.18125E+1   1.81804E+1
  -1.06851E+2  -9.80514E+1
  -1.66564E+2   1.36803E+2
   1.63189E+2  -1.30135E+2
  -7.54984E+1   2.70697E+1
  -3.84239E+1   1.66462E+1
  -1.29332E+2  -3.55928E+1
  -1.49258E+2  -2.41023E+1
   6.25759E+1   9.97442E+1
   4.04573E+1   2.20970E+2
   3.48877E+1   1.24393E+2
   1.77530E+1   1.51068E+2
  -2.49176E+1   1.12900E+2
  -3.71857E+1  -1.43244E+1
   6.82784E+1   2.84806E+2
  -9.90543E-1  -1.20425E+2
  -1.80357E+1  -1.25954E+2
   1.42436E+2  -1.56000E+2
   3.82631E+1   6.03110E+1
   1.05065E+2  -9.19162E+1
   2.30350E+1   1.28373E+2
  -2.23591E+2   8.36298E+1
  -2.48251E+2  -1.79855E+2
  -1.95573E+2   1.94531E+2
   1.72164E+2   2.83542E+1
   2.62333E+2   9.77601E+1
   2.12810E+2  -3.64280E+1
  -1.21657E+1  -1.78080E+2
   1.20584E+2  -6.88266E+1
   6.56427E+1  -8.67485E+0
  -8.16400E+1  -7.67795E+1
   6.27896E+1  -1.80371E+2
   1.20829E+2  -3.71555E+1
  -4.08683E+0  -1.06849E+2
   9.38712E+1   9.65749E+1
   1.43137E+2  -1.06872E+1
   2.86549E+1  -1.43404E+0
   1.29935E+2  -1.16789E+2
   7.26147E+1   6.48653E+1
  -1.28807E+2   5.05498E+0
  -5.89895E+1  -1.05756E+2
  -1.75723E+1  -1.55755E+2
   1.81886E+1  -1.38439E+1
   2.58079E+2  -1.70340E+0
   2.17981E+2   2.36781E+1
  -2.82898E+2   2.27296E+2
   4.17124E+1  -2.66346E+2
  -3.16734E+1  -6.14001E+1
   3.38572E+1  -3.32559E+1
   4.95493E+1  -9.39797E+0
   5.51080E+1   6.38733E+1
  -7.05232E+1  -8.17025E+1
   1.62512E+1  -2.90128E+2
   1.68873E+2   2.89640E+1
  -3.89746E+1  -1.21650E+2
   6.93527E+1  -6.37121E+1
   1.62588E+2   5.27689E+1
  -6.59406E+1   1.25845E+2
   1.09122E+2   3.61110E+2
   4.69012E+1   6.92487E+1
   3.13793E+1  -8.99584E+0
  -1.69776E+1  -6.67709E+1
  -1.36007E+2  -1.80849E+2
  -1.98192E+2  -3.02863E+2
  -2.24261E+2   3.86479E+1
   7.19799E+0  -1.82323E+2
  -6.34652E+1  -1.56014E+2
   6.01219E+1  -7.65683E+1
   1.60772E+1   3.62783E+1
  -1.53286E+2   8.05040E+1
  -8.81653E+1  -1.36706E+1
   5.95453E+1   2.29407E+1
   6.16801E+1   5.14118E+1
  -1.77976E+1   3.63692E+0
   2.35292E+2  -1.03197E+2
   1.94499E+0  -6.84892E+1
  -5.33248E+1   8.28511E+1
   1.08090E+2   1.92059E+2
   9.07404E+1   6.45473E+0
   1.10636E+1   9.00060E+1
   1.69322E+2   1.38899E+2
   1.08949E+2   2.08011E+2
  -1.71611E+1   1.63600E+2
  -6.93613E+1  -2.12411E+2
   4.15495E+1  -6.63206E+1
   1.90970E+2   1.36534E+2
   2.27343E+2   2.47895E+1
  -1.42660E+2   8.74813E+0
   9.82081E+1  -7.89278E+1
   2.01236E+2  -2.56741E+2
   9.27942E+1   6.19974E+1
  -1.41382E+2  -1.32265E+2
  -7.47948E+1  -6.00298E+1
   6.63663E-1  -1.86022E+2
   6.04707E+1  -1.16925E+2
   1.24136E+2   1.41090E+2
  -6.06334E+1   1.62716E+2
  -7.73960E+1  -5.32202E+1
   1.49760E+2  -5.33597E+1
  -9.73511E+1  -1.94369E+1
  -1.58739E+2  -7.14988E+1
   3.62560E+1   3.94624E+1
  -1.67637E+2  -2.00776E+2
   1.84335E+2  -1.31960E+2
   1.40570E+2  -7.31955E+1
  -2.42537E+1   1.76111E+2
   1.05459E+2  -3.31293E+0
  -6.93215E+1  -3.26322E+1
   6.23166E+1  -2.61994E+2
  -5.38923E+1  -6.50059E+1
  -1.33674E+1  -1.43957E+2
  -7.21264E+1   8.27512E+1
   1.83072E+1   9.94300E+1
   4.41804E+1   2.53501E+1
   1.11015E+2  -1.59316E+2
  -1.67808E+1   1.72945E+0
  -7.56546E+1   9.48782E+1
   4.58631E+1   7.07501E+1
   7.67929E+1  -1.62329E+1
   3.20218E+2   4.24707E+1
   1.28894E+2   2.78549E+1
  -2.08554E+1   2.24217E+2
