 
 $NMID
 ID=''
 FMTDAT='(2E13.5)'
 TRAMP=   1.00000E+0
 VOLUME=   1.00000E+0
 $END
  -3.67132E+4  -6.33172E+3
  -7.13634E+3   8.49484E+3
   2.43732E+3   2.66586E+3
   3.13684E+3   9.28070E+2
   3.11877E+2   1.06857E+3
  -1.04355E+3  -8.22001E+2
   1.13269E+3  -6.85904E+2
   2.29218E+3  -8.21197E+2
   3.15721E+2   1.32190E+2
  -1.04450E+3   2.61821E+3
  -1.73825E+3   7.42486E+2
  -8.51069E+2  -2.19603E+3
  -5.43423E+1   8.09111E+2
  -2.27824E+3   2.91964E+3
  -2.88376E+3  -1.28946E+3
   2.14219E+3  -2.76987E+3
   3.00939E+3   1.03540E+3
  -1.57284E+3   2.15192E+3
  -1.53532E+3  -1.33495E+3
   1.51299E+3  -1.45661E+3
   6.65848E+2   8.40504E+2
  -1.04408E+3   6.23454E+2
   1.40307E+2  -2.89952E+2
   9.19755E+1   4.24247E+2
  -5.63303E+2   3.14726E+2
   2.80177E+2  -5.19051E+2
   7.93005E+2   5.53592E+2
  -3.61846E+2   7.45533E+2
  -6.07820E+2  -2.93259E+2
  -3.01808E+2  -4.95684E+2
   1.79685E+2  -3.72790E-1
   9.77338E+2   7.14835E+2
  -5.31195E+1   9.50859E+2
  -1.59594E+3  -8.15699E+2
   2.25500E+2  -2.39582E+3
   2.67451E+3  -1.97630E+2
   3.23592E+2   2.33052E+3
  -1.79838E+3   4.27810E+2
   1.57973E+2  -1.42884E+3
   1.07189E+3  -3.78483E+2
  -9.93842E+2   2.66236E+2
  -6.98837E+2  -1.42958E+3
   1.42674E+3  -1.08857E+3
   1.07964E+3   1.16885E+3
  -4.20704E+2   8.91420E+2
  -7.21522E+2   2.06634E+2
  -8.33469E+1   1.64571E+2
  -6.08332E+2   2.88693E+1
  -5.01623E+2  -1.32283E+3
   2.89314E+2  -9.67750E+2
   5.78450E+2  -1.68899E+2
   2.19727E+2  -4.69671E+1
   1.31371E+2   1.00081E+2
   7.48112E+1   2.55127E+2
   3.37159E+2   1.52502E+2
  -2.87218E+2   1.83444E+2
  -8.84538E+2  -5.56583E+2
  -1.14049E+2  -8.01990E+2
   7.85834E+2   3.90931E+1
   3.31389E+2   1.00965E+3
  -6.40742E+2   7.20612E+2
  -5.08524E+2   4.69621E+2
  -7.67282E+1   5.09899E+2
  -5.15315E+2  -1.76600E+2
  -9.59067E+2  -9.74690E+2
   2.29639E+2  -1.12015E+3
   1.08365E+3  -4.61016E+2
   7.74830E+2   5.73588E+2
  -1.22077E+1   1.09504E+3
  -3.14571E+2   2.80454E+2
   2.45030E+2  -5.53338E+2
   5.88636E+2   2.35404E+1
   2.63563E+2   8.12915E+2
  -5.99951E+2   4.50884E+2
  -6.35032E+2  -1.80141E+2
   2.74112E+2  -5.26515E+1
   4.06240E+1   1.10559E+2
  -1.76620E+1   2.90314E+2
  -1.20733E+2   5.73332E+1
   2.29128E+1  -6.32150E+0
   5.49441E+2  -3.06194E+2
   4.13161E+2  -1.52718E+2
   3.33151E+2   2.71816E+2
  -1.18819E+2   3.46882E+2
   1.48715E+2  -5.29792E+1
   5.73456E+2   2.93528E+2
   2.80506E+2   4.46860E+2
  -3.90621E+2   2.73674E+2
   1.17909E+2  -3.19702E+2
   1.53311E+2   1.10856E+2
   5.60246E+1   3.75301E+2
  -7.63068E+2   1.24458E+2
  -2.56594E+2  -3.10716E+2
  -1.66434E+2  -6.88616E+2
   5.55506E+2  -1.94724E+2
   4.36265E+2   2.25244E+2
   1.88519E+2   3.34301E+2
  -2.03674E+2   6.74079E+1
   2.81050E+2  -1.38150E+2
   5.65191E+0   4.10310E+2
  -3.78664E+2   1.79195E+2
  -7.61542E+2  -3.52824E+2
  -3.88367E+1  -5.29928E+2
   4.64049E+2  -5.58467E+1
   2.26449E+2   4.94944E+2
  -3.83866E+2   2.05499E+2
  -6.84841E+2  -2.54612E+2
  -6.29489E+1  -6.95784E+2
   4.02196E+2  -3.62871E+2
   6.86564E+1   5.94687E+2
  -3.91949E+2   7.44304E+2
  -7.07134E+2  -1.32821E+2
  -2.55152E+2  -3.26149E+2
  -8.15323E+1   7.10129E+1
  -1.56786E+2  -2.48469E+2
  -1.06273E+2  -3.22195E+2
  -3.62647E+1  -3.92335E+2
   4.71991E+2  -2.17190E+2
   5.66209E+2   1.47809E+2
   1.42663E+2   6.54010E+2
  -4.92004E+2   2.69736E+2
  -1.23763E+2  -1.74029E+2
  -1.91032E+2   1.47037E+2
  -3.21972E+1  -9.70496E+0
  -1.79251E+2  -5.90135E+0
  -3.33894E+1  -2.76682E+2
   2.82716E+2  -4.08094E+1
   5.45227E+1   3.02026E+2
  -2.53960E+2   1.75883E+2
  -4.30493E+2  -2.12236E+2
   3.70097E+1  -1.45215E+2
   3.85430E+2  -5.97401E+1
   3.86540E+2   1.72884E+2
  -1.08905E+2   1.70931E+2
   3.72929E+2  -1.76935E+2
   2.58969E+2   2.65803E+1
   5.07569E+1   2.29118E+2
  -3.07505E+2   1.52058E+2
  -3.83296E+2  -2.27603E+2
  -1.12196E+2  -5.45488E+2
   2.22551E+2  -3.70640E+2
   1.84980E+2   3.84724E+2
  -1.87278E+2   4.69889E+2
  -5.31546E+2  -1.03153E+2
   2.00266E+2  -4.96043E+2
   4.29353E+2  -2.10769E+2
   1.85318E+2  -2.88344E+2
   1.42427E+2   1.95215E+2
   2.10197E+2   8.26676E+1
   2.06612E+2  -1.33822E+2
   8.80846E+1   9.84449E+1
  -1.66487E+2   3.66761E+2
  -4.02361E+2   9.06589E+1
  -2.68070E+2  -1.26917E+2
   4.05024E+2  -1.43634E+2
   4.03760E+2   2.98998E+2
  -2.14001E+2   2.33976E+1
  -2.34064E+2  -2.34537E+2
  -6.66105E+1  -2.40101E+2
  -5.10210E+1  -6.19028E+1
  -6.34163E+1  -7.55237E+1
   2.23502E+2  -1.88618E+2
   2.17952E+2  -1.84849E+2
   2.67298E+2   1.05146E+0
   4.79149E+1   2.12438E+2
  -2.57899E+2   2.28440E+2
  -4.56199E+2  -3.91394E+2
   2.12247E+2  -3.06803E+2
   1.44368E+2  -1.35696E+2
   4.46748E-1   1.29723E+2
  -1.61573E+0   9.05053E+1
  -6.13761E+1  -1.87820E+2
  -6.21350E+1  -5.81552E+1
   2.29901E+2   1.60726E+2
  -8.89487E+1   2.36747E+2
  -2.04848E+2  -2.19184E+2
   6.37693E+1  -3.29048E+2
   2.89227E+2  -1.19489E+2
   1.35106E+1   2.55524E+2
   2.04539E+1   3.50010E+2
  -4.44995E+2  -1.26863E+2
   2.36809E+2  -2.54379E+2
   1.78461E+2  -6.47823E+0
   1.89473E+2   1.94902E+2
   1.15844E+2   1.32350E+2
   7.69235E+1  -1.95480E+1
  -1.16404E+2   1.50406E+2
  -6.40546E+1   3.26776E+2
  -4.39830E+2   5.38177E+1
  -1.71950E+2  -5.89801E+0
   7.74220E+1  -3.13700E+2
   2.98448E+2  -4.14961E+2
  -8.75632E+1  -4.00192E+1
  -9.56616E-1   2.11452E+2
  -2.65763E+2   1.08148E+1
   1.07640E+2  -1.73977E+2
   1.94193E+2  -1.77727E+2
   7.53993E+1  -4.96711E+1
  -6.73939E+1  -2.65299E+2
   3.25933E+2   1.35515E+2
   1.69041E+2   2.84114E+1
   1.15724E+2   1.43529E+2
   2.27711E+1  -2.84772E+1
  -3.72927E+2   1.71451E+2
   2.31252E+2  -1.40997E+2
   1.82784E+2   9.88367E+1
  -2.37469E+1   5.62824E+1
  -6.91051E+1  -6.42154E+1
  -9.84629E+1   6.26858E+1
  -8.40695E+1   1.09652E+2
  -4.42799E+1   1.86704E+2
  -1.00476E+2  -1.76443E+1
  -2.17283E+2  -5.29762E+1
   9.79033E+1  -3.44032E+2
   1.80692E+2  -7.42390E+1
   1.69219E+2   2.24448E+2
  -1.98727E+2   1.94828E+1
  -3.46044E+2  -1.96850E+2
   1.02481E+2  -1.76623E+2
   1.48336E+1   2.43692E+2
  -7.98982E+0   4.88364E+1
   4.80852E+1   7.58152E+0
   1.82362E+1   2.90808E+1
   3.63642E+2   1.60590E+2
   1.12835E+2   1.77969E+2
  -1.41548E+2   2.38251E+2
  -1.00217E+2   1.27968E+2
  -1.59024E+2  -2.50503E+2
   2.95761E+2   1.08843E+2
  -8.53602E+1   6.78578E+1
   2.15195E+2   2.75857E+2
  -8.32350E+1  -8.74301E+1
  -1.07968E+2   1.05438E+1
   5.48263E+1  -6.37395E+1
  -9.62648E+0   7.39386E+1
  -1.44365E+1   1.10993E+2
   1.94213E+2  -1.59306E+2
   1.59560E+1  -8.01663E+1
  -2.82049E+1   2.06230E+2
  -1.63030E+2   1.07751E+2
  -6.44520E+1   7.47907E+1
   1.81175E+2   1.94565E+2
  -6.62982E+1  -4.27729E+1
   5.95176E+1   1.14206E+2
  -3.95423E+1   1.40058E+2
  -2.19400E+2  -4.31492E+0
  -6.60425E+1  -7.26057E+1
   7.00605E+1   2.54918E+2
  -2.74452E+2  -6.08149E+1
  -5.03161E+1   1.59484E+2
   1.95589E+2  -1.37382E+2
   1.07574E+2  -4.98113E+1
  -1.19829E+2   1.94365E+2
  -1.43798E+2   1.88287E+2
  -4.92455E-1   1.57016E+2
  -2.12413E+2   5.81981E+1
   4.08697E+1   7.48393E+1
   3.82670E+1   2.94585E+1
   1.72992E+2   2.10964E+1
  -1.77448E+2  -1.16550E+2
  -9.19367E+1   2.09937E+2
  -1.57203E+2  -6.44441E+1
   4.27671E+1   1.67770E+2
   7.19598E+0   8.60330E+1
  -5.29285E+1  -1.63083E+2
   3.23243E+1   4.56622E+1
  -5.79824E+1   1.20094E+2
   1.89633E+2   6.35050E+1
  -9.26240E+0  -1.40176E+2
   2.45579E+2  -8.93313E+1
  -5.21210E+1   7.24693E+0
  -2.05821E+2   2.58100E+2
   2.16793E+2  -1.19040E+2
   1.78195E+2  -3.57332E+1
  -1.16167E+2   7.76693E+1
   1.78454E+2   2.05808E+2
  -4.61951E+1  -6.16987E+1
   2.47445E+1   1.71116E+2
  -9.28312E+1  -2.67242E+1
   5.14132E+1  -3.74181E+1
  -1.42538E+2  -2.15113E+2
   5.09176E+1   1.90455E+2
  -2.02847E+2  -5.23759E+2
   4.10021E+1  -3.90934E+1
   9.34310E+1  -5.20990E+0
   4.64226E+1   1.25280E+2
   6.65902E+1   2.76142E+2
   7.15166E+1   1.05430E+2
   2.09342E+1  -1.27582E+2
   5.07991E+1   1.43002E+2
   1.82751E+2  -1.12090E+2
  -9.25353E+1   5.71128E+0
   9.01567E+1   1.32824E+2
  -3.57021E+1  -5.47446E+1
  -1.04275E+1   2.31548E+2
  -8.91664E+1   3.74914E+1
   3.66805E+1   3.48920E+1
  -1.41629E+2   1.77072E+2
  -4.09852E+1  -1.11736E+1
  -1.15424E+2   1.86083E+0
   3.11745E+1   8.41673E+1
   3.84133E+1   2.52692E+1
  -5.17228E+1   2.61765E+2
   1.53209E+2   1.01304E+2
   3.48044E+1  -6.29364E+1
   1.27911E+2  -1.79953E+2
   5.31718E+1   3.84286E+1
  -1.83608E+2   1.46583E+2
  -8.34857E+1  -9.05108E+1
   1.50415E+2  -1.27330E+1
   9.44527E+1  -9.00268E+1
   1.97307E+2   1.14379E+2
  -8.04029E+1   6.45524E+1
  -8.96676E+1  -5.63022E+1
   2.12130E+2   8.32330E+0
  -5.19875E+1  -2.06474E+2
  -2.10061E+2  -2.99369E+2
   4.31994E+1   1.18442E+2
  -1.56004E+2  -6.41807E+1
   1.31216E+2   1.22415E+2
  -1.03251E+2  -2.51252E+2
   1.67946E+2   3.36799E+2
  -1.64560E+2  -1.29364E+2
   3.45894E+1  -9.38001E+1
   1.16573E+2  -6.30113E+1
   8.41763E+0  -3.10111E+1
  -2.56015E+2  -2.18088E+2
  -9.92657E-1   1.73396E+2
  -3.78560E+2  -9.87436E+1
   5.04031E+1  -1.10023E+1
  -7.29937E-1   8.06056E+1
  -6.12807E+1   9.79624E+1
  -1.24357E+1  -2.91034E+1
  -2.46670E+1  -1.30368E+2
  -6.79520E+1  -5.62353E+1
   5.80225E+1   2.24302E+1
   5.23115E+1  -3.59264E+1
   2.52139E+2  -2.80274E+1
   3.59862E+1   7.21573E+1
  -1.59633E+2   1.98025E+2
  -1.08307E+2   1.60871E+2
  -1.29708E+1  -1.37875E+1
   4.30093E+0  -3.23682E+2
   1.39126E+2  -1.08892E+2
   7.42363E+1   8.83995E+1
  -8.88131E+1  -2.56034E+2
  -8.75733E+1   4.70150E+0
  -6.03658E+1  -6.42244E+1
  -6.70239E+1   1.35538E+2
  -1.45783E+2   2.16889E+2
   5.84964E+1  -8.64734E+1
  -1.19188E+2  -3.52294E+1
   2.21000E+1  -1.80001E+2
   1.15989E+2   1.20950E+2
  -2.46054E+2   1.91431E+2
  -1.08247E+2   7.39673E+0
   1.86211E+2  -1.04406E+2
  -4.34759E+1   4.21081E+1
  -6.06592E+1  -6.74087E+1
   1.83026E+2  -6.67744E+1
   6.37873E+1  -1.15666E+2
   1.11942E+2   2.02181E+2
  -1.90521E+2   8.63704E+1
  -6.98440E+1  -6.60333E+1
  -1.04457E+2  -1.85283E+2
  -7.82258E+1  -3.71344E+0
   9.70357E+1  -1.14251E+2
