 
 $NMID
 ID=''
 FMTDAT='(2E13.5)'
 TRAMP=   1.00000E+0
 VOLUME=   1.00000E+0
 $END
  -9.08095E+3   9.78211E+3
   6.71768E+3   7.61379E+3
   6.56860E+3  -1.09470E+4
  -7.41626E+3   3.20941E+2
  -2.18699E+3   1.00716E+4
   4.55414E+3  -5.25602E+3
  -9.23410E+2  -5.37429E+3
   1.07575E+3   5.92691E+3
   4.07891E+3  -1.12481E+3
  -1.86980E+3  -2.36960E+3
  -3.05972E+3   7.27968E+3
   5.29996E+2   1.29138E+3
  -5.81580E+2  -5.04485E+3
  -9.87435E+2   2.69079E+3
   8.39740E+1   2.02320E+3
  -1.45423E+3  -5.21464E+3
  -2.08987E+2  -1.65233E+3
   2.41797E+3   2.75848E+3
   1.51948E+2  -3.33305E+2
  -1.26864E+3  -4.80486E+2
  -4.41442E+2   1.92378E+1
   4.82318E+2  -1.68688E+3
   9.71024E+2  -1.91123E+2
  -1.73188E+2   2.44272E+3
  -1.39050E+3  -7.52108E+2
   3.66982E+2  -2.77320E+3
   2.16532E+3   1.31220E+3
  -1.08086E+3   2.57349E+3
  -2.93459E+3  -1.37658E+3
   6.86020E+2  -1.49017E+3
   2.19536E+3   1.72829E+3
  -1.61497E+3   1.71682E+3
  -1.85284E+3  -1.75792E+2
   4.59492E+2  -6.34838E+2
  -3.55656E+1  -1.04112E+3
  -8.25438E+1  -1.55449E+3
   1.78481E+3  -3.01058E+2
   1.23899E+3   1.00305E+3
  -8.36934E+2   1.32825E+3
  -4.38113E+2   2.73189E+2
  -2.41042E+2   3.20799E+2
  -7.89425E+2   4.92381E+2
  -1.36948E+2  -1.26134E+3
   8.04570E+2  -1.76133E+3
   1.42225E+3  -6.51921E+2
   2.09887E+3   8.03185E+2
   8.08677E+2   1.68100E+3
  -1.51557E+3   1.23648E+3
  -1.27635E+3  -5.46824E+2
  -8.62775E+2  -1.15661E+3
  -6.81063E+2  -1.59064E+2
   1.59603E+2  -5.36658E+2
   4.20654E+2  -8.05779E+2
   7.73217E+2   2.86432E+2
   7.22262E+2   9.44269E+1
   1.22308E+2  -1.73338E+2
  -5.46730E+2   8.98786E+2
  -7.77046E+2   3.39460E+2
  -5.39267E+2  -1.72249E+3
   8.39636E+2  -9.19851E+2
   1.41034E+3   2.90787E+2
   5.80737E+2   3.24059E+2
   3.28072E+2   6.61990E+2
   4.64645E+2   1.28377E+3
  -9.86706E+2   8.87503E+2
  -1.54482E+3   5.93564E+2
  -5.91716E+2  -7.89120E+2
  -8.77044E+1  -1.73599E+3
   2.80475E+2  -7.51196E+2
   7.82465E+2   3.12689E+2
  -3.29086E+1   3.55868E+2
  -2.42479E+2  -4.37255E+2
   6.44343E+2  -4.41976E+2
   6.75424E+2   2.07704E+2
  -1.15571E+2   6.81269E+2
  -3.74025E+1   2.89466E+2
   3.08587E+2  -3.45923E+2
   7.06828E+2   2.51006E+2
   6.39172E+2   4.95308E+2
   3.54107E+2   4.23702E+2
  -8.27210E+2   3.53841E+2
  -2.70682E+2  -3.54907E+2
  -5.78546E+1  -4.66805E+2
  -6.50678E+1  -1.89543E+1
  -2.66722E+2   5.19013E+2
  -3.87731E+1  -5.24175E+2
   2.13394E+2  -8.37678E+2
   5.27324E+2  -5.95535E+1
   5.67948E+2   1.10481E+2
   1.92607E+2  -1.13839E+2
   4.30556E+2  -2.10539E+2
   7.51909E+2  -2.87561E+2
   3.27687E+2   7.50242E+2
  -2.24484E+2   8.19713E+2
  -3.80782E+2   4.30210E+1
  -5.23798E+2  -6.57985E+2
   1.50705E+0  -5.01200E+2
   3.03126E+2  -4.13158E+1
  -2.32621E+2  -3.26651E+1
  -1.41744E+2  -2.31802E+2
   6.75889E+2  -6.02259E+2
   4.09411E+2   2.73707E+2
  -1.36568E+2   4.29689E+2
  -4.07672E+2   6.61257E+1
  -2.80012E+2  -4.28480E+2
   3.87240E+2  -3.49653E+2
   7.51547E+2   4.50140E+1
  -2.50818E+2   5.44200E+2
  -7.89656E+2   3.72821E+2
  -6.07023E+2  -3.08395E+2
   1.79762E+2  -1.02464E+3
   6.88053E+2  -4.42708E+2
   4.91520E+2   4.03277E+2
   6.65141E+1   2.42493E+2
   1.23118E+2  -1.34560E+0
   4.18816E+2   3.00961E+2
  -2.31794E+2   6.70388E+2
  -7.97342E+2   4.62781E+2
  -4.26387E+2  -2.01911E+2
  -1.73639E+2  -7.41789E+2
   1.87581E+2  -7.41985E+2
   5.53190E+2  -3.81833E+1
   3.62957E+2  -3.18710E+2
   1.92083E+2   3.35252E+1
   2.26176E+2   4.11642E+2
  -1.22120E+2   3.27960E+2
  -3.72277E+2  -1.90906E+2
  -1.25624E+2  -2.97942E+2
  -1.92798E+1  -2.58934E+2
   2.68954E+2  -2.68398E+1
   3.13309E+2   2.38664E+1
   8.13683E+1   6.02305E+2
  -6.61659E+2   1.84080E+2
  -2.75539E+2  -4.53846E+2
   7.68193E+1  -1.35647E+2
  -6.11538E+1   2.51026E+2
  -3.04466E+2   3.62919E+0
   2.51575E+2  -4.49319E+2
   3.22110E+2   7.62485E+0
   9.17754E+1   5.07117E+2
  -2.03892E+2   7.63901E+2
  -5.03998E+2   1.82137E+2
  -1.68784E+2  -2.57745E+2
   1.36056E+2  -3.91975E+2
   1.64624E+2  -4.35957E+1
   1.64640E+2   4.13690E+2
  -1.22011E+2  -1.49836E+2
  -1.98501E+2   2.50206E+2
  -1.70928E+2   1.45692E+2
  -3.44101E+2   2.69760E+2
  -2.04641E+2   1.78467E+1
  -2.45789E+2  -1.70951E+2
   3.53141E+1  -2.38374E+2
   1.21682E+2   1.61875E+1
   8.07475E+1   8.87188E+1
  -1.13671E+2  -9.63537E+0
   9.49184E+0  -1.65755E+1
   5.57109E+1   7.00370E+1
   1.63721E+2   1.09364E+2
  -1.59611E+2   1.27979E+2
  -3.75760E+1   3.71508E+2
  -6.69056E+1   2.69603E+2
   2.57941E+0   1.38914E+2
  -1.97753E+2   3.05668E+2
  -2.22649E+2   6.02637E+1
  -1.21224E+2   2.40532E+1
  -2.03999E+2   8.17535E+1
   1.72184E+1   1.57364E+2
  -8.34374E+1  -2.28267E+1
  -1.54723E+2   1.12760E+1
   2.22177E+1  -1.65759E+2
   3.45731E+2  -1.84338E+1
   1.46379E+2   3.75190E+1
   4.54267E+0   3.87152E+1
   1.38023E+1  -1.36095E+2
   4.40685E+0  -4.81278E+1
  -4.11916E+1   9.92898E+1
  -2.49309E+1   3.13755E+2
  -4.40022E+1   5.12588E+1
  -3.39351E+2  -1.94301E+2
   2.18802E+2  -1.77309E+2
   3.98891E+2  -1.63749E+1
   1.78273E+2   1.35768E+2
   7.09343E+0   3.11879E+2
  -2.50546E+2   2.71739E+2
  -2.13040E+2   2.92086E+2
  -1.22827E+2   3.50728E+1
  -3.24900E+2  -2.76152E+2
  -2.97153E+2  -2.81189E+1
   2.20075E+2  -1.88187E+2
   3.62759E+2   1.69071E+2
   2.20616E+2   1.40910E+2
  -1.21739E+2   4.61159E+2
  -1.68902E+2   1.26316E+2
  -1.78386E+2  -6.10270E-1
  -1.63991E+2   1.11358E+2
  -1.34162E+2   1.40165E+2
   2.40593E+1  -1.69854E+1
   6.79729E+0   1.59376E+1
   7.33406E+1   2.67041E+2
   7.79102E+1   1.60222E+2
  -2.03338E+2   3.07458E+2
  -2.86249E+2  -1.11175E+1
  -1.04412E+2  -1.23409E+2
   1.23563E+2  -1.42294E+2
   1.83556E+2  -7.33955E+1
  -5.43443E+1   9.55299E+1
  -3.03367E+1   5.96863E+1
  -6.21220E+1   3.28377E+2
   3.81052E+1  -1.43840E+2
  -1.24145E+2   2.42698E+2
  -1.15192E+2   9.53239E+1
  -1.17550E+2  -2.13042E+1
   1.09509E+2  -1.61509E+2
   7.54208E+1  -1.40756E+0
   8.53402E+1   1.69892E+2
   9.55373E+1   6.01877E+1
  -1.29199E+2   1.52062E+2
  -1.31927E+1  -8.35892E+1
  -6.01316E+1  -1.92235E+2
  -1.00659E+2   1.31596E+2
  -4.13044E+2  -3.41638E+1
  -1.09240E+2  -2.81941E+1
   4.29436E+1  -2.26280E+2
  -1.73715E+1   1.05106E+2
  -5.97172E+1  -2.74804E+1
   3.57965E+1   1.42715E+2
   3.18438E+1  -1.64156E+2
   2.38972E+2   1.00112E+1
  -4.05826E+1  -4.62549E+1
  -1.60989E+2   1.22355E+2
  -1.01105E+1  -6.33545E+1
  -1.01968E+1   2.95077E+1
   1.15638E+2   1.32196E+1
  -1.87998E+2   2.37659E+2
  -3.88031E+1  -2.21105E+2
   4.61267E+1   1.70889E+2
   6.56259E+1   2.66414E+2
  -4.75101E+1   2.10163E+2
  -1.20284E+2   3.11434E+1
  -2.32030E+2  -3.80454E+1
   4.57485E+1  -4.87439E+1
   3.86633E+1   1.36781E+1
  -2.25444E+1   1.62200E+2
  -1.75608E+2  -1.55139E+2
  -1.73558E+2   1.85792E+2
  -3.44770E+1  -1.67900E+2
   1.00837E+2   2.84481E+1
  -1.01155E+2   2.04973E+2
  -9.48912E+1  -1.39308E+1
   1.32989E+2  -1.03025E+2
   1.47885E+1   2.04079E+1
  -1.09740E+2  -9.32935E+1
  -3.10770E+1   1.11878E+2
  -2.56069E+2   8.15532E+1
  -4.48123E+1  -1.12142E+2
   1.63365E+2  -1.75636E+2
   1.12613E+2  -3.66293E+1
  -3.01512E+1  -1.09664E+0
   6.88351E+1  -8.16876E+1
   1.72392E+2  -2.69636E+2
  -1.48907E+2   4.90262E+1
  -1.87541E+2   1.00424E+2
  -2.11113E+2   1.45600E+2
  -8.03241E+0   1.26183E-1
   5.04567E+1   9.24532E+1
  -1.89207E+1  -2.84249E+1
  -6.77878E+1   2.37637E+2
  -8.49894E+1  -6.46264E+1
   5.93106E+1   4.29026E+1
  -1.07883E+2   2.55107E+2
  -1.28032E+2   1.01573E+2
   4.59966E+1   7.64740E+1
  -1.60433E+2  -1.33497E+2
   1.37277E+2  -2.44180E+2
   8.89309E+1   8.40208E+1
   4.57699E+1   3.16236E+1
   3.25361E+1   5.00797E+1
   3.45098E+1  -9.20283E+1
  -5.95994E+1  -2.07736E+2
   5.16609E+1  -2.32073E+2
   4.59777E+1  -5.20331E+1
  -1.48560E+2   8.61321E+1
  -1.25645E+2  -2.65132E+2
   8.78682E+1  -1.38202E+2
  -1.55113E+2   1.58255E+2
  -8.60117E+1   1.13362E+2
   1.21190E+2   1.56460E+2
  -7.01389E+1  -7.93471E+1
   1.51033E+2  -6.42036E+1
  -2.02905E+2   2.00284E+1
   7.34730E+1   8.69236E+1
  -1.61080E+2   4.13223E+1
   3.71439E+0   4.25379E+1
  -8.38169E+1  -3.77244E+1
   3.18224E+1   5.79224E+1
  -2.20485E+2   6.01150E+1
   6.31072E+0  -4.28842E+1
  -1.07272E+2   1.25473E+2
   1.62553E+2   1.64980E+2
   1.07592E+2  -7.97866E+1
  -1.82834E+2  -2.65843E+2
   1.11481E+2   7.87261E+1
   5.45864E+1   1.65658E+2
   1.21340E+2   2.03788E+2
  -2.24917E+2   1.24360E+2
  -4.16238E+1   1.24358E+2
   7.20529E+1   2.02209E+1
  -1.54569E-1  -5.95962E+1
  -1.58696E+1   2.08379E+1
  -7.30944E+1   1.76228E+2
  -8.28985E+1   4.23846E+1
  -2.94122E+2  -1.35525E+2
  -3.16922E+1   1.27110E+2
   1.65167E+1  -2.23580E+2
   9.09816E+1   1.21465E+2
  -9.94043E+1   1.12781E+1
  -3.86613E+1   5.08525E+1
  -2.92195E+1   2.41416E+2
  -2.49294E+2  -5.19856E+1
  -2.77032E+2  -1.37613E+2
  -2.12241E+2  -9.45843E+1
  -8.41613E+1   2.91655E+2
   6.70856E+0   1.25272E+2
  -4.74243E+1  -1.34223E+1
   3.36379E+1   8.66498E+1
   6.48436E+0  -2.27264E+1
   2.76396E+2   1.69064E+2
  -1.18995E+2  -2.37477E+1
  -5.25281E+1  -1.44488E+1
  -1.16834E+2  -1.18640E+1
   1.20400E+2  -7.89771E+1
   2.24873E+1  -5.70309E+1
   6.60824E+0  -6.33725E+0
  -9.64574E+1   1.48280E+2
  -2.63241E+1  -1.21931E+1
   1.20771E+2  -1.12436E+2
   2.70294E+2  -1.56816E+0
   1.16427E+2  -2.33570E+1
  -2.88931E+1   1.91353E+2
   3.47152E+1   7.63018E+1
   2.52562E+2  -4.31920E+1
   4.46729E+1  -6.21714E+1
   1.38477E+2  -1.27743E+2
   4.20783E+1   3.56600E+1
  -9.05056E+1  -2.37113E+1
  -9.70068E+1  -2.50377E+2
   1.23574E+2  -1.42488E+2
  -2.51505E+2  -7.10705E+1
   2.72129E+2   1.30692E+2
   1.39682E+2  -2.02673E-1
   1.74905E+2  -1.24756E-1
   1.15773E+2   7.33746E+1
  -8.16080E+1  -4.29193E+1
  -5.73306E+1   8.04442E+1
  -1.58620E+1  -1.37834E+2
  -1.07033E+2  -3.47293E+1
   9.07254E+1   2.49855E+1
   8.92170E+1   9.49355E+1
   2.66238E+1   1.76378E+2
  -1.34481E+2  -3.09669E+2
  -1.34082E+1  -9.45825E+1
   2.53166E+2   4.10371E+1
  -2.61726E+1   6.75674E+1
   1.45167E+2   5.34180E+0
   8.57281E+1   2.51685E+1
   7.64369E+1   1.01852E+2
