 LCModel (Version 6.3-1N) Copyright: S.W. Provencher.          Ref.: Magn. Reson. Med. 30:672-679 (1993).                
 Slice_N1@14_9  28-Feb-2025 11:38:13
 27 lines in following concentration table = NCONC+1
    Conc.  %SD /Cr+PCr  Metabolite                                         
 3.37E-04   4% 3.2E-04 Mac                                                 
    3.811  42%   3.668 Cr                                                  
    4.501  34%   4.332 PCr                                                 
    4.803  21%   4.623 Ins                                                 
   11.994   9%  11.545 NAA                                                 
    5.308  19%   5.109 Tau                                                 
    1.438  18%   1.384 PCho                                                
    0.000 999%   0.000 GPC                                                 
   13.332   9%  12.833 Glu                                                 
    2.935  31%   2.825 Gln                                                 
    0.000 999%   0.000 Ala                                                 
    2.874  49%   2.766 Asc                                                 
    3.285  32%   3.162 Asp                                                 
    0.594  97%   0.571 GABA                                                
    0.538 131%   0.518 Glc                                                 
    1.240  42%   1.194 GSH                                                 
    0.000 999%   0.000 Lac                                                 
    3.608  21%   3.473 NAAG                                                
    0.000 999%   0.000 PE                                                  
    1.438  18%   1.384 GPC+PCho                                            
   15.603   6%  15.018 NAA+NAAG                                            
   16.267   9%  15.657 Glu+Gln                                             
    8.311  10%   8.000 Cr+PCr                                              
   15.603   6%  15.018 NAA+NAAG                                            
    8.311  10%   8.000 Cr+PCr                                              
   16.267   9%  15.657 Glu+Gln                                             
   6 lines in following misc. output table
  FWHM = 0.041 ppm    S/N =   3                                            
  Data shift =-0.016 ppm                                                   
  Ph: 168 deg       0.0 deg/ppm                                            
  alphaB,S = 2.1E-01,   1.2E+01                                            
   19 spline knots.   Ns = 5(1)                                            
  ( 6) 1 infls.   ( 2) 2 extrs.                                            
  480 points on ppm-axis = NY
      4.100000     4.091866     4.083733     4.075600     4.067466     4.059333     4.051199     4.043066     4.034933     4.026799
      4.018666     4.010532     4.002399     3.994265     3.986132     3.977998     3.969864     3.961731     3.953597     3.945463
      3.937330     3.929196     3.921062     3.912929     3.904795     3.896662     3.888528     3.880394     3.872261     3.864127
      3.855993     3.847860     3.839726     3.831592     3.823459     3.815325     3.807191     3.799058     3.790924     3.782790
      3.774657     3.766523     3.758389     3.750256     3.742122     3.733989     3.725855     3.717721     3.709588     3.701454
      3.693320     3.685187     3.677053     3.668919     3.660786     3.652652     3.644518     3.636385     3.628251     3.620117
      3.611984     3.603850     3.595716     3.587583     3.579449     3.571316     3.563182     3.555048     3.546915     3.538781
      3.530647     3.522514     3.514380     3.506246     3.498113     3.489979     3.481845     3.473712     3.465578     3.457444
      3.449311     3.441177     3.433043     3.424910     3.416776     3.408643     3.400509     3.392375     3.384242     3.376108
      3.367974     3.359841     3.351707     3.343573     3.335440     3.327306     3.319172     3.311039     3.302905     3.294771
      3.286638     3.278504     3.270370     3.262237     3.254103     3.245970     3.237836     3.229702     3.221569     3.213435
      3.205301     3.197168     3.189034     3.180900     3.172767     3.164633     3.156499     3.148366     3.140232     3.132098
      3.123965     3.115831     3.107697     3.099564     3.091430     3.083297     3.075163     3.067029     3.058896     3.050762
      3.042628     3.034495     3.026361     3.018227     3.010094     3.001960     2.993826     2.985693     2.977559     2.969425
      2.961292     2.953158     2.945024     2.936891     2.928757     2.920624     2.912490     2.904356     2.896223     2.888089
      2.879955     2.871822     2.863688     2.855554     2.847421     2.839287     2.831153     2.823020     2.814886     2.806752
      2.798619     2.790485     2.782351     2.774218     2.766084     2.757951     2.749817     2.741683     2.733550     2.725416
      2.717282     2.709149     2.701015     2.692881     2.684748     2.676614     2.668480     2.660347     2.652213     2.644079
      2.635946     2.627812     2.619678     2.611545     2.603411     2.595278     2.587144     2.579010     2.570877     2.562743
      2.554609     2.546476     2.538342     2.530208     2.522075     2.513941     2.505807     2.497674     2.489540     2.481406
      2.473273     2.465139     2.457006     2.448872     2.440738     2.432605     2.424471     2.416337     2.408204     2.400070
      2.391936     2.383803     2.375669     2.367535     2.359402     2.351268     2.343134     2.335001     2.326867     2.318733
      2.310600     2.302466     2.294333     2.286199     2.278065     2.269932     2.261798     2.253664     2.245531     2.237397
      2.229263     2.221130     2.212996     2.204862     2.196729     2.188595     2.180461     2.172328     2.164194     2.156060
      2.147927     2.139793     2.131660     2.123526     2.115392     2.107259     2.099125     2.090991     2.082858     2.074724
      2.066590     2.058457     2.050323     2.042189     2.034056     2.025922     2.017788     2.009655     2.001521     1.993387
      1.985254     1.977120     1.968987     1.960853     1.952719     1.944586     1.936452     1.928318     1.920185     1.912051
      1.903917     1.895784     1.887650     1.879516     1.871383     1.863249     1.855115     1.846982     1.838848     1.830714
      1.822581     1.814447     1.806314     1.798180     1.790046     1.781913     1.773779     1.765645     1.757512     1.749378
      1.741244     1.733111     1.724977     1.716843     1.708710     1.700576     1.692442     1.684309     1.676175     1.668041
      1.659908     1.651774     1.643641     1.635507     1.627373     1.619240     1.611106     1.602972     1.594839     1.586705
      1.578571     1.570438     1.562304     1.554170     1.546037     1.537903     1.529769     1.521636     1.513502     1.505368
      1.497235     1.489101     1.480968     1.472834     1.464700     1.456567     1.448433     1.440299     1.432166     1.424032
      1.415898     1.407765     1.399631     1.391497     1.383364     1.375230     1.367096     1.358963     1.350829     1.342695
      1.334562     1.326428     1.318295     1.310161     1.302027     1.293894     1.285760     1.277626     1.269493     1.261359
      1.253225     1.245092     1.236958     1.228824     1.220691     1.212557     1.204423     1.196290     1.188156     1.180022
      1.171889     1.163755     1.155622     1.147488     1.139354     1.131221     1.123087     1.114953     1.106820     1.098686
      1.090552     1.082419     1.074285     1.066151     1.058018     1.049884     1.041750     1.033617     1.025483     1.017349
      1.009216     1.001082     0.992949     0.984815     0.976681     0.968548     0.960414     0.952280     0.944147     0.936013
      0.927879     0.919746     0.911612     0.903478     0.895345     0.887211     0.879077     0.870944     0.862810     0.854676
      0.846543     0.838409     0.830276     0.822142     0.814008     0.805875     0.797741     0.789607     0.781474     0.773340
      0.765206     0.757073     0.748939     0.740805     0.732672     0.724538     0.716404     0.708271     0.700137     0.692003
      0.683870     0.675736     0.667603     0.659469     0.651335     0.643202     0.635068     0.626934     0.618801     0.610667
      0.602533     0.594400     0.586266     0.578132     0.569999     0.561865     0.553731     0.545598     0.537464     0.529330
      0.521197     0.513063     0.504930     0.496796     0.488662     0.480529     0.472395     0.464261     0.456128     0.447994
      0.439861     0.431727     0.423593     0.415460     0.407326     0.399192     0.391059     0.382925     0.374792     0.366658
      0.358524     0.350391     0.342257     0.334124     0.325990     0.317856     0.309723     0.301589     0.293455     0.285322
      0.277188     0.269055     0.260921     0.252787     0.244654     0.236520     0.228386     0.220253     0.212119     0.203986
 NY phased data points follow
  -8.30549E+01 -8.56113E+01 -8.25248E+01 -9.75070E+01 -7.09219E+01 -6.91169E+01 -9.95157E+01 -9.11629E+01 -9.64067E+01 -9.36022E+01
  -1.03665E+02 -9.91639E+01 -1.05315E+02 -1.11868E+02 -1.11989E+02 -1.31424E+02 -1.30639E+02 -1.33719E+02 -1.48131E+02 -1.60224E+02
  -1.48425E+02 -1.45803E+02 -1.26904E+02 -1.21221E+02 -1.03139E+02 -6.47843E+01 -6.01723E+01 -4.51133E+01 -5.12163E+01 -3.38999E+01
  -4.54070E+01 -6.60862E+01 -6.10766E+01 -6.42890E+01 -3.87566E+01 -4.46485E+01 -5.71086E+01 -7.78372E+01 -9.35916E+01 -1.04332E+02
  -1.32319E+02 -1.33984E+02 -1.31162E+02 -1.31273E+02 -1.15594E+02 -8.99463E+01 -5.58667E+01 -1.61336E+01 -2.13866E+01 -2.35815E+01
  -2.11327E+00 -1.16366E+01 -1.62994E+01 -2.98046E+01 -3.35313E+01 -3.04462E+01 -6.81549E+01 -6.88338E+01 -6.60602E+01 -7.38333E+01
  -4.69464E+01 -4.35580E+01 -4.35822E+01 -3.97337E+01 -1.70542E+01 -8.45584E+00 -2.64818E+01 -3.49705E+01 -4.68756E+01 -4.37081E+01
  -5.71746E+01 -4.99479E+01 -3.85747E+01 -5.64267E+01 -5.00926E+01 -2.16030E+01 -1.48995E+01 -1.40124E+01  1.74760E+00 -5.63769E+00
  -1.68293E+01 -4.14954E+01 -4.09931E+01 -3.48489E+01 -4.40835E+01 -4.50927E+01 -4.11057E+01 -2.66492E+01 -3.00826E+01 -8.55809E+00
  -9.73763E+00 -1.28599E+01 -4.78641E+00  6.24629E+00  2.34019E+01  2.39000E+01  2.99582E+01  6.26357E+00  3.13356E+01  1.90385E+01
  -6.65646E+00  1.84932E+01 -7.03440E+00 -2.26197E+01 -3.94124E+01 -4.93177E+01 -5.19571E+01 -6.70403E+01 -1.06409E+02 -1.29250E+02
  -1.31972E+02 -1.50818E+02 -1.28930E+02 -1.19468E+02 -1.22958E+02 -1.17721E+02 -9.34977E+01 -6.05870E+01 -6.08728E+01 -5.81865E+01
  -5.39581E+01 -3.97418E+01 -2.57987E+01 -2.13808E+01 -8.96191E+00 -1.15833E+01  5.36872E+00  2.81840E+01  3.59934E+01  8.05648E+01
   8.98932E+01  3.34798E+01 -3.01470E+01 -6.95952E+01 -9.79724E+01 -1.06721E+02 -1.13756E+02 -1.74763E+02 -1.64232E+02 -1.19939E+02
  -1.05916E+02 -9.16197E+01 -1.27938E+02 -1.29104E+02 -1.14894E+02 -1.28249E+02 -1.16548E+02 -1.02349E+02 -9.89215E+01 -9.38623E+01
  -1.09286E+02 -9.29450E+01 -5.97285E+01 -8.50150E+01 -7.20373E+01 -6.20458E+01 -6.97414E+01 -5.94720E+01 -7.61234E+01 -6.58489E+01
  -5.35251E+01 -5.80034E+01 -7.09776E+01 -7.30744E+01 -6.85883E+01 -7.48697E+01 -6.62398E+01 -6.27606E+01 -5.76391E+01 -5.66904E+01
  -4.10129E+01 -2.99335E+01 -2.96164E+01 -1.85719E+01 -2.67201E+01 -1.68572E+01 -7.74462E+00  1.70972E+00 -1.85326E+01 -5.39524E+01
  -4.31754E+01 -6.45982E+01 -7.50336E+01 -7.87434E+01 -8.68856E+01 -8.82541E+01 -1.19055E+02 -9.50002E+01 -7.95594E+01 -9.29554E+01
  -6.80559E+01 -7.68979E+01 -8.86386E+01 -5.35397E+01 -4.68643E+01 -6.03124E+01 -5.35077E+01 -5.75067E+01 -4.25107E+01 -4.18361E+01
  -7.09472E+01 -6.57027E+01 -6.41998E+01 -6.71137E+01 -6.74725E+01 -7.45515E+01 -8.42418E+01 -1.04564E+02 -1.07501E+02 -1.09347E+02
  -1.02115E+02 -8.80723E+01 -8.51303E+01 -6.11759E+01 -3.38102E+01 -1.71570E+01 -1.05236E+01 -9.05450E+00 -1.23630E+01 -1.19283E+01
   4.96790E+00 -1.03521E+01 -4.20304E+01 -3.64575E+01 -4.58389E+01 -4.96153E+01 -2.96638E+01 -3.44901E+01 -1.79454E+01 -3.27122E+01
  -5.12242E+01 -4.27492E+01 -7.50541E+01 -9.09220E+01 -9.89072E+01 -1.20712E+02 -1.44671E+02 -1.21811E+02 -1.18745E+02 -1.41241E+02
  -1.31977E+02 -1.35071E+02 -1.14473E+02 -1.16365E+02 -1.01579E+02 -9.98154E+01 -9.10638E+01 -6.99786E+01 -1.08933E+02 -9.67322E+01
  -1.06474E+02 -1.25626E+02 -1.23591E+02 -1.40667E+02 -1.78284E+02 -1.84087E+02 -1.21829E+02 -3.55393E+01  5.66243E+01  8.38615E+01
   1.11092E+02  1.09248E+02  1.31291E+02  1.58991E+02  9.91108E+01  7.72547E+01  4.73994E+01  4.24073E+01  5.25457E+01  3.90769E+01
   3.23536E+01  2.81404E+01  3.63269E+01  4.31959E+01  4.30107E+01  3.19855E+01  4.20054E+01  3.97394E+01  4.33578E+01  3.24197E+01
   2.68204E+01  4.27003E+01  1.66585E+01  2.42795E+01  4.11519E+01  2.06275E+01  5.40761E+00  9.23424E+00  5.25547E+00 -1.82332E+00
  -1.87875E+01 -8.12838E+00  4.01229E+00 -2.42016E+01 -7.21307E+00 -8.41165E+00 -1.69230E+01 -2.14417E+01 -2.51756E+01 -7.06211E+00
  -1.79177E+01 -3.27948E+01 -5.42908E+01 -3.19984E+01 -1.42033E+01 -3.02314E+01 -2.14876E+01 -2.03945E+01 -2.69397E+01 -3.86787E+01
  -3.09072E+01 -1.68300E+01 -1.28464E+01 -1.00141E+01  2.54140E+00  2.78195E+01  3.90542E+01  4.17295E+01  4.81162E+01  6.61048E+01
   4.85354E+01  3.84886E+01  7.73602E+01  8.70736E+01  8.50700E+01  7.67662E+01  7.30337E+01  6.18535E+01  2.25785E+01 -4.07550E+00
  -2.94240E+01 -2.89929E+01 -5.00837E+01 -7.35237E+01 -5.69330E+01 -6.35256E+01 -5.55564E+01 -5.06239E+01 -3.33810E+01  1.41040E+00
   4.66738E+00  7.24320E+00  2.42887E+00  7.48156E+00  3.34875E+01  3.80480E+01  3.36295E+01  5.29825E+01  5.07580E+01  3.52663E+01
   3.99113E+01  4.31591E+01  3.93155E+01  2.50457E+01  2.31831E+01  1.57145E+01  2.59778E+00 -4.41297E+00 -6.52903E+00  3.08989E+00
   5.32577E+00  7.77087E+00 -4.72673E+00 -8.77087E+00  9.58838E+00  1.68324E+01  1.76328E+01  1.89545E+01  2.71979E+01  3.47532E+01
   2.40445E+01  2.92529E+01  4.95150E+01  3.61216E+01  3.27948E+01  3.10725E+01  3.41895E+01  4.70229E+01  5.48214E+01  8.75732E+01
   7.11886E+01  7.34997E+01  1.07404E+02  1.05843E+02  1.18402E+02  1.23333E+02  1.23072E+02  1.27311E+02  1.39087E+02  1.33549E+02
   1.19809E+02  1.18780E+02  1.17770E+02  9.92946E+01  7.60934E+01  7.27454E+01  5.01915E+01  4.84751E+01  2.76569E+01  1.56336E+01
   3.44700E+01  6.88248E+00 -3.97669E+00 -9.88254E+00 -2.42438E+01 -2.72803E+01 -2.17259E+01 -3.16754E+01 -3.31301E+01 -3.22164E+01
  -4.10454E+01 -2.08328E+01 -1.84775E+01 -3.03744E+01 -3.79996E+01 -2.10715E+01 -2.88628E+01 -2.72646E+01 -1.44645E+01 -4.09255E+01
  -2.49158E+01 -2.27881E+01 -2.53679E+01 -2.89124E+01 -4.16137E+01 -2.98751E+01 -2.78262E+01 -4.39608E+01 -4.08642E+01 -2.01920E+01
  -3.48556E+01 -2.50765E+01 -2.75977E+01 -4.52965E+01 -3.04294E+01 -3.49103E+01 -3.78709E+01 -2.93519E+01 -2.66474E+01 -1.73125E+01
  -2.61981E+01 -4.64972E+01 -2.97402E+01 -2.42962E+01 -1.91499E+01 -2.11656E+01 -1.89225E+01 -2.08033E+01 -3.68819E+01 -1.60811E+01
  -3.24899E+01 -3.14153E+01 -2.72406E+01 -2.73421E+01 -1.34646E+01 -2.44604E+01 -2.64841E+01 -2.86813E+01 -2.62057E+01 -4.34278E+01
  -2.71846E+01 -3.09195E+01 -3.00232E+01 -8.63558E+00 -4.61718E+01 -4.15258E+01 -2.61647E+01 -1.31863E+00 -8.10091E+00 -2.99620E+01
  -1.00463E+01 -3.22329E+01 -3.05444E+01 -2.49511E+01 -3.82957E+01 -1.88915E+01 -1.39679E+01 -3.21973E+00 -1.03529E+01 -2.74816E+01
 NY points of the fit to the data follow
  -9.22179E+01 -9.86850E+01 -1.05735E+02 -1.08988E+02 -1.06543E+02 -1.00954E+02 -9.64308E+01 -9.59703E+01 -9.83123E+01 -1.01054E+02
  -1.02899E+02 -1.03409E+02 -1.03324E+02 -1.03930E+02 -1.04924E+02 -1.05289E+02 -1.13137E+02 -1.25854E+02 -1.39907E+02 -1.51014E+02
  -1.52117E+02 -1.42669E+02 -1.25377E+02 -1.04767E+02 -8.48006E+01 -6.88322E+01 -5.87171E+01 -5.08276E+01 -4.45593E+01 -4.14431E+01
  -4.02035E+01 -3.99819E+01 -4.09377E+01 -4.27563E+01 -4.37551E+01 -4.24883E+01 -4.37665E+01 -5.35912E+01 -7.39123E+01 -9.86472E+01
  -1.18937E+02 -1.27942E+02 -1.24301E+02 -1.11756E+02 -9.38094E+01 -7.41848E+01 -5.68646E+01 -4.37411E+01 -3.47410E+01 -2.86442E+01
  -2.50453E+01 -2.35004E+01 -2.58707E+01 -3.16422E+01 -3.74309E+01 -4.44936E+01 -5.09891E+01 -5.52371E+01 -5.82508E+01 -5.85940E+01
  -5.66849E+01 -5.27966E+01 -4.69283E+01 -3.81378E+01 -2.67103E+01 -1.96294E+01 -2.10277E+01 -2.89061E+01 -3.99931E+01 -4.91545E+01
  -5.34891E+01 -5.38935E+01 -5.07383E+01 -4.38503E+01 -3.43966E+01 -2.55218E+01 -1.77547E+01 -1.14893E+01 -5.33908E+00 -4.82709E+00
  -9.70830E+00 -2.08163E+01 -3.51526E+01 -4.76779E+01 -5.48354E+01 -5.50428E+01 -4.98505E+01 -4.21441E+01 -3.36700E+01 -2.62638E+01
  -1.94720E+01 -1.37397E+01 -9.16148E+00 -5.48897E+00 -1.77650E+00  8.20273E-01  1.84554E+00  3.53622E+00  6.83161E+00  9.51986E+00
   1.25529E+01  9.47430E+00 -4.10548E-01 -1.76186E+01 -3.06357E+01 -3.56979E+01 -4.15056E+01 -5.69689E+01 -8.51207E+01 -1.14825E+02
  -1.31586E+02 -1.33448E+02 -1.27076E+02 -1.18707E+02 -1.07830E+02 -9.56627E+01 -8.51040E+01 -7.65150E+01 -6.91808E+01 -6.25402E+01
  -5.62225E+01 -4.97181E+01 -4.26249E+01 -3.36224E+01 -2.25189E+01 -1.26327E+01 -5.47087E+00  1.87057E+01  5.63914E+01  8.68703E+01
   8.53425E+01  4.45451E+01 -1.40809E+01 -6.30770E+01 -9.22662E+01 -1.09370E+02 -1.20557E+02 -1.22695E+02 -1.19908E+02 -1.17209E+02
  -1.15496E+02 -1.14755E+02 -1.14642E+02 -1.14657E+02 -1.14181E+02 -1.12851E+02 -1.10539E+02 -1.07441E+02 -1.04148E+02 -1.01149E+02
  -9.87194E+01 -9.63647E+01 -9.32919E+01 -8.93272E+01 -8.52755E+01 -8.25096E+01 -8.14105E+01 -8.06553E+01 -7.83322E+01 -7.47197E+01
  -7.17377E+01 -7.13195E+01 -7.25118E+01 -7.31147E+01 -7.19997E+01 -7.09041E+01 -7.31897E+01 -7.76633E+01 -7.75787E+01 -6.83152E+01
  -5.37752E+01 -4.30279E+01 -4.09725E+01 -4.29396E+01 -4.04840E+01 -3.35623E+01 -2.82460E+01 -2.99318E+01 -3.77492E+01 -4.76359E+01
  -5.74015E+01 -6.66406E+01 -7.47629E+01 -8.06377E+01 -8.38387E+01 -8.56534E+01 -8.73956E+01 -8.73453E+01 -8.60261E+01 -8.65573E+01
  -8.61431E+01 -8.30510E+01 -7.75961E+01 -7.04156E+01 -6.54998E+01 -6.09319E+01 -5.55281E+01 -5.04879E+01 -4.76201E+01 -4.79431E+01
  -4.81001E+01 -4.73948E+01 -4.83367E+01 -5.12993E+01 -5.61717E+01 -6.13067E+01 -6.70037E+01 -7.60840E+01 -8.73500E+01 -9.78816E+01
  -1.09892E+02 -1.12678E+02 -1.05373E+02 -8.52367E+01 -5.56919E+01 -2.58092E+01 -3.12103E+00  7.68760E+00  7.72015E+00  1.24192E+00
  -7.57145E+00 -1.32974E+01 -1.65163E+01 -1.80869E+01 -1.88625E+01 -2.06841E+01 -2.47817E+01 -3.13727E+01 -4.12927E+01 -5.33779E+01
  -6.67953E+01 -8.20007E+01 -9.64208E+01 -1.09685E+02 -1.20411E+02 -1.26386E+02 -1.28208E+02 -1.27048E+02 -1.24843E+02 -1.22692E+02
  -1.20276E+02 -1.16536E+02 -1.10611E+02 -1.02374E+02 -9.61810E+01 -9.14671E+01 -8.99769E+01 -8.89405E+01 -9.08588E+01 -1.03648E+02
  -1.15701E+02 -1.12313E+02 -1.21138E+02 -1.47545E+02 -1.77765E+02 -1.77973E+02 -1.26809E+02 -4.46017E+01  2.74699E+01  6.73300E+01
   8.72670E+01  9.95943E+01  9.90023E+01  9.06691E+01  8.17880E+01  7.35811E+01  6.61349E+01  5.93666E+01  5.34014E+01  4.86856E+01
   4.53296E+01  4.34257E+01  4.25784E+01  4.23139E+01  4.23878E+01  4.25450E+01  4.28762E+01  4.29821E+01  4.25167E+01  4.15168E+01
   4.00995E+01  3.83913E+01  3.64884E+01  3.43062E+01  3.20271E+01  2.98063E+01  2.74420E+01  2.48125E+01  2.16693E+01  1.79837E+01
   1.36485E+01  8.73908E+00  3.57732E+00 -1.12953E+00 -4.54670E+00 -6.26020E+00 -6.44001E+00 -5.36559E+00 -3.36482E+00 -6.28660E-01
   2.63176E+00  6.15070E+00  9.55958E+00  1.26182E+01  1.54722E+01  1.83062E+01  2.14242E+01  2.48141E+01  2.81632E+01  3.12843E+01
   3.42321E+01  3.70324E+01  3.96670E+01  4.20924E+01  4.41979E+01  4.57034E+01  4.65090E+01  4.64917E+01  4.56490E+01  4.42167E+01
   4.20934E+01  3.95129E+01  3.67653E+01  3.37706E+01  2.97671E+01  2.38864E+01  1.59053E+01  6.11507E+00 -4.64421E+00 -1.56953E+01
  -2.61722E+01 -3.48818E+01 -4.06373E+01 -4.28213E+01 -4.17475E+01 -3.83342E+01 -3.40872E+01 -3.01517E+01 -2.67904E+01 -2.39115E+01
  -2.06389E+01 -1.64552E+01 -1.14101E+01 -6.11683E+00 -1.33321E+00  2.70255E+00  5.85158E+00  8.24023E+00  9.89985E+00  1.04982E+01
   9.54976E+00  6.85660E+00  2.51909E+00 -2.78318E+00 -8.00345E+00 -1.23237E+01 -1.53077E+01 -1.67042E+01 -1.65864E+01 -1.49360E+01
  -1.21243E+01 -8.38467E+00 -4.06749E+00  3.20809E-01  4.55397E+00  8.57551E+00  1.24869E+01  1.63902E+01  2.01783E+01  2.38613E+01
   2.72655E+01  3.08008E+01  3.45830E+01  3.86322E+01  4.29814E+01  4.78756E+01  5.34514E+01  5.96906E+01  6.65194E+01  7.39512E+01
   8.22350E+01  9.17964E+01  1.02364E+02  1.13521E+02  1.23986E+02  1.32042E+02  1.35566E+02  1.33593E+02  1.26693E+02  1.16425E+02
   1.04831E+02  9.36094E+01  8.36902E+01  7.50183E+01  6.69721E+01  5.84753E+01  4.88950E+01  3.81860E+01  2.70829E+01  1.62281E+01
   6.42900E+00 -1.95413E+00 -8.76247E+00 -1.40454E+01 -1.78517E+01 -2.05385E+01 -2.26414E+01 -2.45113E+01 -2.60924E+01 -2.72509E+01
  -2.80399E+01 -2.86138E+01 -2.89889E+01 -2.90844E+01 -2.90450E+01 -2.90913E+01 -2.91880E+01 -2.92389E+01 -2.90720E+01 -2.88236E+01
  -2.86526E+01 -2.85467E+01 -2.83747E+01 -2.82172E+01 -2.82444E+01 -2.83477E+01 -2.82424E+01 -2.78351E+01 -2.73631E+01 -2.69564E+01
  -2.68433E+01 -2.68769E+01 -2.69872E+01 -2.70378E+01 -2.69142E+01 -2.66356E+01 -2.62913E+01 -2.59946E+01 -2.56684E+01 -2.53528E+01
  -2.50319E+01 -2.48274E+01 -2.48505E+01 -2.49561E+01 -2.50606E+01 -2.50317E+01 -2.48078E+01 -2.45491E+01 -2.43285E+01 -2.42533E+01
  -2.42078E+01 -2.41578E+01 -2.39424E+01 -2.36539E+01 -2.33387E+01 -2.31395E+01 -2.28793E+01 -2.25773E+01 -2.22668E+01 -2.20283E+01
  -2.19236E+01 -2.19791E+01 -2.21099E+01 -2.23108E+01 -2.23503E+01 -2.21354E+01 -2.15203E+01 -2.08142E+01 -2.03496E+01 -2.02733E+01
  -2.04089E+01 -2.05900E+01 -2.06996E+01 -2.06612E+01 -2.04591E+01 -2.03046E+01 -2.01945E+01 -2.03195E+01 -2.05152E+01 -2.05888E+01
 NY background values follow
    -6.929E+01   -6.904E+01   -6.880E+01   -6.855E+01   -6.830E+01   -6.805E+01   -6.781E+01   -6.756E+01   -6.731E+01   -6.706E+01
    -6.682E+01   -6.657E+01   -6.632E+01   -6.607E+01   -6.581E+01   -6.556E+01   -6.531E+01   -6.506E+01   -6.480E+01   -6.455E+01
    -6.429E+01   -6.403E+01   -6.377E+01   -6.351E+01   -6.325E+01   -6.299E+01   -6.273E+01   -6.246E+01   -6.219E+01   -6.193E+01
    -6.166E+01   -6.138E+01   -6.111E+01   -6.084E+01   -6.056E+01   -6.028E+01   -6.000E+01   -5.972E+01   -5.944E+01   -5.916E+01
    -5.888E+01   -5.859E+01   -5.831E+01   -5.802E+01   -5.774E+01   -5.745E+01   -5.716E+01   -5.687E+01   -5.659E+01   -5.630E+01
    -5.601E+01   -5.572E+01   -5.543E+01   -5.514E+01   -5.485E+01   -5.456E+01   -5.427E+01   -5.398E+01   -5.369E+01   -5.341E+01
    -5.312E+01   -5.283E+01   -5.254E+01   -5.226E+01   -5.197E+01   -5.169E+01   -5.140E+01   -5.112E+01   -5.084E+01   -5.056E+01
    -5.028E+01   -5.000E+01   -4.972E+01   -4.945E+01   -4.917E+01   -4.890E+01   -4.863E+01   -4.836E+01   -4.809E+01   -4.783E+01
    -4.756E+01   -4.730E+01   -4.704E+01   -4.678E+01   -4.653E+01   -4.627E+01   -4.602E+01   -4.577E+01   -4.552E+01   -4.528E+01
    -4.504E+01   -4.480E+01   -4.456E+01   -4.433E+01   -4.410E+01   -4.387E+01   -4.364E+01   -4.342E+01   -4.320E+01   -4.298E+01
    -4.276E+01   -4.255E+01   -4.234E+01   -4.213E+01   -4.192E+01   -4.172E+01   -4.152E+01   -4.132E+01   -4.112E+01   -4.093E+01
    -4.074E+01   -4.055E+01   -4.036E+01   -4.018E+01   -4.000E+01   -3.982E+01   -3.964E+01   -3.947E+01   -3.930E+01   -3.913E+01
    -3.896E+01   -3.879E+01   -3.863E+01   -3.847E+01   -3.831E+01   -3.816E+01   -3.801E+01   -3.786E+01   -3.771E+01   -3.757E+01
    -3.743E+01   -3.729E+01   -3.715E+01   -3.702E+01   -3.689E+01   -3.677E+01   -3.664E+01   -3.653E+01   -3.641E+01   -3.630E+01
    -3.619E+01   -3.608E+01   -3.598E+01   -3.589E+01   -3.579E+01   -3.570E+01   -3.562E+01   -3.554E+01   -3.546E+01   -3.538E+01
    -3.531E+01   -3.525E+01   -3.519E+01   -3.513E+01   -3.508E+01   -3.503E+01   -3.498E+01   -3.494E+01   -3.491E+01   -3.488E+01
    -3.485E+01   -3.482E+01   -3.480E+01   -3.479E+01   -3.478E+01   -3.477E+01   -3.477E+01   -3.477E+01   -3.477E+01   -3.478E+01
    -3.479E+01   -3.481E+01   -3.483E+01   -3.486E+01   -3.488E+01   -3.492E+01   -3.495E+01   -3.499E+01   -3.504E+01   -3.509E+01
    -3.514E+01   -3.520E+01   -3.526E+01   -3.532E+01   -3.539E+01   -3.546E+01   -3.553E+01   -3.561E+01   -3.569E+01   -3.577E+01
    -3.586E+01   -3.594E+01   -3.603E+01   -3.613E+01   -3.622E+01   -3.631E+01   -3.641E+01   -3.651E+01   -3.661E+01   -3.671E+01
    -3.682E+01   -3.692E+01   -3.702E+01   -3.713E+01   -3.724E+01   -3.734E+01   -3.745E+01   -3.756E+01   -3.766E+01   -3.777E+01
    -3.788E+01   -3.798E+01   -3.809E+01   -3.819E+01   -3.830E+01   -3.840E+01   -3.850E+01   -3.861E+01   -3.871E+01   -3.881E+01
    -3.891E+01   -3.901E+01   -3.910E+01   -3.920E+01   -3.930E+01   -3.939E+01   -3.948E+01   -3.957E+01   -3.966E+01   -3.975E+01
    -3.984E+01   -3.993E+01   -4.001E+01   -4.009E+01   -4.017E+01   -4.025E+01   -4.033E+01   -4.040E+01   -4.048E+01   -4.055E+01
    -4.062E+01   -4.068E+01   -4.075E+01   -4.081E+01   -4.087E+01   -4.093E+01   -4.098E+01   -4.104E+01   -4.108E+01   -4.113E+01
    -4.117E+01   -4.121E+01   -4.125E+01   -4.128E+01   -4.131E+01   -4.133E+01   -4.136E+01   -4.137E+01   -4.139E+01   -4.140E+01
    -4.140E+01   -4.140E+01   -4.140E+01   -4.139E+01   -4.138E+01   -4.136E+01   -4.134E+01   -4.131E+01   -4.128E+01   -4.124E+01
    -4.120E+01   -4.115E+01   -4.109E+01   -4.103E+01   -4.097E+01   -4.090E+01   -4.082E+01   -4.073E+01   -4.064E+01   -4.055E+01
    -4.044E+01   -4.033E+01   -4.021E+01   -4.009E+01   -3.995E+01   -3.981E+01   -3.967E+01   -3.951E+01   -3.935E+01   -3.918E+01
    -3.900E+01   -3.881E+01   -3.861E+01   -3.841E+01   -3.819E+01   -3.797E+01   -3.774E+01   -3.750E+01   -3.725E+01   -3.699E+01
    -3.672E+01   -3.644E+01   -3.615E+01   -3.585E+01   -3.555E+01   -3.523E+01   -3.491E+01   -3.459E+01   -3.425E+01   -3.391E+01
    -3.356E+01   -3.321E+01   -3.285E+01   -3.249E+01   -3.212E+01   -3.175E+01   -3.137E+01   -3.099E+01   -3.061E+01   -3.022E+01
    -2.983E+01   -2.944E+01   -2.905E+01   -2.865E+01   -2.826E+01   -2.786E+01   -2.747E+01   -2.707E+01   -2.668E+01   -2.628E+01
    -2.589E+01   -2.550E+01   -2.511E+01   -2.472E+01   -2.433E+01   -2.395E+01   -2.357E+01   -2.319E+01   -2.282E+01   -2.244E+01
    -2.207E+01   -2.171E+01   -2.135E+01   -2.099E+01   -2.063E+01   -2.028E+01   -1.994E+01   -1.959E+01   -1.926E+01   -1.893E+01
    -1.860E+01   -1.828E+01   -1.796E+01   -1.766E+01   -1.735E+01   -1.706E+01   -1.676E+01   -1.648E+01   -1.620E+01   -1.593E+01
    -1.567E+01   -1.541E+01   -1.516E+01   -1.492E+01   -1.469E+01   -1.446E+01   -1.424E+01   -1.402E+01   -1.382E+01   -1.362E+01
    -1.342E+01   -1.323E+01   -1.305E+01   -1.288E+01   -1.271E+01   -1.255E+01   -1.239E+01   -1.225E+01   -1.210E+01   -1.197E+01
    -1.184E+01   -1.171E+01   -1.159E+01   -1.148E+01   -1.137E+01   -1.127E+01   -1.118E+01   -1.109E+01   -1.100E+01   -1.092E+01
    -1.085E+01   -1.078E+01   -1.072E+01   -1.066E+01   -1.061E+01   -1.056E+01   -1.052E+01   -1.048E+01   -1.045E+01   -1.042E+01
    -1.040E+01   -1.038E+01   -1.036E+01   -1.035E+01   -1.035E+01   -1.035E+01   -1.035E+01   -1.036E+01   -1.037E+01   -1.038E+01
    -1.040E+01   -1.042E+01   -1.044E+01   -1.047E+01   -1.050E+01   -1.054E+01   -1.058E+01   -1.062E+01   -1.066E+01   -1.071E+01
    -1.076E+01   -1.082E+01   -1.087E+01   -1.093E+01   -1.099E+01   -1.105E+01   -1.112E+01   -1.119E+01   -1.126E+01   -1.133E+01
    -1.141E+01   -1.148E+01   -1.156E+01   -1.164E+01   -1.172E+01   -1.180E+01   -1.189E+01   -1.197E+01   -1.206E+01   -1.215E+01
    -1.224E+01   -1.233E+01   -1.242E+01   -1.251E+01   -1.261E+01   -1.270E+01   -1.279E+01   -1.289E+01   -1.298E+01   -1.308E+01
    -1.318E+01   -1.327E+01   -1.337E+01   -1.346E+01   -1.356E+01   -1.366E+01   -1.375E+01   -1.385E+01   -1.395E+01   -1.405E+01
    -1.414E+01   -1.424E+01   -1.434E+01   -1.444E+01   -1.454E+01   -1.463E+01   -1.473E+01   -1.483E+01   -1.493E+01   -1.503E+01
    -1.512E+01   -1.522E+01   -1.532E+01   -1.542E+01   -1.552E+01   -1.561E+01   -1.571E+01   -1.581E+01   -1.591E+01   -1.600E+01
 Mac      Conc. = 3.37E-04
  -9.28652E+01 -9.28547E+01 -9.27416E+01 -9.27676E+01 -9.32220E+01 -9.43973E+01 -9.61367E+01 -9.80990E+01 -9.97886E+01 -1.00831E+02
  -1.01077E+02 -1.00824E+02 -1.01189E+02 -1.03148E+02 -1.05832E+02 -1.07697E+02 -1.07508E+02 -1.05061E+02 -1.01133E+02 -9.63815E+01
  -9.14356E+01 -8.68115E+01 -8.32234E+01 -8.07838E+01 -7.87928E+01 -7.67106E+01 -7.44024E+01 -7.19327E+01 -6.93779E+01 -6.68897E+01
  -6.45616E+01 -6.26899E+01 -6.17618E+01 -6.18454E+01 -6.21173E+01 -6.13531E+01 -5.92651E+01 -5.65943E+01 -5.43986E+01 -5.32606E+01
  -5.25912E+01 -5.17067E+01 -5.02542E+01 -4.84950E+01 -4.67653E+01 -4.53788E+01 -4.46985E+01 -4.47116E+01 -4.53778E+01 -4.64724E+01
  -4.76223E+01 -4.87335E+01 -4.98458E+01 -5.08083E+01 -5.12282E+01 -5.10379E+01 -5.03306E+01 -4.90538E+01 -4.73564E+01 -4.52212E+01
  -4.30016E+01 -4.13370E+01 -4.06170E+01 -4.06116E+01 -4.08496E+01 -4.13619E+01 -4.23465E+01 -4.34519E+01 -4.39569E+01 -4.32389E+01
  -4.10820E+01 -3.82743E+01 -3.54295E+01 -3.29918E+01 -3.12644E+01 -3.03911E+01 -3.03164E+01 -3.06719E+01 -3.12825E+01 -3.20108E+01
  -3.26310E+01 -3.29098E+01 -3.27311E+01 -3.20723E+01 -3.11334E+01 -3.00693E+01 -2.89013E+01 -2.77335E+01 -2.66700E+01 -2.56844E+01
  -2.46027E+01 -2.35268E+01 -2.26512E+01 -2.23353E+01 -2.29224E+01 -2.45568E+01 -2.67985E+01 -2.91569E+01 -3.13483E+01 -3.32599E+01
  -3.50330E+01 -3.67164E+01 -3.88857E+01 -4.25072E+01 -4.83202E+01 -5.60743E+01 -6.41884E+01 -7.10701E+01 -7.56508E+01 -7.76648E+01
