 
 $NMID
 ID=''
 FMTDAT='(2E13.5)'
 TRAMP=   1.00000E+0
 VOLUME=   1.00000E+0
 $END
   2.84168E+5   4.65514E+5
   2.56756E+5   1.44813E+6
   3.89217E+5   1.40812E+6
   2.77387E+5   1.36988E+6
   2.28635E+5   1.42943E+6
   2.02679E+5   1.37115E+6
   9.30002E+4   1.33436E+6
   3.50686E+4   1.38642E+6
   2.62134E+4   1.37683E+6
  -2.81663E+4   1.35898E+6
  -6.23612E+4   1.35935E+6
  -9.28368E+4   1.31836E+6
  -1.56955E+5   1.30140E+6
  -1.90854E+5   1.31130E+6
  -2.12074E+5   1.28361E+6
  -2.51526E+5   1.25919E+6
  -2.86540E+5   1.25428E+6
  -3.30208E+5   1.22395E+6
  -3.83837E+5   1.20046E+6
  -4.13621E+5   1.18699E+6
  -4.47959E+5   1.15194E+6
  -4.94071E+5   1.12252E+6
  -5.25014E+5   1.10193E+6
  -5.57067E+5   1.07360E+6
  -5.90704E+5   1.04715E+6
  -6.04043E+5   1.02281E+6
  -6.25028E+5   9.88684E+5
  -6.55538E+5   9.61721E+5
  -6.76488E+5   9.36218E+5
  -6.93213E+5   9.09319E+5
  -7.14963E+5   8.83204E+5
  -7.30905E+5   8.49499E+5
  -7.53282E+5   8.08663E+5
  -7.78211E+5   7.74991E+5
  -7.95652E+5   7.44813E+5
  -8.12524E+5   7.12660E+5
  -8.29617E+5   6.79461E+5
  -8.41762E+5   6.40138E+5
  -8.53963E+5   6.00752E+5
  -8.67985E+5   5.70275E+5
  -8.76289E+5   5.40008E+5
  -8.80362E+5   5.08015E+5
  -8.82039E+5   4.78288E+5
  -8.86308E+5   4.46387E+5
  -8.91449E+5   4.12497E+5
  -8.96229E+5   3.83723E+5
  -8.99152E+5   3.53339E+5
  -9.00194E+5   3.17972E+5
  -8.97609E+5   2.81342E+5
  -8.96291E+5   2.47133E+5
  -8.97932E+5   2.13939E+5
  -8.97049E+5   1.80710E+5
  -8.92055E+5   1.48105E+5
  -8.86921E+5   1.15997E+5
  -8.81355E+5   8.34718E+4
  -8.75648E+5   5.11076E+4
  -8.67996E+5   2.10513E+4
  -8.58753E+5  -5.27565E+3
  -8.48216E+5  -3.15783E+4
  -8.38386E+5  -5.95588E+4
  -8.28009E+5  -8.85722E+4
  -8.17490E+5  -1.15103E+5
  -8.06672E+5  -1.40809E+5
  -7.93784E+5  -1.67221E+5
  -7.77322E+5  -1.93438E+5
  -7.60920E+5  -2.18320E+5
  -7.46013E+5  -2.42618E+5
  -7.31641E+5  -2.66279E+5
  -7.16420E+5  -2.88334E+5
  -6.99009E+5  -3.09713E+5
  -6.80499E+5  -3.30398E+5
  -6.62018E+5  -3.50448E+5
  -6.45529E+5  -3.69191E+5
  -6.28542E+5  -3.87219E+5
  -6.09344E+5  -4.04277E+5
  -5.89394E+5  -4.20305E+5
  -5.69081E+5  -4.36199E+5
  -5.49402E+5  -4.52175E+5
  -5.29048E+5  -4.67206E+5
  -5.08092E+5  -4.80708E+5
  -4.86721E+5  -4.92520E+5
  -4.64825E+5  -5.03991E+5
  -4.43698E+5  -5.15406E+5
  -4.22279E+5  -5.25552E+5
  -4.00701E+5  -5.34674E+5
  -3.79666E+5  -5.41075E+5
  -3.58976E+5  -5.47920E+5
  -3.37582E+5  -5.54207E+5
  -3.16725E+5  -5.59865E+5
  -2.96941E+5  -5.63414E+5
  -2.77516E+5  -5.66066E+5
  -2.57120E+5  -5.68775E+5
  -2.35799E+5  -5.71062E+5
  -2.14555E+5  -5.72676E+5
  -1.94440E+5  -5.72825E+5
  -1.75272E+5  -5.72659E+5
  -1.55814E+5  -5.71038E+5
  -1.35320E+5  -5.69918E+5
  -1.15120E+5  -5.67613E+5
  -9.64045E+4  -5.65417E+5
  -7.86459E+4  -5.61857E+5
  -6.04196E+4  -5.58104E+5
  -4.21110E+4  -5.52578E+5
  -2.43080E+4  -5.45903E+5
  -8.11775E+3  -5.40377E+5
   7.59412E+3  -5.35190E+5
   2.36311E+4  -5.28860E+5
   3.95891E+4  -5.21262E+5
   5.55359E+4  -5.12402E+5
   6.97391E+4  -5.04039E+5
   8.40865E+4  -4.96603E+5
   9.86629E+4  -4.88281E+5
   1.12855E+5  -4.79217E+5
   1.26507E+5  -4.69331E+5
   1.39501E+5  -4.59358E+5
   1.52725E+5  -4.49563E+5
   1.65205E+5  -4.39445E+5
   1.76467E+5  -4.28637E+5
   1.86713E+5  -4.17171E+5
   1.96591E+5  -4.06365E+5
   2.06766E+5  -3.96081E+5
   2.16656E+5  -3.85041E+5
   2.25448E+5  -3.73935E+5
   2.34028E+5  -3.62567E+5
   2.42365E+5  -3.51019E+5
   2.49800E+5  -3.39079E+5
   2.56792E+5  -3.26983E+5
   2.63185E+5  -3.15198E+5
   2.69263E+5  -3.03546E+5
   2.75313E+5  -2.91186E+5
   2.81171E+5  -2.78611E+5
   2.85951E+5  -2.66206E+5
   2.89799E+5  -2.54117E+5
   2.93438E+5  -2.42089E+5
   2.96604E+5  -2.30076E+5
   2.99432E+5  -2.17895E+5
   3.01955E+5  -2.05784E+5
   3.03866E+5  -1.94135E+5
   3.05501E+5  -1.82547E+5
   3.06657E+5  -1.70418E+5
   3.07173E+5  -1.58168E+5
   3.06635E+5  -1.46572E+5
   3.06114E+5  -1.35911E+5
   3.06153E+5  -1.24999E+5
   3.05168E+5  -1.13795E+5
   3.03197E+5  -1.02557E+5
   3.01171E+5  -9.15921E+4
   2.98582E+5  -8.12260E+4
   2.96319E+5  -7.08386E+4
   2.93054E+5  -6.09387E+4
   2.89587E+5  -5.14077E+4
   2.86218E+5  -4.20471E+4
   2.82445E+5  -3.26509E+4
   2.79111E+5  -2.32204E+4
   2.74791E+5  -1.45702E+4
   2.70247E+5  -5.83798E+3
   2.65641E+5   2.01522E+3
   2.60707E+5   9.89249E+3
   2.55642E+5   1.79353E+4
   2.50506E+5   2.53934E+4
   2.45551E+5   3.25989E+4
   2.39642E+5   3.94766E+4
   2.34029E+5   4.64597E+4
   2.28062E+5   5.31576E+4
   2.22204E+5   5.94240E+4
   2.16122E+5   6.46861E+4
   2.10739E+5   7.05781E+4
   2.04620E+5   7.59530E+4
   1.98622E+5   8.10812E+4
   1.92136E+5   8.59653E+4
   1.86233E+5   9.03504E+4
   1.80345E+5   9.47281E+4
   1.74043E+5   9.90798E+4
   1.67514E+5   1.02823E+5
   1.60983E+5   1.06147E+5
   1.55089E+5   1.09495E+5
   1.49092E+5   1.13170E+5
   1.42757E+5   1.15884E+5
   1.36012E+5   1.18396E+5
   1.30048E+5   1.20565E+5
   1.24160E+5   1.23183E+5
   1.18479E+5   1.25411E+5
   1.11815E+5   1.27110E+5
   1.05945E+5   1.28395E+5
   1.00115E+5   1.29673E+5
   9.40349E+4   1.30738E+5
   8.80639E+4   1.31714E+5
   8.26000E+4   1.31880E+5
   7.69345E+4   1.32240E+5
   7.17850E+4   1.32426E+5
   6.65157E+4   1.33009E+5
   6.06203E+4   1.33319E+5
   5.51822E+4   1.32732E+5
   4.98639E+4   1.32100E+5
   4.47317E+4   1.31761E+5
   3.98495E+4   1.30442E+5
   3.48105E+4   1.29745E+5
   2.97814E+4   1.28707E+5
   2.53099E+4   1.27433E+5
   2.02955E+4   1.26268E+5
   1.56380E+4   1.24660E+5
   1.09679E+4   1.22800E+5
   6.91408E+3   1.20840E+5
   2.98400E+3   1.19128E+5
  -1.53554E+3   1.17014E+5
  -5.52729E+3   1.15144E+5
  -9.54650E+3   1.12746E+5
  -1.28680E+4   1.10016E+5
  -1.66075E+4   1.07788E+5
  -2.00057E+4   1.05345E+5
  -2.33790E+4   1.02623E+5
  -2.66574E+4   9.96478E+4
  -2.97664E+4   9.71270E+4
  -3.27615E+4   9.45143E+4
  -3.55650E+4   9.15147E+4
  -3.82586E+4   8.83933E+4
  -4.04726E+4   8.54852E+4
  -4.26755E+4   8.24562E+4
  -4.52755E+4   7.94810E+4
  -4.70983E+4   7.65955E+4
  -4.90182E+4   7.34906E+4
  -5.09456E+4   7.04658E+4
  -5.24691E+4   6.75647E+4
  -5.41317E+4   6.45346E+4
  -5.55893E+4   6.15697E+4
  -5.70041E+4   5.83117E+4
  -5.76754E+4   5.53781E+4
  -5.88154E+4   5.26665E+4
  -5.97555E+4   4.95261E+4
  -6.06784E+4   4.65531E+4
  -6.13630E+4   4.38364E+4
  -6.18471E+4   4.09687E+4
  -6.21716E+4   3.84696E+4
  -6.24501E+4   3.56968E+4
  -6.27394E+4   3.29749E+4
  -6.27338E+4   3.04687E+4
  -6.30155E+4   2.79779E+4
  -6.27594E+4   2.56002E+4
  -6.27094E+4   2.33552E+4
  -6.24719E+4   2.06019E+4
  -6.19070E+4   1.82880E+4
  -6.17419E+4   1.65510E+4
  -6.14325E+4   1.41743E+4
  -6.08976E+4   1.20075E+4
  -6.04859E+4   1.00471E+4
  -5.96560E+4   7.88582E+3
  -5.87873E+4   6.00756E+3
  -5.81163E+4   4.09280E+3
  -5.71608E+4   2.59562E+3
  -5.62409E+4   5.11423E+2
  -5.52287E+4  -1.06124E+3
  -5.43614E+4  -2.62610E+3
  -5.31255E+4  -4.35239E+3
  -5.19743E+4  -5.73861E+3
  -5.09835E+4  -7.06160E+3
  -4.99743E+4  -8.69285E+3
  -4.87671E+4  -9.97099E+3
  -4.75097E+4  -1.13282E+4
  -4.62638E+4  -1.23971E+4
  -4.50656E+4  -1.34555E+4
  -4.38177E+4  -1.49970E+4
  -4.23607E+4  -1.59691E+4
  -4.11447E+4  -1.67159E+4
  -3.96131E+4  -1.77878E+4
  -3.82758E+4  -1.84194E+4
  -3.72799E+4  -1.94113E+4
  -3.56959E+4  -2.01769E+4
  -3.45108E+4  -2.09837E+4
  -3.30388E+4  -2.16638E+4
  -3.16162E+4  -2.23050E+4
  -2.99970E+4  -2.29550E+4
  -2.86848E+4  -2.34744E+4
  -2.75080E+4  -2.38683E+4
  -2.62876E+4  -2.42202E+4
  -2.46627E+4  -2.48744E+4
  -2.35453E+4  -2.51625E+4
  -2.20051E+4  -2.54046E+4
  -2.08537E+4  -2.52858E+4
  -1.95604E+4  -2.57123E+4
  -1.84960E+4  -2.58051E+4
  -1.69220E+4  -2.58020E+4
  -1.58043E+4  -2.60161E+4
  -1.46352E+4  -2.57690E+4
  -1.37675E+4  -2.60544E+4
  -1.22674E+4  -2.59673E+4
  -1.09512E+4  -2.58240E+4
  -9.93128E+3  -2.56689E+4
  -9.11391E+3  -2.53528E+4
  -7.91006E+3  -2.53281E+4
  -6.66092E+3  -2.51292E+4
  -5.86754E+3  -2.48131E+4
  -5.01583E+3  -2.45282E+4
  -3.98652E+3  -2.42161E+4
  -3.12635E+3  -2.37559E+4
  -2.36115E+3  -2.38507E+4
  -1.17246E+3  -2.32032E+4
  -2.81485E+2  -2.29635E+4
   2.46285E+2  -2.24657E+4
   1.16920E+3  -2.21431E+4
   2.03174E+3  -2.17352E+4
   2.76944E+3  -2.09583E+4
   3.28183E+3  -2.06657E+4
   3.95828E+3  -2.04241E+4
   4.72404E+3  -1.99909E+4
   5.39957E+3  -1.94323E+4
   6.18439E+3  -1.90815E+4
   6.55581E+3  -1.85421E+4
   7.09649E+3  -1.81186E+4
   7.41213E+3  -1.73934E+4
   8.18528E+3  -1.67909E+4
   8.41749E+3  -1.66255E+4
   9.12708E+3  -1.62841E+4
   9.66335E+3  -1.54197E+4
   9.63839E+3  -1.48297E+4
   1.03539E+4  -1.44568E+4
   1.07177E+4  -1.42479E+4
   1.09314E+4  -1.35024E+4
   1.13146E+4  -1.31315E+4
   1.16997E+4  -1.26056E+4
   1.17197E+4  -1.18562E+4
   1.22316E+4  -1.14738E+4
   1.25438E+4  -1.11820E+4
   1.27350E+4  -1.07101E+4
   1.29158E+4  -1.00983E+4
   1.31000E+4  -9.64344E+3
   1.29186E+4  -9.50493E+3
   1.33085E+4  -8.76447E+3
   1.36571E+4  -8.47467E+3
   1.37273E+4  -7.87389E+3
   1.37601E+4  -7.53020E+3
   1.39190E+4  -7.28126E+3
   1.39346E+4  -6.76738E+3
   1.39273E+4  -6.47882E+3
   1.40090E+4  -5.83132E+3
   1.41226E+4  -5.55546E+3
   1.44346E+4  -5.51529E+3
   1.40911E+4  -4.90455E+3
   1.46616E+4  -4.68413E+3
   1.42659E+4  -4.20836E+3
   1.43052E+4  -3.94479E+3
   1.43045E+4  -3.88557E+3
   1.43396E+4  -3.41811E+3
   1.43201E+4  -2.91114E+3
   1.46180E+4  -2.58764E+3
   1.43521E+4  -2.39579E+3
   1.43379E+4  -2.14934E+3
   1.41120E+4  -1.84089E+3
   1.41467E+4  -1.65190E+3
   1.41382E+4  -1.70172E+3
   1.41362E+4  -1.59865E+3
   1.41496E+4  -1.14175E+3
   1.39661E+4  -9.60664E+2
   1.41096E+4  -6.33159E+2
   1.38409E+4  -6.06925E+2
   1.37969E+4  -3.15482E+2
   1.36001E+4  -1.60234E+2
   1.36510E+4   3.90126E+1
   1.36598E+4  -1.04870E+2
   1.33819E+4   2.89623E+2
   1.34051E+4   2.32920E+2
   1.33561E+4   6.59109E+2
   1.34702E+4   7.13680E+2
   1.30605E+4   6.66408E+2
   1.30856E+4   3.84140E+2
   1.29928E+4   9.96009E+2
   1.29038E+4   1.05755E+3
   1.25661E+4   1.14750E+3
