 
 $NMID
 ID=''
 FMTDAT='(2E13.5)'
 TRAMP=   1.00000E+0
 VOLUME=   1.00000E+0
 $END
  -6.50859E+3   1.97048E+4
   9.35767E+3   3.90271E+4
   3.93764E+4  -1.08200E+3
   1.13792E+4  -4.02969E+4
  -3.49513E+4  -1.33364E+4
  -2.47637E+4   2.70278E+4
   1.66097E+4   1.98649E+4
   2.65259E+4  -1.06675E+4
   2.02415E+3  -2.11705E+4
  -1.86894E+4  -4.88415E+3
  -1.14393E+4   1.46450E+4
   9.30205E+3   1.24585E+4
   1.31028E+4  -3.39123E+3
  -1.67353E+3  -8.76084E+3
  -1.08264E+4  -2.78060E+3
  -4.87034E+3   3.36737E+3
   4.24457E+3   6.19608E+3
   5.72709E+3   1.49712E+3
   9.81871E+2  -5.24065E+3
  -3.17110E+3  -3.61135E+3
  -4.67406E+3   2.84272E+3
  -1.24425E+3   3.72067E+3
   4.88671E+3   8.25766E+2
   3.39387E+3  -1.79225E+3
  -3.64861E+3  -2.81819E+3
  -3.97185E+3  -1.10935E+3
   2.09200E+3   3.10448E+3
   3.34575E+3   3.60851E+3
  -9.30027E+2  -2.01795E+3
  -1.85170E+3  -4.24832E+3
  -1.33419E+2   6.14192E+2
   8.74194E+2   4.33455E+3
   7.07398E+2   9.69235E+2
  -8.94692E+2  -2.65191E+3
  -2.17109E+3  -1.94807E+3
  -8.51698E+2   5.01395E+2
   2.06973E+3   1.23129E+3
   2.07574E+3   1.62493E+2
  -1.20541E+1  -1.25774E+3
  -1.62653E+3  -6.51148E+2
  -1.07510E+3   1.59887E+3
   3.33031E+2   1.07796E+3
   7.96016E+2  -1.53381E+3
  -3.86773E+2  -2.38668E+3
  -5.19245E+2  -1.20983E+3
   9.95569E+2   9.05523E+2
   1.35087E+3   1.89825E+3
  -4.44089E+2   1.01053E+3
  -1.78052E+3  -1.11028E+3
  -1.13411E+3  -8.71667E+2
  -2.06817E+2   5.72782E+1
   5.58494E+1   2.08548E+2
   4.42032E+2  -9.85123E+2
   1.01100E+3  -7.35186E+2
   2.43622E+2   2.39519E+2
  -6.37223E+2   7.07094E+2
  -4.88220E+2   8.48957E+2
  -1.92932E+2   1.28777E+2
   1.27486E+2  -1.32105E+3
   8.44529E+1  -1.43639E+3
   3.29061E+2  -1.68010E+2
   8.27468E+2   5.85154E+2
   1.10636E+3   8.61612E+2
   4.83121E+2   8.35586E+2
  -7.15519E+2   5.18070E+2
  -1.30088E+3   3.79653E+1
  -8.52150E+2  -8.20966E+2
   1.82910E+1  -9.52762E+2
   1.11763E+3  -5.37278E+2
   7.51586E+2  -4.48027E+0
  -4.42570E+2   8.38246E+1
  -5.63832E+2  -8.76315E+2
   6.88953E+2  -8.43128E+2
   1.03115E+3   3.02007E+2
   3.60072E+2   4.29729E+2
  -1.93823E+2  -3.91289E+2
   7.34133E+1  -3.06052E+2
   3.67994E+2   2.21555E+2
   1.87344E+2   1.61045E+2
  -1.59757E+2   3.08082E+2
  -2.61885E+2  -2.12294E+2
  -1.48990E+2  -6.73724E+2
  -1.15221E+2  -4.79439E+2
  -1.60773E+1   1.77051E+2
  -9.68830E+1  -1.59966E+2
   5.66616E+0  -8.27778E+2
   2.98001E+2  -1.01173E+3
   2.33195E+1  -1.07427E+2
  -1.46438E+2   1.55672E+2
  -1.83015E+1  -1.71106E+2
   7.68636E+2  -5.23991E+2
   4.21419E+2  -1.71644E+2
  -5.87294E+1   3.32678E+2
  -1.68164E+2   7.37727E+2
  -8.41412E+2   2.20141E+2
  -2.76204E+2  -1.07746E+3
  -5.53601E+1  -7.43637E+2
  -2.89502E+2   2.23794E+2
  -4.77717E+2  -2.02351E+0
  -1.24481E+2  -6.96997E+2
   7.37675E+2  -3.84545E+2
   4.74436E+2   2.88615E+2
  -3.94699E+2   4.25069E+2
  -9.28729E+2  -1.75083E+2
  -2.68071E+2  -5.12487E+2
   4.74387E+2  -1.37776E+2
   3.59123E+2   5.20177E+2
  -4.34852E+2   4.74443E+2
  -9.50249E+2   6.46300E+1
  -2.91594E+2  -5.82475E+2
   5.29452E+2  -4.94643E+2
   4.99460E+2   2.05946E+2
   4.83237E+2   3.93945E+2
  -3.75192E+0   4.37485E+2
   1.32287E+2   1.44466E+2
   1.39387E+2   2.78673E+2
  -1.73634E+2   7.54310E+2
  -6.44864E+2   2.56228E+2
  -5.48099E+2  -2.74421E+2
  -3.03945E+2  -6.18704E+2
   4.86525E+2  -1.86027E+2
   3.44052E+2   9.67725E+1
   2.42559E+2   9.35288E+1
   1.52894E+2  -6.55616E+1
  -6.58633E+1   4.09682E+2
  -3.10944E+2   2.34876E+2
  -1.15089E+2  -3.21159E+1
   1.33386E-3   2.33862E+2
   2.40792E+2   9.32293E+1
   7.11136E+2   6.21396E+1
   2.31501E+1   3.52188E+2
  -4.26803E+2   3.65112E+2
  -1.78172E+2  -1.29632E+2
   1.34718E+2   2.36211E+2
   1.50206E+2   1.73418E+2
  -2.38020E+1   7.28656E+1
  -7.10692E+0  -6.87235E+1
   4.44299E+2   4.95107E+1
   4.95910E+2   3.72737E+2
   1.33938E+2   4.86959E+2
  -2.13862E+2   3.14956E+2
  -2.88841E+2   8.08670E+0
   3.54520E+2  -2.32590E+2
   5.18786E+2   1.45185E+2
   5.99519E+2   4.30401E+2
  -3.11087E+1   3.52842E+2
  -3.37752E+2  -5.28099E+1
   1.58320E+2   1.23019E+2
   1.40188E+2   1.43399E+2
  -1.30654E+2   1.58716E+2
   2.28518E+2  -3.60080E+2
   7.89766E+1  -5.23764E+2
   4.67293E+2  -1.92569E+2
   1.70160E+2   4.13322E+2
   1.24521E+2   1.45433E+2
   1.38890E+2   1.14438E+2
   4.99138E+2   1.48191E+2
   1.75050E+2  -2.52043E+1
   1.63185E+2   1.79572E+2
   1.43801E+2   1.39719E+2
   3.23578E+2   1.64309E+2
   1.52397E+2   5.01122E+1
  -1.77918E+2   3.60602E+1
  -1.54201E+2  -5.77275E+1
   2.10285E+2  -1.95306E+2
   3.71058E+1  -2.23517E+2
   3.01657E+2  -1.92643E+2
  -2.07000E+1   1.26539E+2
   9.76826E+1   2.95835E+2
   1.68115E+2  -2.16074E+2
   2.29964E+1  -1.01071E+2
   2.59112E+2   1.79982E+2
   1.00077E-1   3.08843E+2
  -4.09077E+1  -2.67254E+2
   1.52417E+2  -1.24514E+2
   1.44757E+2   1.31228E+2
   5.83286E+1   3.96586E+1
  -1.36474E+2   5.73246E+1
  -1.01383E+2  -5.01254E+2
   5.81517E+1  -2.02094E+2
   1.22228E+2  -2.20704E+2
  -2.67311E+1   1.07528E+2
  -6.57252E+1   4.97153E+1
  -2.49904E+2   1.80581E+2
  -1.96692E+2  -3.32111E+2
  -2.84788E+1   6.23850E+1
  -2.09736E+2  -2.05348E+2
  -2.58303E+2  -1.54834E+2
   1.37418E+2  -2.79067E+2
   3.57756E+2  -1.59823E+2
   3.76881E+2   2.21869E+2
   4.11507E+1   4.93894E+2
  -3.95768E+2  -1.73187E+2
  -1.89445E+2  -7.65269E+1
   1.55613E+2  -2.02166E+2
  -7.02329E-1   1.07776E+1
   1.15893E+2   2.79995E+2
   1.09186E+2  -9.96981E+1
  -6.44541E+0   1.17619E+2
  -9.91889E+1   2.19210E+2
  -2.50738E+2   3.80456E+2
  -1.58139E+2  -2.00963E+2
  -6.08111E+1   1.80449E+0
   1.85387E+2  -1.37124E+2
   1.41313E+2  -3.83451E+1
  -1.67230E+2   8.49013E+1
  -7.52750E+1   9.97923E+1
  -3.76255E+1   1.68014E+2
   8.48582E+1   1.82861E+2
  -9.92108E+1   1.63847E+2
  -1.44228E+2  -1.50620E+2
   4.79472E+1  -2.03227E+2
   1.80091E+2  -2.92017E+1
   1.59561E+2   3.27861E+2
  -3.53631E+1   1.62043E+2
  -3.78261E+2   5.62458E+1
  -8.89251E+1  -1.86692E+2
   2.09060E+1  -1.44365E+2
  -2.06324E+1   7.94240E+1
   3.32676E+2   1.61177E+2
   1.00180E+2   2.48377E+1
   6.83555E+1  -3.32228E+2
  -5.98184E+1   1.44919E+2
  -9.77555E+1   2.23392E+2
  -2.29840E+2   7.26479E+1
  -2.79474E+2  -1.90886E+2
   1.40000E+2  -1.19484E+2
  -2.94111E+1  -3.02486E+1
   9.01068E+1   1.58260E+2
  -6.53122E+1   1.11326E+1
   1.17152E+2  -8.14553E+1
  -1.30441E+2  -7.03139E+1
  -1.00621E+2  -1.83232E+1
  -6.08295E+1   6.13040E+1
   1.01908E+2  -1.08009E+2
  -7.05975E+1   1.38667E+2
  -3.63807E+2  -4.88250E+0
  -1.97433E+2   1.13084E+2
  -1.12622E+2   5.88051E+0
  -2.44319E+2  -8.63171E+1
   2.75772E+1  -7.71226E+1
   9.32168E+1   7.53797E+1
  -1.19360E+2   3.74482E+2
  -6.20030E+1   7.39129E+1
  -2.04581E+2  -5.79454E+0
   1.28907E+1   1.28788E+2
  -6.53399E+1   1.81538E+2
  -2.05863E+2   1.01609E+2
  -1.14524E+2  -1.69792E+2
  -7.96029E+1   5.53465E+1
   1.59519E+1   6.98978E+1
  -1.59576E+2   4.96941E+1
  -2.93020E+2  -2.03921E+2
  -1.18857E+2  -2.09828E+2
   1.71601E+2   2.06573E+1
  -1.06766E+2   6.91866E+1
  -1.69224E+2  -8.61120E+1
  -1.74563E+2   1.09932E+2
   1.37892E+1   2.30035E+2
  -2.78002E+2  -5.72962E+0
  -1.89031E+2   1.33258E+2
  -8.09935E+1   1.96905E+2
  -3.46753E+2  -5.23215E+1
  -2.33648E+2  -8.49861E+1
   1.37354E+2  -3.22691E+1
  -7.04369E+1   3.33468E+2
  -2.22066E+1   2.47614E+2
  -1.96547E+2   3.04710E+2
  -5.56534E+0  -1.08553E+2
  -9.04367E+1  -1.73722E+2
  -1.38345E+2  -6.03478E+1
  -1.31821E+2   1.35750E+2
  -1.50668E+2  -2.36608E+2
  -1.57731E+2   1.89162E+2
  -4.14792E+1   1.15550E+2
  -3.18839E+2   4.46996E+1
  -2.58818E+2  -5.16139E+1
   9.00284E-1  -4.33522E+1
   3.52133E+1   4.16923E+1
   1.23452E+0   2.03775E+2
  -9.28317E+1   1.05246E+2
  -7.02742E+1  -1.32446E+2
  -2.24860E+1   2.01113E+2
  -5.90513E+1   1.90871E+2
  -1.69101E+2   2.97387E+2
  -2.03242E+2   4.93936E+1
  -2.40253E+2   1.23561E+2
   6.20553E+1   2.17463E+2
  -1.96486E+1   2.02017E+2
   1.53122E+2   2.64521E+2
  -2.37777E+2   2.79819E+2
  -4.10607E+1   4.76677E+1
  -9.80615E+1  -1.20423E+2
  -2.94943E+1  -9.49641E+1
  -1.70354E+2  -4.29210E+1
  -1.18526E+2   1.05893E+2
   1.47998E+2   2.31024E+2
  -1.76407E+2   2.36510E+2
  -5.29084E+1   5.88776E+1
  -1.61204E+2   8.99893E+1
  -2.10065E+2  -3.18036E+2
   1.98802E+2   1.15471E+2
   1.09298E+2   6.54462E+1
  -1.68330E+2   2.11746E+2
  -1.95883E+2  -2.23301E+1
  -3.75789E+1  -1.18808E+2
  -1.58541E+2   1.81815E+2
   1.60816E+1   1.45311E+1
   1.31870E+2  -3.14878E+1
  -6.75121E+1   9.28821E+1
  -1.24138E+2  -1.72229E+1
   3.84221E+1   1.22796E+2
  -1.07727E+2   4.21358E+1
  -1.29772E+2   1.91278E+1
   2.82144E+1  -7.90114E+1
   1.05096E+2  -4.74767E+1
   1.44730E+1   2.46607E+0
  -6.00884E+1  -9.29666E+1
  -3.56103E+1  -4.49593E+1
  -1.93460E+2   1.97300E+1
  -1.08034E+2   5.80986E+1
  -7.46399E+1   1.83140E+2
  -2.10986E+2  -1.28407E+2
  -1.21243E+2  -1.61409E+2
   4.23428E+1  -6.28221E+1
  -2.30620E+1   8.31636E+1
  -1.09220E+2   1.81757E+2
  -2.11947E+2   1.54532E+2
  -3.05355E+1   5.40502E+0
  -9.10660E+1  -2.52861E+2
  -6.32577E+1   2.20423E+2
  -3.65836E+2  -1.02379E+2
  -1.35678E+2  -1.78287E+2
   9.30365E+1  -2.24985E+2
   1.63031E+1   2.29134E+1
  -4.78226E+1   5.11230E+1
  -1.83710E+2   5.73234E+1
  -4.40180E+2  -6.70709E+1
  -4.90248E+1  -1.55815E+2
   1.00331E+2   2.16315E+2
   4.57167E+1  -1.43087E+2
   5.21130E+1  -6.57026E+1
  -1.01823E+2  -1.57427E+2
   9.95510E+1   1.44292E+1
   3.02546E+1  -3.23217E+1
  -8.84491E+1   3.67582E+1
   1.72183E+2   2.19205E+2
   3.10161E+2  -1.45472E+2
  -6.59015E+1  -1.26420E+2
   1.08199E+2   1.56450E+2
  -2.45679E+2   1.96394E+2
  -2.18060E+2   1.78401E+2
  -2.46136E+2  -7.18705E+1
   1.06104E+2   1.57093E+2
  -3.00671E+1  -1.06758E+2
   9.59190E+1  -4.59704E+1
   1.87860E+1   1.83236E+1
  -1.33737E+1   9.71217E+1
  -2.08427E+2   3.97639E+0
  -2.82261E+1   6.45278E+1
  -1.43054E+2   2.60182E+2
  -9.93484E+1  -3.01177E+2
   8.18954E+1  -1.49811E+2
   6.26849E+1  -4.14105E+1
   4.88751E+1   1.14164E+2
   3.91555E+1  -9.24127E+1
  -8.37712E+1   4.07516E+1
