 
 $NMID
 ID=''
 FMTDAT='(2E13.5)'
 TRAMP=   1.00000E+0
 VOLUME=   1.00000E+0
 $END
   5.37960E+5   2.58956E+5
   1.13395E+6   1.15632E+6
   1.25261E+6   9.63963E+5
   1.16064E+6   9.05846E+5
   1.23835E+6   9.06276E+5
   1.31058E+6   7.62231E+5
   1.28784E+6   6.80958E+5
   1.32221E+6   6.63617E+5
   1.34095E+6   5.83592E+5
   1.31098E+6   5.41543E+5
   1.32701E+6   5.14100E+5
   1.33039E+6   4.40364E+5
   1.30506E+6   3.99491E+5
   1.31029E+6   3.78316E+5
   1.29873E+6   3.28080E+5
   1.27342E+6   2.94374E+5
   1.27878E+6   2.59926E+5
   1.26876E+6   1.97783E+5
   1.24186E+6   1.49584E+5
   1.23724E+6   1.00542E+5
   1.21909E+6   4.47477E+4
   1.18976E+6   5.64351E+3
   1.17626E+6  -3.18581E+4
   1.15184E+6  -7.76243E+4
   1.11853E+6  -1.06552E+5
   1.09666E+6  -1.38698E+5
   1.07151E+6  -1.69783E+5
   1.04184E+6  -1.84766E+5
   1.01723E+6  -2.04057E+5
   9.86328E+5  -2.34356E+5
   9.56194E+5  -2.55938E+5
   9.28197E+5  -2.80668E+5
   8.93927E+5  -3.08408E+5
   8.60979E+5  -3.30163E+5
   8.29096E+5  -3.53417E+5
   7.90788E+5  -3.80033E+5
   7.54340E+5  -4.00482E+5
   7.23359E+5  -4.17337E+5
   6.87033E+5  -4.29068E+5
   6.52482E+5  -4.37692E+5
   6.21848E+5  -4.45068E+5
   5.89043E+5  -4.49840E+5
   5.57528E+5  -4.50536E+5
   5.27964E+5  -4.53858E+5
   4.98576E+5  -4.54445E+5
   4.70057E+5  -4.51523E+5
   4.42157E+5  -4.50424E+5
   4.12659E+5  -4.49385E+5
   3.83971E+5  -4.46572E+5
   3.56065E+5  -4.43687E+5
   3.26967E+5  -4.39825E+5
   2.99927E+5  -4.35081E+5
   2.74271E+5  -4.29020E+5
   2.48896E+5  -4.20927E+5
   2.24953E+5  -4.11973E+5
   2.02705E+5  -4.03296E+5
   1.82178E+5  -3.92381E+5
   1.62005E+5  -3.80064E+5
   1.42782E+5  -3.68676E+5
   1.25228E+5  -3.57445E+5
   1.08031E+5  -3.44955E+5
   9.11750E+4  -3.32268E+5
   7.51130E+4  -3.20113E+5
   6.05731E+4  -3.07336E+5
   4.62909E+4  -2.94217E+5
   3.25866E+4  -2.80875E+5
   2.01329E+4  -2.67602E+5
   8.65911E+3  -2.53992E+5
  -2.58108E+3  -2.40457E+5
  -1.26306E+4  -2.27649E+5
  -2.10258E+4  -2.15151E+5
  -2.87800E+4  -2.01450E+5
  -3.63902E+4  -1.87877E+5
  -4.34203E+4  -1.75770E+5
  -4.92016E+4  -1.63688E+5
  -5.44707E+4  -1.51359E+5
  -6.01090E+4  -1.39372E+5
  -6.49632E+4  -1.27974E+5
  -6.85549E+4  -1.17123E+5
  -7.22691E+4  -1.06274E+5
  -7.58002E+4  -9.60909E+4
  -7.84108E+4  -8.59768E+4
  -8.00542E+4  -7.63679E+4
  -8.17084E+4  -6.70367E+4
  -8.30613E+4  -5.82081E+4
  -8.39539E+4  -4.98947E+4
  -8.45335E+4  -4.15650E+4
  -8.51679E+4  -3.37046E+4
  -8.54592E+4  -2.62674E+4
  -8.50421E+4  -2.00058E+4
  -8.50380E+4  -1.28923E+4
  -8.54494E+4  -6.82096E+3
  -8.54023E+4  -1.27954E+3
  -8.51929E+4   3.92063E+3
  -8.46656E+4   8.79291E+3
  -8.44538E+4   1.34274E+4
  -8.43006E+4   1.79465E+4
  -8.41536E+4   2.21328E+4
  -8.38725E+4   2.59353E+4
  -8.34397E+4   2.94723E+4
  -8.30706E+4   3.24597E+4
  -8.28203E+4   3.57267E+4
  -8.24174E+4   3.78150E+4
  -8.18716E+4   4.04703E+4
  -8.13233E+4   4.25847E+4
  -8.12464E+4   4.46795E+4
  -8.12623E+4   4.68098E+4
  -8.13548E+4   4.80865E+4
  -8.11169E+4   4.93923E+4
  -8.06766E+4   5.11457E+4
  -8.06077E+4   5.22984E+4
  -8.08730E+4   5.33534E+4
  -8.12319E+4   5.42478E+4
  -8.17027E+4   5.56114E+4
  -8.20980E+4   5.65959E+4
  -8.23377E+4   5.70320E+4
  -8.32127E+4   5.76022E+4
  -8.38062E+4   5.80490E+4
  -8.41920E+4   5.86007E+4
  -8.46084E+4   5.95813E+4
  -8.54027E+4   6.00432E+4
  -8.61664E+4   6.06205E+4
  -8.72928E+4   6.07863E+4
  -8.79988E+4   6.10178E+4
  -8.93781E+4   6.12418E+4
  -8.98794E+4   6.14369E+4
  -9.03804E+4   6.15976E+4
  -9.13138E+4   6.19676E+4
  -9.21675E+4   6.20354E+4
  -9.33737E+4   6.20310E+4
  -9.43838E+4   6.19234E+4
  -9.53520E+4   6.17336E+4
  -9.60856E+4   6.13726E+4
  -9.68787E+4   6.14883E+4
  -9.80364E+4   6.15678E+4
  -9.91498E+4   6.13428E+4
  -1.00320E+5   6.11238E+4
  -1.00968E+5   6.09924E+4
  -1.02022E+5   6.06366E+4
  -1.03107E+5   6.02962E+4
  -1.03921E+5   5.99979E+4
  -1.04599E+5   5.96557E+4
  -1.05124E+5   5.90626E+4
  -1.05750E+5   5.89481E+4
  -1.07008E+5   5.85596E+4
  -1.07635E+5   5.81707E+4
  -1.08005E+5   5.76980E+4
  -1.08704E+5   5.71582E+4
  -1.09094E+5   5.65900E+4
  -1.09718E+5   5.61252E+4
  -1.10005E+5   5.54553E+4
  -1.10119E+5   5.51249E+4
  -1.10607E+5   5.49157E+4
  -1.11085E+5   5.46539E+4
  -1.11406E+5   5.39279E+4
  -1.11754E+5   5.32216E+4
  -1.11657E+5   5.27859E+4
  -1.12181E+5   5.24072E+4
  -1.12412E+5   5.18041E+4
  -1.12414E+5   5.10625E+4
  -1.12449E+5   5.05390E+4
  -1.12127E+5   4.99335E+4
  -1.12381E+5   4.95511E+4
  -1.11989E+5   4.85797E+4
  -1.11701E+5   4.79040E+4
  -1.11349E+5   4.76946E+4
  -1.11342E+5   4.70889E+4
  -1.11195E+5   4.63333E+4
  -1.10898E+5   4.56565E+4
  -1.10650E+5   4.49223E+4
  -1.09982E+5   4.44990E+4
  -1.09727E+5   4.36543E+4
  -1.09202E+5   4.31326E+4
  -1.08786E+5   4.21681E+4
  -1.08242E+5   4.12770E+4
  -1.07582E+5   4.06942E+4
  -1.07288E+5   4.01480E+4
  -1.06544E+5   3.91743E+4
  -1.05918E+5   3.80506E+4
  -1.05051E+5   3.74323E+4
  -1.04602E+5   3.65154E+4
  -1.03827E+5   3.53944E+4
  -1.02969E+5   3.42655E+4
  -1.02554E+5   3.34040E+4
  -1.01585E+5   3.22595E+4
  -1.00582E+5   3.12869E+4
  -9.99926E+4   3.02755E+4
  -9.92036E+4   2.91037E+4
  -9.81283E+4   2.80755E+4
  -9.75497E+4   2.68231E+4
  -9.71807E+4   2.55947E+4
  -9.61084E+4   2.44015E+4
  -9.53974E+4   2.31193E+4
  -9.46321E+4   2.17511E+4
  -9.36260E+4   2.03928E+4
  -9.29570E+4   1.88929E+4
  -9.22496E+4   1.75712E+4
  -9.14202E+4   1.60958E+4
  -9.06056E+4   1.46718E+4
  -9.00874E+4   1.30710E+4
  -8.94194E+4   1.15364E+4
  -8.85393E+4   1.02628E+4
  -8.78883E+4   8.62292E+3
  -8.69320E+4   7.21014E+3
  -8.65756E+4   6.12453E+3
  -8.61599E+4   4.40794E+3
  -8.55175E+4   2.73599E+3
  -8.47401E+4   1.47550E+3
  -8.42692E+4  -8.00173E+1
  -8.38149E+4  -1.55243E+3
  -8.31051E+4  -3.15177E+3
  -8.25060E+4  -4.77618E+3
  -8.21870E+4  -5.83750E+3
  -8.16953E+4  -7.22160E+3
  -8.14426E+4  -8.70521E+3
  -8.08849E+4  -1.03680E+4
  -8.03265E+4  -1.13142E+4
  -8.01819E+4  -1.23419E+4
  -7.97653E+4  -1.32302E+4
  -7.95047E+4  -1.44610E+4
  -7.90569E+4  -1.57220E+4
  -7.90111E+4  -1.67611E+4
  -7.85245E+4  -1.77230E+4
  -7.83119E+4  -1.87689E+4
  -7.78884E+4  -1.97913E+4
  -7.77634E+4  -2.06108E+4
  -7.74261E+4  -2.14543E+4
  -7.73297E+4  -2.21296E+4
  -7.71734E+4  -2.30026E+4
  -7.69730E+4  -2.37470E+4
  -7.66592E+4  -2.42303E+4
  -7.62326E+4  -2.50475E+4
  -7.60673E+4  -2.53513E+4
  -7.58175E+4  -2.58896E+4
  -7.55430E+4  -2.66576E+4
  -7.55495E+4  -2.66643E+4
  -7.53487E+4  -2.70724E+4
  -7.49282E+4  -2.72352E+4
  -7.47930E+4  -2.74336E+4
  -7.46144E+4  -2.77380E+4
  -7.40512E+4  -2.77527E+4
  -7.39283E+4  -2.79145E+4
  -7.37385E+4  -2.80804E+4
  -7.34876E+4  -2.80745E+4
  -7.32388E+4  -2.81020E+4
  -7.27158E+4  -2.80423E+4
  -7.24411E+4  -2.77477E+4
  -7.20565E+4  -2.78496E+4
  -7.15102E+4  -2.76302E+4
  -7.11121E+4  -2.74948E+4
  -7.05893E+4  -2.72284E+4
  -7.00599E+4  -2.71545E+4
  -6.95722E+4  -2.68991E+4
  -6.89953E+4  -2.65789E+4
  -6.83399E+4  -2.65393E+4
  -6.80275E+4  -2.59265E+4
  -6.74174E+4  -2.59287E+4
  -6.66449E+4  -2.58166E+4
  -6.61630E+4  -2.53011E+4
  -6.52737E+4  -2.51427E+4
  -6.45030E+4  -2.49269E+4
  -6.39663E+4  -2.45964E+4
  -6.30914E+4  -2.46364E+4
  -6.22583E+4  -2.39418E+4
  -6.15866E+4  -2.35386E+4
  -6.07597E+4  -2.34328E+4
  -6.00686E+4  -2.31165E+4
  -5.91161E+4  -2.28814E+4
  -5.80705E+4  -2.23628E+4
  -5.71145E+4  -2.18475E+4
  -5.62921E+4  -2.16025E+4
  -5.51922E+4  -2.13527E+4
  -5.43947E+4  -2.09082E+4
  -5.33586E+4  -2.05013E+4
  -5.25116E+4  -2.04918E+4
  -5.15747E+4  -2.00016E+4
  -5.03430E+4  -1.98376E+4
  -4.93033E+4  -1.94675E+4
  -4.84605E+4  -1.89116E+4
  -4.72595E+4  -1.87345E+4
  -4.65497E+4  -1.86259E+4
  -4.53770E+4  -1.82627E+4
  -4.42467E+4  -1.78698E+4
  -4.35323E+4  -1.75771E+4
  -4.22163E+4  -1.75777E+4
  -4.12518E+4  -1.73179E+4
  -4.02277E+4  -1.68797E+4
  -3.93430E+4  -1.64972E+4
  -3.85651E+4  -1.60664E+4
  -3.73348E+4  -1.59130E+4
  -3.63426E+4  -1.56365E+4
  -3.52045E+4  -1.55223E+4
  -3.41318E+4  -1.49911E+4
  -3.33869E+4  -1.50325E+4
  -3.23191E+4  -1.46996E+4
  -3.13099E+4  -1.44694E+4
  -3.03799E+4  -1.41334E+4
  -2.95017E+4  -1.40467E+4
  -2.84231E+4  -1.41173E+4
  -2.73814E+4  -1.38466E+4
  -2.66914E+4  -1.36357E+4
  -2.53186E+4  -1.33151E+4
  -2.48154E+4  -1.33859E+4
  -2.39261E+4  -1.31423E+4
  -2.28733E+4  -1.31322E+4
  -2.22578E+4  -1.31491E+4
  -2.12425E+4  -1.30526E+4
  -2.02302E+4  -1.28594E+4
  -1.94693E+4  -1.25209E+4
  -1.85464E+4  -1.27156E+4
  -1.78011E+4  -1.24875E+4
  -1.72959E+4  -1.24110E+4
  -1.63102E+4  -1.23259E+4
  -1.56147E+4  -1.23402E+4
  -1.45966E+4  -1.22065E+4
  -1.40544E+4  -1.20177E+4
  -1.32015E+4  -1.19736E+4
  -1.24675E+4  -1.20997E+4
  -1.20056E+4  -1.19701E+4
  -1.12501E+4  -1.16209E+4
  -1.05045E+4  -1.17398E+4
  -9.74093E+3  -1.17372E+4
  -9.16536E+3  -1.13216E+4
  -8.33216E+3  -1.17364E+4
  -7.82489E+3  -1.12561E+4
  -7.08499E+3  -1.12497E+4
  -6.76607E+3  -1.12998E+4
  -6.17522E+3  -1.14635E+4
  -5.30760E+3  -1.14107E+4
  -4.87205E+3  -1.10092E+4
  -4.35112E+3  -1.09832E+4
  -3.68751E+3  -1.09107E+4
  -3.06950E+3  -1.07635E+4
  -2.75813E+3  -1.07151E+4
  -2.01887E+3  -1.06725E+4
  -1.63712E+3  -1.05030E+4
  -9.24434E+2  -1.05898E+4
  -3.34362E+2  -1.03088E+4
  -2.68609E+1  -1.00396E+4
   1.86218E+2  -9.97084E+3
   8.12147E+2  -1.02276E+4
   1.19502E+3  -9.82105E+3
   1.71695E+3  -9.86808E+3
   2.21753E+3  -9.43771E+3
   2.55561E+3  -9.49983E+3
   2.83273E+3  -9.19910E+3
   3.47480E+3  -9.34605E+3
   3.97734E+3  -9.03829E+3
   4.27243E+3  -8.95001E+3
   4.58113E+3  -8.83483E+3
   5.04492E+3  -8.97656E+3
   5.26016E+3  -8.72086E+3
   5.68924E+3  -8.58881E+3
   6.14062E+3  -8.57893E+3
   6.53875E+3  -8.27244E+3
   6.90094E+3  -8.36283E+3
   7.49877E+3  -8.22696E+3
   7.36669E+3  -7.92904E+3
   7.51107E+3  -7.97862E+3
   7.95706E+3  -7.96881E+3
   8.56713E+3  -7.98148E+3
   8.58936E+3  -7.47892E+3
   8.77322E+3  -7.67699E+3
   9.11004E+3  -7.43358E+3
   9.58941E+3  -7.24305E+3
   9.45494E+3  -7.33592E+3
   9.93389E+3  -7.46955E+3
