 
 $NMID
 ID=''
 FMTDAT='(2E13.5)'
 TRAMP=   1.00000E+0
 VOLUME=   1.00000E+0
 $END
  -8.36304E+2   2.14033E+4
   1.72742E+4   8.75167E+3
   5.90695E+3  -1.43892E+4
  -8.42297E+3   2.48885E+3
   6.79013E+3   1.31485E+4
   3.11411E+3  -4.99569E+3
  -1.10942E+4  -2.31980E+3
   1.24810E+3   6.39038E+3
   5.80030E+3  -5.25566E+3
  -4.28978E+3  -2.27686E+3
  -2.40197E+1   6.99526E+3
   2.09329E+3  -2.80428E+3
  -3.01878E+3  -4.08223E+3
   1.74561E+3   4.33579E+3
   2.92619E+2  -4.63070E+2
  -5.12003E+3  -3.94810E+3
   2.25102E+3   5.91884E+2
   4.27477E+3   5.74973E+2
  -2.75200E+3   4.35246E+2
  -4.77473E+1   7.30258E+2
   1.69071E+3  -7.47766E+2
  -2.33393E+3  -9.39526E+1
   1.16640E+3   5.27547E+2
   1.80819E+3  -3.76460E+2
  -2.32637E+3   7.95369E+2
  -6.31115E+2  -1.00913E+3
   2.65891E+3  -2.07795E+3
  -8.01192E+1   2.69226E+3
  -1.41509E+3   2.58289E+3
  -4.12570E+2  -2.25063E+3
   7.76542E+2  -5.36572E+2
   1.06680E+3   2.45752E+3
  -1.45319E+3   9.50454E+2
  -2.74308E+3   4.37665E+2
  -9.02355E+2  -9.54156E+2
   3.04294E+2  -2.62939E+3
   1.32120E+3  -4.37129E+2
   1.25457E+3   1.18806E+3
   4.21504E+1  -5.01094E+2
  -7.34858E+1   3.07421E+2
   1.69809E+2   1.44265E+3
  -9.14884E+2  -1.03105E+2
  -3.23368E+2  -8.86710E+2
   5.82867E+2  -5.22297E+2
   2.53163E+2  -6.66860E+2
   6.64242E+2  -4.84976E+2
   1.75144E+3   8.19509E+2
  -1.20035E+2   2.00874E+3
  -2.25261E+3   9.94371E+2
  -8.39594E+2  -9.17368E+2
   2.59891E+2  -1.16037E+3
  -4.80622E+2  -2.70240E+2
  -2.16171E+2  -6.50532E+2
   8.54530E+2  -9.73940E+2
   8.84566E+2  -8.37860E+1
   5.34078E+2   6.47944E+2
  -5.05187E+2   5.50193E+2
  -8.04688E+2  -1.91377E+2
  -2.92054E+1  -1.19651E+3
   3.14264E+2  -8.22105E+2
   4.57344E+2  -1.69272E+2
   7.16093E+2   4.32099E+0
   1.04553E+3   2.87585E+2
   8.18009E+1   1.36640E+3
  -1.04519E+3   1.31529E+3
  -1.24524E+3  -1.73044E+2
  -1.14632E+3  -1.06326E+3
  -5.42659E+2  -1.12725E+3
   2.97708E+2  -6.95588E+2
   3.57427E+2  -2.25153E+1
  -5.63178E+2  -6.12670E+1
  -3.10526E+2  -5.69357E+2
   4.52080E+2  -6.88131E+2
   3.41023E+2   3.32875E+2
   5.91047E+1   4.41604E+2
  -1.83368E+2   1.02087E+2
  -1.37165E+2   1.34828E+2
   5.45109E+2   4.74045E+2
  -2.09201E+2   3.18032E+2
  -5.64700E+2   3.07677E+2
  -6.47959E+2   1.08189E+2
  -1.95412E+2  -3.33090E+2
  -7.70206E+1  -3.20060E+2
  -5.67246E+1  -1.45618E+1
  -6.07166E+2  -1.42598E+2
  -2.82184E+2  -5.50798E+2
   5.69761E+2  -3.66745E+2
   4.08618E+2   1.88106E+2
  -1.32634E+2   1.56011E+2
   1.63251E+2  -3.47096E+1
   7.86353E+2  -2.19338E+2
   5.31936E+2   6.51058E+2
   8.16581E-1   1.05180E+3
  -5.63827E+2   6.40209E+2
  -4.39674E+2  -3.49786E+2
  -3.36036E+2  -3.69006E+2
   1.37831E+2  -1.93787E+2
  -1.31733E+2   1.26135E+2
  -5.76693E+1  -8.64960E+1
   2.31131E+2  -2.05435E+2
   3.70710E+2   1.62542E+2
   2.93155E+2   5.48527E+2
  -3.19566E+2   4.56401E+2
  -5.95847E+2  -2.76492E+2
  -2.18061E+2  -6.91972E+2
   6.01370E+2  -2.54822E+2
   4.07144E+2   5.39690E+2
  -6.98376E+2   4.78645E+2
  -6.83540E+2  -5.30340E+2
   2.69812E+2  -9.70398E+2
   6.56711E+2  -3.57606E+2
   5.00713E+2   3.05907E+2
   1.43215E+2   1.39034E+2
   4.77725E+0  -2.08602E+1
   5.32991E+1   1.39514E+2
  -2.77101E+1   4.01437E+2
  -5.22409E+2   5.35462E+2
  -7.00999E+2   1.49210E+2
  -3.05899E+2  -6.35530E+2
   2.10840E+2  -6.08704E+2
   6.26747E+2  -1.00890E+2
   1.80350E+2   4.86347E+1
   1.51847E+2   1.24893E+2
   4.71801E+1   5.00081E+2
  -2.61419E+2   3.72669E+2
  -3.88893E+2   1.21214E+2
  -2.07969E+2  -3.72098E+2
   7.60814E+1  -4.18723E+2
   2.93866E+2   2.88960E+2
   2.22867E+1   2.32901E+2
  -1.03410E+2   5.17002E+2
  -4.84673E+2   3.28786E+1
  -4.78970E+1  -2.69719E+2
   7.74167E+1  -2.00402E+1
  -4.10933E+1   1.35360E+2
  -5.00076E+1   5.10643E+0
   2.23119E+2  -1.48217E+2
   6.15080E+2  -4.95692E+1
   1.04073E+2   5.39473E+2
  -2.82828E+2   4.79148E+2
  -4.45580E+2  -1.67151E+2
   1.13589E+2  -3.84453E+2
   4.71829E+2  -2.13483E+2
   3.38237E+2   6.49693E+2
   4.08338E+1   7.06798E+2
  -2.25632E+2   2.12178E+2
  -1.55595E+2  -3.77497E+1
   1.64390E+2   3.70134E+0
  -1.78515E+1  -2.43529E+1
  -1.30603E+2   4.36739E+1
  -1.66905E+2  -3.82353E+2
   2.50899E+2  -3.73170E+2
   4.83383E+2   1.15410E+2
   9.24981E+1   3.10789E+2
  -8.23112E+1   8.07797E+1
   8.37091E+1  -2.69682E+1
   1.40075E+2   1.03967E+2
   6.36025E+1   1.81985E+2
  -8.01037E+1   1.49738E+2
  -1.12503E+2   1.84821E+2
  -1.21373E+1   7.14756E+1
  -1.63511E+2   3.69049E+2
  -3.01092E+2   1.16158E+2
  -7.13374E+1  -1.58060E+2
  -3.84377E+1  -2.24166E+2
   2.17875E+2  -2.19448E+2
   4.91446E+2   1.08949E+2
   7.23512E+0   1.26438E+2
  -2.21491E+2   6.28026E+1
  -2.25897E+1   5.03121E+1
   1.62556E+2   4.45618E+1
  -2.35384E+2   9.67873E+1
  -5.65155E+1   1.53853E+2
   4.63805E+1  -3.50024E+2
   4.03553E+1   1.56049E+2
   1.69555E+2   7.60162E+0
   5.04349E+1   1.52630E+2
  -2.91820E+2  -2.50129E+2
   1.61402E+2  -3.64441E+2
   1.78041E+2  -1.51186E+2
   2.60792E+2   2.76219E+2
  -2.24282E+2   2.87541E+2
  -1.22646E+2  -2.08841E+0
  -6.51260E+1   6.42336E+1
  -1.24544E+2  -3.97810E+1
   2.41505E+2  -7.21981E+1
  -2.32029E+1  -6.28502E+0
   6.40481E+1  -3.98952E+1
   1.66255E+2  -2.08933E+2
   2.29948E+2   2.03232E+2
  -8.18696E+1   4.01073E+2
  -3.35835E+2   9.50736E+1
  -2.92505E+2  -2.29711E+2
   2.05768E+2  -8.12381E+1
   1.96904E+2   1.40660E+2
  -1.20292E+2   2.19757E+2
   4.75967E+1  -8.45853E+1
   1.33147E+2   2.29157E+2
  -4.96439E+1   1.35630E+2
  -1.08541E+2   4.39592E+1
  -2.58098E+2  -1.19993E+2
  -4.49789E+1  -1.81337E+2
   6.25675E+1   9.66717E+0
  -2.69725E+1  -7.00011E+1
  -1.36978E+2  -8.51774E+1
  -8.36708E+1  -1.69595E+2
  -8.64330E+1   2.30155E+1
   1.49912E+2  -7.37543E+1
  -2.83449E+1   5.22465E+0
  -1.20792E+2  -1.83340E+0
   5.08335E+0  -1.51819E+1
  -8.76183E+1   7.59723E+1
  -2.32322E+1   8.48790E+1
  -3.35773E+2   4.87789E+2
  -1.72469E+2   3.45682E+2
  -8.70227E+1  -1.17515E+2
  -6.69060E+1  -2.60011E+2
   1.97105E+2   1.05507E+2
   3.75931E+1   3.62047E+2
  -1.46316E+2   2.03074E+1
  -2.53902E+2  -1.38140E+2
   2.54754E+2   1.43006E+2
  -1.23781E+2   4.42796E+2
  -3.52272E+2   2.08451E+2
  -2.27365E+2  -1.91446E+2
   8.65359E+0  -1.36287E+2
  -2.89677E+0   2.70904E+2
  -1.47723E+2   2.49980E+2
  -2.29403E+2   2.88043E+2
   8.78573E-1  -2.88158E+1
  -1.00559E+2  -2.28689E+2
   1.51830E+2   1.10666E+2
  -1.50277E+2   1.45420E+1
  -2.93967E+2   1.00331E+2
  -1.76270E+2  -1.56609E+2
   1.31087E+2  -1.76511E+1
   1.92742E+2   4.72910E+1
  -1.74018E+2   7.24847E+1
   4.97835E+1   8.38477E+1
  -1.94205E+1   1.80833E+2
   2.56339E+2   1.32606E+1
  -1.84947E+2   7.87354E+0
   1.21161E+1   1.59785E+2
   3.04828E+1  -9.50305E+1
  -6.61295E+1  -1.58817E+2
   4.70596E+1  -3.69991E+1
  -1.48696E+2   1.16136E+2
  -1.96041E+2  -3.26437E+1
   6.69201E+1  -1.26935E+2
   1.94228E+2   2.10558E+2
  -1.35012E+2   1.40838E+2
  -1.85428E+2   1.69295E+2
  -2.83422E+2  -2.38140E+2
   3.21863E+0  -1.42889E+2
   2.25454E+2  -1.20056E+1
   8.45042E+1   1.79765E+2
   4.12565E+0   5.61478E+1
  -2.11735E+2   3.28640E+0
   9.13909E+1   1.32356E+2
   7.20399E+0   8.20033E+1
  -1.82298E+2  -1.00135E+2
  -2.88313E+1  -3.94768E+2
  -1.16804E+2  -2.16130E+2
   3.95244E+2   2.25278E+2
   9.79934E+0   7.67007E+1
  -2.70224E+2   2.74759E+1
  -2.75632E+2  -1.78760E+2
  -3.28911E-1  -9.67142E+0
  -2.68825E+1   9.54281E+1
  -7.47038E+1   1.56504E+2
  -3.79325E+1   1.39117E+2
  -2.48092E+1   1.52583E+1
  -4.02725E+1   6.31846E+1
   7.29805E+1  -7.42754E+0
  -1.03581E+2  -8.64313E+1
  -4.10163E+2   5.93499E+1
  -1.25727E+2  -1.45863E+2
   2.58001E+1  -1.78445E+2
  -8.37551E+1   6.98546E+1
   5.91266E+1   1.44917E+2
  -4.40938E+1   2.32851E+1
  -7.41707E+1  -5.30648E+1
  -6.85722E+1   9.53574E+1
  -1.12352E+2   1.38139E+2
  -2.02009E+2  -1.56930E+1
   1.91553E+2  -3.24210E+2
   1.25451E+2   2.12249E+1
   5.43170E+1   1.11835E+1
  -9.88294E+1   1.77776E+2
  -1.04055E+2   1.09030E+2
   2.86434E+1  -9.72838E+1
  -1.12643E+2   1.65409E+2
  -3.37433E+1  -3.20898E+1
  -2.79787E+1  -3.33912E+0
   2.44986E+1   1.35013E+2
   4.98180E+1   3.93910E+1
   1.15160E+2  -4.01191E+1
   9.09017E+1   9.13215E+0
   4.58069E+1  -1.70057E+2
  -1.57793E+2   1.61206E+1
   7.73577E+1  -1.72271E+2
  -4.76619E+1   1.07916E+2
  -1.57449E+1   2.20248E+2
  -2.78267E+2  -5.81784E+1
  -1.76738E+2   1.08783E+2
   2.30113E+2  -5.13413E+1
  -2.45949E+2   1.28605E+2
  -2.98045E+1  -9.06142E+1
  -8.75292E+1   1.00704E+2
  -1.54222E+1   1.24158E+2
   1.83695E+2   2.38039E+2
  -1.49172E+2   3.51259E+1
  -1.63030E+2   3.13077E+1
  -4.81617E+1  -1.55704E+2
   9.87927E+1   6.49444E+1
  -3.67331E+0  -8.77062E+1
   1.19134E+2  -2.84521E+1
  -2.96525E+1  -1.45636E+2
   1.72016E+2  -1.47425E+2
   1.16052E+2   1.80537E+2
  -1.42980E+2   8.78345E+1
  -2.10671E+2  -5.38838E+1
  -2.21623E+2  -6.59151E+1
  -9.42234E+0   1.69963E+1
   4.31292E+1   1.63754E+2
  -6.12923E+1   2.82586E+1
  -1.78979E+2  -1.76897E+2
  -1.82648E+2  -1.30298E+2
   9.23428E+1  -1.06891E+2
  -4.29723E+0  -3.92984E+1
   1.65633E+2   1.59577E+2
  -8.35819E+1  -6.25601E+1
   1.51382E+1  -4.75284E+1
  -8.50368E+0   1.40207E+2
   8.66454E+1   7.75349E+1
  -4.79663E+0  -1.13847E+1
  -2.36892E+2  -1.79896E+2
   1.33932E+2  -2.96754E+2
   3.54796E+1  -6.71638E+1
  -1.38433E+2   1.42352E+1
   5.88859E+0  -9.75520E+1
  -1.14013E+2  -8.92632E+1
   4.33629E+1  -5.53628E+1
  -8.45878E+1  -1.86350E+1
  -1.47573E+2  -1.19770E+2
   6.24254E+1  -2.38844E+2
   1.30902E+2  -9.12516E+1
  -6.51695E+1   1.09679E+2
  -8.62208E+1  -6.97392E+0
  -2.22067E+2   2.82616E+2
  -7.54627E+1   2.52084E+2
  -7.68273E+1   8.10949E+1
   3.21523E+1  -1.17679E+2
   8.97098E+1  -1.19640E+2
   9.36694E+0  -4.25404E+1
  -1.03122E+2  -3.29199E+1
   1.34665E+2   3.67926E+1
   2.23494E+0  -9.93639E+1
  -2.18153E+2  -4.17765E+1
  -2.12434E+2  -4.48460E+1
  -1.32687E+2  -1.52624E+2
   2.25218E+1  -4.92129E+1
  -1.37473E+2  -5.86574E+1
  -6.01680E+1   1.90765E+2
  -1.55548E+2  -2.78632E+1
  -1.34097E+2  -4.07417E+1
   8.98175E+1  -1.13140E+2
