 LCModel (Version 6.3-1N) Copyright: S.W. Provencher.          Ref.: Magn. Reson. Med. 30:672-679 (1993).                
 Slice_N1@23_21  28-Feb-2025 11:44:02
 27 lines in following concentration table = NCONC+1
    Conc.  %SD /Cr+PCr  Metabolite                                         
 2.76E-04   6% 4.4E-04 Mac                                                 
    5.053  30%   8.000 Cr                                                  
    0.000 999%   0.000 PCr                                                 
   18.697  12%  29.602 Ins                                                 
   11.632  16%  18.416 NAA                                                 
    5.538  48%   8.769 Tau                                                 
    1.603  28%   2.537 PCho                                                
    0.000 999%   0.000 GPC                                                 
   17.948  12%  28.416 Glu                                                 
    5.198  32%   8.229 Gln                                                 
    0.000 999%   0.000 Ala                                                 
   19.004  18%  30.088 Asc                                                 
    1.230  76%   1.947 Asp                                                 
    1.306  42%   2.067 GABA                                                
    1.137  50%   1.800 Glc                                                 
    4.066  25%   6.437 GSH                                                 
    4.946  27%   7.831 Lac                                                 
    2.240  69%   3.547 NAAG                                                
    0.000 999%   0.000 PE                                                  
    1.603  28%   2.537 GPC+PCho                                            
   13.872   9%  21.963 NAA+NAAG                                            
   23.145  11%  36.645 Glu+Gln                                             
    5.053  30%   8.000 Cr+PCr                                              
   13.872   9%  21.963 NAA+NAAG                                            
    5.053  30%   8.000 Cr+PCr                                              
   23.145  11%  36.645 Glu+Gln                                             
   6 lines in following misc. output table
  FWHM = 0.114 ppm    S/N =   2                                            
  Data shift =-0.008 ppm                                                   
  Ph: -20 deg       0.0 deg/ppm                                            
  alphaB,S = 2.5E-01,   4.5E+01                                            
   15 spline knots.   Ns = 8(2)                                            
  (10) 4 infls.   ( 9) 1 extrs.                                            
  480 points on ppm-axis = NY
      4.100000     4.091866     4.083733     4.075600     4.067466     4.059333     4.051199     4.043066     4.034933     4.026799
      4.018666     4.010532     4.002399     3.994265     3.986132     3.977998     3.969864     3.961731     3.953597     3.945463
      3.937330     3.929196     3.921062     3.912929     3.904795     3.896662     3.888528     3.880394     3.872261     3.864127
      3.855993     3.847860     3.839726     3.831592     3.823459     3.815325     3.807191     3.799058     3.790924     3.782790
      3.774657     3.766523     3.758389     3.750256     3.742122     3.733989     3.725855     3.717721     3.709588     3.701454
      3.693320     3.685187     3.677053     3.668919     3.660786     3.652652     3.644518     3.636385     3.628251     3.620117
      3.611984     3.603850     3.595716     3.587583     3.579449     3.571316     3.563182     3.555048     3.546915     3.538781
      3.530647     3.522514     3.514380     3.506246     3.498113     3.489979     3.481845     3.473712     3.465578     3.457444
      3.449311     3.441177     3.433043     3.424910     3.416776     3.408643     3.400509     3.392375     3.384242     3.376108
      3.367974     3.359841     3.351707     3.343573     3.335440     3.327306     3.319172     3.311039     3.302905     3.294771
      3.286638     3.278504     3.270370     3.262237     3.254103     3.245970     3.237836     3.229702     3.221569     3.213435
      3.205301     3.197168     3.189034     3.180900     3.172767     3.164633     3.156499     3.148366     3.140232     3.132098
      3.123965     3.115831     3.107697     3.099564     3.091430     3.083297     3.075163     3.067029     3.058896     3.050762
      3.042628     3.034495     3.026361     3.018227     3.010094     3.001960     2.993826     2.985693     2.977559     2.969425
      2.961292     2.953158     2.945024     2.936891     2.928757     2.920624     2.912490     2.904356     2.896223     2.888089
      2.879955     2.871822     2.863688     2.855554     2.847421     2.839287     2.831153     2.823020     2.814886     2.806752
      2.798619     2.790485     2.782351     2.774218     2.766084     2.757951     2.749817     2.741683     2.733550     2.725416
      2.717282     2.709149     2.701015     2.692881     2.684748     2.676614     2.668480     2.660347     2.652213     2.644079
      2.635946     2.627812     2.619678     2.611545     2.603411     2.595278     2.587144     2.579010     2.570877     2.562743
      2.554609     2.546476     2.538342     2.530208     2.522075     2.513941     2.505807     2.497674     2.489540     2.481406
      2.473273     2.465139     2.457006     2.448872     2.440738     2.432605     2.424471     2.416337     2.408204     2.400070
      2.391936     2.383803     2.375669     2.367535     2.359402     2.351268     2.343134     2.335001     2.326867     2.318733
      2.310600     2.302466     2.294333     2.286199     2.278065     2.269932     2.261798     2.253664     2.245531     2.237397
      2.229263     2.221130     2.212996     2.204862     2.196729     2.188595     2.180461     2.172328     2.164194     2.156060
      2.147927     2.139793     2.131660     2.123526     2.115392     2.107259     2.099125     2.090991     2.082858     2.074724
      2.066590     2.058457     2.050323     2.042189     2.034056     2.025922     2.017788     2.009655     2.001521     1.993387
      1.985254     1.977120     1.968987     1.960853     1.952719     1.944586     1.936452     1.928318     1.920185     1.912051
      1.903917     1.895784     1.887650     1.879516     1.871383     1.863249     1.855115     1.846982     1.838848     1.830714
      1.822581     1.814447     1.806314     1.798180     1.790046     1.781913     1.773779     1.765645     1.757512     1.749378
      1.741244     1.733111     1.724977     1.716843     1.708710     1.700576     1.692442     1.684309     1.676175     1.668041
      1.659908     1.651774     1.643641     1.635507     1.627373     1.619240     1.611106     1.602972     1.594839     1.586705
      1.578571     1.570438     1.562304     1.554170     1.546037     1.537903     1.529769     1.521636     1.513502     1.505368
      1.497235     1.489101     1.480968     1.472834     1.464700     1.456567     1.448433     1.440299     1.432166     1.424032
      1.415898     1.407765     1.399631     1.391497     1.383364     1.375230     1.367096     1.358963     1.350829     1.342695
      1.334562     1.326428     1.318295     1.310161     1.302027     1.293894     1.285760     1.277626     1.269493     1.261359
      1.253225     1.245092     1.236958     1.228824     1.220691     1.212557     1.204423     1.196290     1.188156     1.180022
      1.171889     1.163755     1.155622     1.147488     1.139354     1.131221     1.123087     1.114953     1.106820     1.098686
      1.090552     1.082419     1.074285     1.066151     1.058018     1.049884     1.041750     1.033617     1.025483     1.017349
      1.009216     1.001082     0.992949     0.984815     0.976681     0.968548     0.960414     0.952280     0.944147     0.936013
      0.927879     0.919746     0.911612     0.903478     0.895345     0.887211     0.879077     0.870944     0.862810     0.854676
      0.846543     0.838409     0.830276     0.822142     0.814008     0.805875     0.797741     0.789607     0.781474     0.773340
      0.765206     0.757073     0.748939     0.740805     0.732672     0.724538     0.716404     0.708271     0.700137     0.692003
      0.683870     0.675736     0.667603     0.659469     0.651335     0.643202     0.635068     0.626934     0.618801     0.610667
      0.602533     0.594400     0.586266     0.578132     0.569999     0.561865     0.553731     0.545598     0.537464     0.529330
      0.521197     0.513063     0.504930     0.496796     0.488662     0.480529     0.472395     0.464261     0.456128     0.447994
      0.439861     0.431727     0.423593     0.415460     0.407326     0.399192     0.391059     0.382925     0.374792     0.366658
      0.358524     0.350391     0.342257     0.334124     0.325990     0.317856     0.309723     0.301589     0.293455     0.285322
      0.277188     0.269055     0.260921     0.252787     0.244654     0.236520     0.228386     0.220253     0.212119     0.203986
 NY phased data points follow
   3.33303E+01  4.49547E+01  4.28590E+01  5.83283E+01  5.36442E+01  5.18836E+01  3.08705E+01  5.72036E+01  7.24264E+01  5.96547E+01
   8.12502E+01  6.28486E+01  7.81454E+01  8.67221E+01  8.80593E+01  9.20134E+01  1.05127E+02  1.07429E+02  1.08677E+02  1.27675E+02
   9.75829E+01  1.02578E+02  8.26297E+01  6.46607E+01  7.10781E+01  4.15874E+01  4.18730E+01  4.29253E+01  2.84512E+01  2.10781E+01
   2.44948E+01  2.04717E+01  1.89265E+01  2.44815E+01  5.83392E+00 -4.69552E+00  4.59909E+00 -8.64290E+00 -4.64871E+00 -3.83443E+00
  -1.22828E+01 -1.39982E+01 -1.95668E+01 -9.76583E+00 -2.87483E+01 -1.24557E+01  1.13535E+01  1.25820E+01  3.68041E+00  2.00150E+00
   2.60894E+01  7.26707E-01  5.93897E+00  1.53187E+01  1.02629E+01  8.59173E+00 -4.96775E+00  1.13300E+01  8.80550E+00 -1.49693E+00
   1.19120E+01  9.14229E+00 -5.66123E+00  1.73638E+01  1.82847E+01  3.28714E+00  1.07446E+01  1.38453E+01  1.16275E+01  5.44911E+00
   9.55646E+00  9.93025E+00  1.47426E+01  1.59356E+01  1.96816E+01  2.47332E+01  2.59710E+01  2.03223E+01  2.36506E+01  3.79751E+01
   2.29248E+01  1.98972E+01  2.93874E+01  2.86355E+01  2.52848E+01  3.92914E+01  4.26054E+01  3.29027E+01  2.90799E+01  3.61942E+01
   5.15945E+01  4.68460E+01  6.12465E+01  6.69060E+01  6.56520E+01  6.74549E+01  7.57110E+01  7.53351E+01  6.52810E+01  7.44018E+01
   6.38929E+01  6.46134E+01  5.06483E+01  5.65011E+01  5.77957E+01  3.24909E+01  3.72766E+01  1.18409E+01 -7.06569E+00 -4.91920E+00
  -1.03310E+01 -2.28628E+01 -3.12248E+01 -4.97922E+01 -3.93603E+01 -1.09732E+01 -2.57437E+01 -1.38563E+01 -4.28456E+00 -4.67290E+00
   3.73473E+00  1.17783E+01  2.20123E+01  1.59394E+01  2.28405E+01  3.76443E+01  5.63829E+01  6.59368E+01  5.37679E+01  5.68171E+01
   6.50553E+01  5.09841E+01  4.16241E+01  3.47462E+01  1.85216E+01 -2.63044E+00 -2.33971E+01 -4.43327E+00  6.19650E+00 -1.86687E+01
  -2.18637E+01 -3.15738E+01 -4.19865E+01 -3.28146E+01 -4.37274E+01 -4.24732E+01 -3.75035E+01 -5.15889E+01 -4.60880E+01 -5.04123E+01
  -4.55909E+01 -2.26304E+01 -3.03643E+01 -2.38184E+01 -2.24661E+01 -3.20616E+01 -1.45747E+01 -2.47431E+01 -3.10519E+01 -1.31179E+01
  -1.38462E+01 -1.01596E+01 -3.43030E+00 -6.59215E+00 -9.13217E+00 -2.76442E+01 -2.52461E+01 -7.63689E+00 -1.24275E+01  2.20183E+00
  -1.65250E-01 -3.62702E+00 -2.78264E+00 -7.74471E-02  7.85376E+00 -2.33827E+00  1.00117E+01  1.08845E+00  1.60140E+01  8.58142E+00
  -1.62701E+01 -1.46137E+00 -2.33727E+01 -2.26053E+01 -2.81549E+01 -2.86877E+01 -2.42895E+01 -1.92229E+01 -6.82869E+00 -2.19683E+01
  -2.31022E+01 -3.99146E+01 -2.65888E+01 -1.66214E+01 -3.69696E+01 -2.18235E+01 -9.05514E+00 -1.61692E+00 -5.44236E+00 -1.81804E+01
  -6.11384E+00 -1.09937E+01 -1.01635E+01  6.17208E+00 -1.63888E+01 -1.20028E+01 -1.44746E+01 -3.03549E+01 -2.01047E+01 -1.35624E+01
  -1.28748E+01 -2.30389E+01 -6.29714E+00 -7.51274E+00 -1.02725E+01  1.60027E+01  2.03113E+01  1.20865E+01  2.14694E+01  2.75101E+01
   1.70929E+01  2.38404E+01  1.24268E+01  1.35543E+01  2.63252E+01  1.34781E+01  8.14655E+00  1.01611E+01  9.77970E+00  4.44760E+00
   1.28526E-01 -1.35599E+01 -1.35012E+01 -8.79106E+00 -1.95718E+01 -3.35747E+01 -4.19459E+01 -3.62480E+01 -4.24177E+01 -5.38103E+01
  -5.76506E+01 -5.85253E+01 -5.76858E+01 -5.91976E+01 -5.67755E+01 -5.56035E+01 -5.14655E+01 -5.33180E+01 -5.98813E+01 -4.83887E+01
  -5.65488E+01 -4.81447E+01 -4.23246E+01 -5.14434E+01 -2.66763E+01 -2.83807E+01 -9.24379E+00 -1.55331E+00  9.28071E+00  3.21314E+01
   4.24816E+01  9.14123E+01  6.92244E+01  6.14491E+01  7.20940E+01  6.48489E+01  8.20085E+01  6.84043E+01  7.73754E+01  7.58700E+01
   7.01328E+01  6.68178E+01  5.77089E+01  7.39449E+01  7.24274E+01  6.75237E+01  7.26461E+01  6.97619E+01  6.39823E+01  6.92639E+01
   7.20402E+01  7.61648E+01  7.72927E+01  6.67284E+01  6.46528E+01  5.52674E+01  6.57316E+01  7.01075E+01  5.63963E+01  7.46847E+01
   5.57000E+01  4.99208E+01  6.78070E+01  4.88169E+01  4.51057E+01  4.64170E+01  5.17267E+01  4.39537E+01  4.77826E+01  4.86320E+01
   4.94642E+01  6.04953E+01  4.78686E+01  5.71767E+01  4.46163E+01  5.27878E+01  5.91622E+01  4.23938E+01  5.30655E+01  5.07612E+01
   6.97491E+01  6.76465E+01  4.14013E+01  5.95946E+01  8.14599E+01  5.88866E+01  4.65051E+01  5.85023E+01  6.43525E+01  6.49107E+01
   6.35413E+01  6.18330E+01  6.52127E+01  7.64309E+01  6.69732E+01  7.44785E+01  8.14697E+01  8.18815E+01  7.62053E+01  7.79544E+01
   8.01487E+01  4.64581E+01  5.25097E+01  3.42165E+01  5.75119E+00  1.16277E+01  1.17751E+01  2.20229E+00 -3.94649E+00 -4.32129E+00
  -1.43482E+01 -1.75376E+01 -2.76501E+01 -5.20831E+00 -8.99521E+00 -1.44269E+01  4.65330E+00  2.86872E+00  9.39464E+00  1.43932E+01
   2.51227E+01  1.24435E+01  2.34310E+01  2.05735E+01  1.62923E+01  2.23781E+01  1.82211E+01  3.40284E+01  1.31531E+01  7.87947E+00
  -3.84916E+00 -4.49231E+00  9.20768E+00  1.00812E+01 -1.61076E-01 -6.14255E+00  2.17957E+01  1.83140E+01  2.41886E+01  3.39259E+01
   3.17564E+01  2.42207E+01  2.16025E+01  3.11412E+01  4.97102E+01  5.27480E+01  2.61640E+01  3.71784E+01  5.06671E+01  6.87552E+01
   7.30316E+01  8.25012E+01  8.74262E+01  7.15495E+01  9.65531E+01  1.02763E+02  1.07368E+02  1.13582E+02  1.26248E+02  1.31409E+02
   1.15573E+02  1.25595E+02  1.25111E+02  1.06362E+02  9.01149E+01  8.78496E+01  8.97922E+01  8.09617E+01  6.79767E+01  6.48544E+01
   5.71841E+01  5.35863E+01  4.54641E+01  3.98176E+01  4.38706E+01  2.24291E+01  2.24937E+01  1.30164E+01  5.09129E+00  1.64981E+01
   3.40620E+00  6.13231E+00  8.96890E+00  4.30983E+00 -1.97150E+00  1.97393E+00  4.03146E+00 -9.25740E+00  4.65001E+00  7.04545E+00
  -1.63672E+00  4.55819E+00  1.80792E+00 -5.42623E+00 -1.83926E+01 -2.42088E+00  1.56558E+01  5.42186E+00  8.17961E+00  6.70206E+00
   3.37367E+00 -1.32025E+01 -8.52564E+00  1.44959E+01 -1.64442E+00  5.24418E+00  1.85937E+01  5.80560E+00 -3.54568E+00  1.11200E+01
   1.29181E+01 -9.98069E-01  1.09603E+01  5.53394E+00  1.16529E+01  1.11726E+01 -3.91960E+00  1.15350E+00 -2.36193E+00  6.35795E+00
   6.68407E+00  7.70395E+00  8.68192E+00 -2.31481E+00 -8.29083E+00 -5.02221E-01  6.41529E+00 -6.93709E+00  9.19831E+00  7.56058E+00
  -9.71030E-01  8.04733E+00  2.97037E+00 -3.81384E+00 -4.48261E+00  2.00345E+01  1.00092E+01  1.56962E+01  1.99276E+01 -8.60603E+00
   2.41800E+00  9.36107E+00  1.83564E+01  1.33931E+01  7.34676E+00  1.31250E+01  9.51644E+00  6.07287E+00  2.62074E-01 -2.22397E+00
 NY points of the fit to the data follow
   3.65076E+01  3.81766E+01  3.44029E+01  3.74809E+01  3.53031E+01  3.98535E+01  3.89053E+01  4.47730E+01  4.41718E+01  5.03633E+01
   4.97690E+01  5.63436E+01  5.60405E+01  6.20011E+01  6.20997E+01  6.59637E+01  6.61519E+01  6.77020E+01  6.84338E+01  6.81690E+01
   7.02387E+01  6.84149E+01  7.19026E+01  6.91763E+01  7.35978E+01  7.03996E+01  7.40239E+01  7.00771E+01  7.06752E+01  6.55151E+01
   6.34373E+01  5.77553E+01  5.33457E+01  4.73049E+01  4.00784E+01  3.37315E+01  2.34350E+01  1.73659E+01  5.03804E+00  1.49142E-01
  -1.13620E+01 -1.34615E+01 -2.04608E+01 -1.83872E+01 -1.91732E+01 -1.37469E+01 -9.65146E+00 -2.63715E+00  2.66141E+00  8.81043E+00
   1.35753E+01  1.74415E+01  2.06519E+01  2.26576E+01  2.37810E+01  2.34735E+01  2.37903E+01  2.18181E+01  2.19064E+01  1.95519E+01
   2.03241E+01  1.79047E+01  1.89365E+01  1.64889E+01  1.60776E+01  1.31721E+01  1.17790E+01  7.60906E+00  6.24890E+00  2.50972E+00
   2.73211E+00  1.83004E+00  4.66718E+00  7.20714E+00  1.11950E+01  1.51978E+01  1.92621E+01  2.31932E+01  2.61801E+01  2.95122E+01
   3.13575E+01  3.46445E+01  3.58674E+01  4.00912E+01  4.12898E+01  4.66117E+01  4.80831E+01  5.36928E+01  5.54024E+01  6.01572E+01
   6.20043E+01  6.54474E+01  6.70168E+01  6.90764E+01  7.03985E+01  7.02564E+01  7.05129E+01  6.80174E+01  6.66457E+01  6.17770E+01
   5.82071E+01  5.14698E+01  4.59611E+01  3.84399E+01  3.12130E+01  2.36693E+01  1.54555E+01  9.01159E+00  3.78881E-01 -3.57462E+00
  -1.17399E+01 -1.29104E+01 -1.89984E+01 -1.73186E+01 -1.99151E+01 -1.61387E+01 -1.62067E+01 -1.10384E+01 -9.20200E+00 -3.78332E+00
  -2.58174E-01  5.13096E+00  9.64518E+00  1.41654E+01  1.93552E+01  2.25595E+01  2.81026E+01  2.89710E+01  3.38023E+01  3.08748E+01
   3.42450E+01  2.74627E+01  2.94706E+01  1.98052E+01  2.05654E+01  9.94622E+00  9.88081E+00  1.03662E+00  1.79348E-01 -7.10804E+00
  -8.85639E+00 -1.48574E+01 -1.72948E+01 -2.15399E+01 -2.41457E+01 -2.67053E+01 -2.88924E+01 -2.99414E+01 -3.14364E+01 -3.09687E+01
  -3.18438E+01 -3.05781E+01 -3.09900E+01 -2.97067E+01 -2.97912E+01 -2.85055E+01 -2.82147E+01 -2.69512E+01 -2.62111E+01 -2.51146E+01
  -2.40955E+01 -2.31133E+01 -2.18138E+01 -2.08347E+01 -1.93990E+01 -1.84991E+01 -1.68741E+01 -1.58400E+01 -1.40178E+01 -1.29762E+01
  -1.12485E+01 -1.02435E+01 -8.78865E+00 -8.06627E+00 -7.18039E+00 -7.29455E+00 -7.17695E+00 -8.17708E+00 -8.57806E+00 -1.03837E+01
  -1.13098E+01 -1.36284E+01 -1.48935E+01 -1.68715E+01 -1.77266E+01 -1.91651E+01 -1.95125E+01 -2.03812E+01 -2.02112E+01 -2.01435E+01
  -1.95145E+01 -1.85411E+01 -1.77083E+01 -1.62071E+01 -1.52902E+01 -1.38505E+01 -1.27769E+01 -1.19039E+01 -1.10243E+01 -1.10035E+01
  -1.01513E+01 -1.10869E+01 -1.02162E+01 -1.19333E+01 -1.11943E+01 -1.35339E+01 -1.28864E+01 -1.58003E+01 -1.47264E+01 -1.74752E+01
  -1.46239E+01 -1.65516E+01 -1.06950E+01 -1.09461E+01 -2.70248E+00 -8.04536E-01  7.60296E+00  1.10954E+01  1.68218E+01  2.06885E+01
   2.25098E+01  2.49383E+01  2.42664E+01  2.42576E+01  2.20023E+01  1.97885E+01  1.58247E+01  1.13363E+01  5.75170E+00 -7.69717E-01
  -7.48870E+00 -1.54622E+01 -2.21210E+01 -3.10530E+01 -3.59128E+01 -4.49336E+01 -4.71323E+01 -5.49440E+01 -5.49347E+01 -6.05462E+01
  -5.93627E+01 -6.26198E+01 -6.13767E+01 -6.24525E+01 -6.00799E+01 -5.95763E+01 -5.69139E+01 -5.52846E+01 -5.19677E+01 -4.95202E+01
  -4.58270E+01 -4.25181E+01 -3.77145E+01 -3.31632E+01 -2.46001E+01 -1.92131E+01 -5.74907E+00 -3.74842E-01  1.66878E+01  2.15565E+01
   3.93096E+01  4.25755E+01  5.60258E+01  5.75369E+01  6.76476E+01  6.80859E+01  7.62374E+01  7.57676E+01  8.18466E+01  8.06117E+01
   8.48158E+01  8.32408E+01  8.55546E+01  8.38290E+01  8.38095E+01  8.20260E+01  8.07021E+01  7.90381E+01  7.77584E+01  7.61616E+01
   7.47994E+01  7.31680E+01  7.16143E+01  6.99183E+01  6.81387E+01  6.63471E+01  6.43423E+01  6.24370E+01  6.02932E+01  5.83207E+01
   5.62191E+01  5.43590E+01  5.25344E+01  5.10403E+01  4.97383E+01  4.87965E+01  4.81830E+01  4.78794E+01  4.79680E+01  4.82624E+01
   4.89625E+01  4.97562E+01  5.09531E+01  5.21531E+01  5.37184E+01  5.51854E+01  5.70042E+01  5.85729E+01  6.04932E+01  6.19968E+01
   6.38207E+01  6.50477E+01  6.65336E+01  6.72803E+01  6.82289E+01  6.83289E+01  6.85998E+01  6.79224E+01  6.74387E+01  6.59905E+01
   6.47424E+01  6.26028E+01  6.06441E+01  5.79433E+01  5.54204E+01  5.22920E+01  4.95352E+01  4.58847E+01  4.32985E+01  3.93666E+01
   3.74219E+01  3.36331E+01  3.28170E+01  2.93921E+01  2.99279E+01  2.65650E+01  2.83870E+01  2.41294E+01  2.66971E+01  2.09762E+01
   2.36260E+01  1.69020E+01  1.92349E+01  1.27494E+01  1.46676E+01  9.78675E+00  1.15038E+01  8.11555E+00  9.63493E+00  6.89005E+00
   7.81287E+00  5.58705E+00  5.94920E+00  4.43310E+00  4.60384E+00  4.02992E+00  4.38378E+00  4.95982E+00  5.82861E+00  7.28974E+00
   8.75688E+00  1.06371E+01  1.25379E+01  1.47377E+01  1.70155E+01  1.96219E+01  2.23434E+01  2.53989E+01  2.86162E+01  3.21537E+01
   3.58687E+01  3.98863E+01  4.40477E+01  4.84598E+01  5.29758E+01  5.76586E+01  6.24101E+01  6.72162E+01  7.20401E+01  7.67354E+01
   8.13619E+01  8.56124E+01  8.95449E+01  9.28506E+01  9.55168E+01  9.73383E+01  9.82652E+01  9.83203E+01  9.73753E+01  9.57255E+01
   9.31476E+01  9.01245E+01  8.63032E+01  8.22414E+01  7.75030E+01  7.26269E+01  6.72861E+01  6.18823E+01  5.63363E+01  5.08300E+01
   4.55490E+01  4.04098E+01  3.57635E+01  3.13261E+01  2.74872E+01  2.38579E+01  2.08365E+01  1.79480E+01  1.56554E+01  1.34096E+01
   1.17533E+01  1.00802E+01  8.97031E+00  7.81267E+00  7.12814E+00  6.39539E+00  5.98627E+00  5.56139E+00  5.32392E+00  5.09739E+00
   4.97019E+00  4.86959E+00  4.82666E+00  4.79120E+00  4.81677E+00  4.83529E+00  4.90413E+00  4.96451E+00  5.04539E+00  5.14108E+00
   5.20761E+00  5.34987E+00  5.37892E+00  5.57720E+00  5.57542E+00  5.82466E+00  5.80465E+00  6.07792E+00  6.04597E+00  6.30836E+00
   6.27164E+00  6.50018E+00  6.46454E+00  6.66365E+00  6.62538E+00  6.80556E+00  6.76359E+00  6.93391E+00  6.89043E+00  7.04352E+00
   6.98930E+00  7.11725E+00  7.05486E+00  7.15920E+00  7.08644E+00  7.16803E+00  7.06330E+00  7.10473E+00  6.96711E+00  6.94643E+00
   6.78557E+00  6.68153E+00  6.51185E+00  6.30632E+00  6.13379E+00  5.80884E+00  5.62781E+00  5.17341E+00  4.94358E+00  4.36241E+00
   4.04915E+00  3.33884E+00  2.93204E+00  2.10544E+00  1.59752E+00  6.44666E-01  3.70432E-02 -1.05905E+00 -1.76309E+00 -3.00300E+00
 NY background values follow
     8.776E+01    8.704E+01    8.633E+01    8.561E+01    8.490E+01    8.418E+01    8.347E+01    8.275E+01    8.203E+01    8.132E+01
     8.060E+01    7.989E+01    7.917E+01    7.846E+01    7.775E+01    7.704E+01    7.633E+01    7.562E+01    7.492E+01    7.422E+01
     7.352E+01    7.282E+01    7.213E+01    7.144E+01    7.076E+01    7.007E+01    6.939E+01    6.872E+01    6.805E+01    6.738E+01
     6.672E+01    6.607E+01    6.542E+01    6.477E+01    6.413E+01    6.350E+01    6.287E+01    6.224E+01    6.163E+01    6.102E+01
     6.042E+01    5.982E+01    5.923E+01    5.865E+01    5.808E+01    5.751E+01    5.695E+01    5.640E+01    5.585E+01    5.531E+01
     5.477E+01    5.425E+01    5.373E+01    5.322E+01    5.271E+01    5.221E+01    5.172E+01    5.123E+01    5.075E+01    5.028E+01
     4.982E+01    4.936E+01    4.890E+01    4.846E+01    4.802E+01    4.759E+01    4.716E+01    4.674E+01    4.633E+01    4.592E+01
     4.552E+01    4.513E+01    4.474E+01    4.436E+01    4.399E+01    4.362E+01    4.326E+01    4.291E+01    4.256E+01    4.222E+01
     4.188E+01    4.156E+01    4.123E+01    4.092E+01    4.061E+01    4.030E+01    4.000E+01    3.971E+01    3.942E+01    3.914E+01
     3.886E+01    3.859E+01    3.833E+01    3.807E+01    3.781E+01    3.756E+01    3.731E+01    3.707E+01    3.683E+01    3.660E+01
     3.637E+01    3.614E+01    3.592E+01    3.571E+01    3.549E+01    3.528E+01    3.508E+01    3.488E+01    3.468E+01    3.448E+01
     3.429E+01    3.410E+01    3.391E+01    3.373E+01    3.355E+01    3.337E+01    3.319E+01    3.302E+01    3.285E+01    3.268E+01
     3.251E+01    3.235E+01    3.219E+01    3.202E+01    3.187E+01    3.171E+01    3.155E+01    3.140E+01    3.124E+01    3.109E+01
     3.094E+01    3.079E+01    3.065E+01    3.050E+01    3.036E+01    3.021E+01    3.007E+01    2.993E+01    2.979E+01    2.965E+01
     2.951E+01    2.937E+01    2.924E+01    2.910E+01    2.896E+01    2.883E+01    2.869E+01    2.856E+01    2.843E+01    2.829E+01
     2.816E+01    2.803E+01    2.789E+01    2.776E+01    2.763E+01    2.749E+01    2.736E+01    2.723E+01    2.709E+01    2.696E+01
     2.683E+01    2.669E+01    2.656E+01    2.642E+01    2.629E+01    2.615E+01    2.601E+01    2.588E+01    2.574E+01    2.560E+01
     2.546E+01    2.533E+01    2.519E+01    2.505E+01    2.491E+01    2.477E+01    2.462E+01    2.448E+01    2.434E+01    2.420E+01
     2.405E+01    2.391E+01    2.376E+01    2.362E+01    2.347E+01    2.332E+01    2.318E+01    2.303E+01    2.288E+01    2.273E+01
     2.258E+01    2.242E+01    2.227E+01    2.212E+01    2.197E+01    2.181E+01    2.165E+01    2.150E+01    2.134E+01    2.118E+01
     2.102E+01    2.086E+01    2.070E+01    2.054E+01    2.038E+01    2.021E+01    2.005E+01    1.988E+01    1.972E+01    1.955E+01
     1.938E+01    1.922E+01    1.905E+01    1.888E+01    1.871E+01    1.854E+01    1.837E+01    1.819E+01    1.802E+01    1.785E+01
     1.767E+01    1.750E+01    1.733E+01    1.715E+01    1.698E+01    1.680E+01    1.662E+01    1.645E+01    1.627E+01    1.609E+01
     1.591E+01    1.573E+01    1.556E+01    1.538E+01    1.520E+01    1.502E+01    1.484E+01    1.466E+01    1.448E+01    1.430E+01
     1.412E+01    1.394E+01    1.376E+01    1.358E+01    1.340E+01    1.322E+01    1.304E+01    1.286E+01    1.268E+01    1.250E+01
     1.233E+01    1.215E+01    1.197E+01    1.180E+01    1.162E+01    1.145E+01    1.128E+01    1.111E+01    1.094E+01    1.077E+01
     1.061E+01    1.044E+01    1.028E+01    1.012E+01    9.962E+00    9.805E+00    9.650E+00    9.497E+00    9.347E+00    9.199E+00
     9.053E+00    8.909E+00    8.769E+00    8.631E+00    8.495E+00    8.363E+00    8.233E+00    8.107E+00    7.983E+00    7.863E+00
     7.746E+00    7.632E+00    7.522E+00    7.414E+00    7.310E+00    7.210E+00    7.113E+00    7.019E+00    6.928E+00    6.840E+00
     6.756E+00    6.676E+00    6.598E+00    6.524E+00    6.453E+00    6.385E+00    6.321E+00    6.260E+00    6.202E+00    6.148E+00
     6.096E+00    6.049E+00    6.004E+00    5.963E+00    5.925E+00    5.890E+00    5.859E+00    5.831E+00    5.806E+00    5.784E+00
     5.766E+00    5.751E+00    5.740E+00    5.731E+00    5.726E+00    5.725E+00    5.726E+00    5.731E+00    5.739E+00    5.751E+00
     5.766E+00    5.784E+00    5.805E+00    5.830E+00    5.858E+00    5.889E+00    5.924E+00    5.963E+00    6.004E+00    6.050E+00
     6.098E+00    6.150E+00    6.206E+00    6.265E+00    6.328E+00    6.394E+00    6.464E+00    6.537E+00    6.614E+00    6.695E+00
     6.779E+00    6.867E+00    6.958E+00    7.053E+00    7.152E+00    7.255E+00    7.361E+00    7.471E+00    7.585E+00    7.703E+00
     7.824E+00    7.949E+00    8.078E+00    8.211E+00    8.348E+00    8.489E+00    8.634E+00    8.782E+00    8.934E+00    9.091E+00
     9.251E+00    9.415E+00    9.584E+00    9.755E+00    9.931E+00    1.011E+01    1.029E+01    1.048E+01    1.067E+01    1.086E+01
     1.105E+01    1.125E+01    1.145E+01    1.165E+01    1.186E+01    1.207E+01    1.228E+01    1.249E+01    1.271E+01    1.293E+01
     1.314E+01    1.337E+01    1.359E+01    1.381E+01    1.404E+01    1.427E+01    1.450E+01    1.473E+01    1.496E+01    1.519E+01
     1.543E+01    1.566E+01    1.590E+01    1.613E+01    1.637E+01    1.661E+01    1.685E+01    1.709E+01    1.732E+01    1.756E+01
     1.780E+01    1.804E+01    1.828E+01    1.852E+01    1.876E+01    1.900E+01    1.924E+01    1.948E+01    1.972E+01    1.996E+01
     2.020E+01    2.044E+01    2.068E+01    2.092E+01    2.117E+01    2.141E+01    2.165E+01    2.190E+01    2.214E+01    2.239E+01
     2.264E+01    2.289E+01    2.314E+01    2.339E+01    2.364E+01    2.389E+01    2.414E+01    2.440E+01    2.465E+01    2.491E+01
     2.517E+01    2.542E+01    2.568E+01    2.595E+01    2.621E+01    2.647E+01    2.674E+01    2.701E+01    2.728E+01    2.755E+01
     2.782E+01    2.809E+01    2.837E+01    2.865E+01    2.893E+01    2.921E+01    2.949E+01    2.977E+01    3.006E+01    3.034E+01
     3.063E+01    3.092E+01    3.120E+01    3.149E+01    3.179E+01    3.208E+01    3.237E+01    3.266E+01    3.296E+01    3.326E+01
     3.355E+01    3.385E+01    3.415E+01    3.445E+01    3.474E+01    3.504E+01    3.534E+01    3.564E+01    3.595E+01    3.625E+01
     3.655E+01    3.685E+01    3.715E+01    3.745E+01    3.776E+01    3.806E+01    3.836E+01    3.866E+01    3.897E+01    3.927E+01
 Mac      Conc. = 2.76E-04
   7.05194E+01  6.88103E+01  6.75535E+01  6.57981E+01  6.44765E+01  6.26884E+01  6.13725E+01  5.96277E+01  5.84053E+01  5.67785E+01
   5.56919E+01  5.43012E+01  5.33874E+01  5.23685E+01  5.17189E+01  5.11807E+01  5.09011E+01  5.08919E+01  5.10265E+01  5.14666E+01
   5.18988E+01  5.26055E+01  5.31530E+01  5.40365E+01  5.46374E+01  5.55908E+01  5.62340E+01  5.71751E+01  5.78372E+01  5.86724E+01
   5.93026E+01  5.99666E+01  6.05205E+01  6.10127E+01  6.14662E+01  6.18225E+01  6.21745E+01  6.24421E+01  6.27254E+01  6.28864E+01
   6.30773E+01  6.30758E+01  6.31493E+01  6.29825E+01  6.29478E+01  6.26129E+01  6.24321E+01  6.19496E+01  6.15858E+01  6.10297E+01
   6.05343E+01  5.99966E+01  5.94350E+01  5.89894E+01  5.84305E+01  5.81224E+01  5.76419E+01  5.75065E+01  5.70799E+01  5.70788E+01
   5.66444E+01  5.67153E+01  5.62420E+01  5.63666E+01  5.58711E+01  5.60492E+01  5.56388E+01  5.58804E+01  5.56357E+01  5.59409E+01
   5.58468E+01  5.61682E+01  5.61500E+01  5.64173E+01  5.63589E+01  5.65285E+01  5.63903E+01  5.65198E+01  5.63230E+01  5.65060E+01
   5.62763E+01  5.65622E+01  5.62900E+01  5.66746E+01  5.63303E+01  5.67599E+01  5.63181E+01  5.66799E+01  5.61096E+01  5.63039E+01
   5.55459E+01  5.54504E+01  5.44083E+01  5.39108E+01  5.25356E+01  5.15734E+01  4.98762E+01  4.84485E+01  4.64723E+01  4.46308E+01
   4.23901E+01  4.01864E+01  3.77240E+01  3.52648E+01  3.27482E+01  3.02785E+01  2.80368E+01  2.58770E+01  2.42760E+01  2.27261E+01
