 LCModel (Version 6.3-1N) Copyright: S.W. Provencher.          Ref.: Magn. Reson. Med. 30:672-679 (1993).                
 Slice_N1@12_20  28-Feb-2025 11:38:34
 27 lines in following concentration table = NCONC+1
    Conc.  %SD /Cr+PCr  Metabolite                                         
 1.82E-04  10% 1.5E-04 Mac                                                 
    6.128  41%   5.127 Cr                                                  
    3.433  73%   2.873 PCr                                                 
    4.981  27%   4.168 Ins                                                 
   10.189  10%   8.525 NAA                                                 
    8.851  16%   7.406 Tau                                                 
    2.234  23%   1.869 PCho                                                
    0.000 999%   0.000 GPC                                                 
   11.594  14%   9.701 Glu                                                 
    3.001  41%   2.511 Gln                                                 
    0.000 999%   0.000 Ala                                                 
    1.642 120%   1.374 Asc                                                 
    1.886  72%   1.578 Asp                                                 
    0.360 206%   0.301 GABA                                                
    0.421 211%   0.352 Glc                                                 
    1.244  57%   1.041 GSH                                                 
    8.836  13%   7.393 Lac                                                 
    0.000 999%   0.000 NAAG                                                
    1.653 116%   1.383 PE                                                  
    2.234  23%   1.869 GPC+PCho                                            
   10.189  10%   8.525 NAA+NAAG                                            
   14.595  14%  12.212 Glu+Gln                                             
    9.561  11%   8.000 Cr+PCr                                              
   10.189  10%   8.525 NAA+NAAG                                            
    9.561  11%   8.000 Cr+PCr                                              
   14.595  14%  12.212 Glu+Gln                                             
   6 lines in following misc. output table
  FWHM = 0.033 ppm    S/N =   2                                            
  Data shift = 0.033 ppm                                                   
  Ph:-110 deg       0.0 deg/ppm                                            
  alphaB,S = 1.3E-01,   2.6E+01                                            
   19 spline knots.   Ns = 5(1)                                            
  ( 3) 2 infls.   ( 3) 1 extrs.                                            
  480 points on ppm-axis = NY
      4.100000     4.091866     4.083733     4.075600     4.067466     4.059333     4.051199     4.043066     4.034933     4.026799
      4.018666     4.010532     4.002399     3.994265     3.986132     3.977998     3.969864     3.961731     3.953597     3.945463
      3.937330     3.929196     3.921062     3.912929     3.904795     3.896662     3.888528     3.880394     3.872261     3.864127
      3.855993     3.847860     3.839726     3.831592     3.823459     3.815325     3.807191     3.799058     3.790924     3.782790
      3.774657     3.766523     3.758389     3.750256     3.742122     3.733989     3.725855     3.717721     3.709588     3.701454
      3.693320     3.685187     3.677053     3.668919     3.660786     3.652652     3.644518     3.636385     3.628251     3.620117
      3.611984     3.603850     3.595716     3.587583     3.579449     3.571316     3.563182     3.555048     3.546915     3.538781
      3.530647     3.522514     3.514380     3.506246     3.498113     3.489979     3.481845     3.473712     3.465578     3.457444
      3.449311     3.441177     3.433043     3.424910     3.416776     3.408643     3.400509     3.392375     3.384242     3.376108
      3.367974     3.359841     3.351707     3.343573     3.335440     3.327306     3.319172     3.311039     3.302905     3.294771
      3.286638     3.278504     3.270370     3.262237     3.254103     3.245970     3.237836     3.229702     3.221569     3.213435
      3.205301     3.197168     3.189034     3.180900     3.172767     3.164633     3.156499     3.148366     3.140232     3.132098
      3.123965     3.115831     3.107697     3.099564     3.091430     3.083297     3.075163     3.067029     3.058896     3.050762
      3.042628     3.034495     3.026361     3.018227     3.010094     3.001960     2.993826     2.985693     2.977559     2.969425
      2.961292     2.953158     2.945024     2.936891     2.928757     2.920624     2.912490     2.904356     2.896223     2.888089
      2.879955     2.871822     2.863688     2.855554     2.847421     2.839287     2.831153     2.823020     2.814886     2.806752
      2.798619     2.790485     2.782351     2.774218     2.766084     2.757951     2.749817     2.741683     2.733550     2.725416
      2.717282     2.709149     2.701015     2.692881     2.684748     2.676614     2.668480     2.660347     2.652213     2.644079
      2.635946     2.627812     2.619678     2.611545     2.603411     2.595278     2.587144     2.579010     2.570877     2.562743
      2.554609     2.546476     2.538342     2.530208     2.522075     2.513941     2.505807     2.497674     2.489540     2.481406
      2.473273     2.465139     2.457006     2.448872     2.440738     2.432605     2.424471     2.416337     2.408204     2.400070
      2.391936     2.383803     2.375669     2.367535     2.359402     2.351268     2.343134     2.335001     2.326867     2.318733
      2.310600     2.302466     2.294333     2.286199     2.278065     2.269932     2.261798     2.253664     2.245531     2.237397
      2.229263     2.221130     2.212996     2.204862     2.196729     2.188595     2.180461     2.172328     2.164194     2.156060
      2.147927     2.139793     2.131660     2.123526     2.115392     2.107259     2.099125     2.090991     2.082858     2.074724
      2.066590     2.058457     2.050323     2.042189     2.034056     2.025922     2.017788     2.009655     2.001521     1.993387
      1.985254     1.977120     1.968987     1.960853     1.952719     1.944586     1.936452     1.928318     1.920185     1.912051
      1.903917     1.895784     1.887650     1.879516     1.871383     1.863249     1.855115     1.846982     1.838848     1.830714
      1.822581     1.814447     1.806314     1.798180     1.790046     1.781913     1.773779     1.765645     1.757512     1.749378
      1.741244     1.733111     1.724977     1.716843     1.708710     1.700576     1.692442     1.684309     1.676175     1.668041
      1.659908     1.651774     1.643641     1.635507     1.627373     1.619240     1.611106     1.602972     1.594839     1.586705
      1.578571     1.570438     1.562304     1.554170     1.546037     1.537903     1.529769     1.521636     1.513502     1.505368
      1.497235     1.489101     1.480968     1.472834     1.464700     1.456567     1.448433     1.440299     1.432166     1.424032
      1.415898     1.407765     1.399631     1.391497     1.383364     1.375230     1.367096     1.358963     1.350829     1.342695
      1.334562     1.326428     1.318295     1.310161     1.302027     1.293894     1.285760     1.277626     1.269493     1.261359
      1.253225     1.245092     1.236958     1.228824     1.220691     1.212557     1.204423     1.196290     1.188156     1.180022
      1.171889     1.163755     1.155622     1.147488     1.139354     1.131221     1.123087     1.114953     1.106820     1.098686
      1.090552     1.082419     1.074285     1.066151     1.058018     1.049884     1.041750     1.033617     1.025483     1.017349
      1.009216     1.001082     0.992949     0.984815     0.976681     0.968548     0.960414     0.952280     0.944147     0.936013
      0.927879     0.919746     0.911612     0.903478     0.895345     0.887211     0.879077     0.870944     0.862810     0.854676
      0.846543     0.838409     0.830276     0.822142     0.814008     0.805875     0.797741     0.789607     0.781474     0.773340
      0.765206     0.757073     0.748939     0.740805     0.732672     0.724538     0.716404     0.708271     0.700137     0.692003
      0.683870     0.675736     0.667603     0.659469     0.651335     0.643202     0.635068     0.626934     0.618801     0.610667
      0.602533     0.594400     0.586266     0.578132     0.569999     0.561865     0.553731     0.545598     0.537464     0.529330
      0.521197     0.513063     0.504930     0.496796     0.488662     0.480529     0.472395     0.464261     0.456128     0.447994
      0.439861     0.431727     0.423593     0.415460     0.407326     0.399192     0.391059     0.382925     0.374792     0.366658
      0.358524     0.350391     0.342257     0.334124     0.325990     0.317856     0.309723     0.301589     0.293455     0.285322
      0.277188     0.269055     0.260921     0.252787     0.244654     0.236520     0.228386     0.220253     0.212119     0.203986
 NY phased data points follow
   5.34953E+01  5.76206E+01  4.41374E+01  5.29450E+01  4.44882E+01  4.09185E+01  5.23075E+01  4.36474E+01  3.78677E+01  5.33239E+01
   5.49327E+01  2.90975E+01  3.41972E+01  2.56836E+01  3.90039E+01  4.55970E+01  1.42281E+01  3.13172E+01  2.20917E+01  6.90893E+00
  -2.20523E+00 -1.17785E+01  1.43100E+01  2.56009E+01  4.14304E+01  8.41948E+01  9.84533E+01  8.74187E+01  9.36909E+01  7.83181E+01
   6.96498E+01  7.28528E+01  7.08327E+01  6.66553E+01  6.71408E+01  8.50834E+01  7.10866E+01  8.01719E+01  6.57336E+01  2.84533E+01
   3.60378E+01  1.17235E+01 -4.34727E+00  1.95005E+01  5.45310E+01  6.09478E+01  6.68003E+01  1.01635E+02  1.14852E+02  1.10214E+02
   9.82096E+01  8.90423E+01  9.40251E+01  9.78095E+01  7.35090E+01  6.31067E+01  7.33769E+01  6.85001E+01  7.19947E+01  6.58096E+01
   6.47885E+01  7.94816E+01  6.78433E+01  7.70302E+01  1.11446E+02  9.94167E+01  1.00776E+02  1.06072E+02  7.26604E+01  6.68244E+01
   4.51873E+01  3.46499E+01  6.96595E+01  7.84220E+01  9.32479E+01  1.02262E+02  9.35165E+01  9.82391E+01  9.43793E+01  9.79960E+01
   1.00499E+02  9.98086E+01  8.56614E+01  4.86629E+01  3.32992E+01  3.05136E+01  4.51535E+01  5.66224E+01  6.96988E+01  9.06173E+01
   9.45745E+01  1.10966E+02  1.06641E+02  1.03844E+02  1.16486E+02  1.08584E+02  1.15328E+02  1.28044E+02  1.24068E+02  1.24519E+02
   1.26280E+02  1.09101E+02  9.10187E+01  7.72032E+01  6.83488E+01  5.22814E+01  3.47269E+01  3.35288E+01  2.35909E+01 -3.30764E+00
  -6.61701E+01 -1.06796E+02 -7.69584E+01 -4.38313E+01 -2.44221E+01 -1.63455E+00  2.26638E+01  2.69417E+01  3.18536E+01  4.02069E+01
   4.19074E+01  6.52655E+01  5.53640E+01  5.08386E+01  7.41670E+01  6.97940E+01  7.40497E+01  7.97331E+01  9.09200E+01  1.06371E+02
   1.58069E+02  1.82367E+02  1.00927E+02  9.12513E+00 -4.82074E+01 -3.74246E+01 -2.52177E+01 -3.21620E+01 -2.50032E+01 -3.14941E+01
  -2.96411E+01 -1.94654E+01 -2.07247E+01 -3.75458E+01 -1.78994E+01 -1.77595E+01 -2.35162E+01 -4.90789E+00 -1.82281E+00 -2.32213E+00
  -1.59377E+01  8.15952E-01 -5.84198E+00 -3.05135E+00  1.72180E+01  3.22040E+00  1.64518E+01  2.21117E+01  1.20162E+01  1.56337E+01
   2.82652E+01  2.32182E+01  1.60722E+01  1.31734E+01  1.72686E+01  2.51082E+01  1.57206E+01  1.33755E+01  2.27610E+01  2.59548E+01
   2.38036E+01  3.52633E+01  4.10920E+01  5.55962E+01  5.17634E+01  4.63935E+01  5.58137E+01  6.31263E+01  6.29486E+01  2.88335E+01
   3.04733E+01  4.77218E+00 -6.58112E-01  2.27675E+01 -6.82810E+00 -9.36277E+00  3.25330E+00  9.49454E+00 -6.78381E+00 -3.18278E-01
   1.13283E+01  8.76995E+00  1.38212E+01  1.96944E+01  3.86382E+01  3.23152E+01  1.62722E+01  1.61736E+01  2.04126E+01  1.38896E+01
   2.81462E+01  2.90782E+01  3.97711E+01  6.05214E+01  4.32417E+01  3.84804E+01  3.12162E+01  1.29491E+01 -1.90300E+01 -1.75403E+01
  -1.79278E+01 -2.23103E+01 -1.14558E+01 -2.49132E+00  2.58069E+01  3.88508E+01  6.87926E+01  7.40758E+01  8.20308E+01  7.55168E+01
   4.84929E+01  4.68449E+01  3.65201E+01  4.19134E+01  3.98780E+01  4.96420E+01  3.89388E+01  4.37368E+01  6.15537E+01  4.61704E+01
   5.54897E+01  5.84031E+01  4.49674E+01  4.17724E+01  3.61878E+01  7.06275E+00  5.65272E+00 -9.55897E+00 -2.84985E+01 -2.18612E+01
  -2.75767E+01 -1.11455E+01 -4.07779E-01 -2.69965E-02 -7.77533E-01  1.86216E+01  3.13733E+01  3.03314E+01  2.45510E+01  3.33265E-01
   6.54055E+00  1.50008E+01 -1.91699E-01 -1.19397E+00  7.82753E+00 -1.11979E+01 -4.16268E+01 -3.20997E+01  8.33507E+01  1.79817E+02
   1.83218E+02  1.94137E+02  1.76146E+02  1.49352E+02  1.34607E+02  1.35177E+02  1.30963E+02  1.09497E+02  1.12964E+02  1.16890E+02
   1.16140E+02  1.04616E+02  1.01495E+02  1.20091E+02  1.10403E+02  9.88389E+01  1.14405E+02  9.85441E+01  9.19255E+01  8.31909E+01
   8.74751E+01  1.10877E+02  8.55450E+01  8.94862E+01  8.10260E+01  6.64988E+01  7.85150E+01  7.56933E+01  6.05888E+01  5.58357E+01
   6.56828E+01  4.46020E+01  3.09565E+01  2.55103E+01  2.72049E+01  1.71494E+01  1.25045E+01  1.47940E+01 -1.42720E+00 -1.05015E+01
  -1.24525E+01  7.37832E+00  1.12460E+00  1.04244E+01  1.77216E+01  1.53400E+01  2.71617E+01  1.93500E+01  3.04527E+01  2.68839E+01
   1.75518E+01  1.46069E+01  2.63838E+01  2.72159E+01  2.54550E+01  5.06881E+01  5.63664E+01  6.33245E+01  7.58591E+01  7.82103E+01
   8.91834E+01  1.17772E+02  1.18935E+02  1.32400E+02  1.42907E+02  1.49277E+02  1.90424E+02  1.84151E+02  1.85553E+02  1.93620E+02
   1.75985E+02  1.55135E+02  1.33042E+02  1.35963E+02  1.35556E+02  1.30358E+02  1.15031E+02  8.87602E+01  1.01807E+02  1.15701E+02
   8.63527E+01  8.37588E+01  8.97506E+01  6.49772E+01  4.24880E+01  4.21645E+01  4.29106E+01  4.00379E+01  4.94214E+01  2.74276E+01
   2.76046E+01  3.40043E+01  1.63306E+01  2.49127E+01  3.81654E+01  4.83110E+01  2.46341E+01  1.23076E+01  1.02789E+01 -1.95044E+00
   1.70554E+01  2.37474E+01  2.56454E+01  4.06897E+01  4.51101E+01  4.11116E+01  5.57691E+01  4.98931E+01  4.20594E+01  6.72513E+01
   5.64329E+01  6.54726E+01  8.61462E+01  8.05611E+01  8.22650E+01  7.56255E+01  8.33340E+01  8.45314E+01  7.60560E+01  7.37058E+01
   9.24629E+01  1.05931E+02  8.94672E+01  9.09258E+01  9.97516E+01  1.21444E+02  1.20619E+02  1.10127E+02  1.18181E+02  1.16533E+02
   1.22785E+02  1.15231E+02  9.76912E+01  8.02061E+01  7.61383E+01  6.74514E+01  6.70962E+01  7.37256E+01  6.03901E+01  5.68715E+01
   3.00702E+01  2.82945E+01  3.23555E+01  1.46071E+01  2.56370E+01  1.86619E+01  3.26726E+00  1.76116E+00  7.58142E-01 -1.52280E+00
   9.13278E+00  9.60380E+00  1.28620E+00  5.27033E+00  9.09742E+00  6.65710E+00 -9.04115E+00  8.21413E+00  7.26160E+00 -8.94076E+00
   1.47906E+01  2.60051E+00 -2.37373E+00  3.80330E+00 -1.36084E+01 -8.24681E+00  3.79748E-01  8.05342E+00  8.02094E+00 -6.42243E+00
  -3.40679E+00  8.51617E+00 -5.42795E-01  2.51093E+00  1.61408E+01  4.95374E+00 -2.22291E+00 -1.84990E+00  9.94327E+00  1.56988E+01
   1.21263E+01  5.94723E-01 -2.52910E+00  1.17168E+01 -4.56101E+00  1.03197E+01  1.06313E+01 -6.09880E+00  1.78154E+01  5.44224E+00
   5.71964E+00  1.37472E+01  3.67900E+00  1.49119E+01  9.40589E+00 -5.69763E+00  8.99873E+00  1.33073E+01  7.70882E+00  1.20122E+01
   1.61041E+01  1.58626E+01 -7.09617E+00  5.02457E+00  6.14092E+00 -8.58294E+00  1.14880E+01  8.53077E+00  1.97559E+01  2.20694E+01
   4.29005E+00  6.29336E+00  1.35009E+01  1.17997E+01 -9.59505E-01  6.99555E+00  1.04613E+01 -4.98265E+00  3.51072E+00  8.00424E+00
 NY points of the fit to the data follow
   3.37050E+01  3.93536E+01  4.39120E+01  4.58169E+01  4.61675E+01  4.81592E+01  5.28073E+01  5.71804E+01  5.74875E+01  5.30658E+01
   4.66593E+01  4.09236E+01  3.68177E+01  3.41973E+01  3.23699E+01  3.01244E+01  2.77257E+01  2.39038E+01  1.84216E+01  1.07436E+01
   1.68716E+00 -3.17647E+00  4.20304E+00  2.67585E+01  5.75159E+01  8.31984E+01  9.52385E+01  9.65214E+01  9.42609E+01  9.29021E+01
   9.20312E+01  9.05155E+01  8.82951E+01  8.55027E+01  8.20699E+01  7.74104E+01  7.18528E+01  6.54613E+01  5.68839E+01  4.46061E+01
   3.03290E+01  1.94595E+01  1.73956E+01  2.54217E+01  4.04378E+01  5.80368E+01  7.42072E+01  8.62037E+01  9.29525E+01  9.53332E+01
   9.50622E+01  9.31348E+01  9.00336E+01  8.51308E+01  7.72876E+01  6.86693E+01  6.23496E+01  5.91837E+01  5.86888E+01  5.98100E+01
   6.24251E+01  6.66824E+01  7.16633E+01  7.71537E+01  8.32160E+01  8.89527E+01  9.26787E+01  9.14247E+01  8.38585E+01  7.27934E+01
   6.39492E+01  6.18508E+01  6.57257E+01  7.21851E+01  7.99595E+01  8.85864E+01  9.62831E+01  1.01268E+02  1.02254E+02  9.99950E+01
   9.27062E+01  7.93630E+01  6.11054E+01  4.24510E+01  2.97410E+01  2.77638E+01  3.62762E+01  5.08270E+01  6.57677E+01  7.71780E+01
   8.50741E+01  9.07076E+01  9.57113E+01  1.00439E+02  1.04838E+02  1.09269E+02  1.14132E+02  1.18153E+02  1.21049E+02  1.23544E+02
   1.25059E+02  1.24178E+02  1.17235E+02  1.03004E+02  8.08283E+01  5.90323E+01  4.70298E+01  4.17442E+01  2.61446E+01 -1.02021E+01
  -5.33336E+01 -7.59457E+01 -6.77121E+01 -4.36223E+01 -2.09504E+01 -5.93914E+00  4.72470E+00  1.35011E+01  2.12192E+01  2.82994E+01
   3.50380E+01  4.17744E+01  4.88890E+01  5.67661E+01  6.58163E+01  7.70060E+01  9.15021E+01  1.02735E+02  1.13531E+02  1.31403E+02
   1.50977E+02  1.48265E+02  1.03980E+02  3.24550E+01 -2.56508E+01 -4.64985E+01 -4.10272E+01 -2.97673E+01 -2.29102E+01 -1.86698E+01
  -1.58773E+01 -1.42329E+01 -1.33292E+01 -1.27036E+01 -1.20862E+01 -1.12672E+01 -1.00311E+01 -8.24922E+00 -6.06745E+00 -3.78176E+00
  -1.60378E+00  3.71305E-01  2.15350E+00  3.86023E+00  5.74753E+00  7.83958E+00  9.77031E+00  1.09755E+01  1.14450E+01  1.19632E+01
   1.31898E+01  1.47384E+01  1.54557E+01  1.46777E+01  1.30859E+01  1.19989E+01  1.22184E+01  1.34099E+01  1.46901E+01  1.63312E+01
   2.04368E+01  2.81808E+01  3.66386E+01  4.08675E+01  3.97569E+01  3.84015E+01  4.12507E+01  4.57814E+01  4.54503E+01  3.78244E+01
   2.69349E+01  1.81184E+01  1.29812E+01  1.01580E+01  8.36692E+00  7.17838E+00  6.69019E+00  6.62966E+00  6.79340E+00  7.64828E+00
   8.48498E+00  8.98581E+00  1.07512E+01  1.48589E+01  2.06989E+01  2.54677E+01  2.76878E+01  2.94740E+01  3.21728E+01  3.42345E+01
   3.44221E+01  3.41485E+01  3.52574E+01  3.68033E+01  3.58181E+01  3.14575E+01  2.49665E+01  1.78898E+01  1.13733E+01  5.13120E+00
   5.39521E-01 -1.07462E+00  7.83655E-01  8.79296E+00  2.39802E+01  4.49330E+01  6.73563E+01  8.51060E+01  9.38148E+01  9.31123E+01
   8.51379E+01  7.46774E+01  6.63472E+01  6.15929E+01  5.93438E+01  5.72245E+01  5.42823E+01  5.01483E+01  4.47546E+01  3.83466E+01
   3.12700E+01  2.38088E+01  1.61994E+01  8.35888E+00  5.21974E-01 -7.38317E+00 -1.48251E+01 -2.07014E+01 -2.42599E+01 -2.45949E+01
  -2.20528E+01 -1.71222E+01 -1.03889E+01 -2.79369E+00  4.53560E+00  1.09256E+01  1.50196E+01  1.67233E+01  1.58901E+01  1.33404E+01
   9.63453E+00  3.30501E+00  8.84989E-01 -1.55821E+00 -1.56173E+01 -4.00650E+01 -4.93617E+01 -1.59028E+01  5.43345E+01  1.19804E+02
   1.48842E+02  1.46716E+02  1.34412E+02  1.25301E+02  1.19090E+02  1.14416E+02  1.10614E+02  1.07312E+02  1.04387E+02  1.01907E+02
   9.99631E+01  9.85202E+01  9.74597E+01  9.65971E+01  9.57516E+01  9.47528E+01  9.35513E+01  9.21985E+01  9.08352E+01  8.94768E+01
   8.80283E+01  8.64649E+01  8.48656E+01  8.33305E+01  8.18447E+01  8.03134E+01  7.87025E+01  7.70500E+01  7.53093E+01  7.33976E+01
   7.12889E+01  6.90502E+01  6.67926E+01  6.46295E+01  6.27606E+01  6.14918E+01  6.10999E+01  6.16175E+01  6.28276E+01  6.44265E+01
   6.62160E+01  6.81318E+01  7.01590E+01  7.22470E+01  7.42990E+01  7.62275E+01  7.80480E+01  7.98606E+01  8.17887E+01  8.38497E+01
   8.58859E+01  8.77260E+01  8.93734E+01  9.08905E+01  9.22880E+01  9.34915E+01  9.44108E+01  9.49537E+01  9.50845E+01  9.48201E+01
   9.42420E+01  9.34073E+01  9.22572E+01  9.07649E+01  8.90101E+01  8.69998E+01  8.45072E+01  8.12866E+01  7.74278E+01  7.34452E+01
   7.00008E+01  6.76306E+01  6.66908E+01  6.75616E+01  7.06691E+01  7.62872E+01  8.29529E+01  8.98907E+01  9.83943E+01  1.05645E+02
   1.06587E+02  9.43811E+01  6.70994E+01  3.20135E+01  1.89394E+00 -1.30214E+01 -1.02505E+01  3.09504E+00  1.69835E+01  2.65333E+01
   3.17319E+01  3.48242E+01  3.63604E+01  3.66730E+01  3.61515E+01  3.53147E+01  3.47419E+01  3.48162E+01  3.56168E+01  3.70563E+01
   3.90027E+01  4.13167E+01  4.38610E+01  4.64840E+01  4.90780E+01  5.15589E+01  5.38599E+01  5.59912E+01  5.80065E+01  5.99752E+01
   6.19589E+01  6.39723E+01  6.59827E+01  6.80358E+01  7.02657E+01  7.27726E+01  7.55781E+01  7.86754E+01  8.20987E+01  8.58505E+01
   8.98570E+01  9.40039E+01  9.82467E+01  1.02488E+02  1.06410E+02  1.09531E+02  1.11312E+02  1.11195E+02  1.08693E+02  1.03826E+02
   9.72868E+01  9.01743E+01  8.33962E+01  7.74088E+01  7.21930E+01  6.73851E+01  6.25151E+01  5.72023E+01  5.14015E+01  4.53771E+01
   3.95687E+01  3.44010E+01  3.01386E+01  2.67752E+01  2.41552E+01  2.21353E+01  2.06134E+01  1.94414E+01  1.84241E+01  1.74283E+01
   1.64656E+01  1.56363E+01  1.50054E+01  1.45130E+01  1.40795E+01  1.37124E+01  1.34011E+01  1.30637E+01  1.26410E+01  1.22302E+01
   1.19604E+01  1.17946E+01  1.15669E+01  1.12471E+01  1.09520E+01  1.07092E+01  1.04482E+01  1.01425E+01  9.88778E+00  9.75105E+00
   9.66120E+00  9.49861E+00  9.21071E+00  8.86894E+00  8.55318E+00  8.32067E+00  8.16982E+00  8.08357E+00  8.02027E+00  7.93666E+00
   7.81402E+00  7.66645E+00  7.51067E+00  7.30435E+00  7.01468E+00  6.69049E+00  6.42741E+00  6.27012E+00  6.19365E+00  6.12396E+00
   6.00141E+00  5.82289E+00  5.62634E+00  5.48897E+00  5.43781E+00  5.42582E+00  5.39415E+00  5.32732E+00  5.23373E+00  5.14082E+00
   5.05373E+00  4.94072E+00  4.78776E+00  4.60340E+00  4.43910E+00  4.32859E+00  4.30692E+00  4.38197E+00  4.53362E+00  4.66758E+00
   4.66515E+00  4.50029E+00  4.28845E+00  4.15116E+00  4.11156E+00  4.13854E+00  4.20088E+00  4.28519E+00  4.39277E+00  4.50358E+00
 NY background values follow
     5.818E+01    5.821E+01    5.823E+01    5.826E+01    5.828E+01    5.831E+01    5.834E+01    5.836E+01    5.839E+01    5.842E+01
     5.845E+01    5.848E+01    5.850E+01    5.853E+01    5.856E+01    5.859E+01    5.863E+01    5.866E+01    5.869E+01    5.872E+01
     5.875E+01    5.879E+01    5.882E+01    5.885E+01    5.889E+01    5.892E+01    5.896E+01    5.899E+01    5.903E+01    5.906E+01
     5.910E+01    5.914E+01    5.918E+01    5.921E+01    5.925E+01    5.929E+01    5.933E+01    5.936E+01    5.940E+01    5.943E+01
     5.946E+01    5.949E+01    5.952E+01    5.955E+01    5.958E+01    5.960E+01    5.962E+01    5.964E+01    5.965E+01    5.966E+01
     5.967E+01    5.968E+01    5.968E+01    5.968E+01    5.967E+01    5.966E+01    5.964E+01    5.962E+01    5.960E+01    5.957E+01
     5.953E+01    5.949E+01    5.945E+01    5.939E+01    5.934E+01    5.928E+01    5.921E+01    5.914E+01    5.906E+01    5.898E+01
     5.889E+01    5.880E+01    5.870E+01    5.860E+01    5.849E+01    5.838E+01    5.826E+01    5.814E+01    5.802E+01    5.789E+01
     5.775E+01    5.762E+01    5.747E+01    5.733E+01    5.717E+01    5.702E+01    5.686E+01    5.670E+01    5.653E+01    5.636E+01
     5.618E+01    5.600E+01    5.582E+01    5.563E+01    5.544E+01    5.525E+01    5.506E+01    5.486E+01    5.466E+01    5.446E+01
     5.425E+01    5.405E+01    5.384E+01    5.363E+01    5.342E+01    5.321E+01    5.300E+01    5.279E+01    5.257E+01    5.236E+01
     5.215E+01    5.194E+01    5.172E+01    5.151E+01    5.130E+01    5.109E+01    5.089E+01    5.068E+01    5.048E+01    5.027E+01
     5.007E+01    4.987E+01    4.968E+01    4.948E+01    4.929E+01    4.910E+01    4.892E+01    4.873E+01    4.855E+01    4.837E+01
     4.819E+01    4.801E+01    4.784E+01    4.767E+01    4.750E+01    4.733E+01    4.716E+01    4.700E+01    4.684E+01    4.668E+01
     4.652E+01    4.637E+01    4.622E+01    4.607E+01    4.592E+01    4.577E+01    4.563E+01    4.549E+01    4.535E+01    4.521E+01
     4.507E+01    4.494E+01    4.481E+01    4.468E+01    4.455E+01    4.442E+01    4.430E+01    4.418E+01    4.405E+01    4.393E+01
     4.382E+01    4.370E+01    4.359E+01    4.347E+01    4.336E+01    4.325E+01    4.314E+01    4.303E+01    4.292E+01    4.282E+01
     4.271E+01    4.261E+01    4.250E+01    4.240E+01    4.230E+01    4.220E+01    4.210E+01    4.200E+01    4.190E+01    4.180E+01
     4.171E+01    4.161E+01    4.151E+01    4.142E+01    4.132E+01    4.123E+01    4.114E+01    4.105E+01    4.096E+01    4.087E+01
     4.078E+01    4.070E+01    4.062E+01    4.054E+01    4.046E+01    4.038E+01    4.031E+01    4.024E+01    4.017E+01    4.011E+01
     4.005E+01    3.999E+01    3.993E+01    3.988E+01    3.983E+01    3.979E+01    3.975E+01    3.971E+01    3.968E+01    3.965E+01
     3.962E+01    3.960E+01    3.959E+01    3.958E+01    3.957E+01    3.956E+01    3.956E+01    3.956E+01    3.956E+01    3.956E+01
     3.956E+01    3.956E+01    3.957E+01    3.957E+01    3.958E+01    3.958E+01    3.958E+01    3.959E+01    3.959E+01    3.958E+01
     3.958E+01    3.957E+01    3.956E+01    3.955E+01    3.954E+01    3.952E+01    3.949E+01    3.946E+01    3.943E+01    3.939E+01
     3.934E+01    3.929E+01    3.923E+01    3.917E+01    3.910E+01    3.903E+01    3.895E+01    3.887E+01    3.878E+01    3.869E+01
     3.859E+01    3.849E+01    3.838E+01    3.827E+01    3.815E+01    3.803E+01    3.791E+01    3.778E+01    3.765E+01    3.751E+01
     3.737E+01    3.723E+01    3.708E+01    3.693E+01    3.678E+01    3.663E+01    3.647E+01    3.631E+01    3.614E+01    3.598E+01
     3.581E+01    3.564E+01    3.547E+01    3.530E+01    3.513E+01    3.496E+01    3.479E+01    3.463E+01    3.448E+01    3.433E+01
     3.418E+01    3.405E+01    3.392E+01    3.380E+01    3.369E+01    3.360E+01    3.352E+01    3.345E+01    3.339E+01    3.335E+01
     3.333E+01    3.332E+01    3.334E+01    3.337E+01    3.342E+01    3.349E+01    3.359E+01    3.370E+01    3.385E+01    3.401E+01
     3.421E+01    3.442E+01    3.467E+01    3.493E+01    3.521E+01    3.552E+01    3.584E+01    3.618E+01    3.653E+01    3.690E+01
     3.728E+01    3.767E+01    3.807E+01    3.847E+01    3.888E+01    3.930E+01    3.972E+01    4.014E+01    4.056E+01    4.098E+01
     4.139E+01    4.180E+01    4.221E+01    4.261E+01    4.299E+01    4.337E+01    4.374E+01    4.409E+01    4.443E+01    4.475E+01
     4.506E+01    4.534E+01    4.561E+01    4.586E+01    4.609E+01    4.630E+01    4.650E+01    4.668E+01    4.684E+01    4.698E+01
     4.711E+01    4.722E+01    4.732E+01    4.739E+01    4.746E+01    4.750E+01    4.753E+01    4.754E+01    4.754E+01    4.752E+01
     4.749E+01    4.744E+01    4.737E+01    4.729E+01    4.720E+01    4.709E+01    4.697E+01    4.683E+01    4.667E+01    4.651E+01
     4.633E+01    4.613E+01    4.592E+01    4.570E+01    4.547E+01    4.522E+01    4.496E+01    4.469E+01    4.440E+01    4.411E+01
     4.380E+01    4.349E+01    4.316E+01    4.282E+01    4.247E+01    4.212E+01    4.175E+01    4.137E+01    4.099E+01    4.059E+01
     4.019E+01    3.978E+01    3.936E+01    3.894E+01    3.850E+01    3.806E+01    3.762E+01    3.716E+01    3.671E+01    3.624E+01
     3.577E+01    3.530E+01    3.482E+01    3.433E+01    3.384E+01    3.335E+01    3.286E+01    3.236E+01    3.186E+01    3.136E+01
     3.085E+01    3.035E+01    2.984E+01    2.933E+01    2.882E+01    2.832E+01    2.781E+01    2.731E+01    2.680E+01    2.630E+01
     2.580E+01    2.530E+01    2.480E+01    2.431E+01    2.382E+01    2.334E+01    2.286E+01    2.238E+01    2.191E+01    2.144E+01
     2.098E+01    2.053E+01    2.008E+01    1.964E+01    1.920E+01    1.877E+01    1.834E+01    1.792E+01    1.750E+01    1.709E+01
     1.668E+01    1.628E+01    1.588E+01    1.548E+01    1.509E+01    1.471E+01    1.432E+01    1.395E+01    1.357E+01    1.320E+01
     1.284E+01    1.247E+01    1.211E+01    1.176E+01    1.140E+01    1.105E+01    1.070E+01    1.036E+01    1.002E+01    9.678E+00
     9.341E+00    9.007E+00    8.674E+00    8.344E+00    8.016E+00    7.690E+00    7.366E+00    7.043E+00    6.722E+00    6.402E+00
     6.084E+00    5.768E+00    5.452E+00    5.138E+00    4.824E+00    4.511E+00    4.199E+00    3.888E+00    3.577E+00    3.267E+00
     2.957E+00    2.647E+00    2.338E+00    2.028E+00    1.718E+00    1.408E+00    1.098E+00    7.873E-01    4.761E-01    1.640E-01
 Mac      Conc. = 1.82E-04
   4.52992E+01  4.49145E+01  4.46202E+01  4.44157E+01  4.41795E+01  4.37607E+01  4.30943E+01  4.21952E+01  4.11981E+01  4.02732E+01
   3.95571E+01  3.91060E+01  3.88928E+01  3.88595E+01  3.87556E+01  3.82842E+01  3.76386E+01  3.75829E+01  3.87551E+01  4.10624E+01
   4.37745E+01  4.63026E+01  4.84487E+01  5.01449E+01  5.13463E+01  5.21939E+01  5.29952E+01  5.39722E+01  5.51348E+01  5.63368E+01
   5.74221E+01  5.82926E+01  5.89635E+01  5.94525E+01  5.97146E+01  5.97453E+01  5.97909E+01  6.02765E+01  6.13630E+01  6.27076E+01
   6.37221E+01  6.41130E+01  6.41504E+01  6.43219E+01  6.48574E+01  6.55503E+01  6.60452E+01  6.61364E+01  6.58217E+01  6.52042E+01
   6.44074E+01  6.35838E+01  6.29041E+01  6.24581E+01  6.21562E+01  6.19569E+01  6.19756E+01  6.23360E+01  6.29866E+01  6.37530E+01
   6.44773E+01  6.51346E+01  6.56443E+01  6.58264E+01  6.55619E+01  6.49930E+01  6.44164E+01  6.40144E+01  6.37516E+01  6.36057E+01
   6.37757E+01  6.44770E+01  6.56438E+01  6.68540E+01  6.77185E+01  6.81174E+01  6.81108E+01  6.77771E+01  6.72352E+01  6.66526E+01
   6.61220E+01  6.56881E+01  6.53539E+01  6.52100E+01  6.53002E+01  6.55868E+01  6.59528E+01  6.63005E+01  6.65676E+01  6.67486E+01
   6.68301E+01  6.68104E+01  6.66955E+01  6.64250E+01  6.59222E+01  6.50932E+01  6.38763E+01  6.22830E+01  6.04771E+01  5.86875E+01
   5.70443E+01  5.54541E+01  5.36677E+01  5.15364E+01  4.90167E+01  4.59896E+01  4.23981E+01  3.85372E+01  3.51418E+01  3.29452E+01
