 
 $NMID
 ID=''
 FMTDAT='(2E13.5)'
 TRAMP=   1.00000E+0
 VOLUME=   1.00000E+0
 $END
   6.03297E+5  -1.37373E+5
   1.59247E+6   2.85737E+5
   1.54460E+6   1.84624E+5
   1.43477E+6   2.98924E+5
   1.47898E+6   3.44742E+5
   1.43122E+6   3.03696E+5
   1.37065E+6   3.49923E+5
   1.38061E+6   3.86955E+5
   1.33133E+6   3.89153E+5
   1.27873E+6   4.44881E+5
   1.27091E+6   4.75192E+5
   1.22363E+6   4.83147E+5
   1.18193E+6   5.27795E+5
   1.16624E+6   5.58085E+5
   1.11603E+6   5.77874E+5
   1.07445E+6   6.18343E+5
   1.05758E+6   6.41638E+5
   1.01630E+6   6.55661E+5
   9.80228E+5   6.83828E+5
   9.58848E+5   6.94424E+5
   9.15250E+5   7.06047E+5
   8.77802E+5   7.30140E+5
   8.48727E+5   7.42193E+5
   8.03671E+5   7.52646E+5
   7.62020E+5   7.69200E+5
   7.29791E+5   7.72988E+5
   6.84409E+5   7.82740E+5
   6.41533E+5   7.97238E+5
   6.02752E+5   7.99029E+5
   5.64303E+5   7.99106E+5
   5.31420E+5   8.05199E+5
   5.00854E+5   8.01864E+5
   4.66024E+5   7.99478E+5
   4.37728E+5   7.99875E+5
   4.12040E+5   7.93814E+5
   3.85974E+5   7.89793E+5
   3.62211E+5   7.89324E+5
   3.34937E+5   7.85133E+5
   3.04448E+5   7.80014E+5
   2.77269E+5   7.76646E+5
   2.48536E+5   7.69806E+5
   2.18631E+5   7.62141E+5
   1.92495E+5   7.53884E+5
   1.66176E+5   7.44687E+5
   1.37734E+5   7.34610E+5
   1.13215E+5   7.24836E+5
   9.02551E+4   7.13340E+5
   6.74271E+4   7.01749E+5
   4.69758E+4   6.88675E+5
   2.85431E+4   6.75977E+5
   1.10330E+4   6.65245E+5
  -5.91284E+3   6.54091E+5
  -2.32163E+4   6.42479E+5
  -3.93593E+4   6.31558E+5
  -5.57221E+4   6.19966E+5
  -7.24342E+4   6.07505E+5
  -8.92861E+4   5.94587E+5
  -1.04589E+5   5.81041E+5
  -1.18282E+5   5.67817E+5
  -1.32264E+5   5.55360E+5
  -1.46599E+5   5.41792E+5
  -1.59549E+5   5.28186E+5
  -1.71048E+5   5.14828E+5
  -1.81875E+5   5.01560E+5
  -1.92582E+5   4.87439E+5
  -2.01188E+5   4.73416E+5
  -2.08955E+5   4.60641E+5
  -2.17085E+5   4.48690E+5
  -2.25203E+5   4.36307E+5
  -2.33032E+5   4.23647E+5
  -2.39851E+5   4.11108E+5
  -2.46212E+5   3.98948E+5
  -2.52292E+5   3.86738E+5
  -2.58104E+5   3.74671E+5
  -2.63592E+5   3.62559E+5
  -2.68471E+5   3.50724E+5
  -2.72931E+5   3.38971E+5
  -2.77155E+5   3.27655E+5
  -2.80878E+5   3.16186E+5
  -2.83965E+5   3.05033E+5
  -2.86759E+5   2.93948E+5
  -2.88789E+5   2.82953E+5
  -2.90659E+5   2.72307E+5
  -2.92633E+5   2.62248E+5
  -2.94035E+5   2.51472E+5
  -2.94721E+5   2.40912E+5
  -2.95340E+5   2.31744E+5
  -2.96312E+5   2.22153E+5
  -2.96446E+5   2.12019E+5
  -2.95505E+5   2.03300E+5
  -2.95079E+5   1.94804E+5
  -2.94943E+5   1.86267E+5
  -2.94412E+5   1.77926E+5
  -2.93031E+5   1.70011E+5
  -2.91391E+5   1.62871E+5
  -2.89793E+5   1.55302E+5
  -2.88675E+5   1.48330E+5
  -2.86831E+5   1.41428E+5
  -2.85019E+5   1.34625E+5
  -2.82335E+5   1.28060E+5
  -2.80386E+5   1.21854E+5
  -2.77901E+5   1.15207E+5
  -2.75133E+5   1.08728E+5
  -2.71950E+5   1.02695E+5
  -2.68715E+5   9.72325E+4
  -2.65871E+5   9.18911E+4
  -2.62869E+5   8.64123E+4
  -2.59541E+5   8.10633E+4
  -2.56053E+5   7.59989E+4
  -2.52468E+5   7.18302E+4
  -2.49322E+5   6.76927E+4
  -2.46614E+5   6.32217E+4
  -2.43559E+5   5.88734E+4
  -2.39841E+5   5.44715E+4
  -2.36380E+5   5.04623E+4
  -2.33496E+5   4.65887E+4
  -2.30027E+5   4.28322E+4
  -2.25720E+5   3.89253E+4
  -2.21942E+5   3.55393E+4
  -2.18652E+5   3.26586E+4
  -2.15237E+5   2.95770E+4
  -2.11716E+5   2.68388E+4
  -2.08214E+5   2.40729E+4
  -2.04759E+5   2.11608E+4
  -2.01323E+5   1.84828E+4
  -1.97505E+5   1.55225E+4
  -1.93746E+5   1.29838E+4
  -1.90080E+5   1.05334E+4
  -1.86503E+5   8.29576E+3
  -1.82804E+5   5.52631E+3
  -1.79183E+5   3.35262E+3
  -1.75225E+5   5.04882E+2
  -1.71518E+5  -1.51959E+3
  -1.68036E+5  -3.32466E+3
  -1.64296E+5  -5.46436E+3
  -1.60936E+5  -7.12606E+3
  -1.57614E+5  -8.93800E+3
  -1.54423E+5  -1.05634E+4
  -1.51339E+5  -1.20166E+4
  -1.48289E+5  -1.35597E+4
  -1.45193E+5  -1.49308E+4
  -1.41643E+5  -1.64499E+4
  -1.38609E+5  -1.74669E+4
  -1.35655E+5  -1.88745E+4
  -1.32775E+5  -2.03054E+4
  -1.29458E+5  -2.11943E+4
  -1.26590E+5  -2.21189E+4
  -1.23821E+5  -2.29187E+4
  -1.20913E+5  -2.40800E+4
  -1.18201E+5  -2.47110E+4
  -1.15240E+5  -2.52598E+4
  -1.12847E+5  -2.58211E+4
  -1.10274E+5  -2.61843E+4
  -1.07967E+5  -2.68973E+4
  -1.05488E+5  -2.70831E+4
  -1.03599E+5  -2.75005E+4
  -1.01336E+5  -2.78881E+4
  -9.93783E+4  -2.81463E+4
  -9.72462E+4  -2.82485E+4
  -9.48698E+4  -2.83546E+4
  -9.34645E+4  -2.88348E+4
  -9.14995E+4  -2.91573E+4
  -8.96870E+4  -2.90046E+4
  -8.77567E+4  -2.91625E+4
  -8.60886E+4  -2.91244E+4
  -8.43930E+4  -2.91245E+4
  -8.27545E+4  -2.89464E+4
  -8.13436E+4  -2.87746E+4
  -8.00589E+4  -2.88293E+4
  -7.83092E+4  -2.86323E+4
  -7.70505E+4  -2.84827E+4
  -7.58537E+4  -2.82114E+4
  -7.45307E+4  -2.80904E+4
  -7.34550E+4  -2.79232E+4
  -7.22962E+4  -2.74941E+4
  -7.13994E+4  -2.75240E+4
  -7.00670E+4  -2.76167E+4
  -6.89069E+4  -2.72269E+4
  -6.77926E+4  -2.68687E+4
  -6.67894E+4  -2.67016E+4
  -6.58752E+4  -2.67082E+4
  -6.49473E+4  -2.65059E+4
  -6.37872E+4  -2.60463E+4
  -6.30739E+4  -2.61765E+4
  -6.18367E+4  -2.58787E+4
  -6.12416E+4  -2.55454E+4
  -6.02909E+4  -2.53591E+4
  -5.92974E+4  -2.52164E+4
  -5.85736E+4  -2.48505E+4
  -5.80890E+4  -2.47383E+4
  -5.72369E+4  -2.46847E+4
  -5.66510E+4  -2.47080E+4
  -5.58671E+4  -2.48827E+4
  -5.50363E+4  -2.48534E+4
  -5.41933E+4  -2.46394E+4
  -5.33579E+4  -2.45890E+4
  -5.26329E+4  -2.47012E+4
  -5.19863E+4  -2.47305E+4
  -5.12133E+4  -2.47534E+4
  -5.09361E+4  -2.48801E+4
  -4.99190E+4  -2.49961E+4
  -4.92100E+4  -2.50767E+4
  -4.83869E+4  -2.49708E+4
  -4.77506E+4  -2.53817E+4
  -4.72168E+4  -2.53866E+4
  -4.63721E+4  -2.54415E+4
  -4.60584E+4  -2.56371E+4
  -4.53779E+4  -2.60818E+4
  -4.44917E+4  -2.60424E+4
  -4.39414E+4  -2.65374E+4
  -4.32162E+4  -2.70030E+4
  -4.23789E+4  -2.67900E+4
  -4.16734E+4  -2.71300E+4
  -4.10639E+4  -2.73367E+4
  -4.05892E+4  -2.76848E+4
  -3.98884E+4  -2.79249E+4
  -3.88869E+4  -2.80933E+4
  -3.82988E+4  -2.83754E+4
  -3.75726E+4  -2.84451E+4
  -3.69258E+4  -2.88361E+4
  -3.59299E+4  -2.89108E+4
  -3.55555E+4  -2.89772E+4
  -3.47708E+4  -2.94295E+4
  -3.42755E+4  -2.98556E+4
  -3.33011E+4  -2.98622E+4
  -3.25826E+4  -3.03529E+4
  -3.17094E+4  -3.02899E+4
  -3.11195E+4  -3.05391E+4
  -3.05846E+4  -3.08244E+4
  -2.97177E+4  -3.10818E+4
  -2.87497E+4  -3.10763E+4
  -2.81938E+4  -3.11838E+4
  -2.76262E+4  -3.14762E+4
  -2.66974E+4  -3.16937E+4
  -2.63503E+4  -3.20084E+4
  -2.52004E+4  -3.21100E+4
  -2.48646E+4  -3.20544E+4
  -2.41891E+4  -3.22940E+4
  -2.32240E+4  -3.22875E+4
  -2.24910E+4  -3.24416E+4
  -2.19230E+4  -3.25366E+4
  -2.13608E+4  -3.24087E+4
  -2.09061E+4  -3.26101E+4
  -1.99812E+4  -3.31144E+4
  -1.94760E+4  -3.28994E+4
  -1.88933E+4  -3.28643E+4
  -1.81071E+4  -3.29982E+4
  -1.75631E+4  -3.29271E+4
  -1.68784E+4  -3.30552E+4
  -1.64257E+4  -3.29782E+4
  -1.58837E+4  -3.30245E+4
  -1.52920E+4  -3.30676E+4
  -1.45999E+4  -3.28326E+4
  -1.42082E+4  -3.27350E+4
  -1.31735E+4  -3.31914E+4
  -1.28217E+4  -3.27034E+4
  -1.19826E+4  -3.26365E+4
  -1.14151E+4  -3.27075E+4
  -1.10471E+4  -3.24410E+4
  -1.03907E+4  -3.24778E+4
  -9.69120E+3  -3.21761E+4
  -9.20757E+3  -3.23546E+4
  -8.41830E+3  -3.19878E+4
  -7.78194E+3  -3.17251E+4
  -7.20600E+3  -3.14191E+4
  -6.65226E+3  -3.15934E+4
  -6.16250E+3  -3.15292E+4
  -5.48637E+3  -3.11369E+4
  -4.94772E+3  -3.07922E+4
  -4.20604E+3  -3.06227E+4
  -3.74662E+3  -3.05317E+4
  -3.17945E+3  -3.01777E+4
  -2.70786E+3  -3.02690E+4
  -2.12807E+3  -2.96813E+4
  -1.50381E+3  -2.97504E+4
  -9.90117E+2  -2.93434E+4
  -4.25415E+2  -2.90402E+4
   1.86715E+2  -2.86134E+4
   9.18714E+2  -2.83692E+4
   1.47749E+3  -2.78322E+4
   2.04045E+3  -2.75459E+4
   2.85611E+3  -2.73893E+4
   3.20409E+3  -2.69550E+4
   3.82838E+3  -2.68327E+4
   4.28719E+3  -2.63948E+4
   4.67216E+3  -2.61787E+4
   5.23786E+3  -2.56621E+4
   6.01004E+3  -2.53557E+4
   6.49274E+3  -2.51479E+4
   7.12191E+3  -2.47824E+4
   7.52211E+3  -2.43408E+4
   8.01682E+3  -2.43210E+4
   8.64821E+3  -2.36671E+4
   8.99696E+3  -2.33300E+4
   9.43475E+3  -2.31085E+4
   1.00785E+4  -2.25539E+4
   1.05020E+4  -2.26720E+4
   1.07813E+4  -2.21488E+4
   1.10666E+4  -2.20140E+4
   1.17878E+4  -2.15821E+4
   1.23071E+4  -2.13711E+4
   1.25906E+4  -2.10858E+4
   1.29209E+4  -2.07842E+4
   1.31184E+4  -2.05805E+4
   1.37391E+4  -2.01526E+4
   1.39143E+4  -1.99499E+4
   1.44199E+4  -1.96300E+4
   1.45628E+4  -1.95689E+4
   1.48519E+4  -1.89345E+4
   1.54331E+4  -1.87933E+4
   1.58438E+4  -1.84503E+4
   1.57457E+4  -1.85079E+4
   1.59064E+4  -1.80403E+4
   1.63343E+4  -1.77791E+4
   1.67804E+4  -1.73482E+4
   1.67374E+4  -1.73660E+4
   1.67827E+4  -1.69130E+4
   1.71845E+4  -1.67919E+4
   1.73842E+4  -1.65269E+4
   1.72314E+4  -1.62528E+4
   1.75489E+4  -1.61049E+4
   1.79459E+4  -1.60016E+4
   1.78174E+4  -1.55274E+4
   1.80862E+4  -1.55177E+4
   1.80113E+4  -1.50040E+4
   1.83323E+4  -1.47646E+4
   1.82420E+4  -1.46380E+4
   1.84072E+4  -1.42321E+4
   1.88648E+4  -1.40552E+4
   1.87282E+4  -1.38917E+4
   1.87529E+4  -1.33434E+4
   1.89068E+4  -1.32182E+4
   1.88209E+4  -1.28825E+4
   1.90470E+4  -1.26335E+4
   1.91961E+4  -1.24437E+4
   1.90124E+4  -1.18430E+4
   1.92856E+4  -1.19193E+4
   1.89877E+4  -1.14242E+4
   1.90736E+4  -1.13267E+4
   1.93029E+4  -1.11080E+4
   1.87790E+4  -1.06076E+4
   1.93687E+4  -1.02271E+4
   1.91284E+4  -1.01224E+4
   1.93049E+4  -9.68059E+3
   1.88790E+4  -9.41271E+3
   1.91132E+4  -9.40822E+3
   1.91290E+4  -8.93877E+3
   1.91857E+4  -8.51292E+3
   1.90942E+4  -8.32184E+3
   1.91006E+4  -8.07621E+3
   1.88547E+4  -7.63467E+3
   1.88259E+4  -7.33281E+3
   1.87876E+4  -7.03287E+3
   1.87613E+4  -7.05318E+3
   1.86520E+4  -6.76345E+3
   1.86841E+4  -6.34280E+3
   1.86144E+4  -6.28460E+3
   1.86413E+4  -5.60662E+3
   1.85838E+4  -5.42098E+3
   1.83463E+4  -5.33482E+3
   1.81449E+4  -4.94977E+3
   1.82398E+4  -4.38611E+3
   1.82514E+4  -4.39309E+3
   1.80109E+4  -4.19790E+3
   1.79094E+4  -3.78393E+3
   1.78733E+4  -3.48916E+3
   1.78921E+4  -3.49447E+3
