 LCModel (Version 6.3-1N) Copyright: S.W. Provencher.          Ref.: Magn. Reson. Med. 30:672-679 (1993).                
 Slice_N1@10_20  28-Feb-2025 11:37:04
 27 lines in following concentration table = NCONC+1
    Conc.  %SD /Cr+PCr  Metabolite                                         
 2.95E-04   4% 3.5E-04 Mac                                                 
    2.781  37%   3.262 Cr                                                  
    4.038  25%   4.738 PCr                                                 
    3.699  20%   4.340 Ins                                                 
    8.294   8%   9.731 NAA                                                 
    5.751  13%   6.748 Tau                                                 
    0.000 999%   0.000 PCho                                                
    1.423  18%   1.669 GPC                                                 
    8.543  11%  10.022 Glu                                                 
    4.494  17%   5.273 Gln                                                 
    0.000 999%   0.000 Ala                                                 
    3.517  30%   4.126 Asc                                                 
    1.930  41%   2.265 Asp                                                 
    0.000 999%   0.000 GABA                                                
    0.630  86%   0.739 Glc                                                 
    1.160  38%   1.361 GSH                                                 
    0.000 999%   0.000 Lac                                                 
    0.820  59%   0.962 NAAG                                                
    1.288  74%   1.512 PE                                                  
    1.423  18%   1.669 GPC+PCho                                            
    9.114   8%  10.693 NAA+NAAG                                            
   13.037   9%  15.295 Glu+Gln                                             
    6.819   9%   8.000 Cr+PCr                                              
    9.114   8%  10.693 NAA+NAAG                                            
    6.819   9%   8.000 Cr+PCr                                              
   13.037   9%  15.295 Glu+Gln                                             
   6 lines in following misc. output table
  FWHM = 0.024 ppm    S/N =   4                                            
  Data shift = 0.041 ppm                                                   
  Ph:-117 deg       0.0 deg/ppm                                            
  alphaB,S = 9.7E-01,   9.7E+00                                            
   19 spline knots.   Ns = 5(1)                                            
  ( 6) 2 infls.   ( 3) 2 extrs.                                            
  480 points on ppm-axis = NY
      4.100000     4.091866     4.083733     4.075600     4.067466     4.059333     4.051199     4.043066     4.034933     4.026799
      4.018666     4.010532     4.002399     3.994265     3.986132     3.977998     3.969864     3.961731     3.953597     3.945463
      3.937330     3.929196     3.921062     3.912929     3.904795     3.896662     3.888528     3.880394     3.872261     3.864127
      3.855993     3.847860     3.839726     3.831592     3.823459     3.815325     3.807191     3.799058     3.790924     3.782790
      3.774657     3.766523     3.758389     3.750256     3.742122     3.733989     3.725855     3.717721     3.709588     3.701454
      3.693320     3.685187     3.677053     3.668919     3.660786     3.652652     3.644518     3.636385     3.628251     3.620117
      3.611984     3.603850     3.595716     3.587583     3.579449     3.571316     3.563182     3.555048     3.546915     3.538781
      3.530647     3.522514     3.514380     3.506246     3.498113     3.489979     3.481845     3.473712     3.465578     3.457444
      3.449311     3.441177     3.433043     3.424910     3.416776     3.408643     3.400509     3.392375     3.384242     3.376108
      3.367974     3.359841     3.351707     3.343573     3.335440     3.327306     3.319172     3.311039     3.302905     3.294771
      3.286638     3.278504     3.270370     3.262237     3.254103     3.245970     3.237836     3.229702     3.221569     3.213435
      3.205301     3.197168     3.189034     3.180900     3.172767     3.164633     3.156499     3.148366     3.140232     3.132098
      3.123965     3.115831     3.107697     3.099564     3.091430     3.083297     3.075163     3.067029     3.058896     3.050762
      3.042628     3.034495     3.026361     3.018227     3.010094     3.001960     2.993826     2.985693     2.977559     2.969425
      2.961292     2.953158     2.945024     2.936891     2.928757     2.920624     2.912490     2.904356     2.896223     2.888089
      2.879955     2.871822     2.863688     2.855554     2.847421     2.839287     2.831153     2.823020     2.814886     2.806752
      2.798619     2.790485     2.782351     2.774218     2.766084     2.757951     2.749817     2.741683     2.733550     2.725416
      2.717282     2.709149     2.701015     2.692881     2.684748     2.676614     2.668480     2.660347     2.652213     2.644079
      2.635946     2.627812     2.619678     2.611545     2.603411     2.595278     2.587144     2.579010     2.570877     2.562743
      2.554609     2.546476     2.538342     2.530208     2.522075     2.513941     2.505807     2.497674     2.489540     2.481406
      2.473273     2.465139     2.457006     2.448872     2.440738     2.432605     2.424471     2.416337     2.408204     2.400070
      2.391936     2.383803     2.375669     2.367535     2.359402     2.351268     2.343134     2.335001     2.326867     2.318733
      2.310600     2.302466     2.294333     2.286199     2.278065     2.269932     2.261798     2.253664     2.245531     2.237397
      2.229263     2.221130     2.212996     2.204862     2.196729     2.188595     2.180461     2.172328     2.164194     2.156060
      2.147927     2.139793     2.131660     2.123526     2.115392     2.107259     2.099125     2.090991     2.082858     2.074724
      2.066590     2.058457     2.050323     2.042189     2.034056     2.025922     2.017788     2.009655     2.001521     1.993387
      1.985254     1.977120     1.968987     1.960853     1.952719     1.944586     1.936452     1.928318     1.920185     1.912051
      1.903917     1.895784     1.887650     1.879516     1.871383     1.863249     1.855115     1.846982     1.838848     1.830714
      1.822581     1.814447     1.806314     1.798180     1.790046     1.781913     1.773779     1.765645     1.757512     1.749378
      1.741244     1.733111     1.724977     1.716843     1.708710     1.700576     1.692442     1.684309     1.676175     1.668041
      1.659908     1.651774     1.643641     1.635507     1.627373     1.619240     1.611106     1.602972     1.594839     1.586705
      1.578571     1.570438     1.562304     1.554170     1.546037     1.537903     1.529769     1.521636     1.513502     1.505368
      1.497235     1.489101     1.480968     1.472834     1.464700     1.456567     1.448433     1.440299     1.432166     1.424032
      1.415898     1.407765     1.399631     1.391497     1.383364     1.375230     1.367096     1.358963     1.350829     1.342695
      1.334562     1.326428     1.318295     1.310161     1.302027     1.293894     1.285760     1.277626     1.269493     1.261359
      1.253225     1.245092     1.236958     1.228824     1.220691     1.212557     1.204423     1.196290     1.188156     1.180022
      1.171889     1.163755     1.155622     1.147488     1.139354     1.131221     1.123087     1.114953     1.106820     1.098686
      1.090552     1.082419     1.074285     1.066151     1.058018     1.049884     1.041750     1.033617     1.025483     1.017349
      1.009216     1.001082     0.992949     0.984815     0.976681     0.968548     0.960414     0.952280     0.944147     0.936013
      0.927879     0.919746     0.911612     0.903478     0.895345     0.887211     0.879077     0.870944     0.862810     0.854676
      0.846543     0.838409     0.830276     0.822142     0.814008     0.805875     0.797741     0.789607     0.781474     0.773340
      0.765206     0.757073     0.748939     0.740805     0.732672     0.724538     0.716404     0.708271     0.700137     0.692003
      0.683870     0.675736     0.667603     0.659469     0.651335     0.643202     0.635068     0.626934     0.618801     0.610667
      0.602533     0.594400     0.586266     0.578132     0.569999     0.561865     0.553731     0.545598     0.537464     0.529330
      0.521197     0.513063     0.504930     0.496796     0.488662     0.480529     0.472395     0.464261     0.456128     0.447994
      0.439861     0.431727     0.423593     0.415460     0.407326     0.399192     0.391059     0.382925     0.374792     0.366658
      0.358524     0.350391     0.342257     0.334124     0.325990     0.317856     0.309723     0.301589     0.293455     0.285322
      0.277188     0.269055     0.260921     0.252787     0.244654     0.236520     0.228386     0.220253     0.212119     0.203986
 NY phased data points follow
  -1.06091E+02 -1.04002E+02 -1.22061E+02 -8.95727E+01 -1.08678E+02 -1.29260E+02 -9.31167E+01 -1.18730E+02 -1.06612E+02 -1.03057E+02
  -1.39224E+02 -1.24893E+02 -1.22944E+02 -1.21487E+02 -1.19049E+02 -1.27568E+02 -1.03920E+02 -1.04290E+02 -1.47724E+02 -1.63068E+02
  -1.84373E+02 -1.74742E+02 -1.39534E+02 -1.32456E+02 -8.83480E+01 -5.50228E+01 -5.80912E+01 -6.93223E+01 -7.05383E+01 -4.57640E+01
  -5.14896E+01 -8.16748E+01 -6.77186E+01 -5.73697E+01 -7.16666E+01 -6.51917E+01 -7.92231E+01 -8.10715E+01 -8.63677E+01 -1.14346E+02
  -1.16040E+02 -1.34436E+02 -1.26061E+02 -1.09533E+02 -1.25977E+02 -8.54820E+01 -4.28178E+01 -3.82863E+01 -2.54682E+01 -2.86835E+01
  -4.21353E+01 -3.81145E+01 -2.93346E+01 -5.52292E+01 -5.18720E+01 -4.22538E+01 -7.44500E+01 -5.28886E+01 -5.38961E+01 -6.79985E+01
  -6.66702E+01 -8.35683E+01 -5.45992E+01 -4.15690E+01 -3.45513E+01 -1.67183E+01 -1.73642E+01 -2.03549E+01 -4.47550E+01 -6.82992E+01
  -7.20226E+01 -6.47807E+01 -6.20389E+01 -4.72266E+01 -3.22336E+01 -2.75301E+01 -6.28677E+00 -1.22813E+01 -2.34380E+01 -7.15677E+00
  -1.46341E+01 -3.88696E+01 -5.79018E+01 -6.60346E+01 -6.16015E+01 -6.62393E+01 -7.55779E+01 -5.66747E+01 -2.58688E+01 -2.15061E+01
  -2.85477E+01 -2.75037E+01 -1.10494E+01 -3.01289E+00 -7.59208E+00  1.70786E+00  9.96249E-01  1.24457E+01  2.50129E+01  6.39326E+00
   1.53614E+01  1.51718E+01 -8.36752E+00 -2.54644E+01 -5.85233E+01 -6.54325E+01 -5.89921E+01 -5.13555E+01 -8.45475E+01 -1.62108E+02
  -1.93034E+02 -1.91656E+02 -1.64536E+02 -1.43857E+02 -1.24788E+02 -1.04049E+02 -9.12756E+01 -7.80775E+01 -9.17903E+01 -8.41244E+01
  -7.48100E+01 -6.30727E+01 -5.58703E+01 -4.31537E+01 -2.16796E+01 -3.92220E+01 -4.41952E+01 -3.51555E+01  7.06454E+00  5.94980E+01
   8.81993E+01  5.56141E+01 -3.01906E+01 -8.48901E+01 -1.25089E+02 -1.34236E+02 -1.41741E+02 -1.44974E+02 -1.23805E+02 -1.21447E+02
  -1.25745E+02 -1.27311E+02 -1.25415E+02 -1.27670E+02 -1.36681E+02 -1.28768E+02 -1.03598E+02 -1.15461E+02 -1.26120E+02 -1.15366E+02
  -1.12323E+02 -9.67845E+01 -1.10974E+02 -1.15381E+02 -9.24649E+01 -9.89320E+01 -8.82926E+01 -7.97200E+01 -9.59006E+01 -8.91166E+01
  -7.60051E+01 -6.60269E+01 -7.50278E+01 -8.41009E+01 -8.26446E+01 -7.58352E+01 -6.99192E+01 -8.40926E+01 -7.08215E+01 -8.66688E+01
  -7.27065E+01 -2.99021E+01 -3.86421E+01 -3.20483E+01 -6.47467E+01 -5.83532E+01 -2.93086E+01 -3.68126E+01 -3.69799E+01 -6.99786E+01
  -8.02817E+01 -8.50267E+01 -8.61172E+01 -9.35898E+01 -1.01525E+02 -8.24915E+01 -9.07200E+01 -8.27612E+01 -7.83906E+01 -9.06591E+01
  -7.87631E+01 -7.60224E+01 -7.98523E+01 -6.37574E+01 -6.82635E+01 -9.50194E+01 -7.69272E+01 -6.30189E+01 -7.83442E+01 -7.10549E+01
  -7.28634E+01 -7.09343E+01 -3.66137E+01 -3.29439E+01 -5.15411E+01 -4.02772E+01 -4.30543E+01 -7.22700E+01 -7.79510E+01 -8.22276E+01
  -1.04061E+02 -8.71833E+01 -7.34636E+01 -7.93508E+01 -4.78750E+01 -2.60053E+01 -4.98266E+00  1.10483E+01  7.27735E+00 -5.77302E+00
  -2.97026E+01 -2.46591E+01 -3.07618E+01 -4.45392E+01 -3.80071E+01 -2.89651E+01 -4.09733E+01 -3.47067E+01 -2.23069E+01 -4.73615E+01
  -4.25570E+01 -6.28234E+01 -8.03782E+01 -7.91500E+01 -9.16798E+01 -9.54761E+01 -1.12599E+02 -1.17421E+02 -1.27272E+02 -1.14802E+02
  -1.19559E+02 -1.25322E+02 -1.05679E+02 -9.23172E+01 -5.89331E+01 -5.28129E+01 -4.86547E+01 -5.48515E+01 -7.01030E+01 -7.19658E+01
  -7.24153E+01 -7.81828E+01 -5.71106E+01 -4.84101E+01 -1.08062E+02 -1.51787E+02 -1.65281E+02 -6.54887E+01  4.16239E+01  6.72104E+01
   1.19865E+02  1.24567E+02  9.28088E+01  7.41054E+01  5.15267E+01  3.91217E+01  5.93222E+01  5.62100E+01  3.90359E+01  3.83052E+01
   3.23528E+01  3.53890E+01  2.55044E+01  2.46476E+01  2.53356E+01  3.56842E+01  3.51357E+01  1.97614E+01  2.72607E+01  1.11749E+01
   6.04881E+00  2.24514E+01  2.82572E+00 -1.61188E+00  5.98394E+00 -8.25277E+00 -5.32522E-01 -2.31200E+01 -1.65910E+01  1.18521E+00
  -2.19016E+01 -2.65715E+01 -4.01732E+01 -1.08508E+01 -4.94720E+00 -1.52240E+01 -3.18827E+01 -5.60456E+01 -4.56835E+01 -5.67347E+01
  -3.75167E+01 -4.44664E+01 -4.78344E+01 -4.56026E+01 -5.03245E+01 -4.15963E+01 -6.84696E+01 -4.99705E+01 -5.45502E+01 -6.06708E+01
  -3.47601E+01 -3.22885E+01 -1.63771E+01 -2.03129E+01 -1.28403E+01  1.86061E+01  2.69167E+01  4.11146E+01  5.13451E+01  4.98179E+01
   7.55342E+01  6.97538E+01  6.54419E+01  7.33135E+01  3.24177E+01  2.57916E+01  1.73094E+01 -6.99085E+00 -2.11627E+01 -3.78104E+01
  -3.37357E+01 -5.31270E+01 -6.64675E+01 -7.57544E+01 -7.22929E+01 -5.45501E+01 -6.94896E+01 -5.94877E+01 -5.07708E+01 -4.58480E+01
  -4.93641E+01 -6.39181E+01 -5.24892E+01 -5.38675E+01 -4.49243E+01 -3.94234E+01 -2.91813E+01 -1.38925E+01 -8.47022E+00  2.08519E+00
  -1.02057E+01 -1.18279E+01  2.06369E+00 -8.54752E-01 -2.66801E+01 -2.82674E+01 -3.63912E+01 -4.68036E+01 -2.68599E+01 -3.52259E+01
  -3.39272E+01 -3.21059E+01 -1.70859E+01 -1.67099E+01 -2.11564E+01  8.56504E+00 -6.83634E+00 -3.01630E+00  9.87373E+00 -1.21423E+00
  -1.09128E+01 -4.38370E+00  5.97429E+00 -3.96370E+00  1.52322E+01  8.02857E+00 -3.92782E+00  1.52109E+01  1.25079E+01  2.35943E+01
   3.94430E+01  3.27604E+01  4.04813E+01  5.31390E+01  5.99763E+01  7.28850E+01  7.14506E+01  8.40257E+01  8.92198E+01  7.94699E+01
   8.43499E+01  6.71535E+01  4.74003E+01  3.74237E+01  3.13950E+01  3.63111E+01  2.63227E+01  1.37608E+01  2.47720E+01  3.66112E+00
  -1.64187E+01 -1.19165E+01 -3.30929E+01 -2.74134E+01 -3.47655E+01 -5.59203E+01 -5.68490E+01 -5.85856E+01 -5.24958E+01 -5.44022E+01
  -4.47377E+01 -4.97875E+01 -5.50927E+01 -3.31687E+01 -3.83282E+01 -5.65403E+01 -4.62958E+01 -4.37850E+01 -4.33640E+01 -4.51859E+01
  -6.31751E+01 -4.50188E+01 -4.74239E+01 -5.56711E+01 -5.12326E+01 -5.84053E+01 -5.22513E+01 -6.12160E+01 -6.00844E+01 -5.50284E+01
  -5.94126E+01 -4.70683E+01 -2.84373E+01 -6.11738E+01 -6.39579E+01 -4.01570E+01 -7.02258E+01 -5.49389E+01 -5.41000E+01 -6.09641E+01
  -4.43608E+01 -4.84908E+01 -4.76527E+01 -5.20059E+01 -6.04909E+01 -5.36622E+01 -4.36728E+01 -6.38858E+01 -5.30601E+01 -5.28613E+01
  -5.33782E+01 -3.68787E+01 -4.32799E+01 -3.40480E+01 -4.81256E+01 -4.86055E+01 -5.57752E+01 -5.34111E+01 -3.23789E+01 -3.68968E+01
  -5.08811E+01 -6.52800E+01 -4.37558E+01 -3.90732E+01 -5.31840E+01 -5.91616E+01 -4.10254E+01 -4.49640E+01 -5.73320E+01 -3.92190E+01
  -4.50039E+01 -4.54115E+01 -5.84430E+01 -5.26190E+01 -4.39103E+01 -5.07041E+01 -4.38232E+01 -3.36077E+01 -2.51767E+01 -5.41861E+01
 NY points of the fit to the data follow
  -9.80665E+01 -1.03226E+02 -1.11283E+02 -1.18047E+02 -1.18377E+02 -1.11680E+02 -1.03531E+02 -1.00368E+02 -1.03524E+02 -1.10298E+02
  -1.17392E+02 -1.21314E+02 -1.20683E+02 -1.18219E+02 -1.15988E+02 -1.12880E+02 -1.09828E+02 -1.13987E+02 -1.30575E+02 -1.55533E+02
  -1.72286E+02 -1.66419E+02 -1.40673E+02 -1.08186E+02 -8.01608E+01 -6.28265E+01 -5.53108E+01 -5.19592E+01 -4.94760E+01 -4.82052E+01
  -4.66593E+01 -4.59447E+01 -4.64089E+01 -4.76838E+01 -4.89419E+01 -4.82662E+01 -4.91946E+01 -5.81012E+01 -7.82579E+01 -1.04409E+02
  -1.25478E+02 -1.34654E+02 -1.32559E+02 -1.21004E+02 -1.02154E+02 -8.10518E+01 -6.38497E+01 -4.99045E+01 -4.02276E+01 -3.49197E+01
  -3.48830E+01 -3.91191E+01 -4.73903E+01 -5.70093E+01 -6.14358E+01 -6.04929E+01 -5.90837E+01 -6.05482E+01 -6.49230E+01 -6.77028E+01
  -6.65002E+01 -6.40389E+01 -5.95093E+01 -5.00576E+01 -3.85297E+01 -2.87743E+01 -2.36237E+01 -2.89026E+01 -4.40355E+01 -5.86325E+01
  -6.56280E+01 -6.60499E+01 -6.23353E+01 -5.36430E+01 -4.19858E+01 -3.20676E+01 -2.34533E+01 -1.47447E+01 -8.58590E+00 -9.43159E+00
  -1.91307E+01 -3.77745E+01 -6.09019E+01 -7.98540E+01 -8.77784E+01 -8.37420E+01 -7.12319E+01 -5.64557E+01 -4.46374E+01 -3.68237E+01
  -3.10153E+01 -2.74572E+01 -2.36581E+01 -2.01898E+01 -1.69899E+01 -1.41469E+01 -1.24135E+01 -9.89238E+00 -4.63751E+00  3.30158E+00
   1.04497E+01  8.80989E+00 -4.74807E+00 -2.71986E+01 -4.54326E+01 -4.79219E+01 -4.15453E+01 -5.03076E+01 -9.02842E+01 -1.42690E+02
  -1.76101E+02 -1.81071E+02 -1.66979E+02 -1.44098E+02 -1.20108E+02 -1.06517E+02 -9.88107E+01 -9.21047E+01 -8.60435E+01 -8.05317E+01
  -7.54174E+01 -7.03388E+01 -6.49803E+01 -5.83202E+01 -4.91287E+01 -3.83411E+01 -3.11889E+01 -1.89052E+01  1.34210E+01  5.99624E+01
   8.77712E+01  6.12203E+01 -1.31702E+01 -8.77713E+01 -1.32645E+02 -1.50059E+02 -1.46027E+02 -1.28725E+02 -1.18873E+02 -1.17085E+02
  -1.16704E+02 -1.17247E+02 -1.18385E+02 -1.19577E+02 -1.20144E+02 -1.19574E+02 -1.17519E+02 -1.14405E+02 -1.10838E+02 -1.07349E+02
  -1.04654E+02 -1.02663E+02 -1.00699E+02 -9.80053E+01 -9.46422E+01 -9.17163E+01 -9.01082E+01 -8.95242E+01 -8.85632E+01 -8.61845E+01
  -8.30989E+01 -8.12945E+01 -8.18271E+01 -8.33508E+01 -8.39580E+01 -8.37445E+01 -8.45775E+01 -8.79679E+01 -9.14077E+01 -8.89740E+01
  -7.82058E+01 -6.47269E+01 -5.80759E+01 -6.07582E+01 -6.40023E+01 -6.01951E+01 -5.17113E+01 -4.61376E+01 -4.84345E+01 -5.75875E+01
  -6.87382E+01 -7.85291E+01 -8.53604E+01 -8.84322E+01 -8.93011E+01 -8.97680E+01 -8.94673E+01 -8.83387E+01 -8.64976E+01 -8.53562E+01
  -8.58636E+01 -8.62791E+01 -8.42172E+01 -7.92814E+01 -7.49437E+01 -7.37665E+01 -7.22984E+01 -6.87838E+01 -6.68664E+01 -6.68348E+01
  -6.43501E+01 -5.77907E+01 -4.93887E+01 -4.25625E+01 -4.00804E+01 -4.21945E+01 -4.89427E+01 -5.96808E+01 -7.17222E+01 -8.25106E+01
  -9.32146E+01 -1.01259E+02 -1.00276E+02 -8.79726E+01 -6.44712E+01 -3.61430E+01 -1.35116E+01 -1.30128E+00 -9.46112E-01 -1.06920E+01
  -2.33006E+01 -3.00863E+01 -3.30735E+01 -3.22501E+01 -2.89886E+01 -2.73721E+01 -2.82754E+01 -3.20729E+01 -3.86558E+01 -4.72667E+01
  -5.71335E+01 -6.77508E+01 -7.88121E+01 -9.01473E+01 -1.01920E+02 -1.12694E+02 -1.21576E+02 -1.27810E+02 -1.30040E+02 -1.28988E+02
  -1.24445E+02 -1.15070E+02 -1.02056E+02 -8.72205E+01 -7.34320E+01 -6.41600E+01 -6.09043E+01 -6.16030E+01 -6.41428E+01 -6.82481E+01
  -7.07056E+01 -6.39129E+01 -5.50807E+01 -7.01267E+01 -1.16517E+02 -1.60842E+02 -1.52060E+02 -8.05521E+01  4.53774E+00  6.12208E+01
   8.71426E+01  8.59825E+01  6.55321E+01  4.96058E+01  4.40452E+01  4.03684E+01  3.72291E+01  3.43450E+01  3.18095E+01  2.99641E+01
   2.90165E+01  2.86205E+01  2.84641E+01  2.81277E+01  2.72718E+01  2.59310E+01  2.46287E+01  2.35540E+01  2.24392E+01  2.10681E+01
   1.94384E+01  1.77097E+01  1.60044E+01  1.42541E+01  1.24143E+01  1.06666E+01  9.00460E+00  7.10216E+00  4.75261E+00  1.82548E+00
  -1.80292E+00 -6.23423E+00 -1.14143E+01 -1.67833E+01 -2.10837E+01 -2.34149E+01 -2.36789E+01 -2.22740E+01 -1.99803E+01 -1.73006E+01
  -1.43581E+01 -1.12257E+01 -8.09437E+00 -5.15814E+00 -2.64198E+00 -4.77758E-01  1.72675E+00  4.44635E+00  7.48940E+00  1.03690E+01
   1.28728E+01  1.51376E+01  1.72352E+01  1.92699E+01  2.12381E+01  2.28538E+01  2.37457E+01  2.36785E+01  2.26731E+01  2.12033E+01
   1.92911E+01  1.67164E+01  1.39297E+01  1.15003E+01  8.84988E+00  4.74475E+00 -1.88286E+00 -1.11295E+01 -2.21736E+01 -3.38227E+01
  -4.50904E+01 -5.47977E+01 -6.17659E+01 -6.50500E+01 -6.43445E+01 -6.03441E+01 -5.48458E+01 -4.98710E+01 -4.64787E+01 -4.46162E+01
  -4.31436E+01 -4.07325E+01 -3.67620E+01 -3.16441E+01 -2.63557E+01 -2.20593E+01 -1.91627E+01 -1.72329E+01 -1.59007E+01 -1.53048E+01
  -1.57131E+01 -1.77365E+01 -2.18182E+01 -2.76322E+01 -3.39382E+01 -3.93866E+01 -4.32688E+01 -4.52132E+01 -4.52899E+01 -4.38396E+01
  -4.11849E+01 -3.76396E+01 -3.35687E+01 -2.94519E+01 -2.55686E+01 -2.20091E+01 -1.87450E+01 -1.56006E+01 -1.25192E+01 -9.45416E+00
  -6.54104E+00 -3.69781E+00 -7.99914E-01  2.27542E+00  5.65394E+00  9.52512E+00  1.40049E+01  1.92221E+01  2.51363E+01  3.14804E+01
   3.83779E+01  4.65920E+01  5.62726E+01  6.70964E+01  7.83816E+01  8.86120E+01  9.50499E+01  9.53571E+01  8.90770E+01  7.78538E+01
   6.44747E+01  5.17368E+01  4.14400E+01  3.40504E+01  2.84288E+01  2.27320E+01  1.54430E+01  6.27222E+00 -4.34274E+00 -1.54503E+01
  -2.54718E+01 -3.36153E+01 -3.99642E+01 -4.47466E+01 -4.78558E+01 -4.97371E+01 -5.10097E+01 -5.20559E+01 -5.31218E+01 -5.41768E+01
  -5.49804E+01 -5.54812E+01 -5.57556E+01 -5.58436E+01 -5.55736E+01 -5.52156E+01 -5.51643E+01 -5.53882E+01 -5.54324E+01 -5.50608E+01
  -5.46910E+01 -5.44926E+01 -5.42588E+01 -5.39236E+01 -5.38214E+01 -5.39118E+01 -5.38727E+01 -5.35620E+01 -5.29239E+01 -5.22405E+01
  -5.18115E+01 -5.17403E+01 -5.18937E+01 -5.20880E+01 -5.20481E+01 -5.17015E+01 -5.12677E+01 -5.08032E+01 -5.03488E+01 -4.99263E+01
  -4.94555E+01 -4.89215E+01 -4.86542E+01 -4.87673E+01 -4.89940E+01 -4.91070E+01 -4.88845E+01 -4.84258E+01 -4.79069E+01 -4.75633E+01
  -4.74999E+01 -4.76058E+01 -4.74440E+01 -4.70252E+01 -4.65838E+01 -4.61620E+01 -4.57549E+01 -4.54389E+01 -4.50561E+01 -4.46341E+01
  -4.43683E+01 -4.43258E+01 -4.44129E+01 -4.46641E+01 -4.48312E+01 -4.46657E+01 -4.39258E+01 -4.28591E+01 -4.19061E+01 -4.15582E+01
  -4.17390E+01 -4.20764E+01 -4.22781E+01 -4.21806E+01 -4.18509E+01 -4.14633E+01 -4.11602E+01 -4.10994E+01 -4.13321E+01 -4.15328E+01
 NY background values follow
    -7.359E+01   -7.342E+01   -7.325E+01   -7.309E+01   -7.292E+01   -7.276E+01   -7.259E+01   -7.242E+01   -7.226E+01   -7.209E+01
    -7.192E+01   -7.176E+01   -7.159E+01   -7.143E+01   -7.126E+01   -7.109E+01   -7.093E+01   -7.076E+01   -7.060E+01   -7.043E+01
    -7.026E+01   -7.010E+01   -6.993E+01   -6.977E+01   -6.960E+01   -6.943E+01   -6.927E+01   -6.910E+01   -6.894E+01   -6.877E+01
    -6.860E+01   -6.844E+01   -6.827E+01   -6.811E+01   -6.794E+01   -6.778E+01   -6.761E+01   -6.745E+01   -6.728E+01   -6.712E+01
    -6.695E+01   -6.679E+01   -6.662E+01   -6.646E+01   -6.629E+01   -6.613E+01   -6.596E+01   -6.580E+01   -6.564E+01   -6.547E+01
    -6.531E+01   -6.515E+01   -6.499E+01   -6.482E+01   -6.466E+01   -6.450E+01   -6.434E+01   -6.418E+01   -6.402E+01   -6.386E+01
    -6.370E+01   -6.354E+01   -6.338E+01   -6.322E+01   -6.306E+01   -6.290E+01   -6.275E+01   -6.259E+01   -6.243E+01   -6.228E+01
    -6.212E+01   -6.196E+01   -6.181E+01   -6.165E+01   -6.150E+01   -6.135E+01   -6.119E+01   -6.104E+01   -6.089E+01   -6.074E+01
    -6.058E+01   -6.043E+01   -6.028E+01   -6.013E+01   -5.998E+01   -5.983E+01   -5.969E+01   -5.954E+01   -5.939E+01   -5.924E+01
    -5.910E+01   -5.895E+01   -5.881E+01   -5.866E+01   -5.852E+01   -5.838E+01   -5.823E+01   -5.809E+01   -5.795E+01   -5.781E+01
    -5.767E+01   -5.753E+01   -5.739E+01   -5.725E+01   -5.711E+01   -5.698E+01   -5.684E+01   -5.670E+01   -5.657E+01   -5.643E+01
    -5.630E+01   -5.616E+01   -5.603E+01   -5.590E+01   -5.576E+01   -5.563E+01   -5.550E+01   -5.537E+01   -5.524E+01   -5.511E+01
    -5.498E+01   -5.485E+01   -5.473E+01   -5.460E+01   -5.447E+01   -5.435E+01   -5.422E+01   -5.410E+01   -5.397E+01   -5.385E+01
    -5.372E+01   -5.360E+01   -5.348E+01   -5.336E+01   -5.324E+01   -5.312E+01   -5.300E+01   -5.288E+01   -5.276E+01   -5.264E+01
    -5.253E+01   -5.241E+01   -5.229E+01   -5.218E+01   -5.207E+01   -5.195E+01   -5.184E+01   -5.173E+01   -5.161E+01   -5.150E+01
    -5.139E+01   -5.128E+01   -5.117E+01   -5.106E+01   -5.095E+01   -5.085E+01   -5.074E+01   -5.063E+01   -5.053E+01   -5.042E+01
    -5.032E+01   -5.021E+01   -5.011E+01   -5.001E+01   -4.991E+01   -4.981E+01   -4.971E+01   -4.961E+01   -4.951E+01   -4.941E+01
    -4.931E+01   -4.921E+01   -4.912E+01   -4.902E+01   -4.893E+01   -4.883E+01   -4.874E+01   -4.865E+01   -4.855E+01   -4.846E+01
    -4.837E+01   -4.828E+01   -4.819E+01   -4.811E+01   -4.802E+01   -4.793E+01   -4.784E+01   -4.776E+01   -4.767E+01   -4.759E+01
    -4.751E+01   -4.742E+01   -4.734E+01   -4.726E+01   -4.718E+01   -4.710E+01   -4.702E+01   -4.694E+01   -4.686E+01   -4.678E+01
    -4.671E+01   -4.663E+01   -4.656E+01   -4.648E+01   -4.641E+01   -4.633E+01   -4.626E+01   -4.619E+01   -4.612E+01   -4.605E+01
    -4.598E+01   -4.591E+01   -4.584E+01   -4.577E+01   -4.570E+01   -4.564E+01   -4.557E+01   -4.550E+01   -4.544E+01   -4.537E+01
    -4.531E+01   -4.525E+01   -4.518E+01   -4.512E+01   -4.506E+01   -4.500E+01   -4.494E+01   -4.488E+01   -4.482E+01   -4.476E+01
    -4.471E+01   -4.465E+01   -4.459E+01   -4.454E+01   -4.448E+01   -4.442E+01   -4.437E+01   -4.432E+01   -4.426E+01   -4.421E+01
    -4.416E+01   -4.411E+01   -4.406E+01   -4.401E+01   -4.396E+01   -4.391E+01   -4.386E+01   -4.381E+01   -4.376E+01   -4.371E+01
    -4.367E+01   -4.362E+01   -4.357E+01   -4.353E+01   -4.348E+01   -4.344E+01   -4.339E+01   -4.335E+01   -4.330E+01   -4.326E+01
    -4.322E+01   -4.317E+01   -4.313E+01   -4.309E+01   -4.305E+01   -4.300E+01   -4.296E+01   -4.292E+01   -4.288E+01   -4.284E+01
    -4.280E+01   -4.276E+01   -4.272E+01   -4.268E+01   -4.264E+01   -4.260E+01   -4.256E+01   -4.252E+01   -4.248E+01   -4.244E+01
    -4.241E+01   -4.237E+01   -4.233E+01   -4.229E+01   -4.225E+01   -4.221E+01   -4.217E+01   -4.213E+01   -4.209E+01   -4.206E+01
    -4.202E+01   -4.198E+01   -4.194E+01   -4.190E+01   -4.186E+01   -4.182E+01   -4.178E+01   -4.174E+01   -4.170E+01   -4.166E+01
    -4.161E+01   -4.157E+01   -4.153E+01   -4.149E+01   -4.145E+01   -4.141E+01   -4.136E+01   -4.132E+01   -4.128E+01   -4.123E+01
    -4.119E+01   -4.115E+01   -4.110E+01   -4.106E+01   -4.101E+01   -4.097E+01   -4.092E+01   -4.088E+01   -4.084E+01   -4.079E+01
    -4.075E+01   -4.070E+01   -4.065E+01   -4.061E+01   -4.056E+01   -4.052E+01   -4.047E+01   -4.043E+01   -4.038E+01   -4.034E+01
    -4.029E+01   -4.024E+01   -4.020E+01   -4.015E+01   -4.011E+01   -4.006E+01   -4.002E+01   -3.997E+01   -3.992E+01   -3.988E+01
    -3.983E+01   -3.979E+01   -3.974E+01   -3.970E+01   -3.965E+01   -3.961E+01   -3.956E+01   -3.952E+01   -3.947E+01   -3.943E+01
    -3.938E+01   -3.934E+01   -3.929E+01   -3.925E+01   -3.920E+01   -3.916E+01   -3.912E+01   -3.907E+01   -3.903E+01   -3.898E+01
    -3.894E+01   -3.890E+01   -3.885E+01   -3.881E+01   -3.877E+01   -3.873E+01   -3.868E+01   -3.864E+01   -3.860E+01   -3.856E+01
    -3.852E+01   -3.847E+01   -3.843E+01   -3.839E+01   -3.835E+01   -3.831E+01   -3.827E+01   -3.823E+01   -3.819E+01   -3.815E+01
    -3.811E+01   -3.807E+01   -3.803E+01   -3.799E+01   -3.795E+01   -3.791E+01   -3.787E+01   -3.784E+01   -3.780E+01   -3.776E+01
    -3.772E+01   -3.769E+01   -3.765E+01   -3.761E+01   -3.757E+01   -3.754E+01   -3.750E+01   -3.747E+01   -3.743E+01   -3.739E+01
    -3.736E+01   -3.732E+01   -3.729E+01   -3.725E+01   -3.722E+01   -3.718E+01   -3.715E+01   -3.712E+01   -3.708E+01   -3.705E+01
    -3.702E+01   -3.698E+01   -3.695E+01   -3.692E+01   -3.689E+01   -3.685E+01   -3.682E+01   -3.679E+01   -3.676E+01   -3.673E+01
    -3.669E+01   -3.666E+01   -3.663E+01   -3.660E+01   -3.657E+01   -3.654E+01   -3.651E+01   -3.648E+01   -3.645E+01   -3.642E+01
    -3.639E+01   -3.636E+01   -3.634E+01   -3.631E+01   -3.628E+01   -3.625E+01   -3.622E+01   -3.619E+01   -3.616E+01   -3.613E+01
    -3.611E+01   -3.608E+01   -3.605E+01   -3.602E+01   -3.600E+01   -3.597E+01   -3.594E+01   -3.591E+01   -3.588E+01   -3.586E+01
    -3.583E+01   -3.580E+01   -3.577E+01   -3.575E+01   -3.572E+01   -3.569E+01   -3.567E+01   -3.564E+01   -3.561E+01   -3.558E+01
    -3.556E+01   -3.553E+01   -3.550E+01   -3.548E+01   -3.545E+01   -3.542E+01   -3.539E+01   -3.537E+01   -3.534E+01   -3.531E+01
    -3.529E+01   -3.526E+01   -3.523E+01   -3.521E+01   -3.518E+01   -3.515E+01   -3.512E+01   -3.510E+01   -3.507E+01   -3.504E+01
 Mac      Conc. = 2.95E-04
  -9.43576E+01 -9.45504E+01 -9.43327E+01 -9.38755E+01 -9.37763E+01 -9.45519E+01 -9.62563E+01 -9.84843E+01 -1.00675E+02 -1.02254E+02
  -1.02808E+02 -1.02345E+02 -1.01552E+02 -1.02046E+02 -1.04819E+02 -1.08603E+02 -1.10827E+02 -1.09755E+02 -1.05887E+02 -1.00563E+02
  -9.46762E+01 -8.92548E+01 -8.56103E+01 -8.38240E+01 -8.27366E+01 -8.17791E+01 -8.04472E+01 -7.83270E+01 -7.57359E+01 -7.32217E+01
  -7.09120E+01 -6.88886E+01 -6.76571E+01 -6.78049E+01 -6.90075E+01 -6.99280E+01 -6.91144E+01 -6.63811E+01 -6.30763E+01 -6.08906E+01
  -6.03762E+01 -6.06219E+01 -6.04190E+01 -5.91393E+01 -5.70457E+01 -5.49975E+01 -5.37687E+01 -5.36202E+01 -5.44504E+01 -5.59992E+01
  -5.76925E+01 -5.90941E+01 -6.01941E+01 -6.12228E+01 -6.21184E+01 -6.24882E+01 -6.21315E+01 -6.10359E+01 -5.94297E+01 -5.73535E+01
  -5.48138E+01 -5.26312E+01 -5.15818E+01 -5.16578E+01 -5.23781E+01 -5.34146E+01 -5.45987E+01 -5.60748E+01 -5.75606E+01 -5.79124E+01
  -5.62630E+01 -5.31683E+01 -4.96909E+01 -4.66879E+01 -4.46352E+01 -4.39179E+01 -4.42411E+01 -4.50064E+01 -4.58380E+01 -4.67131E+01
  -4.75721E+01 -4.82825E+01 -4.84862E+01 -4.81329E+01 -4.73396E+01 -4.62367E+01 -4.49528E+01 -4.37843E+01 -4.28487E+01 -4.20400E+01
  -4.11439E+01 -4.01749E+01 -3.91333E+01 -3.84157E+01 -3.84752E+01 -3.97572E+01 -4.20645E+01 -4.48925E+01 -4.74975E+01 -4.93682E+01
  -5.05412E+01 -5.15356E+01 -5.25658E+01 -5.44721E+01 -5.87346E+01 -6.60055E+01 -7.51335E+01 -8.38594E+01 -9.01396E+01 -9.29966E+01
