 
 $NMID
 ID=''
 FMTDAT='(2E13.5)'
 TRAMP=   1.00000E+0
 VOLUME=   1.00000E+0
 $END
  -2.80991E+3  -2.17916E+4
  -1.68414E+4  -4.44554E+3
   6.94813E+3   1.49474E+4
   1.88549E+4  -1.50090E+3
  -1.00931E+4  -1.18204E+4
  -1.13820E+4   4.82553E+3
   1.37594E+4   6.08102E+3
   6.23669E+3  -5.09733E+3
  -8.21388E+3   1.20847E+3
   2.70806E+3   6.32645E+3
   4.65943E+3  -1.49798E+3
  -5.48418E+3  -3.44463E+3
  -3.98476E+3   1.03719E+3
   7.90093E+2   1.02998E+3
  -9.04653E+2  -1.40872E+3
  -1.54458E+3  -2.03639E+3
  -6.87428E+2   9.62059E+2
   8.16995E+2   2.64590E+3
   1.22780E+3   7.32912E+2
  -8.10499E+2   4.53782E+2
  -4.73790E+2   3.46366E+2
   2.44563E+3  -2.20191E+3
   1.25475E+3   3.14038E+2
  -9.32711E+2   3.22762E+3
   2.98345E+2  -2.18242E+3
   1.69642E+3  -3.53630E+3
   1.25699E+3   3.36735E+3
  -1.48331E+3   2.45565E+3
  -2.69591E+3  -3.87801E+3
   9.62473E+2  -1.49088E+3
   1.49881E+3   3.51493E+3
  -2.43705E+3   1.25724E+3
  -2.68689E+3  -2.36975E+3
   1.88803E+2  -1.91284E+3
   1.26985E+3  -5.95444E+2
   1.14369E+3  -2.01507E+2
   1.81313E+2   5.57254E+2
  -1.85454E+2   1.50713E+3
   2.00627E+2   4.35478E+2
  -5.90570E+2  -6.31952E+2
  -1.88449E+3   1.91584E+2
  -3.85773E+1   5.68643E+0
   1.49354E+3  -9.90775E+2
   7.53764E+2  -8.26685E+2
   1.19919E+3  -1.00960E+2
   8.28038E+2   1.23985E+3
  -1.21688E+3   2.68003E+3
  -2.70801E+3   7.25128E+2
  -8.35796E+2  -2.58290E+3
   1.35036E+2  -1.60318E+3
   1.47836E+2   4.09189E+2
  -6.43892E+0  -5.49861E+2
   6.68813E+2  -6.49648E+2
   9.29970E+2   1.17197E+3
   3.67370E+2   6.79165E+2
  -3.71280E+2  -2.78159E+2
  -9.77281E+2  -1.60207E+2
  -1.29106E+2  -5.58177E+2
   6.39079E+2  -9.83018E+2
   8.44761E+2  -5.99728E+2
   9.23997E+2   4.68688E+2
   5.72318E+2   1.16348E+3
  -3.18875E+2   1.47125E+3
  -1.17462E+3   7.07019E+2
  -1.52027E+3  -3.23953E+2
  -8.97857E+2  -7.83994E+2
  -4.90992E+1  -1.64513E+3
   1.13759E+3  -1.28292E+3
   1.35035E+3   2.97583E+2
  -9.18563E+0   1.16763E+3
  -8.01859E+2   2.74145E+1
   4.50047E+2  -1.07398E+3
   1.39665E+3   3.04463E+2
   3.60928E+2   9.53402E+2
  -8.48300E+2   2.96991E+2
   2.97675E+2  -2.11411E+2
   6.76557E+2   1.58661E+2
  -2.22093E+2   7.03140E+2
  -4.61526E+2   4.96431E+2
  -1.26437E+2  -1.91414E+2
  -4.10748E+2  -7.84233E+1
  -3.30705E+2  -2.57334E+2
   2.06150E+2  -3.55893E+2
   2.95180E+2  -4.32115E+1
  -2.09994E+2  -1.51504E+2
   2.63794E+2  -5.58116E+2
   6.84186E+2  -1.68385E+2
   4.68331E+2   4.93434E+2
  -4.75301E+1   5.40841E+2
   1.46376E+2   1.52071E+2
   7.01599E+2   2.06612E+2
   4.85948E+1   5.61944E+2
  -6.70910E+2   8.50084E+2
  -1.18386E+3   1.20371E+2
  -4.73105E+2  -8.61314E+2
   5.65247E+2  -6.74043E+2
   3.56745E+2   8.67950E+1
  -5.08190E+2   2.41443E+2
   3.76158E+1  -3.79199E+2
   6.60145E+2   5.69796E+1
   6.32847E+2   7.85645E+2
  -3.49339E+2   6.95747E+2
  -6.34173E+2  -1.89661E+2
  -1.11501E+2  -4.49649E+2
   2.48074E+2  -8.59069E+1
   5.13677E+2   4.79120E+2
   4.22059E+1   5.51339E+2
  -7.65984E+2   3.42174E+1
  -8.03956E+2  -8.58692E+2
   4.62974E+2  -8.40129E+2
   1.37830E+3   1.18168E+2
   5.44291E+2   8.31367E+2
  -3.50208E+2   7.23665E+2
  -2.49667E+2   2.46984E+2
   1.15071E+2   4.41523E+2
  -1.01045E+2   6.15187E+2
  -7.91133E+2   3.70021E+1
  -6.90638E+2  -9.25422E+2
   2.30586E+2  -9.89087E+2
   1.00605E+3  -3.72397E+2
   7.24038E+2   2.92632E+2
   4.82397E+2   3.05774E+2
   5.09439E+2   2.72942E+2
   1.40155E+2   3.33354E+2
  -3.41608E+2   1.71504E+2
  -3.44560E+2  -2.97081E+2
   2.14108E+2  -3.91510E+2
   4.20285E+2  -2.91087E+2
   9.67416E+1  -1.49609E+2
  -2.11127E+2   2.35089E+2
  -2.20797E+2   4.65857E+2
  -5.03817E+2   8.57138E+1
  -2.09157E+2  -4.98360E+2
   4.34865E+2  -1.91358E+2
   5.37513E+1   7.94141E+1
  -9.25196E+1  -9.18905E+1
  -9.19137E+1  -1.31414E+2
   4.63734E+2   1.82284E+2
   1.83562E+2   3.90834E+2
  -4.92915E+2   2.19907E+2
  -4.81364E+2  -4.96130E+2
   3.76797E+1  -5.76746E+2
   6.61961E+2  -2.36100E+2
   3.19131E+1   6.70402E+2
  -3.97319E+2   5.38674E+2
  -5.23886E+2   1.31621E+1
  -2.09252E+2   6.55442E+1
  -2.20307E+2   2.18299E+1
  -2.50812E+2  -9.03808E+1
  -1.54629E+2  -3.79601E+2
   1.02719E+2  -5.93770E+2
   3.65863E+2   5.73628E+1
   3.62113E+2   3.47088E+2
   1.32754E+2   5.51652E+2
  -3.22944E+2   2.06564E+2
  -7.06969E+1  -2.37094E+2
   9.75245E+1   7.91618E+1
  -5.78302E+1   3.37077E+2
  -3.21577E+2   1.94858E+2
  -1.51435E+2   1.46788E+2
   2.78928E+1   5.14588E+2
  -2.15495E+2   4.19838E+2
  -2.25858E+2  -3.89251E+0
  -1.43046E+2  -2.99718E+2
   4.75689E+1  -2.00807E+2
   3.56275E+2  -2.74239E+1
   4.61071E+2   3.04438E+2
  -2.19638E+1   4.41560E+2
  -2.15785E+2  -4.78174E+1
   2.74054E+2  -2.44516E+2
   2.29772E+2   1.16282E+2
   2.05347E+2   1.86579E+2
  -2.25928E+2   1.62396E+2
  -2.04829E+2   1.01508E+2
   1.83762E+2  -1.65508E+2
   2.18291E+2   9.45422E+1
  -1.23702E+2   8.89507E+1
  -3.02938E+2   1.55506E+2
   1.18367E+2  -2.64709E+2
   4.13807E+2  -9.76942E+0
   2.48626E+2   1.99532E+2
   9.96260E+1   3.61340E+2
  -7.76113E+0  -4.91398E+1
  -1.02157E+2  -2.75641E+2
  -1.38913E+2  -1.49509E+2
   4.03921E+1  -1.98915E+2
   1.07265E+2  -2.22482E+2
   1.19742E+2  -1.90901E+2
   3.19156E+2   1.95414E+2
   6.14105E+2   2.38186E+2
   1.42478E+1   2.29142E+2
  -2.33313E+2  -5.40210E+1
  -3.80476E+2  -4.30052E+2
   3.39404E+1  -4.87549E+2
   2.85581E+2  -5.37696E+2
   2.51736E+2  -1.25885E+2
  -2.11250E+2  -4.68187E+1
  -2.46834E+1   2.65955E+1
  -1.46622E+2  -8.55787E+1
  -7.24875E+1   1.04511E+2
  -3.96432E+2  -2.89506E+2
  -2.65026E+1  -4.52586E+2
   1.17221E+2  -3.45493E+2
   3.20492E+2  -8.78464E+1
   3.57759E+1  -1.16779E+2
  -1.71029E+2  -3.48323E+1
  -2.20235E+2  -1.89637E+2
  -9.36241E+1  -5.13086E+1
   2.22165E+2  -2.51054E+2
  -1.52878E+2   3.00475E+1
  -1.70085E+2  -7.99551E+1
   9.10156E+1  -1.88608E+2
   3.68145E+1  -1.11476E+2
  -3.17791E+2   2.31626E+2
  -4.48169E+2  -5.97706E+1
  -6.14429E+2  -1.88349E+2
  -1.90154E+1  -2.55984E+2
  -2.44039E+1   2.04310E+1
   1.68810E+2  -2.29059E+2
   9.55330E+1  -2.89880E+2
   8.87200E+0  -6.42291E+1
   8.39669E+1   6.10484E+1
  -2.05708E+2   2.68383E+2
  -3.21882E+2   1.66274E+2
  -7.06993E+2  -7.27051E+1
  -1.66943E+1  -1.65752E+2
   1.78834E+2  -5.52900E+1
  -1.35228E+1   5.85932E+1
  -1.26498E+2  -9.03269E+1
  -1.46449E+2   8.58676E+1
   5.75776E+1  -1.08164E+2
   8.32049E+0  -7.64094E+1
  -8.95321E+1   4.81133E+0
   1.06237E+0   9.92603E+1
  -1.40373E+2  -4.02546E+1
   4.25531E+1  -1.71390E+2
   1.71299E+2  -1.11965E+1
   1.95853E+2   1.80828E+2
  -1.89332E+2   1.19435E+1
  -1.44076E+2  -5.39934E+1
   9.85583E+1   1.87847E+0
   3.55432E+1   6.48923E+1
   1.69744E+2   8.39963E+1
  -1.43176E+2  -1.26065E+2
   6.84361E+1   1.59167E+2
  -5.39119E+1  -3.53068E+1
   6.45567E+1   4.69044E+1
   8.83852E+1   1.17767E+2
   1.40104E+2  -1.08706E+2
   1.58513E+1  -5.19539E+1
   9.81682E+1   1.97892E+1
  -7.67741E+1   2.83312E+2
  -6.70702E+1   6.17718E+1
  -8.66264E+1  -3.26847E+2
   3.06909E+2  -2.77493E+2
   2.38802E+2   4.63899E+1
   9.42713E+0   1.34199E+2
   7.75852E+1  -1.65303E+2
  -6.74612E+1  -4.86950E+1
  -9.84424E+1  -1.01482E+2
  -2.18213E+0   1.01340E+2
  -2.25751E+2  -3.73692E+2
  -1.54941E+2  -1.91415E+2
   8.60141E+1  -2.54251E+2
   3.45215E+2  -2.53161E+2
   3.19227E+1   1.67273E+2
  -2.15248E+2   1.00979E+2
  -1.36224E+2  -2.93677E+2
   7.37883E+1  -2.43494E+2
   2.74352E+1   1.46074E+0
   2.09485E+2   4.80997E+1
  -2.86904E+1  -4.80601E+1
  -1.87322E+2  -1.36778E+2
   5.60153E+1   1.18034E+2
  -1.79592E+2  -4.09169E+1
  -1.13837E+2   8.65798E+1
  -1.52137E+2  -2.11209E+2
   1.20100E+2  -4.60050E+2
   2.03313E+2  -1.77534E+2
   2.55533E+2  -1.66360E+1
  -2.82126E+2  -2.40208E+1
  -5.07567E+1   1.22925E+2
  -2.09320E+2  -1.91810E+2
  -1.57066E+2   1.78506E+2
  -1.74121E+2   9.80125E+1
  -3.22041E+2  -6.08942E+1
   1.15557E+2  -3.09329E+2
   1.25785E+2   6.00760E+1
   6.59874E+1   1.21228E+2
   1.81970E+0   1.22024E+2
  -1.85189E+2   1.11249E+2
  -1.09643E+2  -4.38089E+0
  -2.97662E+2   2.53116E+1
   4.74792E+1  -8.26453E+1
  -8.00265E+1  -1.02151E+2
  -1.76099E+2  -2.92704E+2
   8.14689E+1  -8.03689E+1
   2.08815E+0   1.69854E+2
  -1.29759E+2   2.72425E+1
  -2.86840E+2   3.22337E+1
  -3.02423E+1  -2.06330E+2
   7.02467E+1  -1.01372E+2
   1.55593E+2   1.21718E+2
   6.43263E+1   1.64405E+2
  -4.05337E+1  -7.04217E+1
   1.62592E+2  -2.08939E+2
   1.60117E+2  -3.17573E+1
   6.12880E+1  -1.15601E+2
  -2.28651E+1   2.93169E+1
   3.08788E+1   2.51270E+1
   8.44492E+1  -8.72503E+1
  -8.95048E+1  -1.94856E+1
   1.80516E+2   1.54643E+2
  -2.15706E+2   3.73888E+2
  -1.42478E+2  -7.73098E+1
   2.12458E+2  -7.86696E+1
   1.89619E+2  -2.63374E+1
  -4.73224E+1   2.18462E+2
   7.43234E+1  -6.78552E+1
   2.08885E+2  -2.33885E+2
   2.20613E+1  -4.87877E+1
   2.10189E+1  -4.47249E+1
   2.96311E+1  -1.43762E+2
  -2.24125E+2  -1.09173E+2
  -4.22007E+1  -2.55630E+2
   2.84833E+2   7.47988E+0
   6.54181E+1   1.96678E+2
  -2.75721E+2   1.19407E+2
   1.68683E+2  -1.74782E+2
   1.77892E+1  -1.36942E+2
   2.33482E+0   1.53020E+2
   1.18551E+2   6.29223E+1
  -3.09103E+1  -3.38352E+1
  -1.72813E+1  -8.02597E+1
   5.69821E+1   1.63016E+2
   5.90226E+1  -6.75410E+1
  -1.99159E+2   1.29839E+2
  -1.88189E+2  -8.18204E+1
   9.67493E+1  -2.27511E+2
   2.10618E+2  -3.57020E+1
   8.81056E+1  -4.51219E+1
   7.61062E+0   1.33474E+1
  -1.48121E+2  -1.16600E+1
  -1.23268E+2  -6.90031E+1
   4.94289E+1  -8.97417E+1
   1.57860E+2  -1.66116E+2
  -6.86462E+1  -1.53814E+2
   1.90308E+2  -1.19448E+2
  -1.36736E+1   2.12375E+2
   2.17548E+2  -4.69084E-1
  -3.00946E+2  -3.98892E+1
  -1.18273E+2  -1.16501E+2
   4.97413E+1  -1.09569E+2
   1.17126E+2  -9.54088E+1
  -2.54015E+1  -2.59097E+2
  -7.36727E+1  -1.84729E+2
  -7.74620E+1  -2.17294E+2
   2.80716E+2   3.58873E+1
   2.06617E+2  -6.52660E+1
   4.48910E+1   1.11429E+2
  -1.81944E+2  -3.51696E+1
  -2.18728E+2  -3.89675E+2
   2.61850E+2  -3.79872E+1
  -3.24533E+1   2.12154E+2
  -4.88101E+1   1.53047E+2
   6.81190E+1  -1.05222E+2
  -1.69414E+1  -1.41549E+2
