 
 $NMID
 ID=''
 FMTDAT='(2E13.5)'
 TRAMP=   1.00000E+0
 VOLUME=   1.00000E+0
 $END
  -5.83874E+4   7.58055E+5
  -9.10761E+5   1.82066E+6
  -7.26156E+5   1.87954E+6
  -7.81612E+5   1.74973E+6
  -8.58759E+5   1.77352E+6
  -8.44019E+5   1.72908E+6
  -8.99738E+5   1.67812E+6
  -9.20440E+5   1.71602E+6
  -8.86175E+5   1.66018E+6
  -9.57585E+5   1.58809E+6
  -1.00014E+6   1.60682E+6
  -9.69145E+5   1.57489E+6
  -1.00089E+6   1.51139E+6
  -1.04083E+6   1.50173E+6
  -1.03717E+6   1.46983E+6
  -1.05202E+6   1.42746E+6
  -1.07647E+6   1.41196E+6
  -1.09375E+6   1.37099E+6
  -1.11995E+6   1.33102E+6
  -1.12724E+6   1.31369E+6
  -1.13784E+6   1.27041E+6
  -1.16802E+6   1.23338E+6
  -1.17612E+6   1.21475E+6
  -1.17948E+6   1.17407E+6
  -1.20349E+6   1.13290E+6
  -1.20910E+6   1.11565E+6
  -1.21116E+6   1.08403E+6
  -1.22546E+6   1.04983E+6
  -1.23220E+6   1.02127E+6
  -1.23479E+6   9.89957E+5
  -1.24814E+6   9.58236E+5
  -1.25172E+6   9.30240E+5
  -1.25743E+6   8.95588E+5
  -1.26788E+6   8.65206E+5
  -1.26823E+6   8.36157E+5
  -1.27052E+6   8.05423E+5
  -1.28277E+6   7.79397E+5
  -1.28808E+6   7.49893E+5
  -1.28577E+6   7.15971E+5
  -1.28941E+6   6.89755E+5
  -1.29136E+6   6.63860E+5
  -1.29021E+6   6.33537E+5
  -1.28695E+6   6.08047E+5
  -1.28653E+6   5.85295E+5
  -1.28689E+6   5.57916E+5
  -1.28689E+6   5.31322E+5
  -1.28474E+6   5.04351E+5
  -1.28448E+6   4.75201E+5
  -1.28177E+6   4.47530E+5
  -1.27713E+6   4.20566E+5
  -1.27521E+6   3.93587E+5
  -1.27408E+6   3.68477E+5
  -1.27033E+6   3.43539E+5
  -1.26670E+6   3.16562E+5
  -1.26262E+6   2.90791E+5
  -1.25835E+6   2.66631E+5
  -1.25235E+6   2.40946E+5
  -1.24431E+6   2.15508E+5
  -1.23629E+6   1.93626E+5
  -1.23103E+6   1.72777E+5
  -1.22477E+6   1.48679E+5
  -1.21723E+6   1.24241E+5
  -1.20996E+6   1.01972E+5
  -1.20305E+6   7.97908E+4
  -1.19312E+6   5.57820E+4
  -1.18180E+6   3.29907E+4
  -1.17208E+6   1.22629E+4
  -1.16306E+6  -7.26121E+3
  -1.15373E+6  -2.85569E+4
  -1.14433E+6  -5.05873E+4
  -1.13368E+6  -7.08620E+4
  -1.12203E+6  -8.92210E+4
  -1.11153E+6  -1.07688E+5
  -1.10107E+6  -1.27044E+5
  -1.08982E+6  -1.45790E+5
  -1.07724E+6  -1.63686E+5
  -1.06562E+6  -1.81457E+5
  -1.05353E+6  -1.99413E+5
  -1.04135E+6  -2.16846E+5
  -1.02829E+6  -2.34511E+5
  -1.01438E+6  -2.52059E+5
  -1.00110E+6  -2.68029E+5
  -9.88267E+5  -2.83184E+5
  -9.74493E+5  -2.99677E+5
  -9.59582E+5  -3.15537E+5
  -9.45277E+5  -3.29810E+5
  -9.32186E+5  -3.42945E+5
  -9.18480E+5  -3.56156E+5
  -9.03699E+5  -3.69224E+5
  -8.88872E+5  -3.80586E+5
  -8.75157E+5  -3.91454E+5
  -8.61397E+5  -4.02365E+5
  -8.47154E+5  -4.14293E+5
  -8.31541E+5  -4.24767E+5
  -8.15758E+5  -4.34230E+5
  -8.00552E+5  -4.43315E+5
  -7.86328E+5  -4.52298E+5
  -7.72175E+5  -4.61361E+5
  -7.56718E+5  -4.70362E+5
  -7.41301E+5  -4.77892E+5
  -7.26824E+5  -4.85426E+5
  -7.12415E+5  -4.93682E+5
  -6.96124E+5  -5.00907E+5
  -6.80076E+5  -5.06856E+5
  -6.65487E+5  -5.11881E+5
  -6.51649E+5  -5.17088E+5
  -6.37683E+5  -5.22836E+5
  -6.21709E+5  -5.28226E+5
  -6.06251E+5  -5.32455E+5
  -5.91783E+5  -5.35417E+5
  -5.77742E+5  -5.38724E+5
  -5.63688E+5  -5.43848E+5
  -5.48397E+5  -5.48028E+5
  -5.33181E+5  -5.52013E+5
  -5.18372E+5  -5.55279E+5
  -5.03568E+5  -5.58596E+5
  -4.88341E+5  -5.61851E+5
  -4.73022E+5  -5.64142E+5
  -4.58130E+5  -5.65248E+5
  -4.44929E+5  -5.66099E+5
  -4.31689E+5  -5.68203E+5
  -4.18284E+5  -5.69904E+5
  -4.04657E+5  -5.71027E+5
  -3.90765E+5  -5.72176E+5
  -3.77275E+5  -5.73568E+5
  -3.63130E+5  -5.73860E+5
  -3.49438E+5  -5.73314E+5
  -3.36329E+5  -5.73265E+5
  -3.23472E+5  -5.73330E+5
  -3.10156E+5  -5.73427E+5
  -2.96399E+5  -5.73536E+5
  -2.82200E+5  -5.73048E+5
  -2.68966E+5  -5.71976E+5
  -2.56491E+5  -5.70240E+5
  -2.44006E+5  -5.69411E+5
  -2.31067E+5  -5.67604E+5
  -2.18849E+5  -5.65569E+5
  -2.07227E+5  -5.63295E+5
  -1.95478E+5  -5.61313E+5
  -1.83174E+5  -5.58956E+5
  -1.71024E+5  -5.55970E+5
  -1.60008E+5  -5.52287E+5
  -1.49731E+5  -5.48506E+5
  -1.38810E+5  -5.45651E+5
  -1.27633E+5  -5.42927E+5
  -1.16785E+5  -5.38758E+5
  -1.05970E+5  -5.34361E+5
  -9.56359E+4  -5.29951E+5
  -8.54301E+4  -5.25447E+5
  -7.59629E+4  -5.20389E+5
  -6.64381E+4  -5.15193E+5
  -5.75174E+4  -5.10064E+5
  -4.86824E+4  -5.05602E+5
  -4.03593E+4  -5.00796E+5
  -3.11470E+4  -4.95300E+5
  -2.30334E+4  -4.89631E+5
  -1.50097E+4  -4.84040E+5
  -7.43632E+3  -4.78699E+5
   4.74831E+2  -4.72803E+5
   8.09972E+3  -4.67238E+5
   1.52979E+4  -4.61109E+5
   2.25053E+4  -4.55078E+5
   2.96842E+4  -4.48845E+5
   3.69763E+4  -4.42463E+5
   4.33976E+4  -4.36228E+5
   4.90245E+4  -4.29797E+5
   5.52134E+4  -4.23982E+5
   6.15014E+4  -4.17930E+5
   6.77792E+4  -4.11773E+5
   7.31539E+4  -4.05415E+5
   7.80498E+4  -3.99124E+5
   8.36368E+4  -3.93287E+5
   8.88644E+4  -3.86841E+5
   9.39843E+4  -3.80293E+5
   9.85861E+4  -3.74529E+5
   1.03294E+5  -3.68166E+5
   1.08434E+5  -3.62075E+5
   1.13323E+5  -3.55750E+5
   1.17827E+5  -3.48805E+5
   1.22037E+5  -3.42460E+5
   1.26049E+5  -3.36615E+5
   1.30213E+5  -3.30434E+5
   1.34284E+5  -3.24011E+5
   1.38278E+5  -3.17681E+5
   1.41716E+5  -3.11592E+5
   1.44919E+5  -3.05357E+5
   1.48187E+5  -2.99303E+5
   1.51388E+5  -2.93021E+5
   1.53853E+5  -2.86703E+5
   1.56145E+5  -2.81111E+5
   1.59468E+5  -2.75978E+5
   1.62638E+5  -2.69779E+5
   1.65330E+5  -2.63079E+5
   1.67432E+5  -2.56787E+5
   1.69613E+5  -2.50899E+5
   1.71857E+5  -2.45032E+5
   1.74109E+5  -2.39071E+5
   1.76246E+5  -2.32883E+5
   1.77899E+5  -2.26836E+5
   1.79814E+5  -2.21025E+5
   1.81944E+5  -2.14817E+5
   1.83352E+5  -2.08854E+5
   1.83967E+5  -2.02792E+5
   1.85037E+5  -1.97243E+5
   1.85982E+5  -1.91750E+5
   1.87072E+5  -1.85920E+5
   1.88056E+5  -1.79880E+5
   1.88734E+5  -1.74097E+5
   1.89184E+5  -1.68509E+5
   1.89893E+5  -1.63106E+5
   1.90327E+5  -1.57453E+5
   1.90371E+5  -1.51652E+5
   1.90328E+5  -1.46472E+5
   1.90744E+5  -1.41434E+5
   1.91044E+5  -1.36146E+5
   1.90914E+5  -1.30249E+5
   1.90375E+5  -1.24771E+5
   1.89786E+5  -1.20111E+5
   1.88985E+5  -1.15440E+5
   1.88651E+5  -1.10510E+5
   1.87751E+5  -1.05633E+5
   1.86910E+5  -1.00898E+5
   1.86377E+5  -9.64284E+4
   1.85258E+5  -9.17671E+4
   1.84437E+5  -8.69012E+4
   1.82917E+5  -8.22276E+4
   1.81202E+5  -7.82231E+4
   1.80047E+5  -7.42251E+4
   1.79083E+5  -7.00187E+4
   1.77896E+5  -6.59369E+4
   1.76250E+5  -6.14378E+4
   1.74634E+5  -5.76828E+4
   1.73002E+5  -5.42177E+4
   1.71634E+5  -5.02990E+4
   1.69750E+5  -4.66142E+4
   1.67788E+5  -4.29997E+4
   1.66432E+5  -3.96961E+4
   1.64559E+5  -3.65881E+4
   1.62932E+5  -3.30357E+4
   1.61075E+5  -2.97904E+4
   1.58735E+5  -2.70471E+4
   1.56969E+5  -2.39859E+4
   1.55157E+5  -2.09810E+4
   1.53438E+5  -1.80349E+4
   1.51240E+5  -1.50135E+4
   1.49573E+5  -1.24637E+4
   1.47536E+5  -9.70354E+3
   1.45674E+5  -7.01343E+3
   1.43595E+5  -4.44462E+3
   1.41304E+5  -2.01208E+3
   1.39484E+5  -5.13349E+1
   1.37750E+5   1.97098E+3
   1.35840E+5   4.68275E+3
   1.33682E+5   6.65545E+3
   1.31529E+5   8.83306E+3
   1.29872E+5   1.07929E+4
   1.27733E+5   1.27192E+4
   1.25896E+5   1.48533E+4
   1.23870E+5   1.67514E+4
   1.21534E+5   1.82601E+4
   1.20061E+5   2.05106E+4
   1.18036E+5   2.23619E+4
   1.15654E+5   2.42374E+4
   1.13382E+5   2.57232E+4
   1.11280E+5   2.68805E+4
   1.09228E+5   2.80399E+4
   1.07429E+5   2.98578E+4
   1.05494E+5   3.15497E+4
   1.03392E+5   3.29487E+4
   1.01352E+5   3.39272E+4
   9.93402E+4   3.49988E+4
   9.74041E+4   3.64737E+4
   9.51793E+4   3.74336E+4
   9.32210E+4   3.82667E+4
   9.16353E+4   3.95305E+4
   8.95763E+4   4.06077E+4
   8.75684E+4   4.17494E+4
   8.52826E+4   4.26680E+4
   8.33859E+4   4.33960E+4
   8.15510E+4   4.42356E+4
   7.94116E+4   4.51206E+4
   7.77363E+4   4.58000E+4
   7.55051E+4   4.64077E+4
   7.38237E+4   4.68873E+4
   7.18210E+4   4.74289E+4
   7.01776E+4   4.82250E+4
   6.78269E+4   4.87615E+4
   6.60342E+4   4.87194E+4
   6.42973E+4   4.90208E+4
   6.27388E+4   4.95889E+4
   6.09894E+4   5.03035E+4
   5.92519E+4   5.02282E+4
   5.72379E+4   5.08236E+4
   5.54115E+4   5.09185E+4
   5.37631E+4   5.10019E+4
   5.17401E+4   5.13174E+4
   5.03204E+4   5.12787E+4
   4.89968E+4   5.14267E+4
   4.72102E+4   5.16909E+4
   4.53338E+4   5.17721E+4
   4.38919E+4   5.19203E+4
   4.22382E+4   5.19072E+4
   4.08665E+4   5.14041E+4
   3.94913E+4   5.16962E+4
   3.77928E+4   5.17004E+4
   3.61904E+4   5.15508E+4
   3.47973E+4   5.13717E+4
   3.34030E+4   5.11079E+4
   3.19530E+4   5.09743E+4
   3.07024E+4   5.08450E+4
   2.93606E+4   5.05939E+4
   2.80866E+4   5.01865E+4
   2.70401E+4   4.99291E+4
   2.54520E+4   5.00099E+4
   2.42925E+4   4.97866E+4
   2.27262E+4   4.90648E+4
   2.19760E+4   4.91418E+4
   2.05243E+4   4.84812E+4
   1.94756E+4   4.81356E+4
   1.83842E+4   4.78662E+4
   1.69390E+4   4.75671E+4
   1.59321E+4   4.73442E+4
   1.50126E+4   4.64801E+4
   1.39307E+4   4.63221E+4
   1.28850E+4   4.55668E+4
   1.18566E+4   4.48712E+4
   1.11636E+4   4.47206E+4
   1.02182E+4   4.44183E+4
   8.89311E+3   4.38198E+4
   7.91172E+3   4.36382E+4
   7.09713E+3   4.28902E+4
   6.38417E+3   4.24581E+4
   5.49108E+3   4.20916E+4
   4.62020E+3   4.13532E+4
   3.99726E+3   4.08470E+4
   3.00270E+3   4.04957E+4
   2.40990E+3   4.00307E+4
   1.42544E+3   3.97043E+4
   5.48744E+2   3.86645E+4
   6.02204E+0   3.81755E+4
  -5.61457E+2   3.76611E+4
  -1.50666E+3   3.72930E+4
  -1.99022E+3   3.64845E+4
  -2.45030E+3   3.60251E+4
  -3.23011E+3   3.54379E+4
  -3.84988E+3   3.49688E+4
  -4.43777E+3   3.44568E+4
  -5.00712E+3   3.38433E+4
  -5.32063E+3   3.29823E+4
  -5.85767E+3   3.25635E+4
  -6.04819E+3   3.22739E+4
  -7.26317E+3   3.17933E+4
  -7.45365E+3   3.10687E+4
  -7.85151E+3   3.05265E+4
  -8.29034E+3   2.97968E+4
  -8.47627E+3   2.90917E+4
  -8.91966E+3   2.87833E+4
  -9.28695E+3   2.82628E+4
  -9.47231E+3   2.74232E+4
  -9.66693E+3   2.72607E+4
  -1.03491E+4   2.67867E+4
  -1.05402E+4   2.59713E+4
  -1.06807E+4   2.54407E+4
  -1.08625E+4   2.46471E+4
  -1.11181E+4   2.44895E+4
  -1.11866E+4   2.36798E+4
  -1.15276E+4   2.31152E+4
