 
 $NMID
 ID=''
 FMTDAT='(2E13.5)'
 TRAMP=   1.00000E+0
 VOLUME=   1.00000E+0
 $END
   2.95945E+3   7.30829E+5
  -6.29806E+5   1.79248E+6
  -4.10852E+5   1.76839E+6
  -5.57463E+5   1.60987E+6
  -6.91765E+5   1.69530E+6
  -6.39794E+5   1.67761E+6
  -6.80712E+5   1.56714E+6
  -7.62125E+5   1.56724E+6
  -7.65155E+5   1.55145E+6
  -8.03694E+5   1.51481E+6
  -8.26189E+5   1.51232E+6
  -8.22122E+5   1.45491E+6
  -8.73805E+5   1.40409E+6
  -9.01326E+5   1.41641E+6
  -8.89106E+5   1.38802E+6
  -9.09380E+5   1.33816E+6
  -9.39036E+5   1.32222E+6
  -9.60539E+5   1.28314E+6
  -1.00038E+6   1.24137E+6
  -1.01912E+6   1.22001E+6
  -1.02919E+6   1.17426E+6
  -1.06147E+6   1.13168E+6
  -1.08062E+6   1.10874E+6
  -1.09019E+6   1.07036E+6
  -1.11068E+6   1.03079E+6
  -1.11557E+6   1.01092E+6
  -1.11995E+6   9.78094E+5
  -1.13332E+6   9.50416E+5
  -1.13660E+6   9.27335E+5
  -1.13864E+6   8.95685E+5
  -1.15474E+6   8.61234E+5
  -1.16042E+6   8.30887E+5
  -1.16667E+6   7.93698E+5
  -1.17870E+6   7.59816E+5
  -1.18325E+6   7.25915E+5
  -1.18751E+6   6.88154E+5
  -1.19906E+6   6.53694E+5
  -1.20457E+6   6.18671E+5
  -1.20323E+6   5.82640E+5
  -1.20520E+6   5.54063E+5
  -1.20389E+6   5.25950E+5
  -1.20163E+6   4.94563E+5
  -1.19741E+6   4.68482E+5
  -1.19352E+6   4.44958E+5
  -1.19046E+6   4.16783E+5
  -1.18860E+6   3.90255E+5
  -1.18391E+6   3.61811E+5
  -1.18060E+6   3.28565E+5
  -1.17567E+6   2.96109E+5
  -1.16964E+6   2.65498E+5
  -1.16437E+6   2.34665E+5
  -1.15942E+6   2.03623E+5
  -1.15312E+6   1.72536E+5
  -1.14666E+6   1.42421E+5
  -1.13875E+6   1.13763E+5
  -1.12989E+6   8.55446E+4
  -1.12035E+6   5.81913E+4
  -1.10953E+6   3.23549E+4
  -1.09835E+6   8.66468E+3
  -1.08873E+6  -1.56242E+4
  -1.07845E+6  -4.10643E+4
  -1.06638E+6  -6.57373E+4
  -1.05492E+6  -9.10576E+4
  -1.04291E+6  -1.16853E+5
  -1.02883E+6  -1.42904E+5
  -1.01328E+6  -1.67002E+5
  -9.98574E+5  -1.90538E+5
  -9.84322E+5  -2.14364E+5
  -9.70658E+5  -2.36960E+5
  -9.55808E+5  -2.59331E+5
  -9.39692E+5  -2.80746E+5
  -9.23591E+5  -3.00794E+5
  -9.08568E+5  -3.19474E+5
  -8.93473E+5  -3.38881E+5
  -8.76429E+5  -3.57811E+5
  -8.58903E+5  -3.76202E+5
  -8.41930E+5  -3.94279E+5
  -8.24833E+5  -4.12342E+5
  -8.06621E+5  -4.30124E+5
  -7.87264E+5  -4.47884E+5
  -7.67778E+5  -4.64491E+5
  -7.48926E+5  -4.80109E+5
  -7.29837E+5  -4.94860E+5
  -7.10829E+5  -5.09548E+5
  -6.90587E+5  -5.22896E+5
  -6.71443E+5  -5.34737E+5
  -6.52856E+5  -5.45850E+5
  -6.34238E+5  -5.56577E+5
  -6.15270E+5  -5.66553E+5
  -5.96523E+5  -5.75039E+5
  -5.78235E+5  -5.83726E+5
  -5.59415E+5  -5.92290E+5
  -5.40084E+5  -6.00922E+5
  -5.19949E+5  -6.08854E+5
  -4.99846E+5  -6.15432E+5
  -4.80089E+5  -6.21936E+5
  -4.61073E+5  -6.28298E+5
  -4.41572E+5  -6.34501E+5
  -4.21427E+5  -6.39853E+5
  -4.02303E+5  -6.43782E+5
  -3.84160E+5  -6.47720E+5
  -3.65064E+5  -6.51563E+5
  -3.45563E+5  -6.54148E+5
  -3.26948E+5  -6.55514E+5
  -3.09844E+5  -6.56488E+5
  -2.92742E+5  -6.57551E+5
  -2.74956E+5  -6.58625E+5
  -2.56328E+5  -6.58915E+5
  -2.38276E+5  -6.58524E+5
  -2.21340E+5  -6.57120E+5
  -2.04593E+5  -6.56663E+5
  -1.86883E+5  -6.55950E+5
  -1.68925E+5  -6.54719E+5
  -1.50806E+5  -6.52846E+5
  -1.34014E+5  -6.50654E+5
  -1.16935E+5  -6.48284E+5
  -9.98842E+4  -6.45378E+5
  -8.29881E+4  -6.41427E+5
  -6.73103E+4  -6.36484E+5
  -5.24163E+4  -6.32278E+5
  -3.75399E+4  -6.28086E+5
  -2.25035E+4  -6.23921E+5
  -7.10599E+3  -6.18863E+5
   7.65250E+3  -6.13527E+5
   2.23804E+4  -6.07946E+5
   3.71616E+4  -6.01536E+5
   5.05837E+4  -5.94654E+5
   6.42038E+4  -5.87831E+5
   7.79528E+4  -5.80770E+5
   9.17861E+4  -5.73929E+5
   1.05388E+5  -5.66388E+5
   1.18798E+5  -5.58386E+5
   1.31185E+5  -5.49629E+5
   1.43709E+5  -5.41283E+5
   1.55760E+5  -5.32941E+5
   1.67575E+5  -5.23815E+5
   1.78715E+5  -5.14564E+5
   1.89481E+5  -5.05578E+5
   2.00816E+5  -4.96747E+5
   2.11740E+5  -4.86636E+5
   2.21747E+5  -4.75985E+5
   2.30951E+5  -4.65596E+5
   2.39633E+5  -4.55496E+5
   2.48402E+5  -4.45521E+5
   2.57287E+5  -4.35300E+5
   2.65644E+5  -4.24375E+5
   2.73284E+5  -4.13556E+5
   2.80405E+5  -4.02330E+5
   2.87363E+5  -3.91578E+5
   2.93254E+5  -3.80671E+5
   2.99224E+5  -3.69538E+5
   3.04834E+5  -3.58579E+5
   3.10092E+5  -3.48031E+5
   3.15409E+5  -3.37557E+5
   3.20421E+5  -3.26368E+5
   3.24727E+5  -3.15233E+5
   3.28338E+5  -3.04350E+5
   3.32522E+5  -2.93700E+5
   3.35974E+5  -2.82970E+5
   3.39024E+5  -2.71790E+5
   3.41868E+5  -2.61112E+5
   3.44676E+5  -2.50142E+5
   3.47081E+5  -2.39744E+5
   3.49079E+5  -2.28600E+5
   3.50505E+5  -2.18218E+5
   3.51872E+5  -2.08012E+5
   3.53081E+5  -1.98067E+5
   3.54235E+5  -1.87748E+5
   3.54869E+5  -1.77214E+5
   3.55267E+5  -1.67721E+5
   3.55353E+5  -1.57925E+5
   3.55303E+5  -1.48190E+5
   3.55184E+5  -1.38896E+5
   3.54549E+5  -1.29052E+5
   3.53824E+5  -1.19438E+5
   3.53066E+5  -1.10759E+5
   3.52187E+5  -1.00937E+5
   3.50702E+5  -9.12955E+4
   3.49022E+5  -8.21348E+4
   3.47154E+5  -7.33249E+4
   3.45538E+5  -6.48102E+4
   3.43695E+5  -5.58718E+4
   3.41529E+5  -4.67786E+4
   3.39247E+5  -3.83558E+4
   3.36212E+5  -2.97117E+4
   3.33590E+5  -2.18872E+4
   3.30328E+5  -1.37438E+4
   3.27328E+5  -5.91112E+3
   3.24016E+5   1.51108E+3
   3.21009E+5   8.66286E+3
   3.17939E+5   1.62431E+4
   3.14473E+5   2.40321E+4
   3.10469E+5   3.19845E+4
   3.06248E+5   3.89619E+4
   3.02116E+5   4.58905E+4
   2.97995E+5   5.28459E+4
   2.94107E+5   5.97585E+4
   2.89580E+5   6.63984E+4
   2.84782E+5   7.30748E+4
   2.80312E+5   7.97665E+4
   2.75494E+5   8.61322E+4
   2.70467E+5   9.23285E+4
   2.65282E+5   9.79802E+4
   2.60370E+5   1.03627E+5
   2.55506E+5   1.09125E+5
   2.50104E+5   1.14876E+5
   2.44713E+5   1.19886E+5
   2.39253E+5   1.24959E+5
   2.33770E+5   1.29953E+5
   2.28190E+5   1.34944E+5
   2.22557E+5   1.39652E+5
   2.16674E+5   1.43804E+5
   2.11441E+5   1.48127E+5
   2.05627E+5   1.52024E+5
   1.99792E+5   1.55876E+5
   1.94063E+5   1.59925E+5
   1.87977E+5   1.63010E+5
   1.82319E+5   1.66000E+5
   1.76631E+5   1.69197E+5
   1.70588E+5   1.71983E+5
   1.65004E+5   1.74662E+5
   1.59407E+5   1.76928E+5
   1.53663E+5   1.79312E+5
   1.47917E+5   1.81835E+5
   1.42085E+5   1.83823E+5
   1.36247E+5   1.85487E+5
   1.30814E+5   1.86923E+5
   1.25081E+5   1.88432E+5
   1.19681E+5   1.90077E+5
   1.14171E+5   1.91237E+5
   1.08487E+5   1.92017E+5
   1.03007E+5   1.92760E+5
   9.79581E+4   1.93310E+5
   9.26420E+4   1.93909E+5
   8.76177E+4   1.94246E+5
   8.25409E+4   1.94756E+5
   7.74973E+4   1.94986E+5
   7.26638E+4   1.95025E+5
   6.75988E+4   1.94737E+5
   6.28414E+4   1.94348E+5
   5.82782E+4   1.94007E+5
   5.38156E+4   1.93626E+5
   4.89992E+4   1.93321E+5
   4.43451E+4   1.92517E+5
   3.98359E+4   1.91892E+5
   3.56056E+4   1.90742E+5
   3.13509E+4   1.90092E+5
   2.70688E+4   1.88989E+5
   2.28677E+4   1.87925E+5
   1.92957E+4   1.86864E+5
   1.48331E+4   1.85619E+5
   1.09088E+4   1.84492E+5
   6.96148E+3   1.82911E+5
   3.43251E+3   1.81441E+5
  -1.87095E+2   1.79501E+5
  -3.87576E+3   1.77945E+5
  -7.42793E+3   1.76378E+5
  -1.09154E+4   1.74660E+5
  -1.45282E+4   1.73003E+5
  -1.79970E+4   1.70941E+5
  -2.15678E+4   1.69229E+5
  -2.50559E+4   1.67043E+5
  -2.81991E+4   1.64760E+5
  -3.10145E+4   1.62581E+5
  -3.40438E+4   1.60950E+5
  -3.70452E+4   1.58500E+5
  -3.98945E+4   1.56278E+5
  -4.31786E+4   1.53766E+5
  -4.55299E+4   1.51206E+5
  -4.78537E+4   1.48823E+5
  -5.05465E+4   1.46542E+5
  -5.29081E+4   1.44062E+5
  -5.51954E+4   1.41459E+5
  -5.77010E+4   1.39043E+5
  -6.03214E+4   1.36488E+5
  -6.24095E+4   1.33840E+5
  -6.46070E+4   1.31090E+5
  -6.66847E+4   1.28425E+5
  -6.83471E+4   1.25770E+5
  -7.05954E+4   1.22981E+5
  -7.18622E+4   1.20314E+5
  -7.38561E+4   1.17384E+5
  -7.56244E+4   1.14764E+5
  -7.68515E+4   1.12256E+5
  -7.86599E+4   1.09252E+5
  -7.98315E+4   1.06577E+5
  -8.11172E+4   1.03658E+5
  -8.22191E+4   1.01081E+5
  -8.35903E+4   9.84182E+4
  -8.48127E+4   9.54710E+4
  -8.57855E+4   9.26733E+4
  -8.65806E+4   9.00087E+4
  -8.75452E+4   8.71363E+4
  -8.82210E+4   8.44285E+4
  -8.92498E+4   8.17087E+4
  -8.98392E+4   7.89558E+4
  -9.02465E+4   7.64595E+4
  -9.10081E+4   7.39791E+4
  -9.15418E+4   7.12051E+4
  -9.22567E+4   6.86026E+4
  -9.23747E+4   6.62032E+4
  -9.27947E+4   6.34279E+4
  -9.29134E+4   6.10816E+4
  -9.33666E+4   5.83369E+4
  -9.35286E+4   5.59045E+4
  -9.34789E+4   5.30259E+4
  -9.35853E+4   5.07912E+4
  -9.36807E+4   4.82404E+4
  -9.36462E+4   4.59491E+4
  -9.32002E+4   4.35326E+4
  -9.30415E+4   4.14367E+4
  -9.32100E+4   3.89245E+4
  -9.28164E+4   3.64185E+4
  -9.24221E+4   3.41181E+4
  -9.20929E+4   3.17750E+4
  -9.16292E+4   2.96275E+4
  -9.12475E+4   2.73836E+4
  -9.09046E+4   2.53642E+4
  -9.01249E+4   2.33507E+4
  -8.93113E+4   2.11409E+4
  -8.92787E+4   1.88822E+4
  -8.83986E+4   1.66983E+4
  -8.78002E+4   1.50214E+4
  -8.66597E+4   1.30656E+4
  -8.62927E+4   1.09206E+4
  -8.53525E+4   9.07427E+3
  -8.47341E+4   7.31884E+3
  -8.39433E+4   5.20445E+3
  -8.30555E+4   3.70048E+3
  -8.21206E+4   1.70661E+3
  -8.10941E+4  -1.19209E+2
  -8.02500E+4  -1.75635E+3
  -7.91563E+4  -3.45314E+3
  -7.83272E+4  -4.92403E+3
  -7.74431E+4  -6.58744E+3
  -7.66423E+4  -8.18108E+3
  -7.52947E+4  -9.84662E+3
  -7.39946E+4  -1.12363E+4
  -7.28842E+4  -1.27765E+4
  -7.17434E+4  -1.40952E+4
  -7.06290E+4  -1.54429E+4
  -6.96690E+4  -1.66105E+4
  -6.86375E+4  -1.80407E+4
  -6.71268E+4  -1.95034E+4
  -6.61659E+4  -2.07302E+4
  -6.47275E+4  -2.17172E+4
  -6.36378E+4  -2.28356E+4
  -6.22877E+4  -2.40173E+4
  -6.13179E+4  -2.51112E+4
  -6.00862E+4  -2.61263E+4
  -5.87062E+4  -2.69738E+4
  -5.76017E+4  -2.78989E+4
  -5.62881E+4  -2.88772E+4
  -5.49700E+4  -2.97580E+4
  -5.40676E+4  -3.03216E+4
  -5.28081E+4  -3.12564E+4
  -5.12408E+4  -3.19648E+4
  -5.00939E+4  -3.26568E+4
  -4.90176E+4  -3.33972E+4
  -4.75563E+4  -3.40679E+4
  -4.63276E+4  -3.47711E+4
  -4.52681E+4  -3.52604E+4
  -4.36859E+4  -3.58065E+4
  -4.28682E+4  -3.59702E+4
  -4.15758E+4  -3.66472E+4
  -4.05996E+4  -3.71899E+4
  -3.90049E+4  -3.76459E+4
