 
 $NMID
 ID=''
 FMTDAT='(2E13.5)'
 TRAMP=   1.00000E+0
 VOLUME=   1.00000E+0
 $END
   4.04764E+4   2.23844E+4
   2.26796E+4  -2.21714E+4
  -2.69834E+2  -2.04627E+4
  -1.30717E+4  -1.18700E+3
  -1.25203E+4   4.55267E+3
   2.76029E+2   1.16588E+3
   7.71132E+3   1.87321E+3
   3.50005E+3   2.84648E+3
   1.18588E+2  -1.26950E+3
  -5.70574E+2  -1.64328E+3
  -2.11057E+3   1.91310E+3
  -1.65843E+3   2.53499E+3
   1.84306E+2  -1.26685E+3
  -1.10607E+3  -2.96695E+3
  -7.34948E+2  -1.74057E+3
   1.22741E+3  -9.82475E+1
   7.38995E+2   5.51802E+2
  -3.19648E+2  -5.67948E+2
   1.25751E+3  -4.59795E+2
   9.54814E+2   1.52640E+3
  -8.05360E+2   9.95126E+2
  -1.27551E+2  -1.53005E+3
   1.29197E+3  -1.78992E+2
  -2.93210E+2   1.65711E+3
  -1.32725E+3  -7.53999E+2
   1.00628E+3  -1.69306E+3
   2.24703E+3   1.56125E+3
  -5.64591E+2   2.10020E+3
  -1.63050E+3  -1.08074E+3
   1.42066E+2  -2.11645E+3
   1.02350E+3   9.04743E+1
  -5.33117E+2   1.54948E+3
  -1.82636E+3   3.17244E+2
  -1.09251E+3  -1.51618E+3
   1.23898E+3  -2.54221E+3
   2.51704E+3  -3.56772E+2
   4.94897E+2   1.56643E+3
  -1.70508E+3   8.99727E+2
  -2.80944E+2  -3.84004E+2
   5.47974E+2   4.72357E+2
  -9.68462E+2  -1.32296E+2
  -9.45689E+2  -1.61858E+3
   1.05067E+3  -9.35657E+2
   9.15487E+2   6.65228E+2
  -7.72547E+1   1.76039E+2
   4.86767E+2  -2.64685E+2
   4.95716E+2   1.26135E+3
  -1.59781E+3   1.30411E+3
  -1.76078E+3  -7.64463E+2
  -9.77581E+1  -1.56358E+3
   8.88465E+2  -3.76999E+2
   2.77042E+2  -2.22537E+2
   2.26372E+2  -2.87055E+2
   6.17891E+2  -3.25473E+1
   3.18116E+2   6.41758E+2
  -3.83518E+2   6.65515E+2
  -6.46369E+2  -2.50498E+2
  -2.94147E+2  -8.89989E+2
   4.77534E+2  -8.93480E+2
   5.25717E+2   9.08069E+1
   2.73037E+2   4.31028E+2
   1.77064E+2   2.02751E+2
   2.83466E+2   1.19084E+3
  -5.82774E+2   1.55677E+3
  -1.25813E+3   2.87808E+2
  -8.55304E+2  -6.13063E+2
   7.06705E+1  -1.11034E+3
   3.00012E+2  -7.19365E+2
   6.63649E+2  -2.27671E+2
   5.59173E+2   3.01448E+2
   7.72597E+1   2.16679E+2
  -5.83477E+1  -2.21730E+2
   6.35238E+2  -7.13829E+1
   7.25172E+2   5.90338E+2
  -1.53196E+2   7.22883E+2
  -1.86702E+2  -1.24644E+2
   2.26775E+2   1.29939E+0
   3.06800E+2   2.36548E+2
  -1.72520E+1   3.99811E+2
  -3.95685E+2   3.68223E+2
  -4.32957E+2   3.23318E+2
   3.05307E+2  -2.63655E+2
   1.31709E+2  -8.03107E+1
   6.75708E+1   7.26283E+1
  -1.51761E+2  -1.69297E+2
   1.09602E+2  -2.43048E+2
   5.18325E+2  -1.05278E+2
   6.09598E+2   3.47232E+2
   2.46182E+2   2.75876E+2
   2.12018E+2  -4.79016E+1
   3.47709E+2   2.00784E+2
   5.83872E+2   4.90712E+2
  -7.24799E+1   7.95050E+2
  -4.28666E+2   1.12678E+2
  -5.01273E+2  -1.51264E+2
  -3.86306E+1  -3.07302E+2
   4.44898E+2  -2.67277E+2
  -1.14559E+2  -1.77887E+2
  -3.35835E+2  -2.62080E+2
   2.46116E+2  -5.04755E+2
   8.03646E+2  -8.49630E+0
   4.33747E+2   7.31887E+2
  -2.22826E+2   4.88841E+2
  -3.12868E+2  -2.27811E+2
   2.42775E+2  -1.40095E+2
   5.28469E+2  -9.44284E+1
   3.66193E+2   2.00408E+2
  -2.88895E+2   3.95799E+2
  -9.60108E+2  -2.12278E+2
  -5.22506E+2  -1.02138E+3
   5.12072E+2  -5.64677E+2
   7.41812E+2  -2.15631E+1
   2.64196E+2   2.22935E+2
  -2.18258E+2   7.32927E+1
   2.73944E+2  -1.46811E+2
   1.89585E+2   4.58965E+2
  -1.92647E+2   6.69997E+2
  -7.64248E+2   2.93011E+2
  -5.67232E+2  -2.09851E+2
  -4.16550E+1  -3.97791E+2
   3.46102E+2  -2.84931E+2
   2.10040E+2  -1.30147E+2
   3.45084E+2  -2.67270E-1
   1.17978E+2   1.07522E+2
  -4.55297E+1   2.63244E+2
  -1.76580E+2   5.65367E+1
  -1.07434E+2  -2.80295E+2
  -9.55932E+1  -2.47639E+2
   3.07848E+2  -1.50742E+2
   1.11043E+2   1.09992E+2
   2.62630E+2   2.99924E+2
  -8.90632E+1   3.05656E+2
  -2.07719E+2   7.20781E+1
  -3.51018E+1  -1.09015E+2
   1.05625E+2   6.09259E+1
  -3.40334E+2   1.92159E+2
  -1.15966E+2  -1.35801E+2
   2.00642E+2  -2.25012E+1
   4.64646E+2   7.57996E+1
   1.14979E+2   2.04317E+2
  -4.47008E+2   2.34104E+2
  -2.09254E+2  -1.72169E+2
  -1.05213E+2  -3.24187E+2
   2.01633E+2  -1.18590E+2
   1.54110E+2   3.63473E+2
  -2.02502E+1   3.40409E+2
  -2.68563E+2   4.32675E+2
  -2.53866E+2   9.26342E+1
  -5.72936E+1   1.14451E+2
  -2.73254E+2   1.80200E+2
  -1.31951E+2   1.18322E+2
  -5.43199E+1  -2.97633E+2
   6.97884E+0  -1.92743E+2
   2.66564E+2   2.69645E+2
  -1.59146E+1   1.79024E+1
  -7.24663E+1   4.41631E+1
  -1.63683E+1   3.86124E+1
   3.03764E+2   1.95028E+2
  -4.67804E+1   1.83198E+2
   2.74897E+1   1.86602E+2
   1.72381E+1   1.73091E+1
  -1.40863E+2   2.18975E+2
  -2.63523E+2   1.18204E+2
  -1.75955E+2   1.65737E+1
  -3.53100E+1  -1.59520E+2
   5.21670E+1  -4.80944E+0
   1.43663E+2  -1.79162E+1
   1.47517E+2   1.56162E+2
  -2.10367E+1   7.37002E+1
  -4.95674E+1   5.02103E+1
   1.59510E+2   2.62793E+1
   5.65733E+1   2.37146E+2
  -5.15351E+1   1.55604E+2
  -5.01756E+1   9.59745E+1
  -1.80675E+2  -1.01649E+2
   2.96004E+1  -1.04846E+2
  -6.41926E+1   1.60138E+2
   1.40864E+1   2.84358E+2
  -2.42900E+2  -2.61645E+2
  -2.51317E+2  -3.20453E+1
  -7.24483E+1   2.02986E+2
   1.03375E+2   3.97191E+2
   2.23652E+1   1.49067E+2
  -6.65220E+1   1.23696E+2
  -1.49532E+2   1.35688E+2
  -7.90802E+1   7.03661E+1
  -2.39960E+2   7.54953E+1
  -1.84644E+2  -3.13024E+1
  -4.07523E+1  -6.05480E+1
   3.93795E+1  -1.64622E+2
   1.28516E+2   2.27437E+2
  -6.73027E+1   2.05293E+2
   1.85740E+2   1.20193E+2
  -2.26422E+2   1.12411E+0
  -2.39494E+1  -1.04459E+1
  -2.13814E+1  -1.05391E+2
   1.84311E+2   2.80491E+2
   4.62895E+1   2.47075E+1
   6.58666E+1   1.44706E+1
   2.28886E+2   3.58652E+1
  -4.96360E-1   3.80117E+2
  -2.69465E+2  -3.22205E+0
  -1.34188E+2  -1.10298E+2
  -3.60256E+1  -2.13342E+2
   2.07472E+2  -2.37553E+2
   1.34184E+2   4.60637E+1
  -9.19009E+1   1.58393E+1
  -8.45636E+1  -7.67417E+1
   1.63828E+2   1.94630E+1
   5.79775E+1   1.80975E+1
  -1.68912E+2  -1.15025E+2
  -2.69310E+1  -2.14537E+2
   5.59286E+1  -3.08643E+1
   2.15029E+2  -1.55083E+2
   5.61623E+1   1.01799E+2
  -1.07825E+2   6.97565E+1
  -1.88792E+2   4.26097E+1
  -2.13264E+2  -7.34750E+1
   1.15735E+2  -1.77713E+2
  -1.21563E+1  -5.89581E+1
   5.79036E+1  -4.35389E+1
  -1.40133E+2  -1.55344E+2
  -1.06305E+2   1.54000E+2
   1.75478E+2   1.40547E+2
  -1.88082E+2  -9.80519E+0
  -1.74492E+2  -1.78894E+2
   1.65109E+1   4.13990E+1
   3.73383E+1  -1.00844E+2
   8.38847E+1  -7.39784E+1
   4.14619E+1  -3.47373E+1
  -1.07334E+2   7.95680E+1
  -1.32356E+1  -2.45875E+2
   2.38197E+1  -2.20730E+1
  -1.45048E+2   6.69092E+1
  -1.12076E+2  -2.06200E+2
  -1.47544E+1  -1.29521E+2
  -9.78849E+1  -1.09124E+1
  -1.00614E+2  -8.08812E+0
  -3.13909E+0   2.26769E+2
  -2.89241E+2  -1.35970E+2
  -4.74084E+1  -2.65225E+1
  -1.06994E+2  -2.53343E+1
   6.66291E+1   2.95558E+1
   8.26948E+0   6.02573E+1
   2.33261E+1   1.03921E+2
  -2.07115E+2  -3.92655E+1
  -2.03766E+2   1.23918E+2
  -1.41615E+2  -1.24312E+2
  -1.81237E+2  -4.28433E+1
   8.83191E+1   1.29887E+2
  -2.50410E+2  -1.18436E+2
   8.36839E+1   2.07752E+1
   7.98539E+1   1.06880E+2
  -1.83834E+2  -1.51026E+2
   3.08889E+1  -1.85541E+2
   6.17523E+1   1.18567E+2
  -1.25232E+2  -3.80716E+1
   1.79485E+2  -1.71551E+2
  -3.46945E+1   9.71961E+1
  -3.59200E+1   1.32031E+2
   1.53551E+2  -1.74411E+2
  -1.45128E+2  -1.60576E+2
  -1.33372E+1   8.25657E+1
  -1.16256E+2   2.77966E+1
   6.70665E+1  -6.28604E+1
   4.35532E+1  -9.80311E+0
   7.38378E+1   7.34642E-1
  -1.69189E+2   1.79620E+2
  -1.73062E+1   2.65163E+1
  -1.86968E+1   1.79520E+2
  -9.84035E+1  -1.59642E+2
   2.15060E+1   1.62611E+2
  -7.49965E+1  -1.02804E+2
  -1.20545E+2   9.67351E+0
  -5.53299E+1  -5.98687E+1
  -2.66208E-1   1.28818E+2
  -1.75266E+2   3.18617E+1
   2.27452E+2  -5.79052E+1
  -9.68045E+1   9.42080E+1
  -5.61780E+1  -1.37244E+2
  -1.10166E+2   2.30805E+2
   1.35571E+1   9.38304E+1
   7.85122E+1   1.32151E+2
  -1.00373E+2  -1.71708E+1
  -1.11654E+2   8.04762E+1
  -1.62197E+1  -1.11756E+2
  -2.16925E+2  -9.29183E+1
  -9.62416E+1  -8.87530E+1
  -1.55747E+2  -1.11266E+2
   1.88646E+2  -4.20230E+0
   7.77427E+1  -1.84955E+2
   2.17506E+1  -9.58357E+1
  -3.86098E+1   1.97821E+1
   1.75994E+0  -3.09970E+1
  -5.34068E+1  -3.69274E+1
   1.32854E+1  -6.84920E+0
  -2.01254E+2  -2.40602E+1
   7.54262E+1   1.11141E+2
   4.40880E+1   1.49375E+2
  -1.95744E+2   4.93378E+0
  -4.68942E+1  -2.20728E+2
   1.70864E+0  -7.35029E+1
  -5.88127E+1  -2.48702E+2
  -2.39602E+2   5.27504E+1
  -1.79229E+2  -9.52997E+1
   2.87705E+2   5.66458E+0
  -1.79078E+2   3.28591E+1
  -6.12865E+1  -4.46814E+1
   1.29968E+2  -2.37942E+2
  -6.40954E+1   8.02874E+1
  -2.10574E+2   9.08492E+1
  -1.66975E+2  -1.36854E+2
  -5.90947E+1  -1.78377E+2
   9.18982E+1  -8.43259E+1
  -1.65346E+2  -1.62418E+2
   1.24433E+2   3.47470E-2
  -1.10930E+2   8.33499E+1
  -2.11252E+2  -6.54306E+1
  -9.91739E+1  -5.57118E+1
  -1.47527E+1  -1.70460E+2
  -8.49096E+1  -3.57314E+1
  -3.85431E+1   4.60559E+1
  -6.34870E+1   3.93904E+1
  -1.82776E+2  -2.85263E+1
   3.21092E+0   8.70318E+1
  -6.51657E+1  -1.15172E+2
   2.00539E+1  -7.81562E+1
   2.02222E+2   3.47223E+1
  -1.19082E+2   2.37402E+1
   3.46902E+1  -7.79040E+0
  -6.89898E+1   3.24371E+1
  -7.72681E+1  -6.19641E+0
  -6.26191E+1  -9.34515E+1
   2.99570E+1  -1.80469E+2
  -2.63412E+1   1.79855E+2
   6.78782E+1   8.84629E+1
   2.50307E+2   6.90693E+1
   4.06250E+1  -6.13947E+1
   6.89098E+0  -3.14667E+1
   1.21901E+2   1.16480E+2
  -1.83555E+2  -1.68661E+2
  -1.96980E+1  -3.09100E+1
   9.16160E+1  -1.90552E+2
   6.28580E+1   1.28119E+1
   1.18593E+1   7.40601E+1
   5.33668E+1  -3.93424E+1
  -4.10690E+1   8.11908E+1
   1.56210E+2   2.01995E+2
   4.56681E+1  -1.92207E+2
   2.12436E+1  -5.36099E+1
  -6.04803E+1  -7.41378E+1
  -1.20565E+2  -5.84845E+1
   1.16172E+2  -1.08254E+2
   6.70460E+0   2.93542E+2
  -1.31965E+2   5.86733E+0
  -5.80705E+1  -5.05127E+1
  -1.97758E+1  -1.13714E+2
   2.16849E+2  -5.17556E+1
   6.39112E+0   8.44650E+1
   1.66967E+2   2.49955E+2
  -4.95519E+1  -1.01785E+2
   1.29474E+1  -4.10404E+1
  -1.43106E+2   3.09670E+2
   2.62457E+2  -4.75433E+1
  -2.41145E+1   6.53837E+0
   1.28432E+1  -9.98272E+1
  -1.43326E+1   1.89819E+2
