 
 $NMID
 ID=''
 FMTDAT='(2E13.5)'
 TRAMP=   1.00000E+0
 VOLUME=   1.00000E+0
 $END
   1.93482E+4   9.98554E+3
   3.66369E+4  -9.56506E+3
  -5.11606E+3  -4.24194E+4
  -3.91461E+4  -7.46150E+2
  -9.21887E+2   4.11690E+4
   3.30674E+4   5.36508E+3
   4.87982E+3  -3.07078E+4
  -2.25662E+4  -7.80053E+3
  -5.19093E+3   1.85087E+4
   1.67786E+4   9.26221E+3
   9.39220E+3  -8.58207E+3
  -9.20849E+3  -7.98055E+3
  -8.18651E+3   4.90639E+3
   6.04018E+3   9.68096E+3
   4.55553E+3  -3.98698E+0
  -5.22224E+3  -6.25937E+3
  -2.27595E+3  -1.13636E+3
   3.29255E+3   2.88357E+3
   5.75437E+1   9.23835E+2
  -1.37395E+3  -1.67809E+3
   4.84930E+2  -1.08853E+3
  -1.87971E+2  -2.80561E+2
  -5.87983E+2  -6.93830E+2
   5.37132E+2  -2.57366E+2
  -5.14522E+1   1.08663E+3
  -4.23792E+2  -1.23495E+3
   1.46763E+2  -2.55551E+3
   4.33142E+2   1.59240E+3
   2.51432E+2   2.74843E+3
   3.88728E+1  -1.06277E+3
  -2.63184E+2  -2.37261E+3
  -1.32748E+2   2.02310E+2
   3.99647E+2   1.72183E+3
   1.30636E+2   1.31163E+3
  -1.63212E+3  -8.84967E+1
  -1.95759E+3  -1.48340E+3
   4.42742E+2  -1.20691E+3
   1.40194E+3   1.43775E+2
  -7.55116E+2   4.74176E+2
  -8.07017E+2   1.40694E+2
   1.04072E+3   6.40951E+2
   4.73792E+2   4.95983E+2
  -1.68506E+3  -3.40963E+2
  -1.38993E+3  -1.67990E+2
   5.23889E+2  -3.80594E+2
   1.56138E+3  -1.07769E+3
   1.15133E+3  -5.90279E+2
   4.55234E+2   1.23840E+3
  -3.43134E+1   1.79962E+3
  -4.72157E+1   3.35679E+2
  -3.35223E+2  -3.65648E+2
  -9.13407E+2   4.62558E+2
  -3.18351E+2   3.90402E+1
   2.88614E+2  -5.47941E+2
   1.32934E+2  -5.55536E+2
   3.15387E+1   2.28106E+1
   2.62637E+2   6.20792E+2
   3.12814E+2   6.28944E+2
  -6.98560E+2   4.87660E+2
  -8.74203E+2  -6.78682E+2
  -1.53373E+2  -8.99160E+2
   7.95890E+2  -5.61625E+2
   5.51434E+2  -2.55475E+2
   7.33727E+2  -1.06180E+2
   9.90777E+2   3.38521E+2
   5.57221E+2   1.27371E+3
  -7.28853E+2   1.06160E+3
  -1.36326E+3   1.76556E-1
  -3.42579E+2  -6.80016E+2
   7.91292E+2  -5.15472E+2
   2.68340E+2   5.14726E+2
  -6.87019E+2   3.91320E+1
  -2.17097E+2  -6.06804E+2
   2.64699E+2  -6.58814E+2
   3.33706E+2  -1.74950E+2
   1.48668E+2   4.80305E+1
  -1.40384E+2  -3.86825E+2
   2.16264E+2  -4.81853E+2
   2.09016E+2   4.83873E+1
   3.35593E+2   4.52537E+2
   5.69014E+2   3.53416E+2
   1.30482E+2  -1.34129E+2
  -3.49898E+2  -2.15408E+2
   1.26585E+2   7.27671E+0
   4.30648E+2   2.35273E+2
  -2.10389E+2  -2.28779E+2
  -4.04560E+2  -5.67377E+2
  -2.60457E+1  -2.50473E+2
   1.84690E+2  -1.42106E+2
  -1.19666E+2   2.43019E+0
  -1.80802E+2  -4.81422E+2
   1.83689E+2  -5.10694E+2
   5.39918E+2  -5.72908E+2
   6.54429E+2  -5.84033E+1
   4.99911E+2   5.81513E+2
  -3.05562E+2   6.04746E+2
  -5.41015E+2  -3.20483E+1
   1.58997E+2  -4.38997E+2
   8.16537E+0   1.91148E+2
  -5.19911E+2   4.31576E+2
  -6.61592E+2  -6.62460E+2
   2.77371E+2  -7.37292E+2
   7.43188E+2   8.75521E+1
   1.13380E+2   8.12063E+2
  -3.96775E+2   3.91272E+2
  -5.98316E+2  -4.80498E+2
   6.78463E+1  -2.84579E+2
   5.20222E+2   3.40255E+2
   1.54478E+2   5.96544E+2
  -2.40682E+2  -1.50218E+1
  -6.88860E+2   2.72955E+2
  -3.71089E+2  -6.86568E+1
  -3.98983E+1  -2.13026E+2
   1.73701E+2  -4.14649E+2
   2.31059E+1   2.00362E+2
  -3.20396E+2   7.07748E+1
   5.79434E+2   7.90513E+0
   3.93259E+2   2.10155E+2
   3.42256E+0   6.69247E+2
  -4.17471E+2   4.05184E+2
   1.07225E+1   3.15965E+1
  -6.20935E+1  -2.97194E+2
  -1.22674E+1  -7.97215E+1
  -3.15841E+2   1.01206E+2
   2.44223E+2   8.92102E+1
   1.32886E+2   8.27941E+1
  -2.76666E+1   6.29196E+1
   2.43644E+0   2.69194E+2
  -2.27659E+2   7.71959E+1
  -6.38551E+1   2.57548E+1
   2.90982E+2   1.27348E+1
   3.97676E+2   1.10469E+2
   4.05117E+2   1.85317E+2
  -2.92123E+2   5.80986E+1
   1.43697E+2   2.90258E+2
   3.98347E+2   2.52220E+2
   1.33417E+2   1.81962E+1
  -8.78004E+1   1.03936E+2
   1.43797E+2  -6.06938E+1
   1.17322E+2   2.72763E+1
   3.98145E+2   9.90170E+1
   1.91484E+2   1.49072E+2
  -2.48313E+2   5.28423E+1
  -2.61590E+2  -9.68861E+1
  -2.55061E+0  -4.15869E+2
   1.71513E+2  -8.42694E+1
   8.58677E+1   1.30813E+2
   3.42010E+2   1.95299E+2
   5.00861E+1  -2.70631E+2
  -3.69336E+1  -6.20663E+1
  -6.73701E+1   3.78380E+2
  -1.89090E+2   4.73055E+2
  -3.69661E+2  -1.55081E+2
  -8.18312E+1  -1.34331E+2
   1.67019E+2  -1.88911E+2
   7.02813E+1   2.66143E+2
  -2.38008E+2   3.31548E+1
   7.77813E+1  -1.45141E+2
   1.48481E+2   8.57400E+0
  -1.97462E+2   9.21771E+0
   4.03661E+1   6.92956E+1
  -3.14043E+1  -2.39295E+2
   7.41095E+1   7.79664E+1
   2.10657E+2   2.35036E+2
  -3.66597E+1   1.18926E+2
   1.39409E+2   1.03187E+2
   1.02449E+2   1.40881E+2
  -2.28935E+2  -5.10866E+1
  -4.39542E+1   3.86263E+1
  -1.71521E+1   3.44698E+1
  -1.11232E+2   1.99121E+2
  -1.72576E+2   1.12959E+2
  -1.38039E+2  -1.06191E+2
   4.46476E+1  -3.42140E+2
  -2.04313E+2   2.99623E+2
  -1.70219E+2   1.03032E+2
  -9.83392E+1  -1.05402E+2
  -8.24525E+1  -2.52811E+2
   1.54150E+2  -2.03561E+2
  -1.45836E+2   1.09678E+2
   6.47040E+1  -6.62657E+1
  -3.07000E+1  -3.93102E+1
   8.67654E+1  -7.67705E+0
  -3.77262E+1   1.52758E+1
  -1.15979E+2   1.00627E+2
   5.50350E+1   1.40685E+2
   1.70615E+2   8.53649E+1
   7.50443E+1   2.46109E+2
   8.08373E+1   2.14857E+2
  -1.81583E+2  -4.03964E+1
  -3.13828E+2  -5.33671E+1
   1.17924E+2  -1.55875E+2
   4.99564E+1  -9.37474E+1
   1.40131E+2   2.26144E+2
   2.93646E+2   1.96872E+1
  -9.29924E+1   1.58263E+2
  -2.08667E+1   1.17987E+2
  -1.58875E+2  -3.06898E+1
  -8.41791E+1   2.93284E+1
  -1.00282E+2   4.44967E+1
   9.14681E+1  -2.60901E+1
   2.28034E+2   1.21648E+2
  -2.09457E+2  -7.21810E+1
  -2.05191E+2  -1.59143E+1
   3.06209E+1  -1.61156E+1
  -2.92962E+2   2.57344E+1
  -5.44521E+1   6.06362E+0
  -2.73916E+1  -1.52721E+1
   5.98176E+1  -1.11359E+2
  -1.18295E+2   3.31414E+2
  -1.65151E+2  -3.04858E+1
   4.62124E+1   1.32855E+1
  -8.95631E+1  -2.71617E+0
  -1.41033E+2  -7.39098E+1
  -9.33362E+1   9.10165E+0
  -3.84615E+1  -8.12623E+1
   6.01280E+1  -2.06745E+2
   1.39334E+2  -1.11593E+2
  -9.09350E+1   4.54812E+1
  -2.11728E+2  -1.00136E+2
  -3.18462E+1  -2.38851E+2
  -1.54547E+2   8.14227E+1
  -5.36997E+1   1.75329E+2
  -2.35537E+2  -3.20149E+1
   7.05723E+1  -1.50857E+1
   2.61691E+1  -4.56840E+1
   4.74117E+1   4.03945E+0
  -1.37432E+2  -1.03844E+2
  -1.13562E+2  -1.81977E+2
  -2.10420E+1   1.35417E+2
  -2.18476E+2   1.51915E+2
  -3.07803E+1   1.50620E+2
   7.23012E+1  -3.72572E+1
  -6.77983E+1  -3.31525E+1
  -6.21138E+1  -1.38643E+2
   1.10430E+2   5.87080E+1
   8.03998E+1   1.24827E+2
   1.19339E+2   1.15000E+2
   1.03878E+1   3.12825E+1
  -1.65492E+1  -7.75951E+1
   6.72006E+1  -6.30274E+0
   2.87049E+1   8.72823E+1
  -1.52931E+2   4.42943E+1
  -5.24050E+0  -1.77150E+2
  -5.64589E+1  -5.80114E+1
  -3.67167E+2   5.67069E+1
  -1.26732E+2  -1.29697E+1
   1.50348E+2  -3.29171E+1
   1.42228E+1  -8.09330E+0
  -1.95905E+1   1.29978E+1
  -3.23152E+2  -1.48148E+2
  -2.14759E+2  -7.39096E+1
  -1.05448E+2   1.79987E+2
  -2.33808E+1  -1.40085E+2
  -1.31621E+2  -1.94693E+2
  -3.48404E+1  -3.49232E+1
   4.13848E+1  -7.52169E+1
   2.61203E+2   3.27110E+1
   1.32596E+2   1.05313E+2
  -3.07860E+1  -1.40451E+1
   4.34790E+1   1.55869E+2
   3.99152E+1   1.84098E+1
   1.45357E+2   4.73512E+1
   7.84697E+1   4.40361E+1
  -2.86760E+1   1.66890E+2
   1.74602E+2   2.07775E+2
  -1.47747E+2   2.51779E+2
   1.08962E+0  -4.59968E+1
   4.43883E+1   1.59572E+2
  -2.59676E+2   5.63713E+1
   3.44479E+1   8.85270E+0
   1.61838E+1  -1.86523E+2
   4.12430E+1  -2.89055E+2
  -5.96760E+1  -1.51230E+2
   5.69260E+1   1.61219E+2
  -1.44961E+2  -1.75349E+2
   3.13653E+1  -1.42139E+2
  -2.40733E+1  -1.37889E+2
  -1.14292E+1   1.88917E+2
   5.01596E+1   1.80004E+2
  -1.72233E+2  -3.20239E+0
  -1.22673E+2   1.85519E+1
  -7.83200E+1  -5.92688E+1
  -2.33516E+1   9.16831E+1
   1.21846E+2   1.25994E+1
   2.62127E+1   1.31547E+2
  -8.58096E+1   2.04630E+2
   3.67461E+0  -9.32580E+1
  -2.66670E+0   2.37345E+1
  -1.15579E+1   1.82630E-1
  -1.06622E+2   6.79030E+1
  -2.50410E+1  -4.42702E+1
   4.32251E+1   2.15053E+1
   1.25286E+2   3.82214E+1
  -1.61286E+2  -2.78016E+1
   8.17983E+1   8.83064E+1
  -1.00745E+2  -2.22131E+1
  -3.10118E+2   4.90337E+1
  -5.21766E+1  -4.42299E+1
   7.04567E+1  -6.29070E+1
  -1.85479E+1  -2.61651E+2
   3.12981E+2   5.73838E+1
   2.17289E+1   7.33525E+1
  -6.02154E+1  -1.13260E+2
  -3.68270E+1   1.66391E+2
  -2.20860E+1   1.71573E+1
  -7.33349E+1  -1.09953E+2
   8.18774E+1  -1.25992E+2
   1.75611E+2   5.15980E+1
  -9.37966E+1  -8.78333E+0
   1.19643E+0   1.18724E+2
   1.75723E+2  -3.61598E+1
  -2.75114E+1   1.78860E+2
   9.10753E+1  -1.36226E+2
  -1.78690E+2  -2.64622E+1
  -1.73145E+2  -3.09093E+1
  -2.59325E+2  -2.94122E+1
  -2.98520E+1   2.45345E+2
  -1.06319E+2  -1.59381E+2
  -4.25197E+2   7.39005E+1
  -4.87895E+1   8.89943E+1
   3.70414E+1   1.36592E+2
   2.21969E+2  -5.41901E+1
  -1.23104E+2   1.97051E+0
   2.22445E+1  -5.33683E+1
  -2.16246E+2   5.39942E+0
  -4.26156E+1   6.99785E+0
  -6.60121E+1   1.51245E+1
  -2.38672E+2  -1.50515E+2
  -4.49361E+1  -8.48914E+1
  -4.91920E+1  -1.48193E+2
  -2.54124E+2   4.68621E+1
   1.67834E+2  -9.95214E+1
  -3.03855E+1  -2.69124E+2
  -5.05352E+1   1.70677E+1
   1.37306E+2   3.32177E+2
   1.50838E+2  -5.20966E+1
  -2.43835E+2   5.34894E+1
  -9.00783E+0  -6.19048E+1
   9.71356E+1  -1.81442E+2
  -7.19015E+1  -1.08613E+2
  -1.95949E+2  -5.81592E+1
  -3.26347E+1  -1.63171E+2
   8.12071E+1   3.43035E+1
  -2.38341E+2  -1.73228E+2
  -2.21803E+2  -7.40758E+1
  -8.87258E+1  -1.74895E+2
   5.70930E+1  -1.33149E+2
   1.14134E+2   6.27643E+1
   2.24920E+2  -2.65019E+2
  -9.32601E+1  -2.23111E+1
   7.13519E+0  -5.24534E+1
   1.78864E+1  -1.49730E+2
   1.23364E+2   1.96514E+1
   1.65218E+1  -1.22289E+1
  -1.09975E+2  -1.40462E+1
   3.39733E+1   9.78188E+1
  -8.24002E+1   5.66656E+1
  -2.77361E+1  -1.81611E+2
  -3.14084E+1   3.70708E+1
  -7.49744E+1   2.78986E+2
  -1.98330E+2   4.17987E+1
  -1.39061E+2  -1.52304E+2
   6.58686E+1  -1.34743E+2
   2.53384E+2   8.12459E+1
   7.92973E+1   1.22657E+2
  -1.79861E+2  -2.77183E+2
