 LCModel (Version 6.3-1N) Copyright: S.W. Provencher.          Ref.: Magn. Reson. Med. 30:672-679 (1993).                
 Slice_N1@21_14  28-Feb-2025 11:41:12
 27 lines in following concentration table = NCONC+1
    Conc.  %SD /Cr+PCr  Metabolite                                         
 3.20E-04   3% 3.3E-04 Mac                                                 
    4.142  42%   4.285 Cr                                                  
    3.592  49%   3.715 PCr                                                 
    5.269  14%   5.451 Ins                                                 
    8.431   8%   8.721 NAA                                                 
    4.888  17%   5.056 Tau                                                 
    2.034  10%   2.104 PCho                                                
    0.000 999%   0.000 GPC                                                 
    8.977   9%   9.286 Glu                                                 
    3.667  18%   3.793 Gln                                                 
    0.000 999%   0.000 Ala                                                 
    1.494  68%   1.545 Asc                                                 
    2.836  29%   2.933 Asp                                                 
    1.006  45%   1.040 GABA                                                
    0.289 195%   0.299 Glc                                                 
    0.966  44%   0.999 GSH                                                 
    4.121  14%   4.262 Lac                                                 
    2.576  24%   2.665 NAAG                                                
    0.000 999%   0.000 PE                                                  
    2.034  10%   2.104 GPC+PCho                                            
   11.007   6%  11.385 NAA+NAAG                                            
   12.644   8%  13.079 Glu+Gln                                             
    7.734   8%   8.000 Cr+PCr                                              
   11.007   6%  11.385 NAA+NAAG                                            
    7.734   8%   8.000 Cr+PCr                                              
   12.644   8%  13.079 Glu+Gln                                             
   6 lines in following misc. output table
  FWHM = 0.049 ppm    S/N =   5                                            
  Data shift = 0.000 ppm                                                   
  Ph:-125 deg       0.0 deg/ppm                                            
  alphaB,S = 2.5E-01,   4.0E+01                                            
   19 spline knots.   Ns = 7(1)                                            
  ( 8) 2 infls.   ( 4) 1 extrs.                                            
  480 points on ppm-axis = NY
      4.100000     4.091866     4.083733     4.075600     4.067466     4.059333     4.051199     4.043066     4.034933     4.026799
      4.018666     4.010532     4.002399     3.994265     3.986132     3.977998     3.969864     3.961731     3.953597     3.945463
      3.937330     3.929196     3.921062     3.912929     3.904795     3.896662     3.888528     3.880394     3.872261     3.864127
      3.855993     3.847860     3.839726     3.831592     3.823459     3.815325     3.807191     3.799058     3.790924     3.782790
      3.774657     3.766523     3.758389     3.750256     3.742122     3.733989     3.725855     3.717721     3.709588     3.701454
      3.693320     3.685187     3.677053     3.668919     3.660786     3.652652     3.644518     3.636385     3.628251     3.620117
      3.611984     3.603850     3.595716     3.587583     3.579449     3.571316     3.563182     3.555048     3.546915     3.538781
      3.530647     3.522514     3.514380     3.506246     3.498113     3.489979     3.481845     3.473712     3.465578     3.457444
      3.449311     3.441177     3.433043     3.424910     3.416776     3.408643     3.400509     3.392375     3.384242     3.376108
      3.367974     3.359841     3.351707     3.343573     3.335440     3.327306     3.319172     3.311039     3.302905     3.294771
      3.286638     3.278504     3.270370     3.262237     3.254103     3.245970     3.237836     3.229702     3.221569     3.213435
      3.205301     3.197168     3.189034     3.180900     3.172767     3.164633     3.156499     3.148366     3.140232     3.132098
      3.123965     3.115831     3.107697     3.099564     3.091430     3.083297     3.075163     3.067029     3.058896     3.050762
      3.042628     3.034495     3.026361     3.018227     3.010094     3.001960     2.993826     2.985693     2.977559     2.969425
      2.961292     2.953158     2.945024     2.936891     2.928757     2.920624     2.912490     2.904356     2.896223     2.888089
      2.879955     2.871822     2.863688     2.855554     2.847421     2.839287     2.831153     2.823020     2.814886     2.806752
      2.798619     2.790485     2.782351     2.774218     2.766084     2.757951     2.749817     2.741683     2.733550     2.725416
      2.717282     2.709149     2.701015     2.692881     2.684748     2.676614     2.668480     2.660347     2.652213     2.644079
      2.635946     2.627812     2.619678     2.611545     2.603411     2.595278     2.587144     2.579010     2.570877     2.562743
      2.554609     2.546476     2.538342     2.530208     2.522075     2.513941     2.505807     2.497674     2.489540     2.481406
      2.473273     2.465139     2.457006     2.448872     2.440738     2.432605     2.424471     2.416337     2.408204     2.400070
      2.391936     2.383803     2.375669     2.367535     2.359402     2.351268     2.343134     2.335001     2.326867     2.318733
      2.310600     2.302466     2.294333     2.286199     2.278065     2.269932     2.261798     2.253664     2.245531     2.237397
      2.229263     2.221130     2.212996     2.204862     2.196729     2.188595     2.180461     2.172328     2.164194     2.156060
      2.147927     2.139793     2.131660     2.123526     2.115392     2.107259     2.099125     2.090991     2.082858     2.074724
      2.066590     2.058457     2.050323     2.042189     2.034056     2.025922     2.017788     2.009655     2.001521     1.993387
      1.985254     1.977120     1.968987     1.960853     1.952719     1.944586     1.936452     1.928318     1.920185     1.912051
      1.903917     1.895784     1.887650     1.879516     1.871383     1.863249     1.855115     1.846982     1.838848     1.830714
      1.822581     1.814447     1.806314     1.798180     1.790046     1.781913     1.773779     1.765645     1.757512     1.749378
      1.741244     1.733111     1.724977     1.716843     1.708710     1.700576     1.692442     1.684309     1.676175     1.668041
      1.659908     1.651774     1.643641     1.635507     1.627373     1.619240     1.611106     1.602972     1.594839     1.586705
      1.578571     1.570438     1.562304     1.554170     1.546037     1.537903     1.529769     1.521636     1.513502     1.505368
      1.497235     1.489101     1.480968     1.472834     1.464700     1.456567     1.448433     1.440299     1.432166     1.424032
      1.415898     1.407765     1.399631     1.391497     1.383364     1.375230     1.367096     1.358963     1.350829     1.342695
      1.334562     1.326428     1.318295     1.310161     1.302027     1.293894     1.285760     1.277626     1.269493     1.261359
      1.253225     1.245092     1.236958     1.228824     1.220691     1.212557     1.204423     1.196290     1.188156     1.180022
      1.171889     1.163755     1.155622     1.147488     1.139354     1.131221     1.123087     1.114953     1.106820     1.098686
      1.090552     1.082419     1.074285     1.066151     1.058018     1.049884     1.041750     1.033617     1.025483     1.017349
      1.009216     1.001082     0.992949     0.984815     0.976681     0.968548     0.960414     0.952280     0.944147     0.936013
      0.927879     0.919746     0.911612     0.903478     0.895345     0.887211     0.879077     0.870944     0.862810     0.854676
      0.846543     0.838409     0.830276     0.822142     0.814008     0.805875     0.797741     0.789607     0.781474     0.773340
      0.765206     0.757073     0.748939     0.740805     0.732672     0.724538     0.716404     0.708271     0.700137     0.692003
      0.683870     0.675736     0.667603     0.659469     0.651335     0.643202     0.635068     0.626934     0.618801     0.610667
      0.602533     0.594400     0.586266     0.578132     0.569999     0.561865     0.553731     0.545598     0.537464     0.529330
      0.521197     0.513063     0.504930     0.496796     0.488662     0.480529     0.472395     0.464261     0.456128     0.447994
      0.439861     0.431727     0.423593     0.415460     0.407326     0.399192     0.391059     0.382925     0.374792     0.366658
      0.358524     0.350391     0.342257     0.334124     0.325990     0.317856     0.309723     0.301589     0.293455     0.285322
      0.277188     0.269055     0.260921     0.252787     0.244654     0.236520     0.228386     0.220253     0.212119     0.203986
 NY phased data points follow
   6.88110E+00 -2.13482E-01  4.75039E+00  1.32509E+01  9.48022E+00  2.51622E+00  9.35911E+00  1.39265E+01 -8.40312E+00  5.47789E-01
  -8.07139E-01  8.68618E-01 -2.22078E+00 -1.31432E+01 -1.11147E+01 -2.48641E+01 -2.21610E+01 -2.98433E+01 -3.95596E+01 -4.47846E+01
  -4.80937E+01 -4.94405E+01 -3.59726E+01 -4.30488E+00  3.73589E+00  2.07571E+01  2.37635E+01  3.10649E+01  3.98960E+01  3.61232E+01
   4.51124E+01  3.65647E+01  3.68563E+01  2.80762E+01  2.96962E+01  1.25914E+01  5.12478E+00  2.65720E+01  1.47179E+00  8.25139E+00
  -4.56570E+00 -1.36504E+01 -2.78278E+00  3.24862E-01  3.00440E+01  2.45476E+01  3.76363E+01  4.48653E+01  4.56986E+01  5.96870E+01
   6.16409E+01  5.09558E+01  3.53099E+01  6.09734E+01  5.79898E+01  4.21243E+01  3.20495E+01  2.07717E+01  1.82549E+01  1.67775E+01
   3.12914E+01  2.47154E+01  3.80993E+01  4.25857E+01  2.44238E+01  4.27150E+01  5.24270E+01  3.49965E+01  2.78898E+01  3.37940E+01
   2.31602E+01  2.65095E+01  3.88167E+01  3.52102E+01  4.64028E+01  6.56054E+01  6.81018E+01  6.95846E+01  7.78532E+01  6.83245E+01
   6.56676E+01  6.68796E+01  6.39497E+01  7.18440E+01  5.26305E+01  3.75957E+01  5.94438E+01  5.68287E+01  4.36144E+01  5.91594E+01
   5.79162E+01  7.32127E+01  8.57250E+01  7.39934E+01  1.01916E+02  9.95355E+01  9.52275E+01  9.86723E+01  8.62017E+01  9.19672E+01
   7.86518E+01  7.42634E+01  6.02295E+01  5.88143E+01  4.69909E+01  1.81983E+01  1.97178E+01 -5.10886E+00 -1.95336E+01 -4.33431E+01
  -6.05989E+01 -6.60840E+01 -7.95343E+01 -5.20898E+01 -3.87632E+01 -3.06692E+01 -5.46645E+00  7.78596E+00  8.76502E+00  1.87383E+01
   3.63301E+01  4.22594E+01  3.83162E+01  4.36069E+01  5.47616E+01  6.21305E+01  7.65944E+01  7.53045E+01  8.74658E+01  9.86836E+01
   9.26275E+01  9.17088E+01  6.09465E+01  2.22836E+01 -1.07729E+01 -3.95572E+01 -5.60427E+01 -6.18792E+01 -5.78809E+01 -5.64556E+01
  -5.47378E+01 -4.70836E+01 -4.56344E+01 -4.38650E+01 -3.02864E+01 -2.74958E+01 -3.54662E+01 -4.08255E+01 -2.81770E+01 -1.71402E+01
  -2.23523E+01 -2.10797E+01 -1.97895E+01 -1.03951E+01  5.80191E-01  1.56641E+01  1.52570E+01 -9.45878E+00  4.17234E+00  9.61162E+00
  -2.98461E+00  8.30103E+00  1.02280E+01  1.29852E+01 -7.73822E-02 -1.00350E+00  1.82341E+01 -9.98272E-01 -2.17642E+00  1.74035E+01
   1.73708E+01  2.88993E+01  4.05366E+01  3.58983E+01  3.29661E+01  3.29634E+01  4.59625E+01  4.10169E+01  2.33370E+01  2.40114E+01
   1.38650E+01  4.22561E+00 -1.03774E+01 -1.24036E+01 -1.19701E+01 -1.70528E+01 -1.25085E+01 -2.25755E+01 -2.12172E+01 -1.30905E+01
  -2.40823E+00  1.27465E+00  6.80822E+00  7.61606E+00  1.16712E+01  2.16288E+01  8.52445E+00  1.68094E+01  2.10658E+01  1.91097E+01
   1.22967E+01  2.10917E+01  2.88939E+01  5.24985E+00  1.68726E+01  1.67216E+01  3.80733E+00  8.17362E+00  6.91621E+00 -3.21135E+00
   1.05519E-01  7.73534E+00  4.37135E+00  1.22945E+01  1.77754E+01  3.49514E+01  4.92509E+01  5.33735E+01  5.60011E+01  5.30311E+01
   4.29792E+01  3.45170E+01  4.54156E+01  4.05221E+01  1.93460E+01  2.69796E+01  4.57379E+01  3.47438E+01  2.62329E+01  1.91947E+01
   1.79984E+01  1.68759E+01  1.93250E+01  2.19411E+01 -7.51532E+00 -5.74726E+00 -1.18620E+01 -1.75393E+01 -2.98970E+01 -4.76096E+01
  -2.28966E+01 -2.65019E+01 -1.00584E+01 -7.35353E+00 -2.63897E+00  1.95177E+01 -2.32471E+00  7.91435E+00  1.16279E+01 -4.38350E+00
  -1.01310E+01 -1.52738E+01 -3.96268E+00  9.51194E+00  3.90701E+00  6.19061E+00  2.73242E+01  5.22468E+01  1.05642E+02  1.47528E+02
   1.57641E+02  1.58779E+02  1.70488E+02  1.69742E+02  1.36895E+02  1.21882E+02  1.15930E+02  1.16513E+02  1.05960E+02  1.09506E+02
   1.13729E+02  8.90868E+01  1.11343E+02  1.21789E+02  1.09391E+02  1.10774E+02  1.12245E+02  1.16314E+02  1.16006E+02  1.17791E+02
   1.11547E+02  1.04708E+02  9.02858E+01  9.23115E+01  9.18236E+01  8.53779E+01  8.76189E+01  7.73125E+01  8.61012E+01  7.24885E+01
   7.38107E+01  8.32723E+01  6.34784E+01  7.63756E+01  7.49218E+01  6.41847E+01  6.44706E+01  5.91540E+01  5.79832E+01  6.18614E+01
   7.32445E+01  6.51262E+01  5.60868E+01  6.62575E+01  7.95556E+01  8.99199E+01  8.00798E+01  7.50440E+01  8.01360E+01  8.58657E+01
   9.39528E+01  1.02272E+02  1.15454E+02  1.05368E+02  1.12496E+02  1.14547E+02  1.04956E+02  1.20569E+02  1.15882E+02  1.11982E+02
   1.11158E+02  1.30570E+02  1.23938E+02  1.04321E+02  1.17879E+02  9.73137E+01  8.64645E+01  7.87599E+01  6.52477E+01  4.81695E+01
   2.67910E+01  1.64437E+01  7.09132E+00  2.21297E+01  2.65092E+01  2.10646E+01  2.04215E+01  2.53781E+01  2.66378E+01  2.50889E+01
   3.33452E+01  2.96558E+01  3.71513E+01  4.03788E+01  3.49274E+01  3.35226E+01  2.27162E+01  1.43986E+01  1.10440E+01  2.52526E+01
   2.88253E+01  2.68235E+01  3.22899E+01  1.48593E+01  1.08303E+01  7.95001E+00  1.44965E+01  1.88867E+01  3.37846E+00  1.69918E+01
   1.53637E+01  7.83537E+00  5.62011E+00  1.64504E+01  3.10000E+01  2.95575E+01  4.07806E+01  2.88388E+01  2.91120E+01  4.55141E+01
   5.37699E+01  5.12429E+01  5.29628E+01  6.05193E+01  5.42898E+01  6.60242E+01  5.28429E+01  6.52560E+01  1.01602E+02  9.17346E+01
   8.73789E+01  9.39330E+01  1.10614E+02  1.16212E+02  1.22210E+02  1.38366E+02  1.34108E+02  1.37719E+02  1.35513E+02  1.36383E+02
   1.30990E+02  1.07692E+02  1.04040E+02  8.19529E+01  7.59529E+01  6.70518E+01  5.22697E+01  5.55616E+01  3.00729E+01  3.80547E+01
   2.70630E+01  1.55308E+01  1.78139E+01 -1.06098E+00  1.69817E+00 -1.69434E+01 -1.80456E+01 -4.36648E+00  3.45842E+00 -1.11208E+01
  -1.58782E+01 -4.01685E+00 -5.11864E+00  6.24023E+00  3.33425E-01  1.83660E+01 -3.31331E+00 -1.76670E+01  1.26725E+01  2.28833E+00
   4.13532E+00 -5.47231E+00  2.25829E+00  1.01749E+01  2.31400E+00  1.64320E+01  8.77904E+00  6.02540E+00  8.12361E+00 -4.21947E+00
  -2.71809E+00  8.68583E+00  1.46772E+01  1.28271E+01  1.14217E+00 -8.35625E+00 -9.20616E+00 -6.43233E-01 -2.51287E+00  1.02793E+01
   2.43030E+01 -2.06732E+00  3.09951E+00  7.57421E+00 -5.29381E+00  8.44945E+00  1.03338E+01  2.71676E+00  7.03472E+00  2.03244E+01
   1.11554E+01  3.06668E+00  1.08820E+01  4.86490E+00  1.26067E+01  3.36272E+00 -4.54627E+00  2.04300E+01  8.68072E+00  4.84136E+00
   8.20100E+00  2.80865E+00  2.13904E+01  1.23943E+01  1.06066E+01  1.05218E+01  4.00776E+00  1.35611E+01  1.57147E+01  2.21127E+01
   7.99594E+00  1.62227E+01  2.72219E+01  5.23978E+00  7.65729E+00  1.80300E+00  7.53712E+00  1.85810E+01  3.56716E+00  1.18053E+01
 NY points of the fit to the data follow
  -8.06138E+00 -7.31906E+00 -7.02973E+00 -6.53011E+00 -5.02152E+00 -2.25207E+00  9.67328E-01  3.34603E+00  3.93399E+00  2.35928E+00
  -7.20893E-01 -4.83604E+00 -9.01522E+00 -1.25532E+01 -1.58243E+01 -1.95598E+01 -2.38313E+01 -2.84461E+01 -3.32361E+01 -3.74197E+01
  -3.92874E+01 -3.63905E+01 -2.71246E+01 -1.23417E+01  5.01034E+00  2.16039E+01  3.49322E+01  4.33880E+01  4.69950E+01  4.76771E+01
   4.66979E+01  4.53527E+01  4.42269E+01  4.19661E+01  3.84342E+01  3.40326E+01  2.91301E+01  2.33628E+01  1.63484E+01  8.65136E+00
   1.87253E+00 -1.93709E+00 -1.15587E+00  4.76845E+00  1.49504E+01  2.74601E+01  3.97680E+01  4.93022E+01  5.47016E+01  5.65710E+01
   5.57094E+01  5.27773E+01  4.81057E+01  4.23250E+01  3.59124E+01  2.98093E+01  2.48732E+01  2.17329E+01  2.09153E+01  2.23572E+01
   2.57188E+01  3.04418E+01  3.56205E+01  4.06707E+01  4.54712E+01  4.93972E+01  5.01322E+01  4.69279E+01  4.16547E+01  3.52210E+01
   2.98600E+01  2.81517E+01  3.03352E+01  3.59382E+01  4.39601E+01  5.25845E+01  5.94333E+01  6.33760E+01  6.53867E+01  6.53432E+01
   6.24777E+01  5.73617E+01  5.08981E+01  4.40366E+01  3.83357E+01  3.55080E+01  3.65116E+01  4.11857E+01  4.83142E+01  5.62217E+01
   6.36124E+01  6.93919E+01  7.37547E+01  7.69167E+01  7.94142E+01  8.16798E+01  8.32594E+01  8.38625E+01  8.35604E+01  8.24252E+01
   8.03751E+01  7.72757E+01  7.16497E+01  6.23927E+01  5.09096E+01  3.93636E+01  2.67959E+01  9.85202E+00 -1.17520E+01 -3.52516E+01
  -5.51453E+01 -6.55586E+01 -6.50796E+01 -5.64286E+01 -4.14402E+01 -2.33844E+01 -7.83907E+00  8.26828E-01  7.96199E+00  1.50089E+01
   2.21495E+01  2.96273E+01  3.76075E+01  4.63867E+01  5.66084E+01  6.76364E+01  7.76939E+01  8.61573E+01  9.42284E+01  1.01035E+02
   1.00871E+02  8.81144E+01  6.18976E+01  2.74204E+01 -6.52998E+00 -3.28825E+01 -4.90160E+01 -5.50485E+01 -5.17308E+01 -4.39162E+01
  -4.03990E+01 -3.97036E+01 -3.89434E+01 -3.80565E+01 -3.68762E+01 -3.52421E+01 -3.31660E+01 -3.06196E+01 -2.76319E+01 -2.43835E+01
  -2.11367E+01 -1.80661E+01 -1.52587E+01 -1.25729E+01 -9.87210E+00 -7.27480E+00 -5.00574E+00 -3.23083E+00 -1.71053E+00 -1.68765E-01
   1.35067E+00  2.54617E+00  3.17380E+00  3.36128E+00  3.55571E+00  4.16861E+00  5.15703E+00  6.25888E+00  7.80053E+00  1.06671E+01
   1.51634E+01  2.04099E+01  2.48224E+01  2.73671E+01  2.82474E+01  2.81331E+01  2.71487E+01  2.49372E+01  2.14583E+01  1.71768E+01
   1.22466E+01  6.54048E+00  8.74119E-01 -3.40511E+00 -5.64676E+00 -6.17095E+00 -5.90605E+00 -5.21731E+00 -3.66548E+00 -1.56605E+00
   6.75158E-01  3.14783E+00  6.14001E+00  9.45548E+00  1.26561E+01  1.54825E+01  1.79199E+01  2.00285E+01  2.17254E+01  2.28397E+01
   2.33075E+01  2.38645E+01  2.46517E+01  2.43363E+01  2.26744E+01  1.99709E+01  1.62593E+01  1.17542E+01  6.77512E+00  2.69817E+00
   7.32862E-01  1.24946E+00  4.88369E+00  1.23414E+01  2.33135E+01  3.61950E+01  4.85708E+01  5.79474E+01  6.26684E+01  6.25388E+01
   5.90359E+01  5.41394E+01  4.98136E+01  4.79524E+01  4.70008E+01  4.61475E+01  4.44519E+01  4.01361E+01  3.32337E+01  2.42206E+01
   1.38571E+01  3.21876E+00 -7.06017E+00 -1.61224E+01 -2.34037E+01 -2.86555E+01 -3.16078E+01 -3.22189E+01 -3.09136E+01 -2.81126E+01
  -2.41147E+01 -1.92277E+01 -1.38858E+01 -8.19589E+00 -2.88197E+00  8.99809E-01  2.83915E+00  2.98890E+00  1.20174E+00 -3.05951E+00
  -8.49348E+00 -1.17844E+01 -1.02563E+01 -5.92522E+00 -9.31069E-02  1.02008E+01  2.89593E+01  5.77021E+01  9.17324E+01  1.22665E+02
   1.44268E+02  1.55854E+02  1.58036E+02  1.49689E+02  1.36169E+02  1.27646E+02  1.22559E+02  1.18332E+02  1.14674E+02  1.11636E+02
   1.09377E+02  1.08065E+02  1.07709E+02  1.08054E+02  1.08724E+02  1.09332E+02  1.09629E+02  1.09456E+02  1.08852E+02  1.07717E+02
   1.06196E+02  1.04308E+02  1.02169E+02  9.98754E+01  9.73803E+01  9.47872E+01  9.20802E+01  8.92313E+01  8.61505E+01  8.28079E+01
   7.92431E+01  7.55661E+01  7.18932E+01  6.84364E+01  6.55590E+01  6.35960E+01  6.27989E+01  6.31911E+01  6.45987E+01  6.68021E+01
   6.95058E+01  7.24134E+01  7.53762E+01  7.82795E+01  8.10498E+01  8.36621E+01  8.61498E+01  8.85604E+01  9.09356E+01  9.32860E+01
   9.55197E+01  9.75603E+01  9.93356E+01  1.00765E+02  1.01779E+02  1.02329E+02  1.02358E+02  1.01776E+02  1.00523E+02  9.86032E+01
   9.59851E+01  9.27229E+01  8.88375E+01  8.43265E+01  7.92093E+01  7.34082E+01  6.67144E+01  5.91415E+01  5.09947E+01  4.27708E+01
   3.50552E+01  2.85946E+01  2.40379E+01  2.19339E+01  2.25269E+01  2.53209E+01  2.96481E+01  3.48243E+01  4.01965E+01  4.46781E+01
   4.67812E+01  4.53153E+01  3.97568E+01  3.13207E+01  2.24861E+01  1.57159E+01  1.26444E+01  1.35479E+01  1.74550E+01  2.21220E+01
   2.53058E+01  2.69300E+01  2.59140E+01  2.33811E+01  2.03989E+01  1.74616E+01  1.51472E+01  1.39020E+01  1.39184E+01  1.52256E+01
   1.76743E+01  2.09499E+01  2.47207E+01  2.87354E+01  3.28374E+01  3.68296E+01  4.06535E+01  4.43022E+01  4.78055E+01  5.12784E+01
   5.47782E+01  5.83552E+01  6.20905E+01  6.60753E+01  7.04138E+01  7.51642E+01  8.04214E+01  8.62744E+01  9.26937E+01  9.96035E+01
   1.06903E+02  1.14383E+02  1.21792E+02  1.28819E+02  1.34943E+02  1.39484E+02  1.41790E+02  1.41179E+02  1.37195E+02  1.30035E+02
   1.20482E+02  1.09622E+02  9.85605E+01  8.81755E+01  7.87955E+01  7.02474E+01  6.20419E+01  5.36540E+01  4.48982E+01  3.60038E+01
   2.74125E+01  1.95924E+01  1.29999E+01  7.82263E+00  3.98779E+00  1.27416E+00 -5.31076E-01 -1.77762E+00 -2.74433E+00 -3.49874E+00
  -4.09727E+00 -4.54349E+00 -4.85849E+00 -4.99270E+00 -4.93855E+00 -4.75476E+00 -4.53526E+00 -4.34494E+00 -4.16723E+00 -3.95116E+00
  -3.68006E+00 -3.38233E+00 -3.10313E+00 -2.80400E+00 -2.48495E+00 -2.19644E+00 -1.98467E+00 -1.75038E+00 -1.40685E+00 -1.02070E+00
  -6.55020E-01 -3.38481E-01 -6.49191E-02  1.70100E-01  3.75100E-01  5.99601E-01  9.19611E-01  1.34357E+00  1.79566E+00  2.24909E+00
   2.67074E+00  3.03561E+00  3.32242E+00  3.52853E+00  3.67797E+00  3.79976E+00  3.98038E+00  4.22666E+00  4.54089E+00  4.88331E+00
   5.23577E+00  5.56461E+00  5.86374E+00  6.18215E+00  6.55056E+00  6.95842E+00  7.36702E+00  7.76762E+00  8.15137E+00  8.47441E+00
   8.75696E+00  9.01890E+00  9.24970E+00  9.46516E+00  9.70131E+00  9.98221E+00  1.03549E+01  1.08297E+01  1.13599E+01  1.18494E+01
   1.22198E+01  1.24579E+01  1.26260E+01  1.27609E+01  1.29207E+01  1.31740E+01  1.35139E+01  1.39194E+01  1.43461E+01  1.48032E+01
 NY background values follow
     2.050E+01    2.060E+01    2.070E+01    2.080E+01    2.090E+01    2.100E+01    2.109E+01    2.119E+01    2.129E+01    2.139E+01
     2.149E+01    2.159E+01    2.169E+01    2.179E+01    2.190E+01    2.200E+01    2.210E+01    2.221E+01    2.231E+01    2.242E+01
     2.252E+01    2.263E+01    2.274E+01    2.285E+01    2.296E+01    2.307E+01    2.319E+01    2.330E+01    2.342E+01    2.354E+01
     2.366E+01    2.378E+01    2.390E+01    2.402E+01    2.415E+01    2.428E+01    2.440E+01    2.453E+01    2.466E+01    2.479E+01
     2.493E+01    2.506E+01    2.519E+01    2.533E+01    2.546E+01    2.560E+01    2.574E+01    2.587E+01    2.601E+01    2.615E+01
     2.629E+01    2.643E+01    2.656E+01    2.670E+01    2.684E+01    2.698E+01    2.712E+01    2.726E+01    2.740E+01    2.753E+01
     2.767E+01    2.781E+01    2.795E+01    2.808E+01    2.822E+01    2.835E+01    2.849E+01    2.862E+01    2.875E+01    2.888E+01
     2.902E+01    2.915E+01    2.927E+01    2.940E+01    2.953E+01    2.965E+01    2.978E+01    2.990E+01    3.002E+01    3.014E+01
     3.026E+01    3.038E+01    3.050E+01    3.061E+01    3.072E+01    3.083E+01    3.094E+01    3.105E+01    3.115E+01    3.126E+01
     3.136E+01    3.146E+01    3.155E+01    3.165E+01    3.174E+01    3.184E+01    3.193E+01    3.201E+01    3.210E+01    3.218E+01
     3.227E+01    3.235E+01    3.243E+01    3.251E+01    3.259E+01    3.267E+01    3.274E+01    3.282E+01    3.289E+01    3.296E+01
     3.304E+01    3.311E+01    3.318E+01    3.325E+01    3.332E+01    3.339E+01    3.345E+01    3.352E+01    3.359E+01    3.365E+01
     3.372E+01    3.379E+01    3.385E+01    3.392E+01    3.399E+01    3.405E+01    3.412E+01    3.418E+01    3.425E+01    3.431E+01
     3.437E+01    3.444E+01    3.450E+01    3.456E+01    3.462E+01    3.469E+01    3.475E+01    3.481E+01    3.487E+01    3.493E+01
     3.499E+01    3.504E+01    3.510E+01    3.516E+01    3.522E+01    3.527E+01    3.533E+01    3.538E+01    3.544E+01    3.549E+01
     3.554E+01    3.560E+01    3.565E+01    3.570E+01    3.575E+01    3.580E+01    3.585E+01    3.590E+01    3.594E+01    3.599E+01
     3.604E+01    3.608E+01    3.613E+01    3.617E+01    3.622E+01    3.626E+01    3.630E+01    3.634E+01    3.639E+01    3.643E+01
     3.647E+01    3.651E+01    3.655E+01    3.659E+01    3.662E+01    3.666E+01    3.670E+01    3.674E+01    3.677E+01    3.681E+01
     3.685E+01    3.688E+01    3.692E+01    3.695E+01    3.698E+01    3.702E+01    3.705E+01    3.708E+01    3.712E+01    3.715E+01
     3.718E+01    3.722E+01    3.725E+01    3.728E+01    3.731E+01    3.734E+01    3.737E+01    3.741E+01    3.744E+01    3.747E+01
     3.750E+01    3.753E+01    3.756E+01    3.760E+01    3.763E+01    3.766E+01    3.769E+01    3.772E+01    3.776E+01    3.779E+01
     3.782E+01    3.785E+01    3.789E+01    3.792E+01    3.795E+01    3.799E+01    3.802E+01    3.805E+01    3.808E+01    3.811E+01
     3.814E+01    3.817E+01    3.820E+01    3.823E+01    3.825E+01    3.828E+01    3.830E+01    3.832E+01    3.835E+01    3.836E+01
     3.838E+01    3.840E+01    3.841E+01    3.842E+01    3.843E+01    3.844E+01    3.844E+01    3.845E+01    3.845E+01    3.844E+01
     3.844E+01    3.843E+01    3.842E+01    3.841E+01    3.839E+01    3.837E+01    3.835E+01    3.832E+01    3.829E+01    3.826E+01
     3.823E+01    3.819E+01    3.815E+01    3.811E+01    3.807E+01    3.802E+01    3.797E+01    3.792E+01    3.786E+01    3.780E+01
     3.774E+01    3.768E+01    3.761E+01    3.754E+01    3.747E+01    3.739E+01    3.731E+01    3.723E+01    3.715E+01    3.706E+01
     3.697E+01    3.688E+01    3.678E+01    3.668E+01    3.658E+01    3.648E+01    3.637E+01    3.626E+01    3.615E+01    3.603E+01
     3.592E+01    3.580E+01    3.567E+01    3.555E+01    3.542E+01    3.529E+01    3.516E+01    3.502E+01    3.489E+01    3.475E+01
     3.460E+01    3.446E+01    3.431E+01    3.416E+01    3.401E+01    3.386E+01    3.370E+01    3.354E+01    3.338E+01    3.322E+01
     3.306E+01    3.289E+01    3.272E+01    3.255E+01    3.238E+01    3.220E+01    3.202E+01    3.185E+01    3.166E+01    3.148E+01
     3.130E+01    3.111E+01    3.092E+01    3.073E+01    3.054E+01    3.034E+01    3.015E+01    2.995E+01    2.975E+01    2.955E+01
     2.935E+01    2.914E+01    2.893E+01    2.873E+01    2.852E+01    2.830E+01    2.809E+01    2.788E+01    2.766E+01    2.744E+01
     2.722E+01    2.700E+01    2.678E+01    2.656E+01    2.634E+01    2.611E+01    2.589E+01    2.566E+01    2.544E+01    2.521E+01
     2.499E+01    2.476E+01    2.454E+01    2.431E+01    2.409E+01    2.387E+01    2.365E+01    2.343E+01    2.321E+01    2.300E+01
     2.278E+01    2.257E+01    2.236E+01    2.215E+01    2.195E+01    2.175E+01    2.155E+01    2.135E+01    2.116E+01    2.097E+01
     2.079E+01    2.060E+01    2.043E+01    2.025E+01    2.008E+01    1.992E+01    1.975E+01    1.959E+01    1.944E+01    1.929E+01
     1.914E+01    1.900E+01    1.886E+01    1.872E+01    1.859E+01    1.847E+01    1.834E+01    1.822E+01    1.811E+01    1.800E+01
     1.789E+01    1.779E+01    1.769E+01    1.759E+01    1.750E+01    1.742E+01    1.733E+01    1.726E+01    1.718E+01    1.711E+01
     1.705E+01    1.699E+01    1.693E+01    1.688E+01    1.683E+01    1.679E+01    1.674E+01    1.671E+01    1.667E+01    1.664E+01
     1.661E+01    1.659E+01    1.657E+01    1.655E+01    1.653E+01    1.652E+01    1.650E+01    1.650E+01    1.649E+01    1.648E+01
     1.648E+01    1.648E+01    1.648E+01    1.648E+01    1.649E+01    1.649E+01    1.650E+01    1.651E+01    1.652E+01    1.653E+01
     1.654E+01    1.655E+01    1.656E+01    1.657E+01    1.659E+01    1.660E+01    1.662E+01    1.663E+01    1.665E+01    1.666E+01
     1.668E+01    1.670E+01    1.672E+01    1.673E+01    1.675E+01    1.677E+01    1.679E+01    1.681E+01    1.683E+01    1.684E+01
     1.686E+01    1.688E+01    1.690E+01    1.692E+01    1.694E+01    1.696E+01    1.697E+01    1.699E+01    1.701E+01    1.703E+01
     1.704E+01    1.706E+01    1.707E+01    1.709E+01    1.711E+01    1.712E+01    1.714E+01    1.715E+01    1.716E+01    1.718E+01
     1.719E+01    1.721E+01    1.722E+01    1.723E+01    1.724E+01    1.726E+01    1.727E+01    1.728E+01    1.729E+01    1.731E+01
     1.732E+01    1.733E+01    1.734E+01    1.735E+01    1.737E+01    1.738E+01    1.739E+01    1.740E+01    1.741E+01    1.742E+01
 Mac      Conc. = 3.20E-04
  -2.34833E+00 -2.87374E+00 -3.35921E+00 -3.87953E+00 -4.50540E+00 -5.28413E+00 -6.29891E+00 -7.55850E+00 -8.97202E+00 -1.03598E+01
  -1.15632E+01 -1.24015E+01 -1.28335E+01 -1.30178E+01 -1.31995E+01 -1.33976E+01 -1.32739E+01 -1.23728E+01 -1.04064E+01 -7.35016E+00
  -3.52826E+00  6.32896E-01  4.57898E+00  7.85932E+00  1.02868E+01  1.21093E+01  1.38170E+01  1.55300E+01  1.72409E+01  1.90284E+01
   2.07997E+01  2.23761E+01  2.36658E+01  2.46069E+01  2.52247E+01  2.56595E+01  2.62623E+01  2.72838E+01  2.87215E+01  3.03266E+01
   3.18097E+01  3.30010E+01  3.38817E+01  3.45762E+01  3.51835E+01  3.57732E+01  3.62970E+01  3.65600E+01  3.63376E+01  3.55946E+01
   3.45264E+01  3.33858E+01  3.24221E+01  3.17396E+01  3.13498E+01  3.13432E+01  3.17596E+01  3.25716E+01  3.36472E+01  3.49205E+01
   3.62667E+01  3.74914E+01  3.84039E+01  3.88161E+01  3.87441E+01  3.84065E+01  3.79944E+01  3.75811E+01  3.73836E+01  3.76478E+01
   3.84762E+01  3.98547E+01  4.16161E+01  4.34241E+01  4.50244E+01  4.61706E+01  4.67164E+01  4.66346E+01  4.61629E+01  4.55814E+01
   4.50481E+01  4.46569E+01  4.45213E+01  4.47120E+01  4.52055E+01  4.59520E+01  4.68350E+01  4.77570E+01  4.86266E+01  4.93325E+01
   4.98123E+01  5.00740E+01  5.01008E+01  4.97998E+01  4.91279E+01  4.79604E+01  4.62731E+01  4.40796E+01  4.15757E+01  3.89093E+01
   3.61327E+01  3.32309E+01  3.01401E+01  2.66666E+01  2.26586E+01  1.80068E+01  1.28611E+01  7.76125E+00  3.45503E+00  5.71581E-01
