 
 $NMID
 ID=''
 FMTDAT='(2E13.5)'
 TRAMP=   1.00000E+0
 VOLUME=   1.00000E+0
 $END
   2.20979E+4   9.18899E+2
   2.82979E+4  -1.84202E+4
  -1.35318E+4  -3.18816E+4
  -2.94763E+4   1.48240E+4
   1.19515E+4   3.21317E+4
   2.65917E+4  -1.05626E+4
  -7.47977E+3  -2.34327E+4
  -1.62325E+4   8.46637E+3
   8.44928E+3   1.77465E+4
   1.13474E+4  -2.25481E+3
  -7.90927E+3  -1.08699E+4
  -1.04869E+4   6.26804E+2
   2.49770E+3   1.01270E+4
   4.85695E+3   2.56723E+3
  -2.53747E+3  -8.65380E+3
  -2.16346E+3  -3.30914E+3
   3.37580E+3   5.86276E+3
   1.00902E+3   2.01695E+3
  -2.24562E+3  -3.49801E+3
   9.43944E+2  -5.80474E+2
   1.86896E+3   9.10532E+2
  -7.93396E+2  -1.37919E+3
  -2.41950E+2   3.40663E+1
   6.35383E+2   1.40838E+3
   1.00708E+2  -4.08713E+2
   9.34086E+2  -1.35777E+3
   6.85454E+2   1.57256E+3
  -9.62391E+2   1.92599E+3
  -8.60444E+2  -1.34599E+3
  -2.43871E+2  -1.06942E+3
  -3.15948E+2   1.12571E+3
  -4.25323E+2   8.97824E+2
  -6.68959E+2  -8.73680E+2
  -1.20938E+3  -1.55956E+3
   7.20722E+2  -2.06713E+3
   2.97345E+3  -6.81088E+2
   1.01298E+3   1.50244E+3
  -1.47534E+3   1.06642E+3
  -1.13536E+2  -4.64573E+2
   9.16883E+2  -3.94293E+2
  -1.27958E+3  -5.51112E+1
  -1.31966E+3  -9.43253E+2
   1.70041E+3  -1.08579E+3
   1.77647E+3  -2.24589E+2
  -3.38387E+2   8.06559E+2
   7.44486E+1   1.41863E+3
   1.75742E+2   1.34877E+3
  -1.58061E+3  -4.90664E+2
  -2.04795E+3  -1.88389E+3
   5.18398E+1  -8.36504E+2
   1.61445E+3  -1.09601E+2
   9.91440E+2  -9.50473E+2
  -1.45377E+2  -3.55027E+2
   1.18422E+1   7.12888E+2
   7.19231E+2   8.04751E+2
  -2.96476E+2   8.85784E+1
  -1.37629E+3  -5.72003E+2
  -2.28861E+2  -1.04603E+3
   1.73132E+3  -6.64435E+2
   1.24973E+3   5.28946E+2
  -4.12506E+2   8.26080E+2
   7.95514E+0   5.49639E+2
   3.61257E+2   1.18514E+3
  -1.19603E+3   8.87385E+2
  -2.03720E+3  -8.26337E+2
  -3.45997E+2  -1.59702E+3
   1.52013E+3  -8.73377E+2
   1.36113E+3  -5.47519E+2
   4.23918E+2   9.01386E+1
   2.14411E+2   6.14406E+2
   2.59453E+2   3.99685E+2
   4.70304E+2  -3.93603E+2
   7.44908E+2   1.08791E+2
   3.42363E+2   6.34616E+2
  -2.32318E+2   4.99805E+2
  -2.34004E+2  -9.10912E+1
   1.65695E+1  -2.43424E+1
   5.37222E+2   5.71504E+2
  -3.09097E+2   3.54780E+2
  -5.61500E+2  -3.85030E+2
  -4.64287E+2  -7.48502E+2
   5.07221E+2  -3.73533E+2
   7.02882E+2   1.20375E+1
   9.34981E+1  -6.32874E+1
   1.81584E+2  -4.29372E+2
   8.96106E+2  -3.48671E+2
   1.05101E+3   2.54180E+2
   1.38329E+1   4.31685E+2
  -8.12251E+1   1.23402E+2
   4.33514E+2  -1.01502E+2
   8.36021E+2   4.83669E+2
  -4.81768E+1   6.96477E+2
  -5.83529E+2   6.12641E+2
  -8.40778E+2  -9.37856E+1
  -3.99371E+2  -6.11001E+2
   4.23972E+2  -7.94933E+2
   7.70615E+2  -4.34416E+1
   6.67689E+1   4.09002E+2
  -1.39764E+2   5.91451E+1
   3.86556E+2  -3.33750E+2
   6.85218E+2   5.66007E+2
  -1.91061E+2   9.32114E+2
  -6.34975E+2  -2.15880E+2
   8.45950E+0  -7.41033E+2
   5.08533E+2  -1.97350E+2
   4.28854E+2   6.98676E+2
  -2.33026E+2   3.54693E+2
  -7.97851E+2  -6.62422E+2
   4.21815E+1  -8.28525E+2
   9.44854E+2  -2.16361E+2
   7.26756E+2   5.62906E+2
   1.71727E+2   5.08460E+2
  -2.45340E+2   5.45242E+2
  -1.70814E+2   5.09591E+2
  -1.89144E+2   5.77630E+1
  -4.41677E+2  -7.55528E+1
  -8.20577E+2  -4.31220E+2
  -2.55735E+2  -7.91943E+2
   4.88360E+2  -9.18546E+2
   1.11171E+3  -5.28257E+2
   6.32044E+2   3.15792E+2
   2.86220E+2   5.88613E+2
  -1.52896E+2   2.62331E+2
  -3.48569E+2   3.42887E+2
  -3.98224E+2   1.74858E+2
  -2.83459E+2  -2.34111E+2
  -7.57951E+1  -4.48642E+2
   3.49632E+2  -3.09318E+2
   2.28398E+2   5.55702E+1
  -1.78492E+2   6.10218E+2
  -5.43317E+2  -7.53084E+1
  -2.41155E+2  -4.32379E+2
   2.72815E+2  -4.09544E+2
   8.16675E+1   1.87868E+1
  -7.51509E+1  -1.19100E+2
   3.01386E+2  -1.44530E+2
   1.88477E+2   2.32077E+1
   1.58786E+2   4.28386E+2
  -2.64323E+2   2.22549E+2
  -4.21168E+2  -2.07344E+2
  -3.87776E+2  -4.26226E+2
   3.16639E+2  -3.88482E+2
   5.23282E+2   2.44175E+2
   1.83331E+2   6.42103E+2
  -3.57136E+2   4.54691E+2
  -6.60495E+2  -6.65239E+1
  -2.27787E+2  -1.62859E+2
  -1.72989E+2  -1.68187E+2
  -2.35307E+2  -2.84109E+2
  -2.77780E+2  -3.46337E+2
   2.02964E+2  -3.51256E+2
   6.24104E+2   7.73508E+1
  -4.62886E+1   6.21586E+2
  -4.18287E+2   7.40397E+2
  -1.17333E+2   1.38783E+2
  -5.11488E+1  -4.05324E+2
  -8.77997E+0   2.47993E+2
  -1.53269E+2   4.04048E+2
  -1.69458E+2   9.98897E+1
   9.83819E+0  -1.21485E+2
  -1.30456E+2   1.88305E+2
  -4.83038E+2   1.36868E+2
  -8.60618E+1  -1.07968E+2
   1.29799E+1  -1.01279E+2
   2.10878E+2  -2.92505E+2
   3.49699E+2   7.14118E+1
   1.06273E+2   1.36714E+2
  -2.98873E+2   6.18306E+1
  -4.75759E+2  -3.28790E+2
   2.43428E+2  -1.60056E+2
   1.75644E+2   5.49519E+1
  -1.17433E+2   1.33037E+1
  -3.11095E+2  -2.82923E+1
  -7.73006E+1   5.24368E+1
   2.16708E+2  -1.76809E+2
   1.77773E+1   1.32819E+2
  -2.51064E+2   2.45819E+2
  -4.51153E+2  -6.42737E+1
   4.49241E+1  -3.78214E+2
   3.30298E+2   3.65360E+1
   1.60964E+2   2.59300E+2
  -2.52028E+2   1.27034E+2
  -3.20474E+2  -1.67062E+2
  -6.62469E+1  -3.03022E+2
  -1.41134E+2  -3.77210E+2
   1.04746E+2  -2.82390E+2
   7.52961E+1  -1.98310E+0
   1.58929E+2  -2.47656E+2
   4.11828E+2  -6.23121E+1
  -7.29082E+1   6.34984E+2
  -3.93355E+2   4.22841E+2
  -6.94576E+2  -1.50316E+2
  -2.74298E+2  -5.64339E+2
   8.87731E+1  -3.37993E+2
   1.62102E+2  -1.72788E+2
   2.34023E+2  -4.75032E+0
  -2.68346E+2   6.33958E+1
   7.70249E+1  -7.71533E+1
  -2.53373E+2   1.15898E+2
  -3.94118E+2   2.90023E+1
  -3.67195E+2  -3.25057E+2
   1.13164E+2  -5.25017E+2
   4.78448E+2  -1.81294E+2
   2.05144E+2   1.03782E+0
  -2.89791E+1   1.61740E+2
  -1.59046E+2   7.50499E+1
  -1.41150E+2  -1.76351E+2
   1.40279E+1  -1.42032E+2
   2.76712E+0   1.87014E+1
  -2.89714E+2  -8.22625E+0
  -1.25022E+2  -1.92016E+2
   3.16355E+2  -9.26699E+1
   1.39620E+2   2.96004E+2
  -5.48097E+2   5.69795E+2
  -8.25287E+2  -6.45367E+1
  -2.96839E+2  -3.52802E+2
   1.39803E+2  -4.03863E+2
   3.13130E+1  -9.16862E+1
   2.01068E+2  -1.27673E+2
  -5.63081E+1  -1.98139E+2
  -7.15597E+0  -6.02477E+1
   1.96420E+2   1.50467E+2
  -2.78686E+2   7.87926E+1
  -3.73193E+2   6.93696E+1
  -3.16336E+2  -4.81441E+2
  -3.59133E+1  -2.30291E+2
   2.17024E+2   1.68168E+2
  -7.47225E+1   1.98355E+2
  -2.39502E+2   1.78181E+2
  -2.76752E+2  -9.95101E+1
  -1.93351E+1  -3.42655E+2
   1.95599E+2   8.63919E+1
  -1.31987E+2  -7.99340E+1
  -2.70087E+2   2.91386E+2
   6.75087E+1  -7.41607E+1
  -6.94590E+1  -2.39506E+2
   6.06063E+1  -1.97630E+2
  -1.95751E+2  -1.99434E+2
  -7.94204E+1  -2.58208E+2
   3.65875E+1   4.94041E+1
   5.67008E+1   1.11380E+2
   6.88362E+1   1.77261E+2
  -1.12750E+2  -1.26868E+2
  -1.54802E+1  -3.55307E+2
  -1.02409E+2  -5.11174E+1
   6.80123E+1   4.71007E+1
  -6.77946E-1   6.50982E+1
  -1.98169E+2   1.38243E+1
  -7.12100E+1  -2.69536E+2
   2.14737E+2   8.71464E+1
   8.78725E+1   7.28184E+1
  -1.68510E+2   6.45853E+1
  -1.15133E+2  -3.84178E+2
   1.23679E+2  -3.54856E+2
   2.59690E+2  -2.00564E+1
  -7.55221E+1   3.44865E+1
   8.32807E+1   1.05757E+2
  -6.74267E+1  -1.15341E+2
  -2.65224E+2  -1.93575E+2
  -2.64354E+2   8.76316E+1
  -9.54824E+1   2.42029E+2
  -1.92632E+1  -1.25177E+2
  -5.64519E+1  -3.07883E+2
   1.38936E+2  -1.07833E+2
   1.41386E+2   2.16195E+2
  -2.80974E+2   8.29520E+0
  -9.65987E+1  -3.76525E+2
  -6.68311E+1  -2.71946E+2
   2.44742E+1  -2.48265E+2
   1.13518E+2   3.41995E+1
   1.91976E+1  -2.22454E+1
   2.86198E+2  -8.83954E+1
  -8.83463E+1  -2.88379E+2
  -6.84595E+0   3.56257E+1
   1.17595E+2  -4.26321E+1
  -9.53255E+1  -9.52924E+1
  -7.39808E+1  -2.66650E+2
   7.79699E+1  -1.61715E+2
   3.54629E+2   3.96260E+1
   2.43176E+1   1.18359E+2
  -1.17398E+2  -1.40051E+2
   6.21846E+1  -8.74823E+1
  -3.40997E+1  -1.01706E+2
  -1.45499E+2   9.45864E+1
  -2.17348E+2  -1.03318E+2
  -2.08038E+0  -2.32363E+2
   3.09943E+2  -1.64627E+2
  -2.09990E+1  -1.46487E-1
   5.65297E+1   3.37916E+2
  -2.09493E+2   2.03732E+2
  -2.79061E+2  -7.10404E+1
   1.53972E+1  -5.91387E+1
   3.76863E+1  -1.00057E+1
   8.36437E+1   7.16433E+1
   7.15236E-1  -2.26285E+2
   3.32456E+1  -4.38759E+1
   6.83719E+0   2.77459E+2
   8.11229E+1   6.76100E+1
  -9.78078E+1   9.00313E+0
   7.96334E+0  -1.65956E+2
   2.97593E+1  -2.30553E+2
   1.06455E+2   2.96261E+2
  -1.11246E+2   1.39369E+2
  -3.33790E+2  -1.29983E+1
  -1.37458E+2  -2.99834E+2
   9.08438E+1  -1.68613E+2
   5.51986E+0   2.19454E+2
   1.38874E+2  -4.74165E+1
   9.44264E+1   6.22733E+1
   2.44679E+1  -1.12599E+2
   2.55440E+2   1.41231E+2
   9.79471E+1  -4.27981E+1
  -1.04490E+2   1.40301E+2
  -3.60758E+2  -1.65208E+2
   1.41243E+2  -2.21468E+2
  -5.97323E+1  -7.01025E+1
   1.09405E+1   1.12022E+2
  -1.52459E+2   2.57165E+1
   6.51333E+1  -1.37746E+2
   3.01326E+1  -1.17108E+2
   2.55348E+2  -7.24014E+1
  -5.92484E+1  -9.41774E+1
  -7.40442E+1  -1.82230E+0
  -2.32807E+1   2.79989E+1
   1.45753E+2  -1.33597E+2
  -2.27877E+2   1.26374E+2
   5.81688E+1  -9.27848E+1
  -1.42445E+2  -1.28381E+2
  -1.54503E+2  -1.22435E+2
   1.43300E+2  -1.83443E+1
   7.16696E+1   8.03128E+1
  -1.55148E+1  -2.03015E+2
   1.04791E+2  -1.71728E+2
   9.12552E+1   1.29300E+1
  -2.13750E+2   2.69528E+0
  -1.68262E+2  -4.70400E+1
  -1.92986E+2  -1.81947E+2
   1.32486E+2  -2.11906E+2
   9.31291E+1  -2.74346E+2
   1.17985E+2  -4.59820E+1
  -1.37118E+2   1.31801E+2
  -1.21899E+2   5.97242E+1
  -6.37937E+1  -1.01651E+2
  -8.52985E+1  -6.67095E+1
   5.19279E+1   6.19499E+1
  -9.95956E+1  -3.99640E+1
   3.65365E+1   5.06048E+1
  -1.22816E+1   5.81979E+0
   1.08124E+2   2.42722E+2
  -2.70794E+1   1.71139E+2
   3.70847E+0  -1.33887E+2
   1.23106E+2   5.94019E+1
  -7.99864E+0  -9.44423E+1
   5.28867E+0  -1.83084E+1
  -8.31647E+1   7.92109E+1
   1.08595E+2  -7.96512E+1
  -1.33667E+2   9.71103E+1
   2.17141E+2  -3.12301E+1
  -7.78370E+1  -3.44772E+0
  -5.00035E+1  -1.12380E+1
   3.08819E+1  -2.33524E+2
   1.05577E+2  -1.91680E+2
   1.06056E+2  -1.01921E+2
  -1.95289E+1   1.99574E+2
   3.10937E+1   9.18853E+1
  -2.10338E+2  -1.55818E+2
   1.22310E+2  -1.76209E+2
