 
 $NMID
 ID=''
 FMTDAT='(2E13.5)'
 TRAMP=   1.00000E+0
 VOLUME=   1.00000E+0
 $END
  -5.34378E+5   1.30841E+5
  -1.45845E+6  -1.24761E+5
  -1.41422E+6   7.90608E+4
  -1.27533E+6  -1.74253E+4
  -1.30007E+6  -1.38927E+5
  -1.28387E+6  -1.78937E+5
  -1.26873E+6  -2.50135E+5
  -1.31866E+6  -2.70413E+5
  -1.28507E+6  -2.40319E+5
  -1.22285E+6  -2.82789E+5
  -1.20978E+6  -3.32156E+5
  -1.18286E+6  -3.61609E+5
  -1.16860E+6  -4.10443E+5
  -1.17916E+6  -4.22894E+5
  -1.14859E+6  -4.15761E+5
  -1.11156E+6  -4.43231E+5
  -1.09870E+6  -4.76091E+5
  -1.06681E+6  -5.05748E+5
  -1.04199E+6  -5.47587E+5
  -1.03243E+6  -5.71491E+5
  -9.98345E+5  -5.89364E+5
  -9.65561E+5  -6.19816E+5
  -9.46415E+5  -6.41033E+5
  -9.16043E+5  -6.63475E+5
  -8.86435E+5  -6.90741E+5
  -8.69539E+5  -6.98695E+5
  -8.44077E+5  -7.09385E+5
  -8.19519E+5  -7.29011E+5
  -7.95478E+5  -7.39376E+5
  -7.69766E+5  -7.48579E+5
  -7.46340E+5  -7.68894E+5
  -7.20704E+5  -7.81969E+5
  -6.87882E+5  -7.94806E+5
  -6.60671E+5  -8.09689E+5
  -6.34788E+5  -8.21077E+5
  -6.05652E+5  -8.34534E+5
  -5.77706E+5  -8.50210E+5
  -5.49234E+5  -8.59528E+5
  -5.19883E+5  -8.66028E+5
  -4.95228E+5  -8.74567E+5
  -4.70207E+5  -8.79198E+5
  -4.44995E+5  -8.83068E+5
  -4.23093E+5  -8.85463E+5
  -4.00297E+5  -8.87569E+5
  -3.75108E+5  -8.89384E+5
  -3.53010E+5  -8.92821E+5
  -3.29023E+5  -8.95572E+5
  -3.01287E+5  -8.97124E+5
  -2.74003E+5  -8.96176E+5
  -2.48874E+5  -8.95548E+5
  -2.23261E+5  -8.96296E+5
  -1.97292E+5  -8.95694E+5
  -1.72011E+5  -8.94351E+5
  -1.48074E+5  -8.92417E+5
  -1.24356E+5  -8.88750E+5
  -9.98847E+4  -8.84000E+5
  -7.66591E+4  -8.78883E+5
  -5.52216E+4  -8.72587E+5
  -3.55305E+4  -8.65891E+5
  -1.41716E+4  -8.59662E+5
   6.97351E+3  -8.52666E+5
   2.80918E+4  -8.44965E+5
   4.90419E+4  -8.37511E+5
   7.05755E+4  -8.28833E+5
   9.11625E+4  -8.18473E+5
   1.10542E+5  -8.07581E+5
   1.30151E+5  -7.97056E+5
   1.49325E+5  -7.85713E+5
   1.67807E+5  -7.75338E+5
   1.86302E+5  -7.63992E+5
   2.03953E+5  -7.51056E+5
   2.19765E+5  -7.38194E+5
   2.34889E+5  -7.26265E+5
   2.51601E+5  -7.13967E+5
   2.67396E+5  -7.00042E+5
   2.82081E+5  -6.85691E+5
   2.96121E+5  -6.72221E+5
   3.10613E+5  -6.57565E+5
   3.25344E+5  -6.41745E+5
   3.39039E+5  -6.25810E+5
   3.52321E+5  -6.09950E+5
   3.64046E+5  -5.94108E+5
   3.75760E+5  -5.78688E+5
   3.87490E+5  -5.62075E+5
   3.97835E+5  -5.45306E+5
   4.07449E+5  -5.28447E+5
   4.16300E+5  -5.12305E+5
   4.24715E+5  -4.96708E+5
   4.32728E+5  -4.80201E+5
   4.38957E+5  -4.64081E+5
   4.44915E+5  -4.48287E+5
   4.51698E+5  -4.32332E+5
   4.57855E+5  -4.15333E+5
   4.63181E+5  -3.98124E+5
   4.67313E+5  -3.81786E+5
   4.71472E+5  -3.65284E+5
   4.76036E+5  -3.49070E+5
   4.79556E+5  -3.32300E+5
   4.82714E+5  -3.15835E+5
   4.85002E+5  -2.99862E+5
   4.86910E+5  -2.84000E+5
   4.88599E+5  -2.67659E+5
   4.89387E+5  -2.51658E+5
   4.89007E+5  -2.35954E+5
   4.88517E+5  -2.21355E+5
   4.88227E+5  -2.07447E+5
   4.88214E+5  -1.92450E+5
   4.87302E+5  -1.76882E+5
   4.85023E+5  -1.61836E+5
   4.82564E+5  -1.48393E+5
   4.80744E+5  -1.35150E+5
   4.79298E+5  -1.20689E+5
   4.76375E+5  -1.05343E+5
   4.73107E+5  -9.15492E+4
   4.69881E+5  -7.80592E+4
   4.66831E+5  -6.43497E+4
   4.62514E+5  -5.05710E+4
   4.57960E+5  -3.74353E+4
   4.52552E+5  -2.50665E+4
   4.47722E+5  -1.31900E+4
   4.42959E+5  -8.69049E+2
   4.38182E+5   1.05982E+4
   4.32482E+5   2.21229E+4
   4.26712E+5   3.39865E+4
   4.20312E+5   4.55270E+4
   4.13680E+5   5.67460E+4
   4.07012E+5   6.72128E+4
   4.00299E+5   7.76819E+4
   3.93172E+5   8.78169E+4
   3.86140E+5   9.81622E+4
   3.78810E+5   1.08658E+5
   3.70584E+5   1.19052E+5
   3.62528E+5   1.27967E+5
   3.54981E+5   1.36558E+5
   3.46685E+5   1.45594E+5
   3.37638E+5   1.54225E+5
   3.28915E+5   1.62001E+5
   3.20873E+5   1.69842E+5
   3.12706E+5   1.77832E+5
   3.03507E+5   1.85408E+5
   2.93994E+5   1.92129E+5
   2.85034E+5   1.98204E+5
   2.76184E+5   2.04071E+5
   2.67766E+5   2.10467E+5
   2.58378E+5   2.16581E+5
   2.48890E+5   2.21484E+5
   2.39443E+5   2.26167E+5
   2.30302E+5   2.30388E+5
   2.21058E+5   2.34801E+5
   2.11834E+5   2.38798E+5
   2.02754E+5   2.42031E+5
   1.93719E+5   2.45420E+5
   1.85232E+5   2.48648E+5
   1.76304E+5   2.51301E+5
   1.67231E+5   2.54160E+5
   1.58323E+5   2.56074E+5
   1.50072E+5   2.57973E+5
   1.41546E+5   2.59588E+5
   1.33051E+5   2.61223E+5
   1.24434E+5   2.62090E+5
   1.16327E+5   2.63166E+5
   1.08068E+5   2.63508E+5
   1.00081E+5   2.63913E+5
   9.20111E+4   2.64151E+5
   8.44215E+4   2.63532E+5
   7.70979E+4   2.63469E+5
   6.96719E+4   2.63117E+5
   6.24292E+4   2.62753E+5
   5.51944E+4   2.61819E+5
   4.80652E+4   2.60540E+5
   4.11395E+4   2.59368E+5
   3.45363E+4   2.58048E+5
   2.80557E+4   2.56483E+5
   2.14014E+4   2.54842E+5
   1.51167E+4   2.52787E+5
   8.82582E+3   2.50810E+5
   2.56776E+3   2.49016E+5
  -3.62461E+3   2.46590E+5
  -9.56815E+3   2.43522E+5
  -1.51212E+4   2.40813E+5
  -2.05594E+4   2.38384E+5
  -2.64560E+4   2.35893E+5
  -3.19776E+4   2.32641E+5
  -3.72282E+4   2.29495E+5
  -4.21411E+4   2.26150E+5
  -4.71739E+4   2.22404E+5
  -5.18881E+4   2.19182E+5
  -5.62852E+4   2.15346E+5
  -6.03375E+4   2.11889E+5
  -6.43839E+4   2.08363E+5
  -6.90044E+4   2.05032E+5
  -7.35736E+4   2.00756E+5
  -7.75765E+4   1.96462E+5
  -8.11857E+4   1.92004E+5
  -8.48524E+4   1.88026E+5
  -8.83139E+4   1.83805E+5
  -9.22539E+4   1.79473E+5
  -9.52032E+4   1.75001E+5
  -9.85621E+4   1.70758E+5
  -1.01998E+5   1.66480E+5
  -1.04948E+5   1.61570E+5
  -1.07503E+5   1.56654E+5
  -1.09857E+5   1.52019E+5
  -1.12294E+5   1.47665E+5
  -1.14901E+5   1.43140E+5
  -1.16971E+5   1.38664E+5
  -1.19190E+5   1.33540E+5
  -1.20843E+5   1.28910E+5
  -1.22622E+5   1.24244E+5
  -1.24868E+5   1.19420E+5
  -1.26148E+5   1.15043E+5
  -1.27480E+5   1.09918E+5
  -1.28154E+5   1.05735E+5
  -1.29730E+5   1.00919E+5
  -1.31019E+5   9.60146E+4
  -1.31354E+5   9.10564E+4
  -1.31774E+5   8.67466E+4
  -1.32421E+5   8.24131E+4
  -1.32856E+5   7.83833E+4
  -1.33139E+5   7.36698E+4
  -1.33035E+5   6.94016E+4
  -1.33294E+5   6.53909E+4
  -1.33122E+5   6.12480E+4
  -1.32857E+5   5.71735E+4
  -1.32364E+5   5.24357E+4
  -1.31450E+5   4.84265E+4
  -1.30956E+5   4.47531E+4
  -1.30260E+5   4.10883E+4
  -1.29749E+5   3.72390E+4
  -1.28908E+5   3.31664E+4
  -1.27671E+5   2.93134E+4
  -1.26327E+5   2.58653E+4
  -1.25278E+5   2.27175E+4
  -1.24071E+5   1.87824E+4
  -1.22937E+5   1.57681E+4
  -1.21491E+5   1.25672E+4
  -1.20064E+5   9.39613E+3
  -1.18586E+5   6.22371E+3
  -1.16757E+5   3.30504E+3
  -1.14610E+5   4.29400E+2
  -1.12873E+5  -2.43361E+3
  -1.11542E+5  -5.23318E+3
  -1.09715E+5  -7.98504E+3
  -1.07756E+5  -1.09595E+4
  -1.05575E+5  -1.36278E+4
  -1.03616E+5  -1.57427E+4
  -1.01809E+5  -1.84388E+4
  -9.94244E+4  -2.09967E+4
  -9.70486E+4  -2.30878E+4
  -9.52643E+4  -2.52346E+4
  -9.30542E+4  -2.73591E+4
  -9.11994E+4  -2.97365E+4
  -8.86812E+4  -3.21245E+4
  -8.63025E+4  -3.36349E+4
  -8.40520E+4  -3.55889E+4
  -8.21436E+4  -3.75399E+4
  -7.98029E+4  -3.95109E+4
  -7.71549E+4  -4.12726E+4
  -7.48198E+4  -4.29369E+4
  -7.28260E+4  -4.46090E+4
  -7.03016E+4  -4.65408E+4
  -6.77147E+4  -4.82130E+4
  -6.53536E+4  -4.94765E+4
  -6.28630E+4  -5.08360E+4
  -6.05645E+4  -5.19235E+4
  -5.85043E+4  -5.36086E+4
  -5.57345E+4  -5.48146E+4
  -5.31377E+4  -5.59684E+4
  -5.08808E+4  -5.67871E+4
  -4.87901E+4  -5.77544E+4
  -4.61167E+4  -5.89193E+4
  -4.39188E+4  -5.96915E+4
  -4.14754E+4  -6.06224E+4
  -3.90294E+4  -6.12845E+4
  -3.70507E+4  -6.20388E+4
  -3.44821E+4  -6.29119E+4
  -3.20407E+4  -6.32132E+4
  -2.96905E+4  -6.35311E+4
  -2.76649E+4  -6.39211E+4
  -2.57448E+4  -6.43303E+4
  -2.31974E+4  -6.48195E+4
  -2.10030E+4  -6.47994E+4
  -1.88362E+4  -6.53101E+4
  -1.68199E+4  -6.52799E+4
  -1.45047E+4  -6.55270E+4
  -1.25159E+4  -6.56165E+4
  -1.06952E+4  -6.55637E+4
  -8.46775E+3  -6.50077E+4
  -7.13486E+3  -6.50713E+4
  -4.73090E+3  -6.49527E+4
  -2.89892E+3  -6.44436E+4
  -9.09860E+2  -6.43847E+4
   8.13676E+2  -6.38478E+4
   2.61651E+3  -6.38201E+4
   4.09369E+3  -6.31327E+4
   5.99021E+3  -6.29670E+4
   7.56185E+3  -6.23554E+4
   9.23687E+3  -6.18713E+4
   1.08552E+4  -6.18048E+4
   1.25934E+4  -6.07152E+4
   1.39240E+4  -5.98148E+4
   1.50330E+4  -5.94165E+4
   1.64992E+4  -5.90100E+4
   1.79151E+4  -5.82009E+4
   1.95165E+4  -5.74434E+4
   2.07714E+4  -5.65376E+4
   2.20509E+4  -5.58230E+4
   2.33480E+4  -5.51104E+4
   2.47055E+4  -5.43428E+4
   2.52184E+4  -5.32236E+4
   2.66696E+4  -5.23216E+4
   2.76561E+4  -5.15388E+4
   2.89601E+4  -5.08644E+4
   2.99145E+4  -4.94971E+4
   3.11363E+4  -4.88080E+4
   3.17879E+4  -4.79959E+4
   3.26322E+4  -4.72422E+4
   3.36191E+4  -4.61442E+4
   3.46080E+4  -4.51474E+4
   3.52166E+4  -4.40607E+4
   3.58261E+4  -4.32219E+4
   3.67513E+4  -4.22124E+4
   3.73503E+4  -4.11369E+4
   3.80796E+4  -4.01024E+4
   3.86633E+4  -3.89840E+4
   3.93095E+4  -3.82992E+4
   3.97560E+4  -3.74959E+4
   4.03617E+4  -3.61889E+4
   4.11814E+4  -3.51177E+4
   4.14843E+4  -3.38947E+4
   4.14886E+4  -3.32477E+4
   4.20087E+4  -3.22599E+4
   4.23194E+4  -3.11647E+4
   4.27039E+4  -3.01126E+4
   4.27572E+4  -2.91860E+4
   4.32670E+4  -2.81958E+4
   4.36512E+4  -2.71343E+4
   4.37024E+4  -2.59239E+4
   4.37730E+4  -2.48658E+4
   4.39096E+4  -2.41742E+4
   4.39285E+4  -2.27837E+4
   4.42141E+4  -2.20033E+4
   4.41408E+4  -2.07871E+4
   4.40554E+4  -2.01407E+4
   4.43093E+4  -1.89409E+4
   4.41652E+4  -1.81146E+4
   4.40660E+4  -1.70632E+4
   4.40333E+4  -1.62377E+4
   4.39434E+4  -1.53104E+4
   4.34935E+4  -1.45054E+4
   4.36646E+4  -1.36544E+4
   4.35216E+4  -1.24147E+4
   4.35359E+4  -1.14138E+4
   4.28958E+4  -1.07736E+4
   4.28553E+4  -9.96873E+3
   4.23856E+4  -9.03444E+3
   4.22719E+4  -8.28753E+3
   4.19779E+4  -7.08269E+3
   4.14704E+4  -6.60308E+3
   4.14654E+4  -5.60021E+3
   4.11428E+4  -4.81311E+3
   4.07304E+4  -3.91155E+3
   4.00889E+4  -3.30860E+3
   3.97977E+4  -2.78243E+3
   3.94941E+4  -1.97861E+3
   3.89636E+4  -1.02777E+3
   3.88482E+4  -6.63822E+2
