 
 $NMID
 ID=''
 FMTDAT='(2E13.5)'
 TRAMP=   1.00000E+0
 VOLUME=   1.00000E+0
 $END
  -1.10207E+5   7.45943E+5
  -1.00311E+6   1.71129E+6
  -8.36979E+5   1.76033E+6
  -9.13474E+5   1.64424E+6
  -9.78322E+5   1.68799E+6
  -9.36492E+5   1.61734E+6
  -1.01516E+6   1.52657E+6
  -1.06885E+6   1.58134E+6
  -1.00972E+6   1.55349E+6
  -1.05188E+6   1.45790E+6
  -1.11186E+6   1.45436E+6
  -1.09510E+6   1.43875E+6
  -1.10812E+6   1.38818E+6
  -1.12884E+6   1.36823E+6
  -1.12636E+6   1.32781E+6
  -1.14646E+6   1.29035E+6
  -1.16311E+6   1.28096E+6
  -1.16738E+6   1.23247E+6
  -1.19541E+6   1.18190E+6
  -1.20813E+6   1.16508E+6
  -1.21051E+6   1.12205E+6
  -1.23276E+6   1.07743E+6
  -1.24094E+6   1.05536E+6
  -1.24091E+6   1.01574E+6
  -1.25727E+6   9.71454E+5
  -1.25876E+6   9.51296E+5
  -1.25667E+6   9.20809E+5
  -1.26495E+6   8.88871E+5
  -1.26538E+6   8.60294E+5
  -1.26284E+6   8.27687E+5
  -1.27264E+6   7.94898E+5
  -1.27270E+6   7.66927E+5
  -1.27369E+6   7.29825E+5
  -1.27930E+6   6.95806E+5
  -1.27603E+6   6.65940E+5
  -1.27491E+6   6.32830E+5
  -1.28336E+6   6.01768E+5
  -1.28332E+6   5.69524E+5
  -1.27627E+6   5.36205E+5
  -1.27642E+6   5.09453E+5
  -1.27314E+6   4.82380E+5
  -1.26613E+6   4.52421E+5
  -1.25953E+6   4.28461E+5
  -1.25541E+6   4.06303E+5
  -1.24998E+6   3.78696E+5
  -1.24433E+6   3.53262E+5
  -1.23846E+6   3.27164E+5
  -1.23471E+6   2.97036E+5
  -1.22693E+6   2.68115E+5
  -1.21741E+6   2.41433E+5
  -1.21155E+6   2.14522E+5
  -1.20677E+6   1.87583E+5
  -1.19797E+6   1.61230E+5
  -1.18974E+6   1.34982E+5
  -1.18157E+6   1.09491E+5
  -1.17300E+6   8.45820E+4
  -1.16217E+6   5.99085E+4
  -1.15018E+6   3.69358E+4
  -1.13909E+6   1.61885E+4
  -1.12980E+6  -5.42700E+3
  -1.11873E+6  -2.82465E+4
  -1.10723E+6  -5.01334E+4
  -1.09710E+6  -7.18303E+4
  -1.08584E+6  -9.45041E+4
  -1.07134E+6  -1.16968E+5
  -1.05671E+6  -1.37361E+5
  -1.04439E+6  -1.57596E+5
  -1.03118E+6  -1.77323E+5
  -1.01765E+6  -1.96794E+5
  -1.00532E+6  -2.16263E+5
  -9.91758E+5  -2.35847E+5
  -9.76201E+5  -2.52805E+5
  -9.62247E+5  -2.68703E+5
  -9.49675E+5  -2.85671E+5
  -9.35494E+5  -3.03383E+5
  -9.19632E+5  -3.19350E+5
  -9.04719E+5  -3.34537E+5
  -8.90558E+5  -3.50740E+5
  -8.75307E+5  -3.66907E+5
  -8.59015E+5  -3.82348E+5
  -8.42610E+5  -3.96985E+5
  -8.27146E+5  -4.11232E+5
  -8.11604E+5  -4.24446E+5
  -7.94854E+5  -4.37883E+5
  -7.78264E+5  -4.50679E+5
  -7.62255E+5  -4.62592E+5
  -7.47183E+5  -4.73034E+5
  -7.31398E+5  -4.83219E+5
  -7.15441E+5  -4.93045E+5
  -6.99241E+5  -5.02105E+5
  -6.84237E+5  -5.10328E+5
  -6.68885E+5  -5.18973E+5
  -6.53234E+5  -5.28142E+5
  -6.36340E+5  -5.36287E+5
  -6.19563E+5  -5.43328E+5
  -6.03124E+5  -5.49664E+5
  -5.88037E+5  -5.56276E+5
  -5.72712E+5  -5.63205E+5
  -5.56168E+5  -5.69381E+5
  -5.39935E+5  -5.74064E+5
  -5.25227E+5  -5.79090E+5
  -5.09983E+5  -5.84769E+5
  -4.93040E+5  -5.88804E+5
  -4.77419E+5  -5.91513E+5
  -4.62801E+5  -5.93929E+5
  -4.48954E+5  -5.97002E+5
  -4.34294E+5  -5.99916E+5
  -4.18932E+5  -6.02188E+5
  -4.03848E+5  -6.03803E+5
  -3.89482E+5  -6.04378E+5
  -3.75741E+5  -6.05040E+5
  -3.61637E+5  -6.07198E+5
  -3.46688E+5  -6.08760E+5
  -3.31770E+5  -6.09822E+5
  -3.17191E+5  -6.09652E+5
  -3.03106E+5  -6.09920E+5
  -2.88485E+5  -6.10214E+5
  -2.73990E+5  -6.09281E+5
  -2.60217E+5  -6.07497E+5
  -2.48021E+5  -6.05859E+5
  -2.35463E+5  -6.05201E+5
  -2.22629E+5  -6.04144E+5
  -2.09874E+5  -6.02049E+5
  -1.97064E+5  -6.00349E+5
  -1.84471E+5  -5.98867E+5
  -1.71581E+5  -5.96088E+5
  -1.59064E+5  -5.92561E+5
  -1.47244E+5  -5.89649E+5
  -1.35577E+5  -5.86892E+5
  -1.23259E+5  -5.83926E+5
  -1.10757E+5  -5.80671E+5
  -9.81437E+4  -5.76960E+5
  -8.64020E+4  -5.72579E+5
  -7.54488E+4  -5.68120E+5
  -6.44190E+4  -5.64314E+5
  -5.31081E+4  -5.59753E+5
  -4.25932E+4  -5.54957E+5
  -3.21484E+4  -5.49922E+5
  -2.19175E+4  -5.45153E+5
  -1.11959E+4  -5.40118E+5
  -9.46876E+2  -5.34513E+5
   8.33277E+3  -5.27991E+5
   1.66817E+4  -5.21871E+5
   2.58588E+4  -5.16523E+5
   3.53497E+4  -5.11087E+5
   4.43265E+4  -5.04586E+5
   5.30214E+4  -4.97939E+5
   6.12888E+4  -4.90997E+5
   6.95559E+4  -4.84288E+5
   7.69036E+4  -4.77295E+5
   8.42578E+4  -4.70076E+5
   9.09179E+4  -4.63292E+5
   9.77988E+4  -4.56897E+5
   1.04131E+5  -4.50351E+5
   1.11138E+5  -4.43038E+5
   1.17222E+5  -4.35480E+5
   1.23099E+5  -4.28496E+5
   1.28709E+5  -4.21488E+5
   1.34137E+5  -4.14033E+5
   1.39539E+5  -4.06954E+5
   1.44696E+5  -3.99553E+5
   1.49693E+5  -3.92181E+5
   1.54476E+5  -3.84492E+5
   1.59388E+5  -3.77025E+5
   1.63567E+5  -3.69666E+5
   1.66825E+5  -3.62130E+5
   1.70795E+5  -3.55326E+5
   1.74784E+5  -3.48124E+5
   1.78784E+5  -3.40906E+5
   1.81726E+5  -3.33684E+5
   1.84548E+5  -3.26455E+5
   1.87574E+5  -3.19840E+5
   1.90527E+5  -3.12353E+5
   1.93080E+5  -3.05307E+5
   1.95454E+5  -2.98714E+5
   1.97921E+5  -2.91653E+5
   2.00400E+5  -2.84657E+5
   2.02928E+5  -2.77500E+5
   2.04635E+5  -2.70074E+5
   2.06586E+5  -2.63007E+5
   2.08373E+5  -2.56450E+5
   2.10319E+5  -2.49790E+5
   2.11484E+5  -2.42779E+5
   2.13209E+5  -2.35902E+5
   2.14107E+5  -2.29367E+5
   2.15102E+5  -2.22674E+5
   2.15916E+5  -2.16328E+5
   2.16665E+5  -2.09431E+5
   2.16968E+5  -2.03134E+5
   2.17188E+5  -1.97342E+5
   2.18066E+5  -1.91490E+5
   2.18794E+5  -1.85045E+5
   2.19122E+5  -1.78146E+5
   2.18950E+5  -1.71710E+5
   2.18722E+5  -1.65440E+5
   2.18793E+5  -1.59564E+5
   2.18585E+5  -1.53258E+5
   2.18602E+5  -1.47216E+5
   2.17976E+5  -1.41180E+5
   2.17523E+5  -1.35007E+5
   2.17390E+5  -1.28954E+5
   2.16485E+5  -1.23048E+5
   2.14936E+5  -1.17164E+5
   2.13938E+5  -1.11766E+5
   2.12895E+5  -1.06637E+5
   2.11906E+5  -1.00834E+5
   2.10558E+5  -9.49474E+4
   2.09344E+5  -8.95523E+4
   2.07567E+5  -8.43647E+4
   2.06117E+5  -7.92087E+4
   2.04715E+5  -7.37135E+4
   2.02756E+5  -6.87684E+4
   2.00912E+5  -6.39748E+4
   1.99135E+5  -5.91502E+4
   1.97585E+5  -5.45802E+4
   1.95468E+5  -4.92798E+4
   1.93129E+5  -4.46900E+4
   1.90716E+5  -4.05953E+4
   1.88270E+5  -3.65459E+4
   1.86316E+5  -3.25471E+4
   1.83709E+5  -2.83346E+4
   1.81400E+5  -2.42576E+4
   1.79088E+5  -2.06567E+4
   1.76562E+5  -1.66996E+4
   1.74107E+5  -1.28624E+4
   1.71172E+5  -9.23766E+3
   1.68341E+5  -6.18357E+3
   1.65774E+5  -2.79686E+3
   1.63306E+5   1.92585E+2
   1.60651E+5   3.46610E+3
   1.57675E+5   6.58797E+3
   1.55015E+5   9.44579E+3
   1.52015E+5   1.20772E+4
   1.49504E+5   1.48049E+4
   1.46642E+5   1.72314E+4
   1.43741E+5   1.96617E+4
   1.41130E+5   2.17956E+4
   1.38305E+5   2.42640E+4
   1.35444E+5   2.64632E+4
   1.32792E+5   2.85011E+4
   1.29698E+5   3.01842E+4
   1.27172E+5   3.20484E+4
   1.24202E+5   3.39696E+4
   1.21568E+5   3.55761E+4
   1.18641E+5   3.74700E+4
   1.16384E+5   3.89036E+4
   1.13464E+5   4.04306E+4
   1.10906E+5   4.18305E+4
   1.08006E+5   4.32132E+4
   1.05325E+5   4.44106E+4
   1.02766E+5   4.53768E+4
   1.00284E+5   4.64047E+4
   9.77790E+4   4.77288E+4
   9.52599E+4   4.85518E+4
   9.22804E+4   4.95169E+4
   9.02793E+4   5.03202E+4
   8.75807E+4   5.09400E+4
   8.51584E+4   5.21049E+4
   8.26490E+4   5.27052E+4
   8.00712E+4   5.31986E+4
   7.80868E+4   5.42324E+4
   7.55591E+4   5.45871E+4
   7.29922E+4   5.52238E+4
   7.05579E+4   5.56792E+4
   6.82455E+4   5.57943E+4
   6.58806E+4   5.59278E+4
   6.35359E+4   5.64514E+4
   6.15910E+4   5.67362E+4
   5.93282E+4   5.70723E+4
   5.71134E+4   5.70462E+4
   5.51094E+4   5.68864E+4
   5.30883E+4   5.71747E+4
   5.09189E+4   5.73549E+4
   4.88322E+4   5.71944E+4
   4.69118E+4   5.73150E+4
   4.49793E+4   5.71910E+4
   4.28052E+4   5.71592E+4
   4.06907E+4   5.69578E+4
   3.90348E+4   5.66162E+4
   3.71215E+4   5.64901E+4
   3.50885E+4   5.61572E+4
   3.34579E+4   5.59608E+4
   3.16527E+4   5.56812E+4
   3.00181E+4   5.52961E+4
   2.81660E+4   5.48447E+4
   2.66985E+4   5.45991E+4
   2.48586E+4   5.41597E+4
   2.32387E+4   5.32997E+4
   2.16986E+4   5.27993E+4
   2.05261E+4   5.26505E+4
   1.90681E+4   5.23222E+4
   1.75397E+4   5.14351E+4
   1.59062E+4   5.11053E+4
   1.46655E+4   5.04794E+4
   1.34035E+4   4.97639E+4
   1.18856E+4   4.92344E+4
   1.06451E+4   4.85814E+4
   9.67595E+3   4.80856E+4
   8.36868E+3   4.75171E+4
   7.13896E+3   4.69095E+4
   6.11302E+3   4.61649E+4
   4.96700E+3   4.56613E+4
   3.89581E+3   4.45834E+4
   3.11481E+3   4.43071E+4
   1.96579E+3   4.36193E+4
   8.94598E+2   4.29368E+4
   5.22453E+1   4.22203E+4
  -7.78491E+2   4.15230E+4
  -1.85638E+3   4.08987E+4
  -2.44834E+3   4.01740E+4
  -3.26855E+3   3.95762E+4
  -3.93264E+3   3.87597E+4
  -4.49740E+3   3.80578E+4
  -5.33031E+3   3.76014E+4
  -6.00831E+3   3.69754E+4
  -6.63494E+3   3.58012E+4
  -7.07436E+3   3.53090E+4
  -7.71669E+3   3.44792E+4
  -8.20969E+3   3.39191E+4
  -8.82794E+3   3.32468E+4
  -9.47444E+3   3.25227E+4
  -9.77977E+3   3.19937E+4
  -1.00014E+4   3.09343E+4
  -1.06359E+4   3.05796E+4
  -1.09176E+4   2.95767E+4
  -1.11515E+4   2.88432E+4
  -1.12698E+4   2.81351E+4
  -1.17708E+4   2.76085E+4
  -1.19626E+4   2.68597E+4
  -1.23670E+4   2.63178E+4
  -1.25526E+4   2.55432E+4
  -1.25566E+4   2.48894E+4
  -1.29644E+4   2.44973E+4
  -1.30922E+4   2.35841E+4
  -1.30866E+4   2.30435E+4
  -1.34890E+4   2.25712E+4
  -1.34435E+4   2.19906E+4
  -1.35434E+4   2.14542E+4
  -1.36214E+4   2.04020E+4
  -1.35831E+4   1.98001E+4
  -1.37068E+4   1.94004E+4
  -1.40783E+4   1.89700E+4
  -1.37690E+4   1.83434E+4
  -1.35855E+4   1.77230E+4
  -1.37648E+4   1.73575E+4
  -1.37136E+4   1.67285E+4
  -1.38217E+4   1.64409E+4
  -1.37815E+4   1.56492E+4
  -1.34712E+4   1.49185E+4
  -1.33237E+4   1.46592E+4
  -1.31112E+4   1.44099E+4
  -1.36199E+4   1.38781E+4
  -1.33522E+4   1.33864E+4
  -1.32082E+4   1.30321E+4
  -1.28762E+4   1.23379E+4
  -1.26727E+4   1.19089E+4
  -1.26361E+4   1.16912E+4
  -1.24624E+4   1.13030E+4
  -1.21755E+4   1.08840E+4
  -1.20666E+4   1.08140E+4
  -1.19911E+4   1.02158E+4
  -1.17855E+4   9.95220E+3
  -1.14962E+4   9.65707E+3
  -1.11007E+4   9.21990E+3
  -1.09196E+4   9.18256E+3
  -1.09542E+4   8.57984E+3
  -1.05502E+4   8.30542E+3
