 LCModel (Version 6.3-1N) Copyright: S.W. Provencher.          Ref.: Magn. Reson. Med. 30:672-679 (1993).                
 Slice_N1@8_12  28-Feb-2025 11:44:02
 27 lines in following concentration table = NCONC+1
    Conc.  %SD /Cr+PCr  Metabolite                                         
 2.96E-04   4% 3.1E-04 Mac                                                 
    5.950  39%   6.243 Cr                                                  
    1.674 137%   1.757 PCr                                                 
    3.831  23%   4.020 Ins                                                 
   11.374   8%  11.934 NAA                                                 
    4.063  23%   4.263 Tau                                                 
    0.000 999%   0.000 PCho                                                
    1.178  27%   1.236 GPC                                                 
    9.591  11%  10.064 Glu                                                 
    4.148  20%   4.352 Gln                                                 
    1.396  50%   1.465 Ala                                                 
    2.325  57%   2.440 Asc                                                 
    3.536  28%   3.711 Asp                                                 
    0.000 999%   0.000 GABA                                                
    0.359 196%   0.377 Glc                                                 
    1.487  36%   1.561 GSH                                                 
    0.000 999%   0.000 Lac                                                 
    0.912  84%   0.957 NAAG                                                
    3.088  40%   3.240 PE                                                  
    1.178  27%   1.236 GPC+PCho                                            
   12.285   6%  12.891 NAA+NAAG                                            
   13.739   9%  14.416 Glu+Gln                                             
    7.624   9%   8.000 Cr+PCr                                              
   12.285   6%  12.891 NAA+NAAG                                            
    7.624   9%   8.000 Cr+PCr                                              
   13.739   9%  14.416 Glu+Gln                                             
   6 lines in following misc. output table
  FWHM = 0.041 ppm    S/N =   4                                            
  Data shift = 0.057 ppm                                                   
  Ph: 139 deg       0.0 deg/ppm                                            
  alphaB,S = 1.3E+00,   1.9E+01                                            
   19 spline knots.   Ns = 6(1)                                            
  ( 6) 2 infls.   ( 5) 1 extrs.                                            
  480 points on ppm-axis = NY
      4.100000     4.091866     4.083733     4.075600     4.067466     4.059333     4.051199     4.043066     4.034933     4.026799
      4.018666     4.010532     4.002399     3.994265     3.986132     3.977998     3.969864     3.961731     3.953597     3.945463
      3.937330     3.929196     3.921062     3.912929     3.904795     3.896662     3.888528     3.880394     3.872261     3.864127
      3.855993     3.847860     3.839726     3.831592     3.823459     3.815325     3.807191     3.799058     3.790924     3.782790
      3.774657     3.766523     3.758389     3.750256     3.742122     3.733989     3.725855     3.717721     3.709588     3.701454
      3.693320     3.685187     3.677053     3.668919     3.660786     3.652652     3.644518     3.636385     3.628251     3.620117
      3.611984     3.603850     3.595716     3.587583     3.579449     3.571316     3.563182     3.555048     3.546915     3.538781
      3.530647     3.522514     3.514380     3.506246     3.498113     3.489979     3.481845     3.473712     3.465578     3.457444
      3.449311     3.441177     3.433043     3.424910     3.416776     3.408643     3.400509     3.392375     3.384242     3.376108
      3.367974     3.359841     3.351707     3.343573     3.335440     3.327306     3.319172     3.311039     3.302905     3.294771
      3.286638     3.278504     3.270370     3.262237     3.254103     3.245970     3.237836     3.229702     3.221569     3.213435
      3.205301     3.197168     3.189034     3.180900     3.172767     3.164633     3.156499     3.148366     3.140232     3.132098
      3.123965     3.115831     3.107697     3.099564     3.091430     3.083297     3.075163     3.067029     3.058896     3.050762
      3.042628     3.034495     3.026361     3.018227     3.010094     3.001960     2.993826     2.985693     2.977559     2.969425
      2.961292     2.953158     2.945024     2.936891     2.928757     2.920624     2.912490     2.904356     2.896223     2.888089
      2.879955     2.871822     2.863688     2.855554     2.847421     2.839287     2.831153     2.823020     2.814886     2.806752
      2.798619     2.790485     2.782351     2.774218     2.766084     2.757951     2.749817     2.741683     2.733550     2.725416
      2.717282     2.709149     2.701015     2.692881     2.684748     2.676614     2.668480     2.660347     2.652213     2.644079
      2.635946     2.627812     2.619678     2.611545     2.603411     2.595278     2.587144     2.579010     2.570877     2.562743
      2.554609     2.546476     2.538342     2.530208     2.522075     2.513941     2.505807     2.497674     2.489540     2.481406
      2.473273     2.465139     2.457006     2.448872     2.440738     2.432605     2.424471     2.416337     2.408204     2.400070
      2.391936     2.383803     2.375669     2.367535     2.359402     2.351268     2.343134     2.335001     2.326867     2.318733
      2.310600     2.302466     2.294333     2.286199     2.278065     2.269932     2.261798     2.253664     2.245531     2.237397
      2.229263     2.221130     2.212996     2.204862     2.196729     2.188595     2.180461     2.172328     2.164194     2.156060
      2.147927     2.139793     2.131660     2.123526     2.115392     2.107259     2.099125     2.090991     2.082858     2.074724
      2.066590     2.058457     2.050323     2.042189     2.034056     2.025922     2.017788     2.009655     2.001521     1.993387
      1.985254     1.977120     1.968987     1.960853     1.952719     1.944586     1.936452     1.928318     1.920185     1.912051
      1.903917     1.895784     1.887650     1.879516     1.871383     1.863249     1.855115     1.846982     1.838848     1.830714
      1.822581     1.814447     1.806314     1.798180     1.790046     1.781913     1.773779     1.765645     1.757512     1.749378
      1.741244     1.733111     1.724977     1.716843     1.708710     1.700576     1.692442     1.684309     1.676175     1.668041
      1.659908     1.651774     1.643641     1.635507     1.627373     1.619240     1.611106     1.602972     1.594839     1.586705
      1.578571     1.570438     1.562304     1.554170     1.546037     1.537903     1.529769     1.521636     1.513502     1.505368
      1.497235     1.489101     1.480968     1.472834     1.464700     1.456567     1.448433     1.440299     1.432166     1.424032
      1.415898     1.407765     1.399631     1.391497     1.383364     1.375230     1.367096     1.358963     1.350829     1.342695
      1.334562     1.326428     1.318295     1.310161     1.302027     1.293894     1.285760     1.277626     1.269493     1.261359
      1.253225     1.245092     1.236958     1.228824     1.220691     1.212557     1.204423     1.196290     1.188156     1.180022
      1.171889     1.163755     1.155622     1.147488     1.139354     1.131221     1.123087     1.114953     1.106820     1.098686
      1.090552     1.082419     1.074285     1.066151     1.058018     1.049884     1.041750     1.033617     1.025483     1.017349
      1.009216     1.001082     0.992949     0.984815     0.976681     0.968548     0.960414     0.952280     0.944147     0.936013
      0.927879     0.919746     0.911612     0.903478     0.895345     0.887211     0.879077     0.870944     0.862810     0.854676
      0.846543     0.838409     0.830276     0.822142     0.814008     0.805875     0.797741     0.789607     0.781474     0.773340
      0.765206     0.757073     0.748939     0.740805     0.732672     0.724538     0.716404     0.708271     0.700137     0.692003
      0.683870     0.675736     0.667603     0.659469     0.651335     0.643202     0.635068     0.626934     0.618801     0.610667
      0.602533     0.594400     0.586266     0.578132     0.569999     0.561865     0.553731     0.545598     0.537464     0.529330
      0.521197     0.513063     0.504930     0.496796     0.488662     0.480529     0.472395     0.464261     0.456128     0.447994
      0.439861     0.431727     0.423593     0.415460     0.407326     0.399192     0.391059     0.382925     0.374792     0.366658
      0.358524     0.350391     0.342257     0.334124     0.325990     0.317856     0.309723     0.301589     0.293455     0.285322
      0.277188     0.269055     0.260921     0.252787     0.244654     0.236520     0.228386     0.220253     0.212119     0.203986
 NY phased data points follow
  -2.31559E+02 -2.48645E+02 -2.34287E+02 -2.47575E+02 -2.36406E+02 -2.57326E+02 -2.32362E+02 -2.27543E+02 -2.40672E+02 -2.31793E+02
  -2.55074E+02 -2.51296E+02 -2.55318E+02 -2.42933E+02 -2.47058E+02 -2.59608E+02 -2.68141E+02 -2.81730E+02 -2.55658E+02 -2.65779E+02
  -2.86201E+02 -2.54982E+02 -2.41033E+02 -2.47280E+02 -2.09550E+02 -1.86708E+02 -1.84265E+02 -1.66968E+02 -1.55946E+02 -1.62591E+02
  -1.79998E+02 -1.80872E+02 -1.70677E+02 -1.71535E+02 -2.07692E+02 -2.13648E+02 -1.96677E+02 -1.92923E+02 -2.09306E+02 -2.51606E+02
  -2.40079E+02 -2.18302E+02 -2.21109E+02 -2.09261E+02 -1.88144E+02 -1.78922E+02 -1.58584E+02 -1.34669E+02 -1.34543E+02 -1.31262E+02
  -1.45366E+02 -1.60705E+02 -1.54674E+02 -1.57282E+02 -1.75849E+02 -1.68901E+02 -1.62212E+02 -1.68260E+02 -1.61408E+02 -1.67467E+02
  -1.67512E+02 -1.75431E+02 -1.58622E+02 -1.29664E+02 -1.47591E+02 -1.61574E+02 -1.50547E+02 -1.42217E+02 -1.69829E+02 -1.84082E+02
  -1.61154E+02 -1.73750E+02 -1.79946E+02 -1.41153E+02 -1.32962E+02 -1.45084E+02 -1.34882E+02 -1.16209E+02 -1.39427E+02 -1.53743E+02
  -1.24163E+02 -1.36712E+02 -1.41895E+02 -1.42952E+02 -1.45559E+02 -1.51213E+02 -1.69077E+02 -1.44522E+02 -1.36395E+02 -1.23113E+02
  -1.21136E+02 -1.36744E+02 -1.14410E+02 -1.05883E+02 -1.06402E+02 -8.78145E+01 -8.86587E+01 -1.17278E+02 -1.27335E+02 -1.12159E+02
  -9.92942E+01 -1.30030E+02 -1.41455E+02 -1.42219E+02 -1.70562E+02 -1.60473E+02 -1.84795E+02 -2.14559E+02 -1.97947E+02 -2.17914E+02
  -2.54995E+02 -2.35007E+02 -2.20739E+02 -2.30589E+02 -2.10979E+02 -2.13731E+02 -2.03187E+02 -1.91616E+02 -1.91138E+02 -1.64811E+02
  -1.61248E+02 -1.71542E+02 -1.69595E+02 -1.44695E+02 -1.20834E+02 -1.31656E+02 -1.24307E+02 -7.96531E+01 -9.47573E+01 -1.08974E+02
  -9.90004E+01 -1.29752E+02 -1.61437E+02 -2.10547E+02 -2.09345E+02 -2.08741E+02 -2.41917E+02 -2.38766E+02 -2.44190E+02 -2.20775E+02
  -1.98233E+02 -2.09265E+02 -2.13382E+02 -2.16224E+02 -2.28708E+02 -2.20280E+02 -2.10190E+02 -2.20811E+02 -2.14627E+02 -2.09154E+02
  -1.92642E+02 -1.93758E+02 -1.99712E+02 -1.87456E+02 -1.94824E+02 -1.85417E+02 -1.88510E+02 -1.97257E+02 -1.88429E+02 -1.85821E+02
  -1.74602E+02 -1.81843E+02 -1.73622E+02 -1.66822E+02 -1.97020E+02 -1.85314E+02 -1.75120E+02 -1.76529E+02 -1.64829E+02 -1.60888E+02
  -1.48137E+02 -1.34960E+02 -1.29137E+02 -1.33662E+02 -1.22035E+02 -1.36305E+02 -1.43516E+02 -1.49372E+02 -1.73965E+02 -1.51209E+02
  -1.66469E+02 -1.88063E+02 -1.97725E+02 -1.87200E+02 -1.80588E+02 -2.07245E+02 -1.97864E+02 -1.95516E+02 -1.78985E+02 -1.81296E+02
  -1.77751E+02 -1.80773E+02 -2.01181E+02 -1.61807E+02 -1.51798E+02 -1.58687E+02 -1.67653E+02 -1.67246E+02 -1.50113E+02 -1.57520E+02
  -1.59718E+02 -1.43671E+02 -1.42690E+02 -1.52733E+02 -1.45931E+02 -1.57328E+02 -1.60287E+02 -1.57906E+02 -1.65724E+02 -1.73339E+02
  -1.79651E+02 -1.59519E+02 -1.39722E+02 -1.29644E+02 -1.18098E+02 -9.92949E+01 -1.00315E+02 -1.00515E+02 -1.00010E+02 -1.25678E+02
  -1.33912E+02 -1.55444E+02 -1.54211E+02 -1.29492E+02 -1.47230E+02 -1.35260E+02 -1.26639E+02 -1.46374E+02 -1.40017E+02 -1.45847E+02
  -1.55207E+02 -1.54725E+02 -1.60292E+02 -1.76574E+02 -1.85183E+02 -2.07614E+02 -2.24490E+02 -1.95068E+02 -2.05303E+02 -2.17986E+02
  -2.13833E+02 -1.96150E+02 -1.68237E+02 -1.78035E+02 -1.73855E+02 -1.78225E+02 -1.69195E+02 -1.77895E+02 -1.94400E+02 -1.76085E+02
  -2.06551E+02 -1.96104E+02 -1.80612E+02 -2.13303E+02 -1.88598E+02 -1.78334E+02 -1.83681E+02 -1.05051E+02 -3.51224E+01 -2.66431E+01
  -7.22303E+00  6.50267E+00 -2.40833E+00 -1.99067E+01 -3.36296E+01 -4.39097E+01 -5.18871E+01 -3.80532E+01 -5.17295E+01 -6.58571E+01
  -5.32137E+01 -6.84937E+01 -6.79403E+01 -7.13594E+01 -7.81301E+01 -6.83154E+01 -8.48031E+01 -7.49481E+01 -7.48250E+01 -8.42373E+01
  -6.90365E+01 -7.51407E+01 -7.14796E+01 -9.38407E+01 -9.98156E+01 -7.91781E+01 -1.12286E+02 -9.87129E+01 -1.00147E+02 -1.30359E+02
  -1.11031E+02 -1.21804E+02 -1.15802E+02 -1.10340E+02 -1.06959E+02 -9.15134E+01 -1.11331E+02 -1.17297E+02 -1.12715E+02 -1.16916E+02
  -1.12244E+02 -7.58814E+01 -8.45724E+01 -1.11868E+02 -1.03886E+02 -1.14237E+02 -1.04491E+02 -6.88383E+01 -6.45364E+01 -7.74915E+01
  -4.78649E+01 -5.27343E+01 -5.54178E+01 -6.56669E+01 -9.75966E+01 -7.67084E+01 -7.96408E+01 -5.61341E+01 -6.19806E+01 -7.54120E+01
  -8.19279E+01 -9.34257E+01 -6.65471E+01 -9.01951E+01 -8.83714E+01 -1.05313E+02 -1.20451E+02 -1.21614E+02 -1.42534E+02 -1.40657E+02
  -1.59455E+02 -1.58365E+02 -1.72392E+02 -1.78293E+02 -1.71769E+02 -1.68219E+02 -1.52989E+02 -1.59760E+02 -1.43960E+02 -1.19973E+02
  -1.13357E+02 -1.14728E+02 -1.30731E+02 -1.36692E+02 -1.19821E+02 -1.22598E+02 -1.24641E+02 -1.13858E+02 -1.10014E+02 -1.03279E+02
  -1.09349E+02 -1.05862E+02 -8.56800E+01 -1.02042E+02 -1.16836E+02 -1.09638E+02 -1.22922E+02 -1.21584E+02 -1.35505E+02 -1.36467E+02
  -1.46544E+02 -1.43804E+02 -1.08481E+02 -1.45825E+02 -1.34445E+02 -1.24884E+02 -1.26069E+02 -1.05105E+02 -1.11669E+02 -1.10728E+02
  -1.23691E+02 -9.71988E+01 -9.47534E+01 -1.08805E+02 -1.05064E+02 -9.57185E+01 -8.76832E+01 -8.47805E+01 -8.13848E+01 -8.37652E+01
  -5.17918E+01 -5.50346E+01 -4.59535E+01 -3.90243E+01 -2.93571E+01 -1.15661E+01 -3.46196E+01 -3.36079E+01 -1.64163E+01  5.11286E+00
  -3.27378E+01 -4.23487E+01 -3.82679E+01 -5.38450E+01 -6.77917E+01 -8.89929E+01 -5.99273E+01 -8.71644E+01 -1.00031E+02 -9.44159E+01
  -1.10328E+02 -1.24763E+02 -1.46904E+02 -1.44195E+02 -1.40683E+02 -1.39410E+02 -1.56385E+02 -1.42285E+02 -1.48337E+02 -1.70673E+02
  -1.65993E+02 -1.56883E+02 -1.67399E+02 -1.60489E+02 -1.24391E+02 -1.65638E+02 -1.48663E+02 -1.31280E+02 -1.45278E+02 -1.41562E+02
  -1.67742E+02 -1.48660E+02 -1.64369E+02 -1.65854E+02 -1.57503E+02 -1.51231E+02 -1.36226E+02 -1.56824E+02 -1.47727E+02 -1.58045E+02
  -1.57923E+02 -1.34050E+02 -1.31492E+02 -1.42694E+02 -1.52163E+02 -1.37102E+02 -1.36705E+02 -1.61576E+02 -1.58000E+02 -1.57084E+02
  -1.64767E+02 -1.44779E+02 -1.64136E+02 -1.59969E+02 -1.39733E+02 -1.44857E+02 -1.32102E+02 -1.37747E+02 -1.43985E+02 -1.57618E+02
  -1.37388E+02 -1.22285E+02 -1.41050E+02 -1.34226E+02 -1.47089E+02 -1.43439E+02 -1.39640E+02 -1.48507E+02 -1.38456E+02 -1.32447E+02
  -1.22452E+02 -1.25352E+02 -1.30933E+02 -1.35366E+02 -1.41870E+02 -1.39110E+02 -1.25977E+02 -1.22449E+02 -1.37337E+02 -1.25719E+02
  -1.21757E+02 -1.32225E+02 -1.32361E+02 -1.40353E+02 -1.38662E+02 -1.31460E+02 -1.31858E+02 -1.34265E+02 -1.25772E+02 -1.30247E+02
 NY points of the fit to the data follow
  -2.30161E+02 -2.32660E+02 -2.34765E+02 -2.36205E+02 -2.36532E+02 -2.35437E+02 -2.33895E+02 -2.33918E+02 -2.36090E+02 -2.39396E+02
  -2.43096E+02 -2.46781E+02 -2.49317E+02 -2.49981E+02 -2.49459E+02 -2.48736E+02 -2.48682E+02 -2.49925E+02 -2.52336E+02 -2.55178E+02
  -2.56315E+02 -2.53126E+02 -2.43436E+02 -2.26140E+02 -2.05272E+02 -1.87972E+02 -1.75877E+02 -1.67222E+02 -1.62555E+02 -1.62614E+02
  -1.64199E+02 -1.65400E+02 -1.67632E+02 -1.71420E+02 -1.76878E+02 -1.84248E+02 -1.93613E+02 -2.04510E+02 -2.15944E+02 -2.26082E+02
  -2.31481E+02 -2.28804E+02 -2.18596E+02 -2.04348E+02 -1.88528E+02 -1.73335E+02 -1.61911E+02 -1.55517E+02 -1.52712E+02 -1.52485E+02
  -1.54619E+02 -1.57962E+02 -1.61726E+02 -1.65714E+02 -1.69286E+02 -1.71681E+02 -1.72871E+02 -1.73135E+02 -1.73422E+02 -1.73120E+02
  -1.70297E+02 -1.66191E+02 -1.62482E+02 -1.58094E+02 -1.53558E+02 -1.51712E+02 -1.52945E+02 -1.55618E+02 -1.60045E+02 -1.65261E+02
  -1.67283E+02 -1.65283E+02 -1.61581E+02 -1.56533E+02 -1.49633E+02 -1.43004E+02 -1.38975E+02 -1.37020E+02 -1.36625E+02 -1.38676E+02
  -1.43257E+02 -1.49145E+02 -1.55282E+02 -1.60322E+02 -1.62607E+02 -1.61445E+02 -1.57303E+02 -1.51046E+02 -1.44334E+02 -1.38182E+02
  -1.33292E+02 -1.29248E+02 -1.26239E+02 -1.23784E+02 -1.21678E+02 -1.19982E+02 -1.18653E+02 -1.17756E+02 -1.17689E+02 -1.18693E+02
  -1.20660E+02 -1.24183E+02 -1.30458E+02 -1.38496E+02 -1.48078E+02 -1.60386E+02 -1.74929E+02 -1.90561E+02 -2.08381E+02 -2.28092E+02
  -2.42848E+02 -2.45831E+02 -2.40273E+02 -2.30375E+02 -2.17707E+02 -2.03861E+02 -1.92788E+02 -1.85137E+02 -1.78317E+02 -1.71650E+02
  -1.64787E+02 -1.57448E+02 -1.49375E+02 -1.40376E+02 -1.30222E+02 -1.18491E+02 -1.05628E+02 -9.42238E+01 -8.77135E+01 -8.86504E+01
  -9.75961E+01 -1.19731E+02 -1.56988E+02 -1.94212E+02 -2.17231E+02 -2.29547E+02 -2.35361E+02 -2.32844E+02 -2.24770E+02 -2.20517E+02
  -2.19655E+02 -2.19435E+02 -2.19374E+02 -2.19077E+02 -2.18320E+02 -2.16887E+02 -2.14738E+02 -2.12014E+02 -2.09022E+02 -2.05957E+02
  -2.02809E+02 -1.99713E+02 -1.96786E+02 -1.93931E+02 -1.91107E+02 -1.88489E+02 -1.86444E+02 -1.84826E+02 -1.83271E+02 -1.81724E+02
  -1.80460E+02 -1.79976E+02 -1.80563E+02 -1.81757E+02 -1.82694E+02 -1.82863E+02 -1.81921E+02 -1.79433E+02 -1.75387E+02 -1.70032E+02
  -1.63423E+02 -1.56154E+02 -1.50425E+02 -1.47810E+02 -1.46944E+02 -1.46003E+02 -1.45916E+02 -1.48866E+02 -1.55083E+02 -1.62681E+02
  -1.70158E+02 -1.77181E+02 -1.83003E+02 -1.86308E+02 -1.87357E+02 -1.87418E+02 -1.87118E+02 -1.86212E+02 -1.84801E+02 -1.82845E+02
  -1.80226E+02 -1.77010E+02 -1.73402E+02 -1.68654E+02 -1.63418E+02 -1.60068E+02 -1.57757E+02 -1.54655E+02 -1.51951E+02 -1.50836E+02
  -1.50137E+02 -1.48432E+02 -1.47197E+02 -1.48184E+02 -1.51325E+02 -1.55888E+02 -1.61189E+02 -1.67590E+02 -1.73626E+02 -1.76815E+02
  -1.76209E+02 -1.71047E+02 -1.61163E+02 -1.47941E+02 -1.32615E+02 -1.18537E+02 -1.09712E+02 -1.06472E+02 -1.08033E+02 -1.13597E+02
  -1.20339E+02 -1.25557E+02 -1.28604E+02 -1.31071E+02 -1.32481E+02 -1.34638E+02 -1.38492E+02 -1.44186E+02 -1.51591E+02 -1.60292E+02
  -1.69884E+02 -1.79870E+02 -1.89629E+02 -1.98731E+02 -2.06776E+02 -2.13069E+02 -2.17005E+02 -2.18511E+02 -2.17165E+02 -2.13019E+02
  -2.06754E+02 -1.98842E+02 -1.90074E+02 -1.81815E+02 -1.75057E+02 -1.70565E+02 -1.68776E+02 -1.69844E+02 -1.72516E+02 -1.76368E+02
  -1.82703E+02 -1.91638E+02 -2.00479E+02 -2.05267E+02 -2.03448E+02 -1.94980E+02 -1.68178E+02 -1.18024E+02 -6.78595E+01 -3.81051E+01
  -2.15640E+01 -1.39419E+01 -1.96588E+01 -3.39837E+01 -4.23079E+01 -4.68467E+01 -5.03471E+01 -5.31814E+01 -5.55071E+01 -5.74173E+01
  -5.89156E+01 -6.00883E+01 -6.11521E+01 -6.21978E+01 -6.33297E+01 -6.46223E+01 -6.60900E+01 -6.76054E+01 -6.91593E+01 -7.08355E+01
  -7.26455E+01 -7.45627E+01 -7.65385E+01 -7.85759E+01 -8.07270E+01 -8.30274E+01 -8.54483E+01 -8.80772E+01 -9.10133E+01 -9.42684E+01
  -9.77385E+01 -1.01215E+02 -1.04491E+02 -1.07291E+02 -1.09254E+02 -1.10078E+02 -1.09756E+02 -1.08456E+02 -1.06388E+02 -1.03849E+02
  -1.01086E+02 -9.82221E+01 -9.53916E+01 -9.26731E+01 -9.00456E+01 -8.75020E+01 -8.50396E+01 -8.25992E+01 -8.01101E+01 -7.76928E+01
  -7.54584E+01 -7.34392E+01 -7.16639E+01 -7.01739E+01 -6.90389E+01 -6.83610E+01 -6.81649E+01 -6.86359E+01 -7.01411E+01 -7.29421E+01
  -7.71312E+01 -8.29616E+01 -9.07938E+01 -9.96864E+01 -1.08341E+02 -1.16575E+02 -1.24111E+02 -1.30616E+02 -1.36640E+02 -1.42451E+02
  -1.47719E+02 -1.51711E+02 -1.54405E+02 -1.55114E+02 -1.53858E+02 -1.51107E+02 -1.47499E+02 -1.43692E+02 -1.40086E+02 -1.36798E+02
  -1.33714E+02 -1.30562E+02 -1.27212E+02 -1.23787E+02 -1.20539E+02 -1.17770E+02 -1.15873E+02 -1.14973E+02 -1.14965E+02 -1.15861E+02
  -1.17742E+02 -1.20436E+02 -1.23701E+02 -1.27316E+02 -1.30864E+02 -1.33729E+02 -1.35462E+02 -1.35968E+02 -1.35228E+02 -1.33344E+02
  -1.30615E+02 -1.27335E+02 -1.23761E+02 -1.20078E+02 -1.16449E+02 -1.12939E+02 -1.09568E+02 -1.06332E+02 -1.03140E+02 -9.99293E+01
  -9.66620E+01 -9.32765E+01 -8.96715E+01 -8.57818E+01 -8.15137E+01 -7.67157E+01 -7.13921E+01 -6.56030E+01 -5.92307E+01 -5.23012E+01
  -4.51061E+01 -3.77861E+01 -3.04904E+01 -2.38644E+01 -1.87605E+01 -1.58332E+01 -1.56950E+01 -1.88251E+01 -2.50855E+01 -3.36995E+01
  -4.35027E+01 -5.34037E+01 -6.27285E+01 -7.12737E+01 -7.91202E+01 -8.67206E+01 -9.46433E+01 -1.02994E+02 -1.11428E+02 -1.19617E+02
  -1.27168E+02 -1.33514E+02 -1.38498E+02 -1.42291E+02 -1.45061E+02 -1.46930E+02 -1.48225E+02 -1.49238E+02 -1.50030E+02 -1.50662E+02
  -1.51150E+02 -1.51464E+02 -1.51576E+02 -1.51559E+02 -1.51479E+02 -1.51307E+02 -1.51079E+02 -1.50910E+02 -1.50796E+02 -1.50567E+02
  -1.50202E+02 -1.49923E+02 -1.49724E+02 -1.49466E+02 -1.49156E+02 -1.48909E+02 -1.48692E+02 -1.48390E+02 -1.48010E+02 -1.47630E+02
  -1.47347E+02 -1.47125E+02 -1.46918E+02 -1.46729E+02 -1.46514E+02 -1.46199E+02 -1.45798E+02 -1.45373E+02 -1.44917E+02 -1.44495E+02
  -1.44162E+02 -1.43887E+02 -1.43653E+02 -1.43491E+02 -1.43390E+02 -1.43221E+02 -1.42961E+02 -1.42655E+02 -1.42355E+02 -1.42024E+02
  -1.41696E+02 -1.41429E+02 -1.41141E+02 -1.40754E+02 -1.40347E+02 -1.39957E+02 -1.39552E+02 -1.39164E+02 -1.38848E+02 -1.38564E+02
  -1.38310E+02 -1.38105E+02 -1.37919E+02 -1.37690E+02 -1.37386E+02 -1.36989E+02 -1.36522E+02 -1.35995E+02 -1.35501E+02 -1.35132E+02
  -1.34910E+02 -1.34759E+02 -1.34607E+02 -1.34401E+02 -1.34123E+02 -1.33835E+02 -1.33495E+02 -1.33102E+02 -1.32712E+02 -1.32277E+02
 NY background values follow
    -1.970E+02   -1.966E+02   -1.963E+02   -1.959E+02   -1.956E+02   -1.952E+02   -1.949E+02   -1.945E+02   -1.942E+02   -1.938E+02
    -1.935E+02   -1.932E+02   -1.928E+02   -1.925E+02   -1.921E+02   -1.918E+02   -1.914E+02   -1.911E+02   -1.907E+02   -1.904E+02
    -1.900E+02   -1.897E+02   -1.894E+02   -1.890E+02   -1.887E+02   -1.883E+02   -1.880E+02   -1.876E+02   -1.873E+02   -1.869E+02
    -1.866E+02   -1.863E+02   -1.859E+02   -1.856E+02   -1.852E+02   -1.849E+02   -1.846E+02   -1.842E+02   -1.839E+02   -1.835E+02
    -1.832E+02   -1.829E+02   -1.825E+02   -1.822E+02   -1.818E+02   -1.815E+02   -1.812E+02   -1.808E+02   -1.805E+02   -1.802E+02
    -1.798E+02   -1.795E+02   -1.792E+02   -1.788E+02   -1.785E+02   -1.782E+02   -1.778E+02   -1.775E+02   -1.772E+02   -1.769E+02
    -1.765E+02   -1.762E+02   -1.759E+02   -1.756E+02   -1.753E+02   -1.749E+02   -1.746E+02   -1.743E+02   -1.740E+02   -1.737E+02
    -1.734E+02   -1.730E+02   -1.727E+02   -1.724E+02   -1.721E+02   -1.718E+02   -1.715E+02   -1.712E+02   -1.709E+02   -1.706E+02
    -1.703E+02   -1.700E+02   -1.697E+02   -1.694E+02   -1.691E+02   -1.688E+02   -1.685E+02   -1.682E+02   -1.679E+02   -1.676E+02
    -1.673E+02   -1.670E+02   -1.668E+02   -1.665E+02   -1.662E+02   -1.659E+02   -1.656E+02   -1.654E+02   -1.651E+02   -1.648E+02
    -1.645E+02   -1.643E+02   -1.640E+02   -1.637E+02   -1.634E+02   -1.632E+02   -1.629E+02   -1.626E+02   -1.624E+02   -1.621E+02
    -1.619E+02   -1.616E+02   -1.613E+02   -1.611E+02   -1.608E+02   -1.606E+02   -1.603E+02   -1.601E+02   -1.598E+02   -1.596E+02
    -1.593E+02   -1.591E+02   -1.588E+02   -1.586E+02   -1.583E+02   -1.581E+02   -1.578E+02   -1.576E+02   -1.574E+02   -1.571E+02
    -1.569E+02   -1.567E+02   -1.564E+02   -1.562E+02   -1.560E+02   -1.557E+02   -1.555E+02   -1.553E+02   -1.551E+02   -1.548E+02
    -1.546E+02   -1.544E+02   -1.542E+02   -1.540E+02   -1.537E+02   -1.535E+02   -1.533E+02   -1.531E+02   -1.529E+02   -1.527E+02
    -1.525E+02   -1.523E+02   -1.521E+02   -1.519E+02   -1.517E+02   -1.515E+02   -1.513E+02   -1.511E+02   -1.509E+02   -1.507E+02
    -1.505E+02   -1.503E+02   -1.501E+02   -1.499E+02   -1.497E+02   -1.495E+02   -1.494E+02   -1.492E+02   -1.490E+02   -1.488E+02
    -1.486E+02   -1.485E+02   -1.483E+02   -1.481E+02   -1.479E+02   -1.478E+02   -1.476E+02   -1.474E+02   -1.473E+02   -1.471E+02
    -1.469E+02   -1.468E+02   -1.466E+02   -1.465E+02   -1.463E+02   -1.462E+02   -1.460E+02   -1.459E+02   -1.457E+02   -1.456E+02
    -1.454E+02   -1.453E+02   -1.451E+02   -1.450E+02   -1.448E+02   -1.447E+02   -1.446E+02   -1.444E+02   -1.443E+02   -1.442E+02
    -1.440E+02   -1.439E+02   -1.438E+02   -1.436E+02   -1.435E+02   -1.434E+02   -1.433E+02   -1.432E+02   -1.430E+02   -1.429E+02
    -1.428E+02   -1.427E+02   -1.426E+02   -1.425E+02   -1.424E+02   -1.422E+02   -1.421E+02   -1.420E+02   -1.419E+02   -1.418E+02
    -1.417E+02   -1.416E+02   -1.415E+02   -1.414E+02   -1.413E+02   -1.412E+02   -1.412E+02   -1.411E+02   -1.410E+02   -1.409E+02
    -1.408E+02   -1.407E+02   -1.406E+02   -1.405E+02   -1.405E+02   -1.404E+02   -1.403E+02   -1.402E+02   -1.402E+02   -1.401E+02
    -1.400E+02   -1.399E+02   -1.399E+02   -1.398E+02   -1.397E+02   -1.397E+02   -1.396E+02   -1.396E+02   -1.395E+02   -1.394E+02
    -1.394E+02   -1.393E+02   -1.393E+02   -1.392E+02   -1.391E+02   -1.391E+02   -1.390E+02   -1.390E+02   -1.389E+02   -1.389E+02
    -1.388E+02   -1.388E+02   -1.388E+02   -1.387E+02   -1.387E+02   -1.386E+02   -1.386E+02   -1.385E+02   -1.385E+02   -1.385E+02
    -1.384E+02   -1.384E+02   -1.383E+02   -1.383E+02   -1.383E+02   -1.382E+02   -1.382E+02   -1.382E+02   -1.381E+02   -1.381E+02
    -1.380E+02   -1.380E+02   -1.380E+02   -1.380E+02   -1.379E+02   -1.379E+02   -1.379E+02   -1.378E+02   -1.378E+02   -1.378E+02
    -1.377E+02   -1.377E+02   -1.377E+02   -1.377E+02   -1.376E+02   -1.376E+02   -1.376E+02   -1.375E+02   -1.375E+02   -1.375E+02
    -1.375E+02   -1.374E+02   -1.374E+02   -1.374E+02   -1.374E+02   -1.373E+02   -1.373E+02   -1.373E+02   -1.373E+02   -1.372E+02
    -1.372E+02   -1.372E+02   -1.372E+02   -1.371E+02   -1.371E+02   -1.371E+02   -1.371E+02   -1.370E+02   -1.370E+02   -1.370E+02
    -1.370E+02   -1.369E+02   -1.369E+02   -1.369E+02   -1.369E+02   -1.368E+02   -1.368E+02   -1.368E+02   -1.368E+02   -1.368E+02
    -1.367E+02   -1.367E+02   -1.367E+02   -1.367E+02   -1.366E+02   -1.366E+02   -1.366E+02   -1.366E+02   -1.365E+02   -1.365E+02
    -1.365E+02   -1.365E+02   -1.365E+02   -1.364E+02   -1.364E+02   -1.364E+02   -1.364E+02   -1.363E+02   -1.363E+02   -1.363E+02
    -1.363E+02   -1.362E+02   -1.362E+02   -1.362E+02   -1.362E+02   -1.361E+02   -1.361E+02   -1.361E+02   -1.361E+02   -1.360E+02
    -1.360E+02   -1.360E+02   -1.359E+02   -1.359E+02   -1.359E+02   -1.359E+02   -1.358E+02   -1.358E+02   -1.358E+02   -1.357E+02
    -1.357E+02   -1.357E+02   -1.357E+02   -1.356E+02   -1.356E+02   -1.356E+02   -1.355E+02   -1.355E+02   -1.355E+02   -1.354E+02
    -1.354E+02   -1.354E+02   -1.353E+02   -1.353E+02   -1.353E+02   -1.352E+02   -1.352E+02   -1.352E+02   -1.351E+02   -1.351E+02
    -1.351E+02   -1.350E+02   -1.350E+02   -1.349E+02   -1.349E+02   -1.349E+02   -1.348E+02   -1.348E+02   -1.348E+02   -1.347E+02
    -1.347E+02   -1.346E+02   -1.346E+02   -1.346E+02   -1.345E+02   -1.345E+02   -1.344E+02   -1.344E+02   -1.344E+02   -1.343E+02
    -1.343E+02   -1.342E+02   -1.342E+02   -1.341E+02   -1.341E+02   -1.341E+02   -1.340E+02   -1.340E+02   -1.339E+02   -1.339E+02
    -1.338E+02   -1.338E+02   -1.338E+02   -1.337E+02   -1.337E+02   -1.336E+02   -1.336E+02   -1.335E+02   -1.335E+02   -1.334E+02
    -1.334E+02   -1.333E+02   -1.333E+02   -1.333E+02   -1.332E+02   -1.332E+02   -1.331E+02   -1.331E+02   -1.330E+02   -1.330E+02
    -1.329E+02   -1.329E+02   -1.328E+02   -1.328E+02   -1.327E+02   -1.327E+02   -1.326E+02   -1.326E+02   -1.325E+02   -1.325E+02
    -1.324E+02   -1.324E+02   -1.323E+02   -1.323E+02   -1.322E+02   -1.322E+02   -1.321E+02   -1.321E+02   -1.320E+02   -1.320E+02
    -1.319E+02   -1.319E+02   -1.318E+02   -1.318E+02   -1.317E+02   -1.317E+02   -1.316E+02   -1.316E+02   -1.315E+02   -1.315E+02
    -1.314E+02   -1.314E+02   -1.313E+02   -1.313E+02   -1.312E+02   -1.312E+02   -1.311E+02   -1.311E+02   -1.310E+02   -1.310E+02
 Mac      Conc. = 2.96E-04
  -2.18353E+02 -2.18490E+02 -2.18649E+02 -2.18934E+02 -2.19402E+02 -2.20136E+02 -2.21110E+02 -2.22203E+02 -2.23220E+02 -2.24022E+02
  -2.24530E+02 -2.24838E+02 -2.25067E+02 -2.25234E+02 -2.25318E+02 -2.25184E+02 -2.24401E+02 -2.22417E+02 -2.19128E+02 -2.15255E+02
  -2.11339E+02 -2.07505E+02 -2.04128E+02 -2.01611E+02 -1.99693E+02 -1.97804E+02 -1.95882E+02 -1.93967E+02 -1.91962E+02 -1.89977E+02
  -1.88268E+02 -1.86916E+02 -1.85878E+02 -1.85065E+02 -1.84384E+02 -1.83584E+02 -1.82441E+02 -1.80896E+02 -1.79135E+02 -1.77502E+02
  -1.76216E+02 -1.75204E+02 -1.74251E+02 -1.73297E+02 -1.72360E+02 -1.71554E+02 -1.71089E+02 -1.71089E+02 -1.71521E+02 -1.72271E+02
  -1.73182E+02 -1.73977E+02 -1.74482E+02 -1.74707E+02 -1.74610E+02 -1.74148E+02 -1.73270E+02 -1.71998E+02 -1.70500E+02 -1.69035E+02
  -1.67680E+02 -1.66518E+02 -1.65853E+02 -1.65722E+02 -1.65914E+02 -1.66248E+02 -1.66552E+02 -1.66556E+02 -1.66152E+02 -1.65287E+02
  -1.63822E+02 -1.61840E+02 -1.59836E+02 -1.58143E+02 -1.56881E+02 -1.56113E+02 -1.55937E+02 -1.56175E+02 -1.56541E+02 -1.56852E+02
  -1.57024E+02 -1.57000E+02 -1.56705E+02 -1.56072E+02 -1.55183E+02 -1.54185E+02 -1.53134E+02 -1.52087E+02 -1.51163E+02 -1.50411E+02
  -1.49825E+02 -1.49432E+02 -1.49385E+02 -1.49708E+02 -1.50506E+02 -1.51812E+02 -1.53564E+02 -1.55562E+02 -1.57714E+02 -1.59886E+02
  -1.62064E+02 -1.64506E+02 -1.67543E+02 -1.71201E+02 -1.75487E+02 -1.80316E+02 -1.85230E+02 -1.89439E+02 -1.92191E+02 -1.93194E+02
