 
 $NMID
 ID=''
 FMTDAT='(2E13.5)'
 TRAMP=   1.00000E+0
 VOLUME=   1.00000E+0
 $END
   2.32862E+5   7.76088E+5
  -1.46469E+5   2.10921E+6
   4.44432E+4   2.03856E+6
  -8.12302E+4   1.94058E+6
  -7.90147E+4   2.03762E+6
   2.75734E+4   1.98363E+6
  -1.46707E+4   1.93345E+6
  -3.03872E+4   1.99172E+6
   1.86038E+3   1.95323E+6
  -5.62903E+4   1.91966E+6
  -7.38321E+4   1.94915E+6
  -5.99216E+4   1.90864E+6
  -1.05031E+5   1.88181E+6
  -1.26455E+5   1.90175E+6
  -1.35079E+5   1.86306E+6
  -1.76069E+5   1.83451E+6
  -1.84198E+5   1.84986E+6
  -1.80478E+5   1.82665E+6
  -2.03153E+5   1.80269E+6
  -1.94061E+5   1.80567E+6
  -1.88585E+5   1.78268E+6
  -2.10451E+5   1.76572E+6
  -2.13754E+5   1.76291E+6
  -2.14346E+5   1.74015E+6
  -2.35274E+5   1.72202E+6
  -2.38078E+5   1.71355E+6
  -2.50476E+5   1.69289E+6
  -2.78063E+5   1.67513E+6
  -2.91773E+5   1.65998E+6
  -2.97651E+5   1.63786E+6
  -3.12764E+5   1.62353E+6
  -3.15323E+5   1.61030E+6
  -3.17991E+5   1.58949E+6
  -3.24681E+5   1.57510E+6
  -3.21609E+5   1.55938E+6
  -3.14957E+5   1.54301E+6
  -3.15440E+5   1.53414E+6
  -3.17649E+5   1.52086E+6
  -3.21229E+5   1.49886E+6
  -3.26513E+5   1.48374E+6
  -3.33556E+5   1.46805E+6
  -3.41355E+5   1.44672E+6
  -3.46603E+5   1.42745E+6
  -3.52135E+5   1.41213E+6
  -3.62443E+5   1.39324E+6
  -3.71293E+5   1.37602E+6
  -3.77028E+5   1.35937E+6
  -3.83434E+5   1.34136E+6
  -3.86814E+5   1.32196E+6
  -3.87904E+5   1.30552E+6
  -3.89230E+5   1.29145E+6
  -3.91856E+5   1.27635E+6
  -3.94154E+5   1.26144E+6
  -3.96765E+5   1.24651E+6
  -3.99877E+5   1.23053E+6
  -4.04856E+5   1.21436E+6
  -4.10906E+5   1.19735E+6
  -4.14753E+5   1.17869E+6
  -4.17555E+5   1.16192E+6
  -4.20587E+5   1.14762E+6
  -4.25209E+5   1.13193E+6
  -4.29358E+5   1.11561E+6
  -4.31497E+5   1.10155E+6
  -4.34724E+5   1.08619E+6
  -4.36743E+5   1.06965E+6
  -4.36485E+5   1.05403E+6
  -4.35725E+5   1.03990E+6
  -4.37191E+5   1.02590E+6
  -4.38438E+5   1.01259E+6
  -4.40421E+5   9.98668E+5
  -4.43463E+5   9.83409E+5
  -4.44271E+5   9.68400E+5
  -4.44434E+5   9.54099E+5
  -4.46195E+5   9.41213E+5
  -4.47416E+5   9.27414E+5
  -4.47588E+5   9.12264E+5
  -4.47345E+5   8.99005E+5
  -4.47269E+5   8.86333E+5
  -4.47303E+5   8.73223E+5
  -4.47178E+5   8.59260E+5
  -4.46527E+5   8.45776E+5
  -4.44535E+5   8.32344E+5
  -4.44439E+5   8.19593E+5
  -4.44579E+5   8.06804E+5
  -4.44421E+5   7.92054E+5
  -4.43889E+5   7.78532E+5
  -4.43020E+5   7.65665E+5
  -4.42372E+5   7.52779E+5
  -4.41958E+5   7.39329E+5
  -4.39937E+5   7.26586E+5
  -4.37449E+5   7.13964E+5
  -4.35262E+5   7.02169E+5
  -4.33774E+5   6.90599E+5
  -4.31054E+5   6.78405E+5
  -4.27792E+5   6.65951E+5
  -4.23514E+5   6.54877E+5
  -4.20015E+5   6.44447E+5
  -4.17761E+5   6.34070E+5
  -4.15042E+5   6.22853E+5
  -4.11856E+5   6.11397E+5
  -4.08957E+5   6.00768E+5
  -4.06919E+5   5.90023E+5
  -4.04751E+5   5.78055E+5
  -4.01613E+5   5.66297E+5
  -3.97729E+5   5.55737E+5
  -3.94634E+5   5.45980E+5
  -3.92251E+5   5.35994E+5
  -3.89510E+5   5.25284E+5
  -3.86085E+5   5.14395E+5
  -3.81801E+5   5.04391E+5
  -3.78068E+5   4.95480E+5
  -3.75734E+5   4.86652E+5
  -3.73376E+5   4.77103E+5
  -3.70495E+5   4.67168E+5
  -3.67512E+5   4.57790E+5
  -3.65386E+5   4.48578E+5
  -3.63074E+5   4.39263E+5
  -3.59843E+5   4.29235E+5
  -3.56163E+5   4.20153E+5
  -3.52730E+5   4.12268E+5
  -3.49515E+5   4.04095E+5
  -3.46951E+5   3.96353E+5
  -3.44295E+5   3.88483E+5
  -3.41936E+5   3.80170E+5
  -3.39049E+5   3.72102E+5
  -3.36284E+5   3.63803E+5
  -3.32385E+5   3.55814E+5
  -3.29593E+5   3.48438E+5
  -3.27173E+5   3.41036E+5
  -3.24708E+5   3.33929E+5
  -3.23016E+5   3.25841E+5
  -3.20871E+5   3.17794E+5
  -3.17821E+5   3.10033E+5
  -3.14972E+5   3.03148E+5
  -3.12735E+5   2.96499E+5
  -3.10417E+5   2.89495E+5
  -3.07311E+5   2.82455E+5
  -3.04348E+5   2.76813E+5
  -3.02183E+5   2.70599E+5
  -2.99780E+5   2.64137E+5
  -2.97067E+5   2.57225E+5
  -2.93841E+5   2.51327E+5
  -2.90417E+5   2.45570E+5
  -2.87685E+5   2.40183E+5
  -2.85492E+5   2.34395E+5
  -2.82799E+5   2.28599E+5
  -2.79588E+5   2.22425E+5
  -2.77077E+5   2.17056E+5
  -2.73977E+5   2.11564E+5
  -2.71015E+5   2.06390E+5
  -2.67479E+5   2.01264E+5
  -2.64437E+5   1.96175E+5
  -2.61515E+5   1.91680E+5
  -2.58333E+5   1.87258E+5
  -2.55540E+5   1.82737E+5
  -2.52237E+5   1.78342E+5
  -2.48929E+5   1.73850E+5
  -2.45927E+5   1.69885E+5
  -2.43101E+5   1.65903E+5
  -2.39655E+5   1.61768E+5
  -2.36233E+5   1.57774E+5
  -2.33476E+5   1.53974E+5
  -2.30248E+5   1.49969E+5
  -2.26834E+5   1.46240E+5
  -2.23562E+5   1.42779E+5
  -2.20017E+5   1.39237E+5
  -2.17329E+5   1.35903E+5
  -2.14721E+5   1.32464E+5
  -2.11714E+5   1.29145E+5
  -2.08145E+5   1.25886E+5
  -2.05277E+5   1.22894E+5
  -2.02076E+5   1.20067E+5
  -1.99183E+5   1.16956E+5
  -1.96529E+5   1.14130E+5
  -1.93692E+5   1.10837E+5
  -1.90642E+5   1.08091E+5
  -1.88124E+5   1.05245E+5
  -1.85369E+5   1.02114E+5
  -1.82318E+5   9.91058E+4
  -1.79423E+5   9.68027E+4
  -1.76706E+5   9.43646E+4
  -1.74770E+5   9.17378E+4
  -1.71927E+5   8.91813E+4
  -1.70010E+5   8.65833E+4
  -1.66826E+5   8.37467E+4
  -1.64496E+5   8.16824E+4
  -1.62071E+5   7.94989E+4
  -1.59374E+5   7.72115E+4
  -1.56958E+5   7.52554E+4
  -1.54751E+5   7.33197E+4
  -1.52547E+5   7.11878E+4
  -1.50671E+5   6.87467E+4
  -1.48626E+5   6.61448E+4
  -1.46191E+5   6.40547E+4
  -1.43928E+5   6.17878E+4
  -1.42117E+5   6.03418E+4
  -1.39899E+5   5.79598E+4
  -1.37833E+5   5.59881E+4
  -1.36298E+5   5.44006E+4
  -1.34566E+5   5.22143E+4
  -1.32451E+5   5.00713E+4
  -1.30153E+5   4.83754E+4
  -1.28254E+5   4.65986E+4
  -1.26543E+5   4.50605E+4
  -1.25019E+5   4.32576E+4
  -1.23550E+5   4.15217E+4
  -1.21611E+5   4.00491E+4
  -1.19985E+5   3.82277E+4
  -1.18464E+5   3.67074E+4
  -1.16743E+5   3.50025E+4
  -1.15085E+5   3.36354E+4
  -1.13297E+5   3.18976E+4
  -1.11925E+5   3.09764E+4
  -1.10774E+5   2.94517E+4
  -1.09395E+5   2.78598E+4
  -1.07820E+5   2.66192E+4
  -1.06022E+5   2.52892E+4
  -1.04411E+5   2.43164E+4
  -1.03327E+5   2.30694E+4
  -1.01774E+5   2.19014E+4
  -1.00657E+5   2.10293E+4
  -9.91774E+4   2.01143E+4
  -9.79516E+4   1.89376E+4
  -9.67193E+4   1.82918E+4
  -9.53421E+4   1.68944E+4
  -9.40503E+4   1.62078E+4
  -9.27349E+4   1.53732E+4
  -9.16547E+4   1.46721E+4
  -9.06724E+4   1.39347E+4
  -8.92691E+4   1.29459E+4
  -8.80633E+4   1.21028E+4
  -8.66484E+4   1.17292E+4
  -8.54072E+4   1.10266E+4
  -8.44253E+4   1.03059E+4
  -8.34214E+4   9.71045E+3
  -8.21602E+4   8.88023E+3
  -8.13360E+4   8.55496E+3
  -8.01232E+4   8.16751E+3
  -7.89238E+4   7.35976E+3
  -7.78712E+4   6.70121E+3
  -7.72039E+4   6.81439E+3
  -7.62398E+4   6.02913E+3
  -7.52347E+4   5.75304E+3
  -7.42821E+4   5.17275E+3
  -7.30267E+4   4.58881E+3
  -7.24114E+4   4.40437E+3
  -7.15146E+4   3.89451E+3
  -7.04999E+4   3.57432E+3
  -6.96044E+4   3.23891E+3
  -6.84678E+4   2.84469E+3
  -6.80464E+4   2.37457E+3
  -6.70829E+4   2.05721E+3
  -6.63066E+4   1.54093E+3
  -6.56028E+4   1.42444E+3
  -6.46015E+4   1.19929E+3
  -6.37465E+4   1.05601E+3
  -6.32685E+4   6.51464E+2
  -6.27141E+4   2.43551E+2
  -6.18449E+4  -4.10451E+2
  -6.11868E+4  -8.28753E+2
  -6.04093E+4  -7.23201E+2
  -5.97144E+4  -1.39246E+3
  -5.88908E+4  -1.71259E+3
  -5.80043E+4  -1.93242E+3
  -5.76055E+4  -2.19355E+3
  -5.69122E+4  -2.54144E+3
  -5.62901E+4  -2.80912E+3
  -5.56359E+4  -3.21900E+3
  -5.49384E+4  -3.55545E+3
  -5.40922E+4  -3.63194E+3
  -5.32554E+4  -3.83220E+3
  -5.29141E+4  -4.12407E+3
  -5.22889E+4  -4.53269E+3
  -5.18547E+4  -4.66254E+3
  -5.11956E+4  -4.66620E+3
  -5.05667E+4  -5.38370E+3
  -4.99365E+4  -5.46739E+3
  -4.89942E+4  -5.95365E+3
  -4.85971E+4  -5.88011E+3
  -4.79946E+4  -6.21323E+3
  -4.77058E+4  -6.62921E+3
  -4.67504E+4  -6.68110E+3
  -4.62464E+4  -6.77357E+3
  -4.58980E+4  -6.92641E+3
  -4.50857E+4  -7.36503E+3
  -4.46874E+4  -7.60042E+3
  -4.39629E+4  -7.66737E+3
  -4.33677E+4  -7.69152E+3
  -4.28207E+4  -7.91283E+3
  -4.24161E+4  -8.33855E+3
  -4.18288E+4  -8.42487E+3
  -4.11052E+4  -8.59177E+3
  -4.05767E+4  -8.68432E+3
  -4.01513E+4  -8.84966E+3
  -3.95940E+4  -9.13317E+3
  -3.91642E+4  -9.55978E+3
  -3.87430E+4  -9.70646E+3
  -3.81475E+4  -9.76869E+3
  -3.74091E+4  -9.88597E+3
  -3.71210E+4  -1.03617E+4
  -3.66025E+4  -1.00899E+4
  -3.60621E+4  -1.05386E+4
  -3.56476E+4  -1.07484E+4
  -3.52935E+4  -1.09134E+4
  -3.47505E+4  -1.09051E+4
  -3.40762E+4  -1.11830E+4
  -3.39023E+4  -1.13431E+4
  -3.33608E+4  -1.14017E+4
  -3.28475E+4  -1.18158E+4
  -3.22624E+4  -1.19416E+4
  -3.19344E+4  -1.20843E+4
  -3.16657E+4  -1.22544E+4
  -3.10246E+4  -1.25560E+4
  -3.05593E+4  -1.27289E+4
  -2.98686E+4  -1.28982E+4
  -2.97649E+4  -1.29670E+4
  -2.93241E+4  -1.31785E+4
  -2.88164E+4  -1.32626E+4
  -2.83100E+4  -1.33785E+4
  -2.79964E+4  -1.36822E+4
  -2.75539E+4  -1.38650E+4
  -2.71426E+4  -1.40147E+4
  -2.66862E+4  -1.42805E+4
  -2.64413E+4  -1.45329E+4
  -2.61150E+4  -1.44997E+4
  -2.54551E+4  -1.46856E+4
  -2.53047E+4  -1.50136E+4
  -2.49833E+4  -1.53472E+4
  -2.44871E+4  -1.53421E+4
  -2.39714E+4  -1.54039E+4
  -2.34972E+4  -1.54256E+4
  -2.33744E+4  -1.56149E+4
  -2.28120E+4  -1.60977E+4
  -2.25156E+4  -1.60183E+4
  -2.16876E+4  -1.59746E+4
  -2.17456E+4  -1.63495E+4
  -2.11502E+4  -1.65685E+4
  -2.08104E+4  -1.66720E+4
  -2.04658E+4  -1.66567E+4
  -2.01483E+4  -1.69656E+4
  -1.97333E+4  -1.69051E+4
  -1.92430E+4  -1.72916E+4
  -1.87850E+4  -1.70639E+4
  -1.85427E+4  -1.72205E+4
  -1.81809E+4  -1.72682E+4
  -1.77795E+4  -1.72305E+4
  -1.76289E+4  -1.75781E+4
  -1.73779E+4  -1.74616E+4
  -1.68791E+4  -1.78798E+4
  -1.68736E+4  -1.79090E+4
  -1.63141E+4  -1.77696E+4
  -1.60053E+4  -1.80956E+4
  -1.56401E+4  -1.79567E+4
  -1.53107E+4  -1.81855E+4
  -1.48647E+4  -1.80021E+4
  -1.46812E+4  -1.80462E+4
  -1.41123E+4  -1.80819E+4
  -1.39556E+4  -1.82274E+4
  -1.35588E+4  -1.82711E+4
  -1.30435E+4  -1.85638E+4
  -1.29590E+4  -1.86493E+4
  -1.27580E+4  -1.83493E+4
  -1.26395E+4  -1.83101E+4
  -1.21884E+4  -1.82664E+4
  -1.18761E+4  -1.82960E+4
  -1.13413E+4  -1.85753E+4
  -1.12029E+4  -1.85854E+4
