 
 $NMID
 ID=''
 FMTDAT='(2E13.5)'
 TRAMP=   1.00000E+0
 VOLUME=   1.00000E+0
 $END
   1.44166E+4   1.02401E+4
   2.91460E+4  -2.52576E+3
  -3.87878E+2  -3.24049E+4
  -2.91209E+4  -5.89106E+3
  -3.75646E+3   3.11229E+4
   2.46625E+4   9.68834E+3
   7.38450E+3  -2.28366E+4
  -1.52231E+4  -1.12266E+4
  -6.81189E+3   1.23019E+4
   1.02309E+4   1.02016E+4
   9.29823E+3  -5.13304E+3
  -4.12408E+3  -8.03014E+3
  -7.06954E+3   2.40521E+3
   2.55360E+3   8.43867E+3
   3.76450E+3   1.53215E+3
  -3.14522E+3  -4.34482E+3
  -2.15499E+3  -1.24804E+3
   1.56349E+3   2.26810E+3
  -6.33938E+2   9.40935E+2
  -1.27085E+3  -1.50369E+3
   9.55451E+2  -4.24545E+2
  -1.27009E+1   7.25748E+2
  -1.40147E+3  -8.51391E+2
   1.78935E+2  -1.24454E+3
   1.02339E+3   1.85741E+3
  -5.58805E+2   4.46566E+2
  -9.15999E+2  -2.83247E+3
   8.10228E+2  -2.01380E+2
   1.36063E+3   3.14378E+3
  -3.93961E+2   9.16961E+2
  -1.29413E+3  -2.21210E+3
   5.04016E+2  -1.49224E+3
   1.28307E+3   9.08715E+2
   6.41993E+2   1.70740E+3
  -1.34731E+3   4.90035E+2
  -1.86041E+3  -8.02616E+2
   7.02469E+1  -1.22276E+3
   1.10857E+3  -4.82387E+2
  -7.62683E+2   2.27587E+2
  -6.92707E+2  -1.44807E+2
   1.22375E+3   2.42550E+1
   1.09250E+3   3.32265E+2
  -1.36952E+3   1.50156E+2
  -1.48171E+3  -3.32476E+1
   1.77476E+2   3.25541E+0
   6.56968E+2  -5.54746E+2
   1.09721E+2  -1.17306E+3
   6.56018E+2  -6.02158E+2
   9.90687E+2   1.02761E+3
   3.48929E+2   8.93451E+2
  -3.77866E+2  -1.31061E+2
  -6.72897E+2  -1.03434E+0
  -1.85302E+2   1.82555E+2
  -1.91507E+2   2.33811E+2
  -4.77048E+2  -5.20264E+2
  -7.62938E+1  -6.75571E+2
   6.54492E+2  -1.56820E+2
   5.26999E+2   7.04006E+2
  -3.57008E+2   9.07765E+2
  -7.04022E+2  -2.56734E+2
  -3.92871E+2  -3.88306E+2
  -2.52273E+0  -2.69008E+2
  -3.23852E+2  -3.46754E+2
  -1.68663E+2  -9.36000E+2
   1.02539E+3  -7.52134E+2
   1.11785E+3   6.50655E+2
   2.20077E+2   9.02855E+2
  -6.21011E+2   7.41665E+2
  -3.10923E+2   6.34923E+1
   1.35702E+2  -5.21012E+2
   2.44402E+2  -6.41547E+1
   7.02106E+1   6.15541E+1
  -5.40580E+1   2.33879E+2
  -5.14434E+2  -3.78968E+2
   8.38674E+1  -5.09542E+2
   3.96416E+2  -1.11051E+2
  -6.30702E+1  -1.40378E+2
  -6.30366E+1  -2.96588E+2
  -6.53000E+1  -2.24724E+2
   4.91383E+2  -7.24628E+1
   5.19583E+2  -8.86480E+1
   2.60554E+2   3.49047E+1
  -6.92358E+1  -2.87097E+1
   2.13126E+2   1.95210E+2
   6.12964E+2  -4.54860E+1
   3.03449E+1   1.74150E+0
  -8.84874E+1  -3.94642E+1
  -2.93630E+2   5.01896E+0
   1.27965E+1  -2.83705E+2
  -9.01161E+0   9.23079E+0
  -1.77022E+2   1.58579E+2
  -7.10046E+1  -2.29079E+2
  -1.28124E+2  -5.79683E+2
   2.37313E+2  -5.13462E+2
   7.26289E+2  -1.22378E+2
   2.72889E+2   4.67679E+2
  -2.41594E+2   6.44929E+1
   6.44909E+1  -4.46611E+2
   2.46223E+2   1.29404E+2
  -1.83117E+2   5.35076E+2
  -6.81021E+2  -1.43949E+2
  -2.23726E+2  -3.10006E+2
   3.64206E+2  -2.50386E+2
   3.75383E+2   1.21108E+2
   2.57873E+1   3.42144E+2
  -4.06389E+2   2.50833E+2
  -3.97889E+2   5.58053E+1
  -1.12153E+2  -7.68740E+1
   2.94343E+2  -1.93148E+2
   3.73793E+2   8.99299E+1
  -1.76605E+2   7.21540E+2
  -4.09340E+2   4.61363E+2
  -2.15900E+2   3.32607E+0
  -1.39091E+2  -2.93256E+2
  -6.47035E+1   2.98831E+2
  -5.24956E+2   2.53304E+2
  -4.48555E+1  -2.44560E+2
   2.85705E+2  -2.85940E+2
   2.75811E+2   2.48764E+2
   3.30825E+2   4.94756E+2
   3.56895E+2   2.70807E+2
  -5.67172E+1   2.74606E+1
   1.09436E+2   1.12205E+1
  -3.42700E+2   5.66627E+2
  -9.51408E+1   1.55408E+2
   1.54691E+2   2.11174E+1
   1.76207E+1  -7.85710E+1
   1.36303E+2   4.77719E+1
  -1.17443E+2   2.23117E+2
  -2.34841E+1   4.17926E+2
  -7.71559E+1   3.32049E+2
  -3.03523E+1  -4.05513E+2
   3.55223E+2   5.57288E+1
   1.66051E+1   5.67550E+1
   1.59023E+2   1.73610E+2
   2.83664E+2   1.65893E+2
   2.55069E+2   1.28122E+2
   1.98449E+1   3.40101E+2
   1.39832E+1   5.19031E+1
   3.07281E+1   8.50959E+1
   2.32974E+2  -2.50489E+1
   3.64973E+2  -9.95421E+1
   2.00752E+2   1.15656E+2
   1.16368E+2   2.34070E+2
  -3.50453E+2   1.47530E+1
   7.45854E+0  -8.45518E+1
   2.36799E+2  -1.29310E+1
   2.19275E+2   1.77318E+2
  -1.95440E+1  -1.47290E+2
  -1.64868E+2  -2.65396E+2
   7.81932E+1   8.64043E+1
  -4.89808E+1   2.93204E+2
   4.76460E+0   1.22981E+2
  -2.84446E+2   1.40249E+2
  -2.16106E+2  -6.70659E+1
   5.18028E+1  -1.31123E+2
  -1.62445E+2   2.63493E+2
   1.57401E+1   4.13632E+0
   6.68677E+1   7.74976E+1
  -1.65005E+2   1.21331E+1
   2.85142E+1   1.51413E+2
  -4.76735E+1  -1.59973E+2
  -1.64771E+2  -2.33285E+1
   5.69017E+1   1.74633E+2
  -3.49549E+1  -1.74386E+1
   2.30522E+2   8.51601E+1
   2.83855E+2   1.50421E+2
  -8.35014E+1   1.79709E+2
  -1.37832E+2   1.94449E+2
  -4.54344E+1  -5.61307E+1
  -9.54629E+1   1.55906E+2
   1.01377E+1   8.18778E+1
  -2.04177E+2   6.28817E+1
  -1.43159E+2  -3.04070E+2
  -1.05025E+2   1.85707E+2
  -6.33168E+1   1.92274E+2
  -1.38078E+2   1.53527E+1
  -8.73948E+1  -1.59325E+2
   1.25779E+2  -2.03434E+2
  -7.06515E+1  -3.18357E+1
   9.90665E+1  -1.57994E+1
   6.38124E+1   1.81027E+2
  -1.06431E+2   1.00766E+2
  -2.04913E+1   8.95664E+1
  -1.31624E+2   1.06815E+2
  -5.12734E+1   5.98846E+0
   1.50822E+2  -1.55498E+2
   3.00433E+2   3.70896E+1
   3.28913E+2  -1.93833E+1
  -7.90486E+1  -5.42174E+0
  -1.91980E+2   8.62719E+1
   5.40512E+0  -1.04258E+1
   4.08050E+1   5.85677E+1
  -2.94530E+1   1.29522E+2
   3.28981E+2  -6.82079E+1
  -4.59066E+1   1.23134E+2
  -1.63043E+2   2.20065E+2
  -5.74151E+0   5.21972E-1
  -2.14554E+0   3.93073E+1
  -7.68649E+1   7.12072E+1
   6.72037E+1   6.15352E+1
  -5.56563E+1   9.99321E+0
  -1.26806E+2  -2.00285E+2
  -5.28748E+1  -2.68006E+1
   8.91577E+1  -4.78207E+1
  -1.66788E+2   2.02415E+2
  -3.94947E+1   1.41505E+1
  -2.77335E+0  -7.22993E+1
   1.04215E+2  -1.01247E+2
  -1.07263E+2   1.76560E+2
  -2.07370E+2   5.01625E+1
   7.12754E+0   1.22225E+2
  -1.32196E+2  -1.07950E+2
  -7.36257E+1   1.18808E+1
  -5.10815E+1  -6.05044E+1
  -1.03411E+2  -3.97387E+0
  -1.24712E+2  -2.23348E+2
   1.16688E+2   6.27182E+0
  -4.38397E+1  -1.55066E+1
  -1.79105E+2  -1.11535E+2
   1.68124E+2  -1.89834E+2
  -1.56124E+2   2.99143E+1
   6.42495E+1  -1.35287E+1
  -1.18785E+2  -1.13075E+2
   1.54362E+2   6.33449E+1
  -6.51156E+1  -4.55526E+1
  -7.86523E+1  -2.00958E+2
  -9.48140E+1  -2.01098E+2
   1.97397E+1  -2.40436E+2
  -4.80324E+1   1.91223E+2
  -4.67638E+1   4.70221E+1
   1.06777E+2   7.48730E+1
  -1.20676E+1  -5.11702E+1
  -5.16792E+1  -2.96417E+1
  -5.04035E+1  -4.03882E+1
   1.36000E+2  -6.51567E+1
   1.93935E+2   1.42640E+2
  -4.26821E+1   3.90617E+1
  -8.99154E+1   1.21463E+1
  -7.58530E+1  -7.11122E+1
  -1.69286E+0   3.73468E+1
   6.33642E+1   2.50919E+1
   3.85684E+1  -9.20229E+1
  -1.79015E+2  -2.87563E+2
  -2.11168E+2   1.08536E+0
  -2.28164E+2   4.33194E+1
   1.49876E+2   4.01564E+1
   1.65869E+2  -9.29313E+1
   1.91634E+1  -1.53407E+2
   1.65529E+2   4.00642E+1
  -2.36456E+2  -2.36802E+2
  -1.34944E+2   7.57681E+0
   4.28983E+1   1.33868E+2
   7.86105E+0  -8.66479E+1
  -1.98607E+1  -1.90011E+2
   3.88234E+1   9.37981E+0
   5.64833E+1  -6.71628E+1
   8.28683E+1  -3.76350E+1
   1.05858E+2   4.40733E+1
  -2.42857E+0  -6.24676E+1
   1.54038E+2   1.59148E+2
  -5.13367E+1  -3.78683E+0
   9.04241E+1   1.55219E+1
   2.32904E+1   9.86387E+1
  -3.06806E+1   1.38748E+2
   8.02634E+0   1.69261E+2
   6.62263E+1   2.03912E+2
   4.66956E+0  -5.27152E+1
   5.63832E+1   2.19845E+2
  -1.09499E+2  -6.84588E+1
   4.61383E+1   1.10526E+2
   1.50792E+1  -2.50921E+2
   1.63000E+2  -2.31884E+2
  -1.69725E+2  -2.28709E+2
   5.26385E+1  -3.57150E+1
  -2.23051E+2  -1.51151E+2
   1.94152E+1   4.54171E+1
  -2.35674E+2   3.03145E+1
  -2.31803E+2   1.41200E+2
  -2.34441E+1   2.33760E+2
  -1.73958E+2   8.58791E+1
  -1.90664E+2  -5.96171E+1
  -1.62117E+2  -2.25274E+1
  -1.82215E+2  -1.56485E+2
   1.29222E+2  -3.09674E+1
   2.82268E+1   1.59554E+2
   1.76934E+1   2.72387E+2
  -2.47198E+1   2.45057E+1
   5.74899E+1   1.29969E+2
  -9.07905E+1   5.26301E+0
   1.25673E+2   2.41136E+2
  -6.33227E+0   6.03585E+1
   1.19282E+2   6.34364E+1
   1.31624E+2   7.32931E+1
  -6.65492E+1  -6.94449E+1
   1.29760E+2  -1.63235E+2
  -2.74537E+1  -9.12310E+1
  -8.05389E+1   4.73047E+0
   6.08813E+1  -5.60245E+1
   1.52979E+2   2.15518E+1
  -2.04178E+2   1.29043E+1
   2.45569E+2  -6.77891E+1
  -6.70448E+1  -9.35349E+1
  -4.37637E+0  -8.70765E+1
   1.31056E+1   9.78175E+1
   5.94872E+1   9.58649E+1
  -4.86229E+1  -2.42320E+1
   3.64208E+1  -1.53772E+2
   6.93638E+1   9.94189E+1
  -4.20983E+1   2.33699E+0
   5.76965E+1   5.36561E+1
   9.65408E+1  -1.24407E+1
  -8.67569E+1   2.21912E+2
   1.39662E+2  -2.24757E+2
  -2.51810E+2   4.34316E+0
   2.22773E+1   2.30583E+1
  -1.69521E+2   6.91275E+1
   1.44089E+2   3.41740E+2
  -9.26143E+1  -1.54509E+2
  -3.37065E+2   3.53150E+1
  -6.76983E+0  -8.97060E+1
   5.70423E+1   4.26718E+1
   1.09258E+2   4.76729E+1
   3.80258E+1  -2.54106E+1
  -3.49328E+0  -5.08267E+1
  -2.09874E+2   6.90468E+1
  -6.52883E+1  -1.25415E+2
  -2.36449E+1  -4.07257E+1
  -1.24475E+2  -1.71612E+2
   1.30560E+1  -1.80511E+2
   8.25393E+1  -1.24315E+2
  -1.37457E+2  -1.78561E-1
   1.13451E+2   2.76598E+1
  -7.42091E+1  -6.94195E+1
   1.29792E+2   1.27322E+2
   8.44009E+1   9.77067E+1
   1.72305E+2   4.52350E+1
  -2.24096E+2   2.37678E+2
   3.40632E+1  -6.28801E+1
   1.49069E+2  -9.26908E+1
  -1.41337E-1  -8.73062E+1
  -2.12192E+2   8.62197E+1
   1.11178E+2  -8.90778E+0
   6.89470E+1  -2.18536E+2
  -2.31598E+1  -1.77358E+2
  -8.34299E+1   6.91701E+1
  -1.25589E+2   3.00317E+1
   2.71391E+1  -1.86963E+2
   1.06645E+2  -1.06696E+0
   1.93018E+2  -1.24329E+2
  -7.52623E+1   8.03085E+1
  -7.57974E+1  -2.30438E+1
  -1.01029E+2  -2.10838E+2
   1.36293E+2  -2.26348E+2
  -1.12167E+1  -7.87758E+1
   4.65675E+1   1.50320E+2
   1.39942E+2  -4.78724E+1
  -1.81502E+2  -6.65852E+1
   6.46921E+0  -1.69199E+2
  -6.01416E+1   1.18853E+2
  -6.51126E+1   1.14328E+2
  -7.83404E+1   5.25303E+1
  -1.43042E+2  -7.38507E+1
  -8.09919E+1  -1.63966E+2
   1.28508E+2   7.88191E+1
   1.62742E+2  -3.21715E+1
  -1.64345E+2  -2.21993E+2
