 
 $NMID
 ID=''
 FMTDAT='(2E13.5)'
 TRAMP=   1.00000E+0
 VOLUME=   1.00000E+0
 $END
  -1.29920E+5   6.39242E+5
  -9.91966E+5   1.44603E+6
  -8.37657E+5   1.48226E+6
  -8.67538E+5   1.34204E+6
  -9.17595E+5   1.37805E+6
  -8.27843E+5   1.37704E+6
  -8.13467E+5   1.31114E+6
  -8.38608E+5   1.31491E+6
  -7.99942E+5   1.28332E+6
  -8.07213E+5   1.22117E+6
  -8.18550E+5   1.21428E+6
  -7.89983E+5   1.18503E+6
  -7.96589E+5   1.13819E+6
  -8.09226E+5   1.12253E+6
  -7.97972E+5   1.08172E+6
  -8.07535E+5   1.03526E+6
  -8.11378E+5   1.02115E+6
  -7.95780E+5   9.87914E+5
  -7.93386E+5   9.47266E+5
  -7.78602E+5   9.30619E+5
  -7.57565E+5   8.96226E+5
  -7.52893E+5   8.57812E+5
  -7.38936E+5   8.35522E+5
  -7.18090E+5   8.02784E+5
  -7.11973E+5   7.66999E+5
  -6.95711E+5   7.45767E+5
  -6.82776E+5   7.13556E+5
  -6.83415E+5   6.78734E+5
  -6.74382E+5   6.50657E+5
  -6.59941E+5   6.20164E+5
  -6.56490E+5   5.92355E+5
  -6.44103E+5   5.68618E+5
  -6.29597E+5   5.38122E+5
  -6.19130E+5   5.11156E+5
  -6.01365E+5   4.89255E+5
  -5.82369E+5   4.64980E+5
  -5.69583E+5   4.44368E+5
  -5.53010E+5   4.24335E+5
  -5.35895E+5   3.99048E+5
  -5.23821E+5   3.77632E+5
  -5.09673E+5   3.57485E+5
  -4.96300E+5   3.34327E+5
  -4.85838E+5   3.14466E+5
  -4.74083E+5   2.95015E+5
  -4.63026E+5   2.72661E+5
  -4.54417E+5   2.51635E+5
  -4.43241E+5   2.32360E+5
  -4.31526E+5   2.11728E+5
  -4.18931E+5   1.93520E+5
  -4.05063E+5   1.76825E+5
  -3.92264E+5   1.59843E+5
  -3.80267E+5   1.44529E+5
  -3.66514E+5   1.30296E+5
  -3.54473E+5   1.16175E+5
  -3.43047E+5   1.03045E+5
  -3.31172E+5   9.00514E+4
  -3.19767E+5   7.66066E+4
  -3.09735E+5   6.48046E+4
  -2.99062E+5   5.24017E+4
  -2.89288E+5   4.03547E+4
  -2.80178E+5   2.85263E+4
  -2.70175E+5   1.75403E+4
  -2.60431E+5   6.20005E+3
  -2.50255E+5  -4.30357E+3
  -2.39417E+5  -1.44420E+4
  -2.28717E+5  -2.38129E+4
  -2.18875E+5  -3.17094E+4
  -2.08871E+5  -3.90192E+4
  -1.99150E+5  -4.60550E+4
  -1.90473E+5  -5.31997E+4
  -1.81338E+5  -5.95358E+4
  -1.72932E+5  -6.55580E+4
  -1.65022E+5  -7.14390E+4
  -1.57534E+5  -7.69358E+4
  -1.49980E+5  -8.26748E+4
  -1.42404E+5  -8.78297E+4
  -1.35225E+5  -9.26587E+4
  -1.27733E+5  -9.74951E+4
  -1.20682E+5  -1.02146E+5
  -1.13017E+5  -1.06191E+5
  -1.06027E+5  -1.09768E+5
  -9.92261E+4  -1.12602E+5
  -9.26246E+4  -1.15314E+5
  -8.58309E+4  -1.17842E+5
  -7.94722E+4  -1.19927E+5
  -7.36451E+4  -1.21740E+5
  -6.82679E+4  -1.23403E+5
  -6.29287E+4  -1.25116E+5
  -5.76272E+4  -1.26585E+5
  -5.27672E+4  -1.28032E+5
  -4.82955E+4  -1.29121E+5
  -4.36239E+4  -1.30178E+5
  -3.92863E+4  -1.31056E+5
  -3.49133E+4  -1.31503E+5
  -3.08663E+4  -1.31377E+5
  -2.71507E+4  -1.31444E+5
  -2.34936E+4  -1.31247E+5
  -1.97804E+4  -1.30675E+5
  -1.69150E+4  -1.29852E+5
  -1.37904E+4  -1.28766E+5
  -1.05573E+4  -1.27896E+5
  -7.95081E+3  -1.27030E+5
  -5.58141E+3  -1.25923E+5
  -2.97870E+3  -1.24592E+5
  -6.44725E+2  -1.23437E+5
   1.22319E+3  -1.22189E+5
   3.31065E+3  -1.21142E+5
   5.83172E+3  -1.19762E+5
   8.17029E+3  -1.17835E+5
   9.70458E+3  -1.15891E+5
   1.11644E+4  -1.14643E+5
   1.29530E+4  -1.12899E+5
   1.47452E+4  -1.10459E+5
   1.60826E+4  -1.08371E+5
   1.78108E+4  -1.06201E+5
   1.92496E+4  -1.04445E+5
   2.07598E+4  -1.01905E+5
   2.16459E+4  -9.96924E+4
   2.26317E+4  -9.74513E+4
   2.34103E+4  -9.51471E+4
   2.43867E+4  -9.33953E+4
   2.53835E+4  -9.12011E+4
   2.62590E+4  -8.91257E+4
   2.74315E+4  -8.70123E+4
   2.84700E+4  -8.46255E+4
   2.90785E+4  -8.23087E+4
   3.00803E+4  -8.00291E+4
   3.10579E+4  -7.78698E+4
   3.18022E+4  -7.55104E+4
   3.25477E+4  -7.29949E+4
   3.34747E+4  -7.10198E+4
   3.41235E+4  -6.83371E+4
   3.46706E+4  -6.60210E+4
   3.47793E+4  -6.41232E+4
   3.56439E+4  -6.20332E+4
   3.59031E+4  -5.98989E+4
   3.62507E+4  -5.74253E+4
   3.64641E+4  -5.59167E+4
   3.69341E+4  -5.40679E+4
   3.70854E+4  -5.18185E+4
   3.71582E+4  -4.99513E+4
   3.72532E+4  -4.80476E+4
   3.74705E+4  -4.61438E+4
   3.75241E+4  -4.41283E+4
   3.75158E+4  -4.25153E+4
   3.75919E+4  -4.09644E+4
   3.75439E+4  -3.88969E+4
   3.72894E+4  -3.73758E+4
   3.70199E+4  -3.56433E+4
   3.67707E+4  -3.40134E+4
   3.65882E+4  -3.24661E+4
   3.63959E+4  -3.10012E+4
   3.61200E+4  -2.96325E+4
   3.58211E+4  -2.83429E+4
   3.53398E+4  -2.67368E+4
   3.48099E+4  -2.54951E+4
   3.44587E+4  -2.41441E+4
   3.38510E+4  -2.27876E+4
   3.31902E+4  -2.11557E+4
   3.27161E+4  -2.01049E+4
   3.20059E+4  -1.87252E+4
   3.16478E+4  -1.77269E+4
   3.09593E+4  -1.63528E+4
   3.02182E+4  -1.51067E+4
   2.96853E+4  -1.39805E+4
   2.87028E+4  -1.29211E+4
   2.84677E+4  -1.17006E+4
   2.75333E+4  -1.05560E+4
   2.71847E+4  -9.56428E+3
   2.65343E+4  -8.68522E+3
   2.57708E+4  -7.42984E+3
   2.50066E+4  -6.33191E+3
   2.43308E+4  -5.24615E+3
   2.35175E+4  -4.46350E+3
   2.27792E+4  -3.27579E+3
   2.22120E+4  -2.48582E+3
   2.13043E+4  -1.75099E+3
   2.07347E+4  -7.09062E+2
   1.99962E+4   2.34103E+2
   1.92457E+4   1.08136E+3
   1.83850E+4   1.94544E+3
   1.80213E+4   2.79808E+3
   1.71439E+4   3.56925E+3
   1.64542E+4   4.31947E+3
   1.57780E+4   4.97965E+3
   1.53705E+4   6.01733E+3
   1.44643E+4   6.85466E+3
   1.37181E+4   7.51913E+3
   1.33307E+4   8.32653E+3
   1.25054E+4   8.95048E+3
   1.21491E+4   9.50530E+3
   1.13399E+4   1.03631E+4
   1.08199E+4   1.09011E+4
   1.00965E+4   1.16091E+4
   9.56802E+3   1.20525E+4
   8.99566E+3   1.24938E+4
   8.47698E+3   1.32827E+4
   7.80783E+3   1.37565E+4
   7.27328E+3   1.43734E+4
   6.26898E+3   1.48574E+4
   5.59803E+3   1.52950E+4
   4.92285E+3   1.63767E+4
   4.41412E+3   1.65231E+4
   3.82809E+3   1.66533E+4
   2.98906E+3   1.72714E+4
   2.49077E+3   1.76215E+4
   2.01002E+3   1.80498E+4
   1.37569E+3   1.82903E+4
   4.86944E+2   1.87377E+4
   1.44064E+2   1.89704E+4
  -6.18963E+2   1.92847E+4
  -1.39972E+3   1.94699E+4
  -1.94100E+3   1.97633E+4
  -2.46918E+3   1.99629E+4
  -3.19253E+3   2.02550E+4
  -4.16614E+3   2.05390E+4
  -4.53605E+3   2.05956E+4
  -5.00588E+3   2.07340E+4
  -5.81220E+3   2.09813E+4
  -6.33915E+3   2.10613E+4
  -7.10756E+3   2.13558E+4
  -7.44933E+3   2.13635E+4
  -7.99842E+3   2.13912E+4
  -8.75272E+3   2.16099E+4
  -9.47341E+3   2.16188E+4
  -9.79634E+3   2.18514E+4
  -1.06853E+4   2.17150E+4
  -1.11957E+4   2.18106E+4
  -1.17169E+4   2.19220E+4
  -1.23834E+4   2.18948E+4
  -1.29209E+4   2.18593E+4
  -1.35122E+4   2.16918E+4
  -1.40236E+4   2.20167E+4
  -1.45857E+4   2.21426E+4
  -1.50033E+4   2.17688E+4
  -1.53493E+4   2.17560E+4
  -1.62427E+4   2.17142E+4
  -1.67171E+4   2.16458E+4
  -1.71894E+4   2.16440E+4
  -1.75971E+4   2.13993E+4
  -1.80737E+4   2.13457E+4
  -1.87182E+4   2.11593E+4
  -1.89884E+4   2.10555E+4
  -1.96244E+4   2.11043E+4
  -2.03110E+4   2.10735E+4
  -2.06582E+4   2.08439E+4
  -2.09570E+4   2.06140E+4
  -2.13264E+4   2.05704E+4
  -2.16569E+4   2.03082E+4
  -2.19743E+4   2.00683E+4
  -2.26798E+4   1.99139E+4
  -2.29831E+4   1.98998E+4
  -2.33677E+4   1.95303E+4
  -2.36479E+4   1.93990E+4
  -2.40044E+4   1.89671E+4
  -2.42237E+4   1.91792E+4
  -2.45102E+4   1.91257E+4
  -2.48057E+4   1.86321E+4
  -2.52738E+4   1.83324E+4
  -2.55986E+4   1.81184E+4
  -2.61094E+4   1.78150E+4
  -2.64582E+4   1.74493E+4
  -2.64582E+4   1.73796E+4
  -2.66996E+4   1.70711E+4
  -2.68284E+4   1.68622E+4
  -2.71092E+4   1.66729E+4
  -2.74377E+4   1.63776E+4
  -2.73918E+4   1.55217E+4
  -2.78166E+4   1.56898E+4
  -2.79513E+4   1.54670E+4
  -2.79662E+4   1.50494E+4
  -2.80099E+4   1.46000E+4
  -2.81748E+4   1.45087E+4
  -2.84713E+4   1.42524E+4
  -2.86530E+4   1.38046E+4
  -2.87370E+4   1.34684E+4
  -2.87772E+4   1.30339E+4
  -2.88752E+4   1.25730E+4
  -2.90346E+4   1.21914E+4
  -2.90927E+4   1.20398E+4
  -2.89538E+4   1.20642E+4
  -2.90887E+4   1.15721E+4
  -2.91585E+4   1.11896E+4
  -2.93051E+4   1.06562E+4
  -2.95390E+4   1.05200E+4
  -2.92742E+4   1.01932E+4
  -2.92268E+4   9.84985E+3
  -2.91264E+4   9.58459E+3
  -2.93822E+4   9.70928E+3
  -2.95585E+4   8.89781E+3
  -2.94948E+4   8.64929E+3
  -2.90615E+4   8.69974E+3
  -2.93214E+4   8.23223E+3
  -2.93928E+4   8.10628E+3
  -2.90754E+4   7.45825E+3
  -2.91420E+4   7.37263E+3
  -2.91728E+4   7.10543E+3
  -2.92169E+4   6.75215E+3
  -2.91233E+4   6.64535E+3
  -2.87893E+4   6.17622E+3
  -2.91763E+4   5.75959E+3
  -2.85787E+4   5.73509E+3
  -2.88412E+4   5.71197E+3
  -2.88410E+4   5.00972E+3
  -2.86079E+4   4.62248E+3
  -2.85478E+4   4.64373E+3
  -2.83884E+4   4.32193E+3
  -2.82991E+4   4.14248E+3
  -2.82709E+4   3.81659E+3
  -2.82915E+4   3.45978E+3
  -2.81669E+4   3.19525E+3
  -2.82169E+4   3.07042E+3
  -2.80178E+4   2.54932E+3
  -2.77102E+4   2.55037E+3
  -2.75460E+4   2.22003E+3
  -2.74365E+4   2.07530E+3
  -2.73217E+4   1.51980E+3
  -2.73437E+4   1.27560E+3
  -2.71052E+4   1.14335E+3
  -2.68974E+4   7.08616E+2
  -2.69205E+4   5.81062E+2
  -2.67388E+4   3.26984E+2
  -2.66962E+4  -3.18878E+2
  -2.62062E+4  -4.24851E+2
  -2.60786E+4  -7.15211E+2
  -2.58320E+4  -7.27298E+2
  -2.58852E+4  -1.20022E+3
  -2.57024E+4  -1.76685E+3
  -2.57506E+4  -2.04686E+3
  -2.51417E+4  -2.18682E+3
  -2.52129E+4  -2.43213E+3
  -2.49081E+4  -2.58318E+3
  -2.46879E+4  -2.98198E+3
  -2.44875E+4  -3.13129E+3
  -2.43682E+4  -3.34875E+3
  -2.44890E+4  -3.72306E+3
  -2.40431E+4  -4.14056E+3
  -2.37844E+4  -4.48227E+3
  -2.36962E+4  -4.73981E+3
  -2.31695E+4  -4.67341E+3
  -2.32351E+4  -5.26170E+3
  -2.29110E+4  -5.52459E+3
  -2.26648E+4  -5.59683E+3
  -2.24426E+4  -5.83409E+3
  -2.23076E+4  -6.16782E+3
  -2.22296E+4  -6.43774E+3
  -2.18301E+4  -6.71315E+3
  -2.16503E+4  -6.99083E+3
  -2.15591E+4  -7.05361E+3
  -2.14658E+4  -7.33456E+3
  -2.10933E+4  -7.56335E+3
  -2.07889E+4  -7.90267E+3
  -2.06433E+4  -8.22623E+3
  -2.06598E+4  -8.21360E+3
  -2.02236E+4  -8.37862E+3
  -1.97997E+4  -8.45045E+3
  -1.98082E+4  -8.62946E+3
  -1.94493E+4  -9.06925E+3
  -1.93792E+4  -9.12652E+3
  -1.89194E+4  -9.23995E+3
  -1.90704E+4  -9.41997E+3
  -1.85501E+4  -9.46755E+3
  -1.81200E+4  -9.69014E+3
  -1.82557E+4  -9.87543E+3
  -1.80441E+4  -1.01537E+4
  -1.75341E+4  -1.02008E+4
  -1.72837E+4  -1.03075E+4
