 LCModel (Version 6.3-1N) Copyright: S.W. Provencher.          Ref.: Magn. Reson. Med. 30:672-679 (1993).                
 Slice_N1@16_22  28-Feb-2025 11:40:30
 27 lines in following concentration table = NCONC+1
    Conc.  %SD /Cr+PCr  Metabolite                                         
 2.39E-04   5% 2.3E-04 Mac                                                 
    3.151  50%   3.018 Cr                                                  
    5.200  30%   4.982 PCr                                                 
    6.438  15%   6.167 Ins                                                 
   10.872   8%  10.415 NAA                                                 
    5.277  18%   5.055 Tau                                                 
    0.000 999%   0.000 PCho                                                
    1.918  17%   1.838 GPC                                                 
   10.404  11%   9.966 Glu                                                 
    4.017  23%   3.848 Gln                                                 
    0.000 999%   0.000 Ala                                                 
    2.796  48%   2.679 Asc                                                 
    2.977  39%   2.852 Asp                                                 
    1.243  51%   1.191 GABA                                                
    1.242  72%   1.189 Glc                                                 
    2.114  27%   2.025 GSH                                                 
    2.412  31%   2.311 Lac                                                 
    2.227  30%   2.134 NAAG                                                
    1.081 113%   1.036 PE                                                  
    1.918  17%   1.838 GPC+PCho                                            
   13.099   7%  12.548 NAA+NAAG                                            
   14.421  10%  13.814 Glu+Gln                                             
    8.351   9%   8.000 Cr+PCr                                              
   13.099   7%  12.548 NAA+NAAG                                            
    8.351   9%   8.000 Cr+PCr                                              
   14.421  10%  13.814 Glu+Gln                                             
   6 lines in following misc. output table
  FWHM = 0.033 ppm    S/N =   4                                            
  Data shift = 0.016 ppm                                                   
  Ph: -58 deg       0.0 deg/ppm                                            
  alphaB,S = 2.7E+00,   3.5E-01                                            
   19 spline knots.   Ns = 5(1)                                            
   2 inflections.     1 extrema                                            
  480 points on ppm-axis = NY
      4.100000     4.091866     4.083733     4.075600     4.067466     4.059333     4.051199     4.043066     4.034933     4.026799
      4.018666     4.010532     4.002399     3.994265     3.986132     3.977998     3.969864     3.961731     3.953597     3.945463
      3.937330     3.929196     3.921062     3.912929     3.904795     3.896662     3.888528     3.880394     3.872261     3.864127
      3.855993     3.847860     3.839726     3.831592     3.823459     3.815325     3.807191     3.799058     3.790924     3.782790
      3.774657     3.766523     3.758389     3.750256     3.742122     3.733989     3.725855     3.717721     3.709588     3.701454
      3.693320     3.685187     3.677053     3.668919     3.660786     3.652652     3.644518     3.636385     3.628251     3.620117
      3.611984     3.603850     3.595716     3.587583     3.579449     3.571316     3.563182     3.555048     3.546915     3.538781
      3.530647     3.522514     3.514380     3.506246     3.498113     3.489979     3.481845     3.473712     3.465578     3.457444
      3.449311     3.441177     3.433043     3.424910     3.416776     3.408643     3.400509     3.392375     3.384242     3.376108
      3.367974     3.359841     3.351707     3.343573     3.335440     3.327306     3.319172     3.311039     3.302905     3.294771
      3.286638     3.278504     3.270370     3.262237     3.254103     3.245970     3.237836     3.229702     3.221569     3.213435
      3.205301     3.197168     3.189034     3.180900     3.172767     3.164633     3.156499     3.148366     3.140232     3.132098
      3.123965     3.115831     3.107697     3.099564     3.091430     3.083297     3.075163     3.067029     3.058896     3.050762
      3.042628     3.034495     3.026361     3.018227     3.010094     3.001960     2.993826     2.985693     2.977559     2.969425
      2.961292     2.953158     2.945024     2.936891     2.928757     2.920624     2.912490     2.904356     2.896223     2.888089
      2.879955     2.871822     2.863688     2.855554     2.847421     2.839287     2.831153     2.823020     2.814886     2.806752
      2.798619     2.790485     2.782351     2.774218     2.766084     2.757951     2.749817     2.741683     2.733550     2.725416
      2.717282     2.709149     2.701015     2.692881     2.684748     2.676614     2.668480     2.660347     2.652213     2.644079
      2.635946     2.627812     2.619678     2.611545     2.603411     2.595278     2.587144     2.579010     2.570877     2.562743
      2.554609     2.546476     2.538342     2.530208     2.522075     2.513941     2.505807     2.497674     2.489540     2.481406
      2.473273     2.465139     2.457006     2.448872     2.440738     2.432605     2.424471     2.416337     2.408204     2.400070
      2.391936     2.383803     2.375669     2.367535     2.359402     2.351268     2.343134     2.335001     2.326867     2.318733
      2.310600     2.302466     2.294333     2.286199     2.278065     2.269932     2.261798     2.253664     2.245531     2.237397
      2.229263     2.221130     2.212996     2.204862     2.196729     2.188595     2.180461     2.172328     2.164194     2.156060
      2.147927     2.139793     2.131660     2.123526     2.115392     2.107259     2.099125     2.090991     2.082858     2.074724
      2.066590     2.058457     2.050323     2.042189     2.034056     2.025922     2.017788     2.009655     2.001521     1.993387
      1.985254     1.977120     1.968987     1.960853     1.952719     1.944586     1.936452     1.928318     1.920185     1.912051
      1.903917     1.895784     1.887650     1.879516     1.871383     1.863249     1.855115     1.846982     1.838848     1.830714
      1.822581     1.814447     1.806314     1.798180     1.790046     1.781913     1.773779     1.765645     1.757512     1.749378
      1.741244     1.733111     1.724977     1.716843     1.708710     1.700576     1.692442     1.684309     1.676175     1.668041
      1.659908     1.651774     1.643641     1.635507     1.627373     1.619240     1.611106     1.602972     1.594839     1.586705
      1.578571     1.570438     1.562304     1.554170     1.546037     1.537903     1.529769     1.521636     1.513502     1.505368
      1.497235     1.489101     1.480968     1.472834     1.464700     1.456567     1.448433     1.440299     1.432166     1.424032
      1.415898     1.407765     1.399631     1.391497     1.383364     1.375230     1.367096     1.358963     1.350829     1.342695
      1.334562     1.326428     1.318295     1.310161     1.302027     1.293894     1.285760     1.277626     1.269493     1.261359
      1.253225     1.245092     1.236958     1.228824     1.220691     1.212557     1.204423     1.196290     1.188156     1.180022
      1.171889     1.163755     1.155622     1.147488     1.139354     1.131221     1.123087     1.114953     1.106820     1.098686
      1.090552     1.082419     1.074285     1.066151     1.058018     1.049884     1.041750     1.033617     1.025483     1.017349
      1.009216     1.001082     0.992949     0.984815     0.976681     0.968548     0.960414     0.952280     0.944147     0.936013
      0.927879     0.919746     0.911612     0.903478     0.895345     0.887211     0.879077     0.870944     0.862810     0.854676
      0.846543     0.838409     0.830276     0.822142     0.814008     0.805875     0.797741     0.789607     0.781474     0.773340
      0.765206     0.757073     0.748939     0.740805     0.732672     0.724538     0.716404     0.708271     0.700137     0.692003
      0.683870     0.675736     0.667603     0.659469     0.651335     0.643202     0.635068     0.626934     0.618801     0.610667
      0.602533     0.594400     0.586266     0.578132     0.569999     0.561865     0.553731     0.545598     0.537464     0.529330
      0.521197     0.513063     0.504930     0.496796     0.488662     0.480529     0.472395     0.464261     0.456128     0.447994
      0.439861     0.431727     0.423593     0.415460     0.407326     0.399192     0.391059     0.382925     0.374792     0.366658
      0.358524     0.350391     0.342257     0.334124     0.325990     0.317856     0.309723     0.301589     0.293455     0.285322
      0.277188     0.269055     0.260921     0.252787     0.244654     0.236520     0.228386     0.220253     0.212119     0.203986
 NY phased data points follow
  -7.39489E+01 -5.93197E+01 -8.36210E+01 -8.68136E+01 -8.16233E+01 -8.69806E+01 -7.43408E+01 -7.99612E+01 -8.56301E+01 -9.75483E+01
  -9.57576E+01 -8.04677E+01 -8.10570E+01 -8.66316E+01 -9.43937E+01 -1.07468E+02 -1.05265E+02 -1.06796E+02 -1.27070E+02 -1.26019E+02
  -1.29037E+02 -1.20098E+02 -8.84057E+01 -7.02683E+01 -5.21232E+01 -3.50508E+01 -4.96911E+01 -5.86058E+01 -4.82958E+01 -4.55796E+01
  -3.61813E+01 -4.91577E+01 -4.87230E+01 -5.16220E+01 -5.44963E+01 -4.14471E+01 -5.16510E+01 -6.57152E+01 -9.21124E+01 -8.62994E+01
  -1.00549E+02 -1.08962E+02 -8.00471E+01 -7.03748E+01 -5.73879E+01 -4.19201E+01 -2.21183E+01 -2.55104E+01 -2.93194E+00 -1.16469E+01
  -2.80708E+01 -1.84029E+01 -4.50675E+01 -4.14915E+01 -4.61358E+01 -4.44308E+01 -4.71395E+01 -4.94375E+01 -5.77295E+01 -6.96559E+01
  -5.53722E+01 -5.15743E+01 -3.07824E+01 -3.19030E+01 -1.19218E+01 -2.04241E+01 -2.93865E+01 -2.24573E+01 -7.22541E+01 -6.79607E+01
  -7.42797E+01 -5.87546E+01 -2.98289E+01 -3.66130E+01 -1.53700E+01 -1.84383E+01 -1.49071E+01 -5.14937E+00 -1.12995E+01 -1.99384E+01
  -2.65943E+01 -2.72235E+01 -3.21247E+01 -4.07089E+01 -4.94869E+01 -5.41523E+01 -4.99403E+01 -3.26347E+01 -1.67789E+01 -1.42904E+00
   1.91323E+00  1.22693E+01  2.33547E+01  6.96240E+00  1.78618E+01  2.82259E+01  1.91465E+01  2.69503E+01  2.11821E+01  1.84618E+01
   5.30691E+00 -4.41344E+00  4.50222E+00 -3.08552E+01 -3.88851E+01 -4.27262E+01 -5.86888E+01 -5.73391E+01 -9.24488E+01 -1.08898E+02
  -1.49718E+02 -1.73547E+02 -1.29436E+02 -1.21605E+02 -1.13174E+02 -8.16949E+01 -7.45195E+01 -7.55474E+01 -5.68548E+01 -4.72960E+01
  -5.06685E+01 -4.42655E+01 -2.93113E+01 -2.27329E+01 -1.72709E+01  1.79601E+00  1.67083E+01  2.69925E+01  3.91315E+01  5.53652E+01
   5.05252E+01  3.31227E+01 -2.13249E+01 -1.00874E+02 -1.34025E+02 -1.37313E+02 -1.19270E+02 -1.11679E+02 -1.05283E+02 -9.61034E+01
  -1.06003E+02 -1.01173E+02 -9.17451E+01 -9.65837E+01 -9.06695E+01 -9.40021E+01 -1.13373E+02 -9.41579E+01 -1.05466E+02 -1.02532E+02
  -6.85878E+01 -9.28351E+01 -8.07652E+01 -6.88571E+01 -7.16984E+01 -6.01055E+01 -8.63482E+01 -8.62705E+01 -6.20610E+01 -5.65597E+01
  -5.41521E+01 -6.41390E+01 -7.39223E+01 -6.88409E+01 -6.48772E+01 -7.04968E+01 -7.79396E+01 -6.88748E+01 -5.32472E+01 -4.36469E+01
  -4.66217E+01 -4.14211E+01 -2.80803E+01 -3.04208E+01 -3.14119E+01 -3.93089E+01 -3.90030E+01 -3.38094E+01 -3.64457E+01 -5.82901E+01
  -8.53270E+01 -7.85833E+01 -8.17428E+01 -8.43772E+01 -7.39694E+01 -7.42061E+01 -7.39336E+01 -7.17892E+01 -7.56107E+01 -7.73645E+01
  -7.17944E+01 -6.50732E+01 -5.93760E+01 -6.07491E+01 -4.45994E+01 -3.51829E+01 -4.98236E+01 -5.05780E+01 -4.14436E+01 -3.82198E+01
  -3.09109E+01 -2.84814E+01 -4.12232E+01 -3.25585E+01 -3.15996E+01 -5.47556E+01 -6.39797E+01 -6.49966E+01 -8.02022E+01 -9.46148E+01
  -7.82981E+01 -6.85051E+01 -7.51507E+01 -6.37428E+01 -3.72840E+01 -2.15046E+01 -5.70935E+00  6.36045E+00 -5.34711E+00 -1.68191E+01
  -2.40194E+01 -3.21704E+01 -5.17151E+01 -6.09414E+01 -4.97378E+01 -4.25588E+01 -3.39011E+01 -4.19712E+01 -4.49034E+01 -2.73179E+01
  -3.99042E+01 -5.00093E+01 -4.13811E+01 -5.64883E+01 -6.80707E+01 -7.77978E+01 -9.59996E+01 -9.96066E+01 -9.17854E+01 -9.14900E+01
  -9.47402E+01 -7.82271E+01 -6.68671E+01 -7.10929E+01 -6.53939E+01 -5.04524E+01 -5.08367E+01 -6.11150E+01 -6.30462E+01 -7.30458E+01
  -8.94204E+01 -9.71375E+01 -9.66245E+01 -9.67158E+01 -9.83874E+01 -9.23380E+01 -8.27541E+01 -4.11619E+01  6.26762E+01  1.40396E+02
   1.26394E+02  8.42132E+01  8.29906E+01  7.97122E+01  5.31064E+01  6.09549E+01  4.74402E+01  3.37632E+01  4.46214E+01  3.40398E+01
   3.13396E+01  2.87603E+01  3.33915E+01  3.56764E+01  4.21943E+01  4.65043E+01  4.19005E+01  4.85409E+01  3.75525E+01  3.69912E+01
   4.39315E+01  3.62315E+01  3.83411E+01  5.02439E+01  4.89819E+01  3.82301E+01  3.12977E+01  3.58901E+01  4.41764E+01  3.78116E+01
   3.69689E+01  3.30602E+01  2.64420E+01  1.93904E+01  3.21572E+00  7.01960E+00  2.22206E+01  1.98329E+01  1.47364E+01  1.93674E+01
   3.24603E+01  4.00412E+01  3.18941E+01  4.46594E+01  5.70112E+01  5.92444E+01  5.93960E+01  4.27336E+01  3.75919E+01  3.39096E+01
   2.39356E+01  1.02341E+01  2.31200E+00  9.91841E-01 -1.26375E+01 -2.75962E+01 -2.98805E+01 -2.68200E+01 -3.19623E+01 -4.11150E+01
  -4.34260E+01 -2.37332E+01 -1.35235E+01 -4.90284E+00  2.60072E+01  2.89702E+01  3.73379E+01  6.00810E+01  4.82679E+01  3.38231E+01
   1.32372E+01  5.60512E+00  1.19187E+01 -1.11331E+01 -1.47959E+01 -3.02378E+01 -4.91582E+01 -3.15304E+01 -2.61844E+01 -2.31364E+01
  -2.33579E+01 -2.80764E+01 -2.91822E+01 -1.98568E+01 -1.38685E+01 -1.26183E+01 -9.37353E+00 -1.50209E+01 -1.43560E+01 -1.92485E+01
  -2.28123E+01 -2.05423E+01 -1.87492E+01 -2.90375E+01 -3.60784E+01 -4.29768E+01 -5.21724E+01 -3.50227E+01 -3.86735E+01 -4.44983E+01
  -4.67313E+01 -4.83436E+01 -3.12237E+01 -3.16782E+01 -3.12291E+01 -2.68918E+01 -2.37697E+01 -2.36312E+01 -2.14444E+01 -8.72071E+00
  -4.65233E+00  1.78318E+00  8.54538E+00  1.53741E+01  1.80053E+01  7.75021E+00  1.24006E+01  1.47449E+01  1.87301E+01  2.76940E+01
   2.01465E+01  2.71583E+01  3.75146E+01  4.71311E+01  4.61474E+01  5.87526E+01  9.59150E+01  8.66202E+01  7.70642E+01  7.73250E+01
   6.27635E+01  6.23824E+01  5.34609E+01  4.02851E+01  3.30008E+01  2.93065E+01  3.28807E+01  1.22143E+01  1.57419E+00  1.98228E+01
  -2.00600E+00 -2.05395E+01 -1.20958E+01 -2.27872E+01 -3.88651E+01 -3.43387E+01 -3.33547E+01 -5.56944E+01 -5.17245E+01 -4.30913E+01
  -3.97626E+01 -4.01526E+01 -4.89267E+01 -4.38885E+01 -5.10221E+01 -4.47605E+01 -3.29263E+01 -3.05967E+01 -3.70249E+01 -3.96446E+01
  -2.86972E+01 -3.72288E+01 -2.86125E+01 -3.43732E+01 -5.28612E+01 -3.82110E+01 -3.75660E+01 -4.60694E+01 -4.33428E+01 -3.32370E+01
  -3.56538E+01 -5.22480E+01 -4.11957E+01 -2.47077E+01 -3.53171E+01 -2.88384E+01 -3.65679E+01 -4.60404E+01 -3.26555E+01 -5.03125E+01
  -4.21377E+01 -4.01949E+01 -4.25300E+01 -4.14572E+01 -4.76582E+01 -2.16993E+01 -4.22138E+01 -4.93778E+01 -3.92665E+01 -3.61461E+01
  -3.38218E+01 -4.22636E+01 -3.19853E+01 -4.15241E+01 -3.95836E+01 -4.42837E+01 -3.38329E+01 -2.96347E+01 -3.29890E+01 -2.58383E+01
  -4.24039E+01 -2.36998E+01 -3.30774E+01 -3.70601E+01 -2.58623E+01 -3.61323E+01 -3.74481E+01 -3.75409E+01 -3.05042E+01 -2.54402E+01
  -2.42897E+01 -3.56794E+01 -2.17761E+01 -2.09546E+01 -2.83097E+01 -3.27274E+01 -3.55299E+01 -2.97513E+01 -3.51399E+01 -2.09140E+01
 NY points of the fit to the data follow
  -7.64013E+01 -7.92667E+01 -8.26635E+01 -8.46915E+01 -8.28938E+01 -7.64230E+01 -6.61375E+01 -6.12187E+01 -6.69392E+01 -7.62785E+01
  -8.21541E+01 -8.46238E+01 -8.66533E+01 -8.77733E+01 -9.01473E+01 -9.52513E+01 -9.97335E+01 -1.06126E+02 -1.17326E+02 -1.22655E+02
  -1.25249E+02 -1.17545E+02 -8.46833E+01 -6.07528E+01 -4.67122E+01 -3.56705E+01 -2.99345E+01 -2.79579E+01 -2.43342E+01 -2.11029E+01
  -2.13577E+01 -2.38417E+01 -2.63019E+01 -2.93130E+01 -3.39653E+01 -4.16224E+01 -4.96982E+01 -5.90419E+01 -7.52877E+01 -9.05791E+01
  -1.03136E+02 -1.07932E+02 -9.09477E+01 -7.36648E+01 -5.75266E+01 -4.55541E+01 -3.11119E+01 -2.24427E+01 -1.99476E+01 -1.98633E+01
  -2.20560E+01 -2.63515E+01 -3.24379E+01 -4.04082E+01 -4.94346E+01 -5.20309E+01 -5.21771E+01 -5.42673E+01 -5.34072E+01 -5.87357E+01
  -6.00792E+01 -4.53581E+01 -3.66641E+01 -3.29374E+01 -2.35260E+01 -1.70771E+01 -1.91136E+01 -2.98394E+01 -4.22869E+01 -5.52560E+01
  -6.43743E+01 -5.62470E+01 -4.35323E+01 -3.80904E+01 -2.97733E+01 -1.75699E+01 -1.04712E+01 -9.34405E+00 -1.04617E+01 -1.24543E+01
  -1.66019E+01 -2.67356E+01 -3.73511E+01 -4.59366E+01 -5.36613E+01 -4.90267E+01 -4.28418E+01 -3.16332E+01 -2.22814E+01 -1.52520E+01
  -1.09137E+01 -6.37223E+00 -1.92380E+00  2.19875E+00  5.54490E+00  9.08580E+00  1.22878E+01  1.28897E+01  1.30989E+01  1.30010E+01
   8.04630E+00  5.82615E+00  9.78227E-01 -1.50919E+01 -2.87526E+01 -3.94323E+01 -5.02009E+01 -5.81497E+01 -7.94406E+01 -1.07194E+02
  -1.51436E+02 -1.63757E+02 -1.35166E+02 -1.05931E+02 -9.31553E+01 -8.62326E+01 -7.72949E+01 -6.94183E+01 -6.20693E+01 -5.51978E+01
  -4.84530E+01 -4.14213E+01 -3.34945E+01 -2.46315E+01 -1.44677E+01 -1.77889E+00  1.41147E+01  2.45798E+01  3.56177E+01  5.45480E+01
   5.09709E+01  3.06800E+01 -1.41263E+01 -1.00215E+02 -1.33623E+02 -1.19287E+02 -1.02809E+02 -1.04367E+02 -1.03762E+02 -1.02302E+02
  -1.02537E+02 -1.02368E+02 -1.02933E+02 -1.03732E+02 -1.02996E+02 -1.02389E+02 -1.00484E+02 -9.77800E+01 -9.47976E+01 -9.20987E+01
  -8.98264E+01 -8.73068E+01 -8.48713E+01 -8.23765E+01 -7.95967E+01 -7.67055E+01 -7.43771E+01 -7.36559E+01 -7.35741E+01 -7.21090E+01
  -6.94603E+01 -6.72265E+01 -6.69256E+01 -6.95206E+01 -7.19421E+01 -7.11011E+01 -6.82120E+01 -6.55260E+01 -6.44685E+01 -6.19103E+01
  -5.40139E+01 -4.30455E+01 -3.38715E+01 -3.22778E+01 -3.99055E+01 -4.43843E+01 -3.89726E+01 -3.40372E+01 -3.76739E+01 -5.09609E+01
  -6.56414E+01 -7.13926E+01 -7.37275E+01 -7.60381E+01 -7.80119E+01 -7.84394E+01 -7.76976E+01 -7.69908E+01 -7.56261E+01 -7.18564E+01
  -6.93458E+01 -6.63061E+01 -6.03367E+01 -5.67508E+01 -5.09654E+01 -4.34304E+01 -4.49322E+01 -4.58983E+01 -4.11693E+01 -3.84754E+01
  -3.75315E+01 -3.89452E+01 -3.77566E+01 -3.44830E+01 -3.72112E+01 -4.54695E+01 -5.46621E+01 -6.15686E+01 -6.91586E+01 -7.58280E+01
  -7.87631E+01 -7.62366E+01 -7.31385E+01 -6.01798E+01 -4.02969E+01 -2.50505E+01 -2.87077E+00  5.03213E+00  2.61775E-01 -2.89491E+00
  -1.37029E+01 -2.15082E+01 -2.33175E+01 -2.19579E+01 -2.10647E+01 -2.28014E+01 -2.76478E+01 -3.42375E+01 -4.33219E+01 -5.39448E+01
  -6.47989E+01 -7.47748E+01 -8.50980E+01 -9.40457E+01 -9.97551E+01 -1.06518E+02 -1.09013E+02 -1.07197E+02 -1.06464E+02 -9.99607E+01
  -9.17462E+01 -8.66551E+01 -7.68682E+01 -7.00156E+01 -6.52536E+01 -6.10288E+01 -6.39890E+01 -6.75714E+01 -7.29095E+01 -8.01558E+01
  -8.86615E+01 -1.00377E+02 -1.02872E+02 -9.98812E+01 -1.07092E+02 -9.85108E+01 -8.86058E+01 -5.33331E+01  5.04754E+01  1.12830E+02
   1.03044E+02  7.55543E+01  6.75486E+01  6.36685E+01  5.77197E+01  5.23979E+01  4.71762E+01  4.18566E+01  3.75360E+01  3.42202E+01
   3.19361E+01  3.19917E+01  3.18670E+01  3.31686E+01  3.42446E+01  3.47777E+01  3.53372E+01  3.48905E+01  3.43724E+01  3.33047E+01
   3.19274E+01  3.00726E+01  2.82004E+01  2.63032E+01  2.45723E+01  2.25526E+01  2.03043E+01  1.81762E+01  1.56906E+01  1.29675E+01
   9.96941E+00  6.74416E+00  3.78260E+00  1.17870E+00 -9.74010E-01 -1.99975E+00 -1.68225E+00 -3.91807E-01  1.36807E+00  3.35565E+00
   5.36434E+00  7.43359E+00  9.74823E+00  1.19447E+01  1.39691E+01  1.57808E+01  1.76066E+01  1.94368E+01  2.13919E+01  2.35545E+01
   2.53779E+01  2.67486E+01  2.80356E+01  2.90517E+01  2.99187E+01  3.05222E+01  3.04173E+01  2.96830E+01  2.86747E+01  2.69722E+01
   2.47859E+01  2.25010E+01  1.97692E+01  1.61737E+01  1.24083E+01  7.99880E+00  2.65893E+00 -3.86403E+00 -1.10886E+01 -1.79545E+01
  -2.35296E+01 -2.75137E+01 -2.98474E+01 -3.01177E+01 -2.80080E+01 -2.40402E+01 -1.94383E+01 -1.45892E+01 -1.01117E+01 -8.85077E+00
  -9.82751E+00 -1.44555E+01 -2.47794E+01 -3.01203E+01 -3.17206E+01 -3.04409E+01 -2.42522E+01 -1.90038E+01 -1.69349E+01 -1.67147E+01
  -1.66326E+01 -1.78365E+01 -1.99762E+01 -2.26919E+01 -2.55374E+01 -2.79803E+01 -2.93131E+01 -2.91633E+01 -2.82424E+01 -2.64531E+01
  -2.40204E+01 -2.12251E+01 -1.81144E+01 -1.50033E+01 -1.19562E+01 -9.07956E+00 -6.36961E+00 -3.72690E+00 -1.12508E+00  1.45546E+00
   4.22426E+00  7.02223E+00  9.77386E+00  1.28958E+01  1.63628E+01  2.00777E+01  2.44341E+01  2.92991E+01  3.42910E+01  3.98703E+01
   4.59598E+01  5.19077E+01  5.78702E+01  6.38713E+01  6.89797E+01  7.21282E+01  7.30206E+01  7.08978E+01  6.55531E+01  5.76300E+01
   4.87093E+01  4.01488E+01  3.29805E+01  2.68971E+01  2.11555E+01  1.54847E+01  9.37181E+00  2.41192E+00 -5.27451E+00 -1.22688E+01
  -1.86257E+01 -2.40070E+01 -2.78773E+01 -3.07248E+01 -3.29113E+01 -3.45625E+01 -3.55404E+01 -3.62248E+01 -3.69848E+01 -3.76888E+01
  -3.82657E+01 -3.85657E+01 -3.86484E+01 -3.85942E+01 -3.84992E+01 -3.84534E+01 -3.82824E+01 -3.81876E+01 -3.80944E+01 -3.81935E+01
  -3.78999E+01 -3.73495E+01 -3.72543E+01 -3.72901E+01 -3.71267E+01 -3.68055E+01 -3.66590E+01 -3.65333E+01 -3.63379E+01 -3.59078E+01
  -3.54691E+01 -3.54180E+01 -3.54420E+01 -3.54020E+01 -3.52241E+01 -3.50190E+01 -3.46108E+01 -3.42304E+01 -3.39620E+01 -3.36010E+01
  -3.33680E+01 -3.31347E+01 -3.29872E+01 -3.28306E+01 -3.28525E+01 -3.28540E+01 -3.27295E+01 -3.23715E+01 -3.19635E+01 -3.17905E+01
  -3.16426E+01 -3.14191E+01 -3.13440E+01 -3.10977E+01 -3.06026E+01 -3.02551E+01 -3.00351E+01 -2.97437E+01 -2.95333E+01 -2.92930E+01
  -2.90766E+01 -2.89005E+01 -2.88543E+01 -2.87130E+01 -2.86111E+01 -2.82659E+01 -2.78592E+01 -2.73855E+01 -2.68446E+01 -2.64758E+01
  -2.63806E+01 -2.65048E+01 -2.64166E+01 -2.62583E+01 -2.59297E+01 -2.55266E+01 -2.53057E+01 -2.50887E+01 -2.46455E+01 -2.43383E+01
 NY background values follow
    -4.903E+01   -4.896E+01   -4.888E+01   -4.881E+01   -4.873E+01   -4.866E+01   -4.858E+01   -4.850E+01   -4.843E+01   -4.835E+01
    -4.828E+01   -4.820E+01   -4.812E+01   -4.805E+01   -4.797E+01   -4.790E+01   -4.782E+01   -4.775E+01   -4.767E+01   -4.759E+01
    -4.752E+01   -4.744E+01   -4.737E+01   -4.729E+01   -4.722E+01   -4.714E+01   -4.706E+01   -4.699E+01   -4.691E+01   -4.684E+01
    -4.676E+01   -4.669E+01   -4.661E+01   -4.653E+01   -4.646E+01   -4.638E+01   -4.631E+01   -4.623E+01   -4.616E+01   -4.608E+01
    -4.600E+01   -4.593E+01   -4.585E+01   -4.578E+01   -4.570E+01   -4.563E+01   -4.555E+01   -4.548E+01   -4.540E+01   -4.533E+01
    -4.525E+01   -4.518E+01   -4.510E+01   -4.502E+01   -4.495E+01   -4.487E+01   -4.480E+01   -4.472E+01   -4.465E+01   -4.457E+01
    -4.450E+01   -4.442E+01   -4.435E+01   -4.427E+01   -4.420E+01   -4.413E+01   -4.405E+01   -4.398E+01   -4.390E+01   -4.383E+01
    -4.375E+01   -4.368E+01   -4.360E+01   -4.353E+01   -4.346E+01   -4.338E+01   -4.331E+01   -4.323E+01   -4.316E+01   -4.309E+01
    -4.301E+01   -4.294E+01   -4.286E+01   -4.279E+01   -4.272E+01   -4.264E+01   -4.257E+01   -4.250E+01   -4.242E+01   -4.235E+01
    -4.228E+01   -4.221E+01   -4.213E+01   -4.206E+01   -4.199E+01   -4.191E+01   -4.184E+01   -4.177E+01   -4.170E+01   -4.162E+01
    -4.155E+01   -4.148E+01   -4.141E+01   -4.134E+01   -4.126E+01   -4.119E+01   -4.112E+01   -4.105E+01   -4.098E+01   -4.091E+01
    -4.084E+01   -4.076E+01   -4.069E+01   -4.062E+01   -4.055E+01   -4.048E+01   -4.041E+01   -4.034E+01   -4.027E+01   -4.020E+01
    -4.013E+01   -4.006E+01   -3.999E+01   -3.992E+01   -3.985E+01   -3.978E+01   -3.971E+01   -3.964E+01   -3.957E+01   -3.950E+01
    -3.943E+01   -3.937E+01   -3.930E+01   -3.923E+01   -3.916E+01   -3.909E+01   -3.902E+01   -3.895E+01   -3.889E+01   -3.882E+01
    -3.875E+01   -3.868E+01   -3.862E+01   -3.855E+01   -3.848E+01   -3.841E+01   -3.835E+01   -3.828E+01   -3.821E+01   -3.815E+01
    -3.808E+01   -3.802E+01   -3.795E+01   -3.788E+01   -3.782E+01   -3.775E+01   -3.769E+01   -3.762E+01   -3.756E+01   -3.749E+01
    -3.743E+01   -3.736E+01   -3.730E+01   -3.723E+01   -3.717E+01   -3.710E+01   -3.704E+01   -3.698E+01   -3.691E+01   -3.685E+01
    -3.679E+01   -3.672E+01   -3.666E+01   -3.660E+01   -3.654E+01   -3.647E+01   -3.641E+01   -3.635E+01   -3.629E+01   -3.622E+01
    -3.616E+01   -3.610E+01   -3.604E+01   -3.598E+01   -3.592E+01   -3.586E+01   -3.580E+01   -3.574E+01   -3.568E+01   -3.562E+01
    -3.556E+01   -3.550E+01   -3.544E+01   -3.538E+01   -3.532E+01   -3.526E+01   -3.520E+01   -3.514E+01   -3.508E+01   -3.503E+01
    -3.497E+01   -3.491E+01   -3.485E+01   -3.480E+01   -3.474E+01   -3.468E+01   -3.462E+01   -3.457E+01   -3.451E+01   -3.445E+01
    -3.440E+01   -3.434E+01   -3.429E+01   -3.423E+01   -3.418E+01   -3.412E+01   -3.407E+01   -3.401E+01   -3.396E+01   -3.390E+01
    -3.385E+01   -3.379E+01   -3.374E+01   -3.369E+01   -3.363E+01   -3.358E+01   -3.353E+01   -3.347E+01   -3.342E+01   -3.337E+01
    -3.332E+01   -3.327E+01   -3.321E+01   -3.316E+01   -3.311E+01   -3.306E+01   -3.301E+01   -3.296E+01   -3.291E+01   -3.286E+01
    -3.281E+01   -3.276E+01   -3.271E+01   -3.266E+01   -3.261E+01   -3.256E+01   -3.252E+01   -3.247E+01   -3.242E+01   -3.237E+01
    -3.232E+01   -3.228E+01   -3.223E+01   -3.218E+01   -3.214E+01   -3.209E+01   -3.204E+01   -3.200E+01   -3.195E+01   -3.191E+01
    -3.186E+01   -3.182E+01   -3.177E+01   -3.173E+01   -3.168E+01   -3.164E+01   -3.160E+01   -3.155E+01   -3.151E+01   -3.147E+01
    -3.142E+01   -3.138E+01   -3.134E+01   -3.130E+01   -3.125E+01   -3.121E+01   -3.117E+01   -3.113E+01   -3.109E+01   -3.105E+01
    -3.101E+01   -3.097E+01   -3.093E+01   -3.089E+01   -3.085E+01   -3.081E+01   -3.077E+01   -3.073E+01   -3.069E+01   -3.065E+01
    -3.061E+01   -3.058E+01   -3.054E+01   -3.050E+01   -3.046E+01   -3.043E+01   -3.039E+01   -3.035E+01   -3.031E+01   -3.028E+01
    -3.024E+01   -3.021E+01   -3.017E+01   -3.013E+01   -3.010E+01   -3.006E+01   -3.003E+01   -2.999E+01   -2.996E+01   -2.992E+01
    -2.989E+01   -2.986E+01   -2.982E+01   -2.979E+01   -2.975E+01   -2.972E+01   -2.969E+01   -2.965E+01   -2.962E+01   -2.959E+01
    -2.956E+01   -2.952E+01   -2.949E+01   -2.946E+01   -2.943E+01   -2.940E+01   -2.936E+01   -2.933E+01   -2.930E+01   -2.927E+01
    -2.924E+01   -2.921E+01   -2.918E+01   -2.915E+01   -2.912E+01   -2.909E+01   -2.905E+01   -2.902E+01   -2.899E+01   -2.896E+01
    -2.893E+01   -2.891E+01   -2.888E+01   -2.885E+01   -2.882E+01   -2.879E+01   -2.876E+01   -2.873E+01   -2.870E+01   -2.867E+01
    -2.864E+01   -2.861E+01   -2.859E+01   -2.856E+01   -2.853E+01   -2.850E+01   -2.847E+01   -2.845E+01   -2.842E+01   -2.839E+01
    -2.836E+01   -2.833E+01   -2.831E+01   -2.828E+01   -2.825E+01   -2.822E+01   -2.820E+01   -2.817E+01   -2.814E+01   -2.812E+01
    -2.809E+01   -2.806E+01   -2.804E+01   -2.801E+01   -2.798E+01   -2.796E+01   -2.793E+01   -2.790E+01   -2.788E+01   -2.785E+01
    -2.782E+01   -2.780E+01   -2.777E+01   -2.775E+01   -2.772E+01   -2.769E+01   -2.767E+01   -2.764E+01   -2.762E+01   -2.759E+01
    -2.757E+01   -2.754E+01   -2.751E+01   -2.749E+01   -2.746E+01   -2.744E+01   -2.741E+01   -2.739E+01   -2.736E+01   -2.734E+01
    -2.731E+01   -2.729E+01   -2.726E+01   -2.724E+01   -2.721E+01   -2.719E+01   -2.716E+01   -2.714E+01   -2.711E+01   -2.709E+01
    -2.707E+01   -2.704E+01   -2.702E+01   -2.699E+01   -2.697E+01   -2.694E+01   -2.692E+01   -2.689E+01   -2.687E+01   -2.685E+01
    -2.682E+01   -2.680E+01   -2.677E+01   -2.675E+01   -2.673E+01   -2.670E+01   -2.668E+01   -2.665E+01   -2.663E+01   -2.661E+01
    -2.658E+01   -2.656E+01   -2.653E+01   -2.651E+01   -2.649E+01   -2.646E+01   -2.644E+01   -2.642E+01   -2.639E+01   -2.637E+01
    -2.634E+01   -2.632E+01   -2.630E+01   -2.627E+01   -2.625E+01   -2.623E+01   -2.620E+01   -2.618E+01   -2.615E+01   -2.613E+01
    -2.611E+01   -2.608E+01   -2.606E+01   -2.604E+01   -2.601E+01   -2.599E+01   -2.597E+01   -2.594E+01   -2.592E+01   -2.590E+01
    -2.587E+01   -2.585E+01   -2.582E+01   -2.580E+01   -2.578E+01   -2.575E+01   -2.573E+01   -2.571E+01   -2.568E+01   -2.566E+01
    -2.564E+01   -2.561E+01   -2.559E+01   -2.557E+01   -2.554E+01   -2.552E+01   -2.549E+01   -2.547E+01   -2.545E+01   -2.542E+01
 Mac      Conc. = 2.39E-04
  -6.61914E+01 -6.66335E+01 -6.68074E+01 -6.70423E+01 -6.74612E+01 -6.82548E+01 -6.93999E+01 -7.07315E+01 -7.19731E+01 -7.28814E+01
  -7.34846E+01 -7.37651E+01 -7.38224E+01 -7.40634E+01 -7.44107E+01 -7.53076E+01 -7.55989E+01 -7.46508E+01 -7.19627E+01 -6.76256E+01
  -6.40517E+01 -6.17010E+01 -5.93834E+01 -5.74038E+01 -5.63414E+01 -5.55134E+01 -5.42254E+01 -5.25244E+01 -5.09375E+01 -4.93560E+01
  -4.81278E+01 -4.72160E+01 -4.66102E+01 -4.61717E+01 -4.59424E+01 -4.59493E+01 -4.55059E+01 -4.42420E+01 -4.23512E+01 -4.06601E+01
  -3.98502E+01 -3.99669E+01 -4.00002E+01 -3.92142E+01 -3.81367E+01 -3.72004E+01 -3.69026E+01 -3.72776E+01 -3.80479E+01 -3.90054E+01
  -3.98989E+01 -4.09257E+01 -4.15040E+01 -4.17224E+01 -4.19098E+01 -4.18780E+01 -4.14204E+01 -4.06122E+01 -3.94067E+01 -3.80397E+01
  -3.72575E+01 -3.65109E+01 -3.57810E+01 -3.59058E+01 -3.66016E+01 -3.72471E+01 -3.77502E+01 -3.78803E+01 -3.78617E+01 -3.74364E+01
  -3.67060E+01 -3.50324E+01 -3.28978E+01 -3.12918E+01 -3.06742E+01 -3.05001E+01 -3.05928E+01 -3.10330E+01 -3.15846E+01 -3.20454E+01
  -3.23516E+01 -3.24687E+01 -3.24268E+01 -3.22283E+01 -3.15367E+01 -3.06778E+01 -3.00018E+01 -2.92710E+01 -2.87713E+01 -2.82057E+01
  -2.79918E+01 -2.77437E+01 -2.76605E+01 -2.79312E+01 -2.86768E+01 -2.97026E+01 -3.15000E+01 -3.35173E+01 -3.54771E+01 -3.73195E+01
  -3.90755E+01 -4.07488E+01 -4.30207E+01 -4.61245E+01 -4.96637E+01 -5.38904E+01 -5.86468E+01 -6.30953E+01 -6.62710E+01 -6.70421E+01
