 
 $NMID
 ID=''
 FMTDAT='(2E13.5)'
 TRAMP=   1.00000E+0
 VOLUME=   1.00000E+0
 $END
   1.48530E+3   1.63579E+4
   1.72460E+4   2.48510E+4
   3.20541E+4  -8.27128E+3
  -3.73111E+3  -2.57778E+4
  -3.12422E+4   1.76834E+3
  -4.15323E+3   2.37111E+4
   2.44900E+4   7.81919E+3
   1.17408E+4  -1.48953E+4
  -1.28051E+4  -1.16500E+4
  -1.48689E+4   8.54931E+3
   1.67583E+3   1.40055E+4
   1.21034E+4  -1.70534E+3
   2.07354E+3  -1.13359E+4
  -9.54422E+3  -3.24072E+3
  -4.97568E+3   4.19777E+3
   5.61066E+3   2.40323E+3
   5.86843E+3  -4.19809E+2
  -7.96835E+2  -2.22762E+3
  -3.84800E+3  -1.28518E+3
  -1.06447E+3   1.71012E+3
   1.38561E+3   1.25041E+3
   1.05714E+3  -6.26234E+2
  -2.60347E+2   1.36348E+2
  -1.21658E+3   1.10445E+2
  -6.58875E+2  -1.05026E+3
   1.12805E+3   8.25104E+2
   3.07581E+2   1.81113E+3
  -1.56126E+3  -5.41914E+2
  -3.43800E+2  -9.88018E+2
   2.63569E+2   1.10587E+3
  -1.03184E+3   1.06514E+3
  -5.64820E+2  -8.93175E+2
   3.47875E+2  -7.59733E+2
  -7.42120E+2  -6.51807E+2
  -1.44275E+2  -1.37891E+3
   2.53182E+3  -3.24200E+2
   1.23676E+3   2.11280E+3
  -1.72361E+3   8.68033E+2
  -7.51125E+2  -1.33287E+3
   1.03796E+3  -3.12811E+2
  -7.35165E+2   5.07314E+2
  -1.17396E+3  -1.52783E+3
   1.48970E+3  -1.32946E+3
   1.89528E+3   1.05823E+3
  -1.90203E+2   1.63862E+3
  -1.01390E+3   2.59319E+2
   2.73062E+1   6.03772E+2
  -6.41078E+2   3.42180E+1
  -8.02565E+2  -1.51731E+3
  -1.26593E+2  -1.67101E+3
   1.14673E+3  -8.82568E+1
   1.04193E+3   3.40227E+2
   5.40004E+2  -1.47244E+2
  -2.71616E+1  -2.67432E+2
  -7.89266E+1   1.03080E+3
  -2.65074E+2   6.42922E+2
  -4.43726E+2  -1.04375E+3
   3.65803E+2  -1.62236E+3
   1.20836E+3  -2.00336E+1
   3.52942E+2   1.27270E+3
  -1.11316E+2   4.23315E+2
   3.50146E+2   1.27412E+2
  -4.48003E+2   8.61599E+2
  -2.17731E+3   1.87693E+2
  -1.48365E+3  -1.37720E+3
   8.64414E+2  -1.45704E+3
   1.04237E+3  -6.75194E+2
   5.01450E+2  -3.36113E+2
   5.05827E+2   4.42041E+2
   6.36936E+2   9.75418E+2
  -8.37891E+1   4.71687E+2
   4.66566E+1  -8.40444E+2
   5.86710E+2   1.92209E+2
  -3.68012E+1   1.30451E+3
  -6.11171E+2   3.77267E+2
   5.49461E+1  -8.89319E+2
   1.45854E+2  -1.01503E+2
  -4.08195E+2   1.05531E+3
  -5.90079E+2   3.73387E+2
  -1.29429E+2  -6.78851E+2
   3.04397E+2  -4.95509E+2
   1.86522E+2  -1.77035E+2
   1.72839E+1  -3.48979E+2
   1.94533E+2  -2.19904E+2
   6.45888E+2  -1.07478E+2
   4.96685E+2   1.62091E+2
   4.08039E+2   3.85277E+2
   5.21926E+1   3.15112E+2
   1.66441E+2   2.07578E+2
   2.97224E+2   4.57269E+2
   3.57524E+2   4.52694E+2
  -1.23279E+1   5.23471E+2
  -4.71688E+2   3.13306E+2
  -7.21686E+2  -3.37481E+2
   3.93783E+2  -8.41353E+2
   8.92660E+2  -4.45523E-1
  -7.99146E+0   5.12929E+2
  -2.92210E+2  -6.55265E+1
   2.68034E+2  -3.60213E+2
   7.77889E+2   2.99636E+2
  -1.28325E+2   9.33786E+2
  -8.80727E+2   1.08217E+2
  -1.74704E+2  -5.30744E+2
   5.17544E+2  -2.12500E+2
   3.51714E+2   7.09567E+1
   2.27210E+1   2.15419E+2
  -1.96547E+2   1.53808E+2
  -4.03493E+2  -1.31508E+1
   2.02013E+2  -8.06881E+2
   9.08383E+2  -4.04726E+2
   3.67369E+2   6.54557E+2
  -2.53191E+2   7.15599E+2
  -3.30578E+2   1.15930E+2
  -1.64663E+2   1.35166E+2
  -1.22821E+2   2.82808E+2
  -7.35372E+2   4.80147E+1
  -5.74491E+2  -7.46044E+2
   9.09781E+1  -9.21180E+2
   6.05374E+2  -4.45616E+2
   8.07327E+2   2.72806E+1
   4.21521E+2   6.41928E+2
   5.89143E+1   3.79264E+2
  -1.52644E+1   4.99027E+2
  -3.69373E+2   5.47403E+1
  -3.36094E+2  -2.87740E+2
  -1.28357E+2  -3.80587E+2
   2.60506E+2  -4.17567E+1
   3.01499E+2   9.26989E+1
   1.52092E+2   2.04892E+2
  -1.78561E+2   2.63129E+2
  -5.26509E+2   2.07436E+1
   3.76371E+1  -2.61055E+2
   2.84435E+2  -1.75277E+2
   8.45796E+1  -1.85081E+1
   1.81615E+2  -5.61200E+1
   2.05485E+2  -3.31115E+2
   5.08186E+1   1.31191E+2
   6.67211E+1   5.15047E+2
  -4.08110E+2   5.01727E+2
  -4.92799E+2  -1.44857E+2
  -3.32723E+2  -3.46477E+2
   2.89898E+2  -2.59851E+2
   3.89539E+2   2.40602E+2
   7.25532E+1   3.37860E+2
  -3.91985E+2   8.71041E+1
  -3.39147E+2  -5.12241E+1
  -1.00974E+2  -2.27612E+2
  -9.49107E+1   8.90994E+0
  -1.42253E+2  -4.52552E+2
  -1.63378E+2  -3.29614E+2
   2.17224E+2  -4.69779E+1
   4.93299E+2   2.65530E+2
   1.39279E+2   5.31824E+2
  -8.89054E+1   3.89759E+1
  -2.89985E+2   2.60665E+1
   6.38641E+1  -1.21328E+2
   2.23139E+1   2.21215E+2
  -2.34552E+2   1.18888E+2
  -2.19675E+2  -1.47384E+2
   4.30779E+1  -2.82138E+2
  -6.80919E+1   1.83905E+2
  -2.31931E+2   1.01253E+2
  -2.66704E+2  -2.48954E+2
   1.14472E+2  -4.45810E+2
   3.60380E+2  -2.00402E+2
   1.84072E+2   1.50644E+2
  -1.63855E+2   1.89239E+1
  -3.15141E+2  -1.24129E+2
  -2.93909E+1  -3.81359E+2
  -1.77674E+1   3.56574E+1
  -1.23233E+2  -6.63054E+1
  -2.29609E+2  -1.42223E+2
  -8.73415E+1  -9.68531E+1
  -1.09256E+2  -1.79032E+1
   1.36744E+2  -4.37286E+1
  -1.75531E+2  -1.19646E+2
  -2.53747E+2  -2.78730E+2
  -2.56137E+2  -4.10468E+2
   4.79462E+1  -2.18698E+2
   2.79428E+2   3.30976E+1
  -1.16740E+2   9.01674E+1
  -6.40554E+1  -2.22101E+2
  -2.56244E+2  -7.15921E+1
  -1.95515E+2  -1.23388E+2
  -1.03179E+1  -4.82294E+2
  -2.77471E+1   3.40782E+0
   7.56777E+1  -2.29724E+1
   1.76187E+1  -2.47228E+2
   1.05200E+2   1.97123E+2
  -2.99956E+2   1.79809E+2
  -5.45872E+2   2.82489E+2
  -1.19123E+2  -5.26396E+2
  -3.19282E+1  -3.90045E+2
   2.35386E+2  -2.21685E+2
  -3.00318E+1  -6.91681E+1
   7.88122E+0   1.28312E+1
  -1.42728E+2   7.21453E+1
  -1.05861E+2  -4.11020E+0
  -1.78663E+2  -7.21155E+1
  -2.35692E+2  -1.31405E+2
  -1.51834E+2  -4.53133E+2
  -9.48404E+1  -2.68561E+2
   3.71575E+2   1.77055E+2
   2.66757E+1  -2.68711E+1
  -1.51976E+1  -5.32005E+0
  -1.63655E+2  -2.04617E+2
  -4.14575E+1  -2.88578E+2
  -1.26191E+2  -7.40165E+1
  -1.59218E+2  -3.11526E+2
  -1.68285E+1  -7.59075E+1
   1.54132E+1  -1.63240E+2
  -9.85945E+1   1.40276E+1
   9.12807E+1   3.29620E+2
  -4.36764E+2  -4.71477E+0
  -3.49678E+2  -3.53444E+2
  -4.21371E+1  -3.26451E+2
   9.63319E+1  -2.87776E+2
  -2.76710E+1  -1.76133E+2
   1.55357E+0   1.13393E+2
  -2.06905E+2  -1.95833E+2
   2.17910E+2  -2.78252E+1
  -8.92484E+1   2.14566E+2
  -7.28212E+1   1.73906E+1
  -3.03815E+2  -2.28302E+0
   2.46865E+1  -1.97196E+2
   1.54566E+2  -1.11188E+2
  -1.35991E+2   1.00936E+1
  -1.11055E+2   2.69425E+2
  -4.68541E+2   7.62454E+1
  -9.86273E+1  -8.84079E+1
  -2.16734E+1  -3.29280E+1
   7.73352E+1  -1.12116E+2
  -6.38657E+1   2.24408E+1
  -2.07452E+2  -1.71209E+2
  -1.27190E+2   8.45615E+1
  -3.87653E+0  -1.44777E+1
   4.10967E+1   1.11258E+2
  -4.17548E+1   5.64490E+1
   1.88381E+2   1.16950E+2
   2.27828E+1  -1.78574E+2
   6.40553E+1  -5.57620E+1
  -4.69557E+1  -6.80837E+1
  -3.14757E+2  -1.13430E+2
  -2.49866E+2  -1.78450E+2
  -1.35168E+2  -6.69692E+1
   1.58997E+2   1.63465E+2
  -2.00707E+2   9.08957E+1
  -8.47815E+1   2.12597E+1
  -2.14582E+2   2.35715E+2
  -1.55910E+1   1.35757E+2
  -4.44128E+1   1.84310E+2
  -3.21554E+2  -4.47172E+1
   1.15815E+2  -3.18783E+2
   1.56638E+1   6.63522E+1
   3.50225E+2   7.46927E+1
   1.02229E+2   6.75837E+0
  -1.97202E+2   4.81129E+1
   5.03832E+1  -1.36288E+2
  -1.80772E+2  -7.61624E+1
  -1.54880E+2  -2.58111E+2
  -5.80911E+1   2.09079E+2
  -2.74607E+2  -4.65939E+0
   7.05767E+1  -2.57261E+2
   1.70629E+2  -4.35070E+0
  -1.82923E+1   3.37889E+2
  -9.01469E+1   7.48755E+1
  -7.12778E+1   2.57749E+1
  -1.24989E+2  -2.69498E+2
   1.84494E+2   5.95831E+1
  -2.30626E+2  -2.04366E+2
   2.37025E+2  -8.35313E+1
   1.88173E+1  -1.38980E+1
  -7.38478E+0   2.09730E+2
  -5.52212E+1   2.04952E+2
   8.72100E+1  -1.26189E+2
  -8.56209E+1  -1.93605E+2
   1.52741E+2  -4.61064E+1
   1.55433E+2   5.58289E+1
   3.35216E+1   6.45604E+1
   1.54785E+2   1.39031E+2
   1.23913E+2  -2.14807E+1
  -3.86867E+1   2.16774E+1
  -1.61650E+2   2.46248E+2
  -8.82580E+1   1.52502E+2
  -1.30011E+1   8.63470E+1
  -1.96376E+1  -2.37474E+2
   4.38148E+1  -1.58264E+2
   2.66469E+2   8.79915E+1
  -4.54176E+1   4.28723E+1
  -1.07205E+2   1.55476E+2
   1.53716E+2  -4.06017E+1
   8.44542E+0   1.41890E+2
   1.14059E+1   7.38704E+1
   1.02381E+2   7.44671E+0
   2.07417E+2  -1.76733E+2
  -1.43851E+2   1.65716E+2
   7.11573E+1   1.88032E+2
  -2.03902E+2   2.16770E+2
  -2.89287E+2  -1.52971E+2
   2.13933E+1   4.15714E+1
   2.27307E+2  -3.58322E+1
   1.63849E+2   9.76270E+1
  -8.00937E+1  -1.23435E+1
  -1.22558E+2   1.39943E+1
   4.02381E+2   5.46784E+1
   9.04654E+1  -1.98830E+2
   4.74453E+1   1.78778E+2
   3.86272E+1   2.22991E+1
   7.69604E+1   6.08775E+1
  -2.54247E+2   2.01550E+1
  -1.96803E+1   3.67627E+1
  -1.30231E+2   5.57766E+1
   1.17163E+0   4.62319E+1
   4.47095E+1  -2.89981E+1
   1.34698E+2  -8.94689E+1
   6.36798E+1  -7.96793E+1
  -4.17121E+1   4.53644E+1
   2.50597E+2  -6.26667E+1
  -6.03662E+1  -3.60734E+2
   2.97700E+2  -1.71494E+2
  -6.16442E+1   1.46318E+2
  -1.00638E+2  -2.59994E+2
   1.33889E+1  -8.76491E+1
   5.08339E+1  -4.37090E+1
   4.30858E+1   4.29195E+1
  -1.28103E+2   9.27951E+1
   6.69640E+1  -1.09545E+2
  -6.74838E+1   3.15953E+1
   4.29203E+1  -1.00927E+2
   1.60642E+2  -1.60833E+2
   1.00316E+2   3.80878E+1
  -2.55638E+1   3.70318E+0
  -5.06983E+1  -5.20134E+1
   2.58278E+2   4.17201E-1
  -3.24701E+2   1.99033E+2
  -1.88749E+2  -8.98198E+1
   4.49626E+1  -1.55555E+1
   6.98730E+1   1.16055E+2
   1.39238E+2  -9.12264E+1
  -4.71642E+1  -8.72299E+1
   8.55249E+1   6.67813E+1
  -1.24326E+2   2.85182E+2
  -1.38493E+2   1.78977E+2
  -4.00029E+0  -1.01032E+1
  -1.36990E+2   1.17462E+2
  -4.16479E+1   8.32243E+1
   4.10207E+1  -4.21837E+1
   2.17336E+2   6.36651E+1
   1.08094E+0   8.36442E+1
  -5.75550E+1  -1.84448E+2
  -1.47058E+2  -7.23202E+1
   1.21020E+2   1.26916E+2
  -2.07481E+2  -1.40353E+2
   1.56327E+2   9.05861E+1
   2.89249E+1   5.08793E+1
   1.55223E+1   6.06526E+1
   1.94191E+2   3.92199E+1
  -3.52949E+1   1.24339E+2
  -1.22661E+2   2.31667E+2
  -7.76368E+1   1.83480E+2
  -1.13475E+2  -8.12662E+1
   1.27472E+1  -9.69862E+1
   1.90768E+2   1.19824E+2
  -3.19992E+1   1.09048E+2
  -9.70415E+1   2.47647E+2
  -1.55560E+2  -7.75329E+1
  -7.98268E+1   5.21347E+1
