 LCModel (Version 6.3-1N) Copyright: S.W. Provencher.          Ref.: Magn. Reson. Med. 30:672-679 (1993).                
 Slice_N1@11_9  28-Feb-2025 11:38:13
 27 lines in following concentration table = NCONC+1
    Conc.  %SD /Cr+PCr  Metabolite                                         
 3.09E-04   6% 3.9E-04 Mac                                                 
    6.405  19%   8.000 Cr                                                  
    0.000 999%   0.000 PCr                                                 
    0.000 999%   0.000 Ins                                                 
    9.647  18%  12.049 NAA                                                 
    9.755  20%  12.184 Tau                                                 
    0.000 999%   0.000 PCho                                                
    0.000 999%   0.000 GPC                                                 
   11.907  15%  14.873 Glu                                                 
    1.211 103%   1.513 Gln                                                 
    0.000 999%   0.000 Ala                                                 
    0.000 999%   0.000 Asc                                                 
    2.371  54%   2.961 Asp                                                 
 2.45E-02 999% 3.1E-02 GABA                                                
    0.277 291%   0.346 Glc                                                 
    0.749  84%   0.936 GSH                                                 
    6.239  22%   7.793 Lac                                                 
    4.514  34%   5.638 NAAG                                                
    4.804  34%   6.001 PE                                                  
    0.000 999%   0.000 GPC+PCho                                            
   14.160  11%  17.687 NAA+NAAG                                            
   13.118  16%  16.385 Glu+Gln                                             
    6.405  19%   8.000 Cr+PCr                                              
   14.160  11%  17.687 NAA+NAAG                                            
    6.405  19%   8.000 Cr+PCr                                              
   13.118  16%  16.385 Glu+Gln                                             
   6 lines in following misc. output table
  FWHM = 0.057 ppm    S/N =   2                                            
  Data shift = 0.041 ppm                                                   
  Ph: 139 deg       0.0 deg/ppm                                            
  alphaB,S = 1.4E-01,   5.1E+01                                            
   19 spline knots.   Ns = 9(1)                                            
  ( 9) 4 infls.   (11) 1 extrs.                                            
  480 points on ppm-axis = NY
      4.100000     4.091866     4.083733     4.075600     4.067466     4.059333     4.051199     4.043066     4.034933     4.026799
      4.018666     4.010532     4.002399     3.994265     3.986132     3.977998     3.969864     3.961731     3.953597     3.945463
      3.937330     3.929196     3.921062     3.912929     3.904795     3.896662     3.888528     3.880394     3.872261     3.864127
      3.855993     3.847860     3.839726     3.831592     3.823459     3.815325     3.807191     3.799058     3.790924     3.782790
      3.774657     3.766523     3.758389     3.750256     3.742122     3.733989     3.725855     3.717721     3.709588     3.701454
      3.693320     3.685187     3.677053     3.668919     3.660786     3.652652     3.644518     3.636385     3.628251     3.620117
      3.611984     3.603850     3.595716     3.587583     3.579449     3.571316     3.563182     3.555048     3.546915     3.538781
      3.530647     3.522514     3.514380     3.506246     3.498113     3.489979     3.481845     3.473712     3.465578     3.457444
      3.449311     3.441177     3.433043     3.424910     3.416776     3.408643     3.400509     3.392375     3.384242     3.376108
      3.367974     3.359841     3.351707     3.343573     3.335440     3.327306     3.319172     3.311039     3.302905     3.294771
      3.286638     3.278504     3.270370     3.262237     3.254103     3.245970     3.237836     3.229702     3.221569     3.213435
      3.205301     3.197168     3.189034     3.180900     3.172767     3.164633     3.156499     3.148366     3.140232     3.132098
      3.123965     3.115831     3.107697     3.099564     3.091430     3.083297     3.075163     3.067029     3.058896     3.050762
      3.042628     3.034495     3.026361     3.018227     3.010094     3.001960     2.993826     2.985693     2.977559     2.969425
      2.961292     2.953158     2.945024     2.936891     2.928757     2.920624     2.912490     2.904356     2.896223     2.888089
      2.879955     2.871822     2.863688     2.855554     2.847421     2.839287     2.831153     2.823020     2.814886     2.806752
      2.798619     2.790485     2.782351     2.774218     2.766084     2.757951     2.749817     2.741683     2.733550     2.725416
      2.717282     2.709149     2.701015     2.692881     2.684748     2.676614     2.668480     2.660347     2.652213     2.644079
      2.635946     2.627812     2.619678     2.611545     2.603411     2.595278     2.587144     2.579010     2.570877     2.562743
      2.554609     2.546476     2.538342     2.530208     2.522075     2.513941     2.505807     2.497674     2.489540     2.481406
      2.473273     2.465139     2.457006     2.448872     2.440738     2.432605     2.424471     2.416337     2.408204     2.400070
      2.391936     2.383803     2.375669     2.367535     2.359402     2.351268     2.343134     2.335001     2.326867     2.318733
      2.310600     2.302466     2.294333     2.286199     2.278065     2.269932     2.261798     2.253664     2.245531     2.237397
      2.229263     2.221130     2.212996     2.204862     2.196729     2.188595     2.180461     2.172328     2.164194     2.156060
      2.147927     2.139793     2.131660     2.123526     2.115392     2.107259     2.099125     2.090991     2.082858     2.074724
      2.066590     2.058457     2.050323     2.042189     2.034056     2.025922     2.017788     2.009655     2.001521     1.993387
      1.985254     1.977120     1.968987     1.960853     1.952719     1.944586     1.936452     1.928318     1.920185     1.912051
      1.903917     1.895784     1.887650     1.879516     1.871383     1.863249     1.855115     1.846982     1.838848     1.830714
      1.822581     1.814447     1.806314     1.798180     1.790046     1.781913     1.773779     1.765645     1.757512     1.749378
      1.741244     1.733111     1.724977     1.716843     1.708710     1.700576     1.692442     1.684309     1.676175     1.668041
      1.659908     1.651774     1.643641     1.635507     1.627373     1.619240     1.611106     1.602972     1.594839     1.586705
      1.578571     1.570438     1.562304     1.554170     1.546037     1.537903     1.529769     1.521636     1.513502     1.505368
      1.497235     1.489101     1.480968     1.472834     1.464700     1.456567     1.448433     1.440299     1.432166     1.424032
      1.415898     1.407765     1.399631     1.391497     1.383364     1.375230     1.367096     1.358963     1.350829     1.342695
      1.334562     1.326428     1.318295     1.310161     1.302027     1.293894     1.285760     1.277626     1.269493     1.261359
      1.253225     1.245092     1.236958     1.228824     1.220691     1.212557     1.204423     1.196290     1.188156     1.180022
      1.171889     1.163755     1.155622     1.147488     1.139354     1.131221     1.123087     1.114953     1.106820     1.098686
      1.090552     1.082419     1.074285     1.066151     1.058018     1.049884     1.041750     1.033617     1.025483     1.017349
      1.009216     1.001082     0.992949     0.984815     0.976681     0.968548     0.960414     0.952280     0.944147     0.936013
      0.927879     0.919746     0.911612     0.903478     0.895345     0.887211     0.879077     0.870944     0.862810     0.854676
      0.846543     0.838409     0.830276     0.822142     0.814008     0.805875     0.797741     0.789607     0.781474     0.773340
      0.765206     0.757073     0.748939     0.740805     0.732672     0.724538     0.716404     0.708271     0.700137     0.692003
      0.683870     0.675736     0.667603     0.659469     0.651335     0.643202     0.635068     0.626934     0.618801     0.610667
      0.602533     0.594400     0.586266     0.578132     0.569999     0.561865     0.553731     0.545598     0.537464     0.529330
      0.521197     0.513063     0.504930     0.496796     0.488662     0.480529     0.472395     0.464261     0.456128     0.447994
      0.439861     0.431727     0.423593     0.415460     0.407326     0.399192     0.391059     0.382925     0.374792     0.366658
      0.358524     0.350391     0.342257     0.334124     0.325990     0.317856     0.309723     0.301589     0.293455     0.285322
      0.277188     0.269055     0.260921     0.252787     0.244654     0.236520     0.228386     0.220253     0.212119     0.203986
 NY phased data points follow
   9.38682E+01  8.93604E+01  9.22470E+01  1.02208E+02  9.75735E+01  9.41262E+01  6.63852E+01  9.25675E+01  1.28070E+02  1.10918E+02
   9.83525E+01  7.98595E+01  8.13199E+01  7.91565E+01  6.97291E+01  7.67458E+01  7.81098E+01  9.06460E+01  8.25662E+01  8.28306E+01
   6.25896E+01  7.37564E+01  8.09172E+01  8.28902E+01  1.25734E+02  1.18861E+02  9.74656E+01  1.09930E+02  1.43376E+02  1.43135E+02
   1.33125E+02  1.44747E+02  1.35653E+02  1.51628E+02  1.44729E+02  1.33701E+02  1.56068E+02  1.60013E+02  1.41836E+02  1.26727E+02
   1.25954E+02  1.28602E+02  1.03796E+02  1.09832E+02  1.45013E+02  1.38114E+02  1.49343E+02  1.82009E+02  1.66657E+02  1.58343E+02
   1.88150E+02  2.02483E+02  1.96773E+02  2.01462E+02  1.86949E+02  1.74867E+02  1.76748E+02  1.71743E+02  1.84087E+02  1.86961E+02
   1.79339E+02  2.01764E+02  1.91862E+02  1.89221E+02  1.90627E+02  1.90654E+02  2.01100E+02  1.98475E+02  2.00762E+02  1.97380E+02
   2.10605E+02  1.93050E+02  1.91799E+02  2.05223E+02  1.83027E+02  1.91856E+02  1.85651E+02  1.82772E+02  1.85113E+02  1.95721E+02
   1.86247E+02  1.74871E+02  1.83512E+02  1.89193E+02  1.77524E+02  1.37419E+02  1.65021E+02  1.70789E+02  1.67675E+02  1.72683E+02
   1.77182E+02  1.94185E+02  1.66739E+02  1.85168E+02  1.77868E+02  1.85809E+02  1.73129E+02  1.62761E+02  1.92816E+02  1.69830E+02
   1.65402E+02  1.57800E+02  1.68600E+02  1.33747E+02  1.04115E+02  1.07382E+02  7.75398E+01  9.48439E+01  8.15581E+01  6.03463E+01
   4.86623E+01  5.18705E+01  4.50339E+01  3.34248E+01  6.64509E+01  7.56578E+01  7.21046E+01  8.15289E+01  7.39590E+01  6.45404E+01
   9.12587E+01  1.08882E+02  1.11561E+02  1.17460E+02  1.24182E+02  1.38520E+02  1.52099E+02  1.57745E+02  1.26268E+02  1.59661E+02
   2.03323E+02  1.72779E+02  1.57525E+02  1.38751E+02  1.09341E+02  8.97685E+01  7.04751E+01  6.08697E+01  6.61063E+01  6.18641E+01
   3.59800E+01  5.20226E+01  7.05968E+01  5.23108E+01  5.21252E+01  5.84415E+01  6.14045E+01  6.32995E+01  5.78222E+01  6.30336E+01
   5.06321E+01  5.36958E+01  8.64932E+01  6.82270E+01  5.94086E+01  8.95764E+01  8.67243E+01  1.03645E+02  9.99009E+01  9.44585E+01
   1.13500E+02  1.01862E+02  1.15853E+02  1.02091E+02  8.65159E+01  9.79153E+01  1.04003E+02  1.15141E+02  8.32660E+01  8.94578E+01
   1.07680E+02  1.14392E+02  1.25866E+02  1.21835E+02  1.31980E+02  1.21472E+02  1.27475E+02  1.32404E+02  1.10081E+02  1.11283E+02
   1.10237E+02  9.64951E+01  9.14233E+01  7.38303E+01  7.02793E+01  9.45200E+01  7.51182E+01  7.77529E+01  8.74843E+01  7.34504E+01
   7.76386E+01  7.93406E+01  1.20984E+02  1.15905E+02  8.75116E+01  1.20538E+02  1.07176E+02  9.75953E+01  1.14941E+02  1.08128E+02
   9.62374E+01  8.08824E+01  8.47090E+01  8.97091E+01  7.44846E+01  8.51401E+01  8.29826E+01  7.89115E+01  8.58785E+01  6.64819E+01
   7.59248E+01  7.84446E+01  6.24220E+01  7.24676E+01  8.81376E+01  1.09842E+02  9.47791E+01  1.22301E+02  1.44251E+02  1.24100E+02
   1.41499E+02  1.01594E+02  1.04932E+02  1.30825E+02  9.50753E+01  1.10310E+02  1.21137E+02  1.08908E+02  1.03622E+02  1.24561E+02
   1.25090E+02  9.65059E+01  9.24605E+01  1.04806E+02  9.84829E+01  6.50403E+01  6.68975E+01  6.32883E+01  6.17734E+01  8.05941E+01
   5.07305E+01  3.99754E+01  5.80309E+01  6.31326E+01  6.04830E+01  6.12402E+01  5.50556E+01  5.43508E+01  5.68275E+01  5.74210E+01
   4.71138E+01  4.58634E+01  6.01684E+01  6.62072E+01  6.41740E+01  2.49702E+01  3.47614E+01  9.06468E+01  1.32847E+02  1.90477E+02
   1.98390E+02  2.21603E+02  2.43932E+02  2.37674E+02  2.44650E+02  2.34956E+02  2.30357E+02  2.19121E+02  2.01831E+02  2.01650E+02
   2.06648E+02  2.05294E+02  2.00712E+02  2.03753E+02  2.05256E+02  2.12201E+02  2.18948E+02  2.00381E+02  1.81842E+02  1.91141E+02
   1.83386E+02  1.88343E+02  1.85587E+02  1.66562E+02  1.87314E+02  1.76564E+02  1.46341E+02  1.69591E+02  1.71555E+02  1.38696E+02
   1.51522E+02  1.74160E+02  1.54784E+02  1.26108E+02  1.28140E+02  1.47782E+02  1.20595E+02  1.12370E+02  1.28365E+02  1.13218E+02
   1.09596E+02  1.05693E+02  1.24300E+02  1.23836E+02  1.12985E+02  1.29626E+02  1.08600E+02  1.18385E+02  9.52864E+01  6.94518E+01
   5.82760E+01  6.27389E+01  1.08733E+02  7.94045E+01  1.14695E+02  1.22632E+02  1.52694E+02  2.27146E+02  1.88567E+02  2.27268E+02
   2.31917E+02  2.41083E+02  2.60118E+02  2.38446E+02  2.39149E+02  2.06928E+02  2.16293E+02  1.96188E+02  1.79020E+02  1.86921E+02
   1.94884E+02  1.89230E+02  1.72583E+02  1.81227E+02  1.46587E+02  1.37254E+02  1.42666E+02  1.36592E+02  1.32561E+02  1.46154E+02
   1.35812E+02  1.10405E+02  1.16541E+02  1.06568E+02  1.39856E+02  1.29600E+02  9.01170E+01  1.15347E+02  1.22348E+02  1.14713E+02
   1.28395E+02  1.28890E+02  1.31102E+02  1.51075E+02  1.19881E+02  1.34336E+02  1.30236E+02  1.04687E+02  1.29722E+02  1.12111E+02
   1.10892E+02  1.02295E+02  1.34544E+02  1.40906E+02  1.19848E+02  1.53783E+02  1.29939E+02  1.46431E+02  1.45515E+02  1.35902E+02
   1.52967E+02  1.61466E+02  1.82052E+02  1.54403E+02  1.76825E+02  1.72121E+02  1.54300E+02  1.82874E+02  1.82501E+02  2.00757E+02
   1.94975E+02  1.92828E+02  2.15798E+02  2.08001E+02  1.85715E+02  2.09280E+02  2.14322E+02  2.19036E+02  2.32965E+02  2.02115E+02
   2.18572E+02  2.18588E+02  2.18173E+02  2.12257E+02  1.89989E+02  1.93552E+02  1.74160E+02  1.77022E+02  1.62715E+02  1.63591E+02
   1.62925E+02  1.45954E+02  1.39125E+02  1.30949E+02  1.23296E+02  1.02445E+02  1.16565E+02  1.10753E+02  9.96035E+01  8.22475E+01
   7.05633E+01  1.06791E+02  1.21231E+02  1.02205E+02  8.40866E+01  1.01408E+02  8.16003E+01  8.31892E+01  1.04354E+02  8.58247E+01
   9.97357E+01  9.17304E+01  7.58954E+01  7.98873E+01  7.72634E+01  8.64226E+01  9.76034E+01  9.87273E+01  1.08727E+02  1.02050E+02
   8.44052E+01  9.41710E+01  7.80000E+01  8.80022E+01  9.10726E+01  7.45135E+01  9.96619E+01  7.63712E+01  7.05554E+01  7.19990E+01
   7.00707E+01  9.21414E+01  7.31815E+01  1.00587E+02  1.01776E+02  8.02711E+01  9.66517E+01  9.81529E+01  1.00560E+02  1.07524E+02
   1.24700E+02  1.02040E+02  8.54522E+01  8.27803E+01  7.34340E+01  8.66203E+01  9.10366E+01  9.39288E+01  8.83872E+01  1.07279E+02
   1.04573E+02  9.21374E+01  9.96653E+01  9.14750E+01  9.03860E+01  9.98970E+01  9.44771E+01  7.81979E+01  1.11297E+02  1.06590E+02
   6.99878E+01  9.55610E+01  9.53238E+01  7.54882E+01  8.87886E+01  1.00245E+02  1.00068E+02  9.83293E+01  9.67705E+01  9.49997E+01
 NY points of the fit to the data follow
   9.26385E+01  9.64929E+01  9.97980E+01  1.02176E+02  1.03354E+02  1.03253E+02  1.02043E+02  9.98864E+01  9.69620E+01  9.32878E+01
   8.91349E+01  8.45386E+01  8.00677E+01  7.61693E+01  7.37594E+01  7.38032E+01  7.64092E+01  8.06158E+01  8.45348E+01  8.63249E+01
   8.57843E+01  8.50309E+01  8.70621E+01  9.31409E+01  1.02173E+02  1.12224E+02  1.21944E+02  1.30830E+02  1.38604E+02  1.45095E+02
   1.50412E+02  1.54645E+02  1.57289E+02  1.57557E+02  1.56392E+02  1.55161E+02  1.53871E+02  1.51866E+02  1.48357E+02  1.43200E+02
   1.37237E+02  1.31985E+02  1.29019E+02  1.29330E+02  1.32917E+02  1.38912E+02  1.46017E+02  1.53084E+02  1.59501E+02  1.65087E+02
   1.69734E+02  1.73183E+02  1.75493E+02  1.76791E+02  1.77292E+02  1.77369E+02  1.77423E+02  1.77704E+02  1.78265E+02  1.79098E+02
   1.80113E+02  1.81164E+02  1.82125E+02  1.82914E+02  1.83531E+02  1.83998E+02  1.84297E+02  1.84470E+02  1.84673E+02  1.85126E+02
   1.85965E+02  1.87120E+02  1.88445E+02  1.89668E+02  1.90645E+02  1.91504E+02  1.92290E+02  1.92869E+02  1.92498E+02  1.89889E+02
   1.83879E+02  1.74321E+02  1.62504E+02  1.50677E+02  1.41057E+02  1.35116E+02  1.33058E+02  1.34202E+02  1.37645E+02  1.42580E+02
   1.48521E+02  1.54984E+02  1.61644E+02  1.67626E+02  1.72403E+02  1.75784E+02  1.77779E+02  1.79352E+02  1.81081E+02  1.82825E+02
   1.83461E+02  1.81361E+02  1.75344E+02  1.65314E+02  1.52228E+02  1.37392E+02  1.21791E+02  1.06293E+02  9.16846E+01  7.89507E+01
   6.92534E+01  6.33704E+01  6.15060E+01  6.28982E+01  6.69505E+01  7.24280E+01  7.87642E+01  8.56313E+01  9.26076E+01  9.96152E+01
   1.06383E+02  1.12882E+02  1.19532E+02  1.26128E+02  1.32242E+02  1.37840E+02  1.43340E+02  1.49673E+02  1.57536E+02  1.65455E+02
   1.69273E+02  1.65034E+02  1.52642E+02  1.35583E+02  1.17766E+02  1.01589E+02  8.77792E+01  7.67172E+01  6.85720E+01  6.24586E+01
   5.76888E+01  5.49512E+01  5.52606E+01  5.65642E+01  5.76721E+01  5.87944E+01  6.01251E+01  6.17592E+01  6.36678E+01  6.57458E+01
   6.78725E+01  7.00276E+01  7.22775E+01  7.46510E+01  7.70524E+01  7.92957E+01  8.12523E+01  8.29840E+01  8.46485E+01  8.63299E+01
   8.79016E+01  8.91992E+01  9.03075E+01  9.15330E+01  9.29985E+01  9.44062E+01  9.53679E+01  9.59617E+01  9.69961E+01  9.94125E+01
   1.03230E+02  1.07376E+02  1.10581E+02  1.12471E+02  1.13643E+02  1.14739E+02  1.15621E+02  1.15596E+02  1.14098E+02  1.11081E+02
   1.06767E+02  1.01647E+02  9.66155E+01  9.23209E+01  8.87755E+01  8.57923E+01  8.33645E+01  8.17398E+01  8.12395E+01  8.17519E+01
   8.28719E+01  8.46052E+01  8.70811E+01  9.01925E+01  9.34860E+01  9.66508E+01  9.97034E+01  1.02608E+02  1.05011E+02  1.06444E+02
   1.06855E+02  1.06518E+02  1.05323E+02  1.02753E+02  9.90661E+01  9.49737E+01  9.07719E+01  8.65622E+01  8.23612E+01  7.84211E+01
   7.50748E+01  7.27117E+01  7.24333E+01  7.57049E+01  8.30931E+01  9.38915E+01  1.06430E+02  1.18760E+02  1.28979E+02  1.36064E+02
   1.40127E+02  1.41680E+02  1.41393E+02  1.39586E+02  1.36559E+02  1.32191E+02  1.26885E+02  1.20962E+02  1.13914E+02  1.06355E+02
   9.81410E+01  8.93394E+01  8.03407E+01  7.17597E+01  6.43103E+01  5.86345E+01  5.50325E+01  5.34658E+01  5.34456E+01  5.42702E+01
   5.54810E+01  5.67916E+01  5.79916E+01  5.88920E+01  5.95857E+01  6.02321E+01  6.05765E+01  5.96284E+01  5.70235E+01  5.33446E+01
   4.95145E+01  4.72598E+01  4.74121E+01  4.88283E+01  5.07723E+01  5.65510E+01  7.08826E+01  9.44948E+01  1.22974E+02  1.50582E+02
   1.74161E+02  1.93243E+02  2.06868E+02  2.14397E+02  2.17897E+02  2.19901E+02  2.19334E+02  2.14422E+02  2.08185E+02  2.02730E+02
   1.98235E+02  1.94641E+02  1.91809E+02  1.89584E+02  1.87839E+02  1.86488E+02  1.85423E+02  1.84534E+02  1.83666E+02  1.82691E+02
   1.81502E+02  1.80067E+02  1.78375E+02  1.76418E+02  1.74250E+02  1.71888E+02  1.69374E+02  1.66700E+02  1.63861E+02  1.60863E+02
   1.57712E+02  1.54423E+02  1.51060E+02  1.47806E+02  1.44912E+02  1.42618E+02  1.41074E+02  1.40342E+02  1.40396E+02  1.41204E+02
   1.42680E+02  1.44693E+02  1.47115E+02  1.49795E+02  1.52609E+02  1.55483E+02  1.58391E+02  1.61323E+02  1.64262E+02  1.67143E+02
   1.69902E+02  1.72507E+02  1.74955E+02  1.77205E+02  1.79208E+02  1.80893E+02  1.82174E+02  1.82952E+02  1.83164E+02  1.82799E+02
   1.81859E+02  1.80367E+02  1.78367E+02  1.75897E+02  1.72928E+02  1.69341E+02  1.65026E+02  1.60026E+02  1.54525E+02  1.48791E+02
   1.43207E+02  1.38245E+02  1.34048E+02  1.30975E+02  1.29254E+02  1.29291E+02  1.31653E+02  1.36273E+02  1.41799E+02  1.45865E+02
   1.46277E+02  1.42292E+02  1.34869E+02  1.26231E+02  1.18601E+02  1.13133E+02  1.10130E+02  1.09139E+02  1.09439E+02  1.10673E+02
   1.12608E+02  1.14966E+02  1.16766E+02  1.18206E+02  1.18603E+02  1.18152E+02  1.17456E+02  1.16929E+02  1.16843E+02  1.17383E+02
   1.18642E+02  1.20607E+02  1.23214E+02  1.26333E+02  1.29792E+02  1.33439E+02  1.37180E+02  1.40950E+02  1.44702E+02  1.48417E+02
   1.52104E+02  1.55786E+02  1.59519E+02  1.63373E+02  1.67435E+02  1.71761E+02  1.76424E+02  1.81450E+02  1.86810E+02  1.92458E+02
   1.98363E+02  2.04499E+02  2.10807E+02  2.17125E+02  2.23124E+02  2.28293E+02  2.32011E+02  2.33645E+02  2.32833E+02  2.29621E+02
   2.24378E+02  2.17618E+02  2.09894E+02  2.01672E+02  1.93207E+02  1.84572E+02  1.75787E+02  1.66901E+02  1.58049E+02  1.49380E+02
   1.41075E+02  1.33289E+02  1.26184E+02  1.19866E+02  1.14392E+02  1.09803E+02  1.06055E+02  1.03037E+02  1.00626E+02  9.87416E+01
   9.72762E+01  9.61348E+01  9.52499E+01  9.45862E+01  9.40847E+01  9.36993E+01  9.33734E+01  9.31050E+01  9.29025E+01  9.27722E+01
   9.26819E+01  9.26015E+01  9.25312E+01  9.24712E+01  9.24043E+01  9.23036E+01  9.22181E+01  9.21983E+01  9.22367E+01  9.22745E+01
   9.22816E+01  9.22634E+01  9.22078E+01  9.21386E+01  9.20812E+01  9.20600E+01  9.20677E+01  9.20907E+01  9.21195E+01  9.21609E+01
   9.22242E+01  9.22866E+01  9.23176E+01  9.22962E+01  9.22381E+01  9.21686E+01  9.21272E+01  9.21156E+01  9.21170E+01  9.21177E+01
   9.21007E+01  9.20889E+01  9.20986E+01  9.21484E+01  9.22252E+01  9.23135E+01  9.23954E+01  9.24842E+01  9.25863E+01  9.26820E+01
   9.27616E+01  9.28103E+01  9.28027E+01  9.27536E+01  9.27057E+01  9.27147E+01  9.28086E+01  9.29832E+01  9.31659E+01  9.33021E+01
   9.33612E+01  9.33836E+01  9.33907E+01  9.34139E+01  9.34650E+01  9.35416E+01  9.36205E+01  9.36819E+01  9.37462E+01  9.38642E+01
 NY background values follow
     1.164E+02    1.170E+02    1.176E+02    1.183E+02    1.189E+02    1.195E+02    1.202E+02    1.208E+02    1.214E+02    1.220E+02
     1.227E+02    1.233E+02    1.239E+02    1.246E+02    1.252E+02    1.258E+02    1.264E+02    1.270E+02    1.277E+02    1.283E+02
     1.289E+02    1.295E+02    1.301E+02    1.307E+02    1.313E+02    1.319E+02    1.325E+02    1.331E+02    1.337E+02    1.343E+02
     1.349E+02    1.355E+02    1.361E+02    1.367E+02    1.373E+02    1.378E+02    1.384E+02    1.390E+02    1.395E+02    1.401E+02
     1.406E+02    1.411E+02    1.416E+02    1.421E+02    1.426E+02    1.431E+02    1.435E+02    1.440E+02    1.444E+02    1.448E+02
     1.452E+02    1.456E+02    1.460E+02    1.463E+02    1.466E+02    1.469E+02    1.472E+02    1.474E+02    1.477E+02    1.479E+02
     1.481E+02    1.482E+02    1.483E+02    1.485E+02    1.485E+02    1.486E+02    1.486E+02    1.487E+02    1.486E+02    1.486E+02
     1.486E+02    1.485E+02    1.484E+02    1.483E+02    1.481E+02    1.480E+02    1.478E+02    1.476E+02    1.474E+02    1.472E+02
     1.469E+02    1.466E+02    1.464E+02    1.461E+02    1.457E+02    1.454E+02    1.451E+02    1.447E+02    1.443E+02    1.439E+02
     1.435E+02    1.431E+02    1.426E+02    1.422E+02    1.417E+02    1.413E+02    1.408E+02    1.403E+02    1.398E+02    1.393E+02
     1.388E+02    1.383E+02    1.378E+02    1.373E+02    1.368E+02    1.363E+02    1.358E+02    1.353E+02    1.348E+02    1.343E+02
     1.338E+02    1.333E+02    1.329E+02    1.324E+02    1.320E+02    1.315E+02    1.311E+02    1.307E+02    1.303E+02    1.299E+02
     1.295E+02    1.291E+02    1.288E+02    1.285E+02    1.282E+02    1.279E+02    1.276E+02    1.273E+02    1.271E+02    1.269E+02
     1.266E+02    1.264E+02    1.262E+02    1.260E+02    1.258E+02    1.257E+02    1.255E+02    1.253E+02    1.252E+02    1.251E+02
     1.249E+02    1.248E+02    1.247E+02    1.246E+02    1.245E+02    1.244E+02    1.243E+02    1.242E+02    1.241E+02    1.240E+02
     1.239E+02    1.238E+02    1.237E+02    1.237E+02    1.236E+02    1.235E+02    1.234E+02    1.233E+02    1.233E+02    1.232E+02
     1.231E+02    1.230E+02    1.229E+02    1.229E+02    1.228E+02    1.227E+02    1.226E+02    1.226E+02    1.225E+02    1.224E+02
     1.223E+02    1.222E+02    1.221E+02    1.220E+02    1.219E+02    1.218E+02    1.218E+02    1.217E+02    1.216E+02    1.214E+02
     1.213E+02    1.212E+02    1.211E+02    1.210E+02    1.209E+02    1.208E+02    1.206E+02    1.205E+02    1.204E+02    1.202E+02
     1.201E+02    1.200E+02    1.199E+02    1.197E+02    1.196E+02    1.195E+02    1.194E+02    1.192E+02    1.191E+02    1.190E+02
     1.189E+02    1.187E+02    1.186E+02    1.185E+02    1.184E+02    1.183E+02    1.182E+02    1.181E+02    1.180E+02    1.179E+02
     1.178E+02    1.178E+02    1.177E+02    1.176E+02    1.176E+02    1.175E+02    1.174E+02    1.174E+02    1.173E+02    1.173E+02
     1.172E+02    1.172E+02    1.171E+02    1.171E+02    1.170E+02    1.170E+02    1.169E+02    1.168E+02    1.168E+02    1.167E+02
     1.167E+02    1.166E+02    1.165E+02    1.165E+02    1.164E+02    1.163E+02    1.162E+02    1.161E+02    1.160E+02    1.159E+02
     1.158E+02    1.157E+02    1.156E+02    1.155E+02    1.153E+02    1.152E+02    1.150E+02    1.149E+02    1.147E+02    1.146E+02
     1.144E+02    1.142E+02    1.140E+02    1.138E+02    1.136E+02    1.134E+02    1.132E+02    1.130E+02    1.127E+02    1.125E+02
     1.122E+02    1.120E+02    1.117E+02    1.114E+02    1.112E+02    1.109E+02    1.106E+02    1.103E+02    1.100E+02    1.097E+02
     1.093E+02    1.090E+02    1.087E+02    1.083E+02    1.080E+02    1.076E+02    1.073E+02    1.069E+02    1.066E+02    1.063E+02
     1.059E+02    1.056E+02    1.053E+02    1.050E+02    1.047E+02    1.044E+02    1.042E+02    1.039E+02    1.037E+02    1.035E+02
     1.033E+02    1.032E+02    1.030E+02    1.029E+02    1.028E+02    1.028E+02    1.027E+02    1.027E+02    1.028E+02    1.029E+02
     1.030E+02    1.031E+02    1.033E+02    1.035E+02    1.037E+02    1.040E+02    1.043E+02    1.046E+02    1.050E+02    1.053E+02
     1.057E+02    1.061E+02    1.066E+02    1.070E+02    1.075E+02    1.079E+02    1.084E+02    1.089E+02    1.094E+02    1.099E+02
     1.104E+02    1.109E+02    1.114E+02    1.119E+02    1.124E+02    1.129E+02    1.134E+02    1.139E+02    1.144E+02    1.149E+02
     1.153E+02    1.158E+02    1.162E+02    1.166E+02    1.170E+02    1.174E+02    1.178E+02    1.182E+02    1.185E+02    1.189E+02
     1.192E+02    1.195E+02    1.198E+02    1.201E+02    1.204E+02    1.206E+02    1.209E+02    1.211E+02    1.213E+02    1.215E+02
     1.217E+02    1.219E+02    1.221E+02    1.222E+02    1.224E+02    1.225E+02    1.226E+02    1.227E+02    1.228E+02    1.228E+02
     1.229E+02    1.229E+02    1.229E+02    1.229E+02    1.229E+02    1.229E+02    1.229E+02    1.229E+02    1.228E+02    1.227E+02
     1.227E+02    1.226E+02    1.225E+02    1.224E+02    1.223E+02    1.221E+02    1.220E+02    1.219E+02    1.217E+02    1.215E+02
     1.214E+02    1.212E+02    1.210E+02    1.208E+02    1.206E+02    1.204E+02    1.202E+02    1.200E+02    1.198E+02    1.196E+02
     1.193E+02    1.191E+02    1.189E+02    1.186E+02    1.184E+02    1.181E+02    1.179E+02    1.176E+02    1.173E+02    1.171E+02
     1.168E+02    1.166E+02    1.163E+02    1.160E+02    1.157E+02    1.155E+02    1.152E+02    1.149E+02    1.146E+02    1.143E+02
     1.140E+02    1.137E+02    1.135E+02    1.132E+02    1.129E+02    1.126E+02    1.123E+02    1.120E+02    1.117E+02    1.114E+02
     1.111E+02    1.108E+02    1.105E+02    1.102E+02    1.099E+02    1.096E+02    1.094E+02    1.091E+02    1.088E+02    1.085E+02
     1.082E+02    1.079E+02    1.076E+02    1.073E+02    1.071E+02    1.068E+02    1.065E+02    1.062E+02    1.059E+02    1.056E+02
     1.054E+02    1.051E+02    1.048E+02    1.046E+02    1.043E+02    1.040E+02    1.038E+02    1.035E+02    1.032E+02    1.030E+02
     1.027E+02    1.025E+02    1.022E+02    1.020E+02    1.017E+02    1.015E+02    1.012E+02    1.010E+02    1.008E+02    1.005E+02
     1.003E+02    1.001E+02    9.983E+01    9.960E+01    9.937E+01    9.914E+01    9.891E+01    9.868E+01    9.845E+01    9.822E+01
     9.800E+01    9.777E+01    9.754E+01    9.731E+01    9.709E+01    9.686E+01    9.663E+01    9.640E+01    9.617E+01    9.594E+01
 Mac      Conc. = 3.09E-04
   9.50595E+01  9.51205E+01  9.52225E+01  9.53080E+01  9.53242E+01  9.51831E+01  9.48284E+01  9.42832E+01  9.36683E+01  9.31503E+01
   9.28266E+01  9.27103E+01  9.27055E+01  9.26633E+01  9.25315E+01  9.24943E+01  9.28837E+01  9.39572E+01  9.57749E+01  9.82569E+01
   1.01255E+02  1.04545E+02  1.07889E+02  1.11109E+02  1.14173E+02  1.17122E+02  1.19941E+02  1.22575E+02  1.25039E+02  1.27430E+02
   1.29716E+02  1.31813E+02  1.33663E+02  1.35226E+02  1.36555E+02  1.37834E+02  1.39254E+02  1.40850E+02  1.42497E+02  1.44053E+02
   1.45453E+02  1.46736E+02  1.47999E+02  1.49300E+02  1.50609E+02  1.51828E+02  1.52818E+02  1.53477E+02  1.53801E+02  1.53865E+02
   1.53749E+02  1.53503E+02  1.53175E+02  1.52816E+02  1.52498E+02  1.52335E+02  1.52397E+02  1.52717E+02  1.53301E+02  1.54126E+02
   1.55101E+02  1.56077E+02  1.56924E+02  1.57556E+02  1.57964E+02  1.58167E+02  1.58144E+02  1.57938E+02  1.57702E+02  1.57642E+02
   1.57890E+02  1.58476E+02  1.59323E+02  1.60271E+02  1.61171E+02  1.61895E+02  1.62342E+02  1.62516E+02  1.62464E+02  1.62215E+02
   1.61779E+02  1.61243E+02  1.60735E+02  1.60342E+02  1.60089E+02  1.59987E+02  1.59997E+02  1.60082E+02  1.60172E+02  1.60222E+02
   1.60216E+02  1.60139E+02  1.59922E+02  1.59454E+02  1.58630E+02  1.57378E+02  1.55664E+02  1.53540E+02  1.51099E+02  1.48441E+02
   1.45634E+02  1.42711E+02  1.39608E+02  1.36185E+02  1.32273E+02  1.27815E+02  1.22972E+02  1.18129E+02  1.13718E+02  1.10081E+02
