 LCModel (Version 6.3-1N) Copyright: S.W. Provencher.          Ref.: Magn. Reson. Med. 30:672-679 (1993).                
 Slice_N1@17_20  28-Feb-2025 11:39:48
 27 lines in following concentration table = NCONC+1
    Conc.  %SD /Cr+PCr  Metabolite                                         
 3.09E-04   3% 2.9E-04 Mac                                                 
    3.975  15%   3.665 Cr                                                  
    4.700  13%   4.335 PCr                                                 
    7.519  10%   6.934 Ins                                                 
   10.541   6%   9.721 NAA                                                 
    6.524  11%   6.016 Tau                                                 
    0.000 999%   0.000 PCho                                                
    1.368  15%   1.261 GPC                                                 
   10.545   9%   9.725 Glu                                                 
    3.619  20%   3.338 Gln                                                 
    0.000 999%   0.000 Ala                                                 
    4.243  23%   3.913 Asc                                                 
    3.467  26%   3.197 Asp                                                 
    0.628  76%   0.580 GABA                                                
    0.612 111%   0.565 Glc                                                 
    1.889  22%   1.742 GSH                                                 
    1.618  34%   1.492 Lac                                                 
    1.541  28%   1.421 NAAG                                                
    1.895  45%   1.747 PE                                                  
    1.368  15%   1.261 GPC+PCho                                            
   12.082   6%  11.142 NAA+NAAG                                            
   14.165   8%  13.062 Glu+Gln                                             
    8.675   7%   8.000 Cr+PCr                                              
   12.082   6%  11.142 NAA+NAAG                                            
    8.675   7%   8.000 Cr+PCr                                              
   14.165   8%  13.062 Glu+Gln                                             
   6 lines in following misc. output table
  FWHM = 0.016 ppm    S/N =   6                                            
  Data shift = 0.024 ppm                                                   
  Ph: -80 deg       0.0 deg/ppm                                            
  alphaB,S = 2.4E+00,   3.3E-01                                            
   19 spline knots.   Ns = 5(1)                                            
   3 inflections.     2 extrema                                            
  480 points on ppm-axis = NY
      4.100000     4.091866     4.083733     4.075600     4.067466     4.059333     4.051199     4.043066     4.034933     4.026799
      4.018666     4.010532     4.002399     3.994265     3.986132     3.977998     3.969864     3.961731     3.953597     3.945463
      3.937330     3.929196     3.921062     3.912929     3.904795     3.896662     3.888528     3.880394     3.872261     3.864127
      3.855993     3.847860     3.839726     3.831592     3.823459     3.815325     3.807191     3.799058     3.790924     3.782790
      3.774657     3.766523     3.758389     3.750256     3.742122     3.733989     3.725855     3.717721     3.709588     3.701454
      3.693320     3.685187     3.677053     3.668919     3.660786     3.652652     3.644518     3.636385     3.628251     3.620117
      3.611984     3.603850     3.595716     3.587583     3.579449     3.571316     3.563182     3.555048     3.546915     3.538781
      3.530647     3.522514     3.514380     3.506246     3.498113     3.489979     3.481845     3.473712     3.465578     3.457444
      3.449311     3.441177     3.433043     3.424910     3.416776     3.408643     3.400509     3.392375     3.384242     3.376108
      3.367974     3.359841     3.351707     3.343573     3.335440     3.327306     3.319172     3.311039     3.302905     3.294771
      3.286638     3.278504     3.270370     3.262237     3.254103     3.245970     3.237836     3.229702     3.221569     3.213435
      3.205301     3.197168     3.189034     3.180900     3.172767     3.164633     3.156499     3.148366     3.140232     3.132098
      3.123965     3.115831     3.107697     3.099564     3.091430     3.083297     3.075163     3.067029     3.058896     3.050762
      3.042628     3.034495     3.026361     3.018227     3.010094     3.001960     2.993826     2.985693     2.977559     2.969425
      2.961292     2.953158     2.945024     2.936891     2.928757     2.920624     2.912490     2.904356     2.896223     2.888089
      2.879955     2.871822     2.863688     2.855554     2.847421     2.839287     2.831153     2.823020     2.814886     2.806752
      2.798619     2.790485     2.782351     2.774218     2.766084     2.757951     2.749817     2.741683     2.733550     2.725416
      2.717282     2.709149     2.701015     2.692881     2.684748     2.676614     2.668480     2.660347     2.652213     2.644079
      2.635946     2.627812     2.619678     2.611545     2.603411     2.595278     2.587144     2.579010     2.570877     2.562743
      2.554609     2.546476     2.538342     2.530208     2.522075     2.513941     2.505807     2.497674     2.489540     2.481406
      2.473273     2.465139     2.457006     2.448872     2.440738     2.432605     2.424471     2.416337     2.408204     2.400070
      2.391936     2.383803     2.375669     2.367535     2.359402     2.351268     2.343134     2.335001     2.326867     2.318733
      2.310600     2.302466     2.294333     2.286199     2.278065     2.269932     2.261798     2.253664     2.245531     2.237397
      2.229263     2.221130     2.212996     2.204862     2.196729     2.188595     2.180461     2.172328     2.164194     2.156060
      2.147927     2.139793     2.131660     2.123526     2.115392     2.107259     2.099125     2.090991     2.082858     2.074724
      2.066590     2.058457     2.050323     2.042189     2.034056     2.025922     2.017788     2.009655     2.001521     1.993387
      1.985254     1.977120     1.968987     1.960853     1.952719     1.944586     1.936452     1.928318     1.920185     1.912051
      1.903917     1.895784     1.887650     1.879516     1.871383     1.863249     1.855115     1.846982     1.838848     1.830714
      1.822581     1.814447     1.806314     1.798180     1.790046     1.781913     1.773779     1.765645     1.757512     1.749378
      1.741244     1.733111     1.724977     1.716843     1.708710     1.700576     1.692442     1.684309     1.676175     1.668041
      1.659908     1.651774     1.643641     1.635507     1.627373     1.619240     1.611106     1.602972     1.594839     1.586705
      1.578571     1.570438     1.562304     1.554170     1.546037     1.537903     1.529769     1.521636     1.513502     1.505368
      1.497235     1.489101     1.480968     1.472834     1.464700     1.456567     1.448433     1.440299     1.432166     1.424032
      1.415898     1.407765     1.399631     1.391497     1.383364     1.375230     1.367096     1.358963     1.350829     1.342695
      1.334562     1.326428     1.318295     1.310161     1.302027     1.293894     1.285760     1.277626     1.269493     1.261359
      1.253225     1.245092     1.236958     1.228824     1.220691     1.212557     1.204423     1.196290     1.188156     1.180022
      1.171889     1.163755     1.155622     1.147488     1.139354     1.131221     1.123087     1.114953     1.106820     1.098686
      1.090552     1.082419     1.074285     1.066151     1.058018     1.049884     1.041750     1.033617     1.025483     1.017349
      1.009216     1.001082     0.992949     0.984815     0.976681     0.968548     0.960414     0.952280     0.944147     0.936013
      0.927879     0.919746     0.911612     0.903478     0.895345     0.887211     0.879077     0.870944     0.862810     0.854676
      0.846543     0.838409     0.830276     0.822142     0.814008     0.805875     0.797741     0.789607     0.781474     0.773340
      0.765206     0.757073     0.748939     0.740805     0.732672     0.724538     0.716404     0.708271     0.700137     0.692003
      0.683870     0.675736     0.667603     0.659469     0.651335     0.643202     0.635068     0.626934     0.618801     0.610667
      0.602533     0.594400     0.586266     0.578132     0.569999     0.561865     0.553731     0.545598     0.537464     0.529330
      0.521197     0.513063     0.504930     0.496796     0.488662     0.480529     0.472395     0.464261     0.456128     0.447994
      0.439861     0.431727     0.423593     0.415460     0.407326     0.399192     0.391059     0.382925     0.374792     0.366658
      0.358524     0.350391     0.342257     0.334124     0.325990     0.317856     0.309723     0.301589     0.293455     0.285322
      0.277188     0.269055     0.260921     0.252787     0.244654     0.236520     0.228386     0.220253     0.212119     0.203986
 NY phased data points follow
  -8.81095E+01 -9.07596E+01 -9.24108E+01 -1.00829E+02 -1.04252E+02 -1.01417E+02 -1.02871E+02 -7.99702E+01 -8.51824E+01 -1.11756E+02
  -1.09761E+02 -1.09760E+02 -1.12953E+02 -1.28913E+02 -1.24632E+02 -1.31066E+02 -1.38924E+02 -1.26765E+02 -1.52706E+02 -1.71656E+02
  -1.97638E+02 -1.62630E+02 -1.05957E+02 -1.23178E+02 -8.17947E+01 -3.01054E+01 -5.06715E+01 -6.69160E+01 -5.75535E+01 -5.37663E+01
  -4.70847E+01 -5.23932E+01 -6.43131E+01 -5.12092E+01 -5.14488E+01 -6.50511E+01 -7.03214E+01 -7.32009E+01 -9.08264E+01 -1.15669E+02
  -1.41842E+02 -1.51290E+02 -1.36897E+02 -1.26097E+02 -1.11423E+02 -7.69644E+01 -2.88167E+01 -2.54506E+01 -2.69211E+01 -1.23321E+01
  -2.15089E+01 -1.76983E+01 -3.08495E+01 -3.75296E+01 -4.43735E+01 -6.52843E+01 -5.83770E+01 -4.98750E+01 -7.02177E+01 -1.25873E+02
  -8.65795E+01 -4.51341E+01 -9.22637E+01 -5.00240E+01 -1.78861E+01 -9.08249E+00 -3.60193E+00 -3.67648E+01 -4.48174E+01 -1.16401E+02
  -1.34427E+02 -6.57450E+01 -7.34539E+01 -9.54873E+01 -4.61261E+01 -4.35616E+00 -2.15665E+01 -6.21032E+00  2.64106E-01 -9.79764E+00
   2.72090E+00 -1.09220E+01 -2.69445E+01 -4.53216E+01 -7.55324E+01 -9.38456E+01 -8.24218E+01 -5.28931E+01 -3.25186E+01 -1.92952E+01
  -5.01474E-01  5.03530E+00  4.67596E+00  2.20325E+00 -5.05246E-01  2.49476E+01  3.36200E+01  3.59534E+01  4.21510E+01  2.67037E+01
   1.88202E+01  1.83518E+01 -1.42567E+01 -4.06141E+01 -3.87365E+01 -7.55759E+01 -8.79217E+01 -7.96033E+01 -8.50650E+01 -1.04150E+02
  -1.99638E+02 -2.38360E+02 -1.76883E+02 -1.39679E+02 -1.29381E+02 -1.15640E+02 -9.42362E+01 -8.35677E+01 -8.63621E+01 -8.07619E+01
  -6.50425E+01 -5.39658E+01 -5.47864E+01 -4.30684E+01 -3.46667E+01 -2.94345E+01 -1.93217E+01 -9.21133E+00  2.69268E+01  5.13192E+01
   1.08330E+02  1.47474E+02  1.28482E+01 -1.57648E+02 -1.90246E+02 -1.55157E+02 -1.45751E+02 -1.47368E+02 -1.40669E+02 -1.17478E+02
  -1.18878E+02 -1.26069E+02 -1.25787E+02 -1.32227E+02 -1.17376E+02 -1.22161E+02 -1.19230E+02 -1.24153E+02 -1.18337E+02 -9.99636E+01
  -1.18789E+02 -1.07099E+02 -9.81737E+01 -9.34733E+01 -8.26448E+01 -8.78336E+01 -8.20882E+01 -8.86259E+01 -1.01368E+02 -8.92455E+01
  -8.35655E+01 -7.61560E+01 -6.61150E+01 -8.18837E+01 -7.70262E+01 -8.19117E+01 -8.80076E+01 -6.59203E+01 -7.20346E+01 -7.50882E+01
  -5.77718E+01 -5.30625E+01 -4.43051E+01 -2.87472E+01 -4.30912E+01 -5.89571E+01 -4.09430E+01 -2.55816E+01 -2.78250E+01 -5.22981E+01
  -9.10122E+01 -8.82266E+01 -9.80352E+01 -1.08808E+02 -8.89280E+01 -1.02052E+02 -1.00442E+02 -1.11032E+02 -1.04518E+02 -8.31910E+01
  -1.00690E+02 -8.94886E+01 -7.26045E+01 -6.73473E+01 -5.09095E+01 -5.12938E+01 -8.67603E+01 -6.27688E+01 -4.97489E+01 -7.09580E+01
  -6.35275E+01 -7.93794E+01 -5.62066E+01 -4.32038E+01 -4.88587E+01 -6.85890E+01 -8.16507E+01 -6.85394E+01 -9.52491E+01 -1.06814E+02
  -1.11072E+02 -1.04525E+02 -1.01194E+02 -8.37862E+01 -5.65828E+01 -3.84054E+01  1.77855E+01  1.83331E+01 -8.66269E+00 -1.11102E+01
  -4.21394E+01 -6.50104E+01 -6.15593E+01 -4.47929E+01 -4.80351E+01 -5.60840E+01 -3.14836E+01 -3.13735E+01 -4.10593E+01 -4.80505E+01
  -4.68194E+01 -4.91579E+01 -7.42649E+01 -7.75134E+01 -9.46545E+01 -1.00674E+02 -1.14472E+02 -1.35028E+02 -1.29697E+02 -1.31171E+02
  -1.27710E+02 -1.23196E+02 -1.08788E+02 -9.50930E+01 -8.17713E+01 -7.45953E+01 -5.77937E+01 -7.51278E+01 -9.30941E+01 -9.69675E+01
  -1.11523E+02 -8.60770E+01 -1.08787E+02 -1.14871E+02 -1.18753E+02 -1.37907E+02 -2.19884E+02 -1.89635E+02  1.39236E+02  2.22787E+02
   1.17503E+02  1.15572E+02  8.83669E+01  8.25652E+01  7.60560E+01  6.54242E+01  5.59222E+01  3.24998E+01  2.39926E+01  3.77693E+01
   3.06001E+01  1.85732E+01  2.85409E+01  3.17747E+01  3.36644E+01  3.48934E+01  4.32707E+01  3.91268E+01  2.74756E+01  3.69533E+01
   3.99453E+01  3.27585E+01  3.25036E+01  2.34125E+01  1.86314E+01  1.16547E+01  1.27562E+01  2.11029E+01  4.88869E+00  1.94972E+00
   9.45032E+00  4.89295E+00 -8.46391E+00 -6.78032E+00 -3.12857E-01 -4.56241E+00 -1.41961E+01 -1.19308E+01 -1.63899E+01 -2.88452E+01
  -1.50034E+01 -2.45038E+01 -1.24599E+01 -4.31519E+00 -1.63172E+01 -1.26987E+01 -1.56708E+01 -1.50512E+01 -2.40590E+01 -1.26277E+01
  -2.34802E+01 -2.23797E+01 -1.44485E+01 -2.53168E+01 -2.63161E+01 -4.56551E+01 -3.09538E+01 -2.87641E+01 -2.41794E+01  6.02403E+00
   1.82739E+01  3.54384E+01  4.27377E+01  2.94583E+01  2.59862E+01  2.31490E+01  7.17535E+00  3.07103E+00 -1.45356E+01 -2.56972E+01
  -2.78230E+01 -4.21749E+01 -5.99320E+01 -5.62959E+01 -5.70877E+01 -6.66629E+01 -4.36705E+01 -4.82934E+01 -4.23017E+01 -2.78181E+01
  -1.53546E+01 -8.14645E+00 -3.94928E+01 -4.73660E+01 -4.63688E+01 -4.91718E+01 -4.26975E+01 -1.99256E+01 -2.17967E+01 -2.04430E+01
  -9.30382E+00 -2.83257E+01 -2.53330E+01 -2.47990E+01 -1.93506E+01 -3.24477E+01 -5.62340E+01 -5.20154E+01 -6.16320E+01 -6.86479E+01
  -6.10781E+01 -4.42935E+01 -5.03526E+01 -5.65785E+01 -3.69152E+01 -2.66548E+01 -1.96595E+01 -2.03493E+01 -1.55399E+01 -8.65187E+00
  -1.12354E+01 -2.04233E+00 -5.75619E+00 -9.47567E+00  2.48227E+00  9.22212E+00  1.51111E+01  2.04592E+01  2.10547E+01  2.01910E+01
   2.58878E+01  3.27482E+01  4.97765E+01  5.16554E+01  5.43368E+01  7.70515E+01  7.51370E+01  8.74494E+01  1.02857E+02  1.05808E+02
   9.89339E+01  8.19608E+01  7.92551E+01  6.44310E+01  5.21690E+01  3.90331E+01  2.23054E+01  1.61366E+01  1.96564E+01  1.42395E+01
  -1.63338E+01 -2.31957E+01 -2.45441E+01 -4.78874E+01 -5.21692E+01 -4.65555E+01 -5.59733E+01 -6.77869E+01 -6.99173E+01 -5.93859E+01
  -5.86077E+01 -6.03581E+01 -6.52364E+01 -7.23990E+01 -5.70241E+01 -5.89068E+01 -5.65965E+01 -5.62631E+01 -6.37297E+01 -5.53314E+01
  -6.14808E+01 -5.22778E+01 -5.35246E+01 -5.83639E+01 -5.30531E+01 -5.84232E+01 -5.57688E+01 -5.85197E+01 -5.45167E+01 -5.67556E+01
  -5.86317E+01 -5.07103E+01 -5.58390E+01 -5.63739E+01 -5.04604E+01 -6.04944E+01 -5.05560E+01 -4.68222E+01 -6.60312E+01 -4.77882E+01
  -7.10609E+01 -6.67744E+01 -3.90297E+01 -5.99937E+01 -4.96821E+01 -5.88062E+01 -4.46679E+01 -4.69587E+01 -5.37146E+01 -3.67707E+01
  -5.68662E+01 -4.32167E+01 -4.64242E+01 -4.42926E+01 -5.04726E+01 -6.32699E+01 -4.93322E+01 -5.38321E+01 -3.62991E+01 -3.68559E+01
  -4.22419E+01 -3.92725E+01 -4.85486E+01 -4.94357E+01 -5.30139E+01 -5.77399E+01 -4.62635E+01 -3.84521E+01 -5.67511E+01 -5.43316E+01
  -4.02271E+01 -4.52887E+01 -5.55890E+01 -5.33249E+01 -4.96397E+01 -4.77872E+01 -4.58810E+01 -3.94234E+01 -3.62668E+01 -5.81064E+01
 NY points of the fit to the data follow
  -9.84696E+01 -1.05366E+02 -1.14576E+02 -1.24052E+02 -1.32291E+02 -1.11591E+02 -7.05642E+01 -6.22860E+01 -8.40454E+01 -1.00987E+02
  -1.09421E+02 -1.15739E+02 -1.16760E+02 -1.11509E+02 -1.10053E+02 -1.08195E+02 -1.10839E+02 -1.20355E+02 -1.34041E+02 -1.55208E+02
  -1.81001E+02 -1.57755E+02 -9.59728E+01 -1.07692E+02 -8.93619E+01 -2.71847E+01 -3.89364E+01 -4.78603E+01 -3.44721E+01 -3.10382E+01
  -3.12897E+01 -3.41725E+01 -3.60156E+01 -3.64580E+01 -3.90406E+01 -4.25483E+01 -4.86992E+01 -5.66132E+01 -7.12948E+01 -9.50126E+01
  -1.35518E+02 -1.61078E+02 -1.32341E+02 -1.12663E+02 -1.05128E+02 -7.51489E+01 -4.19007E+01 -2.51782E+01 -2.40662E+01 -1.70616E+01
  -1.93956E+01 -2.55866E+01 -2.88017E+01 -3.90277E+01 -5.36989E+01 -6.71318E+01 -7.20195E+01 -6.03036E+01 -7.12412E+01 -1.08196E+02
  -8.64635E+01 -5.76223E+01 -7.53994E+01 -5.19926E+01 -1.54387E+01 -1.44768E+01 -1.50673E+01 -1.98841E+01 -4.82864E+01 -1.01016E+02
  -1.15705E+02 -7.78934E+01 -7.40186E+01 -7.90413E+01 -4.38164E+01 -2.02756E+01 -1.62159E+01 -1.22328E+01 -9.08251E+00 -7.48807E+00
  -7.25278E+00 -1.97426E+01 -3.90086E+01 -6.04485E+01 -9.15018E+01 -8.91618E+01 -7.81127E+01 -6.45473E+01 -3.57012E+01 -2.78614E+01
  -2.25010E+01 -1.71447E+01 -1.37359E+01 -8.96861E+00 -4.44738E+00  3.90241E-01  5.52413E+00  9.07277E+00  1.06433E+01  1.70944E+00
  -1.57338E+00  1.08989E+01  1.74899E+00 -2.66681E+01 -3.51610E+01 -5.36470E+01 -8.76450E+01 -7.34003E+01 -6.40130E+01 -1.05490E+02
  -1.94256E+02 -2.33998E+02 -1.72815E+02 -1.36881E+02 -1.22490E+02 -1.04214E+02 -9.64931E+01 -8.98187E+01 -8.32657E+01 -7.61456E+01
  -6.96390E+01 -6.40057E+01 -5.72024E+01 -4.96232E+01 -4.10512E+01 -3.12254E+01 -1.65837E+01  4.99202E+00  3.31390E+01  6.98751E+01
   1.11786E+02  1.29995E+02  1.91302E+01 -1.68405E+02 -2.02253E+02 -1.50120E+02 -1.44391E+02 -1.33152E+02 -1.19938E+02 -1.17784E+02
  -1.19960E+02 -1.22196E+02 -1.25232E+02 -1.27031E+02 -1.25269E+02 -1.28394E+02 -1.28289E+02 -1.23072E+02 -1.20154E+02 -1.16739E+02
  -1.13254E+02 -1.09768E+02 -1.06287E+02 -1.03704E+02 -1.01480E+02 -9.60471E+01 -9.04072E+01 -9.10542E+01 -9.46728E+01 -9.40368E+01
  -8.73530E+01 -7.92409E+01 -7.61988E+01 -8.52855E+01 -9.53054E+01 -9.35492E+01 -8.98921E+01 -8.76078E+01 -8.73838E+01 -8.92965E+01
  -8.65195E+01 -6.95079E+01 -4.09407E+01 -3.50070E+01 -6.13782E+01 -7.44672E+01 -5.30512E+01 -3.09409E+01 -3.56905E+01 -6.44021E+01
  -8.76600E+01 -8.90188E+01 -9.12070E+01 -9.61872E+01 -9.70373E+01 -9.87857E+01 -9.86454E+01 -9.77450E+01 -9.64525E+01 -9.40225E+01
  -9.18118E+01 -8.67865E+01 -8.24736E+01 -8.40433E+01 -6.66415E+01 -4.92929E+01 -7.13427E+01 -7.23637E+01 -5.39301E+01 -5.99412E+01
  -6.08684E+01 -6.81726E+01 -6.10083E+01 -4.19732E+01 -5.04056E+01 -6.12329E+01 -6.86451E+01 -7.53880E+01 -8.47441E+01 -9.92620E+01
  -1.08213E+02 -1.12758E+02 -1.12208E+02 -9.05451E+01 -7.50555E+01 -4.65119E+01  1.21286E+01  8.18233E+00  2.55027E+00  6.26573E+00
  -3.33461E+01 -4.53045E+01 -4.39283E+01 -4.43028E+01 -3.65385E+01 -3.38638E+01 -3.37407E+01 -3.47196E+01 -4.21902E+01 -5.17970E+01
  -6.30354E+01 -7.53072E+01 -8.93781E+01 -1.00889E+02 -1.10313E+02 -1.25042E+02 -1.32963E+02 -1.34404E+02 -1.40602E+02 -1.34905E+02
  -1.25240E+02 -1.23668E+02 -1.07889E+02 -9.44079E+01 -8.76468E+01 -7.12049E+01 -7.21769E+01 -7.53591E+01 -7.92078E+01 -9.16950E+01
  -9.02579E+01 -9.91139E+01 -1.12992E+02 -1.20679E+02 -1.26551E+02 -1.37102E+02 -2.41560E+02 -1.98491E+02  1.17854E+02  1.90887E+02
   9.83480E+01  1.02818E+02  7.46897E+01  5.66671E+01  4.89836E+01  4.52738E+01  4.23536E+01  3.76442E+01  3.35424E+01  3.01737E+01
   2.75375E+01  2.67608E+01  2.69875E+01  2.94853E+01  2.99371E+01  3.04234E+01  3.14455E+01  2.89940E+01  2.77685E+01  2.70529E+01
   2.58085E+01  2.41060E+01  2.13493E+01  1.89460E+01  1.72499E+01  1.58600E+01  1.31903E+01  1.05363E+01  8.90571E+00  6.12362E+00
   3.26491E+00 -6.92427E-01 -5.88381E+00 -9.53532E+00 -1.41886E+01 -1.92721E+01 -2.16658E+01 -2.14484E+01 -1.91771E+01 -1.56535E+01
  -1.25387E+01 -1.00888E+01 -7.00451E+00 -3.16435E+00 -2.07966E-01  2.37237E+00  5.08689E+00  7.14355E+00  9.07049E+00  1.19917E+01
   1.59865E+01  1.86463E+01  2.03351E+01  2.20791E+01  2.35828E+01  2.57178E+01  2.72568E+01  2.70529E+01  2.71539E+01  2.66433E+01
   2.33237E+01  2.03484E+01  1.89422E+01  1.55276E+01  1.06073E+01  6.82958E+00  2.73781E+00 -2.68983E+00 -1.17668E+01 -2.44250E+01
  -3.59985E+01 -4.55896E+01 -5.37869E+01 -5.97669E+01 -6.22503E+01 -6.08015E+01 -5.52922E+01 -4.69683E+01 -3.82549E+01 -3.09868E+01
  -2.48836E+01 -2.36821E+01 -3.65512E+01 -4.54737E+01 -4.54190E+01 -5.16146E+01 -3.96809E+01 -2.62590E+01 -2.67667E+01 -2.36890E+01
  -2.26205E+01 -2.25391E+01 -2.51867E+01 -2.83814E+01 -3.30701E+01 -3.99732E+01 -4.55910E+01 -4.86352E+01 -4.93300E+01 -4.87148E+01
  -4.64241E+01 -4.29619E+01 -3.92629E+01 -3.46374E+01 -2.99307E+01 -2.56312E+01 -2.21188E+01 -1.85663E+01 -1.52254E+01 -1.23188E+01
  -8.73353E+00 -5.24554E+00 -2.18742E+00  8.60850E-01  4.87303E+00  8.62521E+00  1.26353E+01  1.86540E+01  2.41450E+01  2.97632E+01
   3.79728E+01  4.62237E+01  5.29209E+01  6.15783E+01  7.25993E+01  8.23025E+01  9.00576E+01  9.54715E+01  9.60272E+01  8.96933E+01
   7.64235E+01  6.04096E+01  4.61742E+01  3.60572E+01  2.80054E+01  2.10105E+01  1.67696E+01  1.04494E+01  1.78751E-01 -1.11431E+01
  -2.11231E+01 -3.18554E+01 -4.12196E+01 -4.54919E+01 -4.92238E+01 -5.30078E+01 -5.47317E+01 -5.53314E+01 -5.56408E+01 -5.66975E+01
  -5.76953E+01 -5.85912E+01 -5.94191E+01 -5.91115E+01 -5.87264E+01 -5.88937E+01 -5.93020E+01 -5.82898E+01 -5.75141E+01 -5.83537E+01
  -5.94537E+01 -5.82159E+01 -5.63348E+01 -5.73486E+01 -5.76966E+01 -5.69215E+01 -5.64802E+01 -5.64674E+01 -5.67871E+01 -5.65460E+01
  -5.53529E+01 -5.42067E+01 -5.45836E+01 -5.48445E+01 -5.48220E+01 -5.50879E+01 -5.48849E+01 -5.37759E+01 -5.34177E+01 -5.33421E+01
  -5.23762E+01 -5.22548E+01 -5.20604E+01 -5.14293E+01 -5.10693E+01 -5.13576E+01 -5.19413E+01 -5.20616E+01 -5.10636E+01 -5.02144E+01
  -5.04792E+01 -4.97057E+01 -4.94702E+01 -5.04648E+01 -4.98900E+01 -4.85698E+01 -4.84605E+01 -4.81733E+01 -4.75240E+01 -4.75972E+01
  -4.71966E+01 -4.65503E+01 -4.63404E+01 -4.67109E+01 -4.67544E+01 -4.67013E+01 -4.66556E+01 -4.60975E+01 -4.54745E+01 -4.38586E+01
  -4.29452E+01 -4.31932E+01 -4.38722E+01 -4.43992E+01 -4.42675E+01 -4.34339E+01 -4.26967E+01 -4.29843E+01 -4.25360E+01 -4.16686E+01
 NY background values follow
    -6.474E+01   -6.466E+01   -6.457E+01   -6.449E+01   -6.440E+01   -6.432E+01   -6.423E+01   -6.415E+01   -6.406E+01   -6.397E+01
    -6.389E+01   -6.380E+01   -6.372E+01   -6.363E+01   -6.355E+01   -6.346E+01   -6.338E+01   -6.329E+01   -6.320E+01   -6.312E+01
    -6.303E+01   -6.295E+01   -6.286E+01   -6.278E+01   -6.269E+01   -6.260E+01   -6.252E+01   -6.243E+01   -6.235E+01   -6.226E+01
    -6.218E+01   -6.209E+01   -6.201E+01   -6.192E+01   -6.183E+01   -6.175E+01   -6.166E+01   -6.158E+01   -6.149E+01   -6.141E+01
    -6.132E+01   -6.124E+01   -6.115E+01   -6.106E+01   -6.098E+01   -6.089E+01   -6.081E+01   -6.072E+01   -6.064E+01   -6.055E+01
    -6.047E+01   -6.038E+01   -6.030E+01   -6.021E+01   -6.013E+01   -6.004E+01   -5.996E+01   -5.987E+01   -5.979E+01   -5.970E+01
    -5.962E+01   -5.954E+01   -5.945E+01   -5.937E+01   -5.928E+01   -5.920E+01   -5.912E+01   -5.903E+01   -5.895E+01   -5.886E+01
    -5.878E+01   -5.870E+01   -5.861E+01   -5.853E+01   -5.845E+01   -5.837E+01   -5.828E+01   -5.820E+01   -5.812E+01   -5.804E+01
    -5.795E+01   -5.787E+01   -5.779E+01   -5.771E+01   -5.763E+01   -5.754E+01   -5.746E+01   -5.738E+01   -5.730E+01   -5.722E+01
    -5.714E+01   -5.706E+01   -5.698E+01   -5.690E+01   -5.682E+01   -5.674E+01   -5.666E+01   -5.658E+01   -5.650E+01   -5.642E+01
    -5.634E+01   -5.626E+01   -5.618E+01   -5.611E+01   -5.603E+01   -5.595E+01   -5.587E+01   -5.579E+01   -5.572E+01   -5.564E+01
    -5.556E+01   -5.548E+01   -5.541E+01   -5.533E+01   -5.525E+01   -5.518E+01   -5.510E+01   -5.503E+01   -5.495E+01   -5.487E+01
    -5.480E+01   -5.472E+01   -5.465E+01   -5.458E+01   -5.450E+01   -5.443E+01   -5.435E+01   -5.428E+01   -5.420E+01   -5.413E+01
    -5.406E+01   -5.399E+01   -5.391E+01   -5.384E+01   -5.377E+01   -5.370E+01   -5.362E+01   -5.355E+01   -5.348E+01   -5.341E+01
    -5.334E+01   -5.327E+01   -5.320E+01   -5.313E+01   -5.306E+01   -5.299E+01   -5.292E+01   -5.285E+01   -5.278E+01   -5.271E+01
    -5.264E+01   -5.257E+01   -5.250E+01   -5.244E+01   -5.237E+01   -5.230E+01   -5.223E+01   -5.217E+01   -5.210E+01   -5.203E+01
    -5.197E+01   -5.190E+01   -5.184E+01   -5.177E+01   -5.170E+01   -5.164E+01   -5.158E+01   -5.151E+01   -5.145E+01   -5.138E+01
    -5.132E+01   -5.126E+01   -5.119E+01   -5.113E+01   -5.107E+01   -5.100E+01   -5.094E+01   -5.088E+01   -5.082E+01   -5.076E+01
    -5.069E+01   -5.063E+01   -5.057E+01   -5.051E+01   -5.045E+01   -5.039E+01   -5.033E+01   -5.027E+01   -5.021E+01   -5.016E+01
    -5.010E+01   -5.004E+01   -4.998E+01   -4.992E+01   -4.986E+01   -4.981E+01   -4.975E+01   -4.969E+01   -4.964E+01   -4.958E+01
    -4.952E+01   -4.947E+01   -4.941E+01   -4.935E+01   -4.930E+01   -4.924E+01   -4.919E+01   -4.913E+01   -4.908E+01   -4.903E+01
    -4.897E+01   -4.892E+01   -4.887E+01   -4.881E+01   -4.876E+01   -4.871E+01   -4.865E+01   -4.860E+01   -4.855E+01   -4.850E+01
    -4.845E+01   -4.839E+01   -4.834E+01   -4.829E+01   -4.824E+01   -4.819E+01   -4.814E+01   -4.809E+01   -4.804E+01   -4.799E+01
    -4.794E+01   -4.789E+01   -4.784E+01   -4.779E+01   -4.774E+01   -4.770E+01   -4.765E+01   -4.760E+01   -4.755E+01   -4.750E+01
    -4.746E+01   -4.741E+01   -4.736E+01   -4.732E+01   -4.727E+01   -4.722E+01   -4.718E+01   -4.713E+01   -4.709E+01   -4.704E+01
    -4.700E+01   -4.695E+01   -4.691E+01   -4.686E+01   -4.682E+01   -4.677E+01   -4.673E+01   -4.669E+01   -4.664E+01   -4.660E+01
    -4.655E+01   -4.651E+01   -4.647E+01   -4.643E+01   -4.638E+01   -4.634E+01   -4.630E+01   -4.626E+01   -4.621E+01   -4.617E+01
    -4.613E+01   -4.609E+01   -4.605E+01   -4.601E+01   -4.597E+01   -4.593E+01   -4.589E+01   -4.584E+01   -4.580E+01   -4.576E+01
    -4.572E+01   -4.568E+01   -4.564E+01   -4.560E+01   -4.557E+01   -4.553E+01   -4.549E+01   -4.545E+01   -4.541E+01   -4.537E+01
    -4.533E+01   -4.529E+01   -4.525E+01   -4.521E+01   -4.517E+01   -4.514E+01   -4.510E+01   -4.506E+01   -4.502E+01   -4.498E+01
    -4.494E+01   -4.491E+01   -4.487E+01   -4.483E+01   -4.479E+01   -4.475E+01   -4.472E+01   -4.468E+01   -4.464E+01   -4.460E+01
    -4.456E+01   -4.453E+01   -4.449E+01   -4.445E+01   -4.441E+01   -4.437E+01   -4.434E+01   -4.430E+01   -4.426E+01   -4.422E+01
    -4.419E+01   -4.415E+01   -4.411E+01   -4.407E+01   -4.404E+01   -4.400E+01   -4.396E+01   -4.392E+01   -4.389E+01   -4.385E+01
    -4.381E+01   -4.377E+01   -4.374E+01   -4.370E+01   -4.366E+01   -4.363E+01   -4.359E+01   -4.355E+01   -4.351E+01   -4.348E+01
    -4.344E+01   -4.340E+01   -4.336E+01   -4.333E+01   -4.329E+01   -4.325E+01   -4.322E+01   -4.318E+01   -4.314E+01   -4.310E+01
    -4.307E+01   -4.303E+01   -4.299E+01   -4.296E+01   -4.292E+01   -4.288E+01   -4.285E+01   -4.281E+01   -4.277E+01   -4.273E+01
    -4.270E+01   -4.266E+01   -4.262E+01   -4.259E+01   -4.255E+01   -4.251E+01   -4.248E+01   -4.244E+01   -4.240E+01   -4.237E+01
    -4.233E+01   -4.229E+01   -4.226E+01   -4.222E+01   -4.218E+01   -4.215E+01   -4.211E+01   -4.207E+01   -4.204E+01   -4.200E+01
    -4.196E+01   -4.193E+01   -4.189E+01   -4.185E+01   -4.182E+01   -4.178E+01   -4.175E+01   -4.171E+01   -4.167E+01   -4.164E+01
    -4.160E+01   -4.156E+01   -4.153E+01   -4.149E+01   -4.146E+01   -4.142E+01   -4.138E+01   -4.135E+01   -4.131E+01   -4.128E+01
    -4.124E+01   -4.120E+01   -4.117E+01   -4.113E+01   -4.110E+01   -4.106E+01   -4.103E+01   -4.099E+01   -4.096E+01   -4.092E+01
    -4.088E+01   -4.085E+01   -4.081E+01   -4.078E+01   -4.074E+01   -4.071E+01   -4.067E+01   -4.064E+01   -4.060E+01   -4.057E+01
    -4.053E+01   -4.049E+01   -4.046E+01   -4.042E+01   -4.039E+01   -4.035E+01   -4.032E+01   -4.028E+01   -4.025E+01   -4.021E+01
    -4.018E+01   -4.014E+01   -4.011E+01   -4.007E+01   -4.004E+01   -4.000E+01   -3.997E+01   -3.993E+01   -3.990E+01   -3.986E+01
    -3.983E+01   -3.979E+01   -3.976E+01   -3.972E+01   -3.969E+01   -3.965E+01   -3.962E+01   -3.958E+01   -3.955E+01   -3.951E+01
    -3.948E+01   -3.944E+01   -3.941E+01   -3.937E+01   -3.934E+01   -3.931E+01   -3.927E+01   -3.924E+01   -3.920E+01   -3.917E+01
    -3.913E+01   -3.910E+01   -3.906E+01   -3.903E+01   -3.899E+01   -3.896E+01   -3.892E+01   -3.889E+01   -3.885E+01   -3.882E+01
    -3.878E+01   -3.875E+01   -3.872E+01   -3.868E+01   -3.865E+01   -3.861E+01   -3.858E+01   -3.854E+01   -3.851E+01   -3.847E+01
 Mac      Conc. = 3.09E-04
  -8.55299E+01 -8.71179E+01 -8.74286E+01 -8.73605E+01 -8.73612E+01 -8.72228E+01 -8.76482E+01 -8.94909E+01 -9.20298E+01 -9.44597E+01
  -9.63505E+01 -9.71434E+01 -9.69639E+01 -9.64480E+01 -9.65098E+01 -9.66376E+01 -9.90541E+01 -1.03415E+02 -1.05448E+02 -1.00237E+02
  -8.98816E+01 -8.58578E+01 -8.33619E+01 -7.68808E+01 -7.42031E+01 -7.48956E+01 -7.46109E+01 -7.30549E+01 -7.11354E+01 -6.87465E+01
  -6.55528E+01 -6.35493E+01 -6.26651E+01 -6.13104E+01 -6.04269E+01 -6.07478E+01 -6.23827E+01 -6.34023E+01 -6.16591E+01 -5.72540E+01
  -5.27472E+01 -5.17381E+01 -5.38772E+01 -5.49596E+01 -5.37161E+01 -5.15986E+01 -4.88773E+01 -4.77514E+01 -4.84533E+01 -4.94489E+01
  -5.09703E+01 -5.27621E+01 -5.48737E+01 -5.59147E+01 -5.63256E+01 -5.67936E+01 -5.69433E+01 -5.74318E+01 -5.65751E+01 -5.35991E+01
  -5.14403E+01 -5.11232E+01 -4.86132E+01 -4.58635E+01 -4.69575E+01 -4.82134E+01 -4.94888E+01 -5.13878E+01 -5.14443E+01 -5.15783E+01
  -5.27591E+01 -5.33702E+01 -4.99651E+01 -4.41474E+01 -4.15477E+01 -4.06010E+01 -3.99182E+01 -4.03035E+01 -4.11776E+01 -4.27408E+01
  -4.38900E+01 -4.39450E+01 -4.44024E+01 -4.50898E+01 -4.52888E+01 -4.37007E+01 -4.22234E+01 -4.18236E+01 -4.02229E+01 -3.90966E+01
  -3.87155E+01 -3.82266E+01 -3.75612E+01 -3.68957E+01 -3.68888E+01 -3.67799E+01 -3.77362E+01 -4.09686E+01 -4.39865E+01 -4.67662E+01
  -5.02361E+01 -5.17421E+01 -5.20786E+01 -5.43418E+01 -5.80126E+01 -6.13754E+01 -6.67789E+01 -7.54005E+01 -8.55824E+01 -9.32276E+01
