 
 $NMID
 ID=''
 FMTDAT='(2E13.5)'
 TRAMP=   1.00000E+0
 VOLUME=   1.00000E+0
 $END
  -3.39707E+5   4.40268E+5
  -1.22734E+6   8.24324E+5
  -1.07344E+6   9.77943E+5
  -1.02984E+6   8.49842E+5
  -1.10618E+6   8.08833E+5
  -1.09021E+6   7.88305E+5
  -1.10671E+6   7.29978E+5
  -1.15304E+6   7.55592E+5
  -1.10424E+6   7.79254E+5
  -1.08351E+6   7.37133E+5
  -1.10006E+6   7.23989E+5
  -1.07975E+6   7.10413E+5
  -1.08037E+6   6.80772E+5
  -1.09128E+6   6.94308E+5
  -1.06603E+6   7.00498E+5
  -1.05047E+6   6.80279E+5
  -1.05246E+6   6.76679E+5
  -1.04223E+6   6.58780E+5
  -1.04906E+6   6.27774E+5
  -1.05711E+6   6.20046E+5
  -1.04580E+6   6.05519E+5
  -1.04341E+6   5.84318E+5
  -1.04324E+6   5.79097E+5
  -1.03338E+6   5.64075E+5
  -1.02947E+6   5.41829E+5
  -1.02123E+6   5.43211E+5
  -1.00954E+6   5.40777E+5
  -1.00398E+6   5.32052E+5
  -9.92979E+5   5.27636E+5
  -9.78319E+5   5.22417E+5
  -9.77841E+5   5.10771E+5
  -9.73749E+5   5.01337E+5
  -9.64299E+5   4.85869E+5
  -9.59453E+5   4.72784E+5
  -9.55135E+5   4.63785E+5
  -9.50253E+5   4.49205E+5
  -9.49056E+5   4.33821E+5
  -9.43515E+5   4.22013E+5
  -9.34095E+5   4.10609E+5
  -9.28986E+5   4.01692E+5
  -9.20332E+5   3.95013E+5
  -9.09806E+5   3.88209E+5
  -9.01185E+5   3.83315E+5
  -8.93053E+5   3.78112E+5
  -8.82528E+5   3.70540E+5
  -8.75926E+5   3.65956E+5
  -8.70704E+5   3.58770E+5
  -8.64174E+5   3.45987E+5
  -8.55213E+5   3.33436E+5
  -8.47899E+5   3.24352E+5
  -8.43102E+5   3.13893E+5
  -8.38356E+5   3.02071E+5
  -8.32279E+5   2.91743E+5
  -8.26891E+5   2.81862E+5
  -8.21025E+5   2.72032E+5
  -8.14006E+5   2.62442E+5
  -8.06339E+5   2.53813E+5
  -7.99316E+5   2.46517E+5
  -7.92088E+5   2.39751E+5
  -7.86025E+5   2.32425E+5
  -7.79893E+5   2.24911E+5
  -7.74282E+5   2.17334E+5
  -7.69239E+5   2.09048E+5
  -7.63316E+5   1.98975E+5
  -7.56406E+5   1.89236E+5
  -7.49316E+5   1.80576E+5
  -7.43211E+5   1.71854E+5
  -7.36930E+5   1.63182E+5
  -7.31537E+5   1.55501E+5
  -7.26388E+5   1.48264E+5
  -7.20605E+5   1.40274E+5
  -7.13277E+5   1.33749E+5
  -7.07711E+5   1.27882E+5
  -7.02629E+5   1.21209E+5
  -6.96484E+5   1.14053E+5
  -6.89946E+5   1.07635E+5
  -6.84572E+5   1.01110E+5
  -6.79043E+5   9.40184E+4
  -6.72894E+5   8.63404E+4
  -6.66528E+5   7.86694E+4
  -6.60474E+5   7.17008E+4
  -6.54297E+5   6.53614E+4
  -6.48299E+5   5.90041E+4
  -6.42184E+5   5.23751E+4
  -6.35516E+5   4.62753E+4
  -6.28918E+5   4.17842E+4
  -6.22683E+5   3.73620E+4
  -6.16693E+5   3.26697E+4
  -6.10407E+5   2.86487E+4
  -6.03600E+5   2.49940E+4
  -5.97370E+5   2.13493E+4
  -5.91219E+5   1.72730E+4
  -5.84634E+5   1.27034E+4
  -5.77506E+5   7.73757E+3
  -5.70163E+5   3.33959E+3
  -5.63448E+5  -1.06787E+3
  -5.56900E+5  -4.98790E+3
  -5.50477E+5  -9.78521E+3
  -5.43612E+5  -1.38680E+4
  -5.36625E+5  -1.74217E+4
  -5.30660E+5  -2.07766E+4
  -5.23673E+5  -2.47624E+4
  -5.16367E+5  -2.86770E+4
  -5.09052E+5  -3.12042E+4
  -5.02255E+5  -3.34796E+4
  -4.95895E+5  -3.58670E+4
  -4.89552E+5  -3.84548E+4
  -4.82297E+5  -4.18929E+4
  -4.74988E+5  -4.49534E+4
  -4.67339E+5  -4.68626E+4
  -4.61319E+5  -4.89335E+4
  -4.55130E+5  -5.23193E+4
  -4.48580E+5  -5.57521E+4
  -4.41746E+5  -5.89465E+4
  -4.34975E+5  -6.20039E+4
  -4.29129E+5  -6.51439E+4
  -4.22502E+5  -6.81852E+4
  -4.15847E+5  -7.10144E+4
  -4.08717E+5  -7.30647E+4
  -4.02734E+5  -7.50494E+4
  -3.97030E+5  -7.74196E+4
  -3.90961E+5  -7.97564E+4
  -3.85098E+5  -8.20542E+4
  -3.79661E+5  -8.46161E+4
  -3.73403E+5  -8.69900E+4
  -3.67166E+5  -8.92943E+4
  -3.61389E+5  -9.09333E+4
  -3.55608E+5  -9.34350E+4
  -3.50306E+5  -9.56633E+4
  -3.45062E+5  -9.77407E+4
  -3.39677E+5  -1.00162E+5
  -3.33779E+5  -1.02848E+5
  -3.27975E+5  -1.04586E+5
  -3.22858E+5  -1.06522E+5
  -3.17735E+5  -1.08387E+5
  -3.12051E+5  -1.10304E+5
  -3.07121E+5  -1.11853E+5
  -3.02507E+5  -1.13417E+5
  -2.97616E+5  -1.14846E+5
  -2.92924E+5  -1.16875E+5
  -2.87520E+5  -1.18487E+5
  -2.82526E+5  -1.19491E+5
  -2.77799E+5  -1.20359E+5
  -2.73134E+5  -1.21238E+5
  -2.69111E+5  -1.22742E+5
  -2.64435E+5  -1.23797E+5
  -2.59485E+5  -1.24572E+5
  -2.54996E+5  -1.25216E+5
  -2.50694E+5  -1.26022E+5
  -2.46321E+5  -1.26157E+5
  -2.41864E+5  -1.27023E+5
  -2.37861E+5  -1.27173E+5
  -2.33928E+5  -1.27151E+5
  -2.30036E+5  -1.27235E+5
  -2.25797E+5  -1.27710E+5
  -2.21580E+5  -1.27572E+5
  -2.17523E+5  -1.27448E+5
  -2.13821E+5  -1.27716E+5
  -2.10092E+5  -1.27610E+5
  -2.06247E+5  -1.27114E+5
  -2.02648E+5  -1.27008E+5
  -1.98639E+5  -1.27084E+5
  -1.95052E+5  -1.26873E+5
  -1.91246E+5  -1.26421E+5
  -1.87875E+5  -1.26277E+5
  -1.84226E+5  -1.25688E+5
  -1.80667E+5  -1.25195E+5
  -1.77375E+5  -1.24661E+5
  -1.74106E+5  -1.24554E+5
  -1.70438E+5  -1.23737E+5
  -1.67096E+5  -1.23147E+5
  -1.64283E+5  -1.22662E+5
  -1.60867E+5  -1.21989E+5
  -1.57563E+5  -1.21591E+5
  -1.54572E+5  -1.20874E+5
  -1.51571E+5  -1.20296E+5
  -1.48368E+5  -1.19905E+5
  -1.45400E+5  -1.19300E+5
  -1.42071E+5  -1.18690E+5
  -1.39067E+5  -1.18061E+5
  -1.36518E+5  -1.17513E+5
  -1.33332E+5  -1.17126E+5
  -1.30575E+5  -1.16793E+5
  -1.27731E+5  -1.15904E+5
  -1.24795E+5  -1.15745E+5
  -1.22237E+5  -1.14728E+5
  -1.19816E+5  -1.14255E+5
  -1.17042E+5  -1.13536E+5
  -1.14467E+5  -1.12663E+5
  -1.12112E+5  -1.11983E+5
  -1.09699E+5  -1.11560E+5
  -1.07067E+5  -1.11204E+5
  -1.04272E+5  -1.10582E+5
  -1.01643E+5  -1.09681E+5
  -9.90161E+4  -1.09232E+5
  -9.69029E+4  -1.08553E+5
  -9.46094E+4  -1.08044E+5
  -9.19955E+4  -1.07251E+5
  -8.97337E+4  -1.06907E+5
  -8.71913E+4  -1.06339E+5
  -8.51011E+4  -1.05604E+5
  -8.25521E+4  -1.05346E+5
  -8.03794E+4  -1.04226E+5
  -7.83619E+4  -1.03735E+5
  -7.61681E+4  -1.02965E+5
  -7.40135E+4  -1.02396E+5
  -7.17851E+4  -1.01769E+5
  -7.01402E+4  -1.00992E+5
  -6.80515E+4  -1.00282E+5
  -6.60383E+4  -9.95239E+4
  -6.42271E+4  -9.88618E+4
  -6.21269E+4  -9.81210E+4
  -6.05167E+4  -9.74608E+4
  -5.88586E+4  -9.68956E+4
  -5.71705E+4  -9.61400E+4
  -5.50676E+4  -9.54189E+4
  -5.34570E+4  -9.43835E+4
  -5.19306E+4  -9.37546E+4
  -5.02308E+4  -9.28631E+4
  -4.90645E+4  -9.20434E+4
  -4.75939E+4  -9.10661E+4
  -4.62851E+4  -9.03142E+4
  -4.47217E+4  -8.95764E+4
  -4.35705E+4  -8.86270E+4
  -4.20855E+4  -8.79425E+4
  -4.08873E+4  -8.69356E+4
  -3.97086E+4  -8.57530E+4
  -3.85024E+4  -8.47817E+4
  -3.74706E+4  -8.41527E+4
  -3.62272E+4  -8.34701E+4
  -3.48770E+4  -8.23581E+4
  -3.39660E+4  -8.15153E+4
  -3.28992E+4  -8.04811E+4
  -3.20224E+4  -7.94602E+4
  -3.12216E+4  -7.85438E+4
  -3.04400E+4  -7.75489E+4
  -2.94210E+4  -7.65426E+4
  -2.87156E+4  -7.55541E+4
  -2.76702E+4  -7.50480E+4
  -2.64770E+4  -7.37474E+4
  -2.60818E+4  -7.27148E+4
  -2.54438E+4  -7.18164E+4
  -2.47639E+4  -7.10145E+4
  -2.39142E+4  -7.01668E+4
  -2.31174E+4  -6.92093E+4
  -2.23854E+4  -6.81420E+4
  -2.17818E+4  -6.71189E+4
  -2.10401E+4  -6.63062E+4
  -2.03140E+4  -6.54166E+4
  -1.98504E+4  -6.42534E+4
  -1.91809E+4  -6.35107E+4
  -1.88574E+4  -6.24199E+4
  -1.80032E+4  -6.18753E+4
  -1.72193E+4  -6.09214E+4
  -1.67798E+4  -5.98795E+4
  -1.64968E+4  -5.88748E+4
  -1.57825E+4  -5.84011E+4
  -1.51595E+4  -5.76979E+4
  -1.47237E+4  -5.68118E+4
  -1.40403E+4  -5.61533E+4
  -1.33477E+4  -5.51015E+4
  -1.27765E+4  -5.44386E+4
  -1.25018E+4  -5.36106E+4
  -1.18219E+4  -5.27823E+4
  -1.15214E+4  -5.21565E+4
  -1.09116E+4  -5.12785E+4
  -1.06322E+4  -5.07878E+4
  -1.00042E+4  -5.00058E+4
  -9.56145E+3  -4.94174E+4
  -9.19299E+3  -4.87619E+4
  -8.93495E+3  -4.80879E+4
  -8.54906E+3  -4.72934E+4
  -8.11844E+3  -4.68315E+4
  -7.46287E+3  -4.57668E+4
  -7.63494E+3  -4.54937E+4
  -6.93990E+3  -4.49949E+4
  -6.48328E+3  -4.41432E+4
  -6.42521E+3  -4.37811E+4
  -6.12390E+3  -4.30957E+4
  -5.54530E+3  -4.26178E+4
  -5.19047E+3  -4.19160E+4
  -5.23210E+3  -4.15822E+4
  -4.81036E+3  -4.09404E+4
  -4.73194E+3  -4.02573E+4
  -4.34456E+3  -3.98085E+4
  -3.92774E+3  -3.93902E+4
  -3.90195E+3  -3.88406E+4
  -3.68181E+3  -3.82146E+4
  -3.70444E+3  -3.78897E+4
  -3.32647E+3  -3.74273E+4
  -2.98596E+3  -3.71194E+4
  -2.79916E+3  -3.64899E+4
  -2.75313E+3  -3.58474E+4
  -2.54734E+3  -3.55836E+4
  -2.43028E+3  -3.50959E+4
  -2.27989E+3  -3.45896E+4
  -2.19151E+3  -3.42016E+4
  -2.14939E+3  -3.36973E+4
  -1.72962E+3  -3.33670E+4
  -1.84460E+3  -3.30100E+4
  -1.70797E+3  -3.22571E+4
  -1.52713E+3  -3.19327E+4
  -1.79269E+3  -3.15987E+4
  -1.49413E+3  -3.14103E+4
  -1.34974E+3  -3.09932E+4
  -1.22723E+3  -3.02860E+4
  -1.10264E+3  -3.01585E+4
  -1.32387E+3  -2.98857E+4
  -8.52029E+2  -2.93851E+4
  -8.14466E+2  -2.92211E+4
  -7.12455E+2  -2.83726E+4
  -6.72304E+2  -2.83554E+4
  -3.93567E+2  -2.81094E+4
  -4.97434E+2  -2.79283E+4
  -3.58431E+2  -2.74062E+4
  -1.74057E+2  -2.72305E+4
  -4.39996E+2  -2.66434E+4
  -2.71240E+1  -2.64964E+4
   4.14247E+1  -2.60018E+4
   2.14027E+2  -2.58298E+4
   5.57315E+1  -2.56444E+4
   2.00973E+2  -2.54299E+4
   3.86373E+2  -2.50113E+4
   4.81131E+2  -2.47130E+4
   4.80239E+2  -2.42400E+4
   6.36463E+2  -2.39387E+4
   7.52092E+2  -2.39639E+4
   9.38827E+2  -2.39091E+4
   1.04425E+3  -2.33958E+4
   1.28557E+3  -2.31129E+4
   1.33894E+3  -2.29148E+4
   1.35093E+3  -2.28448E+4
   1.45833E+3  -2.23960E+4
   1.52203E+3  -2.21903E+4
   1.74103E+3  -2.21331E+4
   1.84599E+3  -2.17239E+4
   1.95537E+3  -2.14359E+4
   1.86613E+3  -2.11907E+4
   1.99278E+3  -2.11467E+4
   2.13899E+3  -2.08730E+4
   2.34454E+3  -2.06676E+4
   2.66351E+3  -2.05217E+4
   2.64337E+3  -2.03505E+4
   2.62790E+3  -2.00682E+4
   2.90422E+3  -1.99325E+4
   2.87909E+3  -1.96688E+4
   2.82577E+3  -1.93885E+4
   3.04140E+3  -1.93924E+4
   3.10411E+3  -1.90725E+4
   3.48450E+3  -1.89940E+4
   3.11723E+3  -1.87268E+4
   3.35778E+3  -1.85452E+4
   3.74431E+3  -1.83000E+4
   3.49133E+3  -1.81995E+4
   3.87125E+3  -1.79611E+4
   3.81697E+3  -1.81592E+4
   3.85239E+3  -1.79337E+4
   3.98363E+3  -1.75628E+4
   3.78121E+3  -1.73970E+4
   4.16884E+3  -1.71817E+4
   4.30040E+3  -1.71150E+4
   4.29474E+3  -1.68061E+4
   4.26569E+3  -1.67074E+4
   4.22232E+3  -1.64615E+4
   4.37699E+3  -1.64546E+4
   4.48109E+3  -1.62489E+4
   4.63581E+3  -1.56811E+4
