 
 $NMID
 ID=''
 FMTDAT='(2E13.5)'
 TRAMP=   1.00000E+0
 VOLUME=   1.00000E+0
 $END
   3.07910E+3   1.70601E+4
   1.12130E+4   2.03184E+4
   4.85819E+3   1.31125E+3
  -1.58911E+4   7.29551E+3
  -1.05065E+4   1.51540E+4
  -9.12709E+2  -4.05435E+3
  -8.56685E+3  -9.95215E+3
  -6.81261E+3   1.44431E+3
   2.13360E+3  -4.42086E+3
  -2.73087E+3  -9.54692E+3
  -7.56361E+2  -2.12575E+3
   8.22817E+3  -4.35999E+3
   3.77903E+3  -5.19038E+3
   5.70623E+2   4.45335E+3
   6.80439E+3   2.38682E+3
   5.02229E+3  -1.04744E+3
  -9.42418E+2   7.78929E+3
  -6.32732E+2   8.16388E+3
  -2.92770E+3   6.94716E+2
  -4.25622E+3   2.06699E+3
  -1.91099E+3   1.78485E+3
  -3.15908E+3  -3.27577E+3
  -3.45036E+3  -1.16663E+3
  -2.64724E+2  -8.23651E+2
   1.25515E+2  -5.45508E+3
   1.92318E+3  -3.11927E+3
   4.03970E+3   7.20394E+2
   1.99128E+2  -8.44218E+2
   1.73990E+2  -7.53086E+2
   4.09662E+3   1.91549E+3
   1.45983E+3   2.36212E+3
  -2.08812E+3   2.32717E+3
  -1.54014E+3   1.32155E+3
  -2.20600E+3  -6.37260E+2
  -1.67404E+3  -4.99422E+2
   1.16858E+3   2.00235E+2
  -9.93786E+2   1.27950E+1
  -3.10755E+3  -4.22184E+2
   2.75690E+1  -1.58220E+3
   6.20547E+2  -2.24573E+3
  -8.03890E+2  -4.51162E+2
   1.28414E+3  -1.09734E+3
   2.39469E+3  -1.18224E+3
   1.55539E+3   1.43789E+3
   1.26228E+3   1.80107E+3
  -2.92731E+1   1.53558E+3
  -1.92771E+3   2.67200E+3
  -1.92467E+3   8.32197E+2
  -1.57712E+3  -1.85448E+3
  -9.37899E+2  -7.27896E+2
   2.99301E+2  -2.30507E+2
  -2.56336E+2  -1.51963E+3
  -1.99781E+2  -7.48359E+2
   7.92276E+2   1.18289E+2
   2.90718E+2  -5.49677E+2
  -2.29248E+2   1.42334E+2
   7.33903E+2  -3.49102E+2
   6.84509E+2  -1.09815E+3
   1.05252E+3   1.48205E+2
   1.61658E+3   1.37162E+3
   2.57139E+2   6.91709E+2
  -5.69523E+2   1.35030E+3
  -4.41119E+2   1.29219E+3
  -1.48267E+3  -1.91931E+2
  -2.18411E+3  -9.50661E+2
  -8.11812E+1  -1.55806E+3
   9.63320E+2  -1.69469E+3
   8.14566E+2  -7.73634E+2
   1.01461E+3   3.36719E+2
   2.56106E+2  -3.43451E+2
  -9.02791E+1  -5.39513E+2
   1.13968E+3  -3.85814E+2
   1.09901E+3   3.33288E+2
  -5.12545E+2   8.11516E+2
  -2.17609E+2   2.95250E+2
   1.46129E+2  -3.69638E+2
  -2.67879E+2   4.36527E+2
  -2.44907E+2   3.81108E+2
  -3.18748E+2  -6.53703E+2
  -5.79635E+2  -6.50163E+2
  -3.88853E+2  -6.93746E+2
   5.27025E+1  -8.63049E+2
   2.40356E+2  -3.76586E+2
   2.85172E+2  -2.08137E+2
   1.69331E+2  -7.91049E+2
   5.35751E+2  -5.01482E+2
   7.05164E+2   3.10027E+2
   1.65974E+2   3.96938E+2
  -2.49202E+2   1.54070E+2
   2.54451E+2   2.20978E+2
   4.05168E+2   3.06726E+2
  -4.20260E+2   4.76900E+2
  -1.14143E+3   8.41074E+1
  -8.37541E+2  -7.41752E+2
  -6.29331E+1  -9.07157E+2
   3.09143E+2  -2.64306E+2
   2.46332E+1  -4.91463E+2
  -1.01534E+2  -4.37255E+2
   5.45083E+2  -2.45475E+2
   5.12239E+2  -7.32454E+1
   1.44938E+2   3.59463E+2
  -4.10525E+2   2.93545E+2
  -2.51372E+2  -4.71802E+1
  -3.63340E+1  -1.88047E+2
   2.58664E+2  -1.87278E+0
   4.00829E+2   4.95501E+2
  -4.74703E+2   8.74832E+2
  -6.80396E+2  -1.93732E+2
  -2.95985E+2  -9.68047E+2
   7.35378E+2  -3.53673E+2
   4.78770E+2   5.71591E+2
  -1.03873E+1   2.75668E+2
  -6.10863E+2  -2.89119E+2
   8.09299E+1   7.03870E+1
   1.38489E+2   1.60046E+2
  -2.72006E+2   1.08490E+2
  -4.39931E+2  -3.09859E+2
   2.25730E+2  -6.76952E+2
   3.94495E+2  -3.12906E+2
   5.81413E+2   3.71831E+1
   6.62891E+2   4.31002E+2
   1.72162E+2   3.94692E+2
  -2.37367E+2   4.37941E+2
  -1.95119E+2   1.66995E+2
  -4.25026E+2  -5.17549E+1
  -1.81366E+2  -3.75001E+2
   2.76721E+2  -1.51825E+2
   1.27507E+2  -3.06283E+2
   1.84725E+2   2.31316E+1
   2.30079E+2   1.81292E+2
  -3.09126E+2  -5.24329E+1
  -2.47560E+2  -5.52287E+2
   3.92746E+2  -3.88990E+2
   3.14903E+2  -2.66080E+2
  -1.42223E+2   1.40868E+2
   1.71369E+2  -1.31605E+2
   4.19210E+2   9.33558E+1
   1.93390E+2   3.49359E+2
  -2.02090E+2   4.83819E+2
  -5.62731E+2  -1.11004E+2
  -1.76927E+2  -2.72479E+2
   6.55767E+1  -2.02120E+2
   4.33766E+2   2.47195E+1
  -6.56550E+1   2.15054E+2
  -2.78541E+2  -1.43910E+1
  -3.82681E+2  -1.11837E+2
  -1.94527E+2  -8.43988E+1
   2.38537E+2  -1.36465E+2
  -2.57728E+2  -3.81680E+0
  -2.39231E+2  -4.26354E+2
   7.18620E+1  -2.40246E+2
   3.12847E+2  -1.48195E+1
   2.76825E+2   3.70320E+2
  -1.94226E+2   4.33716E+2
  -3.25981E+2  -7.37719E+1
  -2.65649E+2  -9.37544E+1
   1.41924E+2   3.41504E+2
  -1.70524E+2   3.42592E+2
  -3.98521E+1   1.05736E+2
  -8.18191E+1  -6.58688E+1
  -7.10394E+1  -1.64647E+1
  -6.00496E+1   1.76510E+2
  -5.45278E+1   2.06244E+2
   2.22725E+2  -2.55135E+2
   1.85677E+2  -2.69789E+1
   4.03807E+2   1.42655E+2
   1.58509E+2   3.42284E+2
  -3.13023E+1   2.11050E+2
  -1.33036E+2   1.11447E+2
   2.14798E+2   3.20421E+1
   4.86111E+1   4.91094E+1
  -1.25885E+2   1.57610E+2
  -1.04424E+2   2.96662E+2
  -2.55735E+1   1.28076E+2
   1.14168E+2  -2.76268E+1
   8.56538E+1   4.21029E+2
  -3.54876E+2   5.12109E+2
  -1.19264E+2  -1.73218E+2
   1.62009E+2  -2.29923E+2
   3.26519E+2   1.51142E+2
   2.41104E+2   6.31548E+2
  -2.61878E+1   4.85179E+2
  -1.64692E+2  -1.14455E+2
   5.23010E+1   5.03032E+1
  -4.28076E+1  -1.69412E+2
   2.49338E+2  -3.28500E+1
   1.22942E+2  -5.81497E+1
   1.05843E+2  -2.82843E+2
   2.38086E+2   1.91964E+2
   2.13006E+2   4.38984E+2
  -1.22012E+2   4.08960E+2
  -5.47687E+2   1.16760E+2
   1.13973E+2  -1.83829E+2
   1.09160E+2  -7.37020E+1
   2.40077E+1  -8.08839E+1
  -1.57304E+2  -2.93314E+1
  -1.30130E+1  -4.01217E+1
   1.17789E+2   6.90810E+1
  -6.22717E+1   2.85266E+2
   4.05437E+0   3.18685E+1
  -1.18071E+2  -2.04179E+1
   1.02075E+2  -1.81395E+2
   4.16668E+2   8.19002E+1
   3.56858E+2   5.22163E+1
   4.38222E+1   1.33703E+2
  -2.93198E+2   7.87042E+1
   2.36770E+2  -5.11312E+1
   8.36062E+1  -1.74770E+1
  -1.94336E+1   9.52768E+1
  -3.10577E+1   1.21464E+1
  -9.60860E+1  -1.08372E+2
   1.55802E+1   6.96097E+1
   1.24219E+2   2.64750E+2
  -3.17111E+2   2.71730E+2
  -3.68308E+2   1.68679E+1
  -2.84738E+2  -2.95473E+2
   1.15739E+2  -2.27252E+2
   2.95510E+2  -2.34363E+2
   1.52147E+2   1.75422E+2
   1.11633E+2   1.05176E+2
  -8.06390E+1   8.11478E+1
   8.42812E+1   3.34978E+2
  -9.31552E+1   2.42647E+2
  -1.84210E+2   4.71023E+1
  -1.43150E+2  -1.17564E+2
  -9.18324E+1  -1.10157E+2
  -1.72097E+1  -9.77332E+0
  -1.14593E+2   4.37467E+2
  -1.96633E+2   4.97718E+1
  -2.12674E+2  -3.50392E+1
  -5.35527E+1  -1.24931E+2
  -3.18612E+1   2.24489E+2
   6.99103E+1   2.96705E+2
  -1.47594E+2   5.07597E+0
  -6.94543E+1   3.07316E+1
   1.37252E+2   2.29816E+1
   5.09867E+1   1.19970E+2
  -1.43477E+2   1.66258E+2
  -2.79921E+2  -3.94988E+1
  -2.19844E+1  -8.09987E+1
  -1.43144E+0   1.53366E+1
  -2.03901E+1   1.00278E+2
  -3.62502E+2   2.37411E+1
   5.56974E+1  -4.06608E+1
   2.43369E+1  -1.89203E+0
   2.09130E+2   1.42565E+2
  -1.79584E+2   3.93052E+2
  -6.38025E+1  -6.15449E+1
   2.19375E+2  -2.23798E+2
  -4.53614E+1   1.25768E+2
  -2.90555E+1   3.92557E+2
   1.10804E+2   2.16433E+2
  -2.81843E+2   1.09415E+2
  -2.64087E+2  -1.01243E+2
   1.98293E+2   1.23562E+2
  -7.82772E+1   3.16373E+2
   3.64276E+1   1.62692E+2
  -6.78689E+0   1.45162E+2
   2.51175E+1   1.41762E+2
   1.39851E+2   2.05944E+2
  -2.11904E+2   1.87060E+2
  -3.54867E+2  -3.49680E+1
  -5.75973E+1  -1.19847E+2
   2.54013E+2   2.75041E+1
   3.15677E+2  -1.50961E+0
   3.43827E+1   2.77599E+2
  -2.35087E+2   7.33291E+1
  -6.22200E+1   3.89934E+1
   8.48100E+1  -1.02067E+1
  -6.27679E+1  -3.43972E+1
  -6.09407E+1   1.75545E+2
  -2.34395E+1   1.23124E+2
   8.86305E+1  -5.65498E+1
   3.31791E+2   1.59576E+1
  -4.08685E+1   2.84368E+2
  -2.22130E+2   2.15591E+2
  -4.03751E+1  -1.44295E+2
   2.67583E+2   1.50623E+1
   2.51176E+2   7.70293E+1
  -7.12594E+0   1.31315E+2
   5.44289E+1  -6.40387E+1
   3.90612E+1   3.71693E+1
   1.98251E+1   1.74761E+1
  -1.77214E+1   2.67424E+2
  -2.59933E+1   3.73647E+1
   8.22155E-1  -1.48761E+2
  -6.10153E+1  -8.74896E+1
  -1.75597E+2   1.21672E+1
   7.66248E+1   1.74290E+2
  -2.21242E+2   1.53395E+2
  -1.44712E+2   2.27729E+1
  -1.61915E+1  -5.70715E+1
  -3.67199E+1   5.16611E+1
   1.19714E+2   2.02965E+0
   5.96512E+1  -5.63492E+1
   6.82634E+1   1.49160E+2
   2.32452E+1  -1.69553E+2
  -2.74197E+1   4.81511E+1
  -1.35058E+2  -2.28229E+1
   1.49569E+2  -7.32935E+1
   2.13544E+1  -1.87740E+2
   8.29401E+1   1.11599E+2
   9.19216E+1   1.47518E+2
  -9.40439E+1   2.16102E+2
  -1.24422E+2  -1.24761E+2
  -1.32236E+2  -3.06692E+1
  -4.30985E+1  -2.58113E+1
   1.10579E+1   6.42224E+1
   1.65554E+2   7.26733E+1
  -1.73002E+1  -1.86970E+2
   1.82568E+2  -6.37308E+1
  -1.12018E+2   6.86412E+1
  -1.32286E+2   6.50191E+1
  -2.78515E+2   2.36901E-1
  -1.36318E+2   3.44545E+1
  -2.64371E+1   4.43136E+1
   7.01330E+1   1.07126E+2
  -2.20495E+1   3.50876E+1
  -1.73050E+2   2.62062E+2
   3.77083E+1  -1.62711E+2
   3.09114E+1   6.52554E+1
   1.93755E+1   9.52047E+1
  -7.75709E+1   6.03604E+1
   4.21470E+1   4.42208E+1
  -2.33423E+1   1.55936E+2
   1.49497E+2   1.01604E+2
  -1.17134E+2   2.37075E+2
  -3.00341E+1   1.50642E+0
  -8.35418E+1   1.23349E+2
  -7.59948E+1  -9.58843E+1
   1.45235E+2  -1.45872E+2
  -2.76718E+1  -1.06166E+2
  -3.26930E+1  -5.04424E+1
  -4.45689E+1   2.52190E+0
  -4.83778E+1   3.37923E+2
  -2.00341E+2   1.28992E+2
  -1.13122E+2   8.56491E+1
  -1.23562E+2  -4.44261E+1
  -1.81088E+2  -9.07936E+1
   1.62438E+2   2.93283E+2
   3.77830E+1   1.45698E+2
   8.57026E+0   2.46576E+2
  -1.01108E+1  -2.79543E-1
   9.10574E+1  -4.72670E+1
  -8.12725E+0  -8.33249E+1
  -4.64961E+1  -1.58774E+2
   8.72742E+0   1.56913E+2
   3.21897E+2  -3.78433E+2
   3.61368E+1   1.36894E+2
  -3.66762E+1   1.71314E+2
  -1.39840E+2   1.38406E+2
  -1.21327E+2  -6.54393E+1
  -1.57718E+2   1.69020E+1
  -1.43404E+1   1.31033E+2
   1.84110E+2   2.12640E+2
   1.19407E+2  -1.66971E+2
   2.20773E+2  -2.35161E+2
   6.85444E+1   1.79211E+1
   1.22213E+1  -5.24489E+1
  -8.47319E+0   1.70859E-1
  -3.17503E+2  -1.16629E+2
  -2.03469E+1  -1.28751E+2
   5.69527E+1  -1.32643E+2
   2.11793E+2   1.97177E+2
   4.04636E+1   4.02561E+1
   7.32558E+1   6.49164E+1
   5.53602E+1  -8.45100E+0
