 LCModel (Version 6.3-1N) Copyright: S.W. Provencher.          Ref.: Magn. Reson. Med. 30:672-679 (1993).                
 Slice_N1@24_21  28-Feb-2025 11:43:41
 27 lines in following concentration table = NCONC+1
    Conc.  %SD /Cr+PCr  Metabolite                                         
 2.14E-04   7% 1.5E-04 Mac                                                 
   11.773  12%   8.000 Cr                                                  
    0.000 999%   0.000 PCr                                                 
    2.776  59%   1.886 Ins                                                 
    5.572  27%   3.786 NAA                                                 
    5.195  42%   3.530 Tau                                                 
    1.651 125%   1.122 PCho                                                
    1.715 112%   1.165 GPC                                                 
   15.221  11%  10.342 Glu                                                 
    3.342  43%   2.271 Gln                                                 
    0.000 999%   0.000 Ala                                                 
    4.249  57%   2.887 Asc                                                 
    3.147  41%   2.138 Asp                                                 
    0.676 113%   0.459 GABA                                                
    0.846  98%   0.575 Glc                                                 
    2.722  33%   1.850 GSH                                                 
   13.980   8%   9.500 Lac                                                 
    2.196  59%   1.492 NAAG                                                
    0.000 999%   0.000 PE                                                  
    3.367  13%   2.288 GPC+PCho                                            
    7.769  15%   5.279 NAA+NAAG                                            
   18.563  12%  12.614 Glu+Gln                                             
   11.773  12%   8.000 Cr+PCr                                              
    7.769  15%   5.279 NAA+NAAG                                            
   11.773  12%   8.000 Cr+PCr                                              
   18.563  12%  12.614 Glu+Gln                                             
   6 lines in following misc. output table
  FWHM = 0.114 ppm    S/N =   2                                            
  Data shift =-0.049 ppm                                                   
  Ph: -37 deg       0.0 deg/ppm                                            
  alphaB,S = 2.6E-01,   8.8E+01                                            
   15 spline knots.   Ns = 7(2)                                            
  ( 8) 4 infls.   ( 8) 1 extrs.                                            
  480 points on ppm-axis = NY
      4.100000     4.091866     4.083733     4.075600     4.067466     4.059333     4.051199     4.043066     4.034933     4.026799
      4.018666     4.010532     4.002399     3.994265     3.986132     3.977998     3.969864     3.961731     3.953597     3.945463
      3.937330     3.929196     3.921062     3.912929     3.904795     3.896662     3.888528     3.880394     3.872261     3.864127
      3.855993     3.847860     3.839726     3.831592     3.823459     3.815325     3.807191     3.799058     3.790924     3.782790
      3.774657     3.766523     3.758389     3.750256     3.742122     3.733989     3.725855     3.717721     3.709588     3.701454
      3.693320     3.685187     3.677053     3.668919     3.660786     3.652652     3.644518     3.636385     3.628251     3.620117
      3.611984     3.603850     3.595716     3.587583     3.579449     3.571316     3.563182     3.555048     3.546915     3.538781
      3.530647     3.522514     3.514380     3.506246     3.498113     3.489979     3.481845     3.473712     3.465578     3.457444
      3.449311     3.441177     3.433043     3.424910     3.416776     3.408643     3.400509     3.392375     3.384242     3.376108
      3.367974     3.359841     3.351707     3.343573     3.335440     3.327306     3.319172     3.311039     3.302905     3.294771
      3.286638     3.278504     3.270370     3.262237     3.254103     3.245970     3.237836     3.229702     3.221569     3.213435
      3.205301     3.197168     3.189034     3.180900     3.172767     3.164633     3.156499     3.148366     3.140232     3.132098
      3.123965     3.115831     3.107697     3.099564     3.091430     3.083297     3.075163     3.067029     3.058896     3.050762
      3.042628     3.034495     3.026361     3.018227     3.010094     3.001960     2.993826     2.985693     2.977559     2.969425
      2.961292     2.953158     2.945024     2.936891     2.928757     2.920624     2.912490     2.904356     2.896223     2.888089
      2.879955     2.871822     2.863688     2.855554     2.847421     2.839287     2.831153     2.823020     2.814886     2.806752
      2.798619     2.790485     2.782351     2.774218     2.766084     2.757951     2.749817     2.741683     2.733550     2.725416
      2.717282     2.709149     2.701015     2.692881     2.684748     2.676614     2.668480     2.660347     2.652213     2.644079
      2.635946     2.627812     2.619678     2.611545     2.603411     2.595278     2.587144     2.579010     2.570877     2.562743
      2.554609     2.546476     2.538342     2.530208     2.522075     2.513941     2.505807     2.497674     2.489540     2.481406
      2.473273     2.465139     2.457006     2.448872     2.440738     2.432605     2.424471     2.416337     2.408204     2.400070
      2.391936     2.383803     2.375669     2.367535     2.359402     2.351268     2.343134     2.335001     2.326867     2.318733
      2.310600     2.302466     2.294333     2.286199     2.278065     2.269932     2.261798     2.253664     2.245531     2.237397
      2.229263     2.221130     2.212996     2.204862     2.196729     2.188595     2.180461     2.172328     2.164194     2.156060
      2.147927     2.139793     2.131660     2.123526     2.115392     2.107259     2.099125     2.090991     2.082858     2.074724
      2.066590     2.058457     2.050323     2.042189     2.034056     2.025922     2.017788     2.009655     2.001521     1.993387
      1.985254     1.977120     1.968987     1.960853     1.952719     1.944586     1.936452     1.928318     1.920185     1.912051
      1.903917     1.895784     1.887650     1.879516     1.871383     1.863249     1.855115     1.846982     1.838848     1.830714
      1.822581     1.814447     1.806314     1.798180     1.790046     1.781913     1.773779     1.765645     1.757512     1.749378
      1.741244     1.733111     1.724977     1.716843     1.708710     1.700576     1.692442     1.684309     1.676175     1.668041
      1.659908     1.651774     1.643641     1.635507     1.627373     1.619240     1.611106     1.602972     1.594839     1.586705
      1.578571     1.570438     1.562304     1.554170     1.546037     1.537903     1.529769     1.521636     1.513502     1.505368
      1.497235     1.489101     1.480968     1.472834     1.464700     1.456567     1.448433     1.440299     1.432166     1.424032
      1.415898     1.407765     1.399631     1.391497     1.383364     1.375230     1.367096     1.358963     1.350829     1.342695
      1.334562     1.326428     1.318295     1.310161     1.302027     1.293894     1.285760     1.277626     1.269493     1.261359
      1.253225     1.245092     1.236958     1.228824     1.220691     1.212557     1.204423     1.196290     1.188156     1.180022
      1.171889     1.163755     1.155622     1.147488     1.139354     1.131221     1.123087     1.114953     1.106820     1.098686
      1.090552     1.082419     1.074285     1.066151     1.058018     1.049884     1.041750     1.033617     1.025483     1.017349
      1.009216     1.001082     0.992949     0.984815     0.976681     0.968548     0.960414     0.952280     0.944147     0.936013
      0.927879     0.919746     0.911612     0.903478     0.895345     0.887211     0.879077     0.870944     0.862810     0.854676
      0.846543     0.838409     0.830276     0.822142     0.814008     0.805875     0.797741     0.789607     0.781474     0.773340
      0.765206     0.757073     0.748939     0.740805     0.732672     0.724538     0.716404     0.708271     0.700137     0.692003
      0.683870     0.675736     0.667603     0.659469     0.651335     0.643202     0.635068     0.626934     0.618801     0.610667
      0.602533     0.594400     0.586266     0.578132     0.569999     0.561865     0.553731     0.545598     0.537464     0.529330
      0.521197     0.513063     0.504930     0.496796     0.488662     0.480529     0.472395     0.464261     0.456128     0.447994
      0.439861     0.431727     0.423593     0.415460     0.407326     0.399192     0.391059     0.382925     0.374792     0.366658
      0.358524     0.350391     0.342257     0.334124     0.325990     0.317856     0.309723     0.301589     0.293455     0.285322
      0.277188     0.269055     0.260921     0.252787     0.244654     0.236520     0.228386     0.220253     0.212119     0.203986
 NY phased data points follow
  -6.99043E+01 -8.04361E+01 -8.35985E+01 -6.18015E+01 -8.58656E+01 -9.40940E+01 -8.97255E+01 -9.90388E+01 -7.96453E+01 -8.64761E+01
  -8.77062E+01 -9.58100E+01 -7.24128E+01 -7.94527E+01 -1.03028E+02 -9.17743E+01 -1.11227E+02 -1.01896E+02 -1.09130E+02 -1.11689E+02
  -1.06934E+02 -1.08812E+02 -1.14081E+02 -1.01437E+02 -8.78053E+01 -1.19296E+02 -8.56204E+01 -8.83655E+01 -8.16839E+01 -5.27432E+01
  -8.07870E+01 -6.15929E+01 -6.00804E+01 -7.78429E+01 -7.45864E+01 -6.28940E+01 -6.86951E+01 -8.42334E+01 -7.81519E+01 -1.06962E+02
  -1.13116E+02 -9.29399E+01 -9.45896E+01 -8.86620E+01 -7.25702E+01 -6.34051E+01 -7.68595E+01 -5.77164E+01 -5.28058E+01 -6.94876E+01
  -4.72521E+01 -3.53454E+01 -2.67726E+01 -4.97360E+01 -3.40992E+01 -2.77973E+01 -4.71305E+01 -3.98671E+01 -6.60497E+01 -3.56756E+01
  -3.99581E+01 -3.64655E+01 -1.68898E+01 -5.00673E+01 -3.18989E+01 -3.95309E+01 -3.12820E+01 -1.99629E+01 -1.99183E+01 -7.51982E+00
  -1.67075E+01 -1.87129E+01 -1.36153E+01 -8.39095E+00 -1.96834E+01 -1.84129E+01 -1.46563E+01 -2.54791E-01  2.45437E+00 -1.94821E+01
  -1.83345E+01 -1.41105E+01  1.28867E+00  2.18469E-01 -9.10329E+00 -5.72203E+00 -4.73977E+00 -1.25204E+01 -1.34414E+01  1.61725E+00
   1.02734E+01  1.50461E+01  1.73752E+01  1.44086E+01  1.73317E+01  3.14980E+01  1.81551E+01  1.90854E+01  3.88106E+01  1.79851E+01
   2.10604E+01  1.91254E+01  8.55002E+00  9.51703E+00 -1.63255E+01 -2.68743E+01 -3.61080E+01 -5.18012E+01 -4.98750E+01 -6.06065E+01
  -6.67490E+01 -6.47259E+01 -8.08919E+01 -7.16451E+01 -4.89236E+01 -5.69839E+01 -6.26972E+01 -6.30839E+01 -5.11717E+01 -2.88642E+01
  -1.37303E+01 -8.22339E+00 -5.45250E+00  1.08954E+00  4.06307E+00  8.83530E+00  4.46909E+00  3.42658E+00  1.12143E+00 -4.79695E+00
   4.24133E+00  4.00679E+00  1.40253E+00 -2.11822E+01 -2.72289E+01 -2.35830E+01 -5.18507E+01 -4.66951E+01 -6.23685E+01 -9.07198E+01
  -9.38576E+01 -9.93571E+01 -5.57773E+01 -5.50682E+01 -8.40221E+01 -7.67909E+01 -8.61027E+01 -7.72499E+01 -7.59918E+01 -7.68943E+01
  -6.48814E+01 -7.67826E+01 -7.40340E+01 -5.88505E+01 -6.87213E+01 -6.96244E+01 -4.94986E+01 -4.24944E+01 -4.11794E+01 -5.17684E+01
  -4.19762E+01 -4.06842E+01 -4.98093E+01 -3.94146E+01 -4.36472E+01 -3.74471E+01 -2.95591E+01 -3.28464E+01 -3.83185E+01 -2.78191E+01
  -5.59888E+01 -6.06742E+01 -3.13096E+01 -4.11142E+01 -1.90763E+01 -3.75268E+01 -3.33827E+01 -2.49935E+01 -4.67243E+01 -4.60218E+01
  -4.90523E+01 -4.38423E+01 -5.64538E+01 -2.83824E+01 -4.35142E+01 -5.69835E+01 -5.26674E+01 -6.76532E+01 -5.54917E+01 -6.92379E+01
  -4.36877E+01 -5.67112E+01 -5.02619E+01 -2.06879E+01 -3.82736E+01 -5.50549E+01 -7.21440E+01 -4.54320E+01 -4.48607E+01 -5.69659E+01
  -4.92058E+01 -1.97935E+01 -2.20697E+01 -5.23743E+01 -4.13806E+01 -4.88900E+01 -4.60538E+01 -3.47974E+01 -4.43747E+01 -3.91935E+01
  -2.69923E+01 -5.90697E+01 -5.13029E+01 -2.26944E+01 -3.67215E+01 -2.91815E+01 -4.87249E+01 -3.20563E+01 -3.50205E+00 -1.17514E+01
   4.16917E+00 -1.21296E+01 -1.09132E+01  5.34812E+00 -1.29519E+01 -2.17056E+01 -2.25071E+01 -2.54200E+01 -2.22622E+01 -1.33938E+01
  -2.53200E+01 -2.81855E+01 -2.07907E+01 -4.19415E+01 -3.81971E+01 -4.07620E+01 -5.38568E+01 -4.78494E+01 -5.43383E+01 -6.54548E+01
  -7.30532E+01 -5.89793E+01 -5.82881E+01 -7.08925E+01 -6.39805E+01 -6.41759E+01 -5.83430E+01 -4.67863E+01 -4.80449E+01 -5.06258E+01
  -4.96034E+01 -3.67966E+01 -2.59964E+01 -2.53546E+01 -1.41876E+01 -1.08320E+01 -3.79293E+00 -2.19517E-02  2.56610E+01  3.47187E+01
   1.62707E+01  5.01987E+01  4.46286E+01  4.18658E+01  6.89571E+01  9.51626E+01  1.03859E+02  3.99168E+01  2.96072E+01  5.23246E+01
   5.09782E+01  4.96827E+01  4.44983E+01  4.36739E+01  3.04235E+01  3.92503E+01  3.56640E+01  1.95340E+01  3.88389E+01  3.13793E+01
   2.88835E+01  3.76447E+01  2.70719E+01  3.19186E+01  2.79402E+01  3.32788E+01  3.62223E+01  2.52379E+01  2.53957E+01  1.75598E+01
  -2.37514E+00  1.34896E+01  3.06394E+01  1.40877E+01  1.92454E+01 -1.30681E+00  1.67517E+01  8.62969E+00 -1.81935E+01  4.78069E+00
  -1.26722E+01  6.07067E+00 -8.51610E-01  9.98138E+00  1.65041E+01  2.43988E+01  4.02018E+01 -4.90693E+00  2.76117E+01  8.63200E+00
   3.30695E+00  2.28350E+01 -5.61902E+00  1.07680E+01  7.80638E+00  1.70647E+01  1.19394E+01  6.12824E-01  2.90845E+01  2.73185E+01
  -2.77006E+00  6.08460E+00  3.61180E+01  4.80501E+01  5.23162E+01  5.43058E+01  4.38268E+01  4.63312E+01  5.27323E+01  4.25650E+01
   5.04249E+01  4.65203E+01  6.16985E+01  5.49613E+01  6.32396E+01  5.80466E+01  6.53075E+00  2.84071E+01 -5.96358E+00 -3.52069E+01
  -1.94957E+01 -2.99930E+01 -3.62721E+01 -4.40319E+01 -4.57674E+01 -4.61353E+01 -4.86710E+01 -6.15559E+01 -3.79891E+01 -3.55602E+01
  -3.34698E+01 -2.82997E+01 -3.73389E+01 -3.18913E+01 -2.93713E+01 -3.18938E+01 -5.05095E+01 -3.32800E+01 -5.22719E+01 -3.71961E+01
  -1.74308E+01 -3.24858E+01 -1.38285E+01 -4.62897E+01 -3.26963E+01 -3.38404E+01 -4.50016E+01 -1.12119E+01 -1.89835E+01 -2.99497E+01
  -1.29778E+01  7.75476E+00 -3.44930E+00 -5.90638E+00  1.21862E+01  1.57857E+01  2.59712E+00  2.24023E+00  1.72830E+01  4.15885E+01
   2.18679E+01  1.05437E-01  4.23110E+01  4.90309E+01  4.26905E+01  3.46986E+01  3.74457E+01  4.49420E+01  3.69552E+01  4.66877E+01
   3.78138E+01  3.72168E+01  2.89702E+01  2.61894E+01  3.61778E+01  9.07089E+00  1.92589E+01  2.92588E+01 -1.25130E+01 -1.78932E+01
  -1.78758E+01 -3.71673E+01 -4.57317E+01 -4.43144E+01 -3.83652E+01 -4.88419E+01 -4.84417E+01 -5.63713E+01 -4.77581E+01 -5.25788E+01
  -7.73372E+01 -5.33666E+01 -6.71458E+01 -6.40174E+01 -5.57437E+01 -7.13834E+01 -4.23471E+01 -6.23628E+01 -6.51184E+01 -4.40556E+01
  -5.72282E+01 -6.19416E+01 -6.32109E+01 -4.55061E+01 -6.25327E+01 -5.58019E+01 -4.56558E+01 -6.10645E+01 -4.57385E+01 -7.20359E+01
  -4.45883E+01 -2.68034E+01 -5.79192E+01 -5.94816E+01 -5.88931E+01 -4.42828E+01 -5.77511E+01 -4.43674E+01 -4.67531E+01 -6.37599E+01
  -4.41882E+01 -4.80157E+01 -5.79969E+01 -4.94792E+01 -2.98343E+01 -4.75090E+01 -5.03127E+01 -4.21083E+01 -4.77629E+01 -4.82250E+01
  -4.61652E+01 -4.97149E+01 -5.94302E+01 -3.88770E+01 -4.31016E+01 -4.54328E+01 -4.47758E+01 -5.45151E+01 -5.47600E+01 -6.30335E+01
  -4.26228E+01 -3.86541E+01 -5.19707E+01 -5.64196E+01 -4.76245E+01 -3.43430E+01 -4.85116E+01 -5.20187E+01 -4.86684E+01 -4.91447E+01
  -2.89161E+01 -3.53596E+01 -4.09993E+01 -3.29098E+01 -5.41144E+01 -3.84753E+01 -2.57843E+01 -4.06263E+01 -4.62211E+01 -3.53651E+01
 NY points of the fit to the data follow
  -9.60047E+01 -9.00566E+01 -9.24358E+01 -8.79251E+01 -8.95965E+01 -8.69199E+01 -8.80121E+01 -8.71371E+01 -8.79997E+01 -8.88829E+01
  -9.11008E+01 -9.36054E+01 -9.64885E+01 -1.00442E+02 -1.02575E+02 -1.07395E+02 -1.07117E+02 -1.11490E+02 -1.07616E+02 -1.10727E+02
  -1.03515E+02 -1.05388E+02 -9.57484E+01 -9.64973E+01 -8.51192E+01 -8.49036E+01 -7.33514E+01 -7.29658E+01 -6.34819E+01 -6.36188E+01
  -5.80502E+01 -5.94679E+01 -5.89321E+01 -6.15587E+01 -6.41268E+01 -6.69859E+01 -6.97399E+01 -7.21442E+01 -7.44649E+01 -7.62214E+01
  -7.83808E+01 -7.90895E+01 -7.86627E+01 -7.82943E+01 -7.57414E+01 -7.45063E+01 -7.04534E+01 -6.87634E+01 -6.40617E+01 -6.22984E+01
  -5.80348E+01 -5.62960E+01 -5.28737E+01 -5.10224E+01 -4.80189E+01 -4.59273E+01 -4.30046E+01 -4.07752E+01 -3.82825E+01 -3.57566E+01
  -3.38018E+01 -3.15078E+01 -3.02152E+01 -2.81860E+01 -2.71066E+01 -2.51681E+01 -2.39657E+01 -2.19747E+01 -2.04214E+01 -1.84734E+01
  -1.66470E+01 -1.52379E+01 -1.36052E+01 -1.30215E+01 -1.18084E+01 -1.20791E+01 -1.12694E+01 -1.22695E+01 -1.18130E+01 -1.29433E+01
  -1.28287E+01 -1.35944E+01 -1.34264E+01 -1.34237E+01 -1.28340E+01 -1.18945E+01 -1.06425E+01 -8.82296E+00 -6.94966E+00 -4.09100E+00
  -1.60109E+00  1.75864E+00  4.80006E+00  7.69112E+00  1.10728E+01  1.32278E+01  1.76032E+01  1.73469E+01  2.14114E+01  1.75574E+01
   1.99033E+01  1.19614E+01  1.13379E+01  2.55504E-01 -3.51224E+00 -1.54183E+01 -2.10158E+01 -3.17507E+01 -3.78223E+01 -4.61381E+01
  -5.17569E+01 -5.65070E+01 -6.05072E+01 -6.12541E+01 -6.26941E+01 -5.98976E+01 -5.83331E+01 -5.24873E+01 -4.72343E+01 -3.78941E+01
  -3.13733E+01 -2.08613E+01 -1.55136E+01 -5.24552E+00 -1.62288E+00  6.32495E+00  7.92810E+00  9.69327E+00  7.53417E+00  4.23801E+00
  -2.13123E-01 -7.12511E+00 -1.30118E+01 -2.25193E+01 -2.87979E+01 -3.92521E+01 -4.49153E+01 -5.46367E+01 -5.88776E+01 -6.64154E+01
  -6.86712E+01 -7.28408E+01 -7.39281E+01 -7.60468E+01 -7.68839E+01 -7.87964E+01 -7.86222E+01 -7.90280E+01 -7.69466E+01 -7.42406E+01
  -7.21790E+01 -6.97479E+01 -6.78542E+01 -6.56215E+01 -6.39660E+01 -6.19322E+01 -6.04734E+01 -5.87932E+01 -5.74924E+01 -5.61432E+01
  -5.48385E+01 -5.36890E+01 -5.23124E+01 -5.13241E+01 -4.97943E+01 -4.87247E+01 -4.70579E+01 -4.59520E+01 -4.43922E+01 -4.33840E+01
  -4.21269E+01 -4.13382E+01 -4.05099E+01 -4.01433E+01 -3.99199E+01 -4.01727E+01 -4.05933E+01 -4.13971E+01 -4.21623E+01 -4.32120E+01
  -4.41800E+01 -4.51933E+01 -4.60709E+01 -4.66524E+01 -4.73710E+01 -4.73722E+01 -4.79562E+01 -4.73074E+01 -4.75484E+01 -4.64433E+01
  -4.61180E+01 -4.49944E+01 -4.44385E+01 -4.34194E+01 -4.27418E+01 -4.17977E+01 -4.11124E+01 -4.06571E+01 -4.02988E+01 -4.05911E+01
  -4.10644E+01 -4.21722E+01 -4.35481E+01 -4.55634E+01 -4.67711E+01 -4.92234E+01 -4.91042E+01 -5.06121E+01 -4.86821E+01 -4.78642E+01
  -4.46365E+01 -4.06912E+01 -3.70908E+01 -3.02677E+01 -2.72004E+01 -1.86527E+01 -1.66962E+01 -7.78499E+00 -7.76377E+00  9.81740E-02
  -2.38407E+00  3.31057E+00 -1.79003E+00  8.79726E-01 -6.03483E+00 -6.66862E+00 -1.40459E+01 -1.72081E+01 -2.44534E+01 -2.88240E+01
  -3.59940E+01 -4.09519E+01 -4.72461E+01 -5.23942E+01 -5.67907E+01 -6.06200E+01 -6.33369E+01 -6.48448E+01 -6.63477E+01 -6.58509E+01
  -6.69642E+01 -6.43593E+01 -6.53736E+01 -6.07848E+01 -6.26849E+01 -5.64531E+01 -5.82124E+01 -5.09236E+01 -5.09460E+01 -4.33792E+01
  -4.05269E+01 -3.31741E+01 -2.70310E+01 -2.04290E+01 -1.14832E+01 -6.30839E+00  4.32424E+00  7.80473E+00  1.90243E+01  2.06672E+01
   3.12476E+01  3.11675E+01  3.98741E+01  3.87829E+01  4.50580E+01  4.34468E+01  4.73377E+01  4.51558E+01  4.74729E+01  4.50997E+01
   4.65598E+01  4.46487E+01  4.51736E+01  4.34999E+01  4.22788E+01  4.07483E+01  3.96467E+01  3.82920E+01  3.71748E+01  3.57999E+01
   3.45346E+01  3.30165E+01  3.15457E+01  2.98864E+01  2.82315E+01  2.65245E+01  2.47813E+01  2.31834E+01  2.15270E+01  2.01831E+01
   1.88082E+01  1.78585E+01  1.68909E+01  1.64560E+01  1.59970E+01  1.61137E+01  1.62048E+01  1.68316E+01  1.74347E+01  1.84988E+01
   1.95143E+01  2.08883E+01  2.22089E+01  2.37638E+01  2.52647E+01  2.68829E+01  2.84235E+01  2.99803E+01  3.13950E+01  3.27392E+01
   3.38574E+01  3.48809E+01  3.55709E+01  3.61684E+01  3.62951E+01  3.63428E+01  3.57903E+01  3.51919E+01  3.39225E+01  3.26625E+01
   3.07810E+01  2.90286E+01  2.68529E+01  2.49709E+01  2.30078E+01  2.15090E+01  2.03762E+01  2.02835E+01  2.09927E+01  2.16607E+01
   2.47862E+01  2.39577E+01  2.84605E+01  2.41335E+01  2.86025E+01  1.98723E+01  2.30142E+01  1.08142E+01  1.21588E+01 -1.70253E+00
  -1.82396E+00 -1.58890E+01 -1.71726E+01 -3.00347E+01 -3.21318E+01 -4.23658E+01 -4.45569E+01 -5.12676E+01 -5.27924E+01 -5.58197E+01
  -5.60751E+01 -5.67457E+01 -5.59058E+01 -5.58426E+01 -5.48668E+01 -5.35663E+01 -5.23868E+01 -4.87920E+01 -4.63299E+01 -4.23332E+01
  -3.90600E+01 -3.57885E+01 -3.29359E+01 -2.98655E+01 -2.70804E+01 -2.39642E+01 -2.11002E+01 -1.78040E+01 -1.47535E+01 -1.11931E+01
  -7.88327E+00 -3.98123E+00 -3.65530E-01  3.87857E+00  7.71207E+00  1.21043E+01  1.58668E+01  2.00430E+01  2.33102E+01  2.68256E+01
   2.91827E+01  3.16441E+01  3.27964E+01  3.39270E+01  3.37336E+01  3.33805E+01  3.18179E+01  2.99684E+01  2.71566E+01  2.39745E+01
   2.01868E+01  1.60106E+01  1.16455E+01  6.89446E+00  2.35634E+00 -2.57499E+00 -7.00061E+00 -1.18127E+01 -1.59032E+01 -2.03218E+01
  -2.38764E+01 -2.76471E+01 -3.05087E+01 -3.34972E+01 -3.56970E+01 -3.79567E+01 -3.96301E+01 -4.12857E+01 -4.25442E+01 -4.37097E+01
  -4.46037E+01 -4.53674E+01 -4.59516E+01 -4.64443E+01 -4.67868E+01 -4.71143E+01 -4.73040E+01 -4.75297E+01 -4.76219E+01 -4.77873E+01
  -4.78314E+01 -4.79372E+01 -4.79660E+01 -4.80101E+01 -4.80502E+01 -4.80366E+01 -4.80995E+01 -4.80347E+01 -4.81016E+01 -4.80087E+01
  -4.80626E+01 -4.79706E+01 -4.79928E+01 -4.79222E+01 -4.79197E+01 -4.78756E+01 -4.78314E+01 -4.78220E+01 -4.77433E+01 -4.77594E+01
  -4.76527E+01 -4.76958E+01 -4.75699E+01 -4.76382E+01 -4.74840E+01 -4.75656E+01 -4.73662E+01 -4.74802E+01 -4.72263E+01 -4.73887E+01
  -4.70892E+01 -4.72990E+01 -4.69686E+01 -4.72202E+01 -4.68712E+01 -4.71384E+01 -4.67924E+01 -4.70475E+01 -4.67238E+01 -4.69653E+01
  -4.66786E+01 -4.69175E+01 -4.66775E+01 -4.68985E+01 -4.67193E+01 -4.69259E+01 -4.68009E+01 -4.70167E+01 -4.69399E+01 -4.71652E+01
  -4.71221E+01 -4.73529E+01 -4.73252E+01 -4.75418E+01 -4.75131E+01 -4.76939E+01 -4.76492E+01 -4.77859E+01 -4.77158E+01 -4.78067E+01
 NY background values follow
    -7.220E+01   -7.188E+01   -7.156E+01   -7.124E+01   -7.092E+01   -7.059E+01   -7.027E+01   -6.995E+01   -6.962E+01   -6.930E+01
    -6.897E+01   -6.864E+01   -6.832E+01   -6.799E+01   -6.766E+01   -6.733E+01   -6.699E+01   -6.666E+01   -6.632E+01   -6.599E+01
    -6.565E+01   -6.531E+01   -6.497E+01   -6.463E+01   -6.429E+01   -6.394E+01   -6.359E+01   -6.324E+01   -6.289E+01   -6.254E+01
    -6.219E+01   -6.183E+01   -6.147E+01   -6.111E+01   -6.074E+01   -6.038E+01   -6.001E+01   -5.964E+01   -5.927E+01   -5.889E+01
    -5.851E+01   -5.813E+01   -5.775E+01   -5.736E+01   -5.697E+01   -5.658E+01   -5.619E+01   -5.579E+01   -5.540E+01   -5.500E+01
    -5.460E+01   -5.420E+01   -5.379E+01   -5.339E+01   -5.298E+01   -5.258E+01   -5.217E+01   -5.176E+01   -5.135E+01   -5.094E+01
    -5.053E+01   -5.012E+01   -4.971E+01   -4.930E+01   -4.889E+01   -4.848E+01   -4.806E+01   -4.765E+01   -4.724E+01   -4.683E+01
    -4.642E+01   -4.602E+01   -4.561E+01   -4.520E+01   -4.480E+01   -4.439E+01   -4.399E+01   -4.359E+01   -4.319E+01   -4.279E+01
    -4.239E+01   -4.200E+01   -4.160E+01   -4.121E+01   -4.082E+01   -4.044E+01   -4.005E+01   -3.967E+01   -3.929E+01   -3.891E+01
    -3.853E+01   -3.816E+01   -3.778E+01   -3.741E+01   -3.705E+01   -3.668E+01   -3.632E+01   -3.595E+01   -3.559E+01   -3.524E+01
    -3.488E+01   -3.453E+01   -3.418E+01   -3.383E+01   -3.349E+01   -3.314E+01   -3.280E+01   -3.246E+01   -3.213E+01   -3.180E+01
    -3.146E+01   -3.114E+01   -3.081E+01   -3.049E+01   -3.017E+01   -2.985E+01   -2.953E+01   -2.922E+01   -2.891E+01   -2.861E+01
    -2.830E+01   -2.800E+01   -2.770E+01   -2.741E+01   -2.711E+01   -2.682E+01   -2.654E+01   -2.625E+01   -2.597E+01   -2.570E+01
    -2.542E+01   -2.515E+01   -2.488E+01   -2.462E+01   -2.436E+01   -2.411E+01   -2.385E+01   -2.360E+01   -2.336E+01   -2.312E+01
    -2.288E+01   -2.265E+01   -2.242E+01   -2.219E+01   -2.197E+01   -2.176E+01   -2.155E+01   -2.134E+01   -2.113E+01   -2.093E+01
    -2.074E+01   -2.055E+01   -2.037E+01   -2.019E+01   -2.001E+01   -1.984E+01   -1.967E+01   -1.951E+01   -1.936E+01   -1.921E+01
    -1.906E+01   -1.892E+01   -1.879E+01   -1.865E+01   -1.853E+01   -1.841E+01   -1.829E+01   -1.818E+01   -1.808E+01   -1.797E+01
    -1.788E+01   -1.778E+01   -1.769E+01   -1.761E+01   -1.753E+01   -1.745E+01   -1.738E+01   -1.731E+01   -1.725E+01   -1.718E+01
    -1.713E+01   -1.707E+01   -1.702E+01   -1.697E+01   -1.693E+01   -1.689E+01   -1.685E+01   -1.681E+01   -1.678E+01   -1.675E+01
    -1.673E+01   -1.670E+01   -1.668E+01   -1.666E+01   -1.665E+01   -1.663E+01   -1.662E+01   -1.661E+01   -1.660E+01   -1.660E+01
    -1.660E+01   -1.659E+01   -1.659E+01   -1.660E+01   -1.660E+01   -1.661E+01   -1.662E+01   -1.663E+01   -1.664E+01   -1.665E+01
    -1.667E+01   -1.669E+01   -1.671E+01   -1.673E+01   -1.676E+01   -1.679E+01   -1.682E+01   -1.685E+01   -1.689E+01   -1.692E+01
    -1.696E+01   -1.701E+01   -1.705E+01   -1.710E+01   -1.715E+01   -1.720E+01   -1.726E+01   -1.731E+01   -1.737E+01   -1.744E+01
    -1.750E+01   -1.757E+01   -1.764E+01   -1.772E+01   -1.779E+01   -1.787E+01   -1.796E+01   -1.804E+01   -1.813E+01   -1.822E+01
    -1.832E+01   -1.841E+01   -1.851E+01   -1.862E+01   -1.872E+01   -1.883E+01   -1.894E+01   -1.905E+01   -1.917E+01   -1.928E+01
    -1.940E+01   -1.952E+01   -1.964E+01   -1.977E+01   -1.989E+01   -2.002E+01   -2.014E+01   -2.027E+01   -2.040E+01   -2.053E+01
    -2.065E+01   -2.078E+01   -2.091E+01   -2.104E+01   -2.117E+01   -2.130E+01   -2.143E+01   -2.156E+01   -2.169E+01   -2.182E+01
    -2.195E+01   -2.207E+01   -2.220E+01   -2.232E+01   -2.245E+01   -2.257E+01   -2.269E+01   -2.281E+01   -2.293E+01   -2.304E+01
    -2.315E+01   -2.326E+01   -2.337E+01   -2.348E+01   -2.359E+01   -2.369E+01   -2.379E+01   -2.389E+01   -2.398E+01   -2.408E+01
    -2.417E+01   -2.426E+01   -2.435E+01   -2.443E+01   -2.452E+01   -2.460E+01   -2.468E+01   -2.476E+01   -2.483E+01   -2.490E+01
    -2.497E+01   -2.504E+01   -2.511E+01   -2.517E+01   -2.524E+01   -2.530E+01   -2.535E+01   -2.541E+01   -2.546E+01   -2.551E+01
    -2.556E+01   -2.561E+01   -2.565E+01   -2.569E+01   -2.573E+01   -2.577E+01   -2.581E+01   -2.584E+01   -2.587E+01   -2.590E+01
    -2.592E+01   -2.595E+01   -2.597E+01   -2.599E+01   -2.601E+01   -2.602E+01   -2.604E+01   -2.605E+01   -2.607E+01   -2.608E+01
    -2.609E+01   -2.610E+01   -2.611E+01   -2.612E+01   -2.613E+01   -2.614E+01   -2.615E+01   -2.616E+01   -2.618E+01   -2.619E+01
    -2.620E+01   -2.622E+01   -2.623E+01   -2.625E+01   -2.627E+01   -2.629E+01   -2.631E+01   -2.634E+01   -2.636E+01   -2.639E+01
    -2.642E+01   -2.646E+01   -2.650E+01   -2.654E+01   -2.658E+01   -2.663E+01   -2.668E+01   -2.673E+01   -2.679E+01   -2.685E+01
    -2.692E+01   -2.699E+01   -2.707E+01   -2.715E+01   -2.723E+01   -2.731E+01   -2.740E+01   -2.750E+01   -2.759E+01   -2.769E+01
    -2.780E+01   -2.790E+01   -2.801E+01   -2.812E+01   -2.823E+01   -2.835E+01   -2.847E+01   -2.859E+01   -2.871E+01   -2.883E+01
    -2.896E+01   -2.908E+01   -2.921E+01   -2.934E+01   -2.947E+01   -2.961E+01   -2.974E+01   -2.987E+01   -3.001E+01   -3.014E+01
    -3.028E+01   -3.042E+01   -3.055E+01   -3.069E+01   -3.082E+01   -3.096E+01   -3.110E+01   -3.123E+01   -3.137E+01   -3.150E+01
    -3.163E+01   -3.176E+01   -3.190E+01   -3.203E+01   -3.215E+01   -3.228E+01   -3.241E+01   -3.253E+01   -3.266E+01   -3.278E+01
    -3.290E+01   -3.302E+01   -3.313E+01   -3.325E+01   -3.336E+01   -3.347E+01   -3.358E+01   -3.369E+01   -3.379E+01   -3.389E+01
    -3.399E+01   -3.409E+01   -3.418E+01   -3.427E+01   -3.436E+01   -3.445E+01   -3.453E+01   -3.461E+01   -3.469E+01   -3.476E+01
    -3.483E+01   -3.490E+01   -3.496E+01   -3.502E+01   -3.508E+01   -3.513E+01   -3.518E+01   -3.523E+01   -3.527E+01   -3.531E+01
    -3.534E+01   -3.537E+01   -3.540E+01   -3.542E+01   -3.544E+01   -3.545E+01   -3.547E+01   -3.547E+01   -3.548E+01   -3.548E+01
    -3.548E+01   -3.548E+01   -3.547E+01   -3.547E+01   -3.546E+01   -3.544E+01   -3.543E+01   -3.541E+01   -3.539E+01   -3.537E+01
    -3.535E+01   -3.532E+01   -3.530E+01   -3.527E+01   -3.524E+01   -3.522E+01   -3.519E+01   -3.515E+01   -3.512E+01   -3.509E+01
    -3.506E+01   -3.502E+01   -3.499E+01   -3.496E+01   -3.492E+01   -3.489E+01   -3.486E+01   -3.482E+01   -3.479E+01   -3.476E+01
 Mac      Conc. = 2.14E-04
  -8.78789E+01 -8.81619E+01 -8.85162E+01 -8.88394E+01 -8.92152E+01 -8.95407E+01 -8.98433E+01 -9.00722E+01 -9.01661E+01 -9.01765E+01
  -8.99443E+01 -8.96480E+01 -8.90523E+01 -8.84160E+01 -8.74713E+01 -8.65262E+01 -8.52826E+01 -8.40665E+01 -8.25848E+01 -8.11480E+01
  -7.95180E+01 -7.79650E+01 -7.63260E+01 -7.47824E+01 -7.32298E+01 -7.17639E+01 -7.03017E+01 -6.89128E+01 -6.75138E+01 -6.61800E+01
  -6.48644E+01 -6.36217E+01 -6.24317E+01 -6.13042E+01 -6.01750E+01 -5.91517E+01 -5.80828E+01 -5.71453E+01 -5.61664E+01 -5.53508E+01
  -5.45283E+01 -5.38692E+01 -5.32342E+01 -5.27321E+01 -5.22550E+01 -5.18697E+01 -5.14739E+01 -5.11215E+01 -5.07305E+01 -5.03582E+01
  -4.99502E+01 -4.95526E+01 -4.90939E+01 -4.86386E+01 -4.80998E+01 -4.76153E+01 -4.70401E+01 -4.65635E+01 -4.59601E+01 -4.54708E+01
  -4.48047E+01 -4.42710E+01 -4.35124E+01 -4.29345E+01 -4.20834E+01 -4.14828E+01 -4.05695E+01 -3.99743E+01 -3.90433E+01 -3.84639E+01
  -3.75614E+01 -3.70131E+01 -3.61745E+01 -3.56669E+01 -3.48810E+01 -3.44216E+01 -3.36573E+01 -3.32077E+01 -3.24412E+01 -3.19678E+01
  -3.11721E+01 -3.06761E+01 -2.98491E+01 -2.93937E+01 -2.86000E+01 -2.82880E+01 -2.75999E+01 -2.74654E+01 -2.69478E+01 -2.70267E+01
  -2.67397E+01 -2.70812E+01 -2.71203E+01 -2.78136E+01 -2.82870E+01 -2.93766E+01 -3.03256E+01 -3.17734E+01 -3.31175E+01 -3.47663E+01
  -3.63025E+01 -3.79286E+01 -3.94224E+01 -4.07986E+01 -4.20481E+01 -4.30045E+01 -4.38499E+01 -4.42562E+01 -4.45634E+01 -4.43492E+01
