 
 $NMID
 ID=''
 FMTDAT='(2E13.5)'
 TRAMP=   1.00000E+0
 VOLUME=   1.00000E+0
 $END
  -2.83193E+3  -5.92679E+3
  -1.40897E+3  -3.31987E+1
   8.95029E+2  -1.78596E+3
   3.13056E+3  -5.07553E+3
   1.15668E+3   2.00636E+3
  -1.25423E+3   3.05858E+3
  -1.65047E+3  -2.43688E+3
   1.16793E+3  -9.67859E+2
   3.58183E+3   1.60938E+3
   9.12520E+2   1.97005E+2
  -8.84967E+2   8.00698E+2
  -9.39040E+1   1.20849E+3
   2.19222E+2  -3.67986E+2
  -1.38467E+2   6.35025E+2
  -9.63283E+2   5.31311E+2
  -2.12978E+3  -1.18376E+3
   5.28867E+1  -7.00056E+2
   1.48230E+3   8.86261E+1
   2.18248E+2  -1.29286E+3
   3.80948E+2  -1.70858E+3
   1.02022E+3   9.52062E+1
  -9.25618E+2   8.42121E+2
  -3.49570E+2  -7.59528E+2
   1.94929E+3   5.71264E+1
   3.57054E+2   1.79547E+3
  -2.13257E+3   3.46248E+2
  -4.45975E+2  -1.76374E+3
   1.61210E+3   4.31518E+2
  -9.43788E+1   2.35844E+3
  -1.28665E+3  -7.85970E+1
  -1.52520E+2  -1.46988E+3
   9.58032E+2  -1.77445E+1
  -5.87692E+1   6.29275E+2
  -5.26966E+2   2.49595E+2
  -1.33674E+2   5.33742E+2
  -5.39518E+2  -9.35704E+1
  -5.54069E+2  -1.13137E+3
   3.56001E+2  -6.72320E+2
   6.31387E+2   4.87978E+2
   1.51077E+2   5.93291E+2
   3.34670E+2   5.04816E+1
   2.45580E+2   2.69973E+2
  -4.00667E+2   5.25138E+2
  -7.67496E+2   2.61535E+2
  -2.40391E+2  -2.09345E+1
   2.34944E+2  -3.29141E+2
   3.56724E+2  -5.96237E+2
   5.06955E+2  -2.30968E+2
   4.52758E+2   4.38046E+2
   2.07472E+2   6.44027E+2
  -1.84386E+2   4.25975E+2
  -3.40083E+2   3.61318E+1
  -2.55703E+2  -1.38620E+2
  -1.45663E+2  -1.40025E+2
  -7.53122E+1  -5.93008E+1
   4.46207E+2  -6.02746E+2
   7.65830E+2  -6.02454E+2
   3.95343E+2   1.14549E+2
  -3.52862E+2   6.62294E+2
  -2.74420E+2   8.19192E+1
  -7.70336E+1  -1.77563E+2
  -1.01723E+2  -4.73752E+1
  -5.76579E+2  -3.57875E+2
  -2.22384E+2  -3.61109E+2
   5.95838E+2   2.09884E+1
   5.77442E+2   4.48666E+2
   3.04965E+2   1.00197E+2
  -3.32531E+1   3.05679E+2
  -3.93153E+2   2.90175E+2
  -6.21514E+2  -2.75686E+1
  -1.67294E+1  -2.61783E+2
   3.17154E+2  -3.36501E+2
  -1.93620E+2  -1.17128E+0
  -5.43399E+2  -3.24990E+1
  -1.39149E+2  -3.29688E+2
   1.48618E+2   8.93698E+1
  -2.18831E+1   3.42598E+2
  -3.58037E+2   1.39318E+2
  -1.77779E+2  -1.11602E+2
  -2.96982E+2  -1.53717E+2
   1.86544E+1   1.68880E+2
   2.13852E+2   8.47466E+1
   1.09389E+2   1.05025E+2
   2.58184E+2   1.52463E+2
  -4.75711E+1   1.30748E+2
   5.60299E+1  -1.23184E+1
   3.57919E+1   2.79400E+2
  -7.45588E+0   3.53251E+2
   4.31172E+1  -1.60414E+2
  -1.21632E+1  -3.12097E+2
   1.76281E+2   6.27057E+1
  -3.32397E+1   2.55811E+2
  -2.42217E+2  -1.32525E+2
  -1.64616E+2  -2.05828E+2
   1.69919E+2  -3.15579E+2
   1.08999E+2   1.74439E+2
   1.69738E+2   2.54055E+2
  -1.25974E+1  -1.51582E+2
   4.74484E+1   1.01696E+2
   4.73888E+0   1.12286E+2
   1.55877E+1   4.17744E+2
  -4.29493E+1   9.72210E+1
  -1.56148E+2  -5.71526E+1
   1.03526E+2   7.22574E+0
  -2.50943E+1  -7.00679E+1
   1.76346E+1   1.75352E+2
  -2.43115E+2  -1.92899E+1
  -1.63460E+2  -7.56774E+1
   8.09634E+1  -9.52501E+1
   2.77737E+2  -3.21269E+1
   3.06179E+2   7.82331E+1
  -4.45502E+1   2.88970E+2
  -1.28706E+2  -2.67611E+1
   8.97249E+1  -1.24098E+1
   4.12936E+1  -1.01661E+2
  -2.09737E+2  -1.02051E+2
  -1.86768E+2   5.78871E+1
  -2.53909E+2  -1.89413E+2
   1.22521E+2  -3.28915E+2
   9.55015E+1  -1.82895E+2
   1.48988E+2   3.10457E+1
  -1.22696E+2  -1.29639E+2
   2.10916E+2   1.05960E+2
   4.48409E+1   1.18829E+2
   1.49050E+2  -6.27998E+1
   3.49680E+1  -1.94726E+1
  -1.26763E+2  -1.34637E+2
  -1.07440E+0   9.01882E+0
   1.29381E+2   1.27483E+2
  -8.50023E+1   1.32505E+2
  -3.40185E+1   2.05359E+2
  -1.28454E+0   1.03521E+2
   1.61433E+2  -2.62432E+2
  -3.20560E+1  -1.48020E+2
   5.24737E+1  -3.07520E+1
  -1.00103E+2   3.95928E+1
  -5.29738E+1  -3.51267E+2
  -1.12707E+2  -8.13649E+1
  -2.20614E+1   1.88761E+2
  -9.53994E+1   3.18276E+0
  -4.00055E+2  -3.01402E+2
  -7.29098E+1  -2.18735E+1
   5.32544E+1  -1.17374E+2
   1.39829E+2   8.19737E+1
  -1.58254E+1   3.55316E+2
   2.21210E+2   4.39737E+1
   2.24533E+2   3.12048E+1
   9.35216E+1   1.43919E+2
   3.05477E+1  -2.50278E+2
  -3.07463E+1   3.24006E+0
  -1.97629E+2   2.74363E+2
  -6.09821E+1  -1.06396E+2
   7.76042E+1  -2.16424E+2
   9.19071E+1  -2.51458E+1
   1.11513E+1   1.79056E+2
   1.22161E+2   1.26624E+2
   2.39161E+2  -2.21362E+2
   2.19692E+1   9.57286E+1
   1.53023E+2   1.43661E+1
  -1.07561E+2  -2.78712E+1
  -1.67616E+2   1.32851E+2
   1.11699E+1   4.90417E+1
  -7.11255E+1  -7.75781E+1
  -3.86541E+1  -4.66890E+0
  -1.05602E+2   3.09614E+1
   8.19753E+1   5.02193E+1
  -5.88983E+1  -9.81347E+1
  -3.11040E+1   1.37153E+1
  -8.50091E+0  -7.14693E+1
   1.16653E+2   7.86409E+1
  -2.44989E+1  -7.95466E+1
   1.14906E+2  -1.39538E+2
   1.71052E+2  -1.54868E+2
  -7.33336E+1   9.34286E+1
  -6.22857E+0  -1.43750E+2
  -1.40859E+2  -9.65795E+1
   7.03216E+1  -1.41698E+2
   1.56119E+2   5.16863E+1
  -1.31337E+1  -7.18990E+1
  -3.22863E+1  -1.05736E+2
   1.14904E+2  -5.93112E+1
   9.48022E+1   1.52392E+2
   1.01834E+0   1.57152E+1
  -5.99356E+1  -6.12808E+1
  -8.57174E+1   3.96450E+0
  -1.40569E+1  -9.82792E+1
  -1.24212E+2  -4.25843E+1
   1.14454E+2  -2.13293E+1
  -1.58296E+2  -2.08880E+2
   2.38927E+2  -1.34208E+2
   1.69801E+1   1.45830E+1
  -1.26771E+2  -2.41760E+1
  -3.35443E+1   6.42536E+1
  -2.04689E+1  -7.72226E+0
   7.34091E+1  -2.52345E+2
  -3.19752E+2   2.02939E+2
  -5.52433E+1   2.72572E+1
   1.05672E+2  -1.37734E+2
   1.17454E+2  -4.93359E+1
  -2.08393E+1  -1.30661E+2
  -1.87825E+2   1.11448E+2
  -1.60658E+2  -1.02071E+2
  -1.11096E+2  -1.10640E+2
   1.15240E+2  -2.25634E+1
  -7.62670E+1   6.00441E+1
   2.84725E+2  -4.61222E+1
   1.97070E+2  -1.05097E+1
   2.66335E+0  -4.71711E+1
  -1.59756E+1  -9.79313E+0
  -8.85172E+1   1.02746E+2
  -8.55245E+1   6.90479E+1
   1.23216E+2  -1.25342E+2
   7.43771E+1   1.22536E+2
   2.63372E+0  -1.56195E+2
   6.65012E+1  -2.39883E+1
  -3.72079E+1  -8.25783E+1
  -1.66253E+2  -9.03484E+0
   9.26150E+1   3.28400E+1
  -5.64998E+1  -1.74847E+1
   1.15199E+2  -3.19327E+1
   6.61197E+1  -2.19311E+2
   1.94726E+2   7.55592E+0
  -2.67844E+0   1.50989E+1
  -1.93623E+2   2.81334E+1
   2.45714E+1   8.85988E+1
   6.29536E+1   1.56748E+1
  -7.39004E+1  -1.57770E+2
   1.13446E+2   3.56079E+1
   3.55587E+1   1.02684E+2
   7.18107E+1   6.99292E+1
  -1.78994E+2  -7.70500E+1
  -5.32800E+1   1.60948E+1
   7.40945E+1   1.14616E+2
   1.34379E+2  -1.59084E+1
  -1.48713E+1  -7.03571E+1
  -3.99055E+0   3.88106E+1
  -1.10829E+2  -1.52114E+2
   1.39684E+2  -7.08213E+0
   1.28546E+2  -3.03801E+1
  -1.98086E+2  -1.28052E+2
   8.02936E+1  -9.79084E+1
   1.71320E+2  -1.04475E+2
   1.30289E+2   7.18714E+1
  -8.14657E+1  -5.11357E+1
  -1.60575E+1  -1.29254E+2
  -2.74468E+1  -2.03603E+2
   6.23805E+1   1.52222E+1
   2.76780E+2   8.54500E+1
  -2.21413E+2  -6.36301E+1
   1.53592E+1  -3.62277E+1
   1.19193E+2  -8.61143E+1
  -6.35450E+1   1.03472E+2
  -5.73418E+1  -2.25012E+2
   2.77582E+0  -1.93568E+1
  -2.33641E+1   1.60161E+1
  -5.23422E+1  -1.48627E+2
  -8.10017E+1  -3.23223E+1
  -1.15183E+2  -3.42377E+1
   2.47705E+2  -1.80598E+2
  -2.02713E+2  -2.71189E+1
   7.68840E+0   3.39913E+1
  -2.12241E+2   6.32376E+1
   1.83291E+2  -6.84919E+1
  -5.81432E+1  -1.10149E+2
   1.54694E+2   1.38372E+1
   8.51772E+1   2.39973E+2
   7.94252E+1   2.00810E+2
   1.74398E+2   9.29058E+1
  -1.05076E+1   7.31224E+1
  -2.00589E+1  -1.80750E+2
   1.05440E+2  -2.35080E+2
  -5.25361E+1   2.94815E+1
   1.64370E+2  -8.25575E+1
   7.91985E+1  -2.84558E+2
   1.24501E+1   7.45928E+1
   4.70421E+0   1.01249E+2
   5.21512E+1  -7.74041E+1
  -5.43246E+1   2.89978E+1
  -1.04300E+1   3.84977E+1
   1.60095E+2  -2.96004E+1
  -7.26082E+1   1.43005E+2
   4.47168E+1  -8.32968E+1
  -2.10846E+2   8.62771E+1
   4.78095E+1   8.16740E+1
  -3.92415E+2  -1.26307E+2
   4.74295E-1  -2.44465E+1
   6.97498E+1  -1.65274E+2
   6.32920E+1   1.12163E+2
  -7.50514E+1  -1.12016E+2
   1.06618E+2  -2.01206E+2
  -1.31989E+2   9.95899E+1
  -9.13546E+1   5.17932E+1
  -5.71769E+1  -8.23408E+1
   3.13145E+1   6.34488E+0
  -1.79604E+2  -8.19687E+0
   8.57593E+0   4.77992E+1
   1.70238E+2   1.02273E+2
   1.51971E+2   1.83909E+2
  -1.24449E+2   2.86973E+2
   1.66937E+2  -3.99999E+1
  -1.11821E+2  -4.41132E+1
   1.20998E+2  -7.58156E+1
  -1.21630E+2   9.86340E+1
   9.81022E+1   3.32486E+1
  -1.75002E+2   5.43006E+0
  -1.28100E+2   2.61815E+2
   1.28095E+2   1.98293E+2
  -9.52994E+1   2.49200E+1
  -1.32198E+2  -1.11509E+2
  -8.42962E+1  -7.75661E+1
   2.80990E+1  -6.57051E+1
   2.45852E+1   1.21055E+2
   2.09785E+2  -9.29666E+1
   2.42056E+2   1.57210E+2
  -2.68777E+1  -2.97937E+1
  -1.19361E+2   9.05694E+1
  -2.71528E+1  -1.07927E+1
  -5.44286E+1   8.64735E+1
   2.06845E+2  -1.96377E+1
   1.65615E+2   4.37075E+1
   9.23278E+1  -1.08394E+2
   1.22673E+1   4.89629E+1
   6.29701E+1   1.73052E+2
   1.22745E+2   1.67158E+1
  -1.46929E+2  -4.76040E+1
   9.38474E+1  -5.12780E+1
   1.17373E+2   1.53184E+2
   9.84064E+1   7.31228E+1
  -9.26477E+1   3.41272E+1
   5.95767E+1  -2.16241E+2
   8.38487E+1   2.07607E+2
   4.61242E+1   3.14759E+1
  -3.21444E+1   2.31367E+1
   1.20005E+1  -1.75598E+2
   4.73907E+1  -2.68898E+0
   1.68191E+2   6.02464E+1
  -5.31589E+0   1.45049E+2
   2.23850E+2  -5.49901E+1
   8.84944E+1  -6.39453E-1
  -1.11253E+2  -5.48155E+1
  -2.31588E+1   2.72147E+2
   9.37386E+1   5.55151E+1
   4.94542E+1  -8.10478E+1
   2.33284E+2   1.96236E+2
  -1.58015E+2   1.56431E+2
   1.25526E+2   1.73516E+1
  -2.21671E+1   8.91880E+0
  -1.22505E+2   2.87870E+1
  -1.86268E+1  -4.88966E+0
  -1.69916E+1   1.68304E+2
   5.22357E+1  -1.15956E+2
  -4.94832E+1   4.34774E+1
  -2.65804E+1  -4.28983E+1
  -1.07144E+2  -1.34392E+2
   2.22746E+2  -2.59708E+2
  -5.64152E+0  -3.55047E+0
   9.75022E+0  -1.04866E+2
   5.31609E+1   6.26719E+1
   4.59858E+1   6.96923E+1
   1.03090E+1  -5.56587E+1
  -1.21125E+2  -5.85825E+1
  -1.53544E+2  -1.37345E+2
   5.23010E+1  -1.20282E+2
   2.14328E+2  -1.35482E+2
  -1.82311E+1  -3.71919E+1
   1.23624E+2   1.17066E+2
  -7.93343E+1  -5.31363E+1
