 LCModel (Version 6.3-1N) Copyright: S.W. Provencher.          Ref.: Magn. Reson. Med. 30:672-679 (1993).                
 Slice_N1@8_14  28-Feb-2025 11:43:20
 27 lines in following concentration table = NCONC+1
    Conc.  %SD /Cr+PCr  Metabolite                                         
 1.41E-04  20% 5.3E-04 Mac                                                 
    1.119 135%   4.185 Cr                                                  
    1.020 146%   3.815 PCr                                                 
    1.310  60%   4.899 Ins                                                 
    2.211  31%   8.271 NAA                                                 
    1.322  53%   4.946 Tau                                                 
    0.000 999%   0.000 PCho                                                
    0.310  80%   1.160 GPC                                                 
    3.737  30%  13.980 Glu                                                 
    2.484  29%   9.293 Gln                                                 
    0.000 999%   0.000 Ala                                                 
    0.240 404%   0.898 Asc                                                 
    0.401 114%   1.500 Asp                                                 
    0.000 999%   0.000 GABA                                                
 9.71E-02 293%   0.363 Glc                                                 
    0.199 182%   0.745 GSH                                                 
    1.047  54%   3.918 Lac                                                 
    1.353  38%   5.062 NAAG                                                
    0.723 138%   2.703 PE                                                  
    0.310  80%   1.160 GPC+PCho                                            
    3.564  25%  13.333 NAA+NAAG                                            
    6.222  26%  23.273 Glu+Gln                                             
    2.139  33%   8.000 Cr+PCr                                              
    3.564  25%  13.333 NAA+NAAG                                            
    2.139  33%   8.000 Cr+PCr                                              
    6.222  26%  23.273 Glu+Gln                                             
   6 lines in following misc. output table
  FWHM = 0.033 ppm    S/N =   2                                            
  Data shift = 0.008 ppm                                                   
  Ph:-146 deg       0.0 deg/ppm                                            
  alphaB,S = 9.1E-02,   1.5E+01                                            
   19 spline knots.   Ns =10(1)                                            
  (11) 6 infls.   ( 8) 2 extrs.                                            
  480 points on ppm-axis = NY
      4.100000     4.091866     4.083733     4.075600     4.067466     4.059333     4.051199     4.043066     4.034933     4.026799
      4.018666     4.010532     4.002399     3.994265     3.986132     3.977998     3.969864     3.961731     3.953597     3.945463
      3.937330     3.929196     3.921062     3.912929     3.904795     3.896662     3.888528     3.880394     3.872261     3.864127
      3.855993     3.847860     3.839726     3.831592     3.823459     3.815325     3.807191     3.799058     3.790924     3.782790
      3.774657     3.766523     3.758389     3.750256     3.742122     3.733989     3.725855     3.717721     3.709588     3.701454
      3.693320     3.685187     3.677053     3.668919     3.660786     3.652652     3.644518     3.636385     3.628251     3.620117
      3.611984     3.603850     3.595716     3.587583     3.579449     3.571316     3.563182     3.555048     3.546915     3.538781
      3.530647     3.522514     3.514380     3.506246     3.498113     3.489979     3.481845     3.473712     3.465578     3.457444
      3.449311     3.441177     3.433043     3.424910     3.416776     3.408643     3.400509     3.392375     3.384242     3.376108
      3.367974     3.359841     3.351707     3.343573     3.335440     3.327306     3.319172     3.311039     3.302905     3.294771
      3.286638     3.278504     3.270370     3.262237     3.254103     3.245970     3.237836     3.229702     3.221569     3.213435
      3.205301     3.197168     3.189034     3.180900     3.172767     3.164633     3.156499     3.148366     3.140232     3.132098
      3.123965     3.115831     3.107697     3.099564     3.091430     3.083297     3.075163     3.067029     3.058896     3.050762
      3.042628     3.034495     3.026361     3.018227     3.010094     3.001960     2.993826     2.985693     2.977559     2.969425
      2.961292     2.953158     2.945024     2.936891     2.928757     2.920624     2.912490     2.904356     2.896223     2.888089
      2.879955     2.871822     2.863688     2.855554     2.847421     2.839287     2.831153     2.823020     2.814886     2.806752
      2.798619     2.790485     2.782351     2.774218     2.766084     2.757951     2.749817     2.741683     2.733550     2.725416
      2.717282     2.709149     2.701015     2.692881     2.684748     2.676614     2.668480     2.660347     2.652213     2.644079
      2.635946     2.627812     2.619678     2.611545     2.603411     2.595278     2.587144     2.579010     2.570877     2.562743
      2.554609     2.546476     2.538342     2.530208     2.522075     2.513941     2.505807     2.497674     2.489540     2.481406
      2.473273     2.465139     2.457006     2.448872     2.440738     2.432605     2.424471     2.416337     2.408204     2.400070
      2.391936     2.383803     2.375669     2.367535     2.359402     2.351268     2.343134     2.335001     2.326867     2.318733
      2.310600     2.302466     2.294333     2.286199     2.278065     2.269932     2.261798     2.253664     2.245531     2.237397
      2.229263     2.221130     2.212996     2.204862     2.196729     2.188595     2.180461     2.172328     2.164194     2.156060
      2.147927     2.139793     2.131660     2.123526     2.115392     2.107259     2.099125     2.090991     2.082858     2.074724
      2.066590     2.058457     2.050323     2.042189     2.034056     2.025922     2.017788     2.009655     2.001521     1.993387
      1.985254     1.977120     1.968987     1.960853     1.952719     1.944586     1.936452     1.928318     1.920185     1.912051
      1.903917     1.895784     1.887650     1.879516     1.871383     1.863249     1.855115     1.846982     1.838848     1.830714
      1.822581     1.814447     1.806314     1.798180     1.790046     1.781913     1.773779     1.765645     1.757512     1.749378
      1.741244     1.733111     1.724977     1.716843     1.708710     1.700576     1.692442     1.684309     1.676175     1.668041
      1.659908     1.651774     1.643641     1.635507     1.627373     1.619240     1.611106     1.602972     1.594839     1.586705
      1.578571     1.570438     1.562304     1.554170     1.546037     1.537903     1.529769     1.521636     1.513502     1.505368
      1.497235     1.489101     1.480968     1.472834     1.464700     1.456567     1.448433     1.440299     1.432166     1.424032
      1.415898     1.407765     1.399631     1.391497     1.383364     1.375230     1.367096     1.358963     1.350829     1.342695
      1.334562     1.326428     1.318295     1.310161     1.302027     1.293894     1.285760     1.277626     1.269493     1.261359
      1.253225     1.245092     1.236958     1.228824     1.220691     1.212557     1.204423     1.196290     1.188156     1.180022
      1.171889     1.163755     1.155622     1.147488     1.139354     1.131221     1.123087     1.114953     1.106820     1.098686
      1.090552     1.082419     1.074285     1.066151     1.058018     1.049884     1.041750     1.033617     1.025483     1.017349
      1.009216     1.001082     0.992949     0.984815     0.976681     0.968548     0.960414     0.952280     0.944147     0.936013
      0.927879     0.919746     0.911612     0.903478     0.895345     0.887211     0.879077     0.870944     0.862810     0.854676
      0.846543     0.838409     0.830276     0.822142     0.814008     0.805875     0.797741     0.789607     0.781474     0.773340
      0.765206     0.757073     0.748939     0.740805     0.732672     0.724538     0.716404     0.708271     0.700137     0.692003
      0.683870     0.675736     0.667603     0.659469     0.651335     0.643202     0.635068     0.626934     0.618801     0.610667
      0.602533     0.594400     0.586266     0.578132     0.569999     0.561865     0.553731     0.545598     0.537464     0.529330
      0.521197     0.513063     0.504930     0.496796     0.488662     0.480529     0.472395     0.464261     0.456128     0.447994
      0.439861     0.431727     0.423593     0.415460     0.407326     0.399192     0.391059     0.382925     0.374792     0.366658
      0.358524     0.350391     0.342257     0.334124     0.325990     0.317856     0.309723     0.301589     0.293455     0.285322
      0.277188     0.269055     0.260921     0.252787     0.244654     0.236520     0.228386     0.220253     0.212119     0.203986
 NY phased data points follow
   8.74625E+00  2.23705E+01 -3.75477E+00 -1.34144E+01  6.55633E-01  5.73604E+00  1.35954E+01 -1.81648E+00 -7.57956E+00  2.25287E-01
  -2.30622E+00 -4.90218E+00 -8.92865E+00 -7.95808E+00 -3.16948E+01 -3.60735E+01 -3.18374E+01 -2.94359E+01 -2.85200E+01 -5.59813E+01
  -3.33575E+01 -3.96809E+01 -6.83703E+01 -4.68284E+01 -3.98191E+01 -2.77001E+01 -1.25653E+01 -1.53086E+01 -1.27192E+01 -1.42392E+01
  -2.34162E+01 -9.50816E+00  3.28685E+00  9.44552E+00  6.52792E+00  6.42267E+00  2.29668E+01  4.59579E+00 -1.26425E-03  1.14748E+01
  -9.96114E+00 -2.62679E+01 -4.30885E+01 -4.77529E+01 -2.24630E+01 -1.36590E+01 -9.94064E-01  2.28582E+00  4.67375E+00  1.10221E+01
   3.09245E+00  3.14922E+01  1.20632E+01  1.16272E+01  4.81747E+01  2.32666E+01  2.91429E+01  3.34277E+01  1.73266E+01  1.30523E+01
   2.84953E+00  2.79458E+01  2.69120E+01  5.90555E+00  5.26319E+01  1.90374E+01  1.26534E+01  6.09265E+01  3.29211E+01  5.24360E+01
   1.61533E+01  1.02810E+01  3.12003E+01  3.30707E+01  6.05454E+01  2.10073E+01  4.20490E+01  4.53934E+01  4.29727E+01  5.35613E+01
   4.51792E+01  6.10835E+01  5.60978E+01  8.06203E+01  6.10389E+01  2.94559E+01  3.29485E+01  3.34586E+01  4.40338E+01  5.25873E+01
   6.90060E+01  8.65693E+01  7.57673E+01  6.03272E+01  9.19811E+01  1.11820E+02  9.93687E+01  9.11674E+01  1.02335E+02  1.19687E+02
   1.16205E+02  1.11021E+02  1.01084E+02  8.99771E+01  9.63744E+01  7.87747E+01  6.62065E+01  6.13704E+01  3.71757E+01  5.42919E+01
   3.79628E+01  8.54864E+00 -2.04707E+01 -4.66323E+01 -2.17318E+01 -1.75790E+01 -8.48961E+00 -1.26356E+01  4.69425E+00  1.55083E+01
   1.02540E+01  3.54414E+01  2.19883E+01  1.80386E+01  1.86351E+01  2.87550E+01  5.51972E+01  6.26341E+01  7.85082E+01  8.37065E+01
   7.30605E+01  9.49032E+01  1.02064E+02  9.88279E+01  8.07140E+01  1.84514E+01  3.09248E+00 -3.46837E+00  4.74402E+00  1.58596E+01
   7.76576E+00 -2.08084E-01 -1.70676E+01 -2.00338E+01 -2.88122E+01 -1.97697E+01 -2.13642E+01 -1.95703E+01 -1.79654E+01 -1.94752E+01
  -1.84332E+01 -1.20203E+01 -1.27199E+01 -2.74987E+01 -3.59618E+00 -8.33228E+00  9.52864E+00 -8.77098E+00 -3.59802E+01 -4.33765E+00
  -1.70846E+01 -5.62263E+00 -4.88637E+00 -2.24227E+01 -1.37418E+01  2.82733E+00  1.10570E+00 -4.40600E+00  2.24868E+00  3.16590E-01
  -1.56177E+01  4.48332E+00  2.70859E+01 -2.04394E+00  3.39805E+01  2.70021E+01  2.78268E+00  3.17634E+01  2.47879E+01  2.64005E+01
   2.16269E+01  7.07188E+00 -1.10340E+00  1.49587E+01 -1.03420E+00 -1.39332E+01 -1.43545E+01 -1.74012E+01 -1.33674E+01 -2.99651E+01
  -1.41991E+01 -3.09009E+01 -2.69599E+01 -2.58083E+01 -3.14120E+01  4.66211E+00 -4.65682E+00 -1.69177E+01 -3.11059E+01 -2.25488E+01
  -1.56849E+01 -1.00024E+01  7.47689E-01 -1.13552E+01  1.18291E+01  7.36190E+00 -6.25306E+00 -1.00388E+01 -2.79555E+01 -1.42974E+01
  -2.85492E+01 -3.95215E+01 -2.13676E+01 -1.51147E+01  8.53671E+00  8.87633E+00  9.28093E+00  2.64677E+01  4.32720E+01  4.75031E+01
   2.12829E+01  3.18603E+01  4.49251E+01  2.66095E+01  2.76934E+01  2.91223E+01  9.66490E+00  2.08532E+01  1.83765E+01  2.71666E+00
   2.86821E+01  2.85956E+01  6.41981E+00 -8.66463E+00  1.64582E+00 -3.53130E+00 -1.22197E+01 -3.28797E+00 -2.47972E+01 -2.38086E+01
  -1.84761E+01 -3.81209E+01 -4.27774E+01 -3.14984E+01 -4.04763E+01 -4.62008E+01 -4.36562E+01 -4.38962E+01 -3.87225E+01 -3.82248E+01
  -3.87364E+01 -5.08021E+01 -5.00977E+01 -5.60943E+01 -4.83185E+01 -4.04570E+01 -4.07853E+01 -2.98053E+01 -5.32757E+01 -2.98544E+01
   4.95554E+01  8.68306E+01  5.95529E+01  6.65740E+01  8.09228E+01  6.60195E+01  7.82669E+01  5.83447E+01  6.99466E+01  8.64581E+01
   5.62529E+01  5.42070E+01  5.11619E+01  5.64489E+01  6.21504E+01  5.17944E+01  5.90191E+01  5.31554E+01  5.24027E+01  5.36546E+01
   3.46141E+01  3.15866E+01  3.39575E+01  5.11261E+01  3.45557E+01  2.03763E+01  4.26269E+01  2.89097E+01  2.45129E+01  7.18997E+00
  -2.99492E+00  1.08428E+01 -2.41696E+00 -8.73354E+00 -2.88036E+01 -5.51318E+01 -5.75968E+01 -6.48444E+01 -5.95767E+01 -6.29338E+01
  -6.61848E+01 -4.74128E+01 -7.21034E+01 -6.48993E+01 -4.45649E+01 -5.15597E+01 -3.35140E+01 -3.42725E+01 -1.60857E+01  2.13543E-01
   1.24291E+01  2.80374E+01  1.29217E+01  2.11317E+01  2.58203E+01  2.75887E+01  4.73595E+01  3.12072E+01  2.27648E+01  2.96849E+01
   2.38869E+01  4.35756E+01  4.45919E+01  6.31268E+01  8.57535E+01  8.18791E+01  9.93255E+01  1.07460E+02  1.31400E+02  1.26129E+02
   1.10719E+02  1.21899E+02  1.19000E+02  1.03691E+02  8.36252E+01  8.72613E+01  6.88298E+01  4.71960E+01  6.88396E+01  8.64658E+01
   7.09321E+01  7.68218E+01  8.83729E+01  7.81304E+01  7.67161E+01  7.20886E+01  7.39041E+01  8.26931E+01  1.18490E+02  9.61556E+01
   7.81800E+01  1.09935E+02  8.09306E+01  8.33108E+01  7.91810E+01  8.03016E+01  8.70234E+01  7.06532E+01  9.38490E+01  8.36979E+01
   7.52007E+01  6.35620E+01  4.72014E+01  6.15471E+01  6.05726E+01  5.96408E+01  5.61077E+01  5.75132E+01  5.96247E+01  5.84826E+01
   7.08144E+01  7.23167E+01  6.78518E+01  6.61827E+01  8.54775E+01  9.70358E+01  8.24617E+01  7.85978E+01  7.87208E+01  1.09717E+02
   1.03010E+02  8.73796E+01  1.18603E+02  1.24079E+02  1.31602E+02  1.28686E+02  1.45189E+02  1.40192E+02  1.41575E+02  1.63849E+02
   1.50942E+02  1.79886E+02  1.72454E+02  1.63789E+02  1.49651E+02  1.48213E+02  1.46536E+02  9.53699E+01  1.23131E+02  1.29135E+02
   1.33196E+02  1.22827E+02  9.66618E+01  8.94413E+01  5.95838E+01  9.22527E+01  9.80381E+01  8.54364E+01  6.92584E+01  6.78079E+01
   7.77391E+01  6.14276E+01  8.36691E+01  7.35958E+01  6.57535E+01  5.68702E+01  5.16383E+01  6.71505E+01  4.89385E+01  4.42184E+01
   4.14108E+01  5.22417E+01  5.15236E+01  4.00817E+01  5.14790E+01  5.07267E+01  4.52872E+01  4.55234E+01  5.83620E+01  3.84042E+01
   2.99482E+01  6.76111E+01  5.52091E+01  4.69695E+01  6.33772E+01  4.00020E+01  4.04336E+01  5.49081E+01  3.80744E+01  4.44342E+01
   4.53182E+01  4.85678E+01  6.39389E+01  3.85588E+01  3.97647E+01  4.12819E+01  3.96226E+01  4.99224E+01  2.82696E+01  3.17290E+01
   4.08166E+01  3.73873E+01  2.85944E+01  4.55553E+01  6.19454E+01  4.97653E+01  4.30309E+01  2.45462E+01  2.30513E+01  1.82807E+01
   3.69665E+01  3.40649E+01  3.11020E+01  6.14889E+01  3.22402E+01  4.51480E+01  5.11815E+01  4.32820E+01  4.60398E+01  3.04769E+01
   4.90281E+01  3.45960E+01  4.74109E+01  6.14298E+01  3.65800E+01  4.51591E+01  3.77365E+01  3.56715E+01  5.69177E+01  5.01416E+01
 NY points of the fit to the data follow
  -1.69370E+01 -1.50440E+01 -1.34744E+01 -1.24787E+01 -1.18752E+01 -1.12568E+01 -1.02536E+01 -8.96011E+00 -7.80098E+00 -7.27611E+00
  -7.58812E+00 -8.89330E+00 -1.11828E+01 -1.42556E+01 -1.86546E+01 -2.37061E+01 -2.84574E+01 -3.23620E+01 -3.54094E+01 -3.84249E+01
  -4.21324E+01 -4.59779E+01 -4.79390E+01 -4.58345E+01 -3.91412E+01 -2.95159E+01 -1.96583E+01 -1.14910E+01 -5.06124E+00  1.39414E+00
   9.20284E+00  1.77098E+01  2.48597E+01  2.92034E+01  3.03885E+01  2.87327E+01  2.57190E+01  2.18776E+01  1.67561E+01  9.48321E+00
  -3.48933E-01 -1.13760E+01 -2.03422E+01 -2.38415E+01 -2.05917E+01 -1.24102E+01 -2.58430E+00  5.91174E+00  1.23482E+01  1.79701E+01
   2.30319E+01  2.72407E+01  3.04993E+01  3.19530E+01  3.14515E+01  2.96411E+01  2.74373E+01  2.56486E+01  2.43696E+01  2.38333E+01
   2.38653E+01  2.39986E+01  2.48597E+01  2.67768E+01  2.91123E+01  3.14126E+01  3.36001E+01  3.51759E+01  3.51988E+01  3.35433E+01
   3.08557E+01  2.84941E+01  2.80444E+01  3.04315E+01  3.40051E+01  3.79577E+01  4.17650E+01  4.52142E+01  4.81669E+01  5.04791E+01
   5.19486E+01  5.19124E+01  4.99893E+01  4.65637E+01  4.22569E+01  3.81672E+01  3.55849E+01  3.51097E+01  3.63748E+01  3.86128E+01
   4.11227E+01  4.34521E+01  4.61254E+01  4.97335E+01  5.39423E+01  5.88291E+01  6.37572E+01  6.81872E+01  7.18315E+01  7.67393E+01
   8.28741E+01  8.83770E+01  9.14777E+01  9.12211E+01  8.73868E+01  8.06973E+01  7.22839E+01  6.30599E+01  5.27708E+01  4.05014E+01
   2.59800E+01  1.09398E+01 -9.16366E-01 -6.89312E+00 -8.12653E+00 -7.86512E+00 -7.86413E+00 -8.33561E+00 -7.61613E+00 -5.08714E+00
  -1.41610E+00  5.01327E-01  4.55705E+00  1.35537E+01  2.59262E+01  3.92931E+01  5.19447E+01  6.30917E+01  7.26634E+01  8.11948E+01
   8.93131E+01  9.57523E+01  9.67726E+01  8.82162E+01  7.00586E+01  4.86482E+01  3.20111E+01  2.27152E+01  1.72183E+01  1.13923E+01
   4.08671E+00 -3.35852E+00 -8.78888E+00 -1.05195E+01 -1.08716E+01 -1.12991E+01 -1.15384E+01 -1.13927E+01 -1.07721E+01 -9.79590E+00
  -8.72361E+00 -7.82183E+00 -7.11107E+00 -6.35290E+00 -5.46398E+00 -4.53628E+00 -3.72494E+00 -3.04956E+00 -2.39717E+00 -1.83600E+00
  -1.58931E+00 -1.80933E+00 -2.48282E+00 -3.02432E+00 -2.95380E+00 -2.32990E+00 -1.52043E+00 -1.15657E+00 -1.40866E+00 -1.55543E+00
  -8.10908E-01  1.60370E+00  5.49457E+00  9.50786E+00  1.19346E+01  1.21795E+01  1.13902E+01  1.12829E+01  1.23233E+01  1.32425E+01
   1.21486E+01  8.71846E+00  4.44413E+00  7.00447E-01 -2.18326E+00 -4.53173E+00 -6.41850E+00 -8.04632E+00 -9.69070E+00 -1.10066E+01
  -1.14752E+01 -1.13875E+01 -1.12675E+01 -1.13578E+01 -1.16271E+01 -1.18353E+01 -1.16718E+01 -1.15107E+01 -1.11559E+01 -1.02206E+01
  -8.70511E+00 -6.82973E+00 -5.28242E+00 -3.72628E+00 -1.96553E+00 -1.43252E+00 -1.43925E+00 -3.19986E+00 -6.90728E+00 -1.18257E+01
  -1.71799E+01 -2.20182E+01 -2.54195E+01 -2.60725E+01 -2.29075E+01 -1.60708E+01 -6.62638E+00  3.51500E+00  1.22530E+01  1.87690E+01
   2.33353E+01  2.71446E+01  3.12769E+01  3.57219E+01  4.03695E+01  4.36193E+01  4.43664E+01  4.34311E+01  3.99609E+01  3.49958E+01
   2.87553E+01  2.13014E+01  1.26147E+01  2.72185E+00 -7.48560E+00 -1.75124E+01 -2.63223E+01 -3.32784E+01 -3.80522E+01 -4.16808E+01
  -4.41867E+01 -4.56288E+01 -4.46050E+01 -4.30655E+01 -4.21783E+01 -4.01173E+01 -3.55177E+01 -3.12179E+01 -3.19998E+01 -3.76863E+01
  -4.55063E+01 -5.32299E+01 -5.88374E+01 -6.04787E+01 -5.70102E+01 -4.99769E+01 -4.29678E+01 -3.68175E+01 -2.80632E+01 -1.22756E+01
   8.56187E+00  2.72528E+01  3.79812E+01  4.18871E+01  4.25903E+01  4.38919E+01  4.63909E+01  4.78270E+01  4.61285E+01  4.23817E+01
   3.92100E+01  3.68959E+01  3.52893E+01  3.41917E+01  3.34819E+01  3.30628E+01  3.29164E+01  3.30340E+01  3.34058E+01  3.39535E+01
   3.45006E+01  3.49640E+01  3.53769E+01  3.57199E+01  3.59267E+01  3.58551E+01  3.52941E+01  3.41994E+01  3.25204E+01  3.02545E+01
   2.73308E+01  2.38129E+01  1.98410E+01  1.56679E+01  1.16389E+01  8.15501E+00  5.53478E+00  3.87999E+00  3.07606E+00  2.99226E+00
   3.52980E+00  4.65381E+00  6.34265E+00  8.47839E+00  1.09214E+01  1.35658E+01  1.63801E+01  1.94823E+01  2.29875E+01  2.68328E+01
   3.08576E+01  3.49884E+01  3.92184E+01  4.35964E+01  4.80774E+01  5.26299E+01  5.72527E+01  6.18942E+01  6.64355E+01  7.07715E+01
   7.47967E+01  7.83628E+01  8.12545E+01  8.31528E+01  8.37876E+01  8.28689E+01  8.01637E+01  7.55545E+01  6.92414E+01  6.17019E+01
   5.35171E+01  4.62186E+01  4.04616E+01  3.67347E+01  3.54729E+01  3.61841E+01  3.84342E+01  4.18350E+01  4.60436E+01  5.08040E+01
   5.55601E+01  5.94805E+01  6.17744E+01  6.22912E+01  6.18692E+01  6.18635E+01  6.32196E+01  6.59538E+01  6.92301E+01  7.19445E+01
   7.33969E+01  7.36418E+01  7.30677E+01  7.15639E+01  6.94254E+01  6.68372E+01  6.40107E+01  6.14777E+01  5.94888E+01  5.81521E+01
   5.75521E+01  5.76728E+01  5.84620E+01  5.98338E+01  6.15210E+01  6.33071E+01  6.50479E+01  6.66486E+01  6.80003E+01  6.91114E+01
   6.99677E+01  7.05079E+01  7.07381E+01  7.08141E+01  7.09659E+01  7.14824E+01  7.27132E+01  7.51358E+01  7.91151E+01  8.48564E+01
   9.22531E+01  1.01062E+02  1.11055E+02  1.21866E+02  1.32974E+02  1.43650E+02  1.53140E+02  1.60538E+02  1.65216E+02  1.67063E+02
   1.66488E+02  1.64188E+02  1.60935E+02  1.57130E+02  1.52797E+02  1.47677E+02  1.41609E+02  1.34568E+02  1.26812E+02  1.18750E+02
   1.10794E+02  1.03241E+02  9.63144E+01  9.01370E+01  8.46417E+01  7.98365E+01  7.57660E+01  7.24536E+01  6.97350E+01  6.74376E+01
   6.55195E+01  6.39587E+01  6.27412E+01  6.17837E+01  6.09731E+01  6.02701E+01  5.96476E+01  5.90792E+01  5.84831E+01  5.79083E+01
   5.74232E+01  5.70358E+01  5.66682E+01  5.62813E+01  5.58590E+01  5.54059E+01  5.49623E+01  5.45360E+01  5.41773E+01  5.38583E+01
   5.35296E+01  5.31289E+01  5.26186E+01  5.20635E+01  5.15823E+01  5.12144E+01  5.09103E+01  5.06353E+01  5.03297E+01  4.99785E+01
   4.96717E+01  4.94001E+01  4.91107E+01  4.87401E+01  4.82898E+01  4.77550E+01  4.72669E+01  4.68600E+01  4.65228E+01  4.61655E+01
   4.57673E+01  4.53369E+01  4.49353E+01  4.46305E+01  4.44309E+01  4.42905E+01  4.40885E+01  4.37930E+01  4.34635E+01  4.31442E+01
   4.28746E+01  4.26265E+01  4.23154E+01  4.19170E+01  4.15191E+01  4.12046E+01  4.09841E+01  4.09038E+01  4.09118E+01  4.08599E+01
   4.06313E+01  4.02382E+01  3.97246E+01  3.92153E+01  3.87418E+01  3.82659E+01  3.77109E+01  3.70253E+01  3.62634E+01  3.55075E+01
 NY background values follow
    -5.395E+00   -5.103E+00   -4.812E+00   -4.522E+00   -4.231E+00   -3.941E+00   -3.649E+00   -3.356E+00   -3.061E+00   -2.763E+00
    -2.463E+00   -2.158E+00   -1.849E+00   -1.536E+00   -1.217E+00   -8.927E-01   -5.618E-01   -2.239E-01    1.214E-01    4.747E-01
     8.365E-01    1.207E+00    1.588E+00    1.979E+00    2.380E+00    2.793E+00    3.217E+00    3.654E+00    4.103E+00    4.566E+00
     5.043E+00    5.534E+00    6.039E+00    6.558E+00    7.090E+00    7.634E+00    8.190E+00    8.758E+00    9.337E+00    9.927E+00
     1.053E+01    1.114E+01    1.176E+01    1.238E+01    1.302E+01    1.366E+01    1.432E+01    1.497E+01    1.564E+01    1.631E+01
     1.699E+01    1.767E+01    1.836E+01    1.905E+01    1.974E+01    2.044E+01    2.114E+01    2.184E+01    2.255E+01    2.326E+01
     2.396E+01    2.467E+01    2.538E+01    2.608E+01    2.679E+01    2.749E+01    2.818E+01    2.887E+01    2.955E+01    3.023E+01
     3.089E+01    3.155E+01    3.219E+01    3.283E+01    3.345E+01    3.405E+01    3.465E+01    3.522E+01    3.578E+01    3.632E+01
     3.685E+01    3.735E+01    3.783E+01    3.829E+01    3.873E+01    3.914E+01    3.953E+01    3.989E+01    4.023E+01    4.054E+01
     4.081E+01    4.106E+01    4.128E+01    4.147E+01    4.164E+01    4.177E+01    4.188E+01    4.196E+01    4.202E+01    4.205E+01
     4.205E+01    4.203E+01    4.199E+01    4.192E+01    4.183E+01    4.172E+01    4.159E+01    4.144E+01    4.126E+01    4.107E+01
     4.086E+01    4.063E+01    4.038E+01    4.011E+01    3.982E+01    3.952E+01    3.920E+01    3.887E+01    3.852E+01    3.816E+01
     3.778E+01    3.739E+01    3.699E+01    3.658E+01    3.615E+01    3.572E+01    3.527E+01    3.481E+01    3.435E+01    3.388E+01
     3.340E+01    3.292E+01    3.243E+01    3.193E+01    3.143E+01    3.093E+01    3.042E+01    2.991E+01    2.940E+01    2.889E+01
     2.838E+01    2.787E+01    2.736E+01    2.685E+01    2.635E+01    2.584E+01    2.535E+01    2.485E+01    2.437E+01    2.388E+01
     2.341E+01    2.294E+01    2.248E+01    2.203E+01    2.158E+01    2.114E+01    2.071E+01    2.028E+01    1.987E+01    1.946E+01
     1.905E+01    1.865E+01    1.826E+01    1.788E+01    1.750E+01    1.714E+01    1.677E+01    1.642E+01    1.607E+01    1.572E+01
     1.539E+01    1.506E+01    1.474E+01    1.442E+01    1.411E+01    1.381E+01    1.351E+01    1.322E+01    1.294E+01    1.266E+01
     1.239E+01    1.213E+01    1.187E+01    1.162E+01    1.137E+01    1.113E+01    1.089E+01    1.067E+01    1.044E+01    1.022E+01
     1.001E+01    9.803E+00    9.600E+00    9.402E+00    9.209E+00    9.020E+00    8.836E+00    8.656E+00    8.481E+00    8.309E+00
     8.142E+00    7.978E+00    7.818E+00    7.662E+00    7.509E+00    7.360E+00    7.214E+00    7.071E+00    6.931E+00    6.794E+00
     6.660E+00    6.528E+00    6.399E+00    6.272E+00    6.146E+00    6.023E+00    5.901E+00    5.780E+00    5.660E+00    5.541E+00
     5.423E+00    5.305E+00    5.188E+00    5.070E+00    4.952E+00    4.833E+00    4.714E+00    4.593E+00    4.472E+00    4.349E+00
     4.225E+00    4.099E+00    3.970E+00    3.840E+00    3.706E+00    3.571E+00    3.432E+00    3.290E+00    3.145E+00    2.996E+00
     2.843E+00    2.686E+00    2.526E+00    2.362E+00    2.195E+00    2.025E+00    1.851E+00    1.675E+00    1.496E+00    1.315E+00
     1.132E+00    9.458E-01    7.581E-01    5.685E-01    3.774E-01    1.848E-01   -9.153E-03   -2.042E-01   -4.001E-01   -5.969E-01
    -7.942E-01   -9.920E-01   -1.190E+00   -1.388E+00   -1.586E+00   -1.784E+00   -1.981E+00   -2.178E+00   -2.374E+00   -2.569E+00
    -2.763E+00   -2.955E+00   -3.142E+00   -3.323E+00   -3.496E+00   -3.659E+00   -3.810E+00   -3.947E+00   -4.068E+00   -4.171E+00
    -4.254E+00   -4.315E+00   -4.353E+00   -4.365E+00   -4.349E+00   -4.303E+00   -4.226E+00   -4.115E+00   -3.969E+00   -3.786E+00
    -3.563E+00   -3.298E+00   -2.991E+00   -2.638E+00   -2.238E+00   -1.789E+00   -1.288E+00   -7.348E-01   -1.263E-01    5.391E-01
     1.263E+00    2.046E+00    2.884E+00    3.775E+00    4.718E+00    5.709E+00    6.746E+00    7.828E+00    8.950E+00    1.011E+01
     1.131E+01    1.254E+01    1.381E+01    1.510E+01    1.642E+01    1.777E+01    1.914E+01    2.053E+01    2.193E+01    2.335E+01
     2.479E+01    2.623E+01    2.769E+01    2.914E+01    3.060E+01    3.207E+01    3.353E+01    3.499E+01    3.644E+01    3.788E+01
     3.931E+01    4.073E+01    4.213E+01    4.353E+01    4.490E+01    4.626E+01    4.761E+01    4.893E+01    5.024E+01    5.153E+01
     5.280E+01    5.405E+01    5.527E+01    5.648E+01    5.766E+01    5.881E+01    5.995E+01    6.105E+01    6.213E+01    6.318E+01
     6.420E+01    6.519E+01    6.615E+01    6.708E+01    6.798E+01    6.885E+01    6.968E+01    7.048E+01    7.124E+01    7.197E+01
     7.266E+01    7.331E+01    7.392E+01    7.450E+01    7.505E+01    7.556E+01    7.604E+01    7.648E+01    7.689E+01    7.727E+01
     7.762E+01    7.794E+01    7.822E+01    7.848E+01    7.871E+01    7.891E+01    7.909E+01    7.923E+01    7.935E+01    7.945E+01
     7.952E+01    7.957E+01    7.959E+01    7.959E+01    7.956E+01    7.952E+01    7.945E+01    7.936E+01    7.925E+01    7.913E+01
     7.898E+01    7.882E+01    7.864E+01    7.844E+01    7.822E+01    7.799E+01    7.774E+01    7.748E+01    7.720E+01    7.690E+01
     7.660E+01    7.627E+01    7.594E+01    7.559E+01    7.523E+01    7.486E+01    7.448E+01    7.409E+01    7.369E+01    7.327E+01
     7.285E+01    7.242E+01    7.198E+01    7.153E+01    7.108E+01    7.061E+01    7.015E+01    6.967E+01    6.919E+01    6.870E+01
     6.821E+01    6.772E+01    6.722E+01    6.672E+01    6.621E+01    6.570E+01    6.519E+01    6.468E+01    6.416E+01    6.365E+01
     6.313E+01    6.261E+01    6.209E+01    6.157E+01    6.106E+01    6.054E+01    6.002E+01    5.951E+01    5.899E+01    5.848E+01
     5.798E+01    5.747E+01    5.697E+01    5.647E+01    5.597E+01    5.548E+01    5.500E+01    5.452E+01    5.404E+01    5.357E+01
     5.311E+01    5.265E+01    5.220E+01    5.176E+01    5.131E+01    5.088E+01    5.045E+01    5.002E+01    4.960E+01    4.918E+01
     4.877E+01    4.836E+01    4.795E+01    4.755E+01    4.715E+01    4.676E+01    4.636E+01    4.597E+01    4.558E+01    4.519E+01
     4.481E+01    4.442E+01    4.404E+01    4.366E+01    4.328E+01    4.290E+01    4.252E+01    4.214E+01    4.176E+01    4.138E+01
 Mac      Conc. = 1.41E-04
  -1.12437E+01 -1.09772E+01 -1.06905E+01 -1.04005E+01 -1.01067E+01 -9.89151E+00 -9.96742E+00 -1.07074E+01 -1.20209E+01 -1.35801E+01
  -1.52306E+01 -1.68964E+01 -1.85618E+01 -2.03047E+01 -2.22498E+01 -2.43397E+01 -2.61814E+01 -2.72150E+01 -2.69965E+01 -2.55557E+01
  -2.34052E+01 -2.11099E+01 -1.89019E+01 -1.67634E+01 -1.46075E+01 -1.23974E+01 -1.01592E+01 -8.03216E+00 -6.09966E+00 -4.21748E+00
  -2.40891E+00 -8.01272E-01  5.66703E-01  1.61473E+00  2.32479E+00  2.86624E+00  3.58915E+00  4.82291E+00  6.58572E+00  8.60546E+00
   1.04566E+01  1.19676E+01  1.33751E+01  1.50368E+01  1.70942E+01  1.92840E+01  2.11228E+01  2.22602E+01  2.27463E+01  2.27738E+01
   2.24777E+01  2.20079E+01  2.15009E+01  2.10681E+01  2.08152E+01  2.07986E+01  2.11092E+01  2.18301E+01  2.30517E+01  2.46322E+01
   2.62545E+01  2.76832E+01  2.88260E+01  2.95766E+01  2.99435E+01  3.00391E+01  3.00570E+01  3.01211E+01  3.03004E+01  3.07181E+01
   3.15386E+01  3.29665E+01  3.49511E+01  3.70746E+01  3.89650E+01  4.04043E+01  4.13954E+01  4.20492E+01  4.24830E+01  4.27438E+01
   4.28244E+01  4.27697E+01  4.27240E+01  4.27994E+01  4.31803E+01  4.39450E+01  4.50547E+01  4.64619E+01  4.80781E+01  4.97668E+01
   5.14843E+01  5.32576E+01  5.50534E+01  5.67723E+01  5.83450E+01  5.97786E+01  6.10394E+01  6.20558E+01  6.27171E+01  6.29975E+01
   6.28192E+01  6.20568E+01  6.04980E+01  5.79897E+01  5.43725E+01  4.96358E+01  4.38474E+01  3.74792E+01  3.13203E+01  2.61038E+01
