 
 $NMID
 ID=''
 FMTDAT='(2E13.5)'
 TRAMP=   1.00000E+0
 VOLUME=   1.00000E+0
 $END
  -2.30221E+4   5.01169E+3
  -3.59512E+4   3.03321E+4
   1.76777E+4   4.96179E+4
   4.98349E+4   2.31824E+3
   1.43711E+4  -4.67940E+4
  -3.15346E+4  -3.09797E+4
  -3.39547E+4   1.73640E+4
  -1.30327E+2   3.82188E+4
   3.05533E+4   1.44567E+4
   2.08322E+4  -2.39795E+4
  -1.46563E+4  -3.04608E+4
  -2.73941E+4   2.20055E+2
  -8.81610E+3   2.44873E+4
   1.37676E+4   1.35259E+4
   1.91559E+4  -1.11434E+4
   2.98406E+3  -1.79064E+4
  -1.68524E+4  -3.29529E+3
  -1.24567E+4   1.10049E+4
   6.68065E+3   1.08001E+4
   1.33333E+4   3.55979E+2
   3.68607E+3  -8.78347E+3
  -6.73107E+3  -6.83275E+3
  -8.14214E+3   4.13003E+3
  -6.52700E+2   8.17287E+3
   6.85254E+3   1.85693E+3
   5.11065E+3  -3.35011E+3
  -2.66896E+3  -3.28564E+3
  -5.66095E+3  -1.07131E+3
  -1.41445E+3   2.64055E+3
   3.57383E+3   3.76538E+3
   3.31690E+3  -4.11916E+2
  -2.46564E+2  -3.95437E+3
  -2.49693E+3  -2.25015E+3
  -1.18343E+3   7.11818E+2
   2.39060E+3   2.27993E+3
   3.53034E+3   2.01508E+3
   3.79726E+2  -1.18631E+3
  -2.53659E+3  -2.58682E+3
  -1.41928E+3  -1.07586E+1
   2.20044E+2   2.03024E+3
   1.34240E+3   3.33250E+2
   2.00930E+3  -2.05163E+3
   6.27625E+2  -1.18020E+3
  -1.36818E+3   1.05488E+3
  -1.18412E+3   2.05528E+3
   5.39892E+1   1.45541E+3
   1.72188E+1  -3.57062E+2
  -1.67342E+2  -2.92832E+3
  -1.83948E+2  -1.94584E+3
  -3.76991E+2   7.69122E+2
   6.67077E+2   1.53688E+3
   1.48779E+3   2.71959E+2
   9.98355E+2  -7.40526E+2
  -7.82673E+2  -4.40451E+2
  -1.81636E+3   2.46968E+2
  -9.79030E+2   6.12585E+2
   9.41410E+2   1.68838E+2
   1.56330E+3  -7.30770E+2
   8.24892E+2  -4.02633E+2
  -6.73957E+2   6.03606E+2
  -1.47151E+3   9.35303E+2
  -4.26733E+2   1.28739E+3
  -1.57515E+2   9.87272E+1
  -4.43942E+2  -1.62760E+3
  -5.71989E+2  -2.20949E+3
   3.39235E+2  -6.45951E+2
   9.60165E+2   9.26487E+2
   1.31791E+3   1.27801E+3
   3.11011E+2   4.64249E+2
  -4.64904E+2  -5.65018E+2
  -9.24040E+1  -4.70785E+2
   1.79369E+2   9.11023E+2
   2.10016E+2   1.17313E+3
  -4.87342E+2  -7.62178E+1
  -2.59957E+2  -8.16058E+2
  -1.56037E+2  -4.65779E+2
  -3.75112E+2   2.36876E+2
  -5.09036E+2   3.21165E+2
   8.60286E+1  -1.12017E+2
   2.79089E+2  -6.42060E+2
   1.82164E+2  -5.27803E+2
   2.93253E+2  -5.66920E+1
   2.89762E+2   2.52581E+2
   2.17596E+2  -1.33311E+0
   4.62734E+2  -3.32432E+2
   2.33546E+2   4.37324E+2
  -9.28025E+1   9.01304E+2
  -1.49805E+2   4.42615E+2
   3.92886E+2  -1.91215E+2
   2.92420E+2  -1.34504E+2
  -2.61484E+2   3.07102E+2
  -1.00296E+3   2.71676E+2
  -5.36532E+2  -6.07115E+2
   4.97941E+2  -5.46006E+2
   8.17859E+2  -3.82959E+2
   5.51639E+2   4.05931E+0
  -3.06920E+2   1.14633E+2
  -1.34356E+2   2.61191E+2
   2.53869E+2   1.79658E+2
   2.52000E+2   2.33536E+2
  -6.63859E+2   7.38402E+1
  -9.23640E+2  -4.11208E+2
  -1.14620E+2  -4.82604E+2
   6.16152E+2   1.93362E+2
   5.50720E+2   5.42026E+2
  -2.56450E+2   3.82601E+2
  -8.60953E+2  -4.17173E+2
  -3.00900E+2  -7.61024E+2
   7.48697E+2  -1.00713E+2
   5.61629E+2   7.90460E+2
  -3.28548E+2   5.52622E+2
  -7.48975E+2   1.62151E+1
  -2.57775E+2  -3.08572E+2
  -2.87977E+2   1.20862E+2
  -3.12868E+2   1.08006E+2
  -1.48464E+2  -3.75594E+2
   9.21234E+1  -9.44179E+2
   5.36257E+2  -5.60194E+2
   6.20197E+2   3.22333E+2
   2.78856E+2   4.86064E+2
  -1.22254E+2   4.76504E+2
  -3.73688E+2   6.67739E+1
  -5.43052E+2   1.50641E+2
  -5.09515E+2  -1.03394E+2
  -2.65943E+2  -2.63821E+2
   1.90705E+2  -1.88097E+2
   1.94241E+2   4.70623E+1
  -1.61337E+1   2.60998E+2
   8.64996E+1   4.21162E+2
  -5.32083E+2   1.68196E+2
  -3.12248E+2  -6.20472E+2
   2.00103E+2  -6.14908E+2
   1.64911E+2   2.13530E+0
  -3.91867E+2   2.54977E+2
  -1.67941E+2  -4.86406E+1
   7.17185E+1   6.37837E+1
   2.37180E+2   3.61411E+2
  -3.64460E+2   4.17653E+2
  -4.82695E+2  -2.26118E+2
  -1.33026E+2  -5.06135E+2
   2.70747E+2  -4.77633E+2
   1.25659E+2   2.04637E+2
  -2.63250E+2   4.12311E+2
  -5.01724E+2   1.40319E+2
  -4.77082E+2  -4.49055E+2
   2.40372E+2  -4.59491E+2
   5.29624E+2  -2.42445E+2
   1.89339E+2  -1.07398E+2
   1.61895E+2  -2.17224E+2
   1.81974E+2  -1.63514E+2
   4.89904E+2   2.15937E+2
   1.36234E+2   6.45723E+2
  -3.81050E+2   1.43601E+2
  -2.79080E+2  -1.58724E+2
   7.47476E+0  -6.60820E+1
   1.62399E+2  -5.67519E+1
  -1.93393E+1   3.16919E+2
   4.66532E+1  -4.32681E+1
  -5.41732E+1   4.05795E+0
   8.83954E+1  -1.14573E+2
  -7.09087E+1  -1.52471E+2
  -2.93979E+2  -4.82949E+1
   3.68718E+2  -4.43766E+2
   2.28882E+2  -1.03240E+2
   9.70138E+1   1.34794E+2
   1.91367E+2   2.88332E+2
  -2.31128E+2   2.43386E+2
  -9.02279E+1  -4.69289E+2
   2.31743E+2  -1.54046E+2
   1.13105E+2   3.02863E+2
  -1.66766E+1   1.94300E+2
  -1.64811E+2   6.09871E+0
  -1.43907E+2  -4.63966E+2
   3.78214E+2  -1.30384E+2
   1.60663E+2  -1.59892E+0
  -2.35341E+2  -1.85782E+2
   4.54947E+1  -4.43446E+2
   3.77553E+2  -3.03696E+2
   3.33531E+2   2.08521E+2
  -2.62056E+2   2.98602E+1
  -2.77217E+2   4.36308E+1
  -2.18989E+2  -1.07467E+2
   1.13541E+2  -3.15036E+2
  -2.22288E+1   2.06819E+1
   7.26063E+1  -2.28139E+2
   9.88023E+1  -1.76277E+2
   1.10743E+2  -2.83428E+2
   2.51060E+2   1.67634E+2
  -4.73809E+1   2.92124E+2
  -5.22865E+2  -5.45924E+1
  -4.55365E+2  -3.36381E+2
  -2.01159E+2  -6.01406E+2
   2.63076E+2  -3.83609E+2
   1.82784E+2   1.60387E+2
  -1.17979E+2   2.39849E+1
  -1.30950E+2  -1.12106E+2
  -1.11984E+2  -2.39380E+2
   1.52816E+1   5.09860E+0
  -4.62311E+1   4.01615E+0
  -5.27736E+1  -2.89936E+2
   2.16602E+2  -3.77474E+2
   4.08222E+2  -5.80369E+1
  -1.03393E+2   2.25052E+2
  -1.14259E+2   1.08044E+2
  -7.49605E+1  -1.00876E+2
   5.39634E+1  -5.73591E+1
  -1.87083E+2  -3.90545E+2
   1.95207E+1   2.69829E+1
  -5.12201E+1  -3.77858E+1
  -1.13964E+2  -5.16967E+1
   4.09836E+1   1.62708E+1
   5.10649E+1   2.62846E+1
  -3.05447E+2   2.93914E+2
  -4.08300E+2  -3.56145E+2
  -5.70362E+1  -2.83749E+2
   3.69759E+2  -2.24973E+2
   1.54925E+2   1.93011E+2
  -4.80162E+1   1.27511E+2
  -5.83578E+1  -1.46033E+2
  -1.99733E+2   1.08757E+2
  -1.53245E+2   3.57568E+2
  -9.77778E+1   1.18942E+2
  -2.15411E+2  -1.50402E+2
  -6.77577E+1  -2.22971E+2
   3.54243E+2  -2.27476E+2
   1.33145E+2   1.76169E+2
  -8.78298E+1   1.79535E+2
  -3.19592E+2  -1.74844E+2
  -1.55259E+1  -1.14499E+2
  -2.97324E+1  -1.51762E+2
  -1.62892E+2   1.40197E+2
   1.66645E+0  -5.71575E+0
  -6.83268E+1  -1.52389E+2
   6.82849E+1   2.20654E+2
   8.40097E+1   2.12987E+2
  -2.36804E+2  -1.04843E+1
   1.82322E+1   1.38126E+2
  -6.48331E+0   8.15751E+1
  -1.00573E+2  -3.21296E+2
   3.27008E+1   1.13265E+2
  -5.68487E+1   9.62544E+1
  -4.86102E+1  -5.88053E+1
  -4.73524E+1  -3.84888E+2
   4.34185E+1  -1.19806E+2
  -2.31180E+1   1.88820E+1
   3.72438E+1   8.46436E+1
  -1.12345E+2  -1.14013E+2
   1.20798E+2   1.98619E+2
  -5.76293E+1  -1.01659E+2
  -1.97671E+2   1.88997E+2
  -9.69915E+1  -1.31158E+2
  -3.42042E+1  -2.38334E+2
   1.81193E+2  -1.27958E+2
   1.97148E+2   1.23070E+2
  -3.02631E+2   1.46057E+2
  -4.94781E+1   7.63767E+1
  -1.38254E+2   1.01097E+2
   7.10816E+1   1.73849E+1
  -1.03586E+0  -4.33937E+0
  -2.51588E+1   5.99298E+1
   5.98547E+1  -3.40087E+2
   8.80441E+1   9.23072E+0
  -1.58398E+1   4.75656E+1
  -2.64769E+2   1.25737E+2
   1.31739E+2  -3.78946E+1
  -5.31644E+1  -1.79225E+2
   3.06050E+1  -2.39308E+2
  -1.26172E+2  -1.24085E+2
   1.74425E+1  -5.09909E+1
   6.99795E+0   1.43266E+2
  -9.66888E+1   1.29181E+2
  -3.51503E+1   2.73414E+2
  -1.91677E+1   1.29140E+2
  -2.42257E+2  -5.59576E+1
  -3.72238E+2  -1.30226E+2
  -1.33615E+2  -2.89402E+1
   2.98223E+2  -4.47619E+1
  -7.89103E+1   1.36689E+2
  -3.60082E+2   1.35440E+2
  -1.96129E+2   4.83435E+1
   6.79320E+1   2.78162E+1
  -1.10022E+2  -1.88397E+1
  -1.70851E+2   5.72790E+1
  -2.17172E+2  -2.63469E+2
  -5.38683E+1  -7.24683E+1
   1.61038E+1  -7.28679E+1
   8.11478E+1   2.54834E+2
  -3.19396E+2   2.44216E+2
  -2.60275E+2   1.25838E+2
  -2.34645E+2  -1.09604E+1
   1.11536E+2  -4.87976E+1
   1.92043E+2   9.51625E-1
   1.20223E+2  -7.61850E+1
  -3.03531E+2  -1.70228E+2
  -3.46535E+1   8.98083E-1
  -2.56441E+1   1.95161E+2
  -2.28678E+2  -1.26309E+2
  -1.70533E+2   3.56976E+1
  -1.11483E+2   7.88650E+1
  -8.47107E+1  -1.58479E+0
  -5.65827E+1   3.07858E+1
  -1.73906E+2   1.14386E+2
  -1.35346E+2  -6.40804E+1
   4.72726E+1   8.30467E+1
   1.18749E+2   1.13296E+2
   5.93275E+1   2.12962E+2
  -2.49132E+1   1.54254E+2
  -7.18544E+1  -2.46844E+1
   3.61469E+0   2.69877E+2
  -4.59440E+1  -2.36206E+1
  -1.11977E+2   9.32334E+0
  -2.74320E+2  -1.76125E+2
  -2.66756E+1   1.98551E+1
   2.08798E+2  -6.72863E+1
   7.33522E+1   3.95870E+1
  -5.86113E+1   2.69786E+2
  -9.99040E+1   3.83886E+1
  -7.77891E+1  -1.49047E+2
  -1.04634E+2   4.39920E+0
   8.24473E+1   1.54766E+2
  -1.89967E+2   5.81724E+1
   6.35812E+1   9.41403E+1
   9.52768E+1  -7.75008E+1
  -1.54046E+2   7.14516E+1
  -2.28251E+2   4.21668E+1
  -3.24313E+2  -7.24214E+1
   1.99720E+0   7.61178E+1
   4.86515E+1   9.64752E+1
   1.44931E+2   3.45990E+0
   2.75331E+0   8.45641E+1
   7.36712E+1   7.79962E+1
  -7.05500E+1   5.38504E+1
   1.55341E+2   4.68790E+1
  -2.12384E+2  -7.59228E+1
  -1.76247E+2  -1.34678E+2
  -1.22121E+2  -1.36563E+2
   2.81564E+2  -9.02253E+1
   7.72869E+1   2.11318E+2
  -1.48449E+2   2.35856E+2
   1.05701E+2   1.34951E+2
   7.58740E+1  -9.46559E+1
  -3.23007E+1   1.26479E+2
  -1.72755E+2   5.84948E+1
  -2.56575E+1  -6.49257E+1
   1.67094E+2  -1.70560E+1
  -2.58600E+0   5.36894E+1
   9.39661E+1   1.09424E+1
   2.26366E+1  -3.00093E+1
  -3.40665E+2   2.68037E+2
  -3.27663E+1  -1.57600E+2
   5.43597E+1  -1.54267E+2
   3.54378E+1   3.83700E+0
  -6.80639E+1   5.53276E+1
  -2.28334E+2  -1.11545E+2
  -1.25635E+2   1.91691E+2
   1.90977E+2   1.92610E+2
  -1.18683E+2   2.22300E+2
  -8.80999E+1  -1.19699E+2
  -1.41001E+1   6.74986E+1
   1.44851E+2  -5.87912E+1
   1.67379E+0  -3.96601E+1
   1.70908E+2   3.61676E+1
  -6.92340E+1   1.46998E+2
  -3.01283E+2  -6.51838E+1
  -2.17917E+2   5.05601E+1
  -1.18207E+2   9.15712E+1
  -1.26013E+2  -1.40566E+1
