 
 $NMID
 ID=''
 FMTDAT='(2E13.5)'
 TRAMP=   1.00000E+0
 VOLUME=   1.00000E+0
 $END
  -1.58428E+5   7.50701E+5
  -1.06755E+6   1.75243E+6
  -8.41990E+5   1.77799E+6
  -9.25431E+5   1.60051E+6
  -1.01328E+6   1.68996E+6
  -8.94393E+5   1.70184E+6
  -9.09900E+5   1.60817E+6
  -9.83088E+5   1.64323E+6
  -9.39185E+5   1.63761E+6
  -9.68817E+5   1.56270E+6
  -1.02095E+6   1.56785E+6
  -9.98624E+5   1.54962E+6
  -1.02185E+6   1.49402E+6
  -1.06388E+6   1.48804E+6
  -1.05973E+6   1.45746E+6
  -1.07927E+6   1.40845E+6
  -1.10626E+6   1.40483E+6
  -1.10418E+6   1.38341E+6
  -1.11867E+6   1.34767E+6
  -1.12597E+6   1.34552E+6
  -1.12095E+6   1.32365E+6
  -1.13801E+6   1.29198E+6
  -1.15011E+6   1.28178E+6
  -1.14873E+6   1.25784E+6
  -1.16441E+6   1.22445E+6
  -1.17007E+6   1.21163E+6
  -1.17657E+6   1.18410E+6
  -1.19631E+6   1.15004E+6
  -1.20595E+6   1.12533E+6
  -1.20562E+6   1.10025E+6
  -1.21867E+6   1.07461E+6
  -1.22136E+6   1.05657E+6
  -1.22020E+6   1.03256E+6
  -1.22643E+6   1.01243E+6
  -1.22395E+6   9.96994E+5
  -1.21831E+6   9.81698E+5
  -1.22273E+6   9.68373E+5
  -1.22568E+6   9.51938E+5
  -1.22298E+6   9.27653E+5
  -1.22531E+6   9.07786E+5
  -1.22739E+6   8.87150E+5
  -1.22724E+6   8.61406E+5
  -1.22696E+6   8.39599E+5
  -1.22746E+6   8.19764E+5
  -1.22911E+6   7.94724E+5
  -1.23172E+6   7.71161E+5
  -1.23158E+6   7.50345E+5
  -1.23068E+6   7.27109E+5
  -1.22747E+6   7.05831E+5
  -1.22353E+6   6.88063E+5
  -1.22075E+6   6.69832E+5
  -1.21966E+6   6.51748E+5
  -1.21663E+6   6.34370E+5
  -1.21394E+6   6.15772E+5
  -1.21125E+6   5.96127E+5
  -1.20845E+6   5.75445E+5
  -1.20522E+6   5.53566E+5
  -1.20045E+6   5.31814E+5
  -1.19491E+6   5.12328E+5
  -1.19140E+6   4.93766E+5
  -1.18817E+6   4.72907E+5
  -1.18356E+6   4.53031E+5
  -1.17911E+6   4.33921E+5
  -1.17412E+6   4.14444E+5
  -1.16713E+6   3.95070E+5
  -1.15948E+6   3.77108E+5
  -1.15234E+6   3.60405E+5
  -1.14588E+6   3.43236E+5
  -1.14028E+6   3.26309E+5
  -1.13526E+6   3.07800E+5
  -1.12822E+6   2.89011E+5
  -1.12027E+6   2.70967E+5
  -1.11333E+6   2.54497E+5
  -1.10755E+6   2.36896E+5
  -1.10008E+6   2.18856E+5
  -1.09165E+6   2.01932E+5
  -1.08393E+6   1.85728E+5
  -1.07665E+6   1.70081E+5
  -1.06875E+6   1.53511E+5
  -1.05977E+6   1.37374E+5
  -1.05132E+6   1.22005E+5
  -1.04239E+6   1.07181E+5
  -1.03421E+6   9.20795E+4
  -1.02537E+6   7.55148E+4
  -1.01617E+6   5.93447E+4
  -1.00693E+6   4.39301E+4
  -9.97573E+5   2.94447E+4
  -9.88707E+5   1.41554E+4
  -9.79415E+5  -1.01178E+3
  -9.69321E+5  -1.44789E+4
  -9.59299E+5  -2.69724E+4
  -9.50181E+5  -3.92404E+4
  -9.41119E+5  -5.22265E+4
  -9.30869E+5  -6.41413E+4
  -9.20159E+5  -7.44336E+4
  -9.10470E+5  -8.40672E+4
  -9.01191E+5  -9.43495E+4
  -8.92399E+5  -1.04665E+5
  -8.82532E+5  -1.14875E+5
  -8.72642E+5  -1.24664E+5
  -8.63761E+5  -1.34279E+5
  -8.54335E+5  -1.44999E+5
  -8.42804E+5  -1.55335E+5
  -8.31965E+5  -1.64447E+5
  -8.21947E+5  -1.72551E+5
  -8.12493E+5  -1.80474E+5
  -8.03060E+5  -1.89041E+5
  -7.92776E+5  -1.97379E+5
  -7.81577E+5  -2.04668E+5
  -7.71347E+5  -2.10756E+5
  -7.62272E+5  -2.16668E+5
  -7.53083E+5  -2.24007E+5
  -7.42760E+5  -2.31856E+5
  -7.32449E+5  -2.38399E+5
  -7.22093E+5  -2.44923E+5
  -7.12155E+5  -2.51629E+5
  -7.01614E+5  -2.58500E+5
  -6.90262E+5  -2.64370E+5
  -6.79393E+5  -2.69137E+5
  -6.69802E+5  -2.73507E+5
  -6.60589E+5  -2.78253E+5
  -6.50737E+5  -2.83462E+5
  -6.41062E+5  -2.87909E+5
  -6.31164E+5  -2.92991E+5
  -6.20987E+5  -2.97489E+5
  -6.10334E+5  -3.01579E+5
  -5.99547E+5  -3.05274E+5
  -5.89592E+5  -3.09326E+5
  -5.79449E+5  -3.13427E+5
  -5.69458E+5  -3.17726E+5
  -5.58952E+5  -3.22772E+5
  -5.47539E+5  -3.27333E+5
  -5.36920E+5  -3.30618E+5
  -5.26762E+5  -3.33933E+5
  -5.16375E+5  -3.37660E+5
  -5.05666E+5  -3.40837E+5
  -4.95666E+5  -3.43250E+5
  -4.85920E+5  -3.45611E+5
  -4.76242E+5  -3.48805E+5
  -4.65673E+5  -3.51636E+5
  -4.55221E+5  -3.53761E+5
  -4.45497E+5  -3.55360E+5
  -4.35742E+5  -3.56926E+5
  -4.26560E+5  -3.58926E+5
  -4.17000E+5  -3.61554E+5
  -4.06618E+5  -3.63283E+5
  -3.96134E+5  -3.64682E+5
  -3.86364E+5  -3.66111E+5
  -3.76690E+5  -3.67228E+5
  -3.67296E+5  -3.68029E+5
  -3.57707E+5  -3.68742E+5
  -3.48888E+5  -3.69406E+5
  -3.40470E+5  -3.69825E+5
  -3.31847E+5  -3.70617E+5
  -3.22905E+5  -3.71105E+5
  -3.14103E+5  -3.70896E+5
  -3.05895E+5  -3.70766E+5
  -2.97934E+5  -3.70892E+5
  -2.89603E+5  -3.70444E+5
  -2.81659E+5  -3.69945E+5
  -2.73629E+5  -3.69775E+5
  -2.65465E+5  -3.69326E+5
  -2.57913E+5  -3.68802E+5
  -2.49754E+5  -3.67602E+5
  -2.42381E+5  -3.66571E+5
  -2.35433E+5  -3.65245E+5
  -2.28414E+5  -3.64623E+5
  -2.21294E+5  -3.63993E+5
  -2.14198E+5  -3.62537E+5
  -2.07135E+5  -3.61065E+5
  -2.00604E+5  -3.59781E+5
  -1.94188E+5  -3.58318E+5
  -1.87750E+5  -3.56824E+5
  -1.81280E+5  -3.55101E+5
  -1.74627E+5  -3.53603E+5
  -1.68799E+5  -3.51873E+5
  -1.62557E+5  -3.50403E+5
  -1.55873E+5  -3.48737E+5
  -1.49528E+5  -3.46505E+5
  -1.43997E+5  -3.44407E+5
  -1.38230E+5  -3.42611E+5
  -1.32597E+5  -3.41056E+5
  -1.26427E+5  -3.38715E+5
  -1.20938E+5  -3.36574E+5
  -1.15344E+5  -3.34494E+5
  -1.10132E+5  -3.31864E+5
  -1.04618E+5  -3.29549E+5
  -9.95670E+4  -3.26811E+5
  -9.46984E+4  -3.24153E+5
  -9.02526E+4  -3.21901E+5
  -8.50105E+4  -3.20089E+5
  -7.95469E+4  -3.17601E+5
  -7.39207E+4  -3.15197E+5
  -6.89861E+4  -3.12215E+5
  -6.41243E+4  -3.09558E+5
  -5.96365E+4  -3.07013E+5
  -5.44723E+4  -3.04322E+5
  -4.97683E+4  -3.01447E+5
  -4.49625E+4  -2.98939E+5
  -4.04056E+4  -2.96072E+5
  -3.52298E+4  -2.93278E+5
  -3.07498E+4  -2.89991E+5
  -2.63553E+4  -2.86625E+5
  -2.22651E+4  -2.83965E+5
  -1.78256E+4  -2.81187E+5
  -1.35097E+4  -2.78440E+5
  -9.51110E+3  -2.75233E+5
  -5.07586E+3  -2.72067E+5
  -1.37350E+3  -2.69022E+5
   2.90823E+3  -2.65683E+5
   7.01630E+3  -2.62436E+5
   1.08391E+4  -2.59133E+5
   1.43313E+4  -2.56131E+5
   1.78060E+4  -2.53434E+5
   2.19091E+4  -2.50237E+5
   2.59028E+4  -2.46635E+5
   2.91184E+4  -2.43022E+5
   3.19221E+4  -2.39912E+5
   3.50378E+4  -2.36798E+5
   3.80114E+4  -2.33663E+5
   4.11269E+4  -2.30275E+5
   4.38746E+4  -2.26842E+5
   4.64912E+4  -2.23897E+5
   4.95127E+4  -2.20747E+5
   5.19549E+4  -2.17395E+5
   5.44512E+4  -2.14068E+5
   5.63394E+4  -2.10814E+5
   5.84380E+4  -2.07938E+5
   6.10342E+4  -2.05296E+5
   6.33888E+4  -2.01935E+5
   6.54809E+4  -1.98593E+5
   6.71268E+4  -1.95464E+5
   6.86707E+4  -1.92271E+5
   7.07474E+4  -1.89764E+5
   7.20066E+4  -1.86599E+5
   7.34748E+4  -1.83840E+5
   7.47114E+4  -1.80985E+5
   7.63332E+4  -1.78053E+5
   7.78258E+4  -1.74952E+5
   7.87180E+4  -1.72219E+5
   7.99507E+4  -1.69079E+5
   8.08530E+4  -1.66741E+5
   8.17997E+4  -1.64186E+5
   8.29013E+4  -1.61276E+5
   8.35704E+4  -1.58472E+5
   8.46979E+4  -1.55738E+5
   8.53573E+4  -1.53381E+5
   8.63528E+4  -1.50488E+5
   8.68777E+4  -1.47724E+5
   8.75518E+4  -1.45142E+5
   8.78033E+4  -1.43081E+5
   8.86501E+4  -1.40345E+5
   8.94243E+4  -1.37415E+5
   8.99325E+4  -1.34864E+5
   9.02372E+4  -1.32460E+5
   9.05550E+4  -1.30255E+5
   9.11655E+4  -1.27718E+5
   9.16010E+4  -1.25494E+5
   9.18928E+4  -1.22456E+5
   9.24470E+4  -1.20374E+5
   9.30173E+4  -1.17641E+5
   9.38020E+4  -1.15209E+5
   9.38160E+4  -1.12537E+5
   9.39353E+4  -1.10089E+5
   9.39416E+4  -1.07908E+5
   9.43694E+4  -1.05658E+5
   9.46206E+4  -1.03256E+5
   9.48654E+4  -1.00766E+5
   9.48187E+4  -9.84521E+4
   9.48382E+4  -9.61632E+4
   9.51506E+4  -9.39831E+4
   9.51536E+4  -9.18844E+4
   9.50619E+4  -8.94652E+4
   9.52276E+4  -8.73031E+4
   9.51784E+4  -8.52592E+4
   9.53637E+4  -8.27613E+4
   9.51799E+4  -8.01573E+4
   9.52961E+4  -7.81167E+4
   9.52064E+4  -7.63578E+4
   9.51732E+4  -7.43910E+4
   9.51274E+4  -7.21577E+4
   9.50090E+4  -7.01692E+4
   9.47291E+4  -6.82064E+4
   9.44702E+4  -6.63589E+4
   9.42199E+4  -6.41453E+4
   9.40227E+4  -6.18788E+4
   9.38198E+4  -6.01613E+4
   9.30619E+4  -5.85275E+4
   9.29045E+4  -5.71585E+4
   9.28728E+4  -5.53648E+4
   9.24434E+4  -5.36081E+4
   9.20716E+4  -5.16578E+4
   9.14096E+4  -5.00722E+4
   9.11859E+4  -4.83975E+4
   9.09509E+4  -4.69347E+4
   9.02435E+4  -4.53186E+4
   8.97510E+4  -4.38926E+4
   8.91921E+4  -4.24640E+4
   8.89291E+4  -4.09686E+4
   8.84189E+4  -3.95071E+4
   8.76527E+4  -3.79306E+4
   8.70872E+4  -3.68383E+4
   8.66332E+4  -3.56460E+4
   8.61016E+4  -3.42639E+4
   8.58144E+4  -3.28156E+4
   8.46490E+4  -3.14178E+4
   8.40070E+4  -3.04111E+4
   8.36067E+4  -2.92849E+4
   8.30546E+4  -2.80312E+4
   8.23003E+4  -2.66307E+4
   8.13269E+4  -2.57006E+4
   8.07512E+4  -2.45269E+4
   8.01961E+4  -2.35745E+4
   7.95630E+4  -2.21806E+4
   7.88553E+4  -2.14045E+4
   7.80622E+4  -2.03534E+4
   7.73317E+4  -1.93824E+4
   7.67134E+4  -1.83856E+4
   7.59865E+4  -1.74871E+4
   7.51615E+4  -1.65543E+4
   7.43605E+4  -1.56553E+4
   7.38821E+4  -1.48898E+4
   7.31122E+4  -1.40451E+4
   7.23781E+4  -1.28490E+4
   7.14629E+4  -1.22584E+4
   7.08419E+4  -1.17024E+4
   7.03183E+4  -1.08689E+4
   6.95485E+4  -9.92726E+3
   6.86587E+4  -8.96484E+3
   6.79284E+4  -8.45400E+3
   6.71646E+4  -7.61110E+3
   6.62380E+4  -6.98037E+3
   6.55673E+4  -6.26566E+3
   6.46249E+4  -5.50865E+3
   6.40431E+4  -5.01891E+3
   6.31459E+4  -4.37765E+3
   6.28461E+4  -3.50977E+3
   6.20233E+4  -2.84948E+3
   6.07552E+4  -2.35242E+3
   5.99326E+4  -1.88301E+3
   5.95023E+4  -1.22000E+3
   5.88780E+4  -5.45537E+2
   5.81876E+4   1.82512E+2
   5.72067E+4   6.43891E+2
   5.66561E+4   1.22179E+3
   5.59014E+4   1.68472E+3
   5.51135E+4   2.15601E+3
   5.45416E+4   2.52881E+3
   5.38088E+4   3.12899E+3
   5.32898E+4   3.43119E+3
   5.25315E+4   4.25050E+3
   5.17293E+4   4.34780E+3
   5.10400E+4   5.03585E+3
   5.03717E+4   5.19680E+3
   4.98788E+4   5.64351E+3
   4.91305E+4   6.19174E+3
   4.82069E+4   6.33077E+3
   4.76421E+4   6.74514E+3
   4.71551E+4   7.16407E+3
   4.66142E+4   7.64958E+3
   4.56510E+4   8.01323E+3
   4.51538E+4   8.45982E+3
   4.41969E+4   8.37916E+3
   4.36101E+4   8.71489E+3
   4.31996E+4   9.01497E+3
   4.29970E+4   9.53447E+3
   4.21457E+4   9.73249E+3
