 
 $NMID
 ID=''
 FMTDAT='(2E13.5)'
 TRAMP=   1.00000E+0
 VOLUME=   1.00000E+0
 $END
  -3.31494E+4   4.06551E+3
  -4.17376E+3   3.15080E+4
   3.31331E+4   1.43281E+4
   1.85778E+4  -1.98668E+4
  -2.41189E+4  -1.98865E+4
  -2.57688E+4   8.13202E+3
   5.05271E+3   2.19928E+4
   1.93236E+4   7.26253E+3
   7.62097E+3  -1.38991E+4
  -1.08605E+4  -1.42012E+4
  -1.43431E+4   3.47626E+3
   6.51369E+2   1.15915E+4
   9.99081E+3   1.82168E+3
   4.56535E+3  -8.69282E+3
  -2.24524E+3  -7.83120E+3
  -2.78872E+3   4.96046E+2
  -8.23127E+2   6.61331E+3
   2.51698E+3   3.74120E+3
   3.07334E+3  -1.60307E+3
  -4.59747E+2  -1.19431E+3
  -3.44266E+3  -1.12871E+2
  -2.01025E+3   8.83623E+1
   1.36989E+2   2.17357E+3
  -1.52960E+2   1.11204E+3
  -3.00646E+2  -2.95714E+3
   1.12995E+3  -1.94526E+3
  -1.48849E+2   1.39368E+3
  -2.35347E+3   4.93583E+2
  -2.61805E+2  -7.63932E+2
   1.75903E+3   2.86414E+2
   6.65238E+2   7.38249E+2
  -1.11906E+3  -4.73672E+2
  -1.22663E+3  -5.86204E+2
  -7.96211E+2  -4.44774E+2
   7.94959E+2  -3.92285E+2
   2.64890E+3   5.99242E+2
   5.25935E+2   1.39370E+3
  -2.10084E+3  -2.53935E+1
  -1.07473E+3  -6.68885E+2
   2.32342E+2   5.43965E+2
  -3.55608E+2   1.67528E+2
   4.09987E+1  -2.00120E+3
   1.24935E+3  -1.40985E+3
   7.84779E+2   7.91599E+2
   2.19243E+1   1.44077E+3
   2.07168E+2   7.83145E+2
  -9.91594E+1   9.96522E+2
  -1.28195E+3  -5.63694E+2
  -8.40181E+2  -1.77457E+3
   2.39622E+2  -8.34900E+2
   1.13598E+3   1.79018E+2
   8.25882E+2  -2.75648E+2
   7.96113E+2  -3.52280E+2
  -1.61112E+2   1.74276E+2
  -1.94264E+2   9.86775E+2
  -4.59475E+2   2.59680E+2
  -3.55812E+2  -8.61913E+2
   2.34628E+2  -1.26237E+3
   1.05898E+3  -2.70694E+2
   8.69780E+2   6.55090E+2
   1.98276E+2   4.91327E+2
   1.29401E+2   7.94746E+2
  -5.51434E+2   8.77057E+2
  -1.74241E+3  -5.74089E+1
  -1.34032E+3  -1.18014E+3
  -3.02973E+1  -1.37776E+3
   6.39453E+2  -9.55886E+2
   1.08604E+3  -4.96584E+2
   7.65571E+2   6.14396E+2
  -6.52893E+1   7.77778E+2
  -3.03727E+2   6.54586E+1
   4.67551E+2  -5.19092E+2
   5.75797E+2   4.09059E+2
  -2.15737E+2   1.04646E+3
  -6.24629E+2   8.11099E+1
   2.07127E+2  -5.90007E+2
   2.03091E+2   1.80850E+2
  -2.63766E+2   7.57593E+2
  -5.16631E+2   4.46097E+1
  -2.27448E+2  -3.63165E+2
   5.58855E+1  -3.32858E+2
   2.03866E+2  -2.80458E+2
   2.04680E+2  -1.58219E+2
   1.55059E+2  -2.36290E+2
   2.12401E+2  -9.76536E+1
   4.66475E+2   2.11841E+1
   5.67784E+2   5.18033E+2
   2.09269E+2   6.32573E+2
   1.12624E+2   3.98918E+2
   2.49860E+1   2.76568E+2
   3.86933E+2   8.00999E+2
  -1.26138E+1   7.39748E+2
  -5.26107E+2   5.40808E+2
  -7.06504E+2  -3.92386E+2
   2.24521E+2  -8.43460E+2
   8.19495E+2   1.85854E+1
   3.13633E+2   4.71065E+2
  -1.06314E+2   2.04712E+2
   2.68802E+2  -3.85162E+2
   6.21835E+2   3.06337E+2
  -7.87762E+0   1.11189E+3
  -6.42422E+2   5.39397E+2
  -1.08689E+2  -1.76328E+2
   4.54288E+2  -2.52722E+2
   3.97978E+2   2.35987E+0
   3.42886E+2   4.90580E+2
  -1.36356E+2   3.99262E+2
  -5.43062E+2   4.05311E+1
   3.43520E+1  -8.34965E+2
   9.68146E+2  -5.33746E+2
   7.61274E+2   6.27086E+2
   8.71140E+1   7.67782E+2
  -2.98058E+2   1.32134E+2
  -9.10399E+1   3.42023E+2
  -1.72766E+1   2.59171E+2
  -4.89592E+2   8.79545E+1
  -5.56854E+2  -4.90422E+2
  -3.18890E+1  -8.47397E+2
   5.89363E+2  -6.67452E+2
   1.01791E+3  -8.79836E+1
   5.50326E+2   5.16346E+2
   2.21566E+2   4.57764E+2
  -6.21424E+1   4.62771E+2
  -3.45825E+2   1.12703E+2
  -1.18047E+2  -1.44080E+2
  -4.75966E+1  -5.01608E+2
   2.64035E+2  -1.65430E+2
   4.63246E+2  -1.31294E+2
   1.63732E+2   2.09392E+2
   8.66115E+0   3.90232E+2
  -5.97213E+2   8.91037E+1
  -1.47222E+2  -2.62181E+2
   2.04937E+2  -4.14477E+2
   1.60468E+2  -7.69721E+1
   1.68599E+2   1.43431E+1
   4.30856E+2  -4.47845E+2
   2.30742E+2  -3.78335E+0
   1.15596E+2   4.41151E+2
  -3.13417E+2   5.30749E+2
  -4.68614E+2  -2.92398E+2
  -4.48925E+2  -3.16942E+2
   2.82119E+2  -4.13507E+2
   6.38151E+2   1.34001E+2
   2.19742E+2   3.42517E+2
  -3.53417E+2   8.57451E+1
  -4.43061E+2  -9.44947E+1
  -2.91489E+2  -3.37285E+1
  -2.20580E+2  -2.54101E+2
  -8.19871E+1  -4.09552E+2
  -1.82698E+2  -3.93144E+2
   7.21950E+1  -1.80416E+2
   3.70270E+2   1.35975E+1
   2.23635E+2   3.06444E+2
  -9.96291E+0   2.62693E+2
  -3.62846E+2   1.29469E+2
   6.52500E+1  -3.21035E+1
   2.08213E+1   2.66278E+2
  -4.25058E+2   2.39574E+2
  -3.81700E+2  -3.58538E+2
  -1.30305E+2  -1.15081E+2
  -1.76503E+2   2.58862E+2
  -2.90290E+2   9.57118E+1
  -2.17961E+2  -2.34942E+2
  -1.85436E+2  -3.39330E+2
   1.49653E+2  -1.36772E+2
   1.63765E+1   1.25884E+1
  -2.52185E+2   6.96851E+1
  -2.66179E+2   3.02518E+1
   3.60687E+1  -1.19897E+2
  -1.62511E+2  -9.09014E+1
  -1.85422E+2   8.74896E+1
  -2.55774E+2  -4.98701E+1
  -6.51951E+1   8.01794E+1
  -1.27483E+2  -1.16527E+2
  -5.58896E+1  -9.01864E+1
  -8.40654E+1  -7.53650E+1
  -4.20988E+2  -6.18663E+1
  -2.78724E+2  -1.63122E+2
   2.83070E+2  -1.89433E+2
   2.99165E+2   8.15441E+1
  -1.96077E+1   1.41563E+2
  -2.02543E+2   7.79577E+1
  -3.95567E+2  -5.86738E+1
  -2.50746E+2  -2.09973E+0
  -1.57165E+1  -4.71241E+2
  -1.21893E+2   4.55171E+1
   1.96921E+2  -7.31308E+1
   1.76676E+2  -3.10944E+2
   2.52010E+2   2.64898E+2
  -1.29526E+2   5.75407E+2
  -3.51948E+2   4.65484E+2
  -3.90032E+2  -3.02573E+2
  -1.49811E+2  -3.98651E+2
   9.19161E+1  -1.45570E+2
   1.55897E+2  -2.85270E+0
   1.28768E+2   1.04656E+2
  -2.14603E+2   6.08042E+0
  -1.33141E+1   2.23918E+2
  -1.39619E+2   1.28613E+2
  -2.39412E+2  -5.37458E+1
  -1.23570E+2  -3.25188E+2
  -9.39999E+1  -3.69901E+2
   3.67010E+2   1.10021E+2
   3.68761E+2  -3.78540E+1
   3.97938E+1   6.71763E+1
  -5.64984E+1   4.81590E+1
  -1.08426E+2  -2.59725E+2
  -1.39029E+2   4.87208E+1
  -7.66072E+1  -1.42451E+2
   4.29078E+1  -1.09730E+2
  -3.95885E+1  -1.67031E+2
   9.95297E+1   1.80749E+2
   5.12538E+1   4.28352E+2
  -2.89566E+2   1.22561E+2
  -3.66696E+2  -3.10107E+2
  -9.78596E+1  -5.75578E+2
  -7.13400E+1  -3.37421E+2
   6.29339E+1  -1.79859E+2
   6.67399E+1   8.73601E+1
  -1.07823E+2  -8.70858E+1
   1.58226E+2   8.64040E+1
  -6.16503E+1   2.77703E+2
  -1.66210E+2   1.39889E+2
  -2.17856E+2  -6.26626E+1
  -1.90500E+2  -2.25330E+2
   9.33654E+1  -1.97076E+2
  -3.25293E+1  -9.62530E+1
  -1.77734E+2   3.10092E+2
  -3.79140E+2   8.96516E+1
  -4.92540E+1  -4.42548E+1
  -4.58797E+1  -1.36263E+2
   2.43670E+2  -3.64866E+1
  -5.16301E+1   3.83438E+1
  -2.02204E+2  -6.16615E+1
  -5.65351E+1  -1.29606E+2
  -1.63370E+2   9.86051E+1
   4.28117E+1   1.65714E+1
  -1.00031E+2  -4.40469E+0
   2.91611E+1   2.15417E+2
  -3.47656E+0  -2.51595E+2
   1.22961E+2   1.69983E+1
  -6.89496E+1  -2.21889E+1
  -2.11184E+2   1.08496E+2
  -1.07968E+2  -3.59146E+2
  -3.08040E+1  -1.94612E+2
  -9.96658E+0   1.65243E+2
  -2.22668E+2   3.29808E+1
  -8.17321E+1  -3.07120E+0
  -1.13452E+2   1.51886E+2
   7.74848E+1   1.13181E+2
  -1.66434E+2   2.30157E+2
  -4.80368E+2  -8.08105E+1
  -1.61166E+1  -2.62111E+2
   1.44082E+2  -2.07010E+2
   4.07019E+2   6.85439E+0
   1.66180E+2   2.57052E+1
  -7.96954E+1   1.54715E+2
   2.53012E+1  -1.05158E+2
  -1.29660E+2   8.05798E+1
  -1.22930E+2  -6.55670E+1
  -1.82254E+2   8.88667E+1
  -3.30670E+2  -1.08812E+2
   8.88944E+1  -2.19659E+2
   1.89491E+2  -8.66679E+1
   2.12201E+2   4.95725E+2
  -6.34960E+1   2.38648E+2
  -2.75386E+2   1.26032E+2
  -1.21745E+2  -3.20944E+2
   1.99301E+2   2.43410E+1
  -1.75316E+2  -1.78573E+2
   2.51331E+2   4.07469E+1
   4.52058E+1   9.48094E+1
   2.88252E+1   2.69310E+2
   4.21480E+0   2.88929E+2
  -1.91299E+2   1.03614E+2
  -2.03018E+1  -2.05170E+2
   9.02367E+1  -1.70488E+1
   1.54596E+2   2.03821E+1
   9.15967E+1   2.68340E+2
   8.48056E+1   8.64004E+1
   1.66612E+2  -1.08582E+2
  -9.77405E+1   1.44189E+2
  -4.92031E+1   1.27678E+2
   2.97756E+1   1.86735E+2
  -1.30097E+2   8.49287E+1
  -6.92962E+1  -2.73812E+2
   8.95205E+1  -1.03320E+2
   2.54330E+2   1.64167E+2
  -1.20292E+2   2.43194E+2
  -1.65486E+2   2.87252E+2
   3.78221E+1   5.05118E+1
  -6.45073E+1  -5.95074E+1
  -5.94622E+1   6.53062E+1
   2.63659E+2  -6.33345E+1
   2.98868E+2  -2.13207E+2
  -1.12017E+2   1.22383E+2
   1.10265E+2  -7.28972E+1
  -3.39778E+2   2.11378E+2
  -8.68852E+1  -6.73164E+1
   2.80423E+1  -2.41187E+1
   2.25749E+2  -9.75484E+1
   2.41192E+2  -4.38223E+1
   4.45403E+1   7.00132E+1
  -1.15343E+2  -3.58514E+1
   3.00064E+2   6.14433E+1
   1.34763E+2  -3.12565E+1
   1.99528E+2   9.83710E+1
   2.46412E+2   1.50296E+1
   9.49080E+1   1.54781E+2
  -8.33779E+1   1.42534E+2
  -2.36422E+1   6.79629E+1
  -7.45736E+1   7.01850E+1
   1.27894E+1   4.98525E+1
  -9.88014E+1  -1.41803E+2
  -2.29417E+1  -1.50890E+2
   2.33312E+2  -2.94640E+0
  -1.04758E+2   9.81761E+1
   2.51030E+2   5.42776E+1
   5.95371E+1  -4.03114E+2
   2.41063E+2  -1.37679E+2
  -2.51527E+2   1.74979E+1
  -9.34058E+1  -1.19572E+2
  -2.02397E+2  -1.17278E+2
   5.13507E+1  -1.79180E+1
   2.09618E+2   8.80960E+1
  -1.33196E+2   1.35738E+2
  -6.85480E+1   6.22240E+1
  -1.42714E+2  -3.34061E+1
   2.30032E+2  -2.45674E+2
   2.19918E+2  -7.96165E+1
   1.96196E+2   7.59937E+1
  -3.68249E+0  -8.84304E+1
  -3.24621E+1  -1.14662E+2
   2.42671E+2  -1.93580E+1
  -2.06986E+2   1.66133E+2
  -1.98761E+2  -1.20468E+1
  -1.48794E+2  -1.30076E+2
   2.33312E+1  -1.79127E+2
   4.81044E+1  -2.64321E+2
   1.10304E+1   1.15990E+2
  -3.06028E+1   1.79389E+1
  -2.11638E+2   1.20913E+2
  -1.37656E+2   1.54015E+2
   2.29304E+2  -1.07455E+2
  -1.11245E+2   7.31230E+1
   1.65433E+2   2.96426E+1
   1.51214E+2  -8.95228E+0
   2.74557E+2   1.24551E+2
   1.34324E+2   6.55293E+1
  -1.17035E+2  -1.16000E-1
  -1.30377E+2  -2.23734E+2
   9.83015E+1  -1.26455E+2
  -1.19517E+2  -7.08511E+1
   1.10484E+2   1.83841E+1
  -3.60082E+1   1.09484E+2
  -5.20472E+1  -1.29748E+2
   4.31488E+1   4.19490E+1
  -1.10856E+2  -5.80307E+1
  -1.73883E+2   1.46400E+2
  -8.62309E+1   3.38017E+2
  -7.21929E+1  -7.14379E+1
   1.17895E+2  -1.21007E+2
   2.64706E+2   3.75428E+1
   7.40723E+1   1.72413E+2
  -8.36796E+1   2.00038E+2
  -5.60949E+1   1.80636E+1
  -1.55437E+1  -5.68157E+1
