 LCModel (Version 6.3-1N) Copyright: S.W. Provencher.          Ref.: Magn. Reson. Med. 30:672-679 (1993).                
 Slice_N1@21_13  28-Feb-2025 11:41:36
 27 lines in following concentration table = NCONC+1
    Conc.  %SD /Cr+PCr  Metabolite                                         
 2.92E-04   5% 3.0E-04 Mac                                                 
    0.000 999%   0.000 Cr                                                  
    7.750  12%   8.000 PCr                                                 
    5.857  20%   6.046 Ins                                                 
    0.000 999%   0.000 NAA                                                 
    9.031  15%   9.322 Tau                                                 
    0.000 999%   0.000 PCho                                                
    1.128  27%   1.164 GPC                                                 
    8.820  15%   9.104 Glu                                                 
    4.481  24%   4.625 Gln                                                 
   12.635   9%  13.043 Ala                                                 
    0.000 999%   0.000 Asc                                                 
    1.830  48%   1.889 Asp                                                 
 8.49E-02 602% 8.8E-02 GABA                                                
    0.220 260%   0.227 Glc                                                 
    0.000 999%   0.000 GSH                                                 
    9.207  12%   9.504 Lac                                                 
    7.412  11%   7.651 NAAG                                                
    0.000 999%   0.000 PE                                                  
    1.128  27%   1.164 GPC+PCho                                            
    7.412  11%   7.651 NAA+NAAG                                            
   13.301  12%  13.729 Glu+Gln                                             
    7.750  12%   8.000 Cr+PCr                                              
    7.412  11%   7.651 NAA+NAAG                                            
    7.750  12%   8.000 Cr+PCr                                              
   13.301  12%  13.729 Glu+Gln                                             
   6 lines in following misc. output table
  FWHM = 0.073 ppm    S/N =   3                                            
  Data shift = 0.016 ppm                                                   
  Ph:-147 deg       0.0 deg/ppm                                            
  alphaB,S = 3.2E-01,   4.1E+01                                            
   19 spline knots.   Ns = 9(1)                                            
  ( 8) 2 infls.   ( 5) 1 extrs.                                            
  480 points on ppm-axis = NY
      4.100000     4.091866     4.083733     4.075600     4.067466     4.059333     4.051199     4.043066     4.034933     4.026799
      4.018666     4.010532     4.002399     3.994265     3.986132     3.977998     3.969864     3.961731     3.953597     3.945463
      3.937330     3.929196     3.921062     3.912929     3.904795     3.896662     3.888528     3.880394     3.872261     3.864127
      3.855993     3.847860     3.839726     3.831592     3.823459     3.815325     3.807191     3.799058     3.790924     3.782790
      3.774657     3.766523     3.758389     3.750256     3.742122     3.733989     3.725855     3.717721     3.709588     3.701454
      3.693320     3.685187     3.677053     3.668919     3.660786     3.652652     3.644518     3.636385     3.628251     3.620117
      3.611984     3.603850     3.595716     3.587583     3.579449     3.571316     3.563182     3.555048     3.546915     3.538781
      3.530647     3.522514     3.514380     3.506246     3.498113     3.489979     3.481845     3.473712     3.465578     3.457444
      3.449311     3.441177     3.433043     3.424910     3.416776     3.408643     3.400509     3.392375     3.384242     3.376108
      3.367974     3.359841     3.351707     3.343573     3.335440     3.327306     3.319172     3.311039     3.302905     3.294771
      3.286638     3.278504     3.270370     3.262237     3.254103     3.245970     3.237836     3.229702     3.221569     3.213435
      3.205301     3.197168     3.189034     3.180900     3.172767     3.164633     3.156499     3.148366     3.140232     3.132098
      3.123965     3.115831     3.107697     3.099564     3.091430     3.083297     3.075163     3.067029     3.058896     3.050762
      3.042628     3.034495     3.026361     3.018227     3.010094     3.001960     2.993826     2.985693     2.977559     2.969425
      2.961292     2.953158     2.945024     2.936891     2.928757     2.920624     2.912490     2.904356     2.896223     2.888089
      2.879955     2.871822     2.863688     2.855554     2.847421     2.839287     2.831153     2.823020     2.814886     2.806752
      2.798619     2.790485     2.782351     2.774218     2.766084     2.757951     2.749817     2.741683     2.733550     2.725416
      2.717282     2.709149     2.701015     2.692881     2.684748     2.676614     2.668480     2.660347     2.652213     2.644079
      2.635946     2.627812     2.619678     2.611545     2.603411     2.595278     2.587144     2.579010     2.570877     2.562743
      2.554609     2.546476     2.538342     2.530208     2.522075     2.513941     2.505807     2.497674     2.489540     2.481406
      2.473273     2.465139     2.457006     2.448872     2.440738     2.432605     2.424471     2.416337     2.408204     2.400070
      2.391936     2.383803     2.375669     2.367535     2.359402     2.351268     2.343134     2.335001     2.326867     2.318733
      2.310600     2.302466     2.294333     2.286199     2.278065     2.269932     2.261798     2.253664     2.245531     2.237397
      2.229263     2.221130     2.212996     2.204862     2.196729     2.188595     2.180461     2.172328     2.164194     2.156060
      2.147927     2.139793     2.131660     2.123526     2.115392     2.107259     2.099125     2.090991     2.082858     2.074724
      2.066590     2.058457     2.050323     2.042189     2.034056     2.025922     2.017788     2.009655     2.001521     1.993387
      1.985254     1.977120     1.968987     1.960853     1.952719     1.944586     1.936452     1.928318     1.920185     1.912051
      1.903917     1.895784     1.887650     1.879516     1.871383     1.863249     1.855115     1.846982     1.838848     1.830714
      1.822581     1.814447     1.806314     1.798180     1.790046     1.781913     1.773779     1.765645     1.757512     1.749378
      1.741244     1.733111     1.724977     1.716843     1.708710     1.700576     1.692442     1.684309     1.676175     1.668041
      1.659908     1.651774     1.643641     1.635507     1.627373     1.619240     1.611106     1.602972     1.594839     1.586705
      1.578571     1.570438     1.562304     1.554170     1.546037     1.537903     1.529769     1.521636     1.513502     1.505368
      1.497235     1.489101     1.480968     1.472834     1.464700     1.456567     1.448433     1.440299     1.432166     1.424032
      1.415898     1.407765     1.399631     1.391497     1.383364     1.375230     1.367096     1.358963     1.350829     1.342695
      1.334562     1.326428     1.318295     1.310161     1.302027     1.293894     1.285760     1.277626     1.269493     1.261359
      1.253225     1.245092     1.236958     1.228824     1.220691     1.212557     1.204423     1.196290     1.188156     1.180022
      1.171889     1.163755     1.155622     1.147488     1.139354     1.131221     1.123087     1.114953     1.106820     1.098686
      1.090552     1.082419     1.074285     1.066151     1.058018     1.049884     1.041750     1.033617     1.025483     1.017349
      1.009216     1.001082     0.992949     0.984815     0.976681     0.968548     0.960414     0.952280     0.944147     0.936013
      0.927879     0.919746     0.911612     0.903478     0.895345     0.887211     0.879077     0.870944     0.862810     0.854676
      0.846543     0.838409     0.830276     0.822142     0.814008     0.805875     0.797741     0.789607     0.781474     0.773340
      0.765206     0.757073     0.748939     0.740805     0.732672     0.724538     0.716404     0.708271     0.700137     0.692003
      0.683870     0.675736     0.667603     0.659469     0.651335     0.643202     0.635068     0.626934     0.618801     0.610667
      0.602533     0.594400     0.586266     0.578132     0.569999     0.561865     0.553731     0.545598     0.537464     0.529330
      0.521197     0.513063     0.504930     0.496796     0.488662     0.480529     0.472395     0.464261     0.456128     0.447994
      0.439861     0.431727     0.423593     0.415460     0.407326     0.399192     0.391059     0.382925     0.374792     0.366658
      0.358524     0.350391     0.342257     0.334124     0.325990     0.317856     0.309723     0.301589     0.293455     0.285322
      0.277188     0.269055     0.260921     0.252787     0.244654     0.236520     0.228386     0.220253     0.212119     0.203986
 NY phased data points follow
  -4.44265E+01 -4.28159E+01 -5.10017E+01 -4.95571E+01 -4.42211E+01 -4.92543E+01 -6.57662E+01 -6.42219E+01 -5.70877E+01 -5.60862E+01
  -7.75375E+01 -7.69420E+01 -6.74349E+01 -8.71234E+01 -8.85022E+01 -9.21813E+01 -1.01450E+02 -9.93582E+01 -1.01484E+02 -9.62876E+01
  -9.05344E+01 -8.85237E+01 -6.86055E+01 -6.85930E+01 -6.65999E+01 -4.78439E+01 -5.15557E+01 -3.74598E+01 -4.74631E+01 -6.21098E+01
  -5.39728E+01 -6.26507E+01 -5.22637E+01 -6.44846E+01 -6.21344E+01 -4.51028E+01 -6.65508E+01 -6.79372E+01 -7.54602E+01 -8.25204E+01
  -7.19029E+01 -6.10639E+01 -4.87670E+01 -5.17672E+01 -5.29790E+01 -3.70880E+01 -1.76513E+01 -1.18521E+01 -5.42438E+00 -8.36590E+00
  -8.26701E+00  1.65545E+00 -1.33242E+01 -1.84720E+01 -2.52414E+01 -3.73931E+01 -3.70513E+01 -3.13538E+01 -1.92589E+01 -4.04921E+01
  -3.44422E+01 -1.83654E+01 -3.58914E+01 -1.59191E+01 -8.42566E+00 -1.57792E+01 -2.65183E+01 -2.66821E+01 -1.55146E+01 -3.25072E+01
  -2.95542E+01 -2.97588E+01 -2.19247E+01 -5.50644E+00 -6.39945E+00 -1.57418E+00  1.09142E+01  1.07924E+01  4.58446E+00  1.34617E+01
   5.76438E+00  7.38071E+00 -1.09619E+01 -2.22317E+01 -8.74312E+00 -1.79124E+01 -1.27628E+01 -3.11407E+00  3.27971E+00  6.47250E+00
   2.18221E+01  1.89928E+01  3.30006E+01  3.68214E+01  1.99694E+01  3.32804E+01  1.55881E+01  1.85628E+01  9.94085E+00  1.38177E+00
   1.29037E+00 -1.08369E+01 -3.12194E+01 -6.05637E+01 -5.12727E+01 -6.62459E+01 -7.62040E+01 -9.79688E+01 -1.10940E+02 -1.14620E+02
  -1.23387E+02 -1.05722E+02 -1.13015E+02 -8.90624E+01 -7.15418E+01 -6.28077E+01 -5.03134E+01 -4.01480E+01 -1.14633E+01 -1.49786E+01
  -3.29820E+01 -1.89988E+01 -1.07717E+00 -5.98847E+00  7.79183E+00  5.32756E+00  7.76583E+00  2.41758E+01  2.85829E+01  1.96327E+01
  -1.32166E+01 -2.64003E+01 -4.82922E+01 -8.63672E+01 -1.14567E+02 -1.11631E+02 -1.05458E+02 -1.19282E+02 -1.17885E+02 -1.02964E+02
  -9.90876E+01 -9.64104E+01 -8.85145E+01 -9.06253E+01 -8.91922E+01 -9.43650E+01 -8.45123E+01 -8.76128E+01 -7.90239E+01 -6.48094E+01
  -7.82155E+01 -5.24458E+01 -4.26618E+01 -3.45173E+01 -4.33185E+01 -5.68624E+01 -3.89105E+01 -4.86264E+01 -4.56238E+01 -4.21851E+01
  -3.47498E+01 -2.97265E+01 -5.27706E+01 -4.48942E+01 -3.59216E+01 -4.76527E+01 -3.61517E+01 -2.94937E+01 -1.96860E+01 -1.50751E+01
  -2.16203E+01 -1.29348E+01 -1.66957E+01 -8.32802E+00 -6.74867E+00 -1.85936E+01 -2.50931E+01 -3.15438E+01 -3.24963E+01 -4.31012E+01
  -5.79184E+01 -5.99323E+01 -5.11237E+01 -6.45859E+01 -6.38138E+01 -5.46405E+01 -6.57070E+01 -5.42925E+01 -4.29610E+01 -4.52641E+01
  -4.85864E+01 -4.88422E+01 -3.24221E+01 -3.59184E+01 -4.52229E+01 -2.73479E+01 -2.58023E+01 -2.88201E+01 -3.61627E+01 -2.63468E+01
  -2.39640E+01 -4.15508E+01 -2.37889E+01 -3.03214E+01 -3.75684E+01 -2.74952E+01 -2.89092E+01 -4.22766E+01 -3.83789E+01 -2.24751E+01
  -3.15035E+01 -2.63174E+01 -1.49983E+01  5.39495E-01  9.66104E+00  1.21063E+01  1.76215E+01  2.34069E+01  1.38065E+01  5.08439E+00
   3.43257E+00 -1.05950E+01 -5.68472E+00 -9.16849E+00 -1.87184E+00 -6.96659E+00 -1.20430E+01 -1.18525E+01 -2.39610E+01 -1.91417E+01
  -2.18102E+01 -1.47833E+01 -4.64929E+01 -5.89768E+01 -5.39353E+01 -6.59023E+01 -7.11842E+01 -8.00641E+01 -6.73384E+01 -7.55351E+01
  -5.93950E+01 -5.07126E+01 -4.12150E+01 -2.99250E+01 -4.33500E+01 -2.15437E+01 -2.52097E+01 -3.76530E+01 -3.80051E+01 -3.40679E+01
  -2.47303E+01 -1.51632E+01 -2.03884E+01 -1.76291E+01  5.75200E+00  1.57525E+01  5.29245E+01  7.59879E+01  9.93204E+01  1.44018E+02
   1.41818E+02  1.20345E+02  1.04873E+02  8.49186E+01  8.28190E+01  8.03507E+01  6.95255E+01  8.05742E+01  6.83611E+01  5.52656E+01
   6.26946E+01  6.33250E+01  6.46385E+01  5.68502E+01  5.83704E+01  6.18014E+01  7.01369E+01  7.00650E+01  5.27263E+01  4.49990E+01
   3.62647E+01  4.30462E+01  3.69277E+01  2.81492E+01  3.42754E+01  2.97259E+01  3.23234E+01  1.79967E+01  2.17489E+01  2.64799E+01
   1.91411E+01  2.31104E+01  1.47286E+01  3.09448E+01  2.69934E+01  2.08550E+01  2.43257E+01  2.94644E+01  4.72046E+01  3.40638E+01
   3.35900E+01  3.71671E+01  5.80647E+01  7.09123E+01  5.66559E+01  6.23273E+01  6.32039E+01  6.83445E+01  7.19181E+01  7.97002E+01
   9.04653E+01  9.16572E+01  9.79562E+01  1.07119E+02  1.02758E+02  1.04449E+02  1.22547E+02  1.12239E+02  1.17178E+02  1.37226E+02
   1.18661E+02  1.21312E+02  1.18891E+02  8.71526E+01  8.35281E+01  6.62421E+01  4.12165E+01  1.07438E+01 -2.14408E+01 -3.63743E+01
  -4.97244E+01 -4.85745E+01 -6.28974E+01 -6.47575E+01 -6.40340E+01 -6.11452E+01 -5.01757E+01 -4.61739E+01 -4.40687E+01 -5.63596E+01
  -3.65659E+01 -3.44475E+01 -4.41957E+01 -4.57435E+01 -4.29943E+01 -4.54270E+01 -5.87577E+01 -3.81702E+01 -3.29993E+01 -2.52612E+01
  -3.09574E+01 -3.75321E+01 -3.54334E+01 -2.96626E+01 -1.52723E+01 -3.43121E+01 -2.27008E+01 -2.72469E+01 -4.31643E+01 -3.38187E+01
  -2.90827E+01 -1.58866E+01 -1.08136E+01 -7.83160E+00 -4.86645E+00 -8.00513E+00 -1.80779E+01 -1.36001E+00  8.40563E+00 -9.32677E-01
   2.61076E+00 -4.83413E+00  8.18570E+00  1.71564E+01  2.27783E+00  2.45078E+01  4.48637E+01  3.20611E+01  3.20711E+01  4.68145E+01
   6.78551E+01  5.74647E+01  5.12870E+01  6.87047E+01  6.59686E+01  7.35698E+01  7.04393E+01  7.40535E+01  7.69744E+01  6.14778E+01
   4.45698E+01  2.81215E+01  2.84548E+01  4.98168E+00 -5.11609E-01 -4.52739E+00 -2.01977E+01 -8.41074E+00 -2.42121E+01 -2.44923E+01
  -2.43812E+01 -4.91606E+01 -5.17968E+01 -5.98407E+01 -6.25027E+01 -4.75677E+01 -4.82048E+01 -5.52136E+01 -4.81732E+01 -5.86934E+01
  -5.14929E+01 -4.23496E+01 -5.46357E+01 -2.82585E+01 -4.04971E+01 -4.96408E+01 -2.86073E+01 -4.11526E+01 -4.26780E+01 -4.23251E+01
  -3.79205E+01 -3.57145E+01 -2.65191E+01 -2.25125E+01 -3.18186E+01 -3.92318E+01 -4.24646E+01 -3.27468E+01 -3.68924E+01 -2.88359E+01
  -3.24186E+01 -3.98935E+01 -4.12523E+01 -4.89356E+01 -3.93797E+01 -4.04486E+01 -3.54201E+01 -2.09191E+01 -2.41907E+01 -3.82782E+01
  -3.53025E+01 -3.76471E+01 -3.84586E+01 -3.55143E+01 -3.36119E+01 -2.53706E+01 -3.12369E+01 -1.90416E+01 -3.24391E+01 -4.10049E+01
  -2.95477E+01 -3.73510E+01 -2.77791E+01 -3.14518E+01 -3.11890E+01 -1.73537E+01 -2.90932E+01 -4.18202E+01 -2.99507E+01 -2.41059E+01
  -2.49804E+01 -2.71193E+01 -2.52880E+01 -2.85695E+01 -3.29187E+01 -2.44100E+01 -1.95982E+01 -1.42662E+01 -4.17812E+01 -2.32788E+01
  -6.85898E+00 -3.07989E+01 -1.00098E+01 -2.24429E+01 -2.14034E+01 -1.22372E+01 -2.63171E+01 -2.56823E+01 -2.06398E+01 -2.09333E+01
 NY points of the fit to the data follow
  -7.46490E+01 -6.96086E+01 -6.57781E+01 -6.33108E+01 -6.20957E+01 -6.18713E+01 -6.22707E+01 -6.29970E+01 -6.40546E+01 -6.56973E+01
  -6.82918E+01 -7.20615E+01 -7.66610E+01 -8.16088E+01 -8.63176E+01 -9.03879E+01 -9.36313E+01 -9.53846E+01 -9.49885E+01 -9.21404E+01
  -8.66556E+01 -7.85010E+01 -6.82209E+01 -5.71911E+01 -4.68148E+01 -3.78585E+01 -3.09331E+01 -2.67091E+01 -2.49970E+01 -2.45952E+01
  -2.46496E+01 -2.52670E+01 -2.68106E+01 -2.94534E+01 -3.31870E+01 -3.78985E+01 -4.34589E+01 -4.95493E+01 -5.59574E+01 -6.21065E+01
  -6.73031E+01 -7.07201E+01 -7.14736E+01 -6.90515E+01 -6.33894E+01 -5.50339E+01 -4.50787E+01 -3.49159E+01 -2.59608E+01 -1.93049E+01
  -1.55122E+01 -1.44136E+01 -1.54369E+01 -1.78810E+01 -2.09321E+01 -2.40672E+01 -2.69002E+01 -2.90137E+01 -3.03072E+01 -3.07761E+01
  -3.04139E+01 -2.92097E+01 -2.72486E+01 -2.48976E+01 -2.24210E+01 -2.00719E+01 -1.84035E+01 -1.77926E+01 -1.80981E+01 -1.89353E+01
  -1.98334E+01 -2.01253E+01 -1.92226E+01 -1.70542E+01 -1.39844E+01 -1.04046E+01 -7.08503E+00 -5.08994E+00 -4.94090E+00 -6.79863E+00
  -1.05918E+01 -1.60506E+01 -2.24275E+01 -2.85453E+01 -3.32900E+01 -3.57149E+01 -3.52125E+01 -3.17306E+01 -2.57540E+01 -1.81932E+01
  -1.01718E+01 -2.69402E+00  3.71077E+00  8.78541E+00  1.25202E+01  1.51200E+01  1.64423E+01  1.64853E+01  1.50592E+01  1.18879E+01
   6.68669E+00 -1.10349E+00 -1.14207E+01 -2.39761E+01 -3.78638E+01 -5.19145E+01 -6.52493E+01 -7.67933E+01 -8.55434E+01 -9.10350E+01
  -9.34567E+01 -9.30616E+01 -8.99407E+01 -8.46602E+01 -7.79358E+01 -6.99613E+01 -6.08438E+01 -5.13231E+01 -4.23439E+01 -3.40704E+01
  -2.60236E+01 -1.76688E+01 -9.07476E+00 -1.13705E+00  5.84661E+00  1.13794E+01  1.53975E+01  1.74291E+01  1.61727E+01  1.09958E+01
   1.81652E+00 -1.12700E+01 -2.78292E+01 -4.62834E+01 -6.39048E+01 -7.86692E+01 -8.97388E+01 -9.62664E+01 -9.76762E+01 -9.53917E+01
  -9.20604E+01 -8.90432E+01 -8.62689E+01 -8.35327E+01 -8.07532E+01 -7.79254E+01 -7.50730E+01 -7.22190E+01 -6.93983E+01 -6.66755E+01
  -6.41131E+01 -6.17241E+01 -5.94679E+01 -5.73069E+01 -5.52447E+01 -5.32954E+01 -5.14540E+01 -4.96915E+01 -4.79773E+01 -4.63305E+01
  -4.47382E+01 -4.31774E+01 -4.15658E+01 -3.98197E+01 -3.79620E+01 -3.60774E+01 -3.42981E+01 -3.26976E+01 -3.13007E+01 -3.01256E+01
  -2.92574E+01 -2.88170E+01 -2.89341E+01 -2.97583E+01 -3.13280E+01 -3.35050E+01 -3.60704E+01 -3.88329E+01 -4.15751E+01 -4.39478E+01
  -4.56490E+01 -4.66776E+01 -4.72223E+01 -4.74357E+01 -4.74295E+01 -4.71649E+01 -4.66296E+01 -4.58034E+01 -4.46509E+01 -4.33056E+01
  -4.17908E+01 -4.01511E+01 -3.85027E+01 -3.69649E+01 -3.56661E+01 -3.45735E+01 -3.36992E+01 -3.31165E+01 -3.27654E+01 -3.24962E+01
  -3.21937E+01 -3.19093E+01 -3.16800E+01 -3.14471E+01 -3.12364E+01 -3.12141E+01 -3.14676E+01 -3.18869E+01 -3.23965E+01 -3.26383E+01
  -3.23695E+01 -3.11446E+01 -2.84263E+01 -2.40636E+01 -1.81357E+01 -1.11101E+01 -3.74840E+00  3.07309E+00  8.43843E+00  1.17170E+01
   1.26517E+01  1.12778E+01  7.87546E+00  2.93072E+00 -3.12108E+00 -1.00464E+01 -1.77354E+01 -2.60013E+01 -3.47109E+01 -4.36754E+01
  -5.22894E+01 -6.01097E+01 -6.66053E+01 -7.11597E+01 -7.34857E+01 -7.33551E+01 -7.08735E+01 -6.65020E+01 -6.08424E+01 -5.47784E+01
  -4.90291E+01 -4.40280E+01 -4.01855E+01 -3.76438E+01 -3.63747E+01 -3.57750E+01 -3.50308E+01 -3.40567E+01 -3.24781E+01 -3.03916E+01
  -2.70397E+01 -2.10406E+01 -1.17396E+01  1.21471E+00  1.77245E+01  3.69667E+01  5.68665E+01  7.46617E+01  8.85834E+01  9.77671E+01
   1.01502E+02  1.00019E+02  9.54761E+01  9.03684E+01  8.56325E+01  8.12417E+01  7.71813E+01  7.34468E+01  7.00624E+01  6.70967E+01
   6.46373E+01  6.27596E+01  6.15088E+01  6.08737E+01  6.07928E+01  6.11298E+01  6.17058E+01  6.23454E+01  6.28798E+01  6.31498E+01
   6.30432E+01  6.25007E+01  6.14914E+01  6.00238E+01  5.81410E+01  5.59230E+01  5.34580E+01  5.08291E+01  4.81306E+01  4.54829E+01
   4.30189E+01  4.08786E+01  3.92071E+01  3.81402E+01  3.77779E+01  3.81632E+01  3.92685E+01  4.10107E+01  4.32685E+01  4.58964E+01
   4.87540E+01  5.17205E+01  5.47202E+01  5.77243E+01  6.07230E+01  6.37065E+01  6.66635E+01  6.95843E+01  7.24490E+01  7.52227E+01
   7.78684E+01  8.03561E+01  8.26614E+01  8.47671E+01  8.66895E+01  8.84773E+01  9.00215E+01  9.07971E+01  9.03094E+01  8.81922E+01
   8.36872E+01  7.68239E+01  6.67948E+01  5.31478E+01  3.58135E+01  1.48032E+01 -8.68966E+00 -3.26230E+01 -5.41945E+01 -7.05758E+01
  -7.96877E+01 -8.04518E+01 -7.34379E+01 -6.07364E+01 -4.57530E+01 -3.10553E+01 -1.89989E+01 -1.13346E+01 -8.22833E+00 -9.43313E+00
  -1.46440E+01 -2.31181E+01 -3.34893E+01 -4.39026E+01 -5.26855E+01 -5.84808E+01 -6.04795E+01 -5.88642E+01 -5.48620E+01 -4.99972E+01
  -4.55521E+01 -4.24061E+01 -4.06368E+01 -3.96357E+01 -3.88291E+01 -3.78219E+01 -3.63671E+01 -3.43322E+01 -3.16833E+01 -2.84920E+01
  -2.48930E+01 -2.10366E+01 -1.70536E+01 -1.30458E+01 -9.08070E+00 -5.18379E+00 -1.35762E+00  2.43232E+00  6.23750E+00  1.01228E+01
   1.41538E+01  1.83941E+01  2.29087E+01  2.77552E+01  3.29725E+01  3.85677E+01  4.45068E+01  5.07050E+01  5.70011E+01  6.31786E+01
   6.89754E+01  7.41092E+01  7.82488E+01  8.10416E+01  8.21864E+01  8.14720E+01  7.88094E+01  7.42621E+01  6.80816E+01  6.06737E+01
   5.25100E+01  4.40237E+01  3.55516E+01  2.73021E+01  1.93459E+01  1.16481E+01  4.17811E+00 -3.02589E+00 -9.85557E+00 -1.61647E+01
  -2.17873E+01 -2.65821E+01 -3.05022E+01 -3.35938E+01 -3.59544E+01 -3.77109E+01 -3.90066E+01 -3.99631E+01 -4.06620E+01 -4.11567E+01
  -4.14870E+01 -4.16824E+01 -4.17649E+01 -4.17598E+01 -4.16810E+01 -4.15487E+01 -4.13923E+01 -4.12271E+01 -4.10432E+01 -4.08327E+01
  -4.06120E+01 -4.03944E+01 -4.01696E+01 -3.99303E+01 -3.96903E+01 -3.94522E+01 -3.92044E+01 -3.89371E+01 -3.86650E+01 -3.84031E+01
  -3.81488E+01 -3.78978E+01 -3.76478E+01 -3.73970E+01 -3.71363E+01 -3.68582E+01 -3.65595E+01 -3.62515E+01 -3.59505E+01 -3.56667E+01
  -3.54126E+01 -3.51862E+01 -3.49768E+01 -3.47769E+01 -3.45719E+01 -3.43523E+01 -3.41161E+01 -3.38651E+01 -3.35961E+01 -3.33118E+01
  -3.30168E+01 -3.27214E+01 -3.24239E+01 -3.21226E+01 -3.18205E+01 -3.15216E+01 -3.12306E+01 -3.09528E+01 -3.06927E+01 -3.04494E+01
  -3.02175E+01 -2.99934E+01 -2.97613E+01 -2.95097E+01 -2.92365E+01 -2.89442E+01 -2.86359E+01 -2.83264E+01 -2.80408E+01 -2.77936E+01
  -2.75829E+01 -2.73975E+01 -2.72133E+01 -2.70119E+01 -2.67695E+01 -2.64670E+01 -2.60969E+01 -2.56572E+01 -2.51431E+01 -2.45361E+01
 NY background values follow
    -5.356E+01   -5.330E+01   -5.304E+01   -5.278E+01   -5.252E+01   -5.226E+01   -5.200E+01   -5.174E+01   -5.148E+01   -5.122E+01
    -5.096E+01   -5.070E+01   -5.044E+01   -5.017E+01   -4.991E+01   -4.965E+01   -4.939E+01   -4.913E+01   -4.886E+01   -4.860E+01
    -4.834E+01   -4.807E+01   -4.781E+01   -4.754E+01   -4.728E+01   -4.701E+01   -4.675E+01   -4.648E+01   -4.621E+01   -4.595E+01
    -4.568E+01   -4.541E+01   -4.514E+01   -4.487E+01   -4.460E+01   -4.433E+01   -4.406E+01   -4.379E+01   -4.352E+01   -4.325E+01
    -4.297E+01   -4.270E+01   -4.243E+01   -4.216E+01   -4.189E+01   -4.162E+01   -4.134E+01   -4.107E+01   -4.080E+01   -4.053E+01
    -4.026E+01   -3.999E+01   -3.972E+01   -3.945E+01   -3.918E+01   -3.892E+01   -3.865E+01   -3.838E+01   -3.812E+01   -3.785E+01
    -3.759E+01   -3.732E+01   -3.706E+01   -3.680E+01   -3.654E+01   -3.628E+01   -3.602E+01   -3.576E+01   -3.550E+01   -3.524E+01
    -3.499E+01   -3.473E+01   -3.448E+01   -3.423E+01   -3.398E+01   -3.373E+01   -3.348E+01   -3.323E+01   -3.298E+01   -3.274E+01
    -3.249E+01   -3.225E+01   -3.201E+01   -3.177E+01   -3.153E+01   -3.129E+01   -3.105E+01   -3.081E+01   -3.058E+01   -3.034E+01
    -3.011E+01   -2.988E+01   -2.965E+01   -2.942E+01   -2.920E+01   -2.897E+01   -2.874E+01   -2.852E+01   -2.830E+01   -2.808E+01
    -2.786E+01   -2.764E+01   -2.742E+01   -2.720E+01   -2.698E+01   -2.676E+01   -2.655E+01   -2.633E+01   -2.612E+01   -2.590E+01
    -2.569E+01   -2.548E+01   -2.526E+01   -2.505E+01   -2.484E+01   -2.463E+01   -2.442E+01   -2.421E+01   -2.400E+01   -2.378E+01
    -2.357E+01   -2.336E+01   -2.315E+01   -2.294E+01   -2.274E+01   -2.253E+01   -2.232E+01   -2.211E+01   -2.190E+01   -2.169E+01
    -2.148E+01   -2.127E+01   -2.107E+01   -2.086E+01   -2.065E+01   -2.045E+01   -2.024E+01   -2.004E+01   -1.983E+01   -1.963E+01
    -1.942E+01   -1.922E+01   -1.902E+01   -1.881E+01   -1.861E+01   -1.841E+01   -1.821E+01   -1.801E+01   -1.781E+01   -1.761E+01
    -1.741E+01   -1.722E+01   -1.702E+01   -1.682E+01   -1.663E+01   -1.643E+01   -1.624E+01   -1.605E+01   -1.586E+01   -1.567E+01
    -1.548E+01   -1.529E+01   -1.510E+01   -1.492E+01   -1.473E+01   -1.455E+01   -1.436E+01   -1.418E+01   -1.400E+01   -1.382E+01
    -1.365E+01   -1.347E+01   -1.330E+01   -1.312E+01   -1.295E+01   -1.278E+01   -1.261E+01   -1.245E+01   -1.228E+01   -1.212E+01
    -1.195E+01   -1.179E+01   -1.164E+01   -1.148E+01   -1.132E+01   -1.117E+01   -1.102E+01   -1.087E+01   -1.072E+01   -1.058E+01
    -1.043E+01   -1.029E+01   -1.015E+01   -1.001E+01   -9.876E+00   -9.742E+00   -9.610E+00   -9.480E+00   -9.352E+00   -9.226E+00
    -9.103E+00   -8.981E+00   -8.862E+00   -8.745E+00   -8.630E+00   -8.517E+00   -8.406E+00   -8.298E+00   -8.192E+00   -8.088E+00
    -7.987E+00   -7.888E+00   -7.791E+00   -7.697E+00   -7.605E+00   -7.515E+00   -7.428E+00   -7.343E+00   -7.261E+00   -7.180E+00
    -7.102E+00   -7.027E+00   -6.953E+00   -6.882E+00   -6.814E+00   -6.747E+00   -6.683E+00   -6.622E+00   -6.563E+00   -6.506E+00
    -6.451E+00   -6.399E+00   -6.349E+00   -6.301E+00   -6.256E+00   -6.213E+00   -6.172E+00   -6.134E+00   -6.098E+00   -6.064E+00
    -6.033E+00   -6.004E+00   -5.977E+00   -5.952E+00   -5.930E+00   -5.910E+00   -5.891E+00   -5.875E+00   -5.861E+00   -5.849E+00
    -5.839E+00   -5.831E+00   -5.825E+00   -5.820E+00   -5.817E+00   -5.816E+00   -5.817E+00   -5.820E+00   -5.824E+00   -5.829E+00
    -5.837E+00   -5.845E+00   -5.856E+00   -5.867E+00   -5.880E+00   -5.895E+00   -5.910E+00   -5.927E+00   -5.946E+00   -5.965E+00
    -5.985E+00   -6.007E+00   -6.030E+00   -6.054E+00   -6.079E+00   -6.106E+00   -6.133E+00   -6.162E+00   -6.192E+00   -6.223E+00
    -6.255E+00   -6.289E+00   -6.323E+00   -6.359E+00   -6.397E+00   -6.435E+00   -6.475E+00   -6.516E+00   -6.558E+00   -6.601E+00
    -6.646E+00   -6.692E+00   -6.739E+00   -6.788E+00   -6.838E+00   -6.889E+00   -6.941E+00   -6.995E+00   -7.050E+00   -7.106E+00
    -7.164E+00   -7.223E+00   -7.284E+00   -7.346E+00   -7.409E+00   -7.474E+00   -7.540E+00   -7.608E+00   -7.677E+00   -7.748E+00
    -7.821E+00   -7.895E+00   -7.971E+00   -8.049E+00   -8.128E+00   -8.209E+00   -8.292E+00   -8.377E+00   -8.463E+00   -8.551E+00
    -8.642E+00   -8.734E+00   -8.828E+00   -8.924E+00   -9.022E+00   -9.122E+00   -9.224E+00   -9.328E+00   -9.435E+00   -9.543E+00
    -9.654E+00   -9.767E+00   -9.881E+00   -9.998E+00   -1.012E+01   -1.024E+01   -1.036E+01   -1.048E+01   -1.061E+01   -1.073E+01
    -1.086E+01   -1.099E+01   -1.112E+01   -1.125E+01   -1.139E+01   -1.152E+01   -1.165E+01   -1.179E+01   -1.193E+01   -1.206E+01
    -1.220E+01   -1.234E+01   -1.247E+01   -1.261E+01   -1.275E+01   -1.289E+01   -1.303E+01   -1.316E+01   -1.330E+01   -1.344E+01
    -1.358E+01   -1.371E+01   -1.385E+01   -1.398E+01   -1.412E+01   -1.425E+01   -1.439E+01   -1.452E+01   -1.465E+01   -1.478E+01
    -1.491E+01   -1.504E+01   -1.517E+01   -1.530E+01   -1.542E+01   -1.555E+01   -1.567E+01   -1.579E+01   -1.591E+01   -1.603E+01
    -1.615E+01   -1.627E+01   -1.638E+01   -1.649E+01   -1.660E+01   -1.671E+01   -1.682E+01   -1.692E+01   -1.703E+01   -1.713E+01
    -1.722E+01   -1.732E+01   -1.741E+01   -1.751E+01   -1.760E+01   -1.768E+01   -1.777E+01   -1.785E+01   -1.794E+01   -1.802E+01
    -1.809E+01   -1.817E+01   -1.824E+01   -1.832E+01   -1.839E+01   -1.846E+01   -1.852E+01   -1.859E+01   -1.865E+01   -1.871E+01
    -1.877E+01   -1.883E+01   -1.889E+01   -1.894E+01   -1.900E+01   -1.905E+01   -1.910E+01   -1.915E+01   -1.920E+01   -1.924E+01
    -1.929E+01   -1.933E+01   -1.937E+01   -1.941E+01   -1.945E+01   -1.949E+01   -1.953E+01   -1.956E+01   -1.960E+01   -1.963E+01
    -1.966E+01   -1.969E+01   -1.972E+01   -1.975E+01   -1.978E+01   -1.981E+01   -1.984E+01   -1.986E+01   -1.989E+01   -1.991E+01
    -1.993E+01   -1.996E+01   -1.998E+01   -2.000E+01   -2.002E+01   -2.004E+01   -2.006E+01   -2.008E+01   -2.010E+01   -2.012E+01
    -2.013E+01   -2.015E+01   -2.017E+01   -2.019E+01   -2.020E+01   -2.022E+01   -2.023E+01   -2.025E+01   -2.026E+01   -2.028E+01
    -2.029E+01   -2.031E+01   -2.032E+01   -2.034E+01   -2.035E+01   -2.037E+01   -2.038E+01   -2.039E+01   -2.041E+01   -2.042E+01
    -2.043E+01   -2.045E+01   -2.046E+01   -2.047E+01   -2.049E+01   -2.050E+01   -2.051E+01   -2.052E+01   -2.054E+01   -2.055E+01
 Mac      Conc. = 2.92E-04
  -7.55182E+01 -7.59779E+01 -7.65113E+01 -7.71245E+01 -7.78183E+01 -7.85950E+01 -7.94333E+01 -8.02583E+01 -8.09786E+01 -8.15328E+01
  -8.18704E+01 -8.19584E+01 -8.17553E+01 -8.12147E+01 -8.03071E+01 -7.89825E+01 -7.71858E+01 -7.49122E+01 -7.22532E+01 -6.93608E+01
  -6.63887E+01 -6.35030E+01 -6.08661E+01 -5.85470E+01 -5.64921E+01 -5.46238E+01 -5.28967E+01 -5.12693E+01 -4.97091E+01 -4.82341E+01
  -4.68867E+01 -4.56772E+01 -4.45818E+01 -4.35503E+01 -4.25196E+01 -4.14405E+01 -4.02920E+01 -3.90973E+01 -3.79030E+01 -3.67642E+01
  -3.57312E+01 -3.48428E+01 -3.41305E+01 -3.35991E+01 -3.32384E+01 -3.30444E+01 -3.30263E+01 -3.31912E+01 -3.35098E+01 -3.39086E+01
  -3.42802E+01 -3.45236E+01 -3.45692E+01 -3.43812E+01 -3.39623E+01 -3.33315E+01 -3.25289E+01 -3.16230E+01 -3.06987E+01 -2.98390E+01
  -2.90961E+01 -2.85061E+01 -2.80841E+01 -2.77924E+01 -2.75615E+01 -2.73106E+01 -2.69490E+01 -2.64092E+01 -2.56504E+01 -2.46796E+01
  -2.35569E+01 -2.23885E+01 -2.12990E+01 -2.03762E+01 -1.96786E+01 -1.92425E+01 -1.90494E+01 -1.90129E+01 -1.90150E+01 -1.89598E+01
  -1.87880E+01 -1.84666E+01 -1.79836E+01 -1.73601E+01 -1.66477E+01 -1.59075E+01 -1.51940E+01 -1.45730E+01 -1.41077E+01 -1.38451E+01
  -1.38195E+01 -1.40696E+01 -1.46298E+01 -1.55215E+01 -1.67544E+01 -1.83284E+01 -2.02366E+01 -2.24530E+01 -2.49422E+01 -2.76649E+01
  -3.05965E+01 -3.37305E+01 -3.70315E+01 -4.04173E+01 -4.37507E+01 -4.68352E+01 -4.94233E+01 -5.12615E+01 -5.21817E+01 -5.21278E+01
