 
 $NMID
 ID=''
 FMTDAT='(2E13.5)'
 TRAMP=   1.00000E+0
 VOLUME=   1.00000E+0
 $END
   3.35547E+5   6.54467E+5
   2.38859E+5   1.88895E+6
   4.11603E+5   1.77090E+6
   2.19968E+5   1.70991E+6
   1.69736E+5   1.84448E+6
   2.18671E+5   1.77849E+6
   1.15918E+5   1.69241E+6
   4.29357E+4   1.75353E+6
   5.72789E+4   1.74990E+6
   1.83994E+4   1.71340E+6
  -1.43334E+4   1.70725E+6
  -4.61393E+4   1.66661E+6
  -1.07070E+5   1.65682E+6
  -1.15473E+5   1.67173E+6
  -1.18557E+5   1.62928E+6
  -1.68460E+5   1.59663E+6
  -2.02788E+5   1.60297E+6
  -2.29330E+5   1.57721E+6
  -2.76544E+5   1.55287E+6
  -3.04114E+5   1.54116E+6
  -3.36225E+5   1.50668E+6
  -3.80512E+5   1.48474E+6
  -4.02690E+5   1.47376E+6
  -4.27281E+5   1.44357E+6
  -4.64461E+5   1.41587E+6
  -4.78274E+5   1.39926E+6
  -4.97025E+5   1.37466E+6
  -5.22964E+5   1.35576E+6
  -5.37410E+5   1.33400E+6
  -5.53659E+5   1.30545E+6
  -5.83547E+5   1.28464E+6
  -6.03015E+5   1.26148E+6
  -6.24336E+5   1.23023E+6
  -6.48101E+5   1.20580E+6
  -6.67016E+5   1.17968E+6
  -6.89042E+5   1.15002E+6
  -7.13144E+5   1.12602E+6
  -7.31710E+5   1.09853E+6
  -7.48465E+5   1.06679E+6
  -7.64820E+5   1.04278E+6
  -7.76637E+5   1.01789E+6
  -7.88694E+5   9.89416E+5
  -7.98615E+5   9.64401E+5
  -8.07886E+5   9.41249E+5
  -8.18765E+5   9.15335E+5
  -8.30284E+5   8.91092E+5
  -8.40651E+5   8.64292E+5
  -8.53486E+5   8.34176E+5
  -8.64276E+5   8.04106E+5
  -8.73453E+5   7.75819E+5
  -8.83804E+5   7.47493E+5
  -8.94152E+5   7.19136E+5
  -9.02775E+5   6.90690E+5
  -9.11484E+5   6.62663E+5
  -9.18422E+5   6.34953E+5
  -9.24581E+5   6.07119E+5
  -9.29803E+5   5.79791E+5
  -9.33333E+5   5.53679E+5
  -9.35108E+5   5.28722E+5
  -9.38463E+5   5.03735E+5
  -9.41829E+5   4.77475E+5
  -9.43994E+5   4.51893E+5
  -9.46220E+5   4.26911E+5
  -9.48122E+5   4.00001E+5
  -9.48202E+5   3.71805E+5
  -9.47412E+5   3.45562E+5
  -9.46309E+5   3.20575E+5
  -9.45299E+5   2.95379E+5
  -9.43701E+5   2.70414E+5
  -9.42153E+5   2.45910E+5
  -9.39105E+5   2.21615E+5
  -9.34913E+5   1.98158E+5
  -9.31140E+5   1.76476E+5
  -9.27485E+5   1.54032E+5
  -9.22551E+5   1.31177E+5
  -9.16670E+5   1.09030E+5
  -9.11126E+5   8.75222E+4
  -9.05376E+5   6.54633E+4
  -8.98451E+5   4.35752E+4
  -8.90752E+5   2.11632E+4
  -8.83231E+5  -2.42171E+2
  -8.75012E+5  -2.08049E+4
  -8.66255E+5  -4.04352E+4
  -8.56850E+5  -6.03829E+4
  -8.47155E+5  -8.02479E+4
  -8.36982E+5  -9.81060E+4
  -8.27064E+5  -1.15037E+5
  -8.16615E+5  -1.32206E+5
  -8.05634E+5  -1.48670E+5
  -7.94879E+5  -1.63629E+5
  -7.83650E+5  -1.78345E+5
  -7.72191E+5  -1.93408E+5
  -7.61050E+5  -2.08835E+5
  -7.48425E+5  -2.23184E+5
  -7.35463E+5  -2.36744E+5
  -7.22273E+5  -2.50463E+5
  -7.10044E+5  -2.63365E+5
  -6.97367E+5  -2.76255E+5
  -6.83752E+5  -2.88585E+5
  -6.70282E+5  -2.99751E+5
  -6.57176E+5  -3.10621E+5
  -6.44269E+5  -3.21366E+5
  -6.30160E+5  -3.32265E+5
  -6.15803E+5  -3.40880E+5
  -6.02540E+5  -3.49167E+5
  -5.89587E+5  -3.57111E+5
  -5.76193E+5  -3.65201E+5
  -5.61863E+5  -3.73032E+5
  -5.47590E+5  -3.80397E+5
  -5.33835E+5  -3.86132E+5
  -5.20405E+5  -3.92101E+5
  -5.06770E+5  -3.98629E+5
  -4.93072E+5  -4.05525E+5
  -4.78547E+5  -4.11196E+5
  -4.64405E+5  -4.16386E+5
  -4.50559E+5  -4.21375E+5
  -4.36504E+5  -4.26409E+5
  -4.22199E+5  -4.30446E+5
  -4.07998E+5  -4.33393E+5
  -3.94805E+5  -4.35623E+5
  -3.82154E+5  -4.38482E+5
  -3.68905E+5  -4.41284E+5
  -3.55756E+5  -4.43563E+5
  -3.42648E+5  -4.45815E+5
  -3.29520E+5  -4.47415E+5
  -3.15904E+5  -4.48654E+5
  -3.02934E+5  -4.49019E+5
  -2.90322E+5  -4.49804E+5
  -2.77420E+5  -4.50233E+5
  -2.64857E+5  -4.50502E+5
  -2.51666E+5  -4.50610E+5
  -2.38562E+5  -4.50226E+5
  -2.25830E+5  -4.49408E+5
  -2.13606E+5  -4.48249E+5
  -2.01624E+5  -4.46953E+5
  -1.89380E+5  -4.45594E+5
  -1.77622E+5  -4.43448E+5
  -1.66393E+5  -4.40981E+5
  -1.54811E+5  -4.38744E+5
  -1.43223E+5  -4.36327E+5
  -1.31807E+5  -4.33374E+5
  -1.21293E+5  -4.29687E+5
  -1.10931E+5  -4.26117E+5
  -1.00641E+5  -4.22491E+5
  -9.06203E+4  -4.19111E+5
  -8.06161E+4  -4.15096E+5
  -7.08929E+4  -4.10542E+5
  -6.12213E+4  -4.05893E+5
  -5.18714E+4  -4.01201E+5
  -4.33813E+4  -3.96005E+5
  -3.47297E+4  -3.91151E+5
  -2.65266E+4  -3.85902E+5
  -1.88155E+4  -3.80437E+5
  -1.11042E+4  -3.75379E+5
  -3.43763E+3  -3.70058E+5
   3.97070E+3  -3.64343E+5
   1.08672E+4  -3.58488E+5
   1.73512E+4  -3.53047E+5
   2.42599E+4  -3.47056E+5
   3.05304E+4  -3.41002E+5
   3.63818E+4  -3.35283E+5
   4.23516E+4  -3.29325E+5
   4.82888E+4  -3.22874E+5
   5.37820E+4  -3.16744E+5
   5.90207E+4  -3.10360E+5
   6.37557E+4  -3.04291E+5
   6.87378E+4  -2.97998E+5
   7.32739E+4  -2.92459E+5
   7.75672E+4  -2.86204E+5
   8.14417E+4  -2.80228E+5
   8.53733E+4  -2.73953E+5
   8.87585E+4  -2.67772E+5
   9.26458E+4  -2.61699E+5
   9.56118E+4  -2.55700E+5
   9.89621E+4  -2.49639E+5
   1.02118E+5  -2.43580E+5
   1.04927E+5  -2.37873E+5
   1.07915E+5  -2.31399E+5
   1.10880E+5  -2.25244E+5
   1.12741E+5  -2.19445E+5
   1.14887E+5  -2.13757E+5
   1.17129E+5  -2.07964E+5
   1.19303E+5  -2.02148E+5
   1.21294E+5  -1.96310E+5
   1.22944E+5  -1.90457E+5
   1.24303E+5  -1.84641E+5
   1.25467E+5  -1.79058E+5
   1.26868E+5  -1.73545E+5
   1.27679E+5  -1.68033E+5
   1.28016E+5  -1.63044E+5
   1.29233E+5  -1.57657E+5
   1.30201E+5  -1.52352E+5
   1.31054E+5  -1.46984E+5
   1.31415E+5  -1.41615E+5
   1.31839E+5  -1.36433E+5
   1.32001E+5  -1.31095E+5
   1.31940E+5  -1.26097E+5
   1.32073E+5  -1.21079E+5
   1.32074E+5  -1.15931E+5
   1.32025E+5  -1.11006E+5
   1.31814E+5  -1.06203E+5
   1.31327E+5  -1.00997E+5
   1.30747E+5  -9.62188E+4
   1.29865E+5  -9.15227E+4
   1.29242E+5  -8.72076E+4
   1.28092E+5  -8.27422E+4
   1.27203E+5  -7.82931E+4
   1.26331E+5  -7.37805E+4
   1.25016E+5  -6.93904E+4
   1.23710E+5  -6.49846E+4
   1.22623E+5  -6.09098E+4
   1.21232E+5  -5.68752E+4
   1.19634E+5  -5.30435E+4
   1.17907E+5  -4.93578E+4
   1.16586E+5  -4.56077E+4
   1.14940E+5  -4.17618E+4
   1.12900E+5  -3.82838E+4
   1.10950E+5  -3.46655E+4
   1.09151E+5  -3.13190E+4
   1.07081E+5  -2.81111E+4
   1.05178E+5  -2.49614E+4
   1.03118E+5  -2.21042E+4
   1.01022E+5  -1.89518E+4
   9.89254E+4  -1.61397E+4
   9.69657E+4  -1.33789E+4
   9.47428E+4  -1.07040E+4
   9.26359E+4  -8.16850E+3
   9.02098E+4  -5.68862E+3
   8.81170E+4  -3.07857E+3
   8.59883E+4  -8.74369E+2
   8.38880E+4   1.38126E+3
   8.15711E+4   3.38501E+3
   7.92514E+4   5.22711E+3
   7.69161E+4   6.97694E+3
   7.51136E+4   8.91051E+3
   7.26110E+4   1.04966E+4
   7.03819E+4   1.24324E+4
   6.80663E+4   1.38312E+4
   6.60865E+4   1.51605E+4
   6.39209E+4   1.67428E+4
   6.18399E+4   1.78849E+4
   5.95832E+4   1.89949E+4
   5.76215E+4   2.02040E+4
   5.54591E+4   2.14576E+4
   5.33256E+4   2.25440E+4
   5.14024E+4   2.33388E+4
   4.93361E+4   2.42448E+4
   4.76806E+4   2.51322E+4
   4.53766E+4   2.60761E+4
   4.34599E+4   2.66717E+4
   4.14468E+4   2.71772E+4
   3.97433E+4   2.75715E+4
   3.80353E+4   2.81837E+4
   3.62790E+4   2.86758E+4
   3.41054E+4   2.92175E+4
   3.22840E+4   2.91725E+4
   3.06630E+4   2.94555E+4
   2.92577E+4   2.95641E+4
   2.72925E+4   2.98391E+4
   2.56433E+4   3.00040E+4
   2.41336E+4   3.03698E+4
   2.24594E+4   3.02292E+4
   2.08790E+4   3.04462E+4
   1.93119E+4   3.01661E+4
   1.76678E+4   3.01062E+4
   1.61038E+4   2.98087E+4
   1.47232E+4   2.96128E+4
   1.33853E+4   2.95406E+4
   1.18697E+4   2.93222E+4
   1.05740E+4   2.86519E+4
   9.29618E+3   2.83017E+4
   8.08611E+3   2.80969E+4
   6.76146E+3   2.73285E+4
   5.69098E+3   2.69584E+4
   4.37088E+3   2.63951E+4
   3.18783E+3   2.55511E+4
   1.89056E+3   2.55285E+4
   1.02643E+3   2.48645E+4
   9.70776E+1   2.40918E+4
  -8.44911E+2   2.33175E+4
  -1.95734E+3   2.27944E+4
  -3.13414E+3   2.17897E+4
  -3.97049E+3   2.13207E+4
  -4.48436E+3   2.05087E+4
  -5.42656E+3   1.97608E+4
  -6.17811E+3   1.88378E+4
  -6.93683E+3   1.82315E+4
  -8.02556E+3   1.74867E+4
  -8.60758E+3   1.64001E+4
  -9.15383E+3   1.55609E+4
  -9.52553E+3   1.46968E+4
  -1.01541E+4   1.40998E+4
  -1.09274E+4   1.30882E+4
  -1.15730E+4   1.23744E+4
  -1.18943E+4   1.15950E+4
  -1.21790E+4   1.07516E+4
  -1.27273E+4   9.91238E+3
  -1.34541E+4   8.88118E+3
  -1.33754E+4   7.96631E+3
  -1.37877E+4   7.41994E+3
  -1.42134E+4   6.63055E+3
  -1.47647E+4   5.52877E+3
  -1.48099E+4   4.78029E+3
  -1.46079E+4   3.79063E+3
  -1.49935E+4   3.14434E+3
  -1.53531E+4   2.53452E+3
  -1.57885E+4   1.42570E+3
  -1.55851E+4   5.92762E+2
  -1.55181E+4  -1.87847E+2
  -1.57709E+4  -1.14761E+3
  -1.57930E+4  -1.70425E+3
  -1.55786E+4  -2.70558E+3
  -1.56309E+4  -3.59849E+3
  -1.53937E+4  -4.11063E+3
  -1.55148E+4  -4.86976E+3
  -1.54042E+4  -5.62926E+3
  -1.52633E+4  -6.83986E+3
  -1.52488E+4  -7.46380E+3
  -1.50191E+4  -8.06240E+3
  -1.48079E+4  -8.71903E+3
  -1.45974E+4  -9.78215E+3
  -1.43000E+4  -1.03183E+4
  -1.40812E+4  -1.09429E+4
  -1.38051E+4  -1.13993E+4
  -1.36212E+4  -1.22473E+4
  -1.31903E+4  -1.31900E+4
  -1.28489E+4  -1.39349E+4
  -1.23867E+4  -1.45540E+4
  -1.21737E+4  -1.48516E+4
  -1.17921E+4  -1.58852E+4
  -1.14281E+4  -1.64637E+4
  -1.09533E+4  -1.68803E+4
  -1.06067E+4  -1.73257E+4
  -1.01056E+4  -1.80976E+4
  -9.79604E+3  -1.86577E+4
  -9.10380E+3  -1.89295E+4
  -8.56679E+3  -1.97020E+4
  -8.19164E+3  -1.98573E+4
  -7.56566E+3  -2.05723E+4
  -7.32107E+3  -2.11497E+4
  -6.70312E+3  -2.12179E+4
  -6.02150E+3  -2.18698E+4
  -5.80530E+3  -2.21881E+4
  -4.87328E+3  -2.26451E+4
  -4.57646E+3  -2.30540E+4
  -4.14828E+3  -2.33561E+4
  -3.58541E+3  -2.37487E+4
  -3.16672E+3  -2.40387E+4
  -2.62642E+3  -2.42324E+4
  -2.03583E+3  -2.45396E+4
  -8.88250E+2  -2.45002E+4
  -7.65560E+2  -2.45765E+4
  -2.70826E+2  -2.50868E+4
   1.75708E+2  -2.50704E+4
   1.03742E+3  -2.50994E+4
   1.44882E+3  -2.52380E+4
   1.79173E+3  -2.56338E+4
   2.27920E+3  -2.57123E+4
   2.92701E+3  -2.56122E+4
   3.53740E+3  -2.55428E+4
   4.00700E+3  -2.54005E+4
   4.35076E+3  -2.56624E+4
   5.10806E+3  -2.55191E+4
   5.59064E+3  -2.53858E+4
   6.01288E+3  -2.53813E+4
   6.47626E+3  -2.52684E+4
   7.04086E+3  -2.54387E+4
