 
 $NMID
 ID=''
 FMTDAT='(2E13.5)'
 TRAMP=   1.00000E+0
 VOLUME=   1.00000E+0
 $END
   9.94228E+3   1.68248E+4
   3.09620E+4   1.24626E+4
   2.37744E+4  -3.03976E+4
  -2.85466E+4  -2.24575E+4
  -3.16035E+4   2.58882E+4
   1.99456E+4   2.66213E+4
   3.15006E+4  -1.41204E+4
  -7.24658E+3  -2.39104E+4
  -2.61510E+4   3.65354E+3
  -5.64119E+3   2.10910E+4
   1.43952E+4   6.38652E+3
   7.58540E+3  -1.28402E+4
  -1.05872E+4  -8.13559E+3
  -9.98330E+3   5.43824E+3
   4.47239E+3   4.06065E+3
   8.09042E+3  -2.70599E+3
  -9.37517E+2  -2.77821E+3
  -5.59217E+3  -6.67348E+2
  -1.00768E+3   1.59732E+3
   3.18845E+3   3.01073E+3
   4.89350E+2  -4.92989E+2
  -4.34546E+2  -2.78606E+3
   3.79795E+2   6.72133E+2
  -8.49518E+2   2.03619E+3
  -1.09901E+3  -9.03949E+2
   2.22799E+3  -4.63680E+2
   1.64160E+3   1.50920E+3
  -2.54125E+3   7.74261E+2
  -2.21553E+3  -1.42428E+3
   1.47654E+3  -3.36487E+2
   1.61790E+3   1.31027E+3
  -1.10438E+3   3.65553E+2
  -2.09655E+3  -1.71853E+3
  -3.98762E+2  -1.97276E+3
   2.74706E+3  -3.54069E+2
   2.41631E+3   1.02486E+3
  -6.82080E+2   9.79498E+2
  -1.18804E+3   1.80809E+2
   7.84565E+2   3.03213E+2
   2.42390E+2   1.31481E+2
  -1.28611E+3  -1.06365E+3
   1.81920E+2  -1.31044E+3
   2.26051E+3   2.37716E+2
   8.93705E+2   4.91972E+2
  -1.15727E+2  -4.82274E+2
   8.77296E+0   5.49499E+2
  -5.12577E+2   1.66783E+3
  -1.85631E+3  -6.43060E+2
  -6.72594E+2  -2.59355E+3
   9.62766E+2  -1.24582E+3
   7.48893E+2   3.73421E+2
   6.01386E+2  -2.64191E+2
   5.66283E+2  -6.61005E+2
   1.49589E+2   7.17075E+2
  -3.45002E+2   1.20146E+3
  -4.87023E+2  -2.90915E+1
  -4.20748E+2  -1.39786E+3
   3.38051E+2  -1.01858E+3
   6.57797E+2   5.59028E+1
   5.92803E+2   2.88575E+2
  -4.68606E+1   1.46718E+2
   1.14362E+2   4.86034E+2
  -5.68605E+2   1.19915E+3
  -1.51734E+3   2.11995E+2
  -1.50062E+3  -1.39500E+3
   2.08515E+2  -1.21504E+3
   1.07624E+3  -5.74020E+2
   8.22575E+2  -4.54766E+2
   3.88438E+2  -3.94547E+1
   1.78322E+2   5.59165E+2
  -1.19604E+2   8.33453E+1
   5.30798E+1  -3.88238E+2
   2.98669E+2   2.55274E+2
  -1.76157E+2   9.44160E+2
  -7.00006E+2   3.22782E+2
   1.89802E+1  -4.75709E+2
   2.97983E+2  -1.81229E+2
  -3.74405E+2   7.02382E+2
  -7.68308E+2   6.97808E+2
  -4.77294E+2  -4.50366E+2
  -2.22478E+2  -3.32021E+2
   4.21455E+1   8.34351E+1
  -1.59593E+2   6.62217E+1
  -2.12352E+1  -4.32224E+2
   7.35385E+1  -4.78908E+2
   2.38948E+2   3.14236E+1
   4.45541E+2   6.95147E+2
   1.06045E+2   3.02393E+2
   5.88136E+1  -4.76471E+1
   1.63753E+2   4.14049E+2
   6.37414E+1   5.87284E+2
  -3.73257E+2   7.21655E+2
  -5.50112E+2   1.31078E+2
  -7.68830E+2  -1.43281E+2
  -5.32623E+1  -2.08031E+2
   6.87853E+2  -2.23542E+2
   3.57002E+2   3.36236E+2
  -2.14573E+2   3.84705E+2
   2.05254E+2   1.83525E+2
   7.13133E+2   1.68147E+2
   5.77811E+2   7.18281E+2
  -4.71562E+2   3.27851E+2
  -4.63987E+2  -1.77095E+2
   5.18703E+2  -2.41428E+2
   5.38974E+2  -1.76625E+1
   8.92375E+1   4.32649E+2
  -5.63624E+2   4.88816E+2
  -4.16811E+2  -2.09453E+1
   2.09230E+2  -7.47918E+2
   6.82887E+2  -4.09439E+2
   6.35020E+2   3.49795E+2
   2.63028E+2   7.78075E+2
  -1.90799E+2   6.12736E+2
  -1.14826E+2   2.56370E+2
  -1.39049E+2   2.07125E+2
  -3.03994E+2   9.05409E+1
  -6.49665E+2  -2.53244E+2
  -1.37756E+2  -7.64345E+2
   4.45414E+2  -9.20011E+2
   8.33082E+2  -1.47110E+1
   5.17097E+2   5.65313E+2
   2.79400E+2   5.80809E+2
  -6.11881E+1   4.24910E+2
  -1.90867E+2   2.80325E+2
  -4.26830E+2   1.30482E+2
   1.47187E+1  -3.61543E+2
   2.25769E+2  -3.71447E+2
   3.49630E+2   6.08229E+0
   7.36803E+1   2.21874E+2
  -2.04480E+2   4.39974E+2
  -3.54244E+2   3.86523E+2
  -2.63984E+2  -1.73130E+2
   2.16103E+2  -3.52489E+2
   1.88468E+1   1.85267E+2
  -8.52353E+1  -2.93896E+2
   3.17976E+2  -6.71987E+1
   2.59067E+2   1.25469E+2
   1.21900E+2   5.45939E+2
  -2.38982E+2   4.71305E+2
  -5.05617E+2  -1.30215E+1
  -3.13691E+2  -2.82118E+2
   1.93834E+2  -2.04419E+2
   3.56822E+2   2.52362E+2
   4.12050E+2   3.71985E+2
  -1.35685E+2   5.52248E+2
  -5.98504E+2   1.71837E+2
  -2.98931E+2  -2.94900E+2
  -4.71137E+1   7.23935E+1
  -4.27224E+2   1.37829E+2
   2.47413E+1  -2.17145E+2
   1.76468E+2  -2.20810E+2
   5.89887E+2  -1.23428E+1
   1.67699E+2   4.47900E+2
  -4.92504E+1   6.61307E+2
  -1.82825E+2   1.29585E+2
  -1.12369E+2   3.24503E+2
   3.82971E+1   3.12242E+2
   2.29899E+0   2.16431E+2
  -4.18565E+1  -5.07145E+1
   2.46282E+1   1.08480E+2
  -2.42109E+2   4.56477E+1
  -2.97550E+2   1.59154E+2
  -1.22809E+2  -1.64936E+2
  -3.10242E+1  -1.86808E+2
   1.86267E+2  -1.48504E+2
   1.78527E+1  -1.65296E+2
  -2.39290E+1   2.11936E+2
  -1.01762E+2   7.33207E+0
  -2.38808E+2  -5.78705E+1
   2.10711E+2  -1.50469E+2
   1.46801E+2   1.56661E+2
  -3.91910E+1   3.65987E+1
   2.90742E+0  -9.03593E+0
  -1.61233E+2   1.84369E+1
   2.55219E+2   1.74402E+2
  -8.46894E+1  -1.94713E+1
   3.18042E+1   1.20355E+2
  -3.91858E+2  -2.92935E+2
   7.71771E+1  -1.21245E+2
   2.50066E+2   4.49958E+1
  -1.25713E+2   4.64629E+2
  -8.53594E+1   4.17233E+2
  -1.51716E+2  -6.66798E+1
  -3.17205E+2  -6.33169E+1
  -4.54160E+1   7.01427E+1
  -2.03987E-1  -1.50977E+2
   1.66286E+1  -3.92964E+2
   2.49257E+2  -4.07429E+1
   3.48404E+2   3.95091E+0
   2.09095E+2   4.31584E+2
  -1.96239E+2   2.46185E+2
  -3.86197E+2   6.16006E+1
  -3.99986E+2  -3.59948E+1
   1.75372E+1  -2.40325E+2
   1.33521E+2  -1.98809E+2
   2.14400E+2   3.59952E+1
  -1.72290E+2  -5.77842E+1
   4.57627E+1   4.34669E+1
  -1.80530E+2   1.70993E+2
  -2.77989E+2   8.58541E+0
  -2.55897E+2  -1.05586E+2
  -6.86200E+1  -4.18857E+2
   3.19725E+2  -1.17551E+2
   1.31048E+2   4.73071E+1
  -6.68962E+1  -1.73870E+2
  -3.95116E+1   9.42592E+1
   2.97027E+0   2.26742E+2
  -1.44444E+2  -1.09915E+2
  -3.27483E+1  -3.54832E+1
  -8.31441E+1   1.68240E+2
   2.24061E+1  -4.84635E+1
   3.38838E+2  -3.01656E+1
   2.78665E+2   3.17318E+2
  -8.54567E+1   3.34310E+2
  -3.68744E+2   1.38587E+2
  -2.11336E+2  -2.07389E+2
  -1.29299E+2  -2.79662E+2
   1.72944E+2  -2.59125E+2
   2.16177E+2  -1.22094E+2
   5.70841E+1  -8.99243E+1
   1.82766E+2  -8.57589E+0
   1.70119E+2   1.30841E+2
  -7.52923E+1   4.09209E+2
  -1.86422E+2   2.35478E+2
  -2.96748E+2   5.63018E+1
  -8.10412E+0  -3.26758E+2
   2.45129E+2  -1.80503E+2
   5.22451E+1   1.01330E+2
   4.69861E+0   5.63883E+1
   1.56486E+2  -5.20370E+1
   1.53862E+2  -1.13468E+1
   3.22019E+2  -2.12830E+2
   1.19496E+1   1.66384E+2
  -1.41239E+2  -1.69199E+2
   3.80335E+1  -1.07479E+2
  -1.31376E+2  -2.28353E+2
   1.46036E+2   1.66594E+2
   1.77392E+2  -1.09397E+2
  -2.09320E+1  -1.27403E+2
   1.26419E+2  -1.63872E+2
   2.02195E+2   8.65584E+0
   5.33061E+1   2.61048E+2
  -2.25706E+2   2.85703E+1
  -2.60925E+2  -6.81559E+0
   3.20384E+1  -2.57313E+2
   2.41498E+2  -6.02564E+1
  -2.64396E+1   1.02100E+1
  -1.52822E+1  -1.72214E-1
   2.23265E+2  -8.61018E+1
  -4.25981E+1  -1.73256E+2
   5.01366E+1  -6.25716E+1
  -8.15863E+1   8.21648E+1
  -1.86358E+2   3.10827E+1
   3.85556E+1  -3.64190E+2
   2.94103E+2  -1.98138E+2
   6.91698E+1   8.73156E+1
   1.44432E+2   2.41063E+2
   7.57669E+1   6.56879E+1
   7.09606E+1   6.12355E+1
  -1.49230E+1   6.07500E+1
  -1.82425E+2  -3.58186E+1
  -1.84597E+2  -1.89774E+2
  -8.96019E+1  -2.79822E+2
   2.95734E+2  -2.50559E+2
   2.33148E+2  -6.25757E+1
  -4.44966E+1   2.07175E+2
  -2.40681E+2   1.08315E+2
  -1.59591E+2  -2.24946E+2
  -7.99031E+1  -2.51455E+2
  -6.55114E+0  -1.73867E+2
  -1.97076E+1  -1.49803E+2
   1.47500E+2   1.41382E+2
   2.41228E+1   1.48427E+2
   2.48973E+2   2.21391E+2
  -8.46157E+1   6.08377E+1
  -3.96229E+2  -4.50301E+1
  -1.59462E+2  -6.55810E+1
  -3.07784E+1  -1.67153E+2
   2.03178E+2  -1.87500E+2
   2.14006E+2  -1.19424E+2
   5.87075E+1  -1.04590E+2
   1.55942E+2   4.50268E+0
   6.61369E+1  -1.50054E+2
  -2.44359E+0   5.89494E+1
  -2.04284E+2  -7.94779E+1
  -2.54754E+2  -1.98068E+2
   9.18949E+1  -3.52431E+2
   1.99867E+2  -1.02488E+2
   3.46540E+2   8.15971E+1
   1.49392E+2   2.32995E+2
  -1.12135E+2   9.38876E+1
  -2.03841E+2  -2.06840E+2
  -2.96734E+1  -7.54576E+0
   4.63679E+0   5.63151E+1
  -4.91104E+1  -1.16971E+2
   6.52961E+1  -3.24674E+2
  -5.17818E+1   1.38531E+2
  -1.03292E+2   8.57635E+1
  -1.76787E+2   4.16771E+1
   6.66966E+1   8.56933E+1
  -5.35054E+0   1.76333E+2
   9.52920E+1   6.44820E+1
   5.17756E+0   1.80405E+2
  -7.88699E+1   1.77822E+1
  -4.98832E+1  -1.70176E+1
   1.48176E+2  -1.66782E+2
   2.69093E+2  -4.36621E+1
  -2.93006E+1  -1.34000E+2
   1.52176E+2   5.08004E+1
   9.21567E+0  -8.69643E+1
   1.50730E+2  -1.36184E+2
   2.22331E+2   1.15665E+2
  -8.32881E+0   5.09017E+1
  -1.86429E+1   8.50355E+1
   4.25057E+1  -2.97223E+2
   6.81350E+1  -2.42135E+2
   9.94943E+1  -1.47340E+2
   2.67671E+2   1.54829E+1
   8.28095E+1  -9.70931E+1
   1.05886E+2  -2.72936E+2
   2.44465E+2  -1.80001E+2
   3.83528E+1  -6.73411E+1
   3.47069E+1   3.47072E+1
  -1.09997E+2  -3.98511E+1
  -8.74632E+1   5.27929E+0
   1.27787E+2   2.10554E+2
   1.17361E+2   1.84108E+2
  -1.11370E+2  -2.52723E+1
  -3.90323E+2  -2.01334E+1
   1.59871E+2  -3.47986E+2
  -1.54257E+2  -1.48518E+2
   1.84433E+2  -8.18248E+1
  -1.78836E+1   4.38646E+1
   3.35592E+2   6.30664E+1
  -6.10577E+1   1.18644E+2
  -1.68753E+2   2.74812E+2
  -2.34284E+2   2.02941E+2
  -1.86363E+2  -2.42373E+2
   1.43529E+2  -9.82060E+1
   2.24326E+2  -1.54659E+2
   1.79804E+2   1.61608E+2
   1.25677E+2   3.60787E+1
  -8.63839E-1   2.86900E+2
   1.00776E+2  -2.68043E+2
  -4.02223E+1   3.21911E+1
  -1.65633E+1   2.21979E+1
   6.95946E+1  -7.33417E+1
   2.19735E+1  -4.82518E+2
   1.77119E+2   1.49384E+2
   2.18975E+2   1.54528E+2
  -3.76903E+1  -5.40025E+1
   1.03863E+2  -1.68536E+2
  -1.42642E+1  -1.53225E+2
   5.51077E+1  -4.78919E+0
  -2.65331E+2   4.50954E+1
  -1.59406E+1  -3.39408E+2
   3.93802E+2  -1.08294E+1
   2.28239E+1  -1.28087E+2
   3.17073E+2   5.85872E+1
  -5.41739E+1  -3.00141E+1
  -1.24608E+2   2.93592E+1
  -7.78045E+1  -1.86340E+2
   1.12660E+2  -4.83929E+1
   2.23323E+2   1.04282E+2
   1.23255E+2  -6.67544E+1
  -3.33193E+1  -4.43599E+1
  -6.50642E+1  -3.89450E+1
