 
 $NMID
 ID=''
 FMTDAT='(2E13.5)'
 TRAMP=   1.00000E+0
 VOLUME=   1.00000E+0
 $END
  -2.69016E+4   7.78175E+5
  -7.61362E+5   1.93329E+6
  -5.35561E+5   1.91832E+6
  -6.49352E+5   1.75787E+6
  -7.17510E+5   1.86014E+6
  -5.98353E+5   1.84844E+6
  -6.31817E+5   1.76051E+6
  -6.95985E+5   1.80815E+6
  -6.53443E+5   1.79116E+6
  -6.97767E+5   1.72309E+6
  -7.47457E+5   1.73893E+6
  -7.28363E+5   1.71376E+6
  -7.62644E+5   1.66170E+6
  -8.03902E+5   1.66491E+6
  -8.04482E+5   1.63172E+6
  -8.33931E+5   1.58419E+6
  -8.60299E+5   1.58571E+6
  -8.60452E+5   1.56332E+6
  -8.82050E+5   1.52853E+6
  -8.88961E+5   1.52767E+6
  -8.86026E+5   1.50355E+6
  -9.08296E+5   1.47397E+6
  -9.21602E+5   1.46504E+6
  -9.23489E+5   1.43995E+6
  -9.43950E+5   1.40866E+6
  -9.51014E+5   1.39591E+6
  -9.61064E+5   1.36874E+6
  -9.85666E+5   1.33691E+6
  -9.98801E+5   1.31350E+6
  -1.00217E+6   1.28789E+6
  -1.01818E+6   1.26341E+6
  -1.02313E+6   1.24477E+6
  -1.02521E+6   1.21967E+6
  -1.03460E+6   1.20006E+6
  -1.03415E+6   1.18291E+6
  -1.02996E+6   1.16530E+6
  -1.03630E+6   1.15205E+6
  -1.04133E+6   1.13490E+6
  -1.04195E+6   1.10904E+6
  -1.04678E+6   1.08913E+6
  -1.05190E+6   1.06843E+6
  -1.05537E+6   1.04127E+6
  -1.05784E+6   1.01850E+6
  -1.06069E+6   9.99014E+5
  -1.06602E+6   9.73583E+5
  -1.07164E+6   9.49881E+5
  -1.07383E+6   9.28568E+5
  -1.07665E+6   9.05015E+5
  -1.07689E+6   8.82959E+5
  -1.07510E+6   8.63865E+5
  -1.07441E+6   8.45251E+5
  -1.07571E+6   8.26669E+5
  -1.07553E+6   8.08457E+5
  -1.07537E+6   7.88962E+5
  -1.07522E+6   7.69409E+5
  -1.07520E+6   7.48654E+5
  -1.07539E+6   7.26068E+5
  -1.07354E+6   7.03379E+5
  -1.07028E+6   6.83716E+5
  -1.06949E+6   6.65222E+5
  -1.06898E+6   6.44161E+5
  -1.06676E+6   6.23918E+5
  -1.06421E+6   6.05123E+5
  -1.06247E+6   5.85868E+5
  -1.05840E+6   5.65729E+5
  -1.05235E+6   5.46827E+5
  -1.04724E+6   5.30091E+5
  -1.04370E+6   5.12973E+5
  -1.04012E+6   4.95277E+5
  -1.03668E+6   4.76865E+5
  -1.03239E+6   4.58019E+5
  -1.02697E+6   4.39865E+5
  -1.02189E+6   4.22495E+5
  -1.01774E+6   4.05320E+5
  -1.01244E+6   3.87657E+5
  -1.00635E+6   3.70353E+5
  -1.00065E+6   3.53817E+5
  -9.95004E+5   3.38146E+5
  -9.88999E+5   3.21658E+5
  -9.82528E+5   3.04954E+5
  -9.75885E+5   2.88882E+5
  -9.68033E+5   2.73897E+5
  -9.61893E+5   2.58706E+5
  -9.55408E+5   2.42257E+5
  -9.48236E+5   2.25435E+5
  -9.40314E+5   2.09640E+5
  -9.32902E+5   1.94961E+5
  -9.26106E+5   1.79778E+5
  -9.18426E+5   1.64299E+5
  -9.09586E+5   1.50234E+5
  -9.00967E+5   1.37437E+5
  -8.93456E+5   1.24986E+5
  -8.85849E+5   1.11554E+5
  -8.77167E+5   9.91600E+4
  -8.67646E+5   8.78346E+4
  -8.58834E+5   7.72325E+4
  -8.50483E+5   6.64759E+4
  -8.43020E+5   5.59351E+4
  -8.34445E+5   4.50756E+4
  -8.25659E+5   3.43608E+4
  -8.17586E+5   2.41827E+4
  -8.09255E+5   1.33675E+4
  -8.00001E+5   2.28033E+3
  -7.90339E+5  -7.91810E+3
  -7.80890E+5  -1.66485E+4
  -7.72528E+5  -2.50712E+4
  -7.64593E+5  -3.41934E+4
  -7.55420E+5  -4.36367E+4
  -7.45188E+5  -5.20734E+4
  -7.35759E+5  -5.88544E+4
  -7.27484E+5  -6.54037E+4
  -7.19619E+5  -7.35302E+4
  -7.10476E+5  -8.17498E+4
  -7.01299E+5  -8.90890E+4
  -6.92417E+5  -9.63475E+4
  -6.83729E+5  -1.03727E+5
  -6.74463E+5  -1.11192E+5
  -6.64363E+5  -1.18165E+5
  -6.54585E+5  -1.23943E+5
  -6.46024E+5  -1.29091E+5
  -6.37441E+5  -1.34252E+5
  -6.28800E+5  -1.40137E+5
  -6.20302E+5  -1.45224E+5
  -6.11502E+5  -1.50849E+5
  -6.02352E+5  -1.56026E+5
  -5.93229E+5  -1.60829E+5
  -5.83546E+5  -1.65403E+5
  -5.74336E+5  -1.70019E+5
  -5.65433E+5  -1.74719E+5
  -5.56875E+5  -1.79172E+5
  -5.47858E+5  -1.85017E+5
  -5.37827E+5  -1.90211E+5
  -5.28453E+5  -1.94125E+5
  -5.19369E+5  -1.97764E+5
  -5.10533E+5  -2.01881E+5
  -5.01209E+5  -2.05721E+5
  -4.92251E+5  -2.08709E+5
  -4.83575E+5  -2.11393E+5
  -4.75336E+5  -2.14885E+5
  -4.66306E+5  -2.18287E+5
  -4.56925E+5  -2.21091E+5
  -4.48132E+5  -2.23122E+5
  -4.39219E+5  -2.24901E+5
  -4.31261E+5  -2.27032E+5
  -4.22956E+5  -2.29880E+5
  -4.13968E+5  -2.31957E+5
  -4.04591E+5  -2.34018E+5
  -3.96060E+5  -2.35751E+5
  -3.87329E+5  -2.37228E+5
  -3.78843E+5  -2.38394E+5
  -3.70129E+5  -2.39422E+5
  -3.62309E+5  -2.40254E+5
  -3.54630E+5  -2.40955E+5
  -3.46938E+5  -2.41820E+5
  -3.39159E+5  -2.42445E+5
  -3.30911E+5  -2.42535E+5
  -3.23488E+5  -2.43007E+5
  -3.16523E+5  -2.43017E+5
  -3.08993E+5  -2.42868E+5
  -3.01626E+5  -2.42752E+5
  -2.94477E+5  -2.42899E+5
  -2.87251E+5  -2.42684E+5
  -2.80297E+5  -2.42475E+5
  -2.72751E+5  -2.41784E+5
  -2.66014E+5  -2.40944E+5
  -2.59416E+5  -2.40137E+5
  -2.53285E+5  -2.39797E+5
  -2.46975E+5  -2.39529E+5
  -2.40722E+5  -2.38550E+5
  -2.34049E+5  -2.37497E+5
  -2.28414E+5  -2.36300E+5
  -2.22504E+5  -2.35140E+5
  -2.16823E+5  -2.34399E+5
  -2.11020E+5  -2.33073E+5
  -2.05247E+5  -2.31948E+5
  -1.99903E+5  -2.30551E+5
  -1.94459E+5  -2.29646E+5
  -1.88809E+5  -2.28564E+5
  -1.83027E+5  -2.26850E+5
  -1.77883E+5  -2.25056E+5
  -1.73022E+5  -2.23674E+5
  -1.68572E+5  -2.22464E+5
  -1.63137E+5  -2.20907E+5
  -1.58551E+5  -2.19200E+5
  -1.53481E+5  -2.17699E+5
  -1.49143E+5  -2.15760E+5
  -1.44610E+5  -2.13790E+5
  -1.40322E+5  -2.11671E+5
  -1.36078E+5  -2.09688E+5
  -1.32389E+5  -2.07696E+5
  -1.28246E+5  -2.06141E+5
  -1.23909E+5  -2.04565E+5
  -1.19488E+5  -2.02678E+5
  -1.15365E+5  -2.00224E+5
  -1.11311E+5  -1.98347E+5
  -1.07912E+5  -1.96128E+5
  -1.03785E+5  -1.94283E+5
  -9.98227E+4  -1.92039E+5
  -9.64252E+4  -1.89944E+5
  -9.29227E+4  -1.87838E+5
  -8.88476E+4  -1.85735E+5
  -8.51256E+4  -1.83388E+5
  -8.15339E+4  -1.80732E+5
  -7.85135E+4  -1.78622E+5
  -7.50593E+4  -1.76450E+5
  -7.21028E+4  -1.74226E+5
  -6.88448E+4  -1.71604E+5
  -6.54604E+4  -1.69454E+5
  -6.26555E+4  -1.67180E+5
  -5.93179E+4  -1.64608E+5
  -5.62896E+4  -1.61975E+5
  -5.34186E+4  -1.59689E+5
  -5.07330E+4  -1.57145E+5
  -4.84290E+4  -1.55271E+5
  -4.53057E+4  -1.52904E+5
  -4.23252E+4  -1.50318E+5
  -3.97859E+4  -1.47609E+5
  -3.73954E+4  -1.45215E+5
  -3.52328E+4  -1.42902E+5
  -3.30186E+4  -1.40444E+5
  -3.07881E+4  -1.37942E+5
  -2.86988E+4  -1.35212E+5
  -2.64959E+4  -1.33103E+5
  -2.45933E+4  -1.30943E+5
  -2.26430E+4  -1.28563E+5
  -2.06439E+4  -1.26010E+5
  -1.90616E+4  -1.23554E+5
  -1.77145E+4  -1.21263E+5
  -1.58496E+4  -1.19446E+5
  -1.39679E+4  -1.17180E+5
  -1.25157E+4  -1.14951E+5
  -1.12251E+4  -1.12325E+5
  -9.90058E+3  -1.10152E+5
  -8.47975E+3  -1.08406E+5
  -7.32059E+3  -1.05960E+5
  -6.21887E+3  -1.04239E+5
  -5.12185E+3  -1.02076E+5
  -4.16050E+3  -1.00010E+5
  -2.92047E+3  -9.81244E+4
  -2.07748E+3  -9.61972E+4
  -1.32471E+3  -9.37861E+4
  -7.83819E+2  -9.22078E+4
  -1.46064E+1  -9.05573E+4
   9.07378E+2  -8.86457E+4
   1.48433E+3  -8.66205E+4
   2.33954E+3  -8.48787E+4
   2.81845E+3  -8.34906E+4
   3.67667E+3  -8.16695E+4
   4.09167E+3  -7.98281E+4
   4.61034E+3  -7.80674E+4
   4.71326E+3  -7.66278E+4
   5.38927E+3  -7.50431E+4
   6.02391E+3  -7.32095E+4
   6.34131E+3  -7.17330E+4
   6.54438E+3  -7.00297E+4
   6.71905E+3  -6.85910E+4
   7.19350E+3  -6.72005E+4
   7.30654E+3  -6.59284E+4
   7.63446E+3  -6.43467E+4
   8.06988E+3  -6.32966E+4
   8.29513E+3  -6.16592E+4
   8.94105E+3  -6.04447E+4
   9.04948E+3  -5.88079E+4
   9.42031E+3  -5.73109E+4
   9.22121E+3  -5.61247E+4
   9.36566E+3  -5.50359E+4
   9.45413E+3  -5.36962E+4
   9.76258E+3  -5.24131E+4
   9.81565E+3  -5.12644E+4
   9.87402E+3  -4.99863E+4
   1.01315E+4  -4.88384E+4
   9.90459E+3  -4.78150E+4
   9.98446E+3  -4.65749E+4
   9.99104E+3  -4.54859E+4
   1.00064E+4  -4.44909E+4
   1.01456E+4  -4.32921E+4
   1.00573E+4  -4.19806E+4
   1.02844E+4  -4.10205E+4
   1.03458E+4  -3.99805E+4
   1.01850E+4  -3.92113E+4
   1.01388E+4  -3.82955E+4
   1.03412E+4  -3.73433E+4
   1.01244E+4  -3.63741E+4
   9.81979E+3  -3.55803E+4
   9.78181E+3  -3.46583E+4
   9.98311E+3  -3.36968E+4
   9.86364E+3  -3.27064E+4
   9.48783E+3  -3.18500E+4
   9.38794E+3  -3.13856E+4
   9.46630E+3  -3.08798E+4
   9.34695E+3  -3.01602E+4
   9.29565E+3  -2.92659E+4
   8.98423E+3  -2.85375E+4
   9.03830E+3  -2.79145E+4
   8.88680E+3  -2.74822E+4
   8.67854E+3  -2.69650E+4
   8.42939E+3  -2.63132E+4
   8.11268E+3  -2.57176E+4
   8.13877E+3  -2.52573E+4
   8.03671E+3  -2.48837E+4
   7.94710E+3  -2.41897E+4
   7.67187E+3  -2.39448E+4
   7.39768E+3  -2.34891E+4
   7.18919E+3  -2.33841E+4
   7.38562E+3  -2.26915E+4
   7.04172E+3  -2.23590E+4
   6.64374E+3  -2.18855E+4
   6.55643E+3  -2.17184E+4
   6.36915E+3  -2.14420E+4
   6.39677E+3  -2.09863E+4
   5.87213E+3  -2.07577E+4
   5.74201E+3  -2.05240E+4
   5.68500E+3  -2.04648E+4
   5.59089E+3  -2.02184E+4
   5.62848E+3  -1.99984E+4
   4.98106E+3  -1.97878E+4
   4.89876E+3  -1.95050E+4
   4.64399E+3  -1.93075E+4
   4.64790E+3  -1.92528E+4
   4.54748E+3  -1.91050E+4
   4.17483E+3  -1.90085E+4
   4.26077E+3  -1.90144E+4
   3.87065E+3  -1.89739E+4
   3.98602E+3  -1.86212E+4
   3.67548E+3  -1.86101E+4
   3.39980E+3  -1.87048E+4
   3.32173E+3  -1.88535E+4
   3.38705E+3  -1.88954E+4
   3.07329E+3  -1.86308E+4
   3.06952E+3  -1.85038E+4
   2.95898E+3  -1.85357E+4
   2.63109E+3  -1.85745E+4
   2.62202E+3  -1.85253E+4
   2.16055E+3  -1.85013E+4
   2.20565E+3  -1.83932E+4
   1.94194E+3  -1.87227E+4
   2.08352E+3  -1.86282E+4
   2.02294E+3  -1.86829E+4
   1.69615E+3  -1.86686E+4
   1.27619E+3  -1.86023E+4
   1.40844E+3  -1.85195E+4
   1.41448E+3  -1.88201E+4
   1.53243E+3  -1.85288E+4
   1.27291E+3  -1.86619E+4
   1.15411E+3  -1.86740E+4
   1.09998E+3  -1.86349E+4
   1.16931E+3  -1.88449E+4
   1.00838E+3  -1.88091E+4
   9.91699E+2  -1.89465E+4
   7.03871E+2  -1.89151E+4
   8.49436E+2  -1.89693E+4
   6.64025E+2  -1.91678E+4
   7.92903E+2  -1.88557E+4
   8.12148E+2  -1.92044E+4
   8.10579E+2  -1.91583E+4
   8.11145E+2  -1.88512E+4
   6.98255E+2  -1.90801E+4
   5.47034E+2  -1.92046E+4
   8.24118E+2  -1.92173E+4
   6.94036E+2  -1.92254E+4
   6.74597E+2  -1.92336E+4
   8.68177E+2  -1.90446E+4
   6.24360E+2  -1.91852E+4
   4.87246E+2  -1.91798E+4
   7.64632E+2  -1.92518E+4
   1.17037E+3  -1.92390E+4
   9.66875E+2  -1.90681E+4
