 
 $NMID
 ID=''
 FMTDAT='(2E13.5)'
 TRAMP=   1.00000E+0
 VOLUME=   1.00000E+0
 $END
  -1.33396E+4   1.77506E+4
   2.00449E+4   8.85493E+3
   1.11339E+4  -3.02482E+4
  -2.64702E+4  -1.39494E+4
  -1.71954E+4   2.82170E+4
   2.31964E+4   1.51493E+4
   2.05391E+4  -2.22968E+4
  -1.30299E+4  -1.74933E+4
  -1.67060E+4   1.23891E+4
   5.80746E+3   1.88827E+4
   1.40983E+4  -1.21716E+2
   4.09146E+2  -1.37292E+4
  -1.07011E+4  -3.12323E+3
  -5.33781E+3   9.55525E+3
   4.09666E+3   2.89573E+3
   5.01698E+3  -6.64924E+3
  -2.88930E+2  -2.97510E+3
  -3.28067E+3   2.88858E+3
  -1.07163E+3   2.70095E+3
   3.00816E+3  -1.90698E+2
   1.58528E+3  -2.17979E+3
  -1.49417E+3  -1.45166E+3
  -3.76163E+2   1.54192E+3
   1.59440E+2   1.68800E+3
   2.37631E+2  -7.99710E+2
   1.71437E+3  -1.20407E+3
   6.65862E+2   1.13041E+3
  -2.19835E+3   1.56683E+3
  -6.72955E+2  -8.86915E+1
   2.00445E+3  -3.76165E+2
   5.81492E+2   3.86372E+2
  -2.03487E+3   2.49606E+1
  -1.26414E+3  -5.20215E+2
  -6.73035E+1  -4.34279E+2
   5.56881E+2  -1.25604E+3
   1.12243E+3  -1.46362E+3
   5.29365E+2   8.93175E+2
  -4.45595E+2   1.65321E+3
  -5.55677E+2  -1.45383E+2
   1.07563E+2  -4.75791E+2
  -5.61270E+2   3.49679E+2
  -7.65626E+2  -3.79549E+2
   3.65334E+2  -8.53847E+2
   1.30746E+3  -4.11959E+2
   9.30799E+2   5.57462E+2
   1.11661E+2   1.37953E+3
  -1.21234E+3   1.17740E+3
  -1.34104E+3  -3.28608E+2
  -7.94606E+2  -1.16411E+3
   7.24312E+0  -1.05843E+3
  -6.46079E+1  -4.60737E+2
   3.67652E+2  -4.15485E+2
   5.45281E+2  -2.44184E+2
   1.28754E+2   6.44250E+2
  -1.74918E+2   5.76518E+2
  -2.49569E+2   2.48458E+2
  -7.00673E+2   4.48654E+1
  -6.30775E+2  -1.08723E+3
   5.28816E+2  -1.14756E+3
   1.32920E+3   1.15017E+2
   6.93600E+2   8.37202E+2
  -4.35545E+2   8.83831E+2
  -4.81429E+2   8.44004E+2
  -6.13638E+2   7.99631E+2
  -1.37640E+3  -1.30216E+2
  -1.10101E+3  -1.48884E+3
   3.89501E+1  -1.41989E+3
   1.05207E+3  -1.89292E+1
   9.27211E+2   8.81376E+2
  -1.51151E+2   5.49240E+2
  -1.21647E+1  -6.21788E+2
   5.34053E+2  -1.36551E+2
   5.59826E+2   7.03089E+2
  -2.35259E+2   5.24421E+2
  -3.77563E+2  -1.12836E+1
  -4.31298E+1   9.51119E+0
  -1.75427E+1   2.40297E+2
  -1.97020E+2   2.76942E+2
  -1.07954E+2   1.03001E+2
  -5.26275E+2   6.28082E+1
  -3.51081E+2  -2.52015E+2
   2.09498E+2  -7.33032E+2
   6.42298E+2  -1.23829E+2
   9.53033E+1   2.33153E+2
  -1.09595E+2  -1.45157E+2
   6.04414E+2  -3.93904E+2
   6.67808E+2   3.06900E+2
   1.00928E+1   7.37952E+2
  -7.73323E+1   2.18906E+2
   3.25733E+2   1.25201E+1
   4.59290E+2   1.48252E+2
  -2.12905E+2   7.43312E+2
  -2.83122E+2   2.97274E+2
  -5.02893E+2  -5.02279E+1
  -5.79714E+1  -7.22301E+2
   2.80106E+2  -5.97547E+2
   5.35107E+2  -2.14818E+2
   1.52927E+2  -5.59732E+1
  -1.31827E+2  -2.67248E+2
   3.77241E+2  -1.82272E+2
   3.03733E+2   1.81934E+2
  -9.79611E+1   7.03612E+2
  -9.28289E+2  -1.73565E+2
   1.08075E+2  -6.31273E+2
   6.74694E+2  -2.22541E+2
   3.49386E+2   3.09970E+2
  -2.85310E+2   1.88404E+2
  -3.22403E+2  -3.95848E+2
  -3.01287E+2  -7.62586E+2
   7.13047E+2  -4.35445E+2
   5.52782E+2   5.46617E+1
   3.50752E+2   4.96191E+2
  -1.45817E+2   4.83702E+2
  -2.57652E+2   1.57251E+2
  -1.28097E+2   1.16335E+2
  -2.71912E+2   1.72435E+2
  -6.21523E+2  -1.14702E+2
  -4.93359E+2  -6.88944E+2
   3.67021E+2  -9.75856E+2
   7.59268E+2  -3.21021E+2
   5.88699E+2   3.50688E+2
   2.19360E+2   4.87636E+2
   2.54147E+2   2.69376E+2
  -3.55585E+2   3.03012E+2
  -5.01750E+2  -1.50662E+2
  -3.75675E+2  -1.19732E+2
   2.50074E+2  -1.52115E+2
   1.80589E+2  -1.80782E+2
   5.78602E+1   2.08492E+2
  -9.04319E+1   3.61682E+2
  -2.32318E+2   1.39804E+2
  -6.81998E+2   2.39201E+1
  -2.43517E+2  -1.97606E+2
   4.19170E+2  -4.24983E+1
  -1.64300E+2   8.34006E+1
   1.59614E+1  -1.95392E+2
  -3.24433E+1  -7.55801E+1
   3.71089E+2   2.26099E+2
  -2.36028E+2   4.63614E+2
  -5.30181E+2   6.09896E+1
  -4.18800E+2  -2.40116E+2
   1.95886E+2  -4.35985E+2
   4.57520E+2   5.71975E+1
   1.11505E+2   4.10526E+2
  -3.17840E+2   1.67140E+2
  -4.60912E+2  -2.82355E+1
  -1.46997E+2  -7.09944E+1
  -1.16308E+2  -1.85333E+2
  -3.96706E+1  -2.25599E+2
  -2.99891E+1  -2.93133E+2
  -3.31197E+1  -2.95654E+2
   4.86721E+2  -7.73530E+1
   5.99928E+2   1.16046E+2
   3.50858E+1   2.73457E+2
  -2.16921E+2  -4.81964E+1
   2.85429E+0  -1.97656E+2
  -9.03121E+1   6.22468E+1
  -2.31045E+2   2.45310E+2
  -2.72346E+2  -4.75957E+1
  -1.02152E+2  -2.65068E+2
  -2.51404E+0   1.37959E+2
  -2.27541E+2   1.18850E+2
  -2.95891E+1  -7.82584E+1
   1.48388E+2  -3.05615E+2
   2.50442E+1  -1.37180E+2
   3.95760E+1   3.54889E+2
   3.23068E+2   2.76608E+2
   5.25248E+1  -1.46561E+1
  -1.32334E+2   1.55206E+1
  -8.67642E+1  -1.09825E+2
   4.64241E+1  -4.82518E+1
  -7.96565E+1   2.14809E+2
  -1.79041E+2   1.02871E+1
  -2.30443E+2   2.08802E+1
  -1.74437E+2  -1.71555E+2
   5.87115E+1   1.02203E+1
  -3.58006E+2   1.79396E+2
  -2.75315E+2  -2.33473E+2
   3.13161E+2  -5.44221E+0
   8.27980E+1  -5.08764E+1
   1.41075E+2   2.25011E+2
  -3.74572E+2   1.22431E+2
  -1.69687E+2  -1.10835E+2
  -2.11659E+2  -1.64714E+2
  -1.51544E+2  -1.36492E+2
   5.20961E+1  -3.49932E+1
   1.02742E+2  -1.50666E+2
   1.07014E+2   3.98262E+1
   2.66644E+2   2.75312E+2
   7.68470E+1   3.53303E+2
  -3.14419E+2   4.58348E+2
  -3.86760E+2   1.23348E+2
   6.04084E+1  -8.06013E+1
  -2.29372E+1  -3.94898E+1
   3.04802E+2   7.38819E+1
   1.44137E+2   1.35535E+2
   2.41643E+1   1.25791E+2
  -1.67446E+2   2.58756E+2
  -2.07472E+2   2.01758E+1
  -8.52328E+1  -8.72045E+1
  -2.89708E+2   1.12552E+1
  -1.20657E+2  -2.72146E+2
   3.09905E+2  -1.76881E+2
   5.62545E+1   4.40637E+1
   1.70627E+2   1.03267E+2
  -1.50242E+2   2.54555E+2
  -9.31517E+1  -1.53866E+1
   1.36172E+1   3.11785E+1
   1.16526E+2   2.89034E+1
   6.54206E+1   1.60069E+2
  -5.86507E+1   2.41769E+1
   1.41571E+2   1.08073E+2
   1.66944E+2   1.28208E+2
  -2.97219E+2   1.63988E+2
  -3.89883E+2  -3.58193E+1
  -1.87165E+2  -2.91463E+2
   1.18738E+2  -3.85652E+2
   2.51500E+2  -1.64581E+2
   9.39695E+1  -1.28051E+1
   4.33319E+1  -8.88855E+1
  -9.34737E+1  -1.66629E+2
  -9.60859E+1  -4.31628E+1
   1.14647E+2   1.09272E+2
  -1.69525E+2  -2.53184E+1
  -1.84553E+2  -2.82047E+2
  -1.24768E+2  -1.74084E+2
   1.15163E+2   1.57010E+2
   8.25164E+1   3.35060E+2
   1.25995E+2   2.10191E+2
   4.57649E+1   5.72607E+1
  -6.57637E+1  -1.52315E+2
   2.79251E+2  -1.79139E+2
   4.88035E+1   3.05125E+1
  -4.39763E+1   2.49488E+2
   1.36222E+2  -1.69210E+2
  -4.58105E+1  -1.05294E+2
   2.60673E+1   6.82454E+1
  -9.32681E+1  -7.59015E+1
  -2.11616E+1  -1.18199E+2
   1.25673E+2   3.17927E+1
   1.76277E+2  -1.47147E+2
   2.58417E+2   1.41804E+2
   1.55665E+1   1.26435E+1
  -2.19748E+2   1.31010E+2
  -2.09822E+0   7.21915E+0
   4.80663E+2   1.47399E+2
   6.35356E+1   9.09645E+1
  -4.82090E+1  -9.13044E+1
   1.07421E+2  -1.08899E+2
  -1.04813E+1  -7.74512E+1
   1.42365E+2   9.91573E+1
   6.56090E+1  -7.25591E+1
  -4.43409E+1  -9.86481E+1
  -7.47580E+1  -1.60462E+2
   9.66752E+1   3.14676E+1
   2.36520E+2   5.94989E+1
   2.32621E+2   1.44612E+2
  -3.36839E+1  -3.14635E+1
  -7.49853E+1   3.01149E+0
  -1.32952E+2   2.40964E+0
   4.81258E+1   5.82108E+1
  -2.69007E+2  -1.03738E+2
  -9.56859E+1  -3.26560E+2
  -7.33538E+1  -1.10356E+2
   2.26853E+2  -9.77642E+1
   1.28032E+2   5.39774E+1
  -6.54793E+1   2.97677E+1
  -2.35890E+2  -1.99389E+2
   5.18034E+1  -2.35558E+1
  -6.72679E+0  -4.46218E+1
  -7.98435E+0   7.28168E+1
   2.95236E+1   1.52947E+2
  -8.19617E+1   4.09643E+1
   4.01800E+1   6.00726E+1
   2.03766E+2  -3.23053E+1
  -8.82417E+1   4.23902E+1
  -7.16278E+1   6.54384E+1
   2.41900E+1   1.17624E+2
   2.66527E+1  -2.03324E+1
  -6.75087E+1   2.23269E+2
  -9.94848E+1   2.08391E+2
  -1.32545E+1  -1.55473E+2
   2.68794E+2   3.88973E+0
   1.50292E+2   5.25860E+1
  -1.97753E+2   4.33102E+1
  -3.58988E+1  -1.88534E+1
  -1.20195E+2  -4.64525E+1
   2.03789E+2  -3.02556E+1
   7.71584E-1   6.71459E+1
   1.69027E+1   2.13163E+2
  -7.66766E+1   1.92979E+2
  -1.68906E+2  -3.32512E+2
   8.19722E+1   2.39607E+2
  -1.48051E+2  -4.37729E+1
   3.22110E+1  -1.23746E+2
   1.31415E+2  -5.31702E+1
  -1.49150E+2   2.77454E+1
   2.23832E+2   1.54784E+2
   8.29140E+1   1.09106E+2
  -1.61970E+2   2.82710E+1
   2.63087E+1  -2.31978E+2
  -5.14758E+1  -3.02108E+1
  -3.66936E+1   2.41561E+2
   1.05643E+1  -1.49369E+1
  -6.35827E+1  -2.71293E+0
   8.01875E+1  -7.57175E+1
   1.19975E+1   9.01703E-1
   1.00861E+2  -1.44143E+2
  -3.51685E+2  -6.01979E+1
  -4.39685E+1   4.88435E+1
   1.83591E+2   2.40849E+1
   3.71491E+1   5.85065E+1
   8.22010E+1  -1.45252E+2
   2.87831E+0   9.65774E+1
  -6.41321E+1  -3.11926E+1
  -1.98124E+2  -2.85448E+2
  -3.31785E+1  -5.90692E+1
  -4.51134E+2   2.12468E+2
  -1.33415E+2  -5.25958E+1
  -1.88711E+2   6.90167E+1
  -7.69129E+1  -2.32210E+1
  -8.36377E+1   3.42640E+2
  -2.10476E+2   1.75392E+2
  -2.15100E+1  -1.96191E+1
   8.45171E+1   1.26901E+2
   7.38257E+1   3.92751E+2
  -2.47839E+1   3.40133E+2
  -1.11506E+2   2.21083E+2
   2.94611E+1  -2.90637E+2
  -4.66400E+1  -1.08419E+2
  -1.43121E+1   7.37137E+1
  -1.11947E+2  -7.97569E+1
   1.58583E+2   6.43182E+1
  -2.41309E+2  -1.29382E+1
   1.16339E+2   1.30713E+2
   1.69169E+2   1.92847E+2
  -1.59994E+2  -2.62301E+2
  -2.53416E+2  -4.26791E+1
  -6.18764E+1   5.15194E+1
   2.15253E+1   2.80982E+1
   6.86293E+1   2.15511E+2
  -1.15146E+2   5.29380E+2
  -2.40021E+2   3.37092E+2
   7.73916E+1   1.52650E+1
   6.75726E+1  -3.09393E+1
  -2.18604E+2   1.07916E+2
  -1.37925E+2   4.01387E+1
   1.49655E+2  -9.35104E+1
   1.22917E+2   5.17690E+1
  -2.80857E+2  -1.17171E+1
  -1.16978E+2  -1.84691E+2
  -1.53331E+2   9.22293E+1
   9.59478E+1   5.79344E+1
  -2.96248E+1   1.38654E+2
  -1.72288E+1   1.78484E+1
  -8.69259E+1   1.03547E+2
   1.46968E+2   5.60555E+0
   2.03852E+2   8.83482E+1
  -1.15462E+2  -1.29510E+2
  -7.87586E+1   1.41972E+2
  -1.77746E+2   9.36109E+0
  -6.84759E+1   5.00275E+1
   1.51219E+2  -1.44699E+2
   1.06767E+2   1.50317E+2
   6.93764E+1   1.52762E+2
  -6.26766E+1   2.23321E+2
  -2.87130E+1  -1.73693E+2
