 
 $NMID
 ID=''
 FMTDAT='(2E13.5)'
 TRAMP=   1.00000E+0
 VOLUME=   1.00000E+0
 $END
   1.29939E+4   1.31640E+4
   2.93517E+4   4.63698E+3
   1.23697E+4  -3.03393E+4
  -2.74641E+4  -9.37960E+3
  -1.67612E+4   3.08978E+4
   2.37775E+4   1.49377E+4
   1.99095E+4  -2.08115E+4
  -1.35028E+4  -1.45050E+4
  -1.70769E+4   1.33230E+4
   4.18207E+3   1.78210E+4
   1.20244E+4  -9.65225E+2
  -6.44316E+1  -1.20004E+4
  -9.95310E+3  -1.16209E+3
  -4.99406E+3   9.13825E+3
   4.40811E+3   1.18089E+3
   4.68498E+3  -5.85326E+3
  -9.64185E+2  -1.01632E+3
  -3.90236E+3   3.04657E+3
  -7.60348E+2   1.86477E+3
   3.02576E+3   3.13362E+2
   1.36214E+3  -1.52820E+3
  -1.15259E+3  -1.83475E+3
  -4.62997E+2   1.40243E+3
  -3.54614E+1   1.88356E+3
   1.23893E+2  -6.11054E+2
   1.75705E+3  -8.39937E+2
   5.51073E+2   1.71690E+3
  -2.44711E+3   1.25267E+3
  -9.93247E+2  -6.68047E+2
   1.12426E+3   2.43800E+2
  -1.53655E+2   9.65908E+2
  -1.31664E+3   2.40254E+1
  -9.13737E+2  -7.21084E+2
  -7.46368E+2  -8.15696E+2
   7.54514E+2  -1.45930E+3
   2.42574E+3  -4.64320E+2
   9.85967E+2   1.70140E+3
  -1.28664E+3   1.06059E+3
  -3.10935E+2  -5.90749E+2
   9.25895E+2  -3.53451E+2
  -9.39756E+2   5.10666E+2
  -1.03757E+3  -1.16024E+3
   1.48081E+3  -1.11988E+3
   1.89569E+3   5.22792E+2
  -1.20437E+2   1.11801E+3
  -3.38910E+2   8.18380E+2
   2.76631E+2   1.06650E+3
  -8.47005E+2  -1.42604E+2
  -1.28425E+3  -1.84305E+3
   1.04131E+2  -1.46298E+3
   1.46582E+3  -1.26918E+2
   1.22890E+3  -1.81549E+2
   3.41988E+2  -3.44244E+2
   1.59381E+2  -2.74598E+1
   4.40191E+2   8.86849E+2
  -2.05966E+2   2.77456E+2
  -9.60620E+2  -1.18188E+3
  -4.62956E+1  -1.64200E+3
   1.70477E+3  -4.03047E+2
   1.06818E+3   8.16569E+2
  -3.47987E+2   1.77295E+2
  -7.03381E+1   1.06158E+2
  -9.75739E-1   1.17934E+3
  -1.31392E+3   6.68613E+2
  -1.72184E+3  -1.58202E+3
   7.50840E+1  -2.04419E+3
   1.17915E+3  -7.00795E+2
   9.93917E+2  -1.67236E+2
   6.59432E+2   2.09400E+2
   3.06249E+2   4.53078E+2
  -2.40340E+1   2.14393E+2
   2.22833E+2  -3.58798E+2
   6.86764E+2   5.11945E+1
   4.19511E+1   7.50949E+2
  -5.93846E+2   4.71920E+2
  -1.94514E+2  -1.79062E+2
  -6.02346E+1  -1.37590E+2
   4.09849E+1   6.98477E+2
  -6.44227E+2   3.93978E+2
  -5.23407E+2  -6.16156E+2
  -1.73004E+2  -7.14115E+2
   5.47666E+2  -3.07706E+2
   4.41031E+2  -4.98860E+1
   1.27935E+1  -4.37651E+1
   2.54493E+2  -3.72506E+2
   7.68758E+2  -1.45154E+2
   7.06428E+2   6.06363E+2
  -1.74253E+2   3.29295E+2
  -1.30940E+2   2.26148E+1
   3.74274E+2   1.70653E+2
   6.82084E+2   6.94810E+2
  -1.82997E+2   7.18563E+2
  -6.85665E+2   2.98935E+2
  -8.24818E+2  -2.30710E+2
  -3.78886E+1  -7.59881E+2
   6.45293E+2  -4.42737E+2
   4.49599E+2   1.46499E+2
  -1.80252E+2   9.01102E+1
   8.86379E+1  -1.15661E+2
   6.84704E+2  -1.15961E+2
   3.60061E+2   8.23077E+2
  -5.46877E+2   6.06507E+2
  -6.44755E+2  -3.01296E+2
   4.69633E+2  -5.08446E+2
   7.34160E+2  -4.52554E+1
   1.56539E+1   6.34265E+2
  -2.94021E+2   4.05171E+2
  -7.03467E+2  -5.90534E+2
   1.99278E+2  -9.39279E+2
   1.09258E+3  -1.41972E+2
   3.91498E+2   7.76123E+2
   1.87719E+1   7.98914E+2
  -3.80091E+2   4.59264E+2
  -3.31467E+1   3.48814E+2
  -3.39872E+1   2.32435E+2
  -3.56701E+2   9.20597E+1
  -6.62302E+2  -6.23290E+2
  -1.50575E+0  -8.57823E+2
   8.13567E+2  -6.11726E+2
   1.04155E+3  -8.05759E+1
   6.82186E+2   6.14327E+2
   2.97203E+2   4.79441E+2
   1.82311E+2   4.05387E+2
  -1.72017E+2   2.92589E+2
  -3.34660E+2   2.10969E+1
  -6.56088E+1  -2.12075E+2
   1.91873E+2  -2.36377E+2
   6.43776E+2   4.96204E+1
   3.34446E+2   1.48894E+2
  -1.12882E+2   4.62976E+2
  -3.62500E+2  -1.07155E+2
  -1.11272E+1  -4.67757E+2
   4.23716E+2  -3.00942E+2
   2.68106E+2  -6.34206E+1
   7.67653E+1  -1.67244E+2
   3.39455E+2  -1.82532E+2
   3.74272E+2   1.62711E+2
   3.72601E+2   5.37087E+2
  -2.01984E+2   2.33995E+2
  -4.69403E+2  -2.12034E+2
  -1.22686E+2  -6.07684E+2
   5.16572E+2  -4.57302E+2
   4.41995E+2   3.55830E+2
  -2.40869E-1   5.76553E+2
  -4.23367E+2   2.90330E+2
  -3.99733E+2  -3.27862E+2
  -9.84670E+1  -3.96772E+2
  -9.27955E+1  -1.79817E+2
  -4.38649E+1  -5.63185E+2
  -1.43034E+2  -4.34909E+2
   2.40817E+2  -2.40431E+2
   6.65028E+2   2.00192E+2
   8.02088E+1   7.96911E+2
  -4.47033E+2   2.38317E+2
  -2.50633E+2  -4.70067E+1
   2.22735E+1  -6.53339E+2
  -1.02020E+2   6.98567E+1
  -3.56138E+2   2.92502E+2
  -2.76108E+2   8.76407E+1
  -9.49230E+1  -2.68396E+2
  -8.72271E+1   7.98658E+1
  -3.60910E+2   9.75212E+1
  -1.25428E+2  -2.86663E+2
   1.89411E+2  -3.99920E+2
   3.46596E+2  -2.76823E+2
   3.32234E+2   1.42059E+2
  -6.11633E+1   1.50201E+2
  -3.66567E+2  -2.99808E+0
  -2.74892E+2  -4.19971E+2
   1.98334E+2  -1.25245E+2
   4.33565E+1  -4.21998E+1
  -1.59633E+2  -7.95576E+1
  -2.53655E+2  -1.49942E+2
   3.32246E+1   6.00577E+1
   1.84595E+2  -1.00005E+2
  -1.07532E+2   1.54598E+2
  -8.66909E+1   6.69741E+1
  -3.35109E+2  -2.85671E+2
   1.88064E+2  -2.93241E+2
   3.12786E+2   1.46499E+2
   3.02780E+1   3.06138E+2
  -3.40990E+2   8.28604E+1
  -3.00780E+2  -2.44328E+2
  -1.18701E+1  -2.49783E+2
  -9.10458E+1  -2.20701E+2
   1.75347E+2  -1.39018E+1
   2.31931E+2  -5.18150E+1
   3.05230E+2  -1.23215E+2
   4.75334E+2   1.30171E+2
  -2.76545E+2   5.55694E+2
  -5.79882E+2   3.53956E+2
  -4.77840E+2  -3.79606E+2
   1.13807E+1  -5.12289E+2
   3.13260E+2  -2.62420E+2
   2.02957E+2  -3.97394E+1
   2.14736E+2   3.12079E+1
  -1.16274E+2   9.70579E+1
   3.80427E+1  -4.24820E+1
  -2.42964E+2  -1.07739E+2
  -2.39571E+2  -1.29803E+2
  -1.22019E+2  -4.22677E+2
   2.03760E+2  -3.62516E+2
   6.14021E+2  -6.06348E+1
   1.48519E+2   9.07100E+1
   8.23428E+0   7.37404E+1
  -1.37278E+2   2.79906E+1
   5.52612E+1  -2.97644E+2
   4.79012E+1  -8.57700E+1
  -7.73386E+1  -1.74989E+2
  -2.26816E+2  -2.91095E+2
   2.28416E+1  -1.08927E+2
   1.53268E+2  -8.32504E+0
   1.65948E+2   2.27753E+2
  -6.73481E+2   2.86657E+2
  -7.15916E+2  -2.73273E+2
  -6.34839E+1  -4.34711E+2
   1.44722E+2  -3.41906E+2
   7.49096E+1  -6.49189E+1
   2.19980E+2  -4.77299E+1
  -5.00846E+1  -1.86960E+2
   4.93355E+0  -8.93423E+1
   2.66411E+2   1.30302E+2
  -2.96055E+2  -2.05977E+1
  -3.21740E+2   3.42838E+1
  -5.42480E+1  -5.45793E+2
  -2.23978E+0  -2.41207E+2
   8.21078E+1   1.64179E+2
  -5.24548E+1   2.08104E+2
  -3.26805E+2   1.48194E+1
  -1.33738E+2  -3.31822E+2
   1.24216E+2  -3.46671E+2
   2.00683E+2  -2.04730E+0
  -5.02845E+1  -3.89245E+1
  -1.51148E+2   3.84761E+1
   8.20894E+1   8.28809E+1
  -9.80663E+1  -2.85791E+2
   9.36885E+1  -1.65682E+2
  -1.88788E+2  -1.18156E+2
   1.40821E+2  -3.08121E+2
   1.07076E+2   1.73710E+2
  -1.78777E+0  -9.14349E+1
   1.87910E+1   1.53983E+2
  -9.60471E+1  -2.39950E+2
  -1.50525E+2  -3.16913E+2
  -3.35104E+1  -6.10972E+1
   1.65120E+2   1.59940E+2
  -1.44832E+2   5.02953E+1
  -9.43246E+1  -9.42958E+1
  -2.14655E+1  -1.43499E+2
   9.53898E+1   1.66833E+2
   6.30927E+1  -6.65456E+1
  -1.48242E+2   1.25420E+2
   8.38025E+1  -5.75042E+2
   3.90563E+1  -2.35640E+2
   2.43358E+2   9.83332E+1
  -1.49803E+0   5.30549E+1
  -5.38710E+1   1.38649E+2
  -1.37760E+1  -1.53748E+1
  -3.04178E+2  -1.24716E+2
  -2.89297E+2   2.04583E+1
  -2.37782E+1   2.31616E+2
  -2.30367E+1  -1.40971E+2
   4.73671E+1  -3.40900E+2
   2.20159E+2   7.08015E+1
   3.68905E+1   2.86662E+2
  -4.46671E+1  -7.30976E+1
   7.04976E+1  -2.34041E+2
  -4.26107E+1  -2.72838E+2
   1.46756E+2  -1.98405E+1
   7.79553E+1   3.99323E+1
   9.68198E+1  -4.59441E+1
   2.66020E+2   3.76175E+1
  -3.45058E+1  -1.12209E+2
  -6.59236E+1   3.42667E+1
   1.00615E+2  -7.11802E+1
  -4.63315E+1  -1.76319E+1
   1.07729E+2  -4.57476E+1
   2.00341E+2  -1.12033E+2
   1.36909E+2  -1.39935E+1
   3.50053E+1   9.38723E+1
  -3.35842E+0  -7.25262E+1
  -3.55677E+1   5.05860E+1
  -5.38704E+1   4.95500E-1
  -2.04865E+2   1.15017E+2
  -1.17777E+1  -1.61684E+2
  -9.21836E+1  -1.39305E+2
   1.33792E+2  -1.07816E+2
   1.43866E+2  -4.85330E+1
   2.48749E+1   2.17429E+2
   4.04878E+1   1.45306E+1
  -4.19245E+1  -4.35342E+1
   1.29267E+2   1.41600E+0
   5.33604E+1   1.72980E+2
   1.32930E+2   6.29407E+1
   1.66993E+2  -3.85624E+2
   1.64351E+2   1.72062E+2
   2.24014E+2   2.82019E+2
   1.20504E+2   9.78830E+1
  -6.08392E+1  -6.05814E+1
   9.36466E+1  -4.77678E+1
  -2.00714E+1  -2.04615E+2
  -6.05789E+0   2.24016E+2
   5.26789E+1   9.32029E+1
  -2.40512E+2   7.93488E+1
  -6.22139E+1  -2.35245E+2
   1.37459E+2  -1.62420E+2
   7.55726E+1   2.32085E+2
   6.59231E+1   5.86429E+1
   9.19336E+1  -3.71655E+1
  -6.79388E+0  -7.66653E+1
   1.40727E+2   2.08366E+2
  -8.86464E+0  -1.28380E+1
   8.25055E+1  -4.70303E+1
  -7.09046E+1  -1.27137E+2
   1.22666E+2  -2.21117E+2
  -1.09892E+2   3.59891E+1
   1.51617E+2  -2.58184E+1
  -3.71043E+0  -2.88859E+1
  -8.01554E+1  -1.78291E+2
   7.24271E+1  -7.42670E+1
   2.27047E+2  -1.66074E+1
  -8.03854E+1  -2.73350E+2
  -7.10936E+1  -7.40137E+1
  -1.53836E+1   3.70971E+1
  -2.79735E+1  -1.74718E+2
  -1.91911E+2   2.31470E+2
   5.69868E+1  -2.24087E+2
  -5.28495E+1  -7.01693E+1
  -2.97438E+1  -1.43963E+1
   3.42707E+0  -6.51636E+1
   8.96814E+1  -1.89616E+2
   2.09980E+1  -1.96655E+1
   1.64565E+2  -3.17637E-1
   1.03101E+2  -2.86981E+1
  -1.24318E+2   1.56648E+2
  -5.00961E+1  -2.31180E+1
   8.48246E+1  -1.59991E+2
   3.03277E+2   1.45111E+0
   1.51353E+2  -6.89845E+1
   5.50234E+1  -1.73185E+1
  -1.29480E+2   2.12166E+2
  -7.06592E+1   2.41023E+2
   8.95570E+1   1.15789E+1
  -7.05347E+1  -3.14022E+0
  -1.36852E+1   1.13088E+2
  -1.20291E+2   1.18851E+1
  -6.43695E+1   1.53791E+1
  -6.56872E+1   1.30471E+2
   1.17341E+2   1.73553E+2
  -3.40192E+0  -1.37374E+2
   2.21430E+2  -2.35463E+1
   1.41785E+2  -4.44874E+0
  -7.94868E+1  -4.01813E+0
   1.30832E+2   1.10487E+1
   1.67220E+2   1.26580E+2
   1.15218E+2   2.10027E+1
   4.40704E+1  -2.07930E+1
   1.40977E+2   5.24268E+1
  -8.50366E+1   1.06102E+2
  -1.70068E+1   4.45079E+1
  -9.88117E+1  -1.85506E+2
   2.12704E+2  -1.44211E+1
   1.67624E+2  -4.74101E+1
  -1.95128E+1   2.05451E+2
   1.02748E+2   1.45994E+2
  -2.22345E+2  -4.83798E+1
   2.23033E+2  -5.27653E+1
