 
 $NMID
 ID=''
 FMTDAT='(2E13.5)'
 TRAMP=   1.00000E+0
 VOLUME=   1.00000E+0
 $END
  -5.97466E+4   7.70324E+5
  -8.50337E+5   1.82270E+6
  -6.57376E+5   1.81791E+6
  -7.45332E+5   1.68716E+6
  -7.82298E+5   1.77403E+6
  -6.71673E+5   1.75481E+6
  -6.98252E+5   1.69232E+6
  -7.35550E+5   1.73954E+6
  -6.96084E+5   1.70938E+6
  -7.41507E+5   1.65218E+6
  -7.68521E+5   1.67168E+6
  -7.44659E+5   1.63768E+6
  -7.83024E+5   1.59146E+6
  -8.11074E+5   1.59646E+6
  -8.04447E+5   1.55702E+6
  -8.36154E+5   1.51537E+6
  -8.53474E+5   1.52095E+6
  -8.43078E+5   1.49525E+6
  -8.58307E+5   1.46557E+6
  -8.57398E+5   1.46988E+6
  -8.48908E+5   1.44527E+6
  -8.65283E+5   1.41865E+6
  -8.69471E+5   1.41402E+6
  -8.67235E+5   1.38928E+6
  -8.84958E+5   1.36067E+6
  -8.84455E+5   1.34995E+6
  -8.90939E+5   1.32332E+6
  -9.14628E+5   1.29407E+6
  -9.22836E+5   1.27074E+6
  -9.21358E+5   1.24475E+6
  -9.34212E+5   1.22567E+6
  -9.35126E+5   1.21074E+6
  -9.32534E+5   1.18581E+6
  -9.35598E+5   1.16893E+6
  -9.29430E+5   1.15660E+6
  -9.22430E+5   1.14178E+6
  -9.23285E+5   1.13101E+6
  -9.20870E+5   1.11811E+6
  -9.18113E+5   1.09581E+6
  -9.21191E+5   1.07811E+6
  -9.21869E+5   1.05930E+6
  -9.21800E+5   1.03595E+6
  -9.22331E+5   1.01616E+6
  -9.22641E+5   9.97349E+5
  -9.24033E+5   9.73999E+5
  -9.26394E+5   9.53942E+5
  -9.26547E+5   9.35556E+5
  -9.25978E+5   9.14405E+5
  -9.21346E+5   8.95124E+5
  -9.15717E+5   8.79601E+5
  -9.12415E+5   8.63937E+5
  -9.10034E+5   8.48345E+5
  -9.05088E+5   8.32569E+5
  -9.01418E+5   8.16768E+5
  -8.98307E+5   7.99614E+5
  -8.94981E+5   7.80667E+5
  -8.92091E+5   7.61015E+5
  -8.88017E+5   7.42010E+5
  -8.82918E+5   7.23559E+5
  -8.78885E+5   7.06171E+5
  -8.75273E+5   6.87868E+5
  -8.70952E+5   6.70292E+5
  -8.67224E+5   6.53140E+5
  -8.62242E+5   6.35393E+5
  -8.54983E+5   6.17916E+5
  -8.48166E+5   6.01663E+5
  -8.41567E+5   5.86174E+5
  -8.35056E+5   5.70079E+5
  -8.29136E+5   5.55130E+5
  -8.24816E+5   5.39202E+5
  -8.19164E+5   5.21601E+5
  -8.12179E+5   5.04244E+5
  -8.05349E+5   4.89201E+5
  -8.00838E+5   4.73522E+5
  -7.95196E+5   4.56575E+5
  -7.87881E+5   4.40665E+5
  -7.80787E+5   4.25881E+5
  -7.75148E+5   4.11372E+5
  -7.68797E+5   3.96275E+5
  -7.61160E+5   3.81464E+5
  -7.54171E+5   3.67503E+5
  -7.47141E+5   3.53638E+5
  -7.40553E+5   3.39422E+5
  -7.33291E+5   3.24533E+5
  -7.26719E+5   3.09757E+5
  -7.20218E+5   2.95179E+5
  -7.12872E+5   2.81349E+5
  -7.05758E+5   2.67362E+5
  -6.99087E+5   2.53162E+5
  -6.91737E+5   2.40146E+5
  -6.83690E+5   2.27966E+5
  -6.76251E+5   2.16718E+5
  -6.69590E+5   2.04828E+5
  -6.61900E+5   1.93366E+5
  -6.53657E+5   1.83157E+5
  -6.45691E+5   1.73612E+5
  -6.38636E+5   1.64423E+5
  -6.31944E+5   1.54722E+5
  -6.24190E+5   1.44987E+5
  -6.16703E+5   1.35637E+5
  -6.09643E+5   1.26572E+5
  -6.03305E+5   1.16639E+5
  -5.95054E+5   1.06711E+5
  -5.86665E+5   9.76443E+4
  -5.79126E+5   8.93128E+4
  -5.71688E+5   8.15208E+4
  -5.64553E+5   7.35571E+4
  -5.57257E+5   6.59166E+4
  -5.48983E+5   5.82490E+4
  -5.41022E+5   5.17262E+4
  -5.33413E+5   4.55138E+4
  -5.26749E+5   3.92215E+4
  -5.19323E+5   3.20649E+4
  -5.11792E+5   2.53720E+4
  -5.03972E+5   1.90326E+4
  -4.96538E+5   1.28692E+4
  -4.89169E+5   6.34627E+3
  -4.81043E+5   1.57726E+2
  -4.72576E+5  -5.07652E+3
  -4.65106E+5  -9.85873E+3
  -4.58051E+5  -1.44829E+4
  -4.50775E+5  -1.95713E+4
  -4.43332E+5  -2.41989E+4
  -4.35925E+5  -2.90047E+4
  -4.28539E+5  -3.36765E+4
  -4.20721E+5  -3.82435E+4
  -4.12661E+5  -4.24352E+4
  -4.05219E+5  -4.66640E+4
  -3.97819E+5  -5.09297E+4
  -3.90676E+5  -5.51576E+4
  -3.83324E+5  -5.99692E+4
  -3.75351E+5  -6.46881E+4
  -3.67784E+5  -6.85631E+4
  -3.60301E+5  -7.22202E+4
  -3.52816E+5  -7.59760E+4
  -3.45672E+5  -7.94357E+4
  -3.38383E+5  -8.26598E+4
  -3.31113E+5  -8.52893E+4
  -3.24366E+5  -8.87421E+4
  -3.17070E+5  -9.16032E+4
  -3.10021E+5  -9.45462E+4
  -3.03113E+5  -9.70974E+4
  -2.95883E+5  -9.94798E+4
  -2.89206E+5  -1.01861E+5
  -2.82843E+5  -1.04858E+5
  -2.75759E+5  -1.07241E+5
  -2.68727E+5  -1.09778E+5
  -2.61935E+5  -1.11711E+5
  -2.55350E+5  -1.14062E+5
  -2.48757E+5  -1.15589E+5
  -2.41998E+5  -1.17522E+5
  -2.35894E+5  -1.18969E+5
  -2.30070E+5  -1.20233E+5
  -2.24116E+5  -1.21798E+5
  -2.18094E+5  -1.23072E+5
  -2.12053E+5  -1.24336E+5
  -2.06310E+5  -1.25272E+5
  -2.00814E+5  -1.26251E+5
  -1.95257E+5  -1.27009E+5
  -1.89879E+5  -1.27840E+5
  -1.84153E+5  -1.28426E+5
  -1.78871E+5  -1.29254E+5
  -1.73928E+5  -1.29893E+5
  -1.68376E+5  -1.30207E+5
  -1.63378E+5  -1.30687E+5
  -1.58498E+5  -1.30691E+5
  -1.53818E+5  -1.30948E+5
  -1.49028E+5  -1.31354E+5
  -1.44525E+5  -1.31338E+5
  -1.39573E+5  -1.31164E+5
  -1.34887E+5  -1.31255E+5
  -1.30794E+5  -1.30941E+5
  -1.26471E+5  -1.30787E+5
  -1.22312E+5  -1.30441E+5
  -1.18038E+5  -1.30451E+5
  -1.13951E+5  -1.29930E+5
  -1.09949E+5  -1.29564E+5
  -1.05919E+5  -1.29383E+5
  -1.01678E+5  -1.29036E+5
  -9.79509E+4  -1.28170E+5
  -9.42297E+4  -1.27524E+5
  -9.06016E+4  -1.27158E+5
  -8.67567E+4  -1.26379E+5
  -8.33285E+4  -1.25726E+5
  -7.97207E+4  -1.24943E+5
  -7.64174E+4  -1.23902E+5
  -7.30396E+4  -1.23292E+5
  -6.97413E+4  -1.22163E+5
  -6.65189E+4  -1.20929E+5
  -6.35766E+4  -1.20042E+5
  -6.02933E+4  -1.19285E+5
  -5.72040E+4  -1.18344E+5
  -5.39795E+4  -1.17455E+5
  -5.07119E+4  -1.16359E+5
  -4.77423E+4  -1.15218E+5
  -4.50809E+4  -1.14162E+5
  -4.20050E+4  -1.12747E+5
  -3.92467E+4  -1.11587E+5
  -3.63563E+4  -1.10439E+5
  -3.40435E+4  -1.09218E+5
  -3.09519E+4  -1.08090E+5
  -2.82222E+4  -1.06550E+5
  -2.57048E+4  -1.05259E+5
  -2.34532E+4  -1.03786E+5
  -2.10401E+4  -1.02684E+5
  -1.85742E+4  -1.01478E+5
  -1.65396E+4  -1.00073E+5
  -1.38696E+4  -9.86018E+4
  -1.20173E+4  -9.70347E+4
  -9.47639E+3  -9.55399E+4
  -7.42275E+3  -9.41362E+4
  -5.32765E+3  -9.25321E+4
  -3.49336E+3  -9.07935E+4
  -1.66721E+3  -8.95507E+4
   3.20154E+2  -8.83738E+4
   2.59051E+3  -8.66643E+4
   4.12084E+3  -8.48530E+4
   5.64241E+3  -8.34981E+4
   7.28039E+3  -8.20197E+4
   8.69028E+3  -8.03812E+4
   1.03329E+4  -7.87115E+4
   1.16142E+4  -7.70812E+4
   1.29486E+4  -7.56556E+4
   1.44853E+4  -7.39450E+4
   1.54674E+4  -7.26352E+4
   1.66775E+4  -7.10445E+4
   1.78129E+4  -6.92971E+4
   1.84627E+4  -6.78405E+4
   1.97904E+4  -6.67968E+4
   2.05978E+4  -6.49220E+4
   2.15882E+4  -6.33657E+4
   2.24318E+4  -6.18958E+4
   2.30680E+4  -6.02872E+4
   2.36635E+4  -5.91249E+4
   2.43368E+4  -5.75203E+4
   2.49647E+4  -5.62861E+4
   2.50452E+4  -5.46736E+4
   2.57965E+4  -5.31661E+4
   2.64640E+4  -5.16301E+4
   2.66551E+4  -5.04371E+4
   2.69824E+4  -4.88517E+4
   2.72705E+4  -4.76229E+4
   2.73639E+4  -4.63980E+4
   2.77150E+4  -4.50637E+4
   2.77567E+4  -4.36981E+4
   2.81376E+4  -4.20348E+4
   2.83843E+4  -4.10498E+4
   2.84760E+4  -3.97545E+4
   2.85105E+4  -3.85167E+4
   2.88529E+4  -3.70717E+4
   2.87455E+4  -3.61219E+4
   2.88748E+4  -3.45503E+4
   2.90101E+4  -3.32543E+4
   2.90044E+4  -3.20603E+4
   2.89489E+4  -3.10087E+4
   2.89743E+4  -2.99472E+4
   2.91925E+4  -2.86263E+4
   2.90694E+4  -2.76866E+4
   2.86136E+4  -2.62113E+4
   2.86946E+4  -2.52776E+4
   2.88509E+4  -2.41698E+4
   2.88723E+4  -2.31321E+4
   2.87274E+4  -2.19456E+4
   2.86778E+4  -2.10002E+4
   2.83967E+4  -1.97688E+4
   2.82592E+4  -1.86643E+4
   2.79800E+4  -1.77450E+4
   2.80105E+4  -1.67454E+4
   2.76703E+4  -1.60875E+4
   2.76497E+4  -1.49279E+4
   2.73610E+4  -1.38997E+4
   2.69722E+4  -1.31728E+4
   2.69140E+4  -1.21879E+4
   2.68283E+4  -1.13306E+4
   2.62674E+4  -1.05224E+4
   2.61014E+4  -9.46424E+3
   2.58552E+4  -8.56652E+3
   2.58809E+4  -8.05744E+3
   2.56092E+4  -7.34696E+3
   2.51752E+4  -6.60960E+3
   2.49503E+4  -5.73016E+3
   2.48309E+4  -5.09548E+3
   2.43687E+4  -4.39243E+3
   2.40264E+4  -3.99095E+3
   2.33700E+4  -3.12959E+3
   2.30039E+4  -2.36740E+3
   2.29806E+4  -1.96090E+3
   2.23079E+4  -1.24973E+3
   2.21144E+4  -7.82252E+2
   2.17290E+4  -3.89205E+2
   2.12982E+4  -6.93807E+1
   2.11543E+4   6.94298E+2
   2.06666E+4   1.12239E+3
   2.03199E+4   1.61081E+3
   2.00406E+4   1.78215E+3
   1.92635E+4   2.37054E+3
   1.88977E+4   2.86191E+3
   1.83368E+4   3.09365E+3
   1.80739E+4   3.16505E+3
   1.77066E+4   3.54447E+3
   1.68879E+4   3.84592E+3
   1.67275E+4   4.09002E+3
   1.62256E+4   4.32329E+3
   1.55973E+4   4.75731E+3
   1.53888E+4   4.82024E+3
   1.47781E+4   5.43427E+3
   1.40999E+4   5.23803E+3
   1.40886E+4   5.37860E+3
   1.34157E+4   5.57761E+3
   1.30358E+4   5.83420E+3
   1.20848E+4   5.95861E+3
   1.18700E+4   6.09005E+3
   1.12561E+4   6.23561E+3
   1.09449E+4   6.35375E+3
   1.05948E+4   6.27874E+3
   1.00733E+4   6.37249E+3
   9.45463E+3   6.55971E+3
   9.03319E+3   6.45740E+3
   8.71584E+3   6.58636E+3
   8.27692E+3   6.60542E+3
   8.00161E+3   6.54000E+3
   7.43860E+3   6.60483E+3
   7.03407E+3   6.47495E+3
   6.55448E+3   6.51883E+3
   6.15425E+3   6.26362E+3
   5.69176E+3   6.38556E+3
   5.38155E+3   6.10472E+3
   4.77564E+3   6.18919E+3
   4.38451E+3   6.18629E+3
   4.05553E+3   5.97216E+3
   3.74155E+3   5.80268E+3
   3.18753E+3   5.92708E+3
   3.01392E+3   5.47283E+3
   2.52576E+3   5.64299E+3
   2.03873E+3   5.40032E+3
   1.66966E+3   5.36299E+3
   1.55366E+3   5.24179E+3
   1.10718E+3   4.99821E+3
   5.00059E+2   4.82373E+3
   1.72287E+2   4.71833E+3
   9.34100E+1   4.68769E+3
  -2.46786E+2   4.55258E+3
  -4.87192E+2   4.24784E+3
  -8.69095E+2   4.02106E+3
  -1.10806E+3   3.79685E+3
  -1.34970E+3   3.57557E+3
  -1.60994E+3   3.47130E+3
  -1.66074E+3   3.11473E+3
  -2.29206E+3   3.05146E+3
  -2.27108E+3   2.80565E+3
  -2.81947E+3   2.82386E+3
  -2.76530E+3   2.19114E+3
  -3.04044E+3   2.21076E+3
  -3.28370E+3   1.78897E+3
  -3.40140E+3   1.88485E+3
  -3.62800E+3   1.39238E+3
  -3.86663E+3   1.41334E+3
  -4.02881E+3   1.07049E+3
  -4.26178E+3   9.53616E+2
  -4.26481E+3   6.38303E+2
  -4.67891E+3   5.36315E+2
  -4.57013E+3   3.57894E+2
  -4.97485E+3   2.15474E+2
  -5.12759E+3  -1.11146E+2
  -5.07618E+3  -4.10183E+2
  -4.96527E+3  -4.02064E+2
  -5.18303E+3  -8.77947E+2
