 LCModel (Version 6.3-1N) Copyright: S.W. Provencher.          Ref.: Magn. Reson. Med. 30:672-679 (1993).                
 Slice_N1@16_15  28-Feb-2025 11:38:52
 27 lines in following concentration table = NCONC+1
    Conc.  %SD /Cr+PCr  Metabolite                                         
 1.97E-04  10% 1.4E-04 Mac                                                 
    4.562  56%   3.132 Cr                                                  
    7.090  36%   4.868 PCr                                                 
   10.866  14%   7.460 Ins                                                 
   16.107   8%  11.059 NAA                                                 
    7.910  19%   5.431 Tau                                                 
    0.000 999%   0.000 PCho                                                
    3.218  12%   2.210 GPC                                                 
   10.240  17%   7.031 Glu                                                 
    3.661  37%   2.514 Gln                                                 
    7.806  16%   5.359 Ala                                                 
    4.583  46%   3.147 Asc                                                 
    2.974  66%   2.042 Asp                                                 
    2.988  34%   2.051 GABA                                                
    2.351  59%   1.614 Glc                                                 
    2.441  33%   1.676 GSH                                                 
    1.381  88%   0.948 Lac                                                 
    3.288  34%   2.257 NAAG                                                
    0.000 999%   0.000 PE                                                  
    3.218  12%   2.210 GPC+PCho                                            
   19.395   7%  13.316 NAA+NAAG                                            
   13.901  16%   9.545 Glu+Gln                                             
   11.652  10%   8.000 Cr+PCr                                              
   19.395   7%  13.316 NAA+NAAG                                            
   11.652  10%   8.000 Cr+PCr                                              
   13.901  16%   9.545 Glu+Gln                                             
   6 lines in following misc. output table
  FWHM = 0.033 ppm    S/N =   3                                            
  Data shift = 0.024 ppm                                                   
  Ph:-122 deg       0.0 deg/ppm                                            
  alphaB,S = 9.8E-02,   2.2E+01                                            
   19 spline knots.   Ns = 5(1)                                            
  ( 4) 4 infls.   ( 5) 1 extrs.                                            
  480 points on ppm-axis = NY
      4.100000     4.091866     4.083733     4.075600     4.067466     4.059333     4.051199     4.043066     4.034933     4.026799
      4.018666     4.010532     4.002399     3.994265     3.986132     3.977998     3.969864     3.961731     3.953597     3.945463
      3.937330     3.929196     3.921062     3.912929     3.904795     3.896662     3.888528     3.880394     3.872261     3.864127
      3.855993     3.847860     3.839726     3.831592     3.823459     3.815325     3.807191     3.799058     3.790924     3.782790
      3.774657     3.766523     3.758389     3.750256     3.742122     3.733989     3.725855     3.717721     3.709588     3.701454
      3.693320     3.685187     3.677053     3.668919     3.660786     3.652652     3.644518     3.636385     3.628251     3.620117
      3.611984     3.603850     3.595716     3.587583     3.579449     3.571316     3.563182     3.555048     3.546915     3.538781
      3.530647     3.522514     3.514380     3.506246     3.498113     3.489979     3.481845     3.473712     3.465578     3.457444
      3.449311     3.441177     3.433043     3.424910     3.416776     3.408643     3.400509     3.392375     3.384242     3.376108
      3.367974     3.359841     3.351707     3.343573     3.335440     3.327306     3.319172     3.311039     3.302905     3.294771
      3.286638     3.278504     3.270370     3.262237     3.254103     3.245970     3.237836     3.229702     3.221569     3.213435
      3.205301     3.197168     3.189034     3.180900     3.172767     3.164633     3.156499     3.148366     3.140232     3.132098
      3.123965     3.115831     3.107697     3.099564     3.091430     3.083297     3.075163     3.067029     3.058896     3.050762
      3.042628     3.034495     3.026361     3.018227     3.010094     3.001960     2.993826     2.985693     2.977559     2.969425
      2.961292     2.953158     2.945024     2.936891     2.928757     2.920624     2.912490     2.904356     2.896223     2.888089
      2.879955     2.871822     2.863688     2.855554     2.847421     2.839287     2.831153     2.823020     2.814886     2.806752
      2.798619     2.790485     2.782351     2.774218     2.766084     2.757951     2.749817     2.741683     2.733550     2.725416
      2.717282     2.709149     2.701015     2.692881     2.684748     2.676614     2.668480     2.660347     2.652213     2.644079
      2.635946     2.627812     2.619678     2.611545     2.603411     2.595278     2.587144     2.579010     2.570877     2.562743
      2.554609     2.546476     2.538342     2.530208     2.522075     2.513941     2.505807     2.497674     2.489540     2.481406
      2.473273     2.465139     2.457006     2.448872     2.440738     2.432605     2.424471     2.416337     2.408204     2.400070
      2.391936     2.383803     2.375669     2.367535     2.359402     2.351268     2.343134     2.335001     2.326867     2.318733
      2.310600     2.302466     2.294333     2.286199     2.278065     2.269932     2.261798     2.253664     2.245531     2.237397
      2.229263     2.221130     2.212996     2.204862     2.196729     2.188595     2.180461     2.172328     2.164194     2.156060
      2.147927     2.139793     2.131660     2.123526     2.115392     2.107259     2.099125     2.090991     2.082858     2.074724
      2.066590     2.058457     2.050323     2.042189     2.034056     2.025922     2.017788     2.009655     2.001521     1.993387
      1.985254     1.977120     1.968987     1.960853     1.952719     1.944586     1.936452     1.928318     1.920185     1.912051
      1.903917     1.895784     1.887650     1.879516     1.871383     1.863249     1.855115     1.846982     1.838848     1.830714
      1.822581     1.814447     1.806314     1.798180     1.790046     1.781913     1.773779     1.765645     1.757512     1.749378
      1.741244     1.733111     1.724977     1.716843     1.708710     1.700576     1.692442     1.684309     1.676175     1.668041
      1.659908     1.651774     1.643641     1.635507     1.627373     1.619240     1.611106     1.602972     1.594839     1.586705
      1.578571     1.570438     1.562304     1.554170     1.546037     1.537903     1.529769     1.521636     1.513502     1.505368
      1.497235     1.489101     1.480968     1.472834     1.464700     1.456567     1.448433     1.440299     1.432166     1.424032
      1.415898     1.407765     1.399631     1.391497     1.383364     1.375230     1.367096     1.358963     1.350829     1.342695
      1.334562     1.326428     1.318295     1.310161     1.302027     1.293894     1.285760     1.277626     1.269493     1.261359
      1.253225     1.245092     1.236958     1.228824     1.220691     1.212557     1.204423     1.196290     1.188156     1.180022
      1.171889     1.163755     1.155622     1.147488     1.139354     1.131221     1.123087     1.114953     1.106820     1.098686
      1.090552     1.082419     1.074285     1.066151     1.058018     1.049884     1.041750     1.033617     1.025483     1.017349
      1.009216     1.001082     0.992949     0.984815     0.976681     0.968548     0.960414     0.952280     0.944147     0.936013
      0.927879     0.919746     0.911612     0.903478     0.895345     0.887211     0.879077     0.870944     0.862810     0.854676
      0.846543     0.838409     0.830276     0.822142     0.814008     0.805875     0.797741     0.789607     0.781474     0.773340
      0.765206     0.757073     0.748939     0.740805     0.732672     0.724538     0.716404     0.708271     0.700137     0.692003
      0.683870     0.675736     0.667603     0.659469     0.651335     0.643202     0.635068     0.626934     0.618801     0.610667
      0.602533     0.594400     0.586266     0.578132     0.569999     0.561865     0.553731     0.545598     0.537464     0.529330
      0.521197     0.513063     0.504930     0.496796     0.488662     0.480529     0.472395     0.464261     0.456128     0.447994
      0.439861     0.431727     0.423593     0.415460     0.407326     0.399192     0.391059     0.382925     0.374792     0.366658
      0.358524     0.350391     0.342257     0.334124     0.325990     0.317856     0.309723     0.301589     0.293455     0.285322
      0.277188     0.269055     0.260921     0.252787     0.244654     0.236520     0.228386     0.220253     0.212119     0.203986
 NY phased data points follow
  -9.33240E+01 -9.34585E+01 -1.05540E+02 -1.07603E+02 -1.01967E+02 -1.02409E+02 -1.09864E+02 -8.63527E+01 -9.07933E+01 -1.04496E+02
  -1.07510E+02 -1.06471E+02 -1.07503E+02 -1.21313E+02 -1.18403E+02 -1.26734E+02 -1.22004E+02 -1.26790E+02 -1.53989E+02 -1.61560E+02
  -1.88316E+02 -1.90152E+02 -1.41863E+02 -1.36704E+02 -1.32766E+02 -8.29313E+01 -6.28379E+01 -8.43486E+01 -8.13439E+01 -6.55696E+01
  -7.61538E+01 -6.37920E+01 -5.88074E+01 -5.50784E+01 -5.13624E+01 -6.03843E+01 -5.25292E+01 -6.43979E+01 -6.17070E+01 -8.12118E+01
  -1.02638E+02 -1.11469E+02 -1.36929E+02 -1.17244E+02 -1.16476E+02 -1.14411E+02 -8.05255E+01 -6.79722E+01 -5.06840E+01 -3.88539E+01
  -3.94719E+01 -3.50518E+01 -3.61901E+01 -3.28203E+01 -4.05991E+01 -7.18678E+01 -8.11883E+01 -6.56112E+01 -8.32203E+01 -1.06357E+02
  -8.35179E+01 -7.15995E+01 -7.52957E+01 -7.48252E+01 -5.10767E+01 -1.69178E+01 -1.48623E+01 -2.56697E+01 -4.56571E+01 -7.79152E+01
  -1.19030E+02 -1.07227E+02 -8.97030E+01 -1.12089E+02 -8.44192E+01 -4.42912E+01 -3.56001E+01 -2.76102E+01 -2.37049E+01 -3.39326E+01
  -2.98600E+01 -1.99953E+01 -2.61005E+01 -4.22404E+01 -5.77790E+01 -6.75649E+01 -7.52577E+01 -7.44262E+01 -5.64556E+01 -3.38263E+01
  -3.24218E+01 -1.75340E+01 -3.73967E+00  1.32334E+00  9.13654E+00  9.73239E+00  2.00302E+01  1.90394E+01  2.03113E+01  2.95935E+01
   3.15240E+01  2.38191E+01  2.65195E+01  5.62370E+00 -2.02848E+01 -2.22491E+01 -4.31170E+01 -3.94637E+01 -5.37805E+01 -7.44821E+01
  -1.08324E+02 -1.80080E+02 -1.81466E+02 -1.56564E+02 -1.39597E+02 -1.18235E+02 -1.13390E+02 -9.76957E+01 -9.49732E+01 -9.18834E+01
  -7.87400E+01 -8.21838E+01 -5.31256E+01 -3.98920E+01 -4.52432E+01 -3.40076E+01 -2.93753E+01 -1.14845E+01  2.35548E+00  2.81198E+01
   7.31354E+01  1.22522E+02  8.79781E+01 -2.25614E+01 -9.20991E+01 -1.03782E+02 -9.63371E+01 -1.14608E+02 -1.16478E+02 -1.11028E+02
  -1.03761E+02 -1.05174E+02 -1.04570E+02 -1.13691E+02 -1.24169E+02 -9.87888E+01 -1.14951E+02 -1.06368E+02 -1.03841E+02 -1.09732E+02
  -1.03043E+02 -1.15209E+02 -9.11414E+01 -9.11344E+01 -9.72113E+01 -1.00504E+02 -9.66396E+01 -8.72246E+01 -8.71607E+01 -8.79195E+01
  -9.41830E+01 -8.70542E+01 -8.04512E+01 -6.49667E+01 -7.05588E+01 -7.97914E+01 -8.13000E+01 -8.52168E+01 -8.69302E+01 -8.63807E+01
  -7.17438E+01 -7.01201E+01 -5.35943E+01 -3.74686E+01 -4.65675E+01 -5.78490E+01 -5.26837E+01 -3.57770E+01 -2.28992E+01 -2.91716E+01
  -5.75481E+01 -7.28844E+01 -8.42778E+01 -9.23935E+01 -8.90701E+01 -9.14674E+01 -9.99604E+01 -8.69936E+01 -8.41599E+01 -8.60167E+01
  -6.82071E+01 -8.39928E+01 -7.62383E+01 -6.58573E+01 -6.82735E+01 -4.86872E+01 -5.90143E+01 -5.04649E+01 -4.06620E+01 -3.76040E+01
  -2.54022E+01 -4.45299E+01 -4.32588E+01 -4.06195E+01 -4.06454E+01 -4.17038E+01 -5.11092E+01 -4.16825E+01 -6.87638E+01 -8.34261E+01
  -8.60925E+01 -9.99555E+01 -1.02034E+02 -1.07723E+02 -7.99849E+01 -6.70446E+01 -4.75470E+01 -2.90901E+01 -3.03101E+01 -2.26311E+01
  -4.66281E+01 -5.64603E+01 -5.89360E+01 -4.92304E+01 -5.95476E+01 -6.45044E+01 -3.96228E+01 -5.97104E+01 -4.02457E+01 -3.81615E+01
  -4.66079E+01 -3.00452E+01 -5.52796E+01 -5.76367E+01 -5.79388E+01 -7.48014E+01 -9.09024E+01 -8.51720E+01 -9.09005E+01 -9.84185E+01
  -9.93864E+01 -1.13238E+02 -7.73950E+01 -7.92382E+01 -8.09152E+01 -7.04693E+01 -7.77149E+01 -6.16495E+01 -8.22603E+01 -9.38440E+01
  -1.00671E+02 -9.56389E+01 -1.07939E+02 -1.08840E+02 -8.51066E+01 -1.31334E+02 -1.90414E+02 -2.08354E+02 -4.68143E+01  1.11299E+02
   8.11527E+01  8.15104E+01  1.01284E+02  7.66289E+01  6.59516E+01  6.92070E+01  4.42201E+01  4.41405E+01  6.44509E+01  4.67103E+01
   4.25748E+01  4.30978E+01  3.22158E+01  3.79343E+01  5.39642E+01  4.90833E+01  5.65589E+01  6.26296E+01  5.13273E+01  5.72124E+01
   5.24769E+01  5.65318E+01  6.98928E+01  6.56618E+01  5.54192E+01  6.20013E+01  5.86690E+01  5.23820E+01  6.69072E+01  5.70895E+01
   6.00971E+01  6.86519E+01  5.39712E+01  4.71234E+01  5.28914E+01  4.84657E+01  2.72154E+01  1.81147E+01  1.00246E+01  8.40991E+00
   8.11828E-01  2.25172E+00  1.38442E+01  2.79599E+00  5.39683E+00 -2.00066E+00 -9.94422E+00 -1.54450E+01 -2.05663E+01 -1.28637E+01
  -2.87339E+01 -2.27419E+01 -2.60404E+01 -5.28098E+01 -5.49147E+01 -7.44557E+01 -9.52918E+01 -1.05168E+02 -1.07106E+02 -1.18412E+02
  -1.31376E+02 -1.06192E+02 -1.18569E+02 -1.29623E+02 -1.31201E+02 -1.50415E+02 -1.27314E+02 -1.37839E+02 -1.29777E+02 -9.50475E+01
  -6.99825E+01 -4.12168E+01 -5.20761E+01 -3.88529E+01 -4.54052E+01 -5.16707E+01 -4.73766E+01 -5.44636E+01 -4.49141E+01 -6.52847E+01
  -5.66089E+01 -5.26842E+01 -5.11505E+01 -5.54912E+01 -7.66046E+01 -6.05495E+01 -6.77821E+01 -5.85948E+01 -5.39771E+01 -6.02979E+01
  -4.98658E+01 -5.88294E+01 -5.04061E+01 -4.70736E+01 -5.23616E+01 -6.73160E+01 -6.80745E+01 -5.87680E+01 -8.32515E+01 -8.57492E+01
  -8.41921E+01 -7.65201E+01 -7.55190E+01 -8.51203E+01 -7.66685E+01 -8.00141E+01 -5.13773E+01 -4.71489E+01 -5.44607E+01 -4.13095E+01
  -3.65432E+01 -2.53599E+01 -4.01779E+01 -2.63890E+01 -2.42821E+01 -2.26257E+01  3.64058E+00  6.76088E+00  6.83251E+00  6.58995E+00
   2.36445E+01  1.94864E+01  3.00363E+01  4.27755E+01  4.85661E+01  6.02181E+01  5.44443E+01  7.45256E+01  8.03648E+01  8.85156E+01
   9.73163E+01  9.49435E+01  9.45253E+01  6.99116E+01  4.69362E+01  5.18834E+01  3.91365E+01  2.89967E+01  4.85727E+01  2.63062E+01
   2.60325E+01  1.57415E+01 -6.06394E+00 -8.09865E+00 -3.87984E+01 -3.02404E+01 -3.21142E+01 -3.00190E+01 -2.77306E+01 -5.08646E+01
  -4.64823E+01 -4.88250E+01 -4.22579E+01 -4.17603E+01 -4.69416E+01 -4.15489E+01 -3.82982E+01 -3.35077E+01 -4.47915E+01 -3.62074E+01
  -3.06372E+01 -3.71329E+01 -3.23915E+01 -5.18377E+01 -4.10313E+01 -4.85276E+01 -6.04607E+01 -2.63417E+01 -4.29319E+01 -5.00828E+01
  -4.63148E+01 -4.24212E+01 -3.01978E+01 -4.19570E+01 -3.97858E+01 -4.17030E+01 -3.89008E+01 -3.75966E+01 -4.06924E+01 -3.66296E+01
  -4.01018E+01 -4.47148E+01 -4.64005E+01 -4.48760E+01 -4.02250E+01 -3.26268E+01 -3.65700E+01 -3.92498E+01 -4.17826E+01 -4.33862E+01
  -2.80606E+01 -2.93408E+01 -3.63577E+01 -3.01779E+01 -3.64846E+01 -3.90728E+01 -4.09787E+01 -4.40616E+01 -5.24942E+01 -5.05531E+01
  -3.91411E+01 -5.39552E+01 -3.38181E+01 -3.01447E+01 -4.21727E+01 -3.34670E+01 -3.96498E+01 -3.32275E+01 -4.16188E+01 -3.75990E+01
  -3.74809E+01 -4.33822E+01 -4.00989E+01 -3.62416E+01 -2.68739E+01 -3.11287E+01 -2.72573E+01 -3.80873E+01 -3.65615E+01 -3.12302E+01
 NY points of the fit to the data follow
  -1.10273E+02 -1.13284E+02 -1.18819E+02 -1.26457E+02 -1.30563E+02 -1.24222E+02 -1.08496E+02 -9.47647E+01 -9.15986E+01 -9.54480E+01
  -9.89970E+01 -1.01209E+02 -1.03718E+02 -1.06121E+02 -1.08954E+02 -1.13389E+02 -1.19003E+02 -1.23797E+02 -1.33862E+02 -1.50782E+02
  -1.69193E+02 -1.75777E+02 -1.61271E+02 -1.33960E+02 -1.06788E+02 -8.42177E+01 -6.74086E+01 -5.60815E+01 -4.88423E+01 -4.15468E+01
  -4.05702E+01 -4.33466E+01 -4.71346E+01 -5.25022E+01 -5.98196E+01 -6.78169E+01 -7.52191E+01 -8.03491E+01 -8.75181E+01 -9.98935E+01
  -1.15313E+02 -1.25805E+02 -1.24577E+02 -1.15479E+02 -1.05685E+02 -9.55206E+01 -8.04152E+01 -6.26475E+01 -5.10049E+01 -4.39088E+01
  -4.03149E+01 -3.92571E+01 -4.19440E+01 -5.00556E+01 -6.40746E+01 -7.53040E+01 -7.90940E+01 -8.03861E+01 -8.59254E+01 -9.49370E+01
  -9.66619E+01 -8.85377E+01 -7.98302E+01 -7.14233E+01 -5.70936E+01 -4.08942E+01 -3.28275E+01 -3.44319E+01 -4.74242E+01 -6.95673E+01
  -8.52671E+01 -8.66226E+01 -8.25155E+01 -7.90730E+01 -6.95699E+01 -5.18195E+01 -3.71147E+01 -2.98397E+01 -2.39018E+01 -1.96662E+01
  -1.95339E+01 -2.46486E+01 -3.42949E+01 -4.74526E+01 -6.09840E+01 -6.92461E+01 -6.92760E+01 -6.23073E+01 -5.16633E+01 -4.06527E+01
  -3.04832E+01 -2.19326E+01 -1.33370E+01 -6.07732E+00 -5.32683E-02  5.59050E+00  1.19784E+01  1.73380E+01  2.01703E+01  2.12840E+01
   2.14666E+01  2.03341E+01  1.45561E+01  3.04428E+00 -1.09877E+01 -3.07437E+01 -4.50351E+01 -4.41314E+01 -4.17445E+01 -6.88146E+01
  -1.28758E+02 -1.77471E+02 -1.81019E+02 -1.59732E+02 -1.44733E+02 -1.35750E+02 -1.17373E+02 -1.01450E+02 -8.89414E+01 -7.82665E+01
  -6.84617E+01 -5.89665E+01 -4.94582E+01 -3.95194E+01 -2.86123E+01 -1.65683E+01 -3.28021E+00  7.67918E+00  1.52680E+01  3.43951E+01
   6.74733E+01  8.75252E+01  5.85992E+01 -1.66274E+01 -8.47991E+01 -1.10415E+02 -1.15748E+02 -1.27287E+02 -1.35945E+02 -1.31366E+02
  -1.26736E+02 -1.23595E+02 -1.21288E+02 -1.19989E+02 -1.18493E+02 -1.16993E+02 -1.15269E+02 -1.13032E+02 -1.10280E+02 -1.07728E+02
  -1.05790E+02 -1.03628E+02 -1.01314E+02 -9.87906E+01 -9.59156E+01 -9.26104E+01 -8.95508E+01 -8.80386E+01 -8.79770E+01 -8.73303E+01
  -8.46321E+01 -8.11685E+01 -7.96391E+01 -8.07048E+01 -8.19456E+01 -8.12808E+01 -7.94968E+01 -7.82880E+01 -7.80340E+01 -7.63792E+01
  -6.93269E+01 -5.60757E+01 -4.18868E+01 -3.62089E+01 -4.12471E+01 -4.57646E+01 -4.00983E+01 -2.94637E+01 -2.75089E+01 -3.85708E+01
  -5.44019E+01 -6.58729E+01 -7.29340E+01 -7.96743E+01 -8.49787E+01 -8.72632E+01 -8.84010E+01 -8.91755E+01 -8.91712E+01 -8.74538E+01
  -8.44931E+01 -8.25904E+01 -8.02913E+01 -7.33944E+01 -6.20217E+01 -5.18765E+01 -4.77022E+01 -4.47488E+01 -3.75263E+01 -3.18424E+01
  -3.37823E+01 -3.80910E+01 -3.73333E+01 -3.48118E+01 -3.63709E+01 -4.18266E+01 -4.80819E+01 -5.34644E+01 -5.98409E+01 -6.70121E+01
  -7.40193E+01 -7.91099E+01 -8.21318E+01 -8.09100E+01 -7.36649E+01 -6.13337E+01 -4.48336E+01 -2.87586E+01 -1.84561E+01 -1.39917E+01
  -1.44243E+01 -1.73362E+01 -2.08545E+01 -2.05615E+01 -1.93211E+01 -2.00850E+01 -2.33427E+01 -2.96105E+01 -3.80935E+01 -4.85404E+01
  -5.98276E+01 -7.01964E+01 -8.01411E+01 -8.80460E+01 -9.36968E+01 -9.71616E+01 -9.87492E+01 -9.87161E+01 -9.77506E+01 -9.58826E+01
  -9.34759E+01 -9.12080E+01 -8.72886E+01 -8.20231E+01 -7.76860E+01 -7.43272E+01 -7.33186E+01 -7.57572E+01 -7.96585E+01 -8.53365E+01
  -9.70492E+01 -1.14805E+02 -1.26265E+02 -1.18610E+02 -1.17723E+02 -1.48437E+02 -1.84131E+02 -1.60786E+02 -6.35062E+01  3.45282E+01
   7.35695E+01  7.64148E+01  8.45210E+01  9.22722E+01  8.27340E+01  7.23633E+01  6.25868E+01  5.33145E+01  4.49929E+01  3.76561E+01
   3.19604E+01  2.81966E+01  2.64003E+01  2.65890E+01  2.80399E+01  3.02607E+01  3.24299E+01  3.40343E+01  3.44893E+01  3.37715E+01
   3.26661E+01  3.07493E+01  2.85595E+01  2.60357E+01  2.33392E+01  2.06015E+01  1.77766E+01  1.47338E+01  1.14762E+01  8.10398E+00
   4.68312E+00  1.30301E+00 -1.83702E+00 -4.39536E+00 -6.07651E+00 -6.88805E+00 -7.02542E+00 -6.67914E+00 -6.03667E+00 -5.11494E+00
  -3.95838E+00 -2.70633E+00 -1.50004E+00 -3.73531E-01  7.37978E-01  1.91467E+00  3.30304E+00  4.91318E+00  6.55804E+00  8.12109E+00
   9.72366E+00  1.15022E+01  1.34734E+01  1.55778E+01  1.76053E+01  1.78911E+01  1.90255E+01  1.95671E+01  1.45630E+01 -1.58631E+00
  -3.02566E+01 -6.22909E+01 -8.73035E+01 -1.01803E+02 -1.04486E+02 -9.86896E+01 -9.16199E+01 -8.98001E+01 -8.78142E+01 -8.56974E+01
  -8.52195E+01 -8.47680E+01 -8.34507E+01 -8.09760E+01 -7.75207E+01 -7.35171E+01 -6.95704E+01 -6.60387E+01 -6.23218E+01 -5.87262E+01
  -5.57905E+01 -5.47479E+01 -5.60815E+01 -5.85198E+01 -6.06382E+01 -6.14162E+01 -6.03551E+01 -5.83472E+01 -5.68351E+01 -5.64060E+01
  -5.61348E+01 -5.67493E+01 -5.80570E+01 -5.95489E+01 -6.05929E+01 -6.08965E+01 -6.04916E+01 -5.93413E+01 -5.74835E+01 -5.50482E+01
  -5.22265E+01 -4.91279E+01 -4.58948E+01 -4.26673E+01 -3.95440E+01 -3.65406E+01 -3.35810E+01 -3.05933E+01 -2.75813E+01 -2.45437E+01
  -2.15417E+01 -1.84496E+01 -1.51082E+01 -1.14597E+01 -7.51910E+00 -3.32645E+00  1.22022E+00  6.23120E+00  1.15378E+01  1.69587E+01
   2.25631E+01  2.83888E+01  3.39496E+01  3.87459E+01  4.23149E+01  4.40365E+01  4.33024E+01  4.00875E+01  3.51107E+01  2.93928E+01
   2.37144E+01  1.84178E+01  1.35842E+01  9.11975E+00  4.62360E+00 -3.03142E-01 -5.66131E+00 -1.11439E+01 -1.64759E+01 -2.13094E+01
  -2.53271E+01 -2.85097E+01 -3.10262E+01 -3.28985E+01 -3.41223E+01 -3.49537E+01 -3.55986E+01 -3.61901E+01 -3.66632E+01 -3.69648E+01
  -3.70496E+01 -3.70273E+01 -3.69988E+01 -3.69152E+01 -3.67269E+01 -3.65612E+01 -3.65316E+01 -3.65062E+01 -3.62725E+01 -3.59785E+01
  -3.58724E+01 -3.58732E+01 -3.57419E+01 -3.55603E+01 -3.55278E+01 -3.55671E+01 -3.54900E+01 -3.52714E+01 -3.50806E+01 -3.50195E+01
  -3.50606E+01 -3.51267E+01 -3.51837E+01 -3.52036E+01 -3.51489E+01 -3.50483E+01 -3.49355E+01 -3.48528E+01 -3.48174E+01 -3.47969E+01
  -3.47934E+01 -3.48299E+01 -3.49936E+01 -3.51758E+01 -3.52801E+01 -3.53015E+01 -3.52923E+01 -3.52921E+01 -3.53097E+01 -3.53786E+01
  -3.54612E+01 -3.54900E+01 -3.54348E+01 -3.53684E+01 -3.53373E+01 -3.53178E+01 -3.53150E+01 -3.53188E+01 -3.53020E+01 -3.53195E+01
  -3.54051E+01 -3.55360E+01 -3.56271E+01 -3.56746E+01 -3.56659E+01 -3.55795E+01 -3.53819E+01 -3.51875E+01 -3.51500E+01 -3.52726E+01
  -3.54209E+01 -3.55092E+01 -3.55218E+01 -3.55260E+01 -3.54912E+01 -3.54219E+01 -3.53225E+01 -3.52911E+01 -3.52261E+01 -3.49854E+01
 NY background values follow
    -8.358E+01   -8.329E+01   -8.300E+01   -8.271E+01   -8.242E+01   -8.213E+01   -8.183E+01   -8.154E+01   -8.124E+01   -8.094E+01
    -8.064E+01   -8.034E+01   -8.003E+01   -7.972E+01   -7.941E+01   -7.910E+01   -7.879E+01   -7.847E+01   -7.815E+01   -7.783E+01
    -7.751E+01   -7.718E+01   -7.685E+01   -7.652E+01   -7.618E+01   -7.585E+01   -7.550E+01   -7.516E+01   -7.481E+01   -7.446E+01
    -7.411E+01   -7.375E+01   -7.339E+01   -7.303E+01   -7.266E+01   -7.229E+01   -7.192E+01   -7.155E+01   -7.118E+01   -7.080E+01
    -7.042E+01   -7.004E+01   -6.966E+01   -6.928E+01   -6.890E+01   -6.851E+01   -6.813E+01   -6.775E+01   -6.737E+01   -6.698E+01
    -6.660E+01   -6.622E+01   -6.584E+01   -6.546E+01   -6.509E+01   -6.471E+01   -6.434E+01   -6.397E+01   -6.360E+01   -6.323E+01
    -6.286E+01   -6.250E+01   -6.214E+01   -6.179E+01   -6.144E+01   -6.109E+01   -6.074E+01   -6.040E+01   -6.006E+01   -5.972E+01
    -5.938E+01   -5.905E+01   -5.872E+01   -5.840E+01   -5.808E+01   -5.776E+01   -5.745E+01   -5.713E+01   -5.683E+01   -5.652E+01
    -5.622E+01   -5.592E+01   -5.563E+01   -5.534E+01   -5.505E+01   -5.477E+01   -5.449E+01   -5.421E+01   -5.394E+01   -5.367E+01
    -5.340E+01   -5.314E+01   -5.289E+01   -5.263E+01   -5.238E+01   -5.214E+01   -5.190E+01   -5.166E+01   -5.142E+01   -5.119E+01
    -5.097E+01   -5.075E+01   -5.053E+01   -5.032E+01   -5.011E+01   -4.990E+01   -4.970E+01   -4.951E+01   -4.932E+01   -4.913E+01
    -4.895E+01   -4.877E+01   -4.859E+01   -4.842E+01   -4.826E+01   -4.810E+01   -4.794E+01   -4.779E+01   -4.765E+01   -4.750E+01
    -4.737E+01   -4.723E+01   -4.711E+01   -4.698E+01   -4.687E+01   -4.675E+01   -4.664E+01   -4.654E+01   -4.644E+01   -4.634E+01
    -4.625E+01   -4.616E+01   -4.608E+01   -4.600E+01   -4.592E+01   -4.585E+01   -4.578E+01   -4.572E+01   -4.565E+01   -4.560E+01
    -4.554E+01   -4.550E+01   -4.545E+01   -4.541E+01   -4.537E+01   -4.533E+01   -4.530E+01   -4.527E+01   -4.524E+01   -4.522E+01
    -4.520E+01   -4.518E+01   -4.517E+01   -4.516E+01   -4.515E+01   -4.514E+01   -4.513E+01   -4.513E+01   -4.512E+01   -4.512E+01
    -4.512E+01   -4.511E+01   -4.511E+01   -4.511E+01   -4.510E+01   -4.510E+01   -4.509E+01   -4.508E+01   -4.507E+01   -4.506E+01
    -4.504E+01   -4.502E+01   -4.500E+01   -4.497E+01   -4.495E+01   -4.491E+01   -4.488E+01   -4.483E+01   -4.479E+01   -4.474E+01
    -4.468E+01   -4.462E+01   -4.455E+01   -4.447E+01   -4.439E+01   -4.431E+01   -4.421E+01   -4.412E+01   -4.401E+01   -4.390E+01
    -4.379E+01   -4.366E+01   -4.353E+01   -4.340E+01   -4.326E+01   -4.311E+01   -4.295E+01   -4.279E+01   -4.263E+01   -4.245E+01
    -4.227E+01   -4.208E+01   -4.189E+01   -4.168E+01   -4.147E+01   -4.126E+01   -4.104E+01   -4.081E+01   -4.057E+01   -4.032E+01
    -4.007E+01   -3.981E+01   -3.954E+01   -3.927E+01   -3.900E+01   -3.871E+01   -3.843E+01   -3.814E+01   -3.784E+01   -3.755E+01
    -3.725E+01   -3.695E+01   -3.665E+01   -3.634E+01   -3.604E+01   -3.574E+01   -3.544E+01   -3.515E+01   -3.485E+01   -3.456E+01
    -3.427E+01   -3.399E+01   -3.371E+01   -3.343E+01   -3.316E+01   -3.290E+01   -3.264E+01   -3.239E+01   -3.215E+01   -3.192E+01
    -3.170E+01   -3.149E+01   -3.128E+01   -3.109E+01   -3.091E+01   -3.074E+01   -3.059E+01   -3.045E+01   -3.032E+01   -3.021E+01
    -3.011E+01   -3.004E+01   -2.997E+01   -2.993E+01   -2.990E+01   -2.990E+01   -2.991E+01   -2.995E+01   -3.000E+01   -3.008E+01
    -3.018E+01   -3.030E+01   -3.045E+01   -3.062E+01   -3.082E+01   -3.104E+01   -3.129E+01   -3.157E+01   -3.187E+01   -3.220E+01
    -3.257E+01   -3.296E+01   -3.338E+01   -3.382E+01   -3.430E+01   -3.479E+01   -3.531E+01   -3.586E+01   -3.642E+01   -3.701E+01
    -3.761E+01   -3.824E+01   -3.888E+01   -3.953E+01   -4.021E+01   -4.089E+01   -4.159E+01   -4.230E+01   -4.302E+01   -4.375E+01
    -4.449E+01   -4.524E+01   -4.600E+01   -4.676E+01   -4.752E+01   -4.829E+01   -4.906E+01   -4.983E+01   -5.060E+01   -5.137E+01
    -5.214E+01   -5.291E+01   -5.367E+01   -5.442E+01   -5.517E+01   -5.591E+01   -5.664E+01   -5.737E+01   -5.808E+01   -5.877E+01
    -5.946E+01   -6.013E+01   -6.078E+01   -6.141E+01   -6.203E+01   -6.263E+01   -6.320E+01   -6.376E+01   -6.429E+01   -6.479E+01
    -6.527E+01   -6.572E+01   -6.615E+01   -6.654E+01   -6.691E+01   -6.724E+01   -6.754E+01   -6.780E+01   -6.803E+01   -6.823E+01
    -6.838E+01   -6.850E+01   -6.858E+01   -6.863E+01   -6.864E+01   -6.861E+01   -6.855E+01   -6.846E+01   -6.834E+01   -6.818E+01
    -6.799E+01   -6.777E+01   -6.752E+01   -6.725E+01   -6.694E+01   -6.661E+01   -6.625E+01   -6.586E+01   -6.545E+01   -6.501E+01
    -6.455E+01   -6.406E+01   -6.356E+01   -6.303E+01   -6.247E+01   -6.190E+01   -6.131E+01   -6.070E+01   -6.007E+01   -5.943E+01
    -5.876E+01   -5.808E+01   -5.739E+01   -5.668E+01   -5.596E+01   -5.523E+01   -5.449E+01   -5.375E+01   -5.299E+01   -5.223E+01
    -5.147E+01   -5.071E+01   -4.994E+01   -4.917E+01   -4.841E+01   -4.765E+01   -4.689E+01   -4.614E+01   -4.539E+01   -4.465E+01
    -4.392E+01   -4.321E+01   -4.250E+01   -4.181E+01   -4.113E+01   -4.047E+01   -3.982E+01   -3.920E+01   -3.859E+01   -3.801E+01
    -3.744E+01   -3.690E+01   -3.639E+01   -3.589E+01   -3.542E+01   -3.497E+01   -3.454E+01   -3.413E+01   -3.374E+01   -3.337E+01
    -3.302E+01   -3.269E+01   -3.238E+01   -3.209E+01   -3.182E+01   -3.156E+01   -3.133E+01   -3.111E+01   -3.091E+01   -3.072E+01
    -3.056E+01   -3.041E+01   -3.028E+01   -3.016E+01   -3.006E+01   -2.997E+01   -2.990E+01   -2.984E+01   -2.980E+01   -2.977E+01
    -2.976E+01   -2.976E+01   -2.977E+01   -2.980E+01   -2.984E+01   -2.989E+01   -2.995E+01   -3.002E+01   -3.010E+01   -3.019E+01
    -3.029E+01   -3.040E+01   -3.052E+01   -3.064E+01   -3.077E+01   -3.091E+01   -3.106E+01   -3.121E+01   -3.137E+01   -3.153E+01
    -3.170E+01   -3.187E+01   -3.204E+01   -3.222E+01   -3.240E+01   -3.259E+01   -3.277E+01   -3.296E+01   -3.314E+01   -3.333E+01
    -3.352E+01   -3.371E+01   -3.389E+01   -3.408E+01   -3.427E+01   -3.445E+01   -3.464E+01   -3.483E+01   -3.501E+01   -3.520E+01
    -3.538E+01   -3.557E+01   -3.576E+01   -3.594E+01   -3.613E+01   -3.631E+01   -3.650E+01   -3.668E+01   -3.687E+01   -3.706E+01
    -3.724E+01   -3.743E+01   -3.761E+01   -3.780E+01   -3.798E+01   -3.817E+01   -3.835E+01   -3.854E+01   -3.872E+01   -3.891E+01
 Mac      Conc. = 1.97E-04
  -9.78704E+01 -9.78225E+01 -9.78612E+01 -9.80797E+01 -9.84889E+01 -9.91357E+01 -9.99006E+01 -1.00628E+02 -1.01149E+02 -1.01411E+02
  -1.01457E+02 -1.01348E+02 -1.01328E+02 -1.01730E+02 -1.02287E+02 -1.02132E+02 -1.00590E+02 -9.80375E+01 -9.53555E+01 -9.28222E+01
  -9.02663E+01 -8.79205E+01 -8.62020E+01 -8.48716E+01 -8.34750E+01 -8.19954E+01 -8.04706E+01 -7.89060E+01 -7.74360E+01 -7.61611E+01
  -7.50672E+01 -7.40890E+01 -7.33899E+01 -7.30002E+01 -7.25850E+01 -7.16499E+01 -7.01076E+01 -6.84407E+01 -6.72089E+01 -6.65590E+01
  -6.60252E+01 -6.52077E+01 -6.41231E+01 -6.30640E+01 -6.22686E+01 -6.17917E+01 -6.16300E+01 -6.17286E+01 -6.20588E+01 -6.24823E+01
  -6.27571E+01 -6.28795E+01 -6.29334E+01 -6.28894E+01 -6.25402E+01 -6.18084E+01 -6.08065E+01 -5.97126E+01 -5.86592E+01 -5.75371E+01
  -5.64622E+01 -5.57760E+01 -5.55845E+01 -5.56250E+01 -5.56489E+01 -5.55712E+01 -5.54524E+01 -5.52977E+01 -5.48302E+01 -5.37037E+01
  -5.20836E+01 -5.04872E+01 -4.92400E+01 -4.82750E+01 -4.76104E+01 -4.73245E+01 -4.73278E+01 -4.74036E+01 -4.74585E+01 -4.74777E+01
  -4.74202E+01 -4.71749E+01 -4.66401E+01 -4.59202E+01 -4.51645E+01 -4.44055E+01 -4.36542E+01 -4.29472E+01 -4.23453E+01 -4.18149E+01
  -4.13902E+01 -4.11061E+01 -4.10626E+01 -4.13337E+01 -4.20495E+01 -4.31646E+01 -4.44861E+01 -4.58044E+01 -4.70296E+01 -4.82427E+01
  -4.97235E+01 -5.15375E+01 -5.36450E+01 -5.62830E+01 -5.96291E+01 -6.33635E+01 -6.66086E+01 -6.86581E+01 -6.93810E+01 -6.90324E+01
