 LCModel (Version 6.3-1N) Copyright: S.W. Provencher.          Ref.: Magn. Reson. Med. 30:672-679 (1993).                
 Slice_N1@17_17  28-Feb-2025 11:40:51
 27 lines in following concentration table = NCONC+1
    Conc.  %SD /Cr+PCr  Metabolite                                         
 2.25E-04   5% 1.8E-04 Mac                                                 
    4.844  27%   3.867 Cr                                                  
    5.177  24%   4.133 PCr                                                 
    6.835  14%   5.457 Ins                                                 
   11.362   8%   9.070 NAA                                                 
    7.640  13%   6.099 Tau                                                 
    0.662 177%   0.528 PCho                                                
    1.331  83%   1.063 GPC                                                 
    8.462  13%   6.755 Glu                                                 
    2.473  36%   1.974 Gln                                                 
    0.000 999%   0.000 Ala                                                 
    2.475  57%   1.976 Asc                                                 
    3.506  31%   2.799 Asp                                                 
    1.475  40%   1.177 GABA                                                
    0.895  89%   0.714 Glc                                                 
    2.516  21%   2.008 GSH                                                 
    5.257  15%   4.196 Lac                                                 
    1.580  43%   1.261 NAAG                                                
    2.956  41%   2.359 PE                                                  
    1.993  17%   1.591 GPC+PCho                                            
   12.942   7%  10.331 NAA+NAAG                                            
   10.935  13%   8.729 Glu+Gln                                             
   10.022   8%   8.000 Cr+PCr                                              
   12.942   7%  10.331 NAA+NAAG                                            
   10.022   8%   8.000 Cr+PCr                                              
   10.935  13%   8.729 Glu+Gln                                             
   6 lines in following misc. output table
  FWHM = 0.024 ppm    S/N =   3                                            
  Data shift = 0.024 ppm                                                   
  Ph:-111 deg       0.0 deg/ppm                                            
  alphaB,S = 5.2E-01,   2.8E+00                                            
   19 spline knots.   Ns = 5(1)                                            
  ( 3) 2 infls.   ( 1) 1 extrs.                                            
  480 points on ppm-axis = NY
      4.100000     4.091866     4.083733     4.075600     4.067466     4.059333     4.051199     4.043066     4.034933     4.026799
      4.018666     4.010532     4.002399     3.994265     3.986132     3.977998     3.969864     3.961731     3.953597     3.945463
      3.937330     3.929196     3.921062     3.912929     3.904795     3.896662     3.888528     3.880394     3.872261     3.864127
      3.855993     3.847860     3.839726     3.831592     3.823459     3.815325     3.807191     3.799058     3.790924     3.782790
      3.774657     3.766523     3.758389     3.750256     3.742122     3.733989     3.725855     3.717721     3.709588     3.701454
      3.693320     3.685187     3.677053     3.668919     3.660786     3.652652     3.644518     3.636385     3.628251     3.620117
      3.611984     3.603850     3.595716     3.587583     3.579449     3.571316     3.563182     3.555048     3.546915     3.538781
      3.530647     3.522514     3.514380     3.506246     3.498113     3.489979     3.481845     3.473712     3.465578     3.457444
      3.449311     3.441177     3.433043     3.424910     3.416776     3.408643     3.400509     3.392375     3.384242     3.376108
      3.367974     3.359841     3.351707     3.343573     3.335440     3.327306     3.319172     3.311039     3.302905     3.294771
      3.286638     3.278504     3.270370     3.262237     3.254103     3.245970     3.237836     3.229702     3.221569     3.213435
      3.205301     3.197168     3.189034     3.180900     3.172767     3.164633     3.156499     3.148366     3.140232     3.132098
      3.123965     3.115831     3.107697     3.099564     3.091430     3.083297     3.075163     3.067029     3.058896     3.050762
      3.042628     3.034495     3.026361     3.018227     3.010094     3.001960     2.993826     2.985693     2.977559     2.969425
      2.961292     2.953158     2.945024     2.936891     2.928757     2.920624     2.912490     2.904356     2.896223     2.888089
      2.879955     2.871822     2.863688     2.855554     2.847421     2.839287     2.831153     2.823020     2.814886     2.806752
      2.798619     2.790485     2.782351     2.774218     2.766084     2.757951     2.749817     2.741683     2.733550     2.725416
      2.717282     2.709149     2.701015     2.692881     2.684748     2.676614     2.668480     2.660347     2.652213     2.644079
      2.635946     2.627812     2.619678     2.611545     2.603411     2.595278     2.587144     2.579010     2.570877     2.562743
      2.554609     2.546476     2.538342     2.530208     2.522075     2.513941     2.505807     2.497674     2.489540     2.481406
      2.473273     2.465139     2.457006     2.448872     2.440738     2.432605     2.424471     2.416337     2.408204     2.400070
      2.391936     2.383803     2.375669     2.367535     2.359402     2.351268     2.343134     2.335001     2.326867     2.318733
      2.310600     2.302466     2.294333     2.286199     2.278065     2.269932     2.261798     2.253664     2.245531     2.237397
      2.229263     2.221130     2.212996     2.204862     2.196729     2.188595     2.180461     2.172328     2.164194     2.156060
      2.147927     2.139793     2.131660     2.123526     2.115392     2.107259     2.099125     2.090991     2.082858     2.074724
      2.066590     2.058457     2.050323     2.042189     2.034056     2.025922     2.017788     2.009655     2.001521     1.993387
      1.985254     1.977120     1.968987     1.960853     1.952719     1.944586     1.936452     1.928318     1.920185     1.912051
      1.903917     1.895784     1.887650     1.879516     1.871383     1.863249     1.855115     1.846982     1.838848     1.830714
      1.822581     1.814447     1.806314     1.798180     1.790046     1.781913     1.773779     1.765645     1.757512     1.749378
      1.741244     1.733111     1.724977     1.716843     1.708710     1.700576     1.692442     1.684309     1.676175     1.668041
      1.659908     1.651774     1.643641     1.635507     1.627373     1.619240     1.611106     1.602972     1.594839     1.586705
      1.578571     1.570438     1.562304     1.554170     1.546037     1.537903     1.529769     1.521636     1.513502     1.505368
      1.497235     1.489101     1.480968     1.472834     1.464700     1.456567     1.448433     1.440299     1.432166     1.424032
      1.415898     1.407765     1.399631     1.391497     1.383364     1.375230     1.367096     1.358963     1.350829     1.342695
      1.334562     1.326428     1.318295     1.310161     1.302027     1.293894     1.285760     1.277626     1.269493     1.261359
      1.253225     1.245092     1.236958     1.228824     1.220691     1.212557     1.204423     1.196290     1.188156     1.180022
      1.171889     1.163755     1.155622     1.147488     1.139354     1.131221     1.123087     1.114953     1.106820     1.098686
      1.090552     1.082419     1.074285     1.066151     1.058018     1.049884     1.041750     1.033617     1.025483     1.017349
      1.009216     1.001082     0.992949     0.984815     0.976681     0.968548     0.960414     0.952280     0.944147     0.936013
      0.927879     0.919746     0.911612     0.903478     0.895345     0.887211     0.879077     0.870944     0.862810     0.854676
      0.846543     0.838409     0.830276     0.822142     0.814008     0.805875     0.797741     0.789607     0.781474     0.773340
      0.765206     0.757073     0.748939     0.740805     0.732672     0.724538     0.716404     0.708271     0.700137     0.692003
      0.683870     0.675736     0.667603     0.659469     0.651335     0.643202     0.635068     0.626934     0.618801     0.610667
      0.602533     0.594400     0.586266     0.578132     0.569999     0.561865     0.553731     0.545598     0.537464     0.529330
      0.521197     0.513063     0.504930     0.496796     0.488662     0.480529     0.472395     0.464261     0.456128     0.447994
      0.439861     0.431727     0.423593     0.415460     0.407326     0.399192     0.391059     0.382925     0.374792     0.366658
      0.358524     0.350391     0.342257     0.334124     0.325990     0.317856     0.309723     0.301589     0.293455     0.285322
      0.277188     0.269055     0.260921     0.252787     0.244654     0.236520     0.228386     0.220253     0.212119     0.203986
 NY phased data points follow
  -8.31357E+01 -7.66334E+01 -6.96147E+01 -8.10618E+01 -9.53298E+01 -8.69686E+01 -9.16436E+01 -8.15886E+01 -7.33344E+01 -8.29888E+01
  -8.90327E+01 -8.98658E+01 -9.39693E+01 -1.01264E+02 -1.06479E+02 -1.16597E+02 -1.04464E+02 -9.75071E+01 -1.17939E+02 -1.34519E+02
  -1.37773E+02 -1.38075E+02 -1.09392E+02 -9.32885E+01 -8.78251E+01 -4.80709E+01 -3.63023E+01 -3.29237E+01 -3.02458E+01 -2.82277E+01
  -2.68180E+01 -3.02293E+01 -3.23091E+01 -4.04136E+01 -2.61492E+01 -2.61871E+01 -4.22722E+01 -4.21509E+01 -5.60507E+01 -7.67785E+01
  -8.66176E+01 -9.94285E+01 -7.65193E+01 -7.45854E+01 -8.13479E+01 -4.44887E+01 -3.24926E+01 -8.30448E+00  2.17426E+00 -6.78391E+00
  -7.37295E+00  4.09304E+00 -3.11762E+00 -1.67584E+01 -5.01780E+00 -2.80132E+01 -2.95431E+01 -4.10036E+01 -6.10468E+01 -6.45260E+01
  -5.37802E+01 -3.08325E+01 -3.91751E+01 -2.83264E+01 -1.81294E+01 -6.58729E+00 -9.06085E+00 -1.27807E+01 -1.00336E+01 -3.68851E+01
  -6.16824E+01 -6.27812E+01 -4.83093E+01 -4.27689E+01 -2.75684E+01 -2.14349E+01 -8.65677E+00 -4.41501E+00 -6.37540E+00  3.71915E-02
  -6.94656E+00 -9.10788E+00 -2.45150E+01 -3.02186E+01 -4.31489E+01 -4.90308E+01 -4.72521E+01 -4.02895E+01 -1.81103E+01 -3.64299E-01
   7.16873E+00 -1.55087E+00  1.79499E+01  2.02281E+01  2.63627E+01  4.12393E+01  3.65805E+01  3.57862E+01  3.45355E+01  4.33971E+01
   2.67816E+01  2.52581E+01  2.53518E+01  9.85222E+00 -8.09483E+00 -3.77804E+01 -5.05794E+01 -6.16780E+01 -6.77715E+01 -7.58221E+01
  -1.10561E+02 -1.73757E+02 -1.82463E+02 -1.38383E+02 -1.04907E+02 -9.30110E+01 -9.37932E+01 -6.58786E+01 -6.41911E+01 -5.92620E+01
  -4.32656E+01 -3.65286E+01 -2.45136E+01 -2.58386E+01 -2.72073E+00  1.80320E+00  1.43540E+01  2.52724E+01  2.75738E+01  5.37324E+01
   6.89189E+01  9.04299E+01  4.56703E+01 -2.91911E+01 -8.02350E+01 -1.01254E+02 -1.02872E+02 -1.03906E+02 -8.22557E+01 -9.65860E+01
  -9.48999E+01 -8.47161E+01 -8.14980E+01 -9.09088E+01 -9.96055E+01 -8.00478E+01 -9.07100E+01 -9.12379E+01 -1.00921E+02 -7.89903E+01
  -7.70066E+01 -8.78584E+01 -6.43315E+01 -8.52512E+01 -7.62696E+01 -7.63306E+01 -6.40589E+01 -5.33974E+01 -6.55804E+01 -5.40227E+01
  -5.47670E+01 -5.50622E+01 -6.42801E+01 -5.00815E+01 -5.36795E+01 -6.00512E+01 -5.13743E+01 -5.65855E+01 -5.34394E+01 -5.87493E+01
  -4.38329E+01 -3.10695E+01 -2.30080E+01 -8.13116E-01 -5.72145E+00 -2.60806E+01 -1.72046E+01 -1.22362E+01 -1.87505E+01 -3.39896E+01
  -5.18603E+01 -5.32843E+01 -7.14074E+01 -6.93613E+01 -7.77545E+01 -8.02959E+01 -6.87165E+01 -8.44497E+01 -6.44829E+01 -5.94293E+01
  -7.76678E+01 -6.14448E+01 -4.16177E+01 -3.98584E+01 -3.76906E+01 -4.18536E+01 -4.25492E+01 -3.25307E+01 -3.11155E+01 -2.77393E+01
  -3.00941E+01 -3.07482E+01 -2.22632E+01 -1.27360E+01 -2.47031E+01 -4.30524E+01 -4.04753E+01 -4.05366E+01 -6.19862E+01 -8.56675E+01
  -7.74306E+01 -6.37421E+01 -6.91989E+01 -7.51190E+01 -5.64519E+01 -3.69845E+01 -2.01542E+01 -3.75539E+00 -1.98733E+00  1.84137E+00
  -2.04850E+01 -4.17385E+01 -4.79421E+01 -5.03909E+01 -4.91151E+01 -3.88008E+01 -1.90286E+01 -3.30670E+01 -3.03827E+01 -2.22240E+01
  -3.08959E+01 -2.16463E+01 -2.69235E+01 -3.40102E+01 -4.48804E+01 -5.60019E+01 -5.82763E+01 -6.73572E+01 -7.01020E+01 -8.18171E+01
  -7.97285E+01 -6.41589E+01 -5.98258E+01 -4.88005E+01 -4.84762E+01 -4.84786E+01 -4.97244E+01 -5.52319E+01 -5.70849E+01 -6.15828E+01
  -6.94136E+01 -8.41851E+01 -8.53687E+01 -8.23373E+01 -7.81568E+01 -9.25583E+01 -1.28866E+02 -1.05369E+02  2.45594E+01  1.20359E+02
   1.07275E+02  1.14651E+02  1.12713E+02  9.19121E+01  7.23732E+01  4.81266E+01  5.13306E+01  5.04860E+01  5.49079E+01  3.71940E+01
   4.21356E+01  5.70292E+01  4.14277E+01  5.01937E+01  4.82116E+01  4.65420E+01  4.86204E+01  4.73967E+01  4.33062E+01  4.04552E+01
   4.17705E+01  2.99382E+01  3.78409E+01  3.94472E+01  2.59534E+01  3.39826E+01  3.62967E+01  4.32304E+01  4.44948E+01  1.48480E+01
   2.38477E+01  3.00054E+01  1.35063E+01  1.27921E+01 -2.26150E+00  4.38635E+00  1.15148E+01  1.02972E-02 -2.52004E+00  1.01978E+00
  -2.44848E+00  3.47402E+00  1.97431E+01  2.16103E+01  1.82718E+01  1.31422E+01  2.11678E+01  7.99321E+00  9.98604E-01  7.93840E+00
  -1.44545E+00 -4.12700E+00 -5.91135E+00 -6.93382E+00 -2.79530E+01 -2.40840E+01 -1.99399E+01 -2.15975E+01 -2.34776E+01 -4.06639E+01
  -2.92394E+01 -3.68069E+01 -3.20561E+01 -3.38099E+01 -3.41872E+01 -1.31468E+01 -1.22173E+01  1.44389E+01  2.83921E+01  2.58799E+01
   3.40878E+01  2.75053E+01  1.33522E+01  2.15584E+01  1.87986E+01  1.02352E+01  1.64281E+01  1.35204E+01  1.62277E+01  1.07672E+01
   1.65456E+01  1.16152E+01 -6.90718E+00 -1.44523E+01 -2.85591E+01 -2.61305E+01 -2.53544E+01 -3.59735E+01 -4.09169E+01 -4.49180E+01
  -4.92095E+01 -3.94274E+01 -3.90312E+01 -5.30606E+01 -5.11759E+01 -3.93359E+01 -4.41513E+01 -6.10097E+01 -5.42336E+01 -4.40562E+01
  -4.77812E+01 -4.97404E+01 -4.23398E+01 -3.88554E+01 -3.80255E+01 -2.72563E+01 -1.95685E+01 -2.15840E+01 -1.43295E+01 -5.93489E+00
  -5.52944E+00  8.53539E+00  8.92986E-01  7.30986E+00  2.39752E+01  2.36378E+01  3.50592E+01  2.32457E+01  2.13176E+01  3.08244E+01
   3.23158E+01  3.42316E+01  4.95979E+01  5.94718E+01  5.22515E+01  6.43713E+01  6.93415E+01  8.25943E+01  8.88043E+01  7.83816E+01
   8.16964E+01  7.38787E+01  6.04580E+01  5.05672E+01  4.08811E+01  3.51405E+01  2.39784E+01  2.48690E+01  2.20926E+01 -7.11909E+00
  -1.79465E+01 -2.76164E+01 -2.86415E+01 -3.45443E+01 -5.50382E+01 -4.60651E+01 -4.73065E+01 -4.71760E+01 -4.64315E+01 -4.61392E+01
  -3.89823E+01 -5.26520E+01 -5.71451E+01 -4.60881E+01 -4.94289E+01 -4.80770E+01 -4.43363E+01 -5.73905E+01 -5.15527E+01 -4.74383E+01
  -5.04169E+01 -4.34739E+01 -4.57882E+01 -4.31974E+01 -4.18155E+01 -6.45389E+01 -5.44644E+01 -3.29865E+01 -5.24484E+01 -4.89248E+01
  -4.41252E+01 -3.17116E+01 -3.47551E+01 -4.99470E+01 -3.92276E+01 -4.37116E+01 -3.63912E+01 -4.37950E+01 -3.24132E+01 -1.96464E+01
  -3.93485E+01 -3.90278E+01 -3.98311E+01 -4.79586E+01 -4.22318E+01 -3.60288E+01 -4.58964E+01 -3.93090E+01 -4.81649E+01 -4.49059E+01
  -3.43297E+01 -4.13010E+01 -3.96052E+01 -4.40105E+01 -3.83670E+01 -4.63354E+01 -3.26759E+01 -3.49388E+01 -4.62113E+01 -2.74473E+01
  -3.50300E+01 -4.13346E+01 -3.56201E+01 -3.07310E+01 -4.03694E+01 -3.84780E+01 -3.94426E+01 -3.96778E+01 -3.54511E+01 -3.88035E+01
  -3.67077E+01 -3.47245E+01 -1.86880E+01 -2.92432E+01 -3.81177E+01 -3.01375E+01 -2.50608E+01 -3.49836E+01 -4.33733E+01 -3.09862E+01
 NY points of the fit to the data follow
  -8.84941E+01 -8.60603E+01 -8.56884E+01 -8.72758E+01 -9.15126E+01 -9.26800E+01 -8.41015E+01 -7.25914E+01 -6.96623E+01 -7.61180E+01
  -8.32466E+01 -8.93934E+01 -9.46943E+01 -9.80400E+01 -1.00635E+02 -1.03306E+02 -1.00883E+02 -1.00069E+02 -1.04411E+02 -1.12172E+02
  -1.24364E+02 -1.20986E+02 -9.85383E+01 -8.72995E+01 -7.65104E+01 -4.37950E+01 -2.56498E+01 -2.41139E+01 -1.80224E+01 -1.41027E+01
  -1.35908E+01 -1.52513E+01 -1.74451E+01 -2.01756E+01 -2.44623E+01 -3.07309E+01 -3.51715E+01 -3.98182E+01 -4.87249E+01 -6.31861E+01
  -8.25753E+01 -9.42043E+01 -8.63928E+01 -7.10103E+01 -6.08251E+01 -4.71520E+01 -3.33322E+01 -2.24103E+01 -1.63618E+01 -1.39528E+01
  -1.34845E+01 -1.54837E+01 -1.73865E+01 -2.24600E+01 -3.18257E+01 -3.94895E+01 -4.43360E+01 -4.66172E+01 -4.54674E+01 -5.12642E+01
  -5.75565E+01 -4.78341E+01 -3.94241E+01 -3.94468E+01 -2.94084E+01 -1.70728E+01 -1.19029E+01 -1.06839E+01 -1.69225E+01 -3.23566E+01
  -5.01424E+01 -5.25280E+01 -4.25646E+01 -3.88471E+01 -3.39046E+01 -1.94430E+01 -8.44027E+00 -2.95319E+00 -7.07820E-01  1.02024E+00
  -1.02367E+00 -9.76293E+00 -2.25739E+01 -3.86840E+01 -5.37870E+01 -5.87131E+01 -5.28512E+01 -4.27221E+01 -2.64531E+01 -1.62182E+01
  -8.08563E+00 -1.25319E+00  4.24645E+00  9.44566E+00  1.38108E+01  1.77679E+01  2.23354E+01  2.62324E+01  2.87348E+01  3.10850E+01
   2.98523E+01  3.14640E+01  2.95463E+01  1.47155E+01 -4.38151E+00 -2.62631E+01 -4.58139E+01 -5.21939E+01 -5.07649E+01 -6.75668E+01
  -1.13105E+02 -1.63331E+02 -1.60628E+02 -1.29979E+02 -1.13260E+02 -9.62652E+01 -8.28284E+01 -7.19288E+01 -6.25214E+01 -5.41464E+01
  -4.60326E+01 -3.77589E+01 -2.91986E+01 -2.00957E+01 -9.47116E+00  3.83032E+00  1.82181E+01  2.66368E+01  3.27482E+01  4.62257E+01
   6.85094E+01  8.44221E+01  5.31898E+01 -3.21769E+01 -1.00937E+02 -1.12624E+02 -1.09154E+02 -1.08503E+02 -1.03663E+02 -9.96228E+01
  -9.76002E+01 -9.57759E+01 -9.58176E+01 -9.65054E+01 -9.58191E+01 -9.50639E+01 -9.39279E+01 -9.09040E+01 -8.77331E+01 -8.49599E+01
  -8.25398E+01 -8.01539E+01 -7.78296E+01 -7.54256E+01 -7.23433E+01 -6.85838E+01 -6.47782E+01 -6.29476E+01 -6.35546E+01 -6.37644E+01
  -6.14515E+01 -5.70542E+01 -5.42957E+01 -5.62523E+01 -6.04415E+01 -6.16109E+01 -5.96001E+01 -5.76890E+01 -5.73948E+01 -5.67246E+01
  -5.13799E+01 -3.96537E+01 -2.55643E+01 -2.00633E+01 -2.68310E+01 -3.20274E+01 -2.65201E+01 -1.83354E+01 -1.89940E+01 -3.04875E+01
  -4.39749E+01 -5.18246E+01 -5.69778E+01 -6.15773E+01 -6.33839E+01 -6.39826E+01 -6.36079E+01 -6.32540E+01 -6.21526E+01 -5.94032E+01
  -5.73906E+01 -5.46196E+01 -5.08270E+01 -4.75379E+01 -3.75483E+01 -2.81578E+01 -3.01866E+01 -3.01465E+01 -2.31452E+01 -2.12739E+01
  -2.35366E+01 -2.72353E+01 -2.85737E+01 -2.56707E+01 -2.90348E+01 -3.58586E+01 -4.09164E+01 -4.63804E+01 -5.12958E+01 -5.61808E+01
  -5.89980E+01 -6.07128E+01 -6.27754E+01 -5.83141E+01 -4.83203E+01 -3.63335E+01 -1.92440E+01 -4.40793E+00 -3.43180E-03  2.67647E+00
  -7.78901E-01 -9.98303E+00 -1.19795E+01 -1.28421E+01 -1.21238E+01 -1.14444E+01 -1.41851E+01 -1.94228E+01 -2.65217E+01 -3.62681E+01
  -4.57912E+01 -5.51544E+01 -6.43948E+01 -7.24926E+01 -7.89418E+01 -8.50622E+01 -8.82345E+01 -8.82995E+01 -8.75178E+01 -8.23888E+01
  -7.60181E+01 -7.20409E+01 -6.61344E+01 -6.06955E+01 -5.79823E+01 -5.46140E+01 -5.43439E+01 -5.63426E+01 -5.85602E+01 -6.34086E+01
  -7.01384E+01 -8.25330E+01 -8.50278E+01 -8.41524E+01 -8.64999E+01 -1.03148E+02 -1.35337E+02 -1.09991E+02  4.33814E+00  8.62680E+01
   8.65724E+01  8.60109E+01  7.88316E+01  7.06371E+01  6.39997E+01  5.83566E+01  5.30962E+01  4.80269E+01  4.35099E+01  3.94261E+01
   3.64056E+01  3.47393E+01  3.37519E+01  3.36788E+01  3.47589E+01  3.53019E+01  3.59731E+01  3.67154E+01  3.63116E+01  3.57116E+01
   3.43225E+01  3.26661E+01  3.09687E+01  2.92734E+01  2.73164E+01  2.52127E+01  2.31972E+01  2.10157E+01  1.85722E+01  1.58847E+01
   1.29209E+01  1.01157E+01  7.35996E+00  4.69071E+00  2.84326E+00  2.22588E+00  2.67814E+00  3.92177E+00  5.52875E+00  7.21467E+00
   9.08058E+00  1.11703E+01  1.32797E+01  1.52321E+01  1.70864E+01  1.87660E+01  2.03685E+01  2.21692E+01  2.42326E+01  2.60975E+01
   2.75792E+01  2.88937E+01  3.00101E+01  3.10398E+01  3.18843E+01  3.21639E+01  3.20272E+01  3.15075E+01  3.02264E+01  2.85342E+01
   2.68384E+01  2.45340E+01  2.15516E+01  1.83957E+01  1.50742E+01  1.10268E+01  5.90193E+00 -3.48660E-01 -6.70148E+00 -1.23001E+01
  -1.68144E+01 -2.00250E+01 -2.14047E+01 -2.05688E+01 -1.74530E+01 -1.22301E+01 -6.81932E+00 -2.41541E+00  3.47111E+00  8.31768E+00
   1.31615E+01  1.15820E+01 -4.76364E+00 -2.60497E+01 -4.28099E+01 -5.55205E+01 -5.49064E+01 -4.31636E+01 -3.80672E+01 -3.33336E+01
  -3.09771E+01 -3.03708E+01 -3.10051E+01 -3.26413E+01 -3.45282E+01 -3.57660E+01 -3.60319E+01 -3.54433E+01 -3.40701E+01 -3.19382E+01
  -2.93753E+01 -2.64203E+01 -2.32762E+01 -2.01982E+01 -1.72221E+01 -1.44286E+01 -1.17430E+01 -9.17963E+00 -6.61916E+00 -3.95669E+00
  -1.31836E+00  1.30926E+00  4.17195E+00  7.22294E+00  1.04958E+01  1.43532E+01  1.85552E+01  2.29891E+01  2.80831E+01  3.35671E+01
   3.88753E+01  4.43657E+01  5.01784E+01  5.54861E+01  5.97003E+01  6.24449E+01  6.29618E+01  6.03425E+01  5.47019E+01  4.69500E+01
   3.87339E+01  3.11819E+01  2.45679E+01  1.86639E+01  1.34202E+01  8.14892E+00  1.95047E+00 -4.85294E+00 -1.16426E+01 -1.82347E+01
  -2.42044E+01 -2.87257E+01 -3.22100E+01 -3.50786E+01 -3.71449E+01 -3.84654E+01 -3.93622E+01 -4.01624E+01 -4.09542E+01 -4.16256E+01
  -4.21612E+01 -4.24016E+01 -4.24926E+01 -4.25940E+01 -4.26213E+01 -4.24923E+01 -4.23048E+01 -4.24364E+01 -4.26512E+01 -4.24669E+01
  -4.20008E+01 -4.19465E+01 -4.20561E+01 -4.18779E+01 -4.16832E+01 -4.15822E+01 -4.16182E+01 -4.15428E+01 -4.12088E+01 -4.08182E+01
  -4.06988E+01 -4.07433E+01 -4.07315E+01 -4.07717E+01 -4.06717E+01 -4.04139E+01 -4.01508E+01 -3.99471E+01 -3.96710E+01 -3.94673E+01
  -3.93395E+01 -3.91146E+01 -3.89795E+01 -3.89988E+01 -3.91493E+01 -3.91819E+01 -3.89764E+01 -3.86926E+01 -3.85381E+01 -3.83604E+01
  -3.82257E+01 -3.83039E+01 -3.81889E+01 -3.78245E+01 -3.75730E+01 -3.73901E+01 -3.71692E+01 -3.70317E+01 -3.68939E+01 -3.66696E+01
  -3.65695E+01 -3.65199E+01 -3.65254E+01 -3.64834E+01 -3.64066E+01 -3.61997E+01 -3.59021E+01 -3.54001E+01 -3.49531E+01 -3.48379E+01
  -3.49343E+01 -3.50501E+01 -3.50383E+01 -3.48624E+01 -3.46034E+01 -3.44933E+01 -3.43147E+01 -3.39921E+01 -3.38972E+01 -3.37589E+01
 NY background values follow
    -5.838E+01   -5.814E+01   -5.791E+01   -5.767E+01   -5.743E+01   -5.720E+01   -5.696E+01   -5.673E+01   -5.649E+01   -5.626E+01
    -5.602E+01   -5.578E+01   -5.555E+01   -5.531E+01   -5.508E+01   -5.484E+01   -5.461E+01   -5.437E+01   -5.414E+01   -5.390E+01
    -5.366E+01   -5.343E+01   -5.319E+01   -5.296E+01   -5.272E+01   -5.249E+01   -5.225E+01   -5.202E+01   -5.178E+01   -5.155E+01
    -5.131E+01   -5.108E+01   -5.084E+01   -5.061E+01   -5.037E+01   -5.014E+01   -4.990E+01   -4.967E+01   -4.943E+01   -4.920E+01
    -4.897E+01   -4.874E+01   -4.850E+01   -4.827E+01   -4.804E+01   -4.781E+01   -4.758E+01   -4.735E+01   -4.712E+01   -4.689E+01
    -4.666E+01   -4.643E+01   -4.621E+01   -4.598E+01   -4.575E+01   -4.553E+01   -4.530E+01   -4.508E+01   -4.486E+01   -4.463E+01
    -4.441E+01   -4.419E+01   -4.397E+01   -4.375E+01   -4.354E+01   -4.332E+01   -4.310E+01   -4.289E+01   -4.267E+01   -4.246E+01
    -4.225E+01   -4.204E+01   -4.183E+01   -4.162E+01   -4.141E+01   -4.120E+01   -4.099E+01   -4.079E+01   -4.058E+01   -4.038E+01
    -4.018E+01   -3.998E+01   -3.978E+01   -3.958E+01   -3.938E+01   -3.918E+01   -3.899E+01   -3.880E+01   -3.860E+01   -3.841E+01
    -3.822E+01   -3.803E+01   -3.784E+01   -3.766E+01   -3.747E+01   -3.728E+01   -3.710E+01   -3.692E+01   -3.674E+01   -3.656E+01
    -3.638E+01   -3.620E+01   -3.603E+01   -3.585E+01   -3.568E+01   -3.551E+01   -3.534E+01   -3.517E+01   -3.500E+01   -3.483E+01
    -3.466E+01   -3.450E+01   -3.434E+01   -3.417E+01   -3.401E+01   -3.385E+01   -3.370E+01   -3.354E+01   -3.338E+01   -3.323E+01
    -3.308E+01   -3.292E+01   -3.277E+01   -3.262E+01   -3.248E+01   -3.233E+01   -3.218E+01   -3.204E+01   -3.190E+01   -3.176E+01
    -3.162E+01   -3.148E+01   -3.134E+01   -3.121E+01   -3.107E+01   -3.094E+01   -3.081E+01   -3.068E+01   -3.055E+01   -3.042E+01
    -3.030E+01   -3.017E+01   -3.005E+01   -2.993E+01   -2.981E+01   -2.969E+01   -2.957E+01   -2.945E+01   -2.934E+01   -2.923E+01
    -2.911E+01   -2.900E+01   -2.889E+01   -2.879E+01   -2.868E+01   -2.858E+01   -2.847E+01   -2.837E+01   -2.827E+01   -2.817E+01
    -2.808E+01   -2.798E+01   -2.788E+01   -2.779E+01   -2.770E+01   -2.761E+01   -2.752E+01   -2.743E+01   -2.734E+01   -2.726E+01
    -2.717E+01   -2.709E+01   -2.701E+01   -2.693E+01   -2.685E+01   -2.677E+01   -2.669E+01   -2.661E+01   -2.654E+01   -2.647E+01
    -2.639E+01   -2.632E+01   -2.625E+01   -2.618E+01   -2.611E+01   -2.605E+01   -2.598E+01   -2.592E+01   -2.585E+01   -2.579E+01
    -2.573E+01   -2.567E+01   -2.561E+01   -2.555E+01   -2.550E+01   -2.544E+01   -2.539E+01   -2.533E+01   -2.528E+01   -2.523E+01
    -2.518E+01   -2.513E+01   -2.508E+01   -2.503E+01   -2.498E+01   -2.494E+01   -2.489E+01   -2.485E+01   -2.481E+01   -2.476E+01
    -2.472E+01   -2.468E+01   -2.464E+01   -2.461E+01   -2.457E+01   -2.453E+01   -2.450E+01   -2.446E+01   -2.443E+01   -2.440E+01
    -2.437E+01   -2.434E+01   -2.431E+01   -2.428E+01   -2.426E+01   -2.423E+01   -2.421E+01   -2.419E+01   -2.417E+01   -2.415E+01
    -2.413E+01   -2.411E+01   -2.410E+01   -2.408E+01   -2.407E+01   -2.406E+01   -2.405E+01   -2.404E+01   -2.403E+01   -2.403E+01
    -2.402E+01   -2.402E+01   -2.402E+01   -2.402E+01   -2.402E+01   -2.402E+01   -2.402E+01   -2.403E+01   -2.404E+01   -2.405E+01
    -2.406E+01   -2.407E+01   -2.408E+01   -2.410E+01   -2.411E+01   -2.413E+01   -2.415E+01   -2.417E+01   -2.419E+01   -2.421E+01
    -2.424E+01   -2.426E+01   -2.429E+01   -2.432E+01   -2.435E+01   -2.438E+01   -2.441E+01   -2.445E+01   -2.448E+01   -2.452E+01
    -2.456E+01   -2.459E+01   -2.464E+01   -2.468E+01   -2.472E+01   -2.476E+01   -2.481E+01   -2.486E+01   -2.490E+01   -2.495E+01
    -2.500E+01   -2.505E+01   -2.510E+01   -2.515E+01   -2.520E+01   -2.525E+01   -2.531E+01   -2.536E+01   -2.541E+01   -2.547E+01
    -2.552E+01   -2.558E+01   -2.563E+01   -2.569E+01   -2.574E+01   -2.580E+01   -2.586E+01   -2.591E+01   -2.597E+01   -2.602E+01
    -2.608E+01   -2.613E+01   -2.619E+01   -2.624E+01   -2.630E+01   -2.635E+01   -2.640E+01   -2.646E+01   -2.651E+01   -2.656E+01
    -2.662E+01   -2.667E+01   -2.672E+01   -2.677E+01   -2.682E+01   -2.688E+01   -2.693E+01   -2.698E+01   -2.703E+01   -2.708E+01
    -2.713E+01   -2.717E+01   -2.722E+01   -2.727E+01   -2.732E+01   -2.736E+01   -2.741E+01   -2.746E+01   -2.750E+01   -2.755E+01
    -2.759E+01   -2.763E+01   -2.768E+01   -2.772E+01   -2.776E+01   -2.780E+01   -2.785E+01   -2.789E+01   -2.793E+01   -2.797E+01
    -2.801E+01   -2.805E+01   -2.808E+01   -2.812E+01   -2.816E+01   -2.820E+01   -2.823E+01   -2.827E+01   -2.831E+01   -2.834E+01
    -2.838E+01   -2.842E+01   -2.845E+01   -2.849E+01   -2.852E+01   -2.855E+01   -2.859E+01   -2.862E+01   -2.866E+01   -2.869E+01
    -2.872E+01   -2.875E+01   -2.879E+01   -2.882E+01   -2.885E+01   -2.889E+01   -2.892E+01   -2.895E+01   -2.898E+01   -2.901E+01
    -2.905E+01   -2.908E+01   -2.911E+01   -2.914E+01   -2.918E+01   -2.921E+01   -2.924E+01   -2.928E+01   -2.931E+01   -2.934E+01
    -2.938E+01   -2.941E+01   -2.944E+01   -2.948E+01   -2.951E+01   -2.955E+01   -2.958E+01   -2.962E+01   -2.965E+01   -2.969E+01
    -2.973E+01   -2.976E+01   -2.980E+01   -2.984E+01   -2.988E+01   -2.992E+01   -2.996E+01   -2.999E+01   -3.003E+01   -3.007E+01
    -3.012E+01   -3.016E+01   -3.020E+01   -3.024E+01   -3.028E+01   -3.032E+01   -3.036E+01   -3.041E+01   -3.045E+01   -3.049E+01
    -3.053E+01   -3.058E+01   -3.062E+01   -3.066E+01   -3.071E+01   -3.075E+01   -3.079E+01   -3.084E+01   -3.088E+01   -3.093E+01
    -3.097E+01   -3.101E+01   -3.106E+01   -3.110E+01   -3.115E+01   -3.119E+01   -3.124E+01   -3.128E+01   -3.132E+01   -3.137E+01
    -3.141E+01   -3.146E+01   -3.150E+01   -3.155E+01   -3.159E+01   -3.164E+01   -3.168E+01   -3.173E+01   -3.177E+01   -3.181E+01
    -3.186E+01   -3.190E+01   -3.195E+01   -3.199E+01   -3.204E+01   -3.208E+01   -3.213E+01   -3.217E+01   -3.222E+01   -3.226E+01
    -3.231E+01   -3.235E+01   -3.239E+01   -3.244E+01   -3.248E+01   -3.253E+01   -3.257E+01   -3.262E+01   -3.266E+01   -3.270E+01
    -3.275E+01   -3.279E+01   -3.284E+01   -3.288E+01   -3.292E+01   -3.297E+01   -3.301E+01   -3.306E+01   -3.310E+01   -3.315E+01
    -3.319E+01   -3.323E+01   -3.328E+01   -3.332E+01   -3.337E+01   -3.341E+01   -3.345E+01   -3.350E+01   -3.354E+01   -3.359E+01
 Mac      Conc. = 2.25E-04
  -7.46857E+01 -7.48102E+01 -7.48635E+01 -7.49337E+01 -7.52199E+01 -7.58804E+01 -7.68676E+01 -7.79274E+01 -7.88785E+01 -7.95750E+01
  -7.99095E+01 -7.99539E+01 -7.97143E+01 -7.95875E+01 -8.00143E+01 -8.08728E+01 -8.10073E+01 -7.91968E+01 -7.55523E+01 -7.21467E+01
  -6.94372E+01 -6.64029E+01 -6.38921E+01 -6.24897E+01 -6.14292E+01 -6.01551E+01 -5.86858E+01 -5.70443E+01 -5.53408E+01 -5.38069E+01
  -5.26365E+01 -5.15782E+01 -5.06487E+01 -5.00897E+01 -5.00153E+01 -4.99450E+01 -4.91058E+01 -4.73588E+01 -4.52598E+01 -4.38696E+01
  -4.35321E+01 -4.34351E+01 -4.28735E+01 -4.18524E+01 -4.07133E+01 -3.98801E+01 -3.96699E+01 -3.98849E+01 -4.03536E+01 -4.10884E+01
  -4.19260E+01 -4.25153E+01 -4.27038E+01 -4.28555E+01 -4.28649E+01 -4.26366E+01 -4.20341E+01 -4.08510E+01 -3.95808E+01 -3.86529E+01
  -3.75405E+01 -3.63555E+01 -3.59443E+01 -3.61441E+01 -3.65071E+01 -3.68831E+01 -3.69837E+01 -3.68810E+01 -3.68900E+01 -3.65748E+01
  -3.53098E+01 -3.31701E+01 -3.13432E+01 -3.01580E+01 -2.93882E+01 -2.90141E+01 -2.90904E+01 -2.94165E+01 -2.97250E+01 -2.99128E+01
  -2.99789E+01 -3.00513E+01 -2.99107E+01 -2.93269E+01 -2.85200E+01 -2.77627E+01 -2.69352E+01 -2.61290E+01 -2.55244E+01 -2.50310E+01
  -2.46584E+01 -2.43027E+01 -2.42584E+01 -2.43943E+01 -2.49183E+01 -2.60858E+01 -2.77013E+01 -2.94089E+01 -3.12677E+01 -3.28503E+01
  -3.42256E+01 -3.60224E+01 -3.83354E+01 -4.08712E+01 -4.40135E+01 -4.80857E+01 -5.26690E+01 -5.65858E+01 -5.86510E+01 -5.88179E+01
