 
 $NMID
 ID=''
 FMTDAT='(2E13.5)'
 TRAMP=   1.00000E+0
 VOLUME=   1.00000E+0
 $END
  -2.11255E+5   6.26217E+5
  -1.05705E+6   1.38052E+6
  -8.34913E+5   1.45707E+6
  -8.73636E+5   1.27186E+6
  -1.01869E+6   1.27308E+6
  -1.01467E+6   1.27284E+6
  -1.02939E+6   1.20907E+6
  -1.05918E+6   1.21899E+6
  -1.02102E+6   1.19180E+6
  -1.05447E+6   1.12247E+6
  -1.10284E+6   1.12278E+6
  -1.08358E+6   1.11752E+6
  -1.08463E+6   1.08497E+6
  -1.09094E+6   1.07915E+6
  -1.07625E+6   1.04851E+6
  -1.09129E+6   1.01490E+6
  -1.11518E+6   1.01978E+6
  -1.11459E+6   9.95803E+5
  -1.12860E+6   9.49655E+5
  -1.14301E+6   9.28167E+5
  -1.14983E+6   8.96605E+5
  -1.17037E+6   8.64023E+5
  -1.17773E+6   8.51009E+5
  -1.17389E+6   8.24839E+5
  -1.18270E+6   7.91682E+5
  -1.18401E+6   7.80142E+5
  -1.18061E+6   7.62606E+5
  -1.18461E+6   7.47798E+5
  -1.18195E+6   7.37336E+5
  -1.17560E+6   7.18172E+5
  -1.18294E+6   6.92370E+5
  -1.18554E+6   6.73710E+5
  -1.18765E+6   6.49560E+5
  -1.19454E+6   6.25452E+5
  -1.19348E+6   6.03147E+5
  -1.19375E+6   5.77478E+5
  -1.20349E+6   5.52377E+5
  -1.20711E+6   5.27154E+5
  -1.20236E+6   5.04532E+5
  -1.20182E+6   4.88167E+5
  -1.19876E+6   4.71471E+5
  -1.19410E+6   4.51457E+5
  -1.18920E+6   4.37661E+5
  -1.18620E+6   4.26614E+5
  -1.18213E+6   4.10482E+5
  -1.17905E+6   3.95045E+5
  -1.17578E+6   3.78246E+5
  -1.17374E+6   3.55872E+5
  -1.17015E+6   3.33924E+5
  -1.16591E+6   3.14680E+5
  -1.16252E+6   2.94871E+5
  -1.16052E+6   2.73588E+5
  -1.15723E+6   2.53135E+5
  -1.15397E+6   2.33320E+5
  -1.14915E+6   2.14508E+5
  -1.14405E+6   1.96909E+5
  -1.13813E+6   1.79120E+5
  -1.13123E+6   1.62991E+5
  -1.12400E+6   1.49447E+5
  -1.11892E+6   1.34677E+5
  -1.11323E+6   1.18654E+5
  -1.10658E+6   1.02846E+5
  -1.10030E+6   8.64085E+4
  -1.09402E+6   6.91595E+4
  -1.08551E+6   5.09727E+4
  -1.07562E+6   3.41170E+4
  -1.06654E+6   1.85331E+4
  -1.05915E+6   2.61159E+3
  -1.05190E+6  -1.31184E+4
  -1.04385E+6  -2.84269E+4
  -1.03426E+6  -4.31292E+4
  -1.02497E+6  -5.68372E+4
  -1.01665E+6  -6.97329E+4
  -1.00823E+6  -8.29838E+4
  -9.98405E+5  -9.66488E+4
  -9.87970E+5  -1.09906E+5
  -9.78166E+5  -1.23300E+5
  -9.68260E+5  -1.37186E+5
  -9.57590E+5  -1.51456E+5
  -9.46661E+5  -1.65554E+5
  -9.34450E+5  -1.79617E+5
  -9.22641E+5  -1.91951E+5
  -9.11272E+5  -2.04684E+5
  -8.99689E+5  -2.17425E+5
  -8.87642E+5  -2.28992E+5
  -8.75363E+5  -2.38614E+5
  -8.63835E+5  -2.48398E+5
  -8.52247E+5  -2.58591E+5
  -8.40377E+5  -2.67640E+5
  -8.28212E+5  -2.74985E+5
  -8.16322E+5  -2.83041E+5
  -8.04235E+5  -2.92062E+5
  -7.91491E+5  -3.01506E+5
  -7.78071E+5  -3.10858E+5
  -7.64195E+5  -3.19472E+5
  -7.51206E+5  -3.27188E+5
  -7.38688E+5  -3.35378E+5
  -7.25783E+5  -3.44411E+5
  -7.11663E+5  -3.52678E+5
  -6.98488E+5  -3.59727E+5
  -6.86329E+5  -3.66173E+5
  -6.73654E+5  -3.73754E+5
  -6.59293E+5  -3.80050E+5
  -6.45455E+5  -3.85214E+5
  -6.33571E+5  -3.90164E+5
  -6.21982E+5  -3.95124E+5
  -6.09493E+5  -4.00551E+5
  -5.95990E+5  -4.05882E+5
  -5.82585E+5  -4.10537E+5
  -5.69987E+5  -4.14720E+5
  -5.58071E+5  -4.19108E+5
  -5.45998E+5  -4.24335E+5
  -5.32954E+5  -4.29161E+5
  -5.19525E+5  -4.34184E+5
  -5.06383E+5  -4.38650E+5
  -4.94165E+5  -4.43124E+5
  -4.81507E+5  -4.47668E+5
  -4.68651E+5  -4.50853E+5
  -4.56027E+5  -4.53315E+5
  -4.44301E+5  -4.55744E+5
  -4.33353E+5  -4.59122E+5
  -4.21860E+5  -4.62186E+5
  -4.09971E+5  -4.64933E+5
  -3.98575E+5  -4.67385E+5
  -3.86205E+5  -4.70141E+5
  -3.74055E+5  -4.71929E+5
  -3.62579E+5  -4.73463E+5
  -3.51644E+5  -4.75413E+5
  -3.40330E+5  -4.76858E+5
  -3.28963E+5  -4.78615E+5
  -3.16981E+5  -4.80415E+5
  -3.05340E+5  -4.81854E+5
  -2.93656E+5  -4.82723E+5
  -2.83478E+5  -4.83307E+5
  -2.72353E+5  -4.83944E+5
  -2.60815E+5  -4.84161E+5
  -2.50078E+5  -4.83848E+5
  -2.40183E+5  -4.84249E+5
  -2.29747E+5  -4.84742E+5
  -2.18729E+5  -4.84478E+5
  -2.07726E+5  -4.83357E+5
  -1.98054E+5  -4.82167E+5
  -1.88256E+5  -4.80899E+5
  -1.78608E+5  -4.80192E+5
  -1.69205E+5  -4.79208E+5
  -1.59366E+5  -4.77467E+5
  -1.49550E+5  -4.75263E+5
  -1.40417E+5  -4.73257E+5
  -1.31268E+5  -4.71053E+5
  -1.22847E+5  -4.68602E+5
  -1.14217E+5  -4.65987E+5
  -1.05961E+5  -4.63250E+5
  -9.80052E+4  -4.60689E+5
  -9.01589E+4  -4.58231E+5
  -8.16861E+4  -4.55649E+5
  -7.33822E+4  -4.52282E+5
  -6.63106E+4  -4.49093E+5
  -5.84189E+4  -4.46005E+5
  -5.08866E+4  -4.42623E+5
  -4.37752E+4  -4.38925E+5
  -3.66265E+4  -4.35550E+5
  -2.93846E+4  -4.31990E+5
  -2.22403E+4  -4.28190E+5
  -1.55502E+4  -4.23930E+5
  -9.01217E+3  -4.19885E+5
  -3.14124E+3  -4.16135E+5
   3.06235E+3  -4.12482E+5
   9.37300E+3  -4.08887E+5
   1.54619E+4  -4.04736E+5
   2.10163E+4  -4.00521E+5
   2.66089E+4  -3.96327E+5
   3.20384E+4  -3.92350E+5
   3.74778E+4  -3.88360E+5
   4.31102E+4  -3.83690E+5
   4.79703E+4  -3.79608E+5
   5.34500E+4  -3.75841E+5
   5.87577E+4  -3.71585E+5
   6.40942E+4  -3.66969E+5
   6.89080E+4  -3.61983E+5
   7.35302E+4  -3.57787E+5
   7.81257E+4  -3.53532E+5
   8.32248E+4  -3.49474E+5
   8.81053E+4  -3.44994E+5
   9.26531E+4  -3.40434E+5
   9.68503E+4  -3.35950E+5
   1.00772E+5  -3.31413E+5
   1.04622E+5  -3.26818E+5
   1.08440E+5  -3.22506E+5
   1.11925E+5  -3.18186E+5
   1.15775E+5  -3.14327E+5
   1.19456E+5  -3.10227E+5
   1.23689E+5  -3.05591E+5
   1.27338E+5  -3.00858E+5
   1.30822E+5  -2.96064E+5
   1.33840E+5  -2.91525E+5
   1.37314E+5  -2.87334E+5
   1.40505E+5  -2.82837E+5
   1.43988E+5  -2.78336E+5
   1.46982E+5  -2.73873E+5
   1.50532E+5  -2.69218E+5
   1.53568E+5  -2.64525E+5
   1.56458E+5  -2.59279E+5
   1.58549E+5  -2.54831E+5
   1.61347E+5  -2.50437E+5
   1.63961E+5  -2.46147E+5
   1.66502E+5  -2.41375E+5
   1.68829E+5  -2.36642E+5
   1.70962E+5  -2.31751E+5
   1.73089E+5  -2.27415E+5
   1.75612E+5  -2.22896E+5
   1.77572E+5  -2.17733E+5
   1.79135E+5  -2.13270E+5
   1.80633E+5  -2.08940E+5
   1.83064E+5  -2.04845E+5
   1.84962E+5  -1.99887E+5
   1.86412E+5  -1.95015E+5
   1.87645E+5  -1.90298E+5
   1.88587E+5  -1.86374E+5
   1.89860E+5  -1.81737E+5
   1.91184E+5  -1.77522E+5
   1.91951E+5  -1.73131E+5
   1.92796E+5  -1.69046E+5
   1.93639E+5  -1.65191E+5
   1.94591E+5  -1.60772E+5
   1.95466E+5  -1.56244E+5
   1.95641E+5  -1.51892E+5
   1.96163E+5  -1.48103E+5
   1.95992E+5  -1.44462E+5
   1.96894E+5  -1.40195E+5
   1.97250E+5  -1.36241E+5
   1.97202E+5  -1.32243E+5
   1.97043E+5  -1.28151E+5
   1.97183E+5  -1.24636E+5
   1.97191E+5  -1.21065E+5
   1.97038E+5  -1.17131E+5
   1.96795E+5  -1.13930E+5
   1.96581E+5  -1.10482E+5
   1.96487E+5  -1.06811E+5
   1.95934E+5  -1.03359E+5
   1.95541E+5  -1.00088E+5
   1.95043E+5  -9.72738E+4
   1.94916E+5  -9.36869E+4
   1.94697E+5  -9.05377E+4
   1.94016E+5  -8.70755E+4
   1.93491E+5  -8.41066E+4
   1.92680E+5  -8.09131E+4
   1.92343E+5  -7.80548E+4
   1.91483E+5  -7.47238E+4
   1.90727E+5  -7.18020E+4
   1.90031E+5  -6.91041E+4
   1.89280E+5  -6.61845E+4
   1.88862E+5  -6.31641E+4
   1.88005E+5  -6.03014E+4
   1.87006E+5  -5.76582E+4
   1.85913E+5  -5.48408E+4
   1.84890E+5  -5.23690E+4
   1.84501E+5  -4.99812E+4
   1.83732E+5  -4.68788E+4
   1.82664E+5  -4.41667E+4
   1.81868E+5  -4.15631E+4
   1.81027E+5  -3.88557E+4
   1.79883E+5  -3.58757E+4
   1.78476E+5  -3.31567E+4
   1.77203E+5  -3.08249E+4
   1.75909E+5  -2.86543E+4
   1.75199E+5  -2.61692E+4
   1.74269E+5  -2.34236E+4
   1.72913E+5  -2.09020E+4
   1.71570E+5  -1.85117E+4
   1.70296E+5  -1.61948E+4
   1.68920E+5  -1.39195E+4
   1.67705E+5  -1.15443E+4
   1.66226E+5  -9.58249E+3
   1.64655E+5  -6.90167E+3
   1.63457E+5  -5.17540E+3
   1.62261E+5  -2.77880E+3
   1.60691E+5  -3.31506E+2
   1.59108E+5   1.89942E+3
   1.57522E+5   3.80401E+3
   1.56187E+5   6.02473E+3
   1.54614E+5   8.20679E+3
   1.52849E+5   1.00867E+4
   1.51336E+5   1.19140E+4
   1.49770E+5   1.39599E+4
   1.48245E+5   1.59494E+4
   1.46585E+5   1.77719E+4
   1.44723E+5   1.95984E+4
   1.43193E+5   2.09640E+4
   1.41586E+5   2.25975E+4
   1.40208E+5   2.46688E+4
   1.38242E+5   2.64343E+4
   1.36520E+5   2.82652E+4
   1.34792E+5   2.97234E+4
   1.32825E+5   3.14164E+4
   1.31529E+5   3.28018E+4
   1.29532E+5   3.46322E+4
   1.27933E+5   3.60791E+4
   1.26326E+5   3.72306E+4
   1.24575E+5   3.86505E+4
   1.22760E+5   4.04197E+4
   1.21030E+5   4.16074E+4
   1.19365E+5   4.26339E+4
   1.17701E+5   4.41377E+4
   1.16053E+5   4.54831E+4
   1.14286E+5   4.68732E+4
   1.12475E+5   4.78073E+4
   1.10846E+5   4.87868E+4
   1.08985E+5   5.00860E+4
   1.07311E+5   5.11107E+4
   1.05719E+5   5.22538E+4
   1.04190E+5   5.33756E+4
   1.02350E+5   5.44319E+4
   1.00722E+5   5.52764E+4
   9.89734E+4   5.63350E+4
   9.71363E+4   5.72462E+4
   9.53457E+4   5.79179E+4
   9.39554E+4   5.88455E+4
   9.23535E+4   5.97075E+4
   9.05237E+4   6.03576E+4
   8.87961E+4   6.11102E+4
   8.71497E+4   6.17563E+4
   8.54054E+4   6.25419E+4
   8.37791E+4   6.32480E+4
   8.20726E+4   6.37222E+4
   8.04629E+4   6.43563E+4
   7.88759E+4   6.47964E+4
   7.75153E+4   6.52991E+4
   7.56914E+4   6.59344E+4
   7.36699E+4   6.64333E+4
   7.23028E+4   6.67746E+4
   7.06544E+4   6.69660E+4
   6.90220E+4   6.74174E+4
   6.72863E+4   6.75641E+4
   6.57901E+4   6.80585E+4
   6.44676E+4   6.81456E+4
   6.26315E+4   6.87678E+4
   6.14507E+4   6.88430E+4
   5.92563E+4   6.90958E+4
   5.77088E+4   6.92883E+4
   5.61143E+4   6.88785E+4
   5.51190E+4   6.96175E+4
   5.33788E+4   6.97879E+4
   5.17611E+4   6.99734E+4
   5.02296E+4   6.96235E+4
   4.85539E+4   6.98040E+4
   4.70913E+4   6.97861E+4
   4.56268E+4   6.97022E+4
   4.40668E+4   6.94618E+4
   4.26970E+4   6.93533E+4
   4.15568E+4   6.93078E+4
   3.97492E+4   6.92321E+4
   3.86684E+4   6.93004E+4
   3.68242E+4   6.91050E+4
   3.57706E+4   6.88129E+4
   3.41748E+4   6.85833E+4
   3.28682E+4   6.83719E+4
   3.15057E+4   6.78494E+4
   3.03929E+4   6.77976E+4
   2.89916E+4   6.76450E+4
   2.77157E+4   6.73471E+4
   2.65863E+4   6.73369E+4
   2.50487E+4   6.67907E+4
   2.39339E+4   6.62031E+4
   2.28783E+4   6.60678E+4
   2.16110E+4   6.55754E+4
   2.03023E+4   6.52171E+4
   1.92862E+4   6.45539E+4
