 
 $NMID
 ID=''
 FMTDAT='(2E13.5)'
 TRAMP=   1.00000E+0
 VOLUME=   1.00000E+0
 $END
  -1.42464E+4   2.02222E+4
   8.18073E+3   4.16716E+4
   4.73396E+4   3.53081E+3
   5.07683E+3  -4.31941E+4
  -4.54928E+4  -1.63019E+4
  -1.83331E+4   3.46673E+4
   2.91553E+4   2.68402E+4
   2.45673E+4  -1.53290E+4
  -9.74097E+3  -2.66086E+4
  -2.55054E+4   5.58677E+2
  -7.91052E+3   2.13163E+4
   1.67648E+4   7.49206E+3
   1.11439E+4  -1.33505E+4
  -9.94689E+3  -1.13938E+4
  -1.05689E+4   1.79384E+3
   3.47968E+3   7.03433E+3
   8.11190E+3   3.53088E+3
   2.53354E+3  -3.94572E+3
  -3.79714E+3  -5.81141E+3
  -4.33215E+3   1.37979E+3
  -8.31642E+1   4.82245E+3
   3.63398E+3   1.68364E+3
   3.14048E+3  -7.12328E+2
  -1.14870E+3  -3.01557E+3
  -3.59125E+3  -2.49803E+3
  -7.96685E+2   2.62025E+3
   1.76427E+3   4.95554E+3
   8.03597E+2  -6.45628E+2
  -5.44997E+2  -4.97249E+3
  -4.53087E+2  -1.35038E+3
  -1.40316E+3   3.31796E+3
  -3.00016E+2   2.91539E+3
   8.94659E+2  -1.15193E+3
  -8.77158E+1  -3.87784E+3
  -6.20428E+2  -2.35811E+3
   9.01738E+2   1.76118E+3
   9.66374E+2   3.15749E+3
   9.28922E+0   2.02782E+2
   2.45753E+2  -1.89698E+3
  -4.93280E+2  -3.37857E+2
  -1.60592E+3   1.08289E+3
   1.53121E+2  -1.15077E+2
   1.73961E+3  -8.52126E+2
   1.30122E+3  -1.53071E+2
   2.43629E+1   2.25730E+2
   8.15291E+2   8.84905E+2
   1.73662E+2   2.03566E+3
  -1.99376E+3   6.01392E+2
  -1.58607E+3  -1.64142E+3
   1.01201E+3  -1.66933E+3
   7.63144E+2  -1.63628E+2
  -3.99362E+2  -3.64440E+2
   2.40053E+2  -4.32462E+2
   1.36300E+3   2.46778E+1
   9.28012E+2   9.47440E+2
  -5.79022E+2   1.91122E+2
  -8.40833E+2  -5.20607E+2
  -2.82369E+2  -8.56246E+2
   1.07283E+3  -2.24496E+2
   8.60161E+2   5.39166E+1
   2.59184E+2  -9.59724E+1
   8.35478E+2   5.19374E+2
   3.03339E+2   1.46582E+3
  -1.26101E+3   1.42765E+3
  -1.88813E+3  -1.22597E+2
  -4.82213E+2  -1.12682E+3
   1.54147E+2  -1.03099E+3
   3.28453E+2  -1.11551E+3
   7.05387E+2  -3.35164E+2
   6.66295E+2   7.74063E+2
  -3.34887E+2   3.75721E+2
  -3.89034E+2  -1.14379E+3
   8.12406E+2  -7.38436E+2
   1.09372E+3   9.66455E+2
  -7.70624E+1   1.36793E+3
  -6.00705E+2  -2.08674E+2
   1.24308E+2  -5.57154E+2
   2.08829E+2   4.01539E+2
  -6.78783E+2   7.67868E+2
  -8.67330E+2   4.27321E+2
  -3.61293E+2  -3.18538E+2
  -3.77691E+1  -4.94703E+2
  -1.91560E+2  -1.42591E+2
  -4.06229E+2   6.93012E+1
  -1.50137E+2  -3.98420E+2
   3.45175E+2  -3.57596E+2
   7.44716E+2  -3.99423E+2
   2.59294E+2   1.95149E+2
  -4.82298E+2   4.34292E+2
  -1.37451E+2   2.34999E+2
   7.42373E+2  -2.02164E+2
   6.50998E+2   6.17829E+1
  -5.80290E+1   1.02554E+3
  -8.49827E+2   8.49383E+2
  -1.00439E+3   5.57320E+1
  -4.93059E+1  -7.43679E+2
   5.27717E+2  -3.39071E+2
   2.73175E+2   3.18268E+2
  -4.18455E+2   2.66757E+2
   1.77466E+2  -3.41487E+2
   1.11731E+3  -4.79961E+1
   6.49721E+2   4.66364E+2
  -4.50466E+2   7.70258E+2
  -9.13489E+2   9.27083E+1
  -1.43505E+1  -3.15246E+2
   5.97352E+2  -1.95917E+2
   4.33645E+2   1.21018E+2
  -4.75938E+2   5.13210E+2
  -7.55126E+2   4.53485E+2
  -2.28600E+2  -5.48906E+2
   2.65536E+2  -6.50144E+2
   4.75282E+2  -1.37488E+2
   3.52031E+2   5.39270E+2
   1.26182E+2   2.09722E+2
   2.94859E+2  -9.94909E+1
   5.30370E+2   5.01872E+2
   1.50999E+2   6.41634E+2
  -5.30372E+2   6.00508E+2
  -6.86138E+2  -2.74232E+2
  -6.34204E+1  -7.55416E+2
   2.52067E+2  -4.35671E+2
  -2.39732E+1  -1.22760E+2
   2.99049E+2  -2.29933E+2
   2.61561E+2   1.23531E+2
   3.79886E+2   8.42684E+1
   8.59128E+0   4.41098E+2
  -2.52862E+2  -9.55025E+1
  -2.01025E+2  -1.36957E+2
   2.86734E+2  -1.60272E+2
   4.43047E+2   5.90800E+0
   1.27838E+2   4.72505E+2
  -1.58230E+2   4.87084E+2
  -2.71451E+2   9.99124E+1
  -2.01214E+2  -2.93937E+2
   1.47757E+2  -3.00627E+2
  -1.52652E+2   5.17401E+1
  -3.34068E+2  -2.80090E+2
  -1.54293E+1  -3.86917E+2
   4.47120E+2  -2.60912E+2
   3.82920E+2   2.44438E+2
  -1.90548E+2   5.78148E+2
  -4.14502E+2  -6.62623E+1
   2.43214E+1  -5.86392E+2
   6.27934E+2  -2.65405E+2
   2.74707E+2   1.90846E+2
   3.36490E+1   3.32475E+1
  -1.07392E+2   2.07013E+2
  -1.23926E+2   1.86001E+2
  -1.58620E+2   2.87868E+2
  -1.65735E+2   1.32116E+2
  -4.57985E+2  -2.14731E+1
  -2.49297E+2  -1.83855E+2
  -2.96652E+1  -2.88078E+2
   1.68116E+2  -4.01036E+2
   9.75916E+1   1.53615E+2
  -1.88789E+2   2.08467E+2
  -7.84824E+1  -4.24392E+1
   5.46672E+1  -1.52690E+2
   1.27621E+2  -1.78459E+2
   1.17528E+2  -8.14834E+0
  -9.43226E+1   9.35973E+1
  -2.29363E+2   5.49082E+1
   9.52685E+1  -7.09436E+1
  -1.03046E+2   1.21256E+2
  -3.73657E+2   3.26557E+2
  -3.00634E+2  -1.25790E+2
   3.31491E+1  -1.74247E+2
   3.11809E+2  -2.24702E+2
   5.52591E+1   2.04329E+2
  -2.66633E+1   5.40284E+1
  -2.29304E+2   5.54758E+1
  -1.21918E+2  -9.41145E+1
   8.59533E+1   1.07594E+2
   2.58158E+1   2.68188E+0
  -1.66568E+1   2.33443E+1
   9.99205E+1   2.17888E+2
   2.09246E+2   5.52641E+1
  -3.12145E+1   1.39345E+2
  -1.34118E+2   1.95557E+2
  -7.96242E+1   2.00246E+2
  -1.59382E+2  -1.01285E+2
  -7.85849E+1  -1.29644E+2
   2.36643E+1  -2.87526E+2
  -9.29176E+1   1.01847E+1
  -3.61807E+1   8.16905E+1
   5.18019E+1   4.00333E+1
   6.93344E+1   1.88807E+2
  -6.62110E+1   1.57542E+2
   4.57456E+1   1.67521E+2
  -1.59127E+2  -5.61150E+1
   9.95793E+1  -2.65855E+2
   2.55091E+2   1.12401E+2
   1.45191E+1   1.35045E+2
  -9.65231E+1  -6.77651E+1
  -9.07376E+1  -1.69705E+2
  -1.14472E+2  -8.31418E+1
  -5.43558E+1  -8.44417E+1
  -6.11195E+1   2.99417E+2
  -1.68869E+2  -2.40693E+2
   6.35864E+1  -1.26172E+2
  -3.38785E+0   9.56359E+1
  -1.06688E+2   1.30087E+2
  -4.25165E+1   1.99055E+2
  -1.53811E+2  -8.11452E+0
  -1.90996E+2   1.94657E+1
   1.34939E+2  -2.09392E+2
   1.97403E+2  -4.99572E+1
   3.95789E+1   1.95253E+2
  -7.94057E+1  -1.06743E+2
  -7.24817E+1   2.24201E+1
  -2.29699E+2  -3.81538E+1
   4.31699E+1   1.39796E+1
  -2.02273E+2   1.57631E+2
  -2.94465E+2  -3.59025E+1
  -2.13241E+1   8.22069E+0
  -1.06639E+2   2.19232E+1
  -1.42402E+2  -5.76935E+1
  -3.83162E+1   1.59309E+0
   1.32956E+1  -6.11999E+1
  -2.80672E+2  -1.42754E+2
  -5.94945E+1   2.25007E+2
  -1.52109E+2  -3.30471E+1
  -6.58258E+1   1.39623E+2
  -1.63467E+2   5.30981E+1
  -3.59016E+1  -2.28901E+1
   2.65875E+2  -1.15823E+2
  -9.39452E+0   2.11610E+2
  -3.63311E+2   8.87695E+1
  -2.84554E+2   2.07598E+2
   1.76260E+2  -5.35481E+1
  -1.88015E+1   7.48084E+1
  -1.48521E+2   1.45390E+2
  -1.13432E+2  -1.69563E+2
  -1.54473E+2  -7.91054E+1
  -4.96453E+1   1.36938E+2
  -1.74890E+2   3.82117E+2
  -1.24554E+2  -1.43130E+2
  -8.14988E+1   3.26710E+2
  -7.75691E+1  -2.25026E+2
   4.95238E+1   4.06310E+1
  -1.80412E+1   9.94119E+1
  -1.41895E+2   2.36134E+2
  -1.89967E+2  -1.53901E+2
  -1.86943E+2   1.19447E+2
  -2.52195E+2  -2.85311E+1
  -4.99364E+1   2.47415E+2
  -2.41092E+2  -1.26666E+2
  -9.58580E+1  -1.28245E+2
   9.98962E+1  -6.57926E+1
  -2.08892E+1  -1.48201E+2
  -8.35812E+1   3.88451E+2
  -1.52674E+2   2.33024E+2
  -1.04165E+2   9.51766E+1
   1.52687E+1  -8.83644E+0
   2.74859E+2  -2.72397E+1
   7.46512E+1   2.37301E+2
  -3.01730E+2   3.61193E+2
  -1.47387E+2   2.71716E+2
   3.24736E+1   1.25776E+2
  -1.04825E+2   7.60031E+1
  -2.22791E+2   2.22377E+1
  -7.54618E+1  -3.95031E+2
  -5.99790E+1  -6.43314E+1
   2.18820E+2  -3.19364E+0
   1.05334E+2   3.63921E+2
  -1.51665E+2   3.55118E+2
  -2.24554E+2   6.71113E+1
  -2.37119E+2   3.88919E+1
  -1.27613E+2  -6.83654E+1
   8.75247E+1   8.85186E+1
   1.25148E+2  -2.29431E+2
  -9.54477E+1  -1.69728E+2
  -9.57919E+0   9.26952E+1
  -5.84109E+1   1.24689E+2
  -2.69790E+2   1.91251E+1
  -1.67464E+2  -2.81076E+1
  -2.01037E+2   2.03443E+2
  -1.64081E+2  -1.21840E+2
   1.79542E+2  -6.04451E+1
   1.16938E+0   1.39423E+2
  -1.43083E+2  -1.64952E+2
   1.19637E+2   2.23188E+1
  -1.61438E+2   1.74997E+2
   8.44607E+1   2.25381E+2
  -2.96871E+2  -3.55117E+1
  -6.58252E+1  -2.86156E+2
   5.06172E+1  -2.88773E+2
   1.31284E+2   1.38856E+2
  -4.03659E+1   1.89748E+2
  -2.95945E+2   3.03397E+2
  -2.54196E+2  -1.22670E+2
  -6.24845E+1  -1.00389E+1
   2.82681E+2  -4.53727E+1
   1.29880E+2   3.33199E+1
  -1.25100E+2  -1.72219E+2
  -3.56052E+1  -2.60404E+1
   5.92362E+1   6.91470E+0
   5.72484E+1  -9.51653E+1
  -2.15432E+2   2.37684E+2
  -1.79765E+2  -1.36785E+2
   1.02127E+2  -9.25657E+1
  -2.02937E+1   4.08111E+1
   8.52795E+1   2.16804E+2
  -2.43346E+2   6.94901E+1
  -1.67413E+2   8.91356E+0
   8.64347E+1  -1.69810E+1
   2.82754E+1  -4.59177E+0
  -1.24164E+2  -3.22550E+1
  -9.03056E+1   1.15310E+2
   6.61691E+1  -1.33722E+1
   1.94804E+2   6.03508E+1
   6.16603E+1   3.19746E+2
  -2.08882E+1   1.02895E+2
  -3.85735E+1   6.37194E+1
  -1.74361E+0  -8.65421E+1
   3.77495E+1  -4.18256E+1
   1.12450E+2   1.00997E+2
  -1.36066E+2   2.83791E+2
  -1.31541E+2  -6.66719E+1
  -6.98480E+1   1.84115E+2
   1.04528E+2  -1.41344E+1
   2.42267E+2  -4.08090E+1
  -1.10750E+2  -1.03240E+2
  -1.76425E+0  -2.66704E+2
   1.81178E+2  -1.35331E+1
  -2.70621E+2   3.77804E+1
   1.75327E+1   4.58489E+1
  -1.45156E+2   2.86261E+2
  -2.12995E+2   2.65328E+1
   7.92100E+1  -1.78625E+2
   1.59813E+2  -1.44893E+2
  -7.23001E+1  -2.85900E+0
   3.39059E+1  -1.77328E+2
   1.50533E+2  -1.27893E+2
  -1.04197E+2  -1.88899E+1
  -2.54068E+2   2.55866E+2
  -5.57098E+1   2.46277E+2
  -9.36784E+1  -6.46520E+1
  -4.04252E+1  -1.53401E+2
   6.34179E+1  -3.87091E+1
   1.12472E+1  -9.14486E+0
   1.13658E+2   1.27860E+1
   4.15030E+1  -4.61044E+1
  -1.87995E+2   4.24743E+1
   5.84969E+1   1.42038E+1
   2.40577E+1  -2.41710E+2
   5.48851E+1  -1.51464E+2
   1.52681E+2  -1.38484E+2
   2.31344E+1   8.46338E+1
  -5.38123E+1   9.05098E-1
  -2.03756E+1  -9.21849E+1
  -3.13742E+1  -4.08692E+1
  -4.97374E+1  -1.34274E+2
  -2.29014E+2  -5.12204E+1
   1.80472E+2   6.08348E-1
   7.45330E+1  -1.63993E+2
   9.39004E+1  -2.57178E+2
   9.44047E+1  -1.55991E+2
   1.16483E+2  -3.00467E+1
  -4.85692E+1   1.04635E+0
  -1.16710E+2  -1.44464E+1
   2.75827E+2  -2.60013E+2
   1.66304E+2  -2.72618E+1
   5.46248E+1  -2.74718E+1
   2.72912E+1   9.12801E+1
  -6.15629E+1   2.66665E+2
  -3.93457E+1  -5.29081E+1
