 
 $NMID
 ID=''
 FMTDAT='(2E13.5)'
 TRAMP=   1.00000E+0
 VOLUME=   1.00000E+0
 $END
  -4.22404E+5   5.70452E+5
  -1.65223E+6   1.02383E+6
  -1.51145E+6   1.20706E+6
  -1.44683E+6   1.07698E+6
  -1.52211E+6   1.04720E+6
  -1.49587E+6   1.07038E+6
  -1.47601E+6   1.04432E+6
  -1.49205E+6   1.04502E+6
  -1.46123E+6   1.02162E+6
  -1.47894E+6   9.75725E+5
  -1.49573E+6   9.83463E+5
  -1.45799E+6   9.63619E+5
  -1.46244E+6   9.15947E+5
  -1.48091E+6   9.13592E+5
  -1.45644E+6   8.95701E+5
  -1.45279E+6   8.58838E+5
  -1.46511E+6   8.54125E+5
  -1.45258E+6   8.35370E+5
  -1.45315E+6   8.03352E+5
  -1.45522E+6   8.00017E+5
  -1.44310E+6   7.82242E+5
  -1.44454E+6   7.56253E+5
  -1.44567E+6   7.47969E+5
  -1.43652E+6   7.28921E+5
  -1.43666E+6   7.01355E+5
  -1.43201E+6   6.95587E+5
  -1.42589E+6   6.78992E+5
  -1.42745E+6   6.55002E+5
  -1.42175E+6   6.38554E+5
  -1.41191E+6   6.23666E+5
  -1.41517E+6   6.05623E+5
  -1.40960E+6   5.93501E+5
  -1.40057E+6   5.75137E+5
  -1.39897E+6   5.60431E+5
  -1.39188E+6   5.51487E+5
  -1.38389E+6   5.40688E+5
  -1.38471E+6   5.28638E+5
  -1.38110E+6   5.16768E+5
  -1.37083E+6   5.01470E+5
  -1.36731E+6   4.88645E+5
  -1.36252E+6   4.76314E+5
  -1.35419E+6   4.61848E+5
  -1.34671E+6   4.49896E+5
  -1.34128E+6   4.38353E+5
  -1.33521E+6   4.23304E+5
  -1.33096E+6   4.10890E+5
  -1.32561E+6   3.97662E+5
  -1.31959E+6   3.81350E+5
  -1.31149E+6   3.67639E+5
  -1.30452E+6   3.57277E+5
  -1.29915E+6   3.45529E+5
  -1.29430E+6   3.33439E+5
  -1.28825E+6   3.22570E+5
  -1.28265E+6   3.10518E+5
  -1.27693E+6   2.98145E+5
  -1.27099E+6   2.85756E+5
  -1.26388E+6   2.72206E+5
  -1.25595E+6   2.59959E+5
  -1.24814E+6   2.49592E+5
  -1.24233E+6   2.38709E+5
  -1.23643E+6   2.26292E+5
  -1.22987E+6   2.14235E+5
  -1.22370E+6   2.03010E+5
  -1.21691E+6   1.90844E+5
  -1.20885E+6   1.78472E+5
  -1.19999E+6   1.68658E+5
  -1.19216E+6   1.59396E+5
  -1.18508E+6   1.49066E+5
  -1.17899E+6   1.38844E+5
  -1.17285E+6   1.27896E+5
  -1.16456E+6   1.16423E+5
  -1.15698E+6   1.05999E+5
  -1.15034E+6   9.72073E+4
  -1.14358E+6   8.71243E+4
  -1.13538E+6   7.61356E+4
  -1.12777E+6   6.63628E+4
  -1.12009E+6   5.74820E+4
  -1.11257E+6   4.77079E+4
  -1.10491E+6   3.76216E+4
  -1.09650E+6   2.75345E+4
  -1.08803E+6   1.82615E+4
  -1.07979E+6   9.55108E+3
  -1.07232E+6   2.69589E+2
  -1.06427E+6  -1.01101E+4
  -1.05510E+6  -2.03756E+4
  -1.04669E+6  -2.92867E+4
  -1.03839E+6  -3.75044E+4
  -1.02989E+6  -4.71828E+4
  -1.02122E+6  -5.58224E+4
  -1.01224E+6  -6.33007E+4
  -1.00349E+6  -7.02832E+4
  -9.95541E+5  -7.77852E+4
  -9.87190E+5  -8.56877E+4
  -9.77868E+5  -9.30551E+4
  -9.67862E+5  -9.95706E+4
  -9.59311E+5  -1.05270E+5
  -9.51508E+5  -1.11157E+5
  -9.43064E+5  -1.18100E+5
  -9.33810E+5  -1.24811E+5
  -9.24959E+5  -1.30411E+5
  -9.16705E+5  -1.36198E+5
  -9.08549E+5  -1.43330E+5
  -8.98629E+5  -1.50063E+5
  -8.88037E+5  -1.55410E+5
  -8.79238E+5  -1.59765E+5
  -8.71247E+5  -1.64726E+5
  -8.63212E+5  -1.70127E+5
  -8.53539E+5  -1.76135E+5
  -8.43621E+5  -1.80910E+5
  -8.34094E+5  -1.84144E+5
  -8.26254E+5  -1.88293E+5
  -8.17952E+5  -1.93554E+5
  -8.08946E+5  -1.99563E+5
  -7.99610E+5  -2.04554E+5
  -7.90564E+5  -2.09469E+5
  -7.81789E+5  -2.14700E+5
  -7.72337E+5  -2.20142E+5
  -7.61965E+5  -2.24896E+5
  -7.52177E+5  -2.27891E+5
  -7.43648E+5  -2.31318E+5
  -7.35529E+5  -2.35414E+5
  -7.27414E+5  -2.39424E+5
  -7.18575E+5  -2.43252E+5
  -7.09668E+5  -2.47338E+5
  -7.00703E+5  -2.51567E+5
  -6.91365E+5  -2.55405E+5
  -6.82347E+5  -2.58566E+5
  -6.73498E+5  -2.62466E+5
  -6.64966E+5  -2.65949E+5
  -6.56393E+5  -2.70449E+5
  -6.47022E+5  -2.75363E+5
  -6.37197E+5  -2.79795E+5
  -6.27721E+5  -2.83395E+5
  -6.19002E+5  -2.86648E+5
  -6.10114E+5  -2.90470E+5
  -6.00785E+5  -2.93895E+5
  -5.92184E+5  -2.96860E+5
  -5.83604E+5  -2.99947E+5
  -5.75236E+5  -3.03260E+5
  -5.66425E+5  -3.07063E+5
  -5.56970E+5  -3.09690E+5
  -5.48032E+5  -3.11339E+5
  -5.39953E+5  -3.13295E+5
  -5.32281E+5  -3.16326E+5
  -5.23645E+5  -3.19337E+5
  -5.14525E+5  -3.21766E+5
  -5.05517E+5  -3.23406E+5
  -4.96574E+5  -3.25438E+5
  -4.88367E+5  -3.27164E+5
  -4.80150E+5  -3.28628E+5
  -4.71710E+5  -3.29744E+5
  -4.63486E+5  -3.30887E+5
  -4.56381E+5  -3.31854E+5
  -4.48727E+5  -3.33037E+5
  -4.40300E+5  -3.34225E+5
  -4.32221E+5  -3.34569E+5
  -4.25037E+5  -3.34624E+5
  -4.17674E+5  -3.35168E+5
  -4.09974E+5  -3.35962E+5
  -4.02316E+5  -3.35835E+5
  -3.94885E+5  -3.35951E+5
  -3.87582E+5  -3.36101E+5
  -3.79747E+5  -3.36117E+5
  -3.72109E+5  -3.35412E+5
  -3.64675E+5  -3.34802E+5
  -3.58084E+5  -3.33832E+5
  -3.51366E+5  -3.33803E+5
  -3.44287E+5  -3.34162E+5
  -3.36970E+5  -3.33322E+5
  -3.30133E+5  -3.32259E+5
  -3.23687E+5  -3.31169E+5
  -3.17092E+5  -3.30186E+5
  -3.10393E+5  -3.29739E+5
  -3.03777E+5  -3.28542E+5
  -2.97239E+5  -3.27509E+5
  -2.90775E+5  -3.26449E+5
  -2.84372E+5  -3.26107E+5
  -2.77379E+5  -3.25142E+5
  -2.70375E+5  -3.23624E+5
  -2.64567E+5  -3.22301E+5
  -2.58568E+5  -3.21353E+5
  -2.52107E+5  -3.20579E+5
  -2.45298E+5  -3.19641E+5
  -2.39052E+5  -3.18029E+5
  -2.33226E+5  -3.16713E+5
  -2.27261E+5  -3.15276E+5
  -2.21307E+5  -3.13836E+5
  -2.15195E+5  -3.11870E+5
  -2.09783E+5  -3.10250E+5
  -2.04715E+5  -3.09303E+5
  -1.99107E+5  -3.08162E+5
  -1.92790E+5  -3.06870E+5
  -1.86716E+5  -3.05367E+5
  -1.80761E+5  -3.03332E+5
  -1.75246E+5  -3.01535E+5
  -1.69808E+5  -3.00266E+5
  -1.64303E+5  -2.98905E+5
  -1.58410E+5  -2.97016E+5
  -1.52998E+5  -2.95313E+5
  -1.47446E+5  -2.93913E+5
  -1.41628E+5  -2.92091E+5
  -1.36134E+5  -2.89758E+5
  -1.30956E+5  -2.87616E+5
  -1.26325E+5  -2.85808E+5
  -1.20992E+5  -2.84023E+5
  -1.16047E+5  -2.82199E+5
  -1.10530E+5  -2.79900E+5
  -1.05667E+5  -2.77664E+5
  -1.01066E+5  -2.75622E+5
  -9.62513E+4  -2.73361E+5
  -9.10835E+4  -2.71268E+5
  -8.63592E+4  -2.68392E+5
  -8.21721E+4  -2.66543E+5
  -7.77403E+4  -2.64502E+5
  -7.26032E+4  -2.62163E+5
  -6.80859E+4  -2.59452E+5
  -6.40531E+4  -2.56416E+5
  -6.01053E+4  -2.53746E+5
  -5.62569E+4  -2.51389E+5
  -5.21366E+4  -2.48771E+5
  -4.82089E+4  -2.46288E+5
  -4.47103E+4  -2.43210E+5
  -4.08183E+4  -2.40789E+5
  -3.71676E+4  -2.38102E+5
  -3.31373E+4  -2.35244E+5
  -3.00056E+4  -2.32034E+5
  -2.69587E+4  -2.29166E+5
  -2.36324E+4  -2.26942E+5
  -2.02056E+4  -2.24311E+5
  -1.68620E+4  -2.21479E+5
  -1.38678E+4  -2.18226E+5
  -1.11746E+4  -2.15474E+5
  -8.56184E+3  -2.12856E+5
  -5.51959E+3  -2.10151E+5
  -2.83191E+3  -2.07129E+5
  -5.54648E+2  -2.04314E+5
   1.88187E+3  -2.01483E+5
   4.31113E+3  -1.98967E+5
   6.93444E+3  -1.95927E+5
   9.11775E+3  -1.93043E+5
   1.11759E+4  -1.90234E+5
   1.31671E+4  -1.87786E+5
   1.55371E+4  -1.84855E+5
   1.78159E+4  -1.82228E+5
   1.97619E+4  -1.79214E+5
   2.15413E+4  -1.76608E+5
   2.32406E+4  -1.73909E+5
   2.52595E+4  -1.71276E+5
   2.70047E+4  -1.68122E+5
   2.83410E+4  -1.65663E+5
   2.98747E+4  -1.63308E+5
   3.15497E+4  -1.61030E+5
   3.36593E+4  -1.58071E+5
   3.49589E+4  -1.55204E+5
   3.61243E+4  -1.52650E+5
   3.76576E+4  -1.50122E+5
   3.91972E+4  -1.47871E+5
   4.04015E+4  -1.45049E+5
   4.21570E+4  -1.42568E+5
   4.32860E+4  -1.39895E+5
   4.46780E+4  -1.37620E+5
   4.60994E+4  -1.34803E+5
   4.72549E+4  -1.31864E+5
   4.82887E+4  -1.29425E+5
   4.94330E+4  -1.27362E+5
   5.05097E+4  -1.24928E+5
   5.18448E+4  -1.22602E+5
   5.29697E+4  -1.19755E+5
   5.38026E+4  -1.17271E+5
   5.45062E+4  -1.14883E+5
   5.52055E+4  -1.12926E+5
   5.61513E+4  -1.10156E+5
   5.68972E+4  -1.07669E+5
   5.75990E+4  -1.05653E+5
   5.84971E+4  -1.03238E+5
   5.94483E+4  -1.00877E+5
   5.99547E+4  -9.84038E+4
   6.05695E+4  -9.60183E+4
   6.10225E+4  -9.37869E+4
   6.14473E+4  -9.17392E+4
   6.22573E+4  -8.93141E+4
   6.28938E+4  -8.71570E+4
   6.30222E+4  -8.50500E+4
   6.36722E+4  -8.31007E+4
   6.39719E+4  -8.08486E+4
   6.44812E+4  -7.83964E+4
   6.45572E+4  -7.62869E+4
   6.45048E+4  -7.43799E+4
   6.48858E+4  -7.27416E+4
   6.51476E+4  -7.07913E+4
   6.55008E+4  -6.83837E+4
   6.55796E+4  -6.65060E+4
   6.54214E+4  -6.44254E+4
   6.55216E+4  -6.28558E+4
   6.56633E+4  -6.08290E+4
   6.57082E+4  -5.89458E+4
   6.55415E+4  -5.71024E+4
   6.54952E+4  -5.54430E+4
   6.56636E+4  -5.37634E+4
   6.54307E+4  -5.18641E+4
   6.52627E+4  -4.99216E+4
   6.49462E+4  -4.82753E+4
   6.51160E+4  -4.67728E+4
   6.50086E+4  -4.51625E+4
   6.45973E+4  -4.32178E+4
   6.43367E+4  -4.13968E+4
   6.40866E+4  -4.00765E+4
   6.38467E+4  -3.84622E+4
   6.36178E+4  -3.69982E+4
   6.30552E+4  -3.52594E+4
   6.29749E+4  -3.37949E+4
   6.24485E+4  -3.25009E+4
   6.20650E+4  -3.11704E+4
   6.18294E+4  -2.96279E+4
   6.15058E+4  -2.80516E+4
   6.09946E+4  -2.67010E+4
   6.06259E+4  -2.56298E+4
   5.98059E+4  -2.43621E+4
   5.96086E+4  -2.30380E+4
   5.89786E+4  -2.15296E+4
   5.85159E+4  -2.04974E+4
   5.82221E+4  -1.92125E+4
   5.74325E+4  -1.77966E+4
   5.67652E+4  -1.65766E+4
   5.61417E+4  -1.56484E+4
   5.57446E+4  -1.44283E+4
   5.55582E+4  -1.30921E+4
   5.48398E+4  -1.20327E+4
   5.43030E+4  -1.07527E+4
   5.33504E+4  -9.53174E+3
   5.30003E+4  -8.85185E+3
   5.23082E+4  -7.52981E+3
   5.17018E+4  -6.71612E+3
   5.11248E+4  -5.59852E+3
   5.04711E+4  -4.83767E+3
   4.99964E+4  -3.42454E+3
   4.94258E+4  -2.52924E+3
   4.86306E+4  -1.20894E+3
   4.79605E+4  -5.66866E+2
   4.72100E+4   1.64066E+2
   4.66179E+4   9.82276E+2
   4.60286E+4   1.84165E+3
   4.52504E+4   2.91465E+3
   4.44468E+4   3.71665E+3
   4.37168E+4   4.49498E+3
   4.32404E+4   5.28080E+3
   4.24279E+4   5.93471E+3
   4.17426E+4   6.76847E+3
   4.08615E+4   7.26496E+3
   4.02899E+4   7.89387E+3
   3.96753E+4   8.68624E+3
   3.88833E+4   9.24215E+3
   3.79945E+4   1.01564E+4
   3.73851E+4   1.05280E+4
   3.69428E+4   1.10720E+4
   3.59929E+4   1.18563E+4
   3.53455E+4   1.25168E+4
   3.46746E+4   1.29482E+4
   3.40568E+4   1.32784E+4
   3.32449E+4   1.37448E+4
   3.25336E+4   1.42600E+4
   3.17304E+4   1.47411E+4
   3.08786E+4   1.50148E+4
   3.02783E+4   1.53453E+4
   2.96545E+4   1.58470E+4
   2.89197E+4   1.66494E+4
   2.81311E+4   1.67383E+4
