 LCModel (Version 6.3-1N) Copyright: S.W. Provencher.          Ref.: Magn. Reson. Med. 30:672-679 (1993).                
 Slice_N1@11_23  28-Feb-2025 11:38:35
 27 lines in following concentration table = NCONC+1
    Conc.  %SD /Cr+PCr  Metabolite                                         
 2.71E-04   6% 2.8E-04 Mac                                                 
    4.292  40%   4.483 Cr                                                  
    3.367  47%   3.517 PCr                                                 
    5.911  18%   6.174 Ins                                                 
    9.141  11%   9.548 NAA                                                 
    3.726  30%   3.891 Tau                                                 
    0.000 999%   0.000 PCho                                                
    0.000 999%   0.000 GPC                                                 
    7.423  16%   7.753 Glu                                                 
    0.645 108%   0.673 Gln                                                 
    0.000 999%   0.000 Ala                                                 
    0.000 999%   0.000 Asc                                                 
    3.828  28%   3.998 Asp                                                 
    0.000 999%   0.000 GABA                                                
    0.930  76%   0.972 Glc                                                 
    0.000 999%   0.000 GSH                                                 
    0.450 193%   0.470 Lac                                                 
    1.565  50%   1.634 NAAG                                                
    5.833  18%   6.092 PE                                                  
    0.000 999%   0.000 GPC+PCho                                            
   10.706   9%  11.182 NAA+NAAG                                            
    8.068  17%   8.426 Glu+Gln                                             
    7.660  12%   8.000 Cr+PCr                                              
   10.706   9%  11.182 NAA+NAAG                                            
    7.660  12%   8.000 Cr+PCr                                              
    8.068  17%   8.426 Glu+Gln                                             
   6 lines in following misc. output table
  FWHM = 0.041 ppm    S/N =   3                                            
  Data shift = 0.041 ppm                                                   
  Ph: -82 deg       0.0 deg/ppm                                            
  alphaB,S = 1.0E-01,   1.1E+01                                            
   19 spline knots.   Ns = 5(1)                                            
  ( 7) 5 infls.   ( 6) 2 extrs.                                            
  480 points on ppm-axis = NY
      4.100000     4.091866     4.083733     4.075600     4.067466     4.059333     4.051199     4.043066     4.034933     4.026799
      4.018666     4.010532     4.002399     3.994265     3.986132     3.977998     3.969864     3.961731     3.953597     3.945463
      3.937330     3.929196     3.921062     3.912929     3.904795     3.896662     3.888528     3.880394     3.872261     3.864127
      3.855993     3.847860     3.839726     3.831592     3.823459     3.815325     3.807191     3.799058     3.790924     3.782790
      3.774657     3.766523     3.758389     3.750256     3.742122     3.733989     3.725855     3.717721     3.709588     3.701454
      3.693320     3.685187     3.677053     3.668919     3.660786     3.652652     3.644518     3.636385     3.628251     3.620117
      3.611984     3.603850     3.595716     3.587583     3.579449     3.571316     3.563182     3.555048     3.546915     3.538781
      3.530647     3.522514     3.514380     3.506246     3.498113     3.489979     3.481845     3.473712     3.465578     3.457444
      3.449311     3.441177     3.433043     3.424910     3.416776     3.408643     3.400509     3.392375     3.384242     3.376108
      3.367974     3.359841     3.351707     3.343573     3.335440     3.327306     3.319172     3.311039     3.302905     3.294771
      3.286638     3.278504     3.270370     3.262237     3.254103     3.245970     3.237836     3.229702     3.221569     3.213435
      3.205301     3.197168     3.189034     3.180900     3.172767     3.164633     3.156499     3.148366     3.140232     3.132098
      3.123965     3.115831     3.107697     3.099564     3.091430     3.083297     3.075163     3.067029     3.058896     3.050762
      3.042628     3.034495     3.026361     3.018227     3.010094     3.001960     2.993826     2.985693     2.977559     2.969425
      2.961292     2.953158     2.945024     2.936891     2.928757     2.920624     2.912490     2.904356     2.896223     2.888089
      2.879955     2.871822     2.863688     2.855554     2.847421     2.839287     2.831153     2.823020     2.814886     2.806752
      2.798619     2.790485     2.782351     2.774218     2.766084     2.757951     2.749817     2.741683     2.733550     2.725416
      2.717282     2.709149     2.701015     2.692881     2.684748     2.676614     2.668480     2.660347     2.652213     2.644079
      2.635946     2.627812     2.619678     2.611545     2.603411     2.595278     2.587144     2.579010     2.570877     2.562743
      2.554609     2.546476     2.538342     2.530208     2.522075     2.513941     2.505807     2.497674     2.489540     2.481406
      2.473273     2.465139     2.457006     2.448872     2.440738     2.432605     2.424471     2.416337     2.408204     2.400070
      2.391936     2.383803     2.375669     2.367535     2.359402     2.351268     2.343134     2.335001     2.326867     2.318733
      2.310600     2.302466     2.294333     2.286199     2.278065     2.269932     2.261798     2.253664     2.245531     2.237397
      2.229263     2.221130     2.212996     2.204862     2.196729     2.188595     2.180461     2.172328     2.164194     2.156060
      2.147927     2.139793     2.131660     2.123526     2.115392     2.107259     2.099125     2.090991     2.082858     2.074724
      2.066590     2.058457     2.050323     2.042189     2.034056     2.025922     2.017788     2.009655     2.001521     1.993387
      1.985254     1.977120     1.968987     1.960853     1.952719     1.944586     1.936452     1.928318     1.920185     1.912051
      1.903917     1.895784     1.887650     1.879516     1.871383     1.863249     1.855115     1.846982     1.838848     1.830714
      1.822581     1.814447     1.806314     1.798180     1.790046     1.781913     1.773779     1.765645     1.757512     1.749378
      1.741244     1.733111     1.724977     1.716843     1.708710     1.700576     1.692442     1.684309     1.676175     1.668041
      1.659908     1.651774     1.643641     1.635507     1.627373     1.619240     1.611106     1.602972     1.594839     1.586705
      1.578571     1.570438     1.562304     1.554170     1.546037     1.537903     1.529769     1.521636     1.513502     1.505368
      1.497235     1.489101     1.480968     1.472834     1.464700     1.456567     1.448433     1.440299     1.432166     1.424032
      1.415898     1.407765     1.399631     1.391497     1.383364     1.375230     1.367096     1.358963     1.350829     1.342695
      1.334562     1.326428     1.318295     1.310161     1.302027     1.293894     1.285760     1.277626     1.269493     1.261359
      1.253225     1.245092     1.236958     1.228824     1.220691     1.212557     1.204423     1.196290     1.188156     1.180022
      1.171889     1.163755     1.155622     1.147488     1.139354     1.131221     1.123087     1.114953     1.106820     1.098686
      1.090552     1.082419     1.074285     1.066151     1.058018     1.049884     1.041750     1.033617     1.025483     1.017349
      1.009216     1.001082     0.992949     0.984815     0.976681     0.968548     0.960414     0.952280     0.944147     0.936013
      0.927879     0.919746     0.911612     0.903478     0.895345     0.887211     0.879077     0.870944     0.862810     0.854676
      0.846543     0.838409     0.830276     0.822142     0.814008     0.805875     0.797741     0.789607     0.781474     0.773340
      0.765206     0.757073     0.748939     0.740805     0.732672     0.724538     0.716404     0.708271     0.700137     0.692003
      0.683870     0.675736     0.667603     0.659469     0.651335     0.643202     0.635068     0.626934     0.618801     0.610667
      0.602533     0.594400     0.586266     0.578132     0.569999     0.561865     0.553731     0.545598     0.537464     0.529330
      0.521197     0.513063     0.504930     0.496796     0.488662     0.480529     0.472395     0.464261     0.456128     0.447994
      0.439861     0.431727     0.423593     0.415460     0.407326     0.399192     0.391059     0.382925     0.374792     0.366658
      0.358524     0.350391     0.342257     0.334124     0.325990     0.317856     0.309723     0.301589     0.293455     0.285322
      0.277188     0.269055     0.260921     0.252787     0.244654     0.236520     0.228386     0.220253     0.212119     0.203986
 NY phased data points follow
   3.45736E+01  2.59346E+01  4.37435E+01  3.69730E+01  1.30746E+01  3.79260E+01  4.94726E+01  5.27713E+01  4.87470E+01  4.59365E+01
   4.94933E+01  3.62286E+01  3.69398E+01  2.47555E+01  1.68929E+01  3.63463E+01  3.63410E+01  2.03716E+01  2.13803E+01  1.14989E+01
  -6.71823E+00  2.99545E+01  2.41931E+01  1.78093E+01  6.10566E+01  4.99126E+01  6.92060E+01  8.77287E+01  9.36984E+01  1.09565E+02
   1.13258E+02  1.39266E+02  1.42283E+02  1.45181E+02  1.44230E+02  1.51481E+02  1.60525E+02  1.64469E+02  1.76892E+02  1.60565E+02
   1.42374E+02  1.29656E+02  1.36990E+02  1.29298E+02  1.15728E+02  1.39059E+02  1.62138E+02  1.62374E+02  1.60801E+02  1.82115E+02
   1.70470E+02  1.53631E+02  1.65302E+02  1.59274E+02  1.47299E+02  1.45488E+02  1.58917E+02  1.66520E+02  1.36050E+02  1.15601E+02
   1.14371E+02  1.11087E+02  1.18470E+02  1.02780E+02  1.19659E+02  1.40822E+02  1.12375E+02  1.28057E+02  1.24530E+02  8.56560E+01
   9.79358E+01  9.44191E+01  7.05317E+01  8.21308E+01  9.03024E+01  9.89987E+01  1.04992E+02  1.12524E+02  1.16177E+02  9.99594E+01
   1.07458E+02  1.06226E+02  1.10064E+02  9.64260E+01  8.29251E+01  9.29167E+01  5.95905E+01  7.70643E+01  1.02839E+02  9.01147E+01
   8.79760E+01  9.33114E+01  9.67846E+01  1.02581E+02  1.36413E+02  1.18937E+02  1.22245E+02  1.36136E+02  1.25143E+02  1.44982E+02
   1.38677E+02  1.46912E+02  1.24049E+02  1.23961E+02  1.35207E+02  1.19003E+02  1.14480E+02  9.27395E+01  1.18541E+02  8.00094E+01
   5.73082E+01  5.34640E+01  1.93525E+01  4.01124E+01  2.27528E+01  4.39667E+01  5.00362E+01  5.67059E+01  7.66815E+01  4.88758E+01
   6.81324E+01  7.89670E+01  9.51832E+01  1.07203E+02  9.09886E+01  1.02665E+02  1.00225E+02  9.31735E+01  1.09660E+02  1.08703E+02
   1.67095E+02  1.93484E+02  1.33414E+02  1.21113E+02  8.10130E+01  4.82657E+01  3.59771E+01  3.35401E+01  2.50274E+01  1.08384E+01
   2.11197E+01  1.23233E+00  1.02703E+01  9.99569E-01  2.46643E+00  8.05657E+00  9.48510E+00  2.99426E+01  1.40296E+01  7.63551E+00
   9.77384E+00  2.08522E+01  1.58772E+01  3.85758E+01  3.62593E+01  2.55037E+01  4.35397E+01  3.22255E+01  4.29394E+01  4.19073E+01
   5.56675E+01  5.51094E+01  5.85012E+01  6.07545E+01  5.56626E+01  6.23524E+01  4.15585E+01  4.91406E+01  3.57997E+01  5.15738E+01
   6.68965E+01  5.64528E+01  7.47925E+01  6.94252E+01  6.89853E+01  6.82813E+01  6.98804E+01  8.69419E+01  9.78423E+01  9.37312E+01
   7.43409E+01  4.92598E+01  4.44194E+01  3.90972E+01  3.30036E+01  2.06814E+01  2.68481E+01  3.53444E+01  1.27318E+01  3.76525E+01
   2.79284E+01  2.58961E+01  2.81506E+01  3.16885E+01  5.73365E+01  2.89778E+01  4.87706E+01  3.37695E+01  3.00585E+01  3.98994E+01
   2.38892E+01  3.33457E+01  1.63018E+01  4.40320E+01  4.81686E+01  4.09103E+01  3.50396E+01  3.87286E+01  5.30588E+01  1.88980E+01
   1.30236E+01  7.12493E+00  9.72357E+00  1.01608E+01  1.76079E+01  4.81150E+01  5.16476E+01  6.49609E+01  7.39755E+01  7.78195E+01
   7.63172E+01  7.19923E+01  7.88803E+01  4.68460E+01  2.56213E+01  4.87659E+01  4.70527E+01  5.45762E+01  6.23672E+01  5.31047E+01
   5.97840E+01  4.30172E+01  4.92468E+01  6.29581E+01  3.24790E+01  2.95165E+01  1.14753E+01 -1.10723E+01  1.79850E+01  3.67931E+00
  -1.31558E+01 -1.13300E+01 -2.56186E+01 -9.75090E+00  9.71319E+00  2.32829E+00 -1.13888E+01  1.95064E+01 -1.32477E-01 -1.70700E+01
   9.76753E+00 -7.69423E+00  2.13938E+01  1.10972E+01  2.35162E+01 -1.98385E+01 -1.12148E+02 -1.30508E+01  3.99350E+01  8.77976E+01
   1.45687E+02  1.54679E+02  1.82538E+02  1.63360E+02  1.72796E+02  1.48471E+02  1.43863E+02  1.57564E+02  1.41350E+02  1.43349E+02
   1.20470E+02  1.34862E+02  1.35074E+02  1.17300E+02  1.19645E+02  1.12970E+02  1.01639E+02  1.10436E+02  1.25262E+02  1.17134E+02
   1.07040E+02  1.00259E+02  1.13706E+02  9.45601E+01  1.02595E+02  1.15367E+02  9.33020E+01  1.13598E+02  9.92092E+01  8.61826E+01
   9.03607E+01  8.41564E+01  6.44159E+01  4.74290E+01  5.22651E+01  4.59837E+01  3.64758E+01  5.44249E+00  2.80685E+00  9.39976E+00
  -5.08681E+00 -7.38760E+00  2.80780E+00  1.72212E+01 -9.65051E+00 -5.50228E+00  2.90927E+01  1.37696E+01  1.68482E+01  2.33919E+01
   1.18467E+01  2.24225E+01  2.10312E+01  3.81633E+01  6.43645E+01  7.80761E+01  8.08386E+01  7.78798E+01  9.34387E+01  8.98113E+01
   9.66132E+01  9.06151E+01  7.31250E+01  7.99905E+01  8.76062E+01  9.08247E+01  7.93847E+01  6.69324E+01  5.70030E+01  6.89322E+01
   7.50150E+01  7.57822E+01  7.35067E+01  8.71402E+01  9.01126E+01  4.29911E+01  5.03343E+01  4.97133E+01  2.91621E+01  2.83333E+01
   2.57523E+01  4.85481E+01  4.58974E+01  3.98456E+01  6.56179E+01  6.32956E+01  4.12320E+01  6.09623E+01  7.21631E+01  6.35833E+01
   6.74712E+01  5.91639E+01  5.25771E+01  6.14804E+01  6.74515E+01  5.41398E+01  4.04376E+01  4.01355E+01  5.28782E+01  5.49082E+01
   4.33281E+01  4.68200E+01  4.89794E+01  3.91076E+01  5.54058E+01  6.30621E+01  4.25004E+01  6.07092E+01  6.38534E+01  5.44427E+01
   7.52005E+01  6.41827E+01  6.09892E+01  1.00712E+02  9.29277E+01  8.17110E+01  9.96790E+01  8.13861E+01  9.23998E+01  1.04080E+02
   1.03674E+02  1.19034E+02  1.20031E+02  1.22485E+02  1.21416E+02  1.25428E+02  1.26804E+02  1.37902E+02  1.54608E+02  1.55775E+02
   1.48653E+02  1.54360E+02  1.44783E+02  1.32358E+02  1.39326E+02  1.16603E+02  1.06118E+02  9.00268E+01  8.42083E+01  9.26101E+01
   8.12553E+01  7.26817E+01  5.52955E+01  4.45639E+01  4.82022E+01  6.14369E+01  3.18499E+01  2.32496E+01  2.93009E+01  2.55322E+01
   4.65111E+01  1.44923E+01  1.34857E+01  1.56325E+01  8.22079E+00  3.05128E+01  1.93976E+01  2.21100E+01  1.83413E+01  2.45261E+01
   1.93867E+01  9.02277E+00  2.93637E+01  8.09405E+00  7.45017E+00  1.18800E+01  1.31164E+01  3.01093E+01  2.32971E+01  2.37723E+01
   1.75479E+01  2.14819E+01  1.14141E+01  1.64442E+01  2.65213E+01  1.08367E+01  1.86031E+01  1.11740E+01  2.97900E+01  4.32722E+01
   2.52619E+01  1.09178E+00  5.95256E+00  2.04255E+01  8.69619E+00  3.03615E+01  2.30951E+01  2.42146E+01  2.93364E+01  2.38741E+01
   2.13701E+01  7.84215E+00  1.76747E+01  9.70731E+00  2.04982E+01  1.69549E+01  1.29942E+01  3.41425E+01  3.47632E+01  3.26784E+01
   3.18847E+01  3.22617E+01  2.24174E+01  1.96169E+01  2.64826E+01  2.69347E+01  3.64360E+00  9.82215E+00  2.56919E+01  2.68583E+01
   2.31991E+01  6.28395E+00  3.59068E+01  3.85209E+01  1.59270E+01  1.20866E+01  8.27821E+00  1.96081E+01  2.85241E+01  2.59374E+01
 NY points of the fit to the data follow
   5.10528E+01  5.10520E+01  4.78741E+01  4.06354E+01  3.40107E+01  3.43802E+01  4.15818E+01  4.93071E+01  5.44373E+01  5.78427E+01
   5.96538E+01  5.72199E+01  4.93811E+01  3.91060E+01  2.92288E+01  2.20438E+01  2.23112E+01  2.70312E+01  3.15948E+01  3.33445E+01
   3.49983E+01  3.86777E+01  3.78029E+01  4.19690E+01  5.82986E+01  7.64774E+01  9.28375E+01  1.03208E+02  1.15408E+02  1.27097E+02
   1.30540E+02  1.32350E+02  1.33976E+02  1.34633E+02  1.33454E+02  1.31289E+02  1.30423E+02  1.30951E+02  1.31438E+02  1.28560E+02
   1.22148E+02  1.14037E+02  1.07048E+02  1.04117E+02  1.05957E+02  1.12297E+02  1.20768E+02  1.28470E+02  1.35105E+02  1.38779E+02
   1.40559E+02  1.40128E+02  1.40297E+02  1.40416E+02  1.38498E+02  1.35655E+02  1.32666E+02  1.28766E+02  1.19757E+02  1.09604E+02
   1.05733E+02  1.02153E+02  9.92754E+01  1.01235E+02  1.07811E+02  1.19695E+02  1.29826E+02  1.35677E+02  1.32856E+02  1.18921E+02
   1.07102E+02  9.99921E+01  9.22322E+01  8.76091E+01  9.06953E+01  1.00843E+02  1.10441E+02  1.16640E+02  1.23510E+02  1.30135E+02
   1.33172E+02  1.32865E+02  1.28958E+02  1.21362E+02  1.12486E+02  1.04479E+02  9.96875E+01  9.94484E+01  1.01685E+02  1.06487E+02
   1.11741E+02  1.17097E+02  1.22116E+02  1.25953E+02  1.28869E+02  1.31647E+02  1.34730E+02  1.36946E+02  1.37238E+02  1.37247E+02
   1.38623E+02  1.39677E+02  1.36275E+02  1.30684E+02  1.22728E+02  1.12298E+02  1.03222E+02  9.38884E+01  8.30321E+01  6.80152E+01
   4.79218E+01  3.20823E+01  2.21703E+01  1.87237E+01  2.10916E+01  2.66350E+01  3.53278E+01  4.52939E+01  5.38071E+01  6.05503E+01
   6.64034E+01  7.17350E+01  7.69418E+01  8.20897E+01  8.78835E+01  9.54080E+01  1.04231E+02  1.09852E+02  1.17891E+02  1.40526E+02
   1.77560E+02  1.98581E+02  1.76244E+02  1.31010E+02  9.08421E+01  5.97366E+01  3.20882E+01  7.77721E+00  8.83898E-01  4.69803E+00
   7.91913E+00  1.02534E+01  1.18160E+01  1.28067E+01  1.37239E+01  1.49422E+01  1.63490E+01  1.80373E+01  2.01895E+01  2.27708E+01
   2.54782E+01  2.77234E+01  2.94082E+01  3.12881E+01  3.41577E+01  3.79278E+01  4.10184E+01  4.20690E+01  4.18572E+01  4.26635E+01
   4.59115E+01  4.98502E+01  5.11723E+01  4.96646E+01  4.78783E+01  4.71922E+01  4.68203E+01  4.44659E+01  3.99811E+01  3.70657E+01
   4.05371E+01  5.10546E+01  6.07746E+01  6.30528E+01  6.22319E+01  6.60419E+01  7.37664E+01  7.82688E+01  7.57197E+01  7.06316E+01
   6.63090E+01  6.02820E+01  5.20442E+01  4.37247E+01  3.76614E+01  3.45226E+01  3.21212E+01  3.04248E+01  2.97451E+01  3.01688E+01
   3.00453E+01  2.85233E+01  2.73541E+01  2.99337E+01  3.50647E+01  3.66744E+01  3.83382E+01  4.34195E+01  4.95213E+01  5.33958E+01
   5.21573E+01  5.32218E+01  5.61593E+01  5.45800E+01  5.05239E+01  4.47113E+01  3.99339E+01  3.52211E+01  2.92060E+01  2.37488E+01
   1.94821E+01  1.45995E+01  1.12415E+01  1.10661E+01  1.74095E+01  3.14549E+01  4.62403E+01  6.11676E+01  7.32959E+01  7.83115E+01
   7.94334E+01  7.51999E+01  7.19053E+01  6.94006E+01  6.69094E+01  6.65953E+01  6.66454E+01  6.57903E+01  6.35409E+01  5.92666E+01
   5.31271E+01  4.55645E+01  3.71461E+01  2.84417E+01  1.96604E+01  1.21648E+01  6.57174E+00  3.07595E+00  2.38979E+00  2.87072E+00
   3.59418E+00  4.30995E+00  5.02578E+00  6.61564E+00  8.58654E+00  1.00567E+01  1.14074E+01  1.14111E+01  1.09812E+01  1.12957E+01
   7.24732E+00 -2.42011E-01  2.40982E+00  7.52535E+00 -4.51043E+00 -4.70749E+01 -7.12677E+01 -3.67416E+01  1.77866E+01  6.14009E+01
   9.20454E+01  1.21334E+02  1.50775E+02  1.50396E+02  1.42222E+02  1.34970E+02  1.28959E+02  1.23957E+02  1.19692E+02  1.15968E+02
   1.12853E+02  1.10369E+02  1.08437E+02  1.07028E+02  1.05741E+02  1.04487E+02  1.03051E+02  1.01654E+02  1.00380E+02  9.88805E+01
   9.71126E+01  9.51264E+01  9.31281E+01  9.10888E+01  8.87734E+01  8.63081E+01  8.39254E+01  8.15865E+01  7.91511E+01  7.63270E+01
   7.31850E+01  6.98623E+01  6.59982E+01  6.16439E+01  5.71317E+01  5.31757E+01  5.04263E+01  4.88881E+01  4.84585E+01  4.89573E+01
   5.03038E+01  5.23096E+01  5.46621E+01  5.71233E+01  5.95777E+01  6.18765E+01  6.40358E+01  6.62146E+01  6.87032E+01  7.12685E+01
   7.36992E+01  7.59569E+01  7.81918E+01  8.04131E+01  8.24040E+01  8.41428E+01  8.57224E+01  8.68530E+01  8.72670E+01  8.70493E+01
   8.64784E+01  8.53446E+01  8.34925E+01  8.12203E+01  7.90433E+01  7.67406E+01  7.33449E+01  6.83066E+01  6.19327E+01  5.45254E+01
   4.64618E+01  3.80812E+01  3.02311E+01  2.39916E+01  2.01623E+01  1.90203E+01  2.02896E+01  2.31472E+01  2.70392E+01  3.11733E+01
   3.50566E+01  3.81487E+01  4.03912E+01  4.23513E+01  4.42061E+01  4.65118E+01  4.90864E+01  5.15904E+01  5.42148E+01  5.63579E+01
   5.80862E+01  5.88271E+01  5.82982E+01  5.63363E+01  5.31770E+01  4.94076E+01  4.58223E+01  4.27642E+01  4.06669E+01  3.97979E+01
   4.01921E+01  4.17479E+01  4.42093E+01  4.73210E+01  5.07054E+01  5.41783E+01  5.75888E+01  6.08508E+01  6.40584E+01  6.71144E+01
   7.01122E+01  7.29698E+01  7.58424E+01  7.87354E+01  8.17638E+01  8.50292E+01  8.85073E+01  9.24267E+01  9.70047E+01  1.02053E+02
   1.07395E+02  1.13158E+02  1.19821E+02  1.27245E+02  1.35180E+02  1.43242E+02  1.50860E+02  1.56417E+02  1.58248E+02  1.55904E+02
   1.50086E+02  1.41949E+02  1.32588E+02  1.23235E+02  1.15047E+02  1.07862E+02  1.01040E+02  9.38752E+01  8.61581E+01  7.77261E+01
   6.87864E+01  6.02659E+01  5.25004E+01  4.57683E+01  4.01120E+01  3.58603E+01  3.28961E+01  3.06245E+01  2.87817E+01  2.72535E+01
   2.59847E+01  2.50463E+01  2.42645E+01  2.35643E+01  2.29829E+01  2.28127E+01  2.28015E+01  2.25567E+01  2.21094E+01  2.19449E+01
   2.21031E+01  2.20325E+01  2.18273E+01  2.17282E+01  2.18681E+01  2.18615E+01  2.15507E+01  2.13352E+01  2.13830E+01  2.16036E+01
   2.17398E+01  2.17775E+01  2.17095E+01  2.15651E+01  2.13756E+01  2.12381E+01  2.11702E+01  2.11678E+01  2.12539E+01  2.13313E+01
   2.14598E+01  2.16084E+01  2.17976E+01  2.18444E+01  2.16345E+01  2.13767E+01  2.12237E+01  2.11788E+01  2.11336E+01  2.12289E+01
   2.12457E+01  2.11553E+01  2.10402E+01  2.10423E+01  2.11142E+01  2.11920E+01  2.12247E+01  2.13253E+01  2.14503E+01  2.15933E+01
   2.17154E+01  2.17371E+01  2.16445E+01  2.15282E+01  2.12928E+01  2.10517E+01  2.08875E+01  2.11292E+01  2.15429E+01  2.19351E+01
   2.20493E+01  2.19396E+01  2.18022E+01  2.16691E+01  2.15259E+01  2.13879E+01  2.13915E+01  2.14738E+01  2.13873E+01  2.11952E+01
 NY background values follow
     7.680E+01    7.771E+01    7.864E+01    7.957E+01    8.050E+01    8.143E+01    8.237E+01    8.331E+01    8.425E+01    8.518E+01
     8.612E+01    8.705E+01    8.797E+01    8.890E+01    8.981E+01    9.071E+01    9.161E+01    9.250E+01    9.337E+01    9.424E+01
     9.509E+01    9.593E+01    9.675E+01    9.755E+01    9.834E+01    9.910E+01    9.985E+01    1.006E+02    1.013E+02    1.020E+02
     1.026E+02    1.033E+02    1.039E+02    1.044E+02    1.050E+02    1.055E+02    1.060E+02    1.065E+02    1.070E+02    1.074E+02
     1.078E+02    1.082E+02    1.085E+02    1.088E+02    1.091E+02    1.094E+02    1.096E+02    1.099E+02    1.100E+02    1.102E+02
     1.103E+02    1.104E+02    1.105E+02    1.106E+02    1.106E+02    1.106E+02    1.105E+02    1.105E+02    1.104E+02    1.103E+02
     1.101E+02    1.099E+02    1.097E+02    1.095E+02    1.092E+02    1.089E+02    1.086E+02    1.083E+02    1.080E+02    1.076E+02
     1.072E+02    1.068E+02    1.064E+02    1.060E+02    1.056E+02    1.051E+02    1.047E+02    1.042E+02    1.037E+02    1.032E+02
     1.028E+02    1.023E+02    1.018E+02    1.013E+02    1.008E+02    1.004E+02    9.989E+01    9.943E+01    9.896E+01    9.851E+01
     9.807E+01    9.763E+01    9.721E+01    9.679E+01    9.638E+01    9.599E+01    9.560E+01    9.521E+01    9.484E+01    9.447E+01
     9.410E+01    9.374E+01    9.339E+01    9.304E+01    9.270E+01    9.236E+01    9.202E+01    9.168E+01    9.135E+01    9.102E+01
     9.069E+01    9.036E+01    9.003E+01    8.970E+01    8.937E+01    8.904E+01    8.871E+01    8.838E+01    8.804E+01    8.770E+01
     8.736E+01    8.701E+01    8.666E+01    8.630E+01    8.595E+01    8.559E+01    8.522E+01    8.486E+01    8.449E+01    8.412E+01
     8.375E+01    8.337E+01    8.300E+01    8.262E+01    8.225E+01    8.187E+01    8.149E+01    8.111E+01    8.073E+01    8.035E+01
     7.997E+01    7.959E+01    7.921E+01    7.883E+01    7.845E+01    7.807E+01    7.770E+01    7.732E+01    7.695E+01    7.658E+01
     7.621E+01    7.585E+01    7.548E+01    7.512E+01    7.476E+01    7.440E+01    7.405E+01    7.369E+01    7.334E+01    7.299E+01
     7.264E+01    7.229E+01    7.194E+01    7.160E+01    7.125E+01    7.091E+01    7.057E+01    7.023E+01    6.989E+01    6.955E+01
     6.921E+01    6.887E+01    6.853E+01    6.820E+01    6.786E+01    6.752E+01    6.719E+01    6.685E+01    6.652E+01    6.618E+01
     6.585E+01    6.551E+01    6.518E+01    6.484E+01    6.451E+01    6.418E+01    6.385E+01    6.352E+01    6.319E+01    6.287E+01
     6.255E+01    6.223E+01    6.191E+01    6.160E+01    6.129E+01    6.099E+01    6.069E+01    6.040E+01    6.011E+01    5.983E+01
     5.955E+01    5.928E+01    5.902E+01    5.876E+01    5.851E+01    5.827E+01    5.804E+01    5.781E+01    5.759E+01    5.738E+01
     5.718E+01    5.699E+01    5.681E+01    5.663E+01    5.646E+01    5.630E+01    5.615E+01    5.600E+01    5.586E+01    5.572E+01
     5.559E+01    5.547E+01    5.534E+01    5.522E+01    5.511E+01    5.499E+01    5.488E+01    5.477E+01    5.467E+01    5.456E+01
     5.445E+01    5.434E+01    5.424E+01    5.413E+01    5.402E+01    5.391E+01    5.379E+01    5.368E+01    5.356E+01    5.344E+01
     5.331E+01    5.318E+01    5.304E+01    5.290E+01    5.275E+01    5.259E+01    5.243E+01    5.226E+01    5.208E+01    5.189E+01
     5.169E+01    5.147E+01    5.125E+01    5.102E+01    5.077E+01    5.051E+01    5.023E+01    4.994E+01    4.963E+01    4.931E+01
     4.897E+01    4.862E+01    4.825E+01    4.786E+01    4.744E+01    4.701E+01    4.656E+01    4.609E+01    4.560E+01    4.508E+01
     4.455E+01    4.399E+01    4.341E+01    4.281E+01    4.220E+01    4.157E+01    4.093E+01    4.029E+01    3.963E+01    3.898E+01
     3.832E+01    3.766E+01    3.700E+01    3.635E+01    3.570E+01    3.506E+01    3.443E+01    3.381E+01    3.321E+01    3.263E+01
     3.206E+01    3.152E+01    3.100E+01    3.051E+01    3.004E+01    2.960E+01    2.920E+01    2.883E+01    2.850E+01    2.820E+01
     2.795E+01    2.774E+01    2.757E+01    2.743E+01    2.733E+01    2.727E+01    2.724E+01    2.725E+01    2.729E+01    2.735E+01
     2.745E+01    2.757E+01    2.772E+01    2.789E+01    2.809E+01    2.831E+01    2.855E+01    2.882E+01    2.909E+01    2.939E+01
     2.970E+01    3.003E+01    3.037E+01    3.072E+01    3.108E+01    3.145E+01    3.182E+01    3.221E+01    3.259E+01    3.299E+01
     3.338E+01    3.377E+01    3.417E+01    3.457E+01    3.496E+01    3.536E+01    3.576E+01    3.615E+01    3.654E+01    3.693E+01
     3.731E+01    3.769E+01    3.807E+01    3.844E+01    3.881E+01    3.917E+01    3.952E+01    3.987E+01    4.021E+01    4.054E+01
     4.087E+01    4.118E+01    4.149E+01    4.178E+01    4.207E+01    4.234E+01    4.260E+01    4.285E+01    4.309E+01    4.331E+01
     4.352E+01    4.371E+01    4.390E+01    4.407E+01    4.422E+01    4.436E+01    4.450E+01    4.461E+01    4.472E+01    4.481E+01
     4.490E+01    4.497E+01    4.503E+01    4.507E+01    4.511E+01    4.514E+01    4.515E+01    4.516E+01    4.516E+01    4.514E+01
     4.512E+01    4.509E+01    4.504E+01    4.499E+01    4.494E+01    4.487E+01    4.479E+01    4.471E+01    4.462E+01    4.452E+01
     4.441E+01    4.430E+01    4.418E+01    4.405E+01    4.392E+01    4.378E+01    4.363E+01    4.348E+01    4.332E+01    4.316E+01
     4.299E+01    4.282E+01    4.264E+01    4.246E+01    4.227E+01    4.208E+01    4.188E+01    4.169E+01    4.148E+01    4.128E+01
     4.107E+01    4.086E+01    4.064E+01    4.043E+01    4.021E+01    3.999E+01    3.977E+01    3.954E+01    3.932E+01    3.909E+01
     3.886E+01    3.864E+01    3.841E+01    3.818E+01    3.795E+01    3.772E+01    3.749E+01    3.725E+01    3.702E+01    3.679E+01
     3.656E+01    3.633E+01    3.609E+01    3.586E+01    3.563E+01    3.540E+01    3.517E+01    3.494E+01    3.471E+01    3.448E+01
     3.425E+01    3.402E+01    3.380E+01    3.357E+01    3.335E+01    3.313E+01    3.290E+01    3.268E+01    3.246E+01    3.225E+01
     3.203E+01    3.181E+01    3.160E+01    3.139E+01    3.118E+01    3.097E+01    3.076E+01    3.055E+01    3.035E+01    3.014E+01
     2.994E+01    2.973E+01    2.953E+01    2.933E+01    2.912E+01    2.892E+01    2.872E+01    2.852E+01    2.832E+01    2.812E+01
     2.792E+01    2.771E+01    2.751E+01    2.731E+01    2.711E+01    2.691E+01    2.671E+01    2.650E+01    2.630E+01    2.609E+01
 Mac      Conc. = 2.71E-04
   5.86302E+01  5.89611E+01  5.94864E+01  6.01486E+01  6.09195E+01  6.15718E+01  6.18331E+01  6.16077E+01  6.10572E+01  6.03979E+01
   5.98667E+01  5.97261E+01  6.01723E+01  6.11241E+01  6.15584E+01  6.07713E+01  5.94574E+01  5.92427E+01  6.08278E+01  6.31906E+01
   6.63929E+01  7.07953E+01  7.57085E+01  8.00354E+01  8.30880E+01  8.56171E+01  8.79738E+01  9.01430E+01  9.24010E+01  9.47567E+01
   9.71124E+01  9.94970E+01  1.01831E+02  1.03748E+02  1.04700E+02  1.04863E+02  1.05093E+02  1.06189E+02  1.08163E+02  1.10231E+02
   1.11752E+02  1.12814E+02  1.13774E+02  1.14829E+02  1.16022E+02  1.17207E+02  1.18383E+02  1.19382E+02  1.19940E+02  1.19919E+02
   1.19209E+02  1.18189E+02  1.17143E+02  1.16155E+02  1.15132E+02  1.14110E+02  1.13537E+02  1.13528E+02  1.13850E+02  1.14342E+02
   1.15320E+02  1.16778E+02  1.18043E+02  1.18725E+02  1.18653E+02  1.18266E+02  1.17711E+02  1.16742E+02  1.15308E+02  1.13707E+02
   1.12880E+02  1.13333E+02  1.14385E+02  1.15679E+02  1.17005E+02  1.18281E+02  1.19014E+02  1.18859E+02  1.18189E+02  1.17349E+02
   1.16263E+02  1.15041E+02  1.13809E+02  1.13015E+02  1.12541E+02  1.12271E+02  1.12285E+02  1.12515E+02  1.12829E+02  1.13077E+02
   1.13213E+02  1.13419E+02  1.13559E+02  1.13736E+02  1.13664E+02  1.13109E+02  1.11898E+02  1.10024E+02  1.07624E+02  1.05188E+02
   1.02881E+02  1.00694E+02  9.85056E+01  9.64815E+01  9.42073E+01  9.06971E+01  8.53036E+01  7.87578E+01  7.24267E+01  6.70526E+01
