 
 $NMID
 ID=''
 FMTDAT='(2E13.5)'
 TRAMP=   1.00000E+0
 VOLUME=   1.00000E+0
 $END
  -5.66234E+5   4.08038E+5
  -1.72760E+6   4.66801E+5
  -1.61126E+6   6.14712E+5
  -1.60277E+6   4.79527E+5
  -1.71452E+6   5.17965E+5
  -1.61285E+6   5.86443E+5
  -1.54141E+6   4.92725E+5
  -1.62084E+6   4.66794E+5
  -1.61340E+6   5.24779E+5
  -1.57179E+6   5.20315E+5
  -1.56171E+6   5.16367E+5
  -1.53020E+6   5.07505E+5
  -1.53353E+6   4.82165E+5
  -1.54617E+6   5.12802E+5
  -1.50001E+6   5.35618E+5
  -1.47353E+6   5.12117E+5
  -1.48802E+6   5.11231E+5
  -1.47413E+6   5.13595E+5
  -1.46243E+6   5.00405E+5
  -1.45807E+6   5.08307E+5
  -1.43389E+6   5.02792E+5
  -1.42491E+6   4.83155E+5
  -1.42621E+6   4.88936E+5
  -1.41116E+6   4.92232E+5
  -1.39700E+6   4.80461E+5
  -1.38311E+6   4.89352E+5
  -1.36751E+6   4.91880E+5
  -1.36237E+6   4.87553E+5
  -1.35130E+6   4.93555E+5
  -1.32909E+6   4.99750E+5
  -1.32175E+6   4.93683E+5
  -1.31475E+6   4.91710E+5
  -1.30154E+6   4.86994E+5
  -1.29202E+6   4.84581E+5
  -1.27958E+6   4.86800E+5
  -1.26660E+6   4.82298E+5
  -1.26253E+6   4.74938E+5
  -1.25440E+6   4.73281E+5
  -1.23907E+6   4.72866E+5
  -1.22949E+6   4.72051E+5
  -1.21779E+6   4.71594E+5
  -1.20466E+6   4.70276E+5
  -1.19402E+6   4.72500E+5
  -1.18358E+6   4.76057E+5
  -1.17003E+6   4.75122E+5
  -1.16042E+6   4.75439E+5
  -1.15244E+6   4.74318E+5
  -1.14234E+6   4.68419E+5
  -1.13027E+6   4.63693E+5
  -1.11931E+6   4.62255E+5
  -1.11120E+6   4.58935E+5
  -1.10289E+6   4.53858E+5
  -1.09318E+6   4.50392E+5
  -1.08411E+6   4.47646E+5
  -1.07574E+6   4.44183E+5
  -1.06621E+6   4.40308E+5
  -1.05611E+6   4.36597E+5
  -1.04595E+6   4.34462E+5
  -1.03581E+6   4.33445E+5
  -1.02658E+6   4.31225E+5
  -1.01755E+6   4.27775E+5
  -1.00849E+6   4.25275E+5
  -1.00052E+6   4.21703E+5
  -9.91432E+5   4.17070E+5
  -9.80612E+5   4.11827E+5
  -9.70307E+5   4.08133E+5
  -9.60839E+5   4.04318E+5
  -9.51673E+5   4.00606E+5
  -9.43397E+5   3.97285E+5
  -9.35919E+5   3.93534E+5
  -9.26600E+5   3.88456E+5
  -9.16317E+5   3.85111E+5
  -9.07556E+5   3.83289E+5
  -8.99968E+5   3.80193E+5
  -8.90904E+5   3.75204E+5
  -8.80968E+5   3.71340E+5
  -8.72209E+5   3.68398E+5
  -8.64199E+5   3.63922E+5
  -8.55058E+5   3.58339E+5
  -8.45801E+5   3.52980E+5
  -8.36854E+5   3.47918E+5
  -8.28073E+5   3.43699E+5
  -8.19537E+5   3.38999E+5
  -8.10987E+5   3.33653E+5
  -8.02532E+5   3.28460E+5
  -7.93498E+5   3.24527E+5
  -7.84984E+5   3.21251E+5
  -7.76643E+5   3.17282E+5
  -7.67678E+5   3.13246E+5
  -7.58689E+5   3.09943E+5
  -7.49910E+5   3.07209E+5
  -7.41704E+5   3.04026E+5
  -7.33180E+5   2.99553E+5
  -7.24287E+5   2.94789E+5
  -7.14755E+5   2.90500E+5
  -7.06121E+5   2.87260E+5
  -6.97943E+5   2.83969E+5
  -6.90053E+5   2.79911E+5
  -6.81260E+5   2.75636E+5
  -6.72898E+5   2.72412E+5
  -6.64869E+5   2.69842E+5
  -6.57442E+5   2.66126E+5
  -6.48683E+5   2.61890E+5
  -6.39368E+5   2.58656E+5
  -6.30768E+5   2.57439E+5
  -6.23061E+5   2.55426E+5
  -6.15734E+5   2.52460E+5
  -6.07321E+5   2.48996E+5
  -5.98264E+5   2.46265E+5
  -5.89297E+5   2.44436E+5
  -5.81546E+5   2.42888E+5
  -5.74768E+5   2.40011E+5
  -5.67587E+5   2.36212E+5
  -5.59472E+5   2.33057E+5
  -5.51590E+5   2.30520E+5
  -5.44549E+5   2.27728E+5
  -5.37123E+5   2.24137E+5
  -5.28769E+5   2.21273E+5
  -5.19993E+5   2.19082E+5
  -5.12824E+5   2.17641E+5
  -5.06152E+5   2.15764E+5
  -4.99015E+5   2.13400E+5
  -4.91410E+5   2.11041E+5
  -4.84544E+5   2.08485E+5
  -4.77311E+5   2.06096E+5
  -4.69797E+5   2.03505E+5
  -4.62498E+5   2.01205E+5
  -4.55519E+5   1.98983E+5
  -4.48619E+5   1.96483E+5
  -4.42146E+5   1.94039E+5
  -4.35995E+5   1.90620E+5
  -4.29222E+5   1.87045E+5
  -4.21941E+5   1.84756E+5
  -4.15661E+5   1.82471E+5
  -4.09609E+5   1.79592E+5
  -4.02937E+5   1.76265E+5
  -3.96519E+5   1.73981E+5
  -3.90312E+5   1.72185E+5
  -3.84660E+5   1.69214E+5
  -3.78737E+5   1.65766E+5
  -3.72120E+5   1.62824E+5
  -3.65804E+5   1.60963E+5
  -3.59542E+5   1.58931E+5
  -3.54414E+5   1.56280E+5
  -3.48783E+5   1.53288E+5
  -3.42628E+5   1.50619E+5
  -3.36658E+5   1.48136E+5
  -3.31162E+5   1.45466E+5
  -3.25612E+5   1.43392E+5
  -3.19975E+5   1.41130E+5
  -3.14426E+5   1.38533E+5
  -3.08888E+5   1.36646E+5
  -3.03789E+5   1.34991E+5
  -2.98911E+5   1.32755E+5
  -2.93890E+5   1.30247E+5
  -2.88164E+5   1.28136E+5
  -2.83144E+5   1.26459E+5
  -2.78389E+5   1.24441E+5
  -2.73301E+5   1.22187E+5
  -2.68631E+5   1.20366E+5
  -2.63706E+5   1.18562E+5
  -2.59348E+5   1.16474E+5
  -2.54199E+5   1.14409E+5
  -2.49630E+5   1.12643E+5
  -2.44779E+5   1.11145E+5
  -2.40722E+5   1.09911E+5
  -2.36501E+5   1.08330E+5
  -2.32488E+5   1.06007E+5
  -2.27952E+5   1.04466E+5
  -2.23896E+5   1.02899E+5
  -2.19651E+5   1.01755E+5
  -2.15647E+5   9.98104E+4
  -2.11921E+5   9.82756E+4
  -2.07826E+5   9.65371E+4
  -2.04009E+5   9.54505E+4
  -2.00707E+5   9.39164E+4
  -1.97323E+5   9.24254E+4
  -1.93361E+5   9.03415E+4
  -1.89792E+5   8.87059E+4
  -1.86402E+5   8.75661E+4
  -1.83083E+5   8.61339E+4
  -1.79923E+5   8.46724E+4
  -1.76759E+5   8.25977E+4
  -1.73343E+5   8.10926E+4
  -1.70058E+5   7.99281E+4
  -1.66928E+5   7.87341E+4
  -1.63583E+5   7.73326E+4
  -1.60380E+5   7.61007E+4
  -1.57432E+5   7.52419E+4
  -1.54728E+5   7.39939E+4
  -1.52184E+5   7.23981E+4
  -1.49001E+5   7.06128E+4
  -1.45781E+5   6.93372E+4
  -1.42860E+5   6.84263E+4
  -1.40493E+5   6.72023E+4
  -1.37765E+5   6.58216E+4
  -1.35063E+5   6.45339E+4
  -1.32344E+5   6.32719E+4
  -1.30031E+5   6.19281E+4
  -1.27222E+5   6.07360E+4
  -1.24538E+5   5.95619E+4
  -1.21822E+5   5.83644E+4
  -1.19366E+5   5.72584E+4
  -1.17183E+5   5.61711E+4
  -1.14935E+5   5.53153E+4
  -1.12317E+5   5.36745E+4
  -1.09794E+5   5.26572E+4
  -1.07428E+5   5.17102E+4
  -1.05501E+5   5.07666E+4
  -1.03237E+5   4.93218E+4
  -1.00896E+5   4.84122E+4
  -9.82611E+4   4.74143E+4
  -9.64452E+4   4.66408E+4
  -9.41222E+4   4.51903E+4
  -9.18789E+4   4.40931E+4
  -8.94850E+4   4.34479E+4
  -8.75990E+4   4.23011E+4
  -8.52997E+4   4.18316E+4
  -8.32996E+4   4.09451E+4
  -8.11318E+4   3.98897E+4
  -7.95646E+4   3.88993E+4
  -7.74373E+4   3.80713E+4
  -7.51714E+4   3.73224E+4
  -7.32563E+4   3.68306E+4
  -7.13063E+4   3.58077E+4
  -6.93079E+4   3.48371E+4
  -6.74575E+4   3.41486E+4
  -6.55193E+4   3.33277E+4
  -6.38700E+4   3.24905E+4
  -6.21745E+4   3.16842E+4
  -5.99418E+4   3.09737E+4
  -5.85642E+4   3.04537E+4
  -5.66886E+4   2.95453E+4
  -5.47176E+4   2.89593E+4
  -5.33986E+4   2.83581E+4
  -5.14307E+4   2.78578E+4
  -5.04129E+4   2.70292E+4
  -4.87598E+4   2.64602E+4
  -4.69638E+4   2.57931E+4
  -4.53337E+4   2.53228E+4
  -4.40384E+4   2.46025E+4
  -4.26944E+4   2.38970E+4
  -4.11524E+4   2.35872E+4
  -4.00184E+4   2.28633E+4
  -3.83636E+4   2.24362E+4
  -3.70918E+4   2.17541E+4
  -3.56463E+4   2.14189E+4
  -3.45048E+4   2.08376E+4
  -3.34137E+4   2.03987E+4
  -3.19951E+4   2.00475E+4
  -3.09274E+4   1.96725E+4
  -2.97343E+4   1.90934E+4
  -2.87771E+4   1.84896E+4
  -2.75315E+4   1.78253E+4
  -2.63590E+4   1.77216E+4
  -2.54447E+4   1.75243E+4
  -2.42659E+4   1.68882E+4
  -2.33253E+4   1.63738E+4
  -2.24871E+4   1.62456E+4
  -2.13751E+4   1.57298E+4
  -2.02122E+4   1.51144E+4
  -1.94391E+4   1.48056E+4
  -1.85828E+4   1.48210E+4
  -1.76616E+4   1.44811E+4
  -1.69305E+4   1.42128E+4
  -1.59838E+4   1.38156E+4
  -1.51800E+4   1.34931E+4
  -1.43284E+4   1.33471E+4
  -1.35694E+4   1.30769E+4
  -1.28601E+4   1.28473E+4
  -1.22049E+4   1.26032E+4
  -1.10762E+4   1.22330E+4
  -1.05027E+4   1.21899E+4
  -9.94425E+3   1.21729E+4
  -8.98136E+3   1.18684E+4
  -8.38570E+3   1.18749E+4
  -7.54223E+3   1.17938E+4
  -7.04024E+3   1.15935E+4
  -6.28636E+3   1.15713E+4
  -5.88137E+3   1.10397E+4
  -4.98399E+3   1.11020E+4
  -4.53626E+3   1.09316E+4
  -4.12311E+3   1.07812E+4
  -3.46928E+3   1.06562E+4
  -2.99007E+3   1.07808E+4
  -2.44357E+3   1.08155E+4
  -1.69230E+3   1.03863E+4
  -1.57165E+3   1.03697E+4
  -9.63580E+2   1.04328E+4
  -5.90535E+2   1.03021E+4
  -2.86891E+2   1.02670E+4
   3.85790E+2   1.04065E+4
   5.68439E+2   1.00498E+4
   1.10122E+3   1.03040E+4
   1.32239E+3   1.02437E+4
   1.84978E+3   1.02714E+4
   2.30745E+3   1.01800E+4
   2.38351E+3   1.00849E+4
   2.65531E+3   1.00931E+4
   3.06038E+3   1.01668E+4
   3.29780E+3   1.01536E+4
   3.49297E+3   1.01257E+4
   3.87433E+3   1.01156E+4
   4.17030E+3   1.02455E+4
   4.36530E+3   1.01261E+4
   4.59188E+3   1.01389E+4
   4.42664E+3   1.01671E+4
   4.58265E+3   1.01832E+4
   4.78134E+3   1.00829E+4
   4.78839E+3   1.03084E+4
   5.14882E+3   1.00462E+4
   5.27351E+3   1.01378E+4
   5.44970E+3   1.01170E+4
   5.37035E+3   9.95515E+3
   5.52284E+3   1.02114E+4
   5.52167E+3   1.01296E+4
   5.63926E+3   1.00381E+4
   5.76620E+3   1.00765E+4
   5.68225E+3   1.03992E+4
   5.89090E+3   1.00924E+4
   6.00925E+3   1.01560E+4
   5.88012E+3   1.04189E+4
   5.77588E+3   1.01096E+4
   6.17179E+3   1.01505E+4
   5.95099E+3   1.03544E+4
   6.04557E+3   1.00811E+4
   5.76072E+3   9.99006E+3
   5.70239E+3   1.03308E+4
   5.77291E+3   1.00781E+4
   5.91816E+3   1.02720E+4
   5.89036E+3   1.01002E+4
   6.02978E+3   1.04003E+4
   5.61574E+3   1.03446E+4
   5.67057E+3   1.03280E+4
   5.50771E+3   1.03986E+4
   5.53551E+3   1.01893E+4
   5.47852E+3   1.01953E+4
   5.38258E+3   1.03065E+4
   4.87582E+3   1.00267E+4
   4.94271E+3   1.00042E+4
   5.08727E+3   1.01009E+4
   4.98131E+3   1.01282E+4
   4.83329E+3   1.01793E+4
   4.55139E+3   1.03266E+4
   4.84556E+3   1.03401E+4
   4.19554E+3   9.97918E+3
   4.53179E+3   1.00954E+4
   4.33777E+3   1.00691E+4
   4.40727E+3   1.00075E+4
   4.19647E+3   1.00666E+4
   4.07802E+3   9.92146E+3
   3.85518E+3   9.72547E+3
   3.88420E+3   9.79922E+3
   3.92756E+3   9.61937E+3
   3.84091E+3   9.59886E+3
   3.89528E+3   9.52779E+3
   3.56946E+3   9.46819E+3
   3.48350E+3   9.12099E+3
   3.35935E+3   9.41884E+3
   3.23055E+3   9.15747E+3
   3.20541E+3   9.03164E+3
   3.02745E+3   8.88869E+3
   3.01655E+3   8.82399E+3
   3.03824E+3   9.01743E+3
   2.82785E+3   8.80867E+3
   2.75858E+3   8.47098E+3
   2.42964E+3   8.56038E+3
