 
 $NMID
 ID=''
 FMTDAT='(2E13.5)'
 TRAMP=   1.00000E+0
 VOLUME=   1.00000E+0
 $END
   5.71015E+5   5.37541E+5
   8.65593E+5   1.90590E+6
   1.04307E+6   1.76260E+6
   9.43167E+5   1.68693E+6
   1.01437E+6   1.74368E+6
   1.12607E+6   1.64149E+6
   1.11572E+6   1.57463E+6
   1.15212E+6   1.59711E+6
   1.19145E+6   1.54586E+6
   1.15749E+6   1.51988E+6
   1.17331E+6   1.52295E+6
   1.19877E+6   1.47126E+6
   1.18308E+6   1.45162E+6
   1.18821E+6   1.45962E+6
   1.18630E+6   1.42211E+6
   1.17092E+6   1.40110E+6
   1.18901E+6   1.39853E+6
   1.20283E+6   1.35758E+6
   1.20515E+6   1.32043E+6
   1.23701E+6   1.29435E+6
   1.24822E+6   1.25582E+6
   1.24335E+6   1.22658E+6
   1.26096E+6   1.20405E+6
   1.26925E+6   1.17215E+6
   1.25852E+6   1.15046E+6
   1.26679E+6   1.12385E+6
   1.26850E+6   1.10325E+6
   1.25443E+6   1.09628E+6
   1.24744E+6   1.07926E+6
   1.24829E+6   1.04811E+6
   1.24792E+6   1.03118E+6
   1.25060E+6   1.00734E+6
   1.25060E+6   9.72120E+5
   1.25492E+6   9.44527E+5
   1.26077E+6   9.14648E+5
   1.26411E+6   8.75910E+5
   1.26944E+6   8.42662E+5
   1.27501E+6   8.15527E+5
   1.26863E+6   7.88276E+5
   1.26323E+6   7.63745E+5
   1.26017E+6   7.40106E+5
   1.25253E+6   7.19477E+5
   1.24308E+6   6.99755E+5
   1.23689E+6   6.78304E+5
   1.22929E+6   6.59021E+5
   1.22198E+6   6.43909E+5
   1.21352E+6   6.24493E+5
   1.20424E+6   6.01186E+5
   1.19754E+6   5.76932E+5
   1.19229E+6   5.54270E+5
   1.18413E+6   5.29275E+5
   1.17768E+6   5.04578E+5
   1.17219E+6   4.82109E+5
   1.16347E+6   4.62306E+5
   1.15250E+6   4.41120E+5
   1.14387E+6   4.20990E+5
   1.13284E+6   4.05499E+5
   1.11903E+6   3.89362E+5
   1.10702E+6   3.70259E+5
   1.09865E+6   3.53289E+5
   1.08731E+6   3.39375E+5
   1.07396E+6   3.23289E+5
   1.06261E+6   3.05893E+5
   1.05182E+6   2.89880E+5
   1.03885E+6   2.74199E+5
   1.02529E+6   2.56877E+5
   1.01308E+6   2.39736E+5
   1.00067E+6   2.24283E+5
   9.87714E+5   2.09995E+5
   9.74833E+5   1.96459E+5
   9.62382E+5   1.83406E+5
   9.49203E+5   1.71294E+5
   9.35065E+5   1.58921E+5
   9.22052E+5   1.47190E+5
   9.08925E+5   1.36133E+5
   8.94587E+5   1.24608E+5
   8.80278E+5   1.12781E+5
   8.67168E+5   1.01018E+5
   8.54521E+5   9.00715E+4
   8.40407E+5   7.98862E+4
   8.26028E+5   6.91397E+4
   8.12517E+5   5.88253E+4
   7.98938E+5   5.02540E+4
   7.84649E+5   4.27841E+4
   7.70646E+5   3.50186E+4
   7.57361E+5   2.82446E+4
   7.43708E+5   2.16260E+4
   7.30235E+5   1.49762E+4
   7.17055E+5   8.66295E+3
   7.03831E+5   2.64795E+3
   6.89942E+5  -4.04694E+3
   6.76632E+5  -1.17019E+4
   6.63886E+5  -1.83471E+4
   6.50569E+5  -2.50876E+4
   6.36809E+5  -3.19356E+4
   6.23944E+5  -3.98930E+4
   6.11090E+5  -4.58878E+4
   5.98316E+5  -5.20270E+4
   5.85000E+5  -5.75426E+4
   5.72560E+5  -6.31079E+4
   5.60192E+5  -6.78694E+4
   5.47672E+5  -7.18563E+4
   5.35095E+5  -7.60722E+4
   5.22793E+5  -7.95616E+4
   5.10383E+5  -8.36072E+4
   4.98605E+5  -8.76701E+4
   4.87026E+5  -9.16410E+4
   4.75161E+5  -9.45674E+4
   4.62952E+5  -9.75900E+4
   4.50662E+5  -1.01541E+5
   4.39591E+5  -1.05342E+5
   4.28728E+5  -1.08272E+5
   4.17561E+5  -1.10381E+5
   4.06171E+5  -1.12617E+5
   3.95588E+5  -1.14742E+5
   3.84976E+5  -1.16205E+5
   3.73813E+5  -1.17911E+5
   3.63480E+5  -1.19463E+5
   3.52997E+5  -1.21177E+5
   3.42442E+5  -1.22353E+5
   3.31859E+5  -1.24100E+5
   3.22435E+5  -1.25804E+5
   3.12536E+5  -1.26791E+5
   3.02787E+5  -1.27418E+5
   2.92877E+5  -1.28580E+5
   2.83521E+5  -1.29380E+5
   2.74337E+5  -1.29371E+5
   2.64960E+5  -1.29534E+5
   2.56024E+5  -1.29894E+5
   2.47474E+5  -1.30340E+5
   2.39340E+5  -1.29631E+5
   2.30924E+5  -1.29275E+5
   2.22510E+5  -1.29433E+5
   2.14682E+5  -1.29083E+5
   2.06296E+5  -1.28808E+5
   1.98251E+5  -1.28378E+5
   1.90608E+5  -1.28201E+5
   1.83007E+5  -1.27909E+5
   1.75625E+5  -1.27542E+5
   1.67850E+5  -1.27539E+5
   1.60777E+5  -1.27385E+5
   1.53811E+5  -1.26693E+5
   1.46570E+5  -1.26330E+5
   1.39321E+5  -1.25726E+5
   1.32977E+5  -1.25316E+5
   1.26113E+5  -1.24421E+5
   1.19750E+5  -1.23577E+5
   1.13196E+5  -1.23071E+5
   1.07115E+5  -1.22174E+5
   1.00605E+5  -1.21453E+5
   9.47910E+4  -1.20948E+5
   8.89522E+4  -1.20377E+5
   8.31885E+4  -1.19558E+5
   7.71158E+4  -1.18392E+5
   7.14288E+4  -1.17821E+5
   6.59234E+4  -1.17055E+5
   6.05110E+4  -1.16420E+5
   5.49672E+4  -1.15624E+5
   4.95198E+4  -1.15057E+5
   4.43829E+4  -1.14021E+5
   3.95329E+4  -1.13009E+5
   3.44877E+4  -1.12054E+5
   3.00089E+4  -1.11221E+5
   2.51356E+4  -1.10203E+5
   2.06487E+4  -1.09318E+5
   1.61094E+4  -1.08077E+5
   1.19297E+4  -1.07225E+5
   7.37602E+3  -1.05893E+5
   3.18930E+3  -1.04913E+5
  -1.02780E+3  -1.04246E+5
  -4.91688E+3  -1.03204E+5
  -8.59354E+3  -1.02010E+5
  -1.28365E+4  -1.00787E+5
  -1.60434E+4  -9.99168E+4
  -1.96366E+4  -9.88965E+4
  -2.28044E+4  -9.73803E+4
  -2.62331E+4  -9.62993E+4
  -2.94994E+4  -9.51883E+4
  -3.22941E+4  -9.40688E+4
  -3.53219E+4  -9.28672E+4
  -3.80194E+4  -9.22692E+4
  -4.10595E+4  -9.09453E+4
  -4.34836E+4  -9.00572E+4
  -4.61060E+4  -8.90155E+4
  -4.83821E+4  -8.79896E+4
  -5.06981E+4  -8.67021E+4
  -5.30269E+4  -8.56221E+4
  -5.51371E+4  -8.49628E+4
  -5.73227E+4  -8.38529E+4
  -5.93260E+4  -8.26827E+4
  -6.15533E+4  -8.19486E+4
  -6.32635E+4  -8.11659E+4
  -6.49947E+4  -8.04567E+4
  -6.65236E+4  -7.96307E+4
  -6.79426E+4  -7.90488E+4
  -6.94804E+4  -7.83346E+4
  -7.08710E+4  -7.75986E+4
  -7.22952E+4  -7.68742E+4
  -7.37985E+4  -7.65773E+4
  -7.48121E+4  -7.59755E+4
  -7.58274E+4  -7.56234E+4
  -7.68122E+4  -7.51020E+4
  -7.75927E+4  -7.45097E+4
  -7.86477E+4  -7.39786E+4
  -7.94616E+4  -7.35650E+4
  -8.07710E+4  -7.32432E+4
  -8.10582E+4  -7.29134E+4
  -8.15879E+4  -7.26517E+4
  -8.26245E+4  -7.19703E+4
  -8.33829E+4  -7.18970E+4
  -8.37601E+4  -7.17325E+4
  -8.41399E+4  -7.13997E+4
  -8.49818E+4  -7.10356E+4
  -8.56450E+4  -7.09090E+4
  -8.60388E+4  -7.09838E+4
  -8.61933E+4  -7.04413E+4
  -8.65239E+4  -7.02341E+4
  -8.69693E+4  -7.00224E+4
  -8.72164E+4  -6.97151E+4
  -8.78210E+4  -6.95650E+4
  -8.79185E+4  -6.94374E+4
  -8.82794E+4  -6.90886E+4
  -8.83462E+4  -6.89163E+4
  -8.87090E+4  -6.87106E+4
  -8.87969E+4  -6.85325E+4
  -8.87925E+4  -6.82657E+4
  -8.87872E+4  -6.75501E+4
  -8.87408E+4  -6.73012E+4
  -8.89245E+4  -6.73214E+4
  -8.89337E+4  -6.71545E+4
  -8.87706E+4  -6.69295E+4
  -8.87426E+4  -6.66574E+4
  -8.85270E+4  -6.62906E+4
  -8.84353E+4  -6.60918E+4
  -8.84452E+4  -6.56620E+4
  -8.83749E+4  -6.53149E+4
  -8.79056E+4  -6.50263E+4
  -8.79027E+4  -6.45019E+4
  -8.77817E+4  -6.44388E+4
  -8.71999E+4  -6.40462E+4
  -8.70282E+4  -6.32640E+4
  -8.66715E+4  -6.31242E+4
  -8.65380E+4  -6.25247E+4
  -8.61580E+4  -6.23469E+4
  -8.56984E+4  -6.19882E+4
  -8.53834E+4  -6.14846E+4
  -8.52359E+4  -6.09344E+4
  -8.41848E+4  -6.09550E+4
  -8.36912E+4  -6.03223E+4
  -8.33364E+4  -5.95830E+4
  -8.27618E+4  -5.92809E+4
  -8.22992E+4  -5.91259E+4
  -8.17150E+4  -5.88772E+4
  -8.09823E+4  -5.84110E+4
  -8.00718E+4  -5.80916E+4
  -7.93493E+4  -5.77272E+4
  -7.90549E+4  -5.73072E+4
  -7.82388E+4  -5.69194E+4
  -7.76149E+4  -5.66032E+4
  -7.66491E+4  -5.65523E+4
  -7.60324E+4  -5.61885E+4
  -7.49193E+4  -5.58652E+4
  -7.40218E+4  -5.54644E+4
  -7.33989E+4  -5.52462E+4
  -7.24031E+4  -5.47367E+4
  -7.15907E+4  -5.45211E+4
  -7.06386E+4  -5.40550E+4
  -6.97932E+4  -5.40586E+4
  -6.87318E+4  -5.37716E+4
  -6.78516E+4  -5.32736E+4
  -6.69837E+4  -5.27327E+4
  -6.57956E+4  -5.25651E+4
  -6.49113E+4  -5.21706E+4
  -6.40726E+4  -5.19847E+4
  -6.29890E+4  -5.16711E+4
  -6.18399E+4  -5.14413E+4
  -6.06634E+4  -5.12069E+4
  -5.97445E+4  -5.09237E+4
  -5.85636E+4  -5.03884E+4
  -5.75854E+4  -5.00090E+4
  -5.67323E+4  -5.01707E+4
  -5.54503E+4  -4.99606E+4
  -5.43880E+4  -4.94802E+4
  -5.32259E+4  -4.90384E+4
  -5.22981E+4  -4.90176E+4
  -5.11304E+4  -4.86968E+4
  -5.00304E+4  -4.83989E+4
  -4.87875E+4  -4.75870E+4
  -4.79726E+4  -4.73649E+4
  -4.70993E+4  -4.72261E+4
  -4.59724E+4  -4.68297E+4
  -4.46314E+4  -4.65542E+4
  -4.34235E+4  -4.60865E+4
  -4.23959E+4  -4.59025E+4
  -4.15258E+4  -4.53067E+4
  -4.03289E+4  -4.47968E+4
  -3.92425E+4  -4.46223E+4
  -3.83518E+4  -4.40205E+4
  -3.70788E+4  -4.39790E+4
  -3.59511E+4  -4.38682E+4
  -3.47592E+4  -4.29444E+4
  -3.39289E+4  -4.26877E+4
  -3.28470E+4  -4.24921E+4
  -3.15436E+4  -4.19703E+4
  -3.06438E+4  -4.17525E+4
  -2.98019E+4  -4.12191E+4
  -2.87514E+4  -4.07153E+4
  -2.76775E+4  -4.03332E+4
  -2.62519E+4  -4.02339E+4
  -2.55049E+4  -3.95736E+4
  -2.42735E+4  -3.92050E+4
  -2.36242E+4  -3.90111E+4
  -2.25848E+4  -3.85684E+4
  -2.13901E+4  -3.82590E+4
  -2.02887E+4  -3.77425E+4
  -1.93040E+4  -3.73419E+4
  -1.84051E+4  -3.71289E+4
  -1.76223E+4  -3.64492E+4
  -1.65807E+4  -3.62589E+4
  -1.56832E+4  -3.57101E+4
  -1.47496E+4  -3.54917E+4
  -1.39831E+4  -3.50766E+4
  -1.27699E+4  -3.45492E+4
  -1.19856E+4  -3.42833E+4
  -1.10101E+4  -3.40065E+4
  -1.01215E+4  -3.33936E+4
  -9.36542E+3  -3.30780E+4
  -8.35499E+3  -3.29424E+4
  -7.35490E+3  -3.22900E+4
  -6.70665E+3  -3.19135E+4
  -5.92729E+3  -3.16101E+4
  -5.17037E+3  -3.09243E+4
  -4.18231E+3  -3.06101E+4
  -3.33106E+3  -3.02920E+4
  -2.53884E+3  -2.98671E+4
  -1.95239E+3  -2.96849E+4
  -1.01993E+3  -2.93225E+4
  -1.30703E+2  -2.87107E+4
   4.19976E+2  -2.83468E+4
   9.99976E+2  -2.81464E+4
   1.84699E+3  -2.76199E+4
   2.54491E+3  -2.73807E+4
   3.36549E+3  -2.68096E+4
   3.87058E+3  -2.65743E+4
   4.72818E+3  -2.61844E+4
   5.32106E+3  -2.54784E+4
   5.74705E+3  -2.51697E+4
   6.56554E+3  -2.47540E+4
   6.92704E+3  -2.44317E+4
   7.44154E+3  -2.41404E+4
   8.42618E+3  -2.37582E+4
   8.92650E+3  -2.32052E+4
   9.48861E+3  -2.25199E+4
   9.86589E+3  -2.25099E+4
   1.04349E+4  -2.18939E+4
   1.10118E+4  -2.17307E+4
   1.15409E+4  -2.11365E+4
   1.20165E+4  -2.11438E+4
   1.20773E+4  -2.06784E+4
   1.28454E+4  -2.04048E+4
   1.34450E+4  -1.99091E+4
   1.37994E+4  -1.94430E+4
   1.41180E+4  -1.92199E+4
   1.45119E+4  -1.87663E+4
   1.46099E+4  -1.84864E+4
   1.52309E+4  -1.80736E+4
   1.54911E+4  -1.77091E+4
