 
 $NMID
 ID=''
 FMTDAT='(2E13.5)'
 TRAMP=   1.00000E+0
 VOLUME=   1.00000E+0
 $END
  -3.06559E+3   1.97271E+4
   1.41450E+4   3.25144E+4
   4.07545E+4  -4.48509E+3
   1.33165E+3  -3.48359E+4
  -3.92822E+4  -7.25384E+3
  -1.22414E+4   2.78801E+4
   2.78884E+4   1.68460E+4
   2.00656E+4  -1.47841E+4
  -1.22509E+4  -1.97102E+4
  -2.26841E+4   4.27262E+3
  -2.63675E+3   1.97018E+4
   1.64092E+4   5.15572E+3
   6.78325E+3  -1.39361E+4
  -1.13933E+4  -1.05835E+4
  -8.96353E+3   3.67926E+3
   4.08528E+3   8.89055E+3
   7.06542E+3   2.61184E+3
   1.75334E+3  -6.16977E+3
  -3.10497E+3  -4.88883E+3
  -3.80624E+3   3.21697E+3
  -1.07273E+3   4.06667E+3
   2.88088E+3  -2.58203E+2
   2.80359E+3  -5.83552E+2
  -1.52725E+3  -5.24559E+2
  -3.00028E+3  -1.98984E+3
   9.77467E+2   1.33708E+3
   2.21631E+3   3.49273E+3
  -5.75684E+2  -4.35928E+1
  -1.47729E+3  -3.62135E+3
   1.74129E+2  -9.69894E+2
  -1.55750E+2   2.68691E+3
  -1.03249E+3   1.72801E+3
  -3.60411E+2  -1.84717E+3
   5.39071E+2  -3.18091E+3
   1.28090E+3  -9.31265E+2
   8.08928E+2   1.85821E+3
  -3.91569E+2   1.65278E+3
  -4.91841E+1  -4.26602E+2
   7.28602E+2  -5.66648E+2
  -6.57849E+2  -8.62220E+1
  -1.30167E+3  -8.58721E+2
   6.66829E+2  -1.11437E+3
   2.26734E+3   3.17882E+2
   4.48567E+2   3.84789E+2
  -3.70014E+2  -3.64503E+2
  -1.52380E+2   5.36801E+2
  -6.70779E+2   1.38158E+3
  -1.97865E+3  -9.98024E+2
  -3.84140E+2  -2.39520E+3
   8.47112E+2  -1.24900E+3
   5.81416E+2   4.69241E+2
   4.04016E+2  -1.06042E+2
   4.65664E+2  -3.23167E+2
   9.97441E+1   6.16850E+2
  -3.91392E+2   1.02781E+3
  -5.80805E+2   7.31359E+0
  -2.79487E+2  -1.46464E+3
   6.29316E+2  -1.11595E+3
   5.59713E+2   1.76004E+2
   3.17559E+2   6.01957E+2
   1.13916E+2   3.77784E+2
   3.66818E+2   5.70811E+2
  -9.48044E+2   1.04253E+3
  -2.03257E+3   9.09092E+1
  -1.14478E+3  -1.18862E+3
   9.13259E+2  -9.76953E+2
   9.88908E+2  -3.36743E+2
   5.41576E+2  -2.63939E+2
   5.05269E+2   2.48771E+2
   3.23181E+2   8.32958E+2
  -2.04954E+2   2.10549E+2
   8.64238E+1  -1.62187E+2
   5.35428E+2   6.40701E+2
  -1.38317E+2   9.19155E+2
  -8.40925E+2   2.40090E+2
  -1.68564E+2  -3.66405E+2
   3.69657E+2   1.46804E+2
  -1.92763E+2   7.56486E+2
  -6.59538E+2   3.46481E+2
  -4.52124E+2  -3.07923E+2
  -4.02256E+1  -1.44971E+1
   3.03784E+2   2.78673E+2
   3.11868E+1   1.45910E+2
  -1.15051E+1  -3.06531E+2
   2.68413E+2  -2.03311E+2
   4.25835E+2   3.14428E+2
   5.32371E+2   7.94089E+2
   1.73254E+2   5.16939E+2
   1.14312E+2   1.42302E+2
   3.98066E+1   4.25099E+2
   1.60643E+2   6.49726E+2
  -2.89041E+2   7.64921E+2
  -2.71649E+2   1.78499E+2
  -3.88338E+2  -4.68669E+2
   1.46486E+2  -4.22436E+2
   6.87750E+2  -7.45859E+1
   4.67922E+2   4.10482E+2
   9.47602E+1   3.67067E+2
   2.54899E+2   5.04033E+1
   7.23022E+2   1.85504E+2
   2.98565E+2   1.00068E+3
  -3.99186E+2   4.65486E+2
  -2.33326E+2  -2.69890E+2
   5.87259E+2  -3.37234E+2
   6.57817E+2  -2.78127E+1
   5.50529E+1   5.14055E+2
  -2.94065E+2   4.66614E+2
  -1.44975E+2  -2.47269E+2
   3.23021E+2  -8.34048E+2
   8.00057E+2  -2.38799E+2
   6.43376E+2   6.66197E+2
   3.18831E+2   7.48990E+2
  -2.00704E+2   2.82903E+2
   1.38191E+2   4.75994E+0
  -7.62144E+1   1.83967E+1
  -3.45229E+2   6.61234E+1
  -4.12328E+2  -6.56785E+1
   1.43545E+2  -7.96005E+2
   5.64231E+2  -9.19931E+2
   9.21887E+2   3.53782E+1
   4.19603E+2   6.13464E+2
   1.81382E+2   5.69593E+2
  -5.61763E+1   2.30388E+2
  -3.02914E+2   5.04586E+1
  -4.31313E+2  -1.21191E+2
   1.08763E+1  -5.81079E+2
   3.47991E+2  -5.07466E+2
   4.42296E+2  -2.12272E+2
   9.63379E+1   5.58316E+1
  -1.76082E+2   3.06843E+2
  -2.43131E+2   1.50622E+2
  -1.70087E+2  -3.34760E+2
   2.00684E+2  -3.84110E+2
  -4.81211E+0   2.19280E+2
   1.33126E+2  -3.46041E+2
   2.02078E+2  -1.37217E+2
   1.88399E+2  -9.56071E+1
   9.78772E+1   2.82302E+2
  -3.42864E+2   5.05206E+2
  -3.55484E+2  -1.80642E+2
  -1.55228E+2  -3.22004E+2
   1.19664E+2  -2.70125E+2
   2.60909E+2   1.32173E+2
   2.83266E+2   3.70243E+2
  -1.80306E+2   4.43310E+2
  -5.08753E+2   8.33870E+0
  -1.74078E+2  -4.10711E+2
  -2.60093E+2  -1.70777E+2
  -1.87947E+2   1.43156E+2
  -4.63396E+1  -3.35976E+2
   1.00124E+2  -2.44792E+2
   3.97537E+2  -2.09713E+2
   8.01094E+1   3.38362E+2
  -8.69596E+1   4.05384E+2
  -1.81320E+2   2.19270E+2
  -1.39316E+2   1.48300E+2
  -5.43616E+1   4.42156E+2
  -2.38829E+2   1.91057E+2
  -1.07066E+2  -1.94374E+2
  -2.83257E+1  -4.28039E+1
  -2.17682E+2   1.34426E+2
  -3.73867E+2  -4.98973E+0
  -2.98533E+2  -2.58017E+2
  -9.75094E+1   2.07452E+1
   3.30959E+2   9.89229E+1
  -6.01056E+1  -1.53168E+2
  -1.39075E+2   2.47837E+2
  -3.00969E+2   1.08274E+2
  -3.09269E+2  -7.16912E+1
   4.28079E+1  -4.06606E+1
   1.69754E+1   1.25142E+2
  -1.62488E+2  -4.84270E-1
  -6.18305E+1   5.86455E+1
  -2.49708E+2  -1.98700E+2
   1.62805E+2   7.38592E+1
  -1.49540E+2  -9.16341E+1
  -1.49360E+2   1.65620E+2
  -3.03943E+2  -4.18486E+2
  -3.40242E+1  -1.13353E+1
   3.13847E+2   1.49638E+2
  -8.38439E+1   3.95513E+2
  -2.34312E+2   2.91774E+2
  -1.07587E+2   8.58785E+0
  -1.56209E+2  -1.13681E+2
  -3.30705E+1  -4.57168E+0
  -1.82220E+2  -2.30830E+2
  -7.99097E+0  -3.36181E+2
   1.36687E+2   6.10099E+1
   2.36748E+2   1.39489E+2
   7.18074E+1   4.33267E+2
  -3.24092E+2   1.86045E+2
  -3.67813E+2  -5.23767E+1
  -2.85410E+2  -2.95018E+2
   1.24284E+2  -2.89231E+2
   2.20301E+2  -2.26659E+2
   2.35777E+2  -1.23985E+2
  -2.36505E+2  -1.03152E+2
  -4.89575E+1  -8.73424E+1
  -3.78241E+1   1.45179E+2
  -1.89781E+2  -1.37504E+1
  -2.98348E+2  -2.14429E+2
   7.49720E+1  -4.03860E+2
   3.64435E+2  -1.35120E+2
   2.02348E+2  -1.81478E+1
  -6.06897E+1   5.69343E+1
  -7.60313E+1  -2.60104E+0
  -1.63657E+2   2.07823E+2
  -6.83237E+1  -2.15373E+2
  -9.43816E+1  -6.64826E+1
   1.54945E+1   1.39480E+1
  -1.28313E+2  -2.30246E+2
   3.55995E+2  -2.14001E+1
   1.98573E+2   3.73589E+2
  -2.03278E+2   1.88164E+2
  -4.79700E+2  -6.14468E+1
  -3.12073E+2  -3.05368E+2
   2.04242E+1  -3.94405E+2
   2.15794E+2  -7.13283E+0
   2.62843E+2   4.38301E+1
  -5.35272E+1  -9.85977E+1
   2.20211E+2   9.87503E+1
   1.72628E+2   2.32084E+2
  -1.01385E+2   2.85419E+2
  -1.85121E+2   2.36217E+1
  -3.05622E+2  -1.70276E+2
   9.42219E+1  -3.82522E+2
   2.17013E+2  -1.07535E+2
  -8.11504E+1   1.84012E+2
  -3.09845E+1   6.89742E+1
   2.45077E+0  -3.31452E-1
   2.93584E+2  -4.20840E+1
   1.77564E+2  -1.70695E+2
  -8.38938E+1   2.36723E+2
  -1.24583E+2  -2.26175E+2
   8.09867E+1  -1.55044E+2
  -2.54292E+0  -3.00062E+2
   2.13668E+1   1.20004E+2
   1.57638E+2  -5.00760E+1
   1.74825E-1  -2.26065E+2
   1.22969E+2  -1.02293E+2
   1.85840E+2  -9.01160E+1
   1.14977E+2   6.14126E+1
  -1.93971E+2  -8.16677E+1
  -3.05458E+2  -8.46307E+1
  -9.22583E+1  -3.14972E+2
   1.92872E+2  -3.45996E+1
   9.19225E+1  -8.69440E+1
  -4.80038E+1  -4.89260E+1
   1.23873E+2  -4.33693E+1
   1.11177E+2  -8.32922E+1
   1.49272E+2  -6.68381E+1
   1.35040E+1   1.28307E+2
  -1.06619E+2  -5.17330E+1
   2.29830E+2  -2.46744E+2
   3.71275E+2  -1.51154E+2
   2.38657E+2   2.26075E+1
  -1.37652E+1   8.11769E+1
   5.79676E+1   1.63796E+2
  -5.83107E+1   2.48979E+1
  -1.13466E+2  -2.93935E+1
  -2.57681E+2  -1.78593E+2
  -1.40128E+2  -2.27926E+2
  -8.07054E+0  -2.75940E+2
   3.56649E+2  -1.71368E+2
   3.08064E+2   2.59390E+1
  -1.31273E+2   2.40806E+2
  -2.61178E+2   1.97420E+2
  -1.72942E+2  -1.61079E+2
  -1.42745E+1  -3.64756E+2
  -1.38364E+2  -1.82004E+2
  -9.95949E+0  -8.25367E+1
   3.92608E+2   7.47837E+1
   1.40787E+2   3.42707E+0
   8.58519E+1   1.22300E+2
  -9.42479E+1  -8.81121E+0
  -2.76395E+2  -4.35015E+1
  -2.21318E+2  -1.68877E+2
  -8.99011E+1  -1.32977E+2
   1.10106E+2  -9.79129E+1
   1.79292E+2  -9.27884E+1
  -1.20265E+2   1.71267E+1
   1.26310E+2   2.66048E+1
   7.25721E+1  -1.32616E+2
  -4.36497E+1   7.52024E+1
  -2.79633E+2   7.67962E+0
  -6.20295E+1  -1.77076E+2
   2.09359E+2  -4.01694E+2
   1.25085E+2  -3.48619E+1
   1.41367E+2   1.09943E+2
   4.57709E+1   1.59431E+2
   8.42732E+0   1.50641E+2
  -1.96726E+2  -8.47453E+1
  -1.04984E+1  -9.90854E+1
   7.08313E+1  -1.29320E+2
  -5.66173E+0  -1.00402E+2
  -9.74488E-1  -4.06717E+2
   9.71898E+1   9.69803E+1
  -1.05229E+2   2.85579E+1
  -2.25892E+1   8.93101E+1
  -1.71046E+1   1.50023E+2
  -3.50258E+1   6.59925E+1
  -1.10182E+2   1.52067E+1
  -1.42022E+2   3.49928E+2
  -2.43512E+2   2.35091E+1
  -1.02580E+2  -1.42694E+2
   1.13934E+2  -1.27194E+2
   2.57869E+2   1.19485E+2
   1.22638E+2   5.64598E+0
   1.28699E+2   1.52087E+2
  -6.50945E+1   8.03627E+1
   1.86851E+1  -1.35635E+2
  -6.47787E+1   1.54953E+2
  -1.77830E+2   2.46843E+1
   7.87010E+1   4.02123E+1
   4.99476E+1  -1.43890E+2
   6.80433E+1   3.63557E+1
  -3.32912E+1  -1.92842E+1
   1.63269E+2  -1.55536E+2
  -1.14502E+1  -3.87936E+1
   7.42932E+1  -9.67523E+1
   1.83270E+2  -1.88564E+2
   1.41676E+2   9.90151E+1
   9.20988E+1   3.82496E+0
  -4.03636E+0   9.61915E+1
   7.58961E+1  -1.41501E+2
   1.28838E+2   1.70234E+2
   1.70800E+1   1.82751E+2
  -2.31344E+2  -9.90247E+1
  -6.20855E+1  -1.95227E+2
   1.47891E+2  -3.30997E+2
  -7.63021E+1  -9.67622E+1
   2.77182E+2   3.47846E+1
  -8.84966E+1   2.49402E+2
   3.69101E+2   5.45665E+1
  -1.00115E+2   2.09316E+2
  -2.90017E+2   1.38153E+2
  -9.42104E+1   2.11078E+2
  -4.07187E+1  -3.30670E+2
   2.12436E+2  -1.99699E-1
   2.97218E+2   1.96416E+2
  -1.25235E+1   1.30412E+2
   7.56887E+1   2.53836E+2
  -8.96616E+1   3.86344E+1
  -1.98730E+1  -2.69745E+1
  -5.71194E+1  -1.56960E+2
   2.26139E+1  -5.50215E+1
   2.23128E+2  -1.25580E+2
   1.67862E+2  -3.74149E+2
   2.24441E+2   1.96163E+2
   1.05973E+2   1.10875E+2
   7.78192E+0  -1.98184E+2
   9.62466E+1  -1.91618E+2
  -5.28041E+1  -3.88639E+1
   1.57418E+2   1.31093E+2
  -3.29186E+2   1.75579E+2
   1.08734E+2  -6.85422E+1
   2.61895E+2   9.04731E+1
   1.22003E+2  -1.52954E+2
   2.30727E+2   6.25689E+1
  -4.51804E+1   1.02435E+2
  -2.31110E+2   1.32090E+2
  -1.54485E+1  -1.45131E+2
   9.81842E+1   3.59449E+1
   1.80312E+2   1.47701E+2
   9.63075E+1   5.08399E+1
  -5.58490E+0   4.25214E+1
   1.14530E+2   9.26055E+1
