 LCModel (Version 6.3-1N) Copyright: S.W. Provencher.          Ref.: Magn. Reson. Med. 30:672-679 (1993).                
 Slice_N1@13_12  28-Feb-2025 11:39:48
 27 lines in following concentration table = NCONC+1
    Conc.  %SD /Cr+PCr  Metabolite                                         
 3.46E-04   5% 3.6E-04 Mac                                                 
    3.789  42%   3.903 Cr                                                  
    3.978  40%   4.097 PCr                                                 
    5.516  20%   5.681 Ins                                                 
    9.231  10%   9.507 NAA                                                 
    7.317  16%   7.536 Tau                                                 
    1.331  28%   1.371 PCho                                                
    0.000 999%   0.000 GPC                                                 
    7.847  17%   8.082 Glu                                                 
    5.706  18%   5.877 Gln                                                 
    6.004  17%   6.184 Ala                                                 
    0.245 611%   0.252 Asc                                                 
    1.826  48%   1.881 Asp                                                 
    0.218 229%   0.225 GABA                                                
    0.655  86%   0.675 Glc                                                 
    0.387 156%   0.398 GSH                                                 
    0.808 111%   0.833 Lac                                                 
    2.168  33%   2.233 NAAG                                                
    1.891  78%   1.948 PE                                                  
    1.331  28%   1.371 GPC+PCho                                            
   11.399   9%  11.741 NAA+NAAG                                            
   13.553  12%  13.959 Glu+Gln                                             
    7.767  11%   8.000 Cr+PCr                                              
   11.399   9%  11.741 NAA+NAAG                                            
    7.767  11%   8.000 Cr+PCr                                              
   13.553  12%  13.959 Glu+Gln                                             
   6 lines in following misc. output table
  FWHM = 0.024 ppm    S/N =   3                                            
  Data shift = 0.024 ppm                                                   
  Ph: 148 deg       0.0 deg/ppm                                            
  alphaB,S = 1.2E-01,   1.2E+01                                            
   19 spline knots.   Ns = 5(1)                                            
  ( 3) 3 infls.   ( 4) 2 extrs.                                            
  480 points on ppm-axis = NY
      4.100000     4.091866     4.083733     4.075600     4.067466     4.059333     4.051199     4.043066     4.034933     4.026799
      4.018666     4.010532     4.002399     3.994265     3.986132     3.977998     3.969864     3.961731     3.953597     3.945463
      3.937330     3.929196     3.921062     3.912929     3.904795     3.896662     3.888528     3.880394     3.872261     3.864127
      3.855993     3.847860     3.839726     3.831592     3.823459     3.815325     3.807191     3.799058     3.790924     3.782790
      3.774657     3.766523     3.758389     3.750256     3.742122     3.733989     3.725855     3.717721     3.709588     3.701454
      3.693320     3.685187     3.677053     3.668919     3.660786     3.652652     3.644518     3.636385     3.628251     3.620117
      3.611984     3.603850     3.595716     3.587583     3.579449     3.571316     3.563182     3.555048     3.546915     3.538781
      3.530647     3.522514     3.514380     3.506246     3.498113     3.489979     3.481845     3.473712     3.465578     3.457444
      3.449311     3.441177     3.433043     3.424910     3.416776     3.408643     3.400509     3.392375     3.384242     3.376108
      3.367974     3.359841     3.351707     3.343573     3.335440     3.327306     3.319172     3.311039     3.302905     3.294771
      3.286638     3.278504     3.270370     3.262237     3.254103     3.245970     3.237836     3.229702     3.221569     3.213435
      3.205301     3.197168     3.189034     3.180900     3.172767     3.164633     3.156499     3.148366     3.140232     3.132098
      3.123965     3.115831     3.107697     3.099564     3.091430     3.083297     3.075163     3.067029     3.058896     3.050762
      3.042628     3.034495     3.026361     3.018227     3.010094     3.001960     2.993826     2.985693     2.977559     2.969425
      2.961292     2.953158     2.945024     2.936891     2.928757     2.920624     2.912490     2.904356     2.896223     2.888089
      2.879955     2.871822     2.863688     2.855554     2.847421     2.839287     2.831153     2.823020     2.814886     2.806752
      2.798619     2.790485     2.782351     2.774218     2.766084     2.757951     2.749817     2.741683     2.733550     2.725416
      2.717282     2.709149     2.701015     2.692881     2.684748     2.676614     2.668480     2.660347     2.652213     2.644079
      2.635946     2.627812     2.619678     2.611545     2.603411     2.595278     2.587144     2.579010     2.570877     2.562743
      2.554609     2.546476     2.538342     2.530208     2.522075     2.513941     2.505807     2.497674     2.489540     2.481406
      2.473273     2.465139     2.457006     2.448872     2.440738     2.432605     2.424471     2.416337     2.408204     2.400070
      2.391936     2.383803     2.375669     2.367535     2.359402     2.351268     2.343134     2.335001     2.326867     2.318733
      2.310600     2.302466     2.294333     2.286199     2.278065     2.269932     2.261798     2.253664     2.245531     2.237397
      2.229263     2.221130     2.212996     2.204862     2.196729     2.188595     2.180461     2.172328     2.164194     2.156060
      2.147927     2.139793     2.131660     2.123526     2.115392     2.107259     2.099125     2.090991     2.082858     2.074724
      2.066590     2.058457     2.050323     2.042189     2.034056     2.025922     2.017788     2.009655     2.001521     1.993387
      1.985254     1.977120     1.968987     1.960853     1.952719     1.944586     1.936452     1.928318     1.920185     1.912051
      1.903917     1.895784     1.887650     1.879516     1.871383     1.863249     1.855115     1.846982     1.838848     1.830714
      1.822581     1.814447     1.806314     1.798180     1.790046     1.781913     1.773779     1.765645     1.757512     1.749378
      1.741244     1.733111     1.724977     1.716843     1.708710     1.700576     1.692442     1.684309     1.676175     1.668041
      1.659908     1.651774     1.643641     1.635507     1.627373     1.619240     1.611106     1.602972     1.594839     1.586705
      1.578571     1.570438     1.562304     1.554170     1.546037     1.537903     1.529769     1.521636     1.513502     1.505368
      1.497235     1.489101     1.480968     1.472834     1.464700     1.456567     1.448433     1.440299     1.432166     1.424032
      1.415898     1.407765     1.399631     1.391497     1.383364     1.375230     1.367096     1.358963     1.350829     1.342695
      1.334562     1.326428     1.318295     1.310161     1.302027     1.293894     1.285760     1.277626     1.269493     1.261359
      1.253225     1.245092     1.236958     1.228824     1.220691     1.212557     1.204423     1.196290     1.188156     1.180022
      1.171889     1.163755     1.155622     1.147488     1.139354     1.131221     1.123087     1.114953     1.106820     1.098686
      1.090552     1.082419     1.074285     1.066151     1.058018     1.049884     1.041750     1.033617     1.025483     1.017349
      1.009216     1.001082     0.992949     0.984815     0.976681     0.968548     0.960414     0.952280     0.944147     0.936013
      0.927879     0.919746     0.911612     0.903478     0.895345     0.887211     0.879077     0.870944     0.862810     0.854676
      0.846543     0.838409     0.830276     0.822142     0.814008     0.805875     0.797741     0.789607     0.781474     0.773340
      0.765206     0.757073     0.748939     0.740805     0.732672     0.724538     0.716404     0.708271     0.700137     0.692003
      0.683870     0.675736     0.667603     0.659469     0.651335     0.643202     0.635068     0.626934     0.618801     0.610667
      0.602533     0.594400     0.586266     0.578132     0.569999     0.561865     0.553731     0.545598     0.537464     0.529330
      0.521197     0.513063     0.504930     0.496796     0.488662     0.480529     0.472395     0.464261     0.456128     0.447994
      0.439861     0.431727     0.423593     0.415460     0.407326     0.399192     0.391059     0.382925     0.374792     0.366658
      0.358524     0.350391     0.342257     0.334124     0.325990     0.317856     0.309723     0.301589     0.293455     0.285322
      0.277188     0.269055     0.260921     0.252787     0.244654     0.236520     0.228386     0.220253     0.212119     0.203986
 NY phased data points follow
  -1.16907E+02 -1.18194E+02 -1.21485E+02 -1.13898E+02 -1.25765E+02 -1.06462E+02 -1.10633E+02 -1.32544E+02 -1.35442E+02 -1.29463E+02
  -1.36343E+02 -1.29939E+02 -1.28842E+02 -1.33306E+02 -1.39429E+02 -1.46928E+02 -1.27986E+02 -1.52472E+02 -1.50029E+02 -1.48726E+02
  -1.55385E+02 -1.12762E+02 -1.00635E+02 -7.82317E+01 -4.73279E+01 -5.86366E+01 -7.73888E+01 -5.73726E+01 -4.75107E+01 -6.14249E+01
  -6.72871E+01 -6.46876E+01 -6.74996E+01 -7.55948E+01 -6.76922E+01 -8.35402E+01 -8.82405E+01 -9.59949E+01 -1.26405E+02 -1.22192E+02
  -1.13707E+02 -1.05911E+02 -9.01113E+01 -7.32964E+01 -4.90975E+01 -2.81771E+01 -1.55660E+01 -2.36003E+01 -3.00740E+01 -3.08587E+01
  -4.61264E+01 -3.93913E+01 -4.85769E+01 -6.15156E+01 -5.83242E+01 -7.43897E+01 -6.71664E+01 -6.97455E+01 -8.85693E+01 -6.29309E+01
  -3.70632E+01 -5.14575E+01 -4.08006E+01 -3.05829E+01 -2.91498E+01 -2.10398E+01 -4.18753E+01 -5.93853E+01 -9.48962E+01 -1.04602E+02
  -7.92371E+01 -6.08531E+01 -4.85394E+01 -3.52771E+01 -2.06079E+01 -2.34310E+01 -1.58681E+01 -3.48783E+01 -3.89392E+01 -2.66915E+01
  -5.13172E+01 -6.50891E+01 -7.92700E+01 -9.77571E+01 -8.33616E+01 -6.41944E+01 -6.73326E+01 -4.39144E+01 -3.06876E+01 -2.90603E+01
  -2.50116E+01 -3.31749E+01 -1.95731E+01 -1.72691E+01 -2.28473E+01 -1.53469E+01 -1.60318E+01 -3.68673E+01 -4.50792E+01 -3.93202E+01
  -4.47131E+01 -6.99722E+01 -8.94205E+01 -9.21799E+01 -1.23370E+02 -1.37969E+02 -1.31698E+02 -1.36961E+02 -1.60738E+02 -2.33779E+02
  -2.57724E+02 -1.75094E+02 -1.19331E+02 -1.03395E+02 -9.87776E+01 -9.30739E+01 -6.19360E+01 -7.83905E+01 -8.00717E+01 -6.06061E+01
  -6.11181E+01 -6.47738E+01 -5.78935E+01 -2.55831E+01 -2.95793E+01 -4.21733E+01 -2.43637E+01  1.84017E+01  2.40272E+01  2.42555E+01
   2.47689E+01 -6.66330E+01 -1.76917E+02 -2.14739E+02 -1.78848E+02 -1.62413E+02 -1.49580E+02 -1.35538E+02 -1.41482E+02 -1.41420E+02
  -1.34187E+02 -1.28180E+02 -1.43668E+02 -1.18821E+02 -1.22007E+02 -1.25421E+02 -1.14007E+02 -1.23016E+02 -1.00098E+02 -1.07251E+02
  -9.43451E+01 -8.37989E+01 -7.89974E+01 -6.79810E+01 -7.82375E+01 -6.91921E+01 -8.37612E+01 -7.67478E+01 -6.87744E+01 -8.85040E+01
  -7.90424E+01 -6.62427E+01 -6.34633E+01 -6.83145E+01 -7.30260E+01 -7.57360E+01 -7.48524E+01 -6.05141E+01 -5.67462E+01 -5.51838E+01
  -3.80768E+01 -3.18649E+01 -3.04514E+01 -3.75088E+01 -5.00957E+01 -4.42595E+01 -3.54682E+01 -3.99251E+01 -6.84536E+01 -8.47682E+01
  -7.46734E+01 -8.73338E+01 -9.18747E+01 -8.47137E+01 -1.03567E+02 -9.95291E+01 -7.97590E+01 -7.07375E+01 -6.86947E+01 -6.87633E+01
  -6.87538E+01 -7.39250E+01 -6.59025E+01 -6.00738E+01 -4.65871E+01 -4.68708E+01 -5.14436E+01 -4.64261E+01 -5.48163E+01 -5.43173E+01
  -6.15507E+01 -4.18421E+01 -2.38492E+01 -2.47504E+01 -3.25843E+01 -3.69825E+01 -3.54541E+01 -6.49749E+01 -6.47021E+01 -7.09673E+01
  -5.81175E+01 -4.39377E+01 -3.59685E+01 -1.59702E+00  7.02551E+00  5.08829E+01  2.83945E+01  4.21409E+00  1.23330E+01 -2.01712E+01
  -2.98071E+01 -5.79040E+01 -4.37191E+01 -4.66479E+01 -5.05258E+01 -3.15074E+01 -5.53096E+01 -5.11644E+01 -5.41977E+01 -5.49844E+01
  -6.82778E+01 -7.47853E+01 -6.68982E+01 -9.28126E+01 -9.85968E+01 -9.84796E+01 -1.03168E+02 -1.12055E+02 -1.08653E+02 -9.91246E+01
  -9.23676E+01 -6.62203E+01 -6.00945E+01 -4.60353E+01 -2.12554E+01 -2.05064E+01 -2.85028E+01 -3.86313E+01 -4.47214E+01 -5.98505E+01
  -5.97847E+01 -4.96111E+01 -4.95532E+01 -5.17825E+01 -7.36220E+01 -8.08100E+01 -1.99790E+01  1.25961E+02  1.87733E+02  1.35702E+02
   1.42064E+02  1.17012E+02  7.82120E+01  7.50200E+01  4.92868E+01  5.04541E+01  4.45836E+01  4.24756E+01  4.12876E+01  3.01867E+01
   3.70543E+01  1.96320E+01  2.81349E+01  4.41977E+01  2.54346E+01  3.55348E+01  3.07431E+01  1.11963E+01  2.68913E+01  2.47573E+01
   1.42559E+01  1.61996E+01  1.31225E+01  1.31302E+01  4.26655E+00  1.38638E+01  2.63049E+01  1.38097E+01  9.41839E+00  1.11074E+01
   2.02842E+01  2.06321E+00 -3.86465E+00  1.81126E+01  7.81238E+00  1.54966E+01  1.57912E+01  1.45882E+01  3.08330E+01  3.61827E+01
   4.50411E+01  4.28456E+01  5.80144E+01  6.02932E+01  5.34555E+01  7.04986E+01  7.63030E+01  8.96799E+01  1.00631E+02  1.17049E+02
   1.36165E+02  1.24505E+02  1.34637E+02  1.48483E+02  1.30226E+02  1.24263E+02  1.20181E+02  1.23446E+02  1.29012E+02  1.06116E+02
   7.88938E+01  6.41191E+01  4.22713E+01  1.51614E+01 -2.86328E+00 -3.03776E+01 -4.34068E+01 -6.01963E+01 -8.00223E+01 -8.11139E+01
  -9.75377E+01 -1.07871E+02 -1.14245E+02 -1.17163E+02 -1.23728E+02 -1.31158E+02 -1.26429E+02 -1.07825E+02 -9.37661E+01 -9.38637E+01
  -6.90109E+01 -7.25510E+01 -6.94231E+01 -4.54663E+01 -6.33991E+01 -6.32325E+01 -6.30200E+01 -7.05895E+01 -5.96052E+01 -7.09137E+01
  -6.29139E+01 -4.50678E+01 -6.40388E+01 -6.85354E+01 -7.65536E+01 -7.30111E+01 -6.55435E+01 -7.92353E+01 -6.25155E+01 -5.92886E+01
  -5.75619E+01 -4.91733E+01 -5.78621E+01 -5.94524E+01 -6.22299E+01 -5.12177E+01 -3.06161E+01 -2.38943E+01 -2.93794E+01 -3.79749E+01
  -4.05876E+01 -3.62713E+01 -2.10265E+01 -4.64761E+00 -1.14040E+01 -1.85513E+01 -1.13227E+01  1.63641E+00 -2.10403E+00  2.40442E+00
   2.33950E+01  2.13467E+01  4.16092E+01  4.30558E+01  5.50830E+01  7.35384E+01  4.41716E+01  5.03522E+01  4.81818E+01  3.29785E+01
   1.69201E+01  4.42805E+00 -2.25790E+01 -5.32195E+01 -2.92619E+01 -3.27627E+01 -3.86460E+01 -3.22503E+01 -5.30178E+01 -6.32873E+01
  -6.28687E+01 -8.56935E+01 -9.43537E+01 -7.58112E+01 -7.70845E+01 -9.33731E+01 -1.06541E+02 -8.53287E+01 -9.77843E+01 -1.02993E+02
  -6.83812E+01 -8.27873E+01 -8.58598E+01 -7.20313E+01 -7.06459E+01 -8.09931E+01 -7.82100E+01 -8.10497E+01 -8.84396E+01 -6.91874E+01
  -7.46366E+01 -8.09271E+01 -8.96953E+01 -8.89923E+01 -7.07683E+01 -7.01846E+01 -7.48813E+01 -7.01422E+01 -6.29799E+01 -7.40041E+01
  -6.40108E+01 -6.34985E+01 -7.59220E+01 -6.87622E+01 -6.44857E+01 -4.09179E+01 -5.68498E+01 -7.30133E+01 -5.09516E+01 -6.29244E+01
  -5.51404E+01 -5.06451E+01 -5.96411E+01 -5.48404E+01 -5.70468E+01 -4.83454E+01 -4.75691E+01 -4.49727E+01 -6.08559E+01 -6.03851E+01
  -4.55476E+01 -5.93483E+01 -5.46916E+01 -6.45361E+01 -5.70536E+01 -3.98421E+01 -4.75746E+01 -5.69378E+01 -4.94047E+01 -3.78151E+01
  -6.30792E+01 -5.32129E+01 -4.36110E+01 -5.89979E+01 -4.80801E+01 -4.21809E+01 -4.90390E+01 -4.23441E+01 -4.81393E+01 -6.29943E+01
  -3.87080E+01 -4.49126E+01 -5.41884E+01 -5.13330E+01 -4.81190E+01 -3.73745E+01 -4.89364E+01 -3.89232E+01 -4.20733E+01 -4.05553E+01
 NY points of the fit to the data follow
  -1.19374E+02 -1.25376E+02 -1.29490E+02 -1.27946E+02 -1.19215E+02 -1.07899E+02 -1.02445E+02 -1.05956E+02 -1.13915E+02 -1.21443E+02
  -1.27601E+02 -1.33035E+02 -1.37602E+02 -1.40128E+02 -1.39375E+02 -1.36050E+02 -1.35103E+02 -1.40516E+02 -1.50759E+02 -1.56419E+02
  -1.46436E+02 -1.21179E+02 -9.10765E+01 -6.59449E+01 -5.25506E+01 -5.15122E+01 -5.50036E+01 -5.67005E+01 -5.68400E+01 -5.72943E+01
  -5.90185E+01 -6.19920E+01 -6.56897E+01 -6.96282E+01 -7.36008E+01 -7.91275E+01 -8.91772E+01 -1.05372E+02 -1.24766E+02 -1.38273E+02
  -1.36792E+02 -1.18441E+02 -9.02294E+01 -6.27130E+01 -4.34435E+01 -3.44970E+01 -3.38953E+01 -3.74475E+01 -4.11574E+01 -4.37062E+01
  -4.58347E+01 -4.89701E+01 -5.46027E+01 -6.24889E+01 -7.05700E+01 -7.66900E+01 -7.93608E+01 -8.01953E+01 -7.99069E+01 -7.51288E+01
  -6.74583E+01 -6.14008E+01 -5.41277E+01 -4.39417E+01 -3.73181E+01 -3.94457E+01 -5.00609E+01 -6.60785E+01 -8.04207E+01 -8.39952E+01
  -7.60520E+01 -6.53953E+01 -5.62796E+01 -4.57690E+01 -3.49433E+01 -2.80338E+01 -2.50609E+01 -2.46523E+01 -2.71010E+01 -3.59781E+01
  -5.21080E+01 -7.24171E+01 -9.11539E+01 -1.00770E+02 -9.68824E+01 -8.24105E+01 -6.39764E+01 -4.79105E+01 -3.78590E+01 -3.23113E+01
  -2.84764E+01 -2.52340E+01 -2.24075E+01 -2.01213E+01 -1.79355E+01 -1.57144E+01 -1.35967E+01 -1.16227E+01 -1.01253E+01 -1.01069E+01
  -1.40323E+01 -2.84470E+01 -5.27672E+01 -7.95473E+01 -1.01623E+02 -1.14258E+02 -1.20300E+02 -1.33165E+02 -1.61131E+02 -1.88779E+02
  -1.91386E+02 -1.67259E+02 -1.38246E+02 -1.18764E+02 -1.07186E+02 -9.91178E+01 -9.21522E+01 -8.53283E+01 -7.82679E+01 -7.05264E+01
  -6.17196E+01 -5.15908E+01 -4.00520E+01 -2.78687E+01 -1.70792E+01 -9.79012E+00 -4.72159E+00  6.82635E+00  2.51162E+01  3.51909E+01
   9.32119E+00 -6.50603E+01 -1.48605E+02 -1.85740E+02 -1.75542E+02 -1.55066E+02 -1.42760E+02 -1.37540E+02 -1.35250E+02 -1.33253E+02
  -1.31485E+02 -1.30057E+02 -1.28278E+02 -1.25552E+02 -1.21942E+02 -1.17811E+02 -1.13546E+02 -1.09698E+02 -1.06700E+02 -1.04491E+02
  -1.02570E+02 -1.00260E+02 -9.72496E+01 -9.37818E+01 -9.04957E+01 -8.82614E+01 -8.75880E+01 -8.75715E+01 -8.64876E+01 -8.36811E+01
  -8.04447E+01 -7.89323E+01 -7.95779E+01 -8.03405E+01 -7.96970E+01 -7.87288E+01 -7.87072E+01 -7.81956E+01 -7.38322E+01 -6.39730E+01
  -5.16584E+01 -4.38003E+01 -4.53437E+01 -5.23336E+01 -5.47890E+01 -4.92718E+01 -4.31334E+01 -4.55989E+01 -5.73296E+01 -7.05416E+01
  -7.86077E+01 -8.15412E+01 -8.17887E+01 -8.06329E+01 -7.89976E+01 -7.76706E+01 -7.68854E+01 -7.64240E+01 -7.61298E+01 -7.62344E+01
  -7.62846E+01 -7.48859E+01 -7.00902E+01 -6.23853E+01 -5.65674E+01 -5.43967E+01 -5.16850E+01 -4.71375E+01 -4.44462E+01 -4.44243E+01
  -4.27817E+01 -3.67425E+01 -2.94428E+01 -2.65422E+01 -2.94126E+01 -3.54001E+01 -4.27448E+01 -5.11513E+01 -5.89729E+01 -6.38033E+01
  -6.46957E+01 -5.87780E+01 -4.54636E+01 -2.78180E+01 -9.32930E+00  4.27726E+00  8.74750E+00  6.44297E+00  7.72649E-01 -5.69280E+00
  -8.78983E+00 -8.00301E+00 -6.79760E+00 -7.91287E+00 -1.26309E+01 -2.07121E+01 -3.10101E+01 -4.25886E+01 -5.48464E+01 -6.70096E+01
  -7.85811E+01 -8.88462E+01 -9.65719E+01 -1.01370E+02 -1.03113E+02 -1.01743E+02 -9.91570E+01 -9.70158E+01 -9.46928E+01 -9.19529E+01
  -8.65365E+01 -7.64579E+01 -6.40162E+01 -5.28052E+01 -4.56497E+01 -4.38887E+01 -4.61824E+01 -4.98844E+01 -5.41623E+01 -5.92786E+01
  -6.30608E+01 -6.22903E+01 -6.13237E+01 -6.71698E+01 -7.90686E+01 -7.19772E+01 -1.27071E+01  7.79599E+01  1.33826E+02  1.32477E+02
   1.08048E+02  8.87873E+01  7.87083E+01  7.38004E+01  7.03065E+01  6.70398E+01  6.42137E+01  6.19979E+01  6.05485E+01  5.98054E+01
   5.93623E+01  5.90480E+01  5.86758E+01  5.80329E+01  5.73095E+01  5.67618E+01  5.60705E+01  5.48387E+01  5.30532E+01  5.09747E+01
   4.89098E+01  4.68237E+01  4.44423E+01  4.17868E+01  3.90249E+01  3.59793E+01  3.23767E+01  2.80987E+01  2.32759E+01  1.82799E+01
   1.35280E+01  9.53540E+00  7.11497E+00  6.81946E+00  8.47861E+00  1.14272E+01  1.48503E+01  1.82321E+01  2.15984E+01  2.50694E+01
   2.84283E+01  3.13881E+01  3.39682E+01  3.64395E+01  3.91086E+01  4.22342E+01  4.56947E+01  4.89599E+01  5.16670E+01  5.39413E+01
   5.60845E+01  5.82030E+01  6.00236E+01  6.12469E+01  6.19105E+01  6.20734E+01  6.17344E+01  6.13760E+01  6.16266E+01  6.05024E+01
   5.26511E+01  3.30483E+01 -1.92351E+00 -4.47656E+01 -8.09525E+01 -1.02376E+02 -1.06765E+02 -9.71667E+01 -8.59951E+01 -8.19359E+01
  -8.14177E+01 -7.96266E+01 -7.51561E+01 -6.85934E+01 -6.18457E+01 -5.63643E+01 -5.23594E+01 -4.91428E+01 -4.61460E+01 -4.31283E+01
  -4.10898E+01 -4.07436E+01 -4.12919E+01 -4.17863E+01 -4.16444E+01 -4.04465E+01 -3.91496E+01 -3.94848E+01 -4.20074E+01 -4.64782E+01
  -5.24103E+01 -5.90672E+01 -6.52094E+01 -6.94259E+01 -7.12528E+01 -7.10608E+01 -6.92874E+01 -6.63820E+01 -6.27273E+01 -5.86227E+01
  -5.43393E+01 -5.01389E+01 -4.63148E+01 -4.29690E+01 -3.98765E+01 -3.67680E+01 -3.34703E+01 -3.00011E+01 -2.65512E+01 -2.31100E+01
  -1.93191E+01 -1.49127E+01 -9.74683E+00 -3.84771E+00  2.65378E+00  9.88776E+00  1.80836E+01  2.69760E+01  3.62098E+01  4.59894E+01
   5.63292E+01  6.62584E+01  7.42905E+01  7.87678E+01  7.81320E+01  7.15321E+01  5.96603E+01  4.49070E+01  3.04292E+01  1.84197E+01
   9.17686E+00  1.77255E+00 -5.10195E+00 -1.28478E+01 -2.24929E+01 -3.37116E+01 -4.52145E+01 -5.57740E+01 -6.45147E+01 -7.09139E+01
  -7.52424E+01 -7.82094E+01 -8.02117E+01 -8.14088E+01 -8.21779E+01 -8.29733E+01 -8.39062E+01 -8.47349E+01 -8.51500E+01 -8.50617E+01
  -8.46715E+01 -8.42791E+01 -8.39428E+01 -8.35196E+01 -8.30583E+01 -8.27631E+01 -8.24943E+01 -8.18443E+01 -8.09425E+01 -8.03170E+01
  -7.99735E+01 -7.94986E+01 -7.88796E+01 -7.83760E+01 -7.79267E+01 -7.72081E+01 -7.61416E+01 -7.50823E+01 -7.43689E+01 -7.40291E+01
  -7.37907E+01 -7.34025E+01 -7.27316E+01 -7.17724E+01 -7.06843E+01 -6.96791E+01 -6.88252E+01 -6.80747E+01 -6.73906E+01 -6.67047E+01
  -6.61094E+01 -6.57109E+01 -6.53485E+01 -6.47996E+01 -6.39870E+01 -6.30158E+01 -6.21202E+01 -6.14061E+01 -6.08296E+01 -6.03048E+01
  -5.96382E+01 -5.87050E+01 -5.77127E+01 -5.68376E+01 -5.60923E+01 -5.54065E+01 -5.47098E+01 -5.39874E+01 -5.33444E+01 -5.29120E+01
  -5.26349E+01 -5.22728E+01 -5.17103E+01 -5.09366E+01 -4.99075E+01 -4.86846E+01 -4.76273E+01 -4.70926E+01 -4.70809E+01 -4.72192E+01
  -4.71098E+01 -4.66318E+01 -4.59815E+01 -4.53956E+01 -4.49401E+01 -4.46419E+01 -4.45688E+01 -4.44525E+01 -4.39153E+01 -4.29202E+01
 NY background values follow
    -8.525E+01   -8.504E+01   -8.483E+01   -8.462E+01   -8.441E+01   -8.420E+01   -8.398E+01   -8.377E+01   -8.356E+01   -8.335E+01
    -8.314E+01   -8.293E+01   -8.272E+01   -8.250E+01   -8.229E+01   -8.208E+01   -8.187E+01   -8.166E+01   -8.146E+01   -8.125E+01
    -8.104E+01   -8.083E+01   -8.063E+01   -8.042E+01   -8.022E+01   -8.002E+01   -7.982E+01   -7.962E+01   -7.942E+01   -7.922E+01
    -7.902E+01   -7.883E+01   -7.864E+01   -7.845E+01   -7.826E+01   -7.807E+01   -7.788E+01   -7.770E+01   -7.752E+01   -7.734E+01
    -7.716E+01   -7.699E+01   -7.682E+01   -7.664E+01   -7.648E+01   -7.631E+01   -7.615E+01   -7.599E+01   -7.583E+01   -7.568E+01
    -7.553E+01   -7.538E+01   -7.523E+01   -7.509E+01   -7.495E+01   -7.482E+01   -7.468E+01   -7.455E+01   -7.443E+01   -7.431E+01
    -7.419E+01   -7.407E+01   -7.396E+01   -7.385E+01   -7.374E+01   -7.364E+01   -7.354E+01   -7.344E+01   -7.334E+01   -7.324E+01
    -7.314E+01   -7.304E+01   -7.295E+01   -7.285E+01   -7.275E+01   -7.265E+01   -7.255E+01   -7.245E+01   -7.234E+01   -7.223E+01
    -7.212E+01   -7.201E+01   -7.189E+01   -7.177E+01   -7.165E+01   -7.152E+01   -7.139E+01   -7.125E+01   -7.111E+01   -7.096E+01
    -7.080E+01   -7.064E+01   -7.047E+01   -7.030E+01   -7.011E+01   -6.993E+01   -6.973E+01   -6.953E+01   -6.932E+01   -6.910E+01
    -6.888E+01   -6.865E+01   -6.841E+01   -6.816E+01   -6.791E+01   -6.765E+01   -6.738E+01   -6.710E+01   -6.682E+01   -6.653E+01
    -6.622E+01   -6.591E+01   -6.560E+01   -6.527E+01   -6.494E+01   -6.459E+01   -6.424E+01   -6.388E+01   -6.351E+01   -6.313E+01
    -6.274E+01   -6.234E+01   -6.193E+01   -6.152E+01   -6.110E+01   -6.067E+01   -6.023E+01   -5.978E+01   -5.933E+01   -5.887E+01
    -5.841E+01   -5.794E+01   -5.746E+01   -5.698E+01   -5.650E+01   -5.601E+01   -5.551E+01   -5.502E+01   -5.452E+01   -5.402E+01
    -5.351E+01   -5.300E+01   -5.249E+01   -5.198E+01   -5.147E+01   -5.096E+01   -5.045E+01   -4.994E+01   -4.943E+01   -4.892E+01
    -4.841E+01   -4.790E+01   -4.739E+01   -4.688E+01   -4.638E+01   -4.588E+01   -4.538E+01   -4.488E+01   -4.439E+01   -4.389E+01
    -4.340E+01   -4.292E+01   -4.243E+01   -4.195E+01   -4.147E+01   -4.099E+01   -4.052E+01   -4.005E+01   -3.959E+01   -3.913E+01
    -3.867E+01   -3.821E+01   -3.776E+01   -3.732E+01   -3.688E+01   -3.644E+01   -3.601E+01   -3.558E+01   -3.516E+01   -3.474E+01
    -3.432E+01   -3.392E+01   -3.351E+01   -3.312E+01   -3.272E+01   -3.234E+01   -3.195E+01   -3.158E+01   -3.120E+01   -3.083E+01
    -3.047E+01   -3.011E+01   -2.976E+01   -2.941E+01   -2.906E+01   -2.872E+01   -2.838E+01   -2.805E+01   -2.772E+01   -2.740E+01
    -2.708E+01   -2.676E+01   -2.645E+01   -2.614E+01   -2.584E+01   -2.554E+01   -2.524E+01   -2.495E+01   -2.466E+01   -2.438E+01
    -2.410E+01   -2.382E+01   -2.355E+01   -2.328E+01   -2.301E+01   -2.275E+01   -2.249E+01   -2.224E+01   -2.199E+01   -2.175E+01
    -2.151E+01   -2.128E+01   -2.105E+01   -2.083E+01   -2.061E+01   -2.040E+01   -2.019E+01   -1.999E+01   -1.979E+01   -1.961E+01
    -1.942E+01   -1.925E+01   -1.908E+01   -1.891E+01   -1.876E+01   -1.861E+01   -1.847E+01   -1.833E+01   -1.820E+01   -1.808E+01
    -1.797E+01   -1.786E+01   -1.776E+01   -1.767E+01   -1.759E+01   -1.751E+01   -1.744E+01   -1.737E+01   -1.731E+01   -1.726E+01
    -1.721E+01   -1.717E+01   -1.713E+01   -1.710E+01   -1.708E+01   -1.705E+01   -1.704E+01   -1.702E+01   -1.702E+01   -1.701E+01
    -1.701E+01   -1.701E+01   -1.702E+01   -1.703E+01   -1.704E+01   -1.706E+01   -1.707E+01   -1.709E+01   -1.712E+01   -1.714E+01
    -1.717E+01   -1.720E+01   -1.723E+01   -1.726E+01   -1.730E+01   -1.734E+01   -1.739E+01   -1.745E+01   -1.751E+01   -1.757E+01
    -1.765E+01   -1.773E+01   -1.782E+01   -1.792E+01   -1.803E+01   -1.815E+01   -1.828E+01   -1.842E+01   -1.858E+01   -1.874E+01
    -1.892E+01   -1.912E+01   -1.933E+01   -1.955E+01   -1.979E+01   -2.004E+01   -2.032E+01   -2.060E+01   -2.091E+01   -2.124E+01
    -2.158E+01   -2.195E+01   -2.233E+01   -2.273E+01   -2.315E+01   -2.358E+01   -2.404E+01   -2.451E+01   -2.499E+01   -2.549E+01
    -2.601E+01   -2.654E+01   -2.709E+01   -2.765E+01   -2.823E+01   -2.882E+01   -2.942E+01   -3.003E+01   -3.066E+01   -3.130E+01
    -3.195E+01   -3.261E+01   -3.328E+01   -3.396E+01   -3.465E+01   -3.535E+01   -3.606E+01   -3.678E+01   -3.750E+01   -3.824E+01
    -3.898E+01   -3.973E+01   -4.048E+01   -4.124E+01   -4.200E+01   -4.277E+01   -4.353E+01   -4.430E+01   -4.507E+01   -4.584E+01
    -4.660E+01   -4.736E+01   -4.812E+01   -4.887E+01   -4.962E+01   -5.036E+01   -5.110E+01   -5.182E+01   -5.254E+01   -5.325E+01
    -5.394E+01   -5.462E+01   -5.529E+01   -5.595E+01   -5.659E+01   -5.721E+01   -5.782E+01   -5.841E+01   -5.898E+01   -5.953E+01
    -6.006E+01   -6.057E+01   -6.106E+01   -6.153E+01   -6.198E+01   -6.240E+01   -6.281E+01   -6.319E+01   -6.356E+01   -6.390E+01
    -6.423E+01   -6.453E+01   -6.481E+01   -6.508E+01   -6.532E+01   -6.554E+01   -6.575E+01   -6.593E+01   -6.609E+01   -6.623E+01
    -6.636E+01   -6.646E+01   -6.654E+01   -6.660E+01   -6.665E+01   -6.667E+01   -6.667E+01   -6.666E+01   -6.662E+01   -6.657E+01
    -6.649E+01   -6.640E+01   -6.629E+01   -6.616E+01   -6.601E+01   -6.584E+01   -6.566E+01   -6.546E+01   -6.524E+01   -6.501E+01
    -6.476E+01   -6.450E+01   -6.422E+01   -6.393E+01   -6.363E+01   -6.331E+01   -6.298E+01   -6.264E+01   -6.228E+01   -6.191E+01
    -6.154E+01   -6.115E+01   -6.075E+01   -6.034E+01   -5.992E+01   -5.949E+01   -5.905E+01   -5.861E+01   -5.815E+01   -5.769E+01
    -5.722E+01   -5.675E+01   -5.627E+01   -5.578E+01   -5.529E+01   -5.479E+01   -5.428E+01   -5.377E+01   -5.325E+01   -5.273E+01
    -5.221E+01   -5.168E+01   -5.114E+01   -5.061E+01   -5.006E+01   -4.952E+01   -4.897E+01   -4.842E+01   -4.787E+01   -4.731E+01
    -4.675E+01   -4.619E+01   -4.563E+01   -4.507E+01   -4.451E+01   -4.394E+01   -4.338E+01   -4.281E+01   -4.225E+01   -4.168E+01
    -4.111E+01   -4.055E+01   -3.999E+01   -3.942E+01   -3.886E+01   -3.829E+01   -3.773E+01   -3.717E+01   -3.661E+01   -3.604E+01
    -3.548E+01   -3.492E+01   -3.436E+01   -3.380E+01   -3.323E+01   -3.267E+01   -3.211E+01   -3.155E+01   -3.099E+01   -3.043E+01
    -2.986E+01   -2.930E+01   -2.874E+01   -2.818E+01   -2.762E+01   -2.705E+01   -2.649E+01   -2.593E+01   -2.537E+01   -2.480E+01
 Mac      Conc. = 3.46E-04
  -1.10212E+02 -1.10498E+02 -1.11362E+02 -1.12935E+02 -1.15127E+02 -1.17499E+02 -1.19445E+02 -1.20515E+02 -1.20686E+02 -1.20430E+02
  -1.20473E+02 -1.21497E+02 -1.23596E+02 -1.25597E+02 -1.25433E+02 -1.21631E+02 -1.15041E+02 -1.08407E+02 -1.03305E+02 -9.94027E+01
  -9.65339E+01 -9.49335E+01 -9.39516E+01 -9.25824E+01 -9.04842E+01 -8.78722E+01 -8.51321E+01 -8.27261E+01 -8.10073E+01 -7.98905E+01
  -7.92539E+01 -7.92221E+01 -7.95734E+01 -7.93508E+01 -7.75593E+01 -7.42893E+01 -7.09390E+01 -6.91367E+01 -6.91374E+01 -6.95208E+01
  -6.88590E+01 -6.70293E+01 -6.49670E+01 -6.37081E+01 -6.37134E+01 -6.47346E+01 -6.62927E+01 -6.80590E+01 -6.96485E+01 -7.07468E+01
  -7.14260E+01 -7.18490E+01 -7.18839E+01 -7.13221E+01 -7.00523E+01 -6.81461E+01 -6.60689E+01 -6.42326E+01 -6.25581E+01 -6.12641E+01
  -6.10107E+01 -6.19018E+01 -6.32890E+01 -6.44975E+01 -6.52152E+01 -6.55215E+01 -6.54673E+01 -6.45408E+01 -6.20997E+01 -5.84437E+01
  -5.50231E+01 -5.29431E+01 -5.22267E+01 -5.25175E+01 -5.34619E+01 -5.46582E+01 -5.57536E+01 -5.64955E+01 -5.68236E+01 -5.68389E+01
  -5.63942E+01 -5.53447E+01 -5.39183E+01 -5.25302E+01 -5.13372E+01 -5.02608E+01 -4.93256E+01 -4.85707E+01 -4.79040E+01 -4.73480E+01
  -4.71217E+01 -4.74461E+01 -4.86658E+01 -5.09923E+01 -5.40836E+01 -5.72575E+01 -6.00027E+01 -6.21565E+01 -6.40696E+01 -6.65102E+01
  -6.99914E+01 -7.47760E+01 -8.11872E+01 -8.91987E+01 -9.76426E+01 -1.04239E+02 -1.07083E+02 -1.06046E+02 -1.02506E+02 -9.80057E+01
