 
 $NMID
 ID=''
 FMTDAT='(2E13.5)'
 TRAMP=   1.00000E+0
 VOLUME=   1.00000E+0
 $END
   1.86883E+4  -7.11792E+3
   4.03476E+3  -8.11056E+3
  -4.93350E+3  -1.39351E+3
   5.50126E+3   7.12795E+3
   2.15398E+3   1.71420E+3
  -5.49480E+3  -7.47846E+2
   1.71716E+3  -9.09326E+2
   3.68140E+3  -1.89253E+3
  -1.11082E+3   2.80455E+3
   7.89295E+2   3.75511E+3
  -4.42437E+2  -1.73781E+3
  -3.00728E+3  -5.02226E+2
   1.23479E+3   2.26603E+3
   1.01717E+2  -5.61794E+2
  -3.63599E+3  -1.36474E+3
   6.06107E+2  -1.17123E+3
   3.18734E+3  -4.62800E+2
  -1.00646E+2   1.66464E+3
  -9.90147E+1   5.69573E+2
   9.65187E+2  -1.02676E+3
  -8.25476E+2   1.25888E+3
  -1.71219E+2   8.26486E+2
   1.01086E+3  -1.49766E+3
  -4.47957E+1   9.69564E+2
  -1.43666E+3   1.04289E+3
  -4.68177E+2  -2.25426E+3
   1.34476E+3  -6.12511E+2
   7.01818E+2   2.40449E+3
  -1.83375E+3  -1.69207E+1
  -7.87929E+2  -1.86500E+3
   1.80048E+3  -1.73492E+2
   2.96696E+2   1.10504E+3
  -1.73342E+3   1.06289E+3
  -1.14860E+3  -3.20699E+0
  -5.40044E+2  -1.08478E+3
   2.71861E+2  -1.68233E+3
   1.51166E+3  -2.45990E+2
   4.67623E+2   1.03172E+3
  -2.61537E+2   6.08655E+2
   4.22642E+2  -6.45988E+0
  -2.32369E+2   5.87272E+2
  -1.15897E+3   5.50782E+2
  -6.11090E+2  -9.70277E+2
   3.08104E+2  -9.98325E+2
  -3.30465E+2  -6.28842E+2
   6.42388E+2  -6.36243E+2
   1.44594E+3   3.54601E+2
   3.67797E+2   1.86337E+3
  -1.35543E+3   1.06559E+3
  -1.05623E+3  -5.41942E+2
   2.80569E+2  -6.43178E+2
   2.24221E+1   4.69752E+1
  -3.38518E+2  -1.33154E+2
   5.94031E+2  -8.96633E+1
   8.11532E+2  -3.00436E+2
   1.44599E+2   3.44320E+2
  -4.61446E+2   5.52582E+2
  -8.00080E+2   7.85999E+1
  -4.80234E+2  -5.94375E+2
   1.50074E+2  -7.41837E+2
   1.72865E+2  -2.64734E+2
   5.55226E+2  -3.36255E+2
   1.14353E+3  -2.40867E+1
   8.11511E+2   1.17870E+3
  -5.39485E+2   1.15598E+3
  -7.61784E+2   2.60659E+2
  -3.31552E+2  -3.77094E+2
  -5.32215E+2  -2.48659E+2
  -4.47413E+2  -6.16887E+2
   4.46151E+2  -7.11227E+2
   5.71767E+2  -5.72415E+1
  -3.19753E+2   2.25963E+2
  -4.34251E+2  -5.47160E+2
   4.81862E+2  -6.23693E+2
   6.05767E+2   2.68260E+2
  -3.57928E+2   3.60355E+2
  -4.48193E+2  -3.05545E+1
   2.99539E+2  -2.83107E+2
   4.72335E+2   2.35910E+2
  -6.16184E+1   3.21649E+2
   4.40043E+0   7.91233E+1
   1.06398E+2   6.14962E+0
   2.31296E+1  -6.95702E+1
  -3.03706E+2   6.14352E+1
  -2.93955E+2   8.11206E+1
  -2.66074E+2  -1.87705E+2
  -1.81610E+2  -4.00412E+2
  -3.62622E+1  -3.73465E+2
   8.36914E+1  -2.74253E+2
   1.95526E+2  -1.69460E+2
   2.80323E+2  -1.83878E+2
   1.53356E+2  -4.50466E+2
   2.88642E+2  -1.20822E+2
   5.22366E+2   1.91194E+2
  -5.29554E+1   5.29592E+2
  -1.13135E+2  -7.99125E+0
   8.38753E+1  -3.62012E+2
   4.40561E+2  -2.50586E+2
  -1.16215E+2   7.40370E+1
  -3.52835E+2  -4.89973E+1
   1.66614E+2  -3.34080E+2
   2.33773E+2  -8.59552E+1
   1.26412E+2   3.35313E+2
  -1.92252E+2   6.04818E+0
  -2.07636E+2  -1.61594E+2
   9.43631E+1   6.01476E+1
   3.61954E+2  -1.98214E+2
   1.58708E+2   1.26335E+2
   4.15663E+1   3.74510E+2
  -1.80382E+2   2.00287E+2
  -2.35136E+2  -7.04339E+1
   3.06787E+1  -2.43254E+2
   1.15001E+2   5.54404E+1
   1.23353E+2   1.12812E+2
   2.88737E+2  -1.68630E+2
  -5.29481E+1  -1.66878E+1
   4.05862E+2   2.60648E+2
  -1.00379E+2   3.87952E+2
  -7.19307E+0   8.55826E+1
  -1.94145E+2   2.43574E+1
  -1.98488E+2  -2.07641E+2
  -3.08303E+1  -4.90551E+1
  -2.60139E+1  -2.54760E+1
   7.97760E+1  -5.16528E+1
  -6.31748E+0  -2.97218E+1
  -8.17694E+1   1.74809E+2
   1.78056E+2   1.60675E+2
  -1.24175E+2   1.61945E+2
   1.28241E+2   4.44577E+1
   3.79225E+0   4.20700E+1
   1.00718E+2  -3.51090E+1
   4.21080E+1   3.64080E+2
   3.05890E+1   1.73461E+2
   8.41990E+1   3.58268E+2
  -5.39436E+1  -1.00512E+2
   1.73580E+1   1.73771E+2
   3.94950E+1   1.56111E+2
  -1.55160E+2   3.67017E+1
  -2.07879E+2  -6.70204E+1
   3.46869E+2  -8.33076E+0
   4.49472E+1  -1.07056E+2
   9.44718E+1   2.10342E+2
   4.63354E+1   1.80498E+2
  -2.70945E+1  -1.92933E+2
  -1.16808E+2   2.81993E+1
   1.61183E+2   1.40660E+2
   1.21173E+1   8.63093E+1
  -4.52844E+1  -7.70514E+1
   1.67903E+1   2.51033E+2
   6.22270E+1   3.85126E+1
   4.19189E+1   5.02037E+1
   3.01164E+2   2.48506E+1
  -1.47248E+2   4.32829E+1
   2.52155E+1   1.25579E+2
  -1.90991E+1   2.62404E+1
   1.97479E+2   2.85659E+1
   1.34202E+2   9.75506E+1
   1.06846E+2  -1.08630E+1
  -4.24526E+1   3.31698E+1
   5.15476E+1  -1.08211E+1
  -1.15142E+2   1.86440E+2
   4.79161E+1  -5.86525E+1
   7.72178E+1  -3.97380E+0
   9.19347E+1   3.17242E+0
  -1.10876E+2   5.50860E+1
  -1.92942E+2  -5.62473E+1
  -1.49358E+2  -1.55762E+2
  -1.18539E+2  -1.38123E+1
  -1.28979E+0   1.30996E+2
  -2.30263E+2  -2.38944E+1
  -1.35409E+2  -3.18317E+1
   9.40202E+1   4.42315E+1
   1.09794E+1  -1.08541E+2
  -1.06638E+2  -9.91812E+1
  -2.53126E+1  -1.71006E+0
   5.64333E+1  -9.90960E+1
  -4.84957E+1  -1.07674E+2
   2.51902E+1   4.34943E+1
  -2.08376E+2   2.78767E+2
  -9.62193E+1   6.94934E+1
   5.01920E+1  -4.03530E+2
   9.75151E+1   1.62787E+0
   1.79630E+1  -7.84999E+1
   3.39355E+0  -1.65477E+2
  -6.77721E+1  -1.56978E+2
  -6.75770E+1   1.20832E+1
   1.48515E+2   6.52045E+1
   2.36408E+1   7.20769E+1
   2.92458E+0   1.34902E+2
  -1.48564E+1  -3.33597E+2
  -3.91693E+1   1.55831E+2
  -3.64422E+1  -1.78650E+2
   1.11350E+1   1.87958E+1
   9.91609E+1   1.04834E+2
   1.68131E+2   1.19217E+2
  -8.38171E+1  -5.23455E+1
   5.48115E+1  -1.07482E+2
   7.67257E+1   9.91812E+1
   7.33306E+1   5.92882E+1
   1.57005E+2   4.37547E+1
  -8.08986E+0  -7.36535E+1
   3.63813E+1   8.72978E+1
  -7.03235E+1   2.26157E+2
  -1.50179E+2   7.60310E+1
   9.16700E+1  -1.40270E+2
   7.93033E+1  -1.77011E+1
  -2.07850E+2   1.21116E+1
  -8.58312E+0  -2.91320E-1
   1.90271E+2   1.95915E+2
   1.07905E+2   8.21817E+1
  -2.67708E+2   9.83702E+1
  -2.72831E+1  -1.30561E+2
   1.92956E+2   3.19192E+2
   9.62944E+1   2.71898E+2
   1.52253E+2  -2.17436E+1
   5.10736E+1  -1.00424E+2
   7.98052E+1   1.34857E+2
  -5.01925E+1   2.44345E+2
  -2.09427E+2   1.14066E+2
   1.87026E+2   5.45254E+1
  -9.48372E+1   1.56317E+2
  -6.17874E+1   1.23388E+1
   2.96982E+1  -6.33088E+1
   1.56907E+2   1.03469E+1
  -9.80408E+1   5.74862E+1
  -9.86620E+1   1.29367E+2
  -7.86310E+1   4.66673E+0
  -1.63440E+2  -1.14510E+2
  -1.81446E+1  -1.19067E+2
  -6.29672E+1   1.13266E+2
  -6.73591E+1   1.48112E+2
   9.46370E+1   2.47160E+1
  -1.28239E+2  -1.00709E+2
   4.17479E+1   7.25415E+0
  -4.90778E+0   1.02833E+2
  -6.93927E+1   4.53630E+0
  -2.04509E+2  -7.38716E+0
  -1.25611E+2  -1.06997E+0
  -2.15860E+1   1.60560E+2
  -1.00210E+2   2.07406E+2
  -1.08921E+2  -6.14570E+1
   2.26113E+1  -9.78398E-1
  -8.82205E+1   3.59806E+1
  -8.96285E+1   7.33912E+1
  -7.97278E+0   1.41592E+2
  -8.04538E+1   2.07528E+2
  -2.03485E+1   2.36483E+2
  -5.47090E+0   1.26565E+2
   9.20430E+1   1.56265E+2
  -2.81563E+2   8.32805E+1
   1.74594E+2  -1.07350E+2
   1.89238E+2  -2.66761E+0
   1.09644E+2   9.71294E+1
   1.42065E+1  -1.82261E+2
   1.11633E+2  -9.84336E+0
  -1.46777E+2   1.41354E+2
  -2.44233E+2  -6.32015E+1
  -8.55069E+1  -5.28092E+1
  -3.37678E+1   2.16542E+1
  -7.16887E+0  -5.58795E+1
   1.26618E+2   4.53817E+1
   3.66204E+1  -6.49756E+1
   7.96009E+1   2.10491E+2
  -1.25396E+2  -6.19905E+1
  -1.64474E+2   2.12438E+2
   9.56645E+1   1.61369E+2
   3.23247E+2  -1.03684E+2
   6.52929E+1   8.26201E+1
   9.06041E+1  -1.51747E+2
  -6.40204E+1   2.69666E+1
   1.43091E+1  -3.75273E+2
   8.59022E+1  -2.29701E+1
  -7.13636E+1   5.49811E+1
   2.77043E+2  -9.78057E+1
   5.71139E+1   1.45903E+2
  -6.37058E+1   1.20957E+2
   4.85594E+1   3.97133E+0
   5.18290E+1   2.49069E+2
   4.81235E+1  -1.60757E+2
  -8.38182E+1  -2.28032E+1
  -3.67265E+0   2.26291E+1
   1.79259E+2  -1.31835E+2
   2.59020E+2  -6.19331E+1
  -1.18910E+2   9.83128E+1
  -3.96833E+1  -2.56501E+2
  -1.64883E+2  -8.19685E+1
   2.46151E+1   1.27231E+2
   6.84956E+1   2.75846E+1
  -2.86389E+2   1.21497E+2
  -2.67744E+1   8.80515E+1
   8.46265E+1   3.25515E+1
   5.56537E+1  -4.02453E+1
  -8.80951E+1  -2.07759E+1
  -1.66553E+1   5.51058E+1
  -3.81305E+1  -1.96172E+2
   5.29771E+1  -2.83187E+1
  -1.60931E+2   1.61150E+2
  -2.19119E+2  -6.97358E+1
   8.45828E+0  -1.65614E+1
   7.85124E+1  -5.50192E+1
   3.92574E+2   6.18781E+1
   1.15953E+1   1.08122E+1
   2.96724E+1   1.42852E+2
   4.13564E+1  -1.15568E+2
   9.75383E+1  -1.42421E+1
  -1.27015E+2   1.24038E+2
   9.37650E+1   8.28687E+1
  -8.66382E+1  -1.12124E+2
   1.48029E+2   3.65815E+1
   5.43677E+1  -9.82394E+1
  -1.82758E+2   9.08796E+1
  -7.34467E+1  -5.32846E+1
   2.62997E+2   1.26332E+2
   1.08570E+2   4.13805E+1
   2.28566E+2   1.83042E+0
   4.22570E+1   5.99621E+1
  -3.18448E+1  -5.13717E+1
  -4.56164E+1  -1.07305E+2
   1.13517E+1  -2.23576E+1
  -2.86755E+1   2.16529E+1
  -1.46572E+2   1.23560E+2
  -5.34271E+1  -6.59751E+1
   1.68674E+2  -6.74565E+1
   1.05244E+2  -8.95610E+1
  -1.22751E+2  -6.86481E+1
   1.54207E+1  -1.02176E+2
  -1.47779E+2  -5.73882E+0
  -1.00384E+2   1.21551E+2
   5.03592E+1  -4.99656E+1
  -1.36013E+2  -7.25266E+1
  -1.09425E+2  -1.84844E+1
   7.13438E+0  -1.13494E+2
  -2.46085E+2  -1.37640E+0
   1.89766E+1  -1.23469E+2
  -3.89785E+2   2.11138E+2
  -4.67575E+1  -1.36677E+1
   8.08061E+1  -2.18276E+2
   1.10217E+2  -7.70603E+0
   1.47173E+2   3.88407E+0
  -1.69234E+2  -3.91367E+1
  -1.25403E+1   1.27615E+2
  -4.06402E+2  -7.51818E+1
   6.07839E+1   4.94815E+1
  -1.16844E+2  -9.79368E+1
   1.52946E+0   2.98715E+2
  -1.94495E+2  -7.42603E+1
   1.49276E+1  -7.43893E+1
   1.82271E+2   1.92838E+2
  -1.00407E+2  -7.04176E+1
   2.01287E+2   5.31955E+1
  -1.38451E+2   2.05560E+2
   2.17339E+1  -1.78031E+2
   1.18644E-1   1.61769E+2
   5.27637E+1  -5.18666E+0
   1.25786E+1  -1.43217E+1
  -1.81312E+2  -9.14342E+1
  -6.88088E+1   2.79311E+1
   3.49005E+1   1.96186E+1
  -5.92354E+1   8.35004E+1
  -1.04439E+2  -6.26097E+1
  -3.54135E+2  -2.72051E+2
  -2.67076E+1  -1.01404E+2
   3.97475E+1  -1.40997E+2
  -3.20540E+2   1.56067E+2
  -1.87306E+1   1.89693E+2
   1.22991E+2  -1.12322E+2
   1.48079E+1   1.45616E+2
