 
 $NMID
 ID=''
 FMTDAT='(2E13.5)'
 TRAMP=   1.00000E+0
 VOLUME=   1.00000E+0
 $END
  -1.73771E+5   6.82794E+5
  -1.01285E+6   1.54022E+6
  -7.82785E+5   1.58563E+6
  -8.63608E+5   1.38888E+6
  -1.02393E+6   1.41974E+6
  -9.98744E+5   1.43054E+6
  -1.00442E+6   1.34654E+6
  -1.04912E+6   1.33190E+6
  -1.03838E+6   1.29676E+6
  -1.08674E+6   1.24652E+6
  -1.12113E+6   1.26005E+6
  -1.08748E+6   1.23228E+6
  -1.10195E+6   1.17283E+6
  -1.12957E+6   1.16572E+6
  -1.12287E+6   1.14444E+6
  -1.13239E+6   1.11178E+6
  -1.14806E+6   1.10558E+6
  -1.15124E+6   1.06572E+6
  -1.17841E+6   1.01369E+6
  -1.19848E+6   9.94080E+5
  -1.20217E+6   9.60270E+5
  -1.22005E+6   9.21697E+5
  -1.22795E+6   9.00366E+5
  -1.22807E+6   8.64908E+5
  -1.24169E+6   8.27055E+5
  -1.24293E+6   8.13806E+5
  -1.23802E+6   7.91401E+5
  -1.24164E+6   7.68990E+5
  -1.23910E+6   7.50030E+5
  -1.23391E+6   7.24745E+5
  -1.24295E+6   6.95505E+5
  -1.24388E+6   6.72250E+5
  -1.24292E+6   6.40893E+5
  -1.24782E+6   6.10516E+5
  -1.24669E+6   5.83058E+5
  -1.24624E+6   5.51676E+5
  -1.25287E+6   5.20937E+5
  -1.25291E+6   4.91012E+5
  -1.24665E+6   4.62594E+5
  -1.24472E+6   4.40038E+5
  -1.23878E+6   4.17793E+5
  -1.23208E+6   3.93025E+5
  -1.22566E+6   3.74105E+5
  -1.21957E+6   3.57216E+5
  -1.21258E+6   3.35793E+5
  -1.20753E+6   3.15993E+5
  -1.20162E+6   2.93451E+5
  -1.19575E+6   2.65316E+5
  -1.18836E+6   2.39158E+5
  -1.18068E+6   2.15736E+5
  -1.17354E+6   1.90464E+5
  -1.16713E+6   1.63787E+5
  -1.16003E+6   1.38946E+5
  -1.15315E+6   1.14914E+5
  -1.14422E+6   9.16514E+4
  -1.13442E+6   6.91435E+4
  -1.12508E+6   4.74573E+4
  -1.11491E+6   2.75806E+4
  -1.10378E+6   9.48774E+3
  -1.09401E+6  -8.99015E+3
  -1.08461E+6  -2.87419E+4
  -1.07402E+6  -4.84230E+4
  -1.06345E+6  -6.87682E+4
  -1.05232E+6  -8.91090E+4
  -1.03942E+6  -1.09980E+5
  -1.02546E+6  -1.30054E+5
  -1.01190E+6  -1.49129E+5
  -9.99625E+5  -1.67200E+5
  -9.88109E+5  -1.85602E+5
  -9.75509E+5  -2.03991E+5
  -9.61115E+5  -2.21022E+5
  -9.47534E+5  -2.36423E+5
  -9.35314E+5  -2.51514E+5
  -9.22272E+5  -2.67220E+5
  -9.07624E+5  -2.82438E+5
  -8.92924E+5  -2.97255E+5
  -8.78775E+5  -3.12190E+5
  -8.63899E+5  -3.27387E+5
  -8.48557E+5  -3.42679E+5
  -8.32859E+5  -3.57378E+5
  -8.16244E+5  -3.72139E+5
  -7.99815E+5  -3.85130E+5
  -7.83842E+5  -3.98112E+5
  -7.67803E+5  -4.11107E+5
  -7.51284E+5  -4.22682E+5
  -7.34836E+5  -4.32365E+5
  -7.19292E+5  -4.42047E+5
  -7.03783E+5  -4.51967E+5
  -6.87900E+5  -4.60792E+5
  -6.72140E+5  -4.67927E+5
  -6.56679E+5  -4.75677E+5
  -6.40710E+5  -4.83601E+5
  -6.24270E+5  -4.92375E+5
  -6.06934E+5  -5.00374E+5
  -5.89558E+5  -5.07805E+5
  -5.72633E+5  -5.14228E+5
  -5.56427E+5  -5.21127E+5
  -5.39745E+5  -5.28413E+5
  -5.22083E+5  -5.34859E+5
  -5.05627E+5  -5.39966E+5
  -4.90229E+5  -5.45027E+5
  -4.74098E+5  -5.50544E+5
  -4.56751E+5  -5.54578E+5
  -4.40487E+5  -5.57389E+5
  -4.25884E+5  -5.60388E+5
  -4.11349E+5  -5.63309E+5
  -3.95972E+5  -5.66490E+5
  -3.79964E+5  -5.69218E+5
  -3.64290E+5  -5.71221E+5
  -3.49375E+5  -5.72758E+5
  -3.34985E+5  -5.74526E+5
  -3.20043E+5  -5.76909E+5
  -3.04178E+5  -5.78829E+5
  -2.88444E+5  -5.80391E+5
  -2.73447E+5  -5.81551E+5
  -2.58855E+5  -5.82398E+5
  -2.43808E+5  -5.83503E+5
  -2.28744E+5  -5.83039E+5
  -2.14981E+5  -5.82029E+5
  -2.01900E+5  -5.81272E+5
  -1.88629E+5  -5.81037E+5
  -1.75329E+5  -5.80461E+5
  -1.61763E+5  -5.79473E+5
  -1.48865E+5  -5.78310E+5
  -1.34940E+5  -5.76967E+5
  -1.21732E+5  -5.74516E+5
  -1.09356E+5  -5.72047E+5
  -9.70384E+4  -5.69581E+5
  -8.43482E+4  -5.67086E+5
  -7.16824E+4  -5.64449E+5
  -5.88961E+4  -5.61726E+5
  -4.64177E+4  -5.58242E+5
  -3.41826E+4  -5.54478E+5
  -2.28210E+4  -5.50591E+5
  -1.11123E+4  -5.46655E+5
   8.51488E+2  -5.42262E+5
   1.18763E+4  -5.37350E+5
   2.23503E+4  -5.33034E+5
   3.34827E+4  -5.28962E+5
   4.48161E+4  -5.23693E+5
   5.54384E+4  -5.17836E+5
   6.51278E+4  -5.11849E+5
   7.45138E+4  -5.06369E+5
   8.40819E+4  -5.00654E+5
   9.35035E+4  -4.94916E+5
   1.02982E+5  -4.88574E+5
   1.12152E+5  -4.81869E+5
   1.20503E+5  -4.75173E+5
   1.28935E+5  -4.68522E+5
   1.36475E+5  -4.61692E+5
   1.44157E+5  -4.54631E+5
   1.51569E+5  -4.47460E+5
   1.58489E+5  -4.40917E+5
   1.65538E+5  -4.34658E+5
   1.72630E+5  -4.27390E+5
   1.79659E+5  -4.19981E+5
   1.85456E+5  -4.12971E+5
   1.92215E+5  -4.05807E+5
   1.98166E+5  -3.98583E+5
   2.03748E+5  -3.90795E+5
   2.09278E+5  -3.83690E+5
   2.14827E+5  -3.76358E+5
   2.20306E+5  -3.68688E+5
   2.25076E+5  -3.60642E+5
   2.29634E+5  -3.53392E+5
   2.33715E+5  -3.46224E+5
   2.38050E+5  -3.39171E+5
   2.42571E+5  -3.31911E+5
   2.46475E+5  -3.24393E+5
   2.49903E+5  -3.17358E+5
   2.53412E+5  -3.09891E+5
   2.56610E+5  -3.02736E+5
   2.59959E+5  -2.95871E+5
   2.63071E+5  -2.88283E+5
   2.65652E+5  -2.81134E+5
   2.68675E+5  -2.74643E+5
   2.71474E+5  -2.67253E+5
   2.73966E+5  -2.59483E+5
   2.76033E+5  -2.52134E+5
   2.78084E+5  -2.45366E+5
   2.80253E+5  -2.38485E+5
   2.82390E+5  -2.31622E+5
   2.84330E+5  -2.24044E+5
   2.85986E+5  -2.17051E+5
   2.87225E+5  -2.10078E+5
   2.88307E+5  -2.03237E+5
   2.89026E+5  -1.96490E+5
   2.89931E+5  -1.89810E+5
   2.90476E+5  -1.83712E+5
   2.91615E+5  -1.77560E+5
   2.92562E+5  -1.71026E+5
   2.93226E+5  -1.64120E+5
   2.93428E+5  -1.56912E+5
   2.93369E+5  -1.50469E+5
   2.93296E+5  -1.44112E+5
   2.93407E+5  -1.37726E+5
   2.93374E+5  -1.31355E+5
   2.93210E+5  -1.24902E+5
   2.92694E+5  -1.18426E+5
   2.92675E+5  -1.12002E+5
   2.92136E+5  -1.05572E+5
   2.91444E+5  -9.89285E+4
   2.89899E+5  -9.30163E+4
   2.89111E+5  -8.72945E+4
   2.88327E+5  -8.14270E+4
   2.87029E+5  -7.52808E+4
   2.85664E+5  -6.94435E+4
   2.84342E+5  -6.36316E+4
   2.82653E+5  -5.78443E+4
   2.81211E+5  -5.23256E+4
   2.79548E+5  -4.63131E+4
   2.77365E+5  -4.09727E+4
   2.75362E+5  -3.58335E+4
   2.73846E+5  -3.08817E+4
   2.71941E+5  -2.51977E+4
   2.69539E+5  -1.97621E+4
   2.67115E+5  -1.48318E+4
   2.64652E+5  -1.04355E+4
   2.62246E+5  -5.47843E+3
   2.59989E+5  -1.14976E+3
   2.57221E+5   3.49518E+3
   2.54800E+5   7.40731E+3
   2.52010E+5   1.15529E+4
   2.49493E+5   1.61517E+4
   2.46812E+5   2.05231E+4
   2.43439E+5   2.43154E+4
   2.40722E+5   2.77034E+4
   2.37484E+5   3.13639E+4
   2.35015E+5   3.51899E+4
   2.32172E+5   3.88876E+4
   2.28775E+5   4.19669E+4
   2.25509E+5   4.54808E+4
   2.22717E+5   4.83423E+4
   2.19598E+5   5.12549E+4
   2.16660E+5   5.42145E+4
   2.13496E+5   5.68621E+4
   2.10550E+5   5.95228E+4
   2.07627E+5   6.23445E+4
   2.04196E+5   6.48037E+4
   2.01070E+5   6.68470E+4
   1.97985E+5   6.87328E+4
   1.95350E+5   7.11882E+4
   1.92310E+5   7.33308E+4
   1.88934E+5   7.54543E+4
   1.85846E+5   7.71840E+4
   1.82853E+5   7.90410E+4
   1.79844E+5   8.08975E+4
   1.76643E+5   8.25753E+4
   1.73518E+5   8.42206E+4
   1.70715E+5   8.55582E+4
   1.67487E+5   8.69350E+4
   1.64758E+5   8.85541E+4
   1.61540E+5   9.00690E+4
   1.58367E+5   9.11613E+4
   1.55249E+5   9.20532E+4
   1.52305E+5   9.31668E+4
   1.49642E+5   9.40150E+4
   1.46490E+5   9.54347E+4
   1.43432E+5   9.65153E+4
   1.40519E+5   9.75037E+4
   1.37600E+5   9.85891E+4
   1.34248E+5   9.95901E+4
   1.30957E+5   1.00229E+5
   1.28106E+5   1.00648E+5
   1.25136E+5   1.01412E+5
   1.22518E+5   1.01901E+5
   1.19676E+5   1.02794E+5
   1.16520E+5   1.03426E+5
   1.13516E+5   1.03629E+5
   1.10703E+5   1.04187E+5
   1.07730E+5   1.04535E+5
   1.04999E+5   1.04942E+5
   1.02189E+5   1.04748E+5
   9.91730E+4   1.05472E+5
   9.63805E+4   1.05573E+5
   9.36555E+4   1.05843E+5
   9.05989E+4   1.05896E+5
   8.80220E+4   1.05984E+5
   8.52940E+4   1.06009E+5
   8.26703E+4   1.06124E+5
   8.01632E+4   1.06277E+5
   7.73286E+4   1.06006E+5
   7.46006E+4   1.05824E+5
   7.22178E+4   1.05990E+5
   6.94934E+4   1.05938E+5
   6.70691E+4   1.05593E+5
   6.45551E+4   1.05014E+5
   6.22726E+4   1.04796E+5
   6.01558E+4   1.04426E+5
   5.78659E+4   1.04373E+5
   5.53059E+4   1.04042E+5
   5.30373E+4   1.03800E+5
   5.07461E+4   1.03161E+5
   4.85642E+4   1.02816E+5
   4.64355E+4   1.02116E+5
   4.43519E+4   1.01895E+5
   4.22827E+4   1.01498E+5
   4.02360E+4   1.00745E+5
   3.82678E+4   1.00418E+5
   3.61834E+4   1.00022E+5
   3.44316E+4   9.93328E+4
   3.26300E+4   9.83349E+4
   3.07482E+4   9.81498E+4
   2.88483E+4   9.74721E+4
   2.70473E+4   9.68201E+4
   2.53924E+4   9.58933E+4
   2.37026E+4   9.49662E+4
   2.18918E+4   9.44293E+4
   2.03842E+4   9.37487E+4
   1.91246E+4   9.30030E+4
   1.76536E+4   9.23344E+4
   1.58713E+4   9.15728E+4
   1.42427E+4   9.06343E+4
   1.29117E+4   9.01250E+4
   1.14300E+4   8.90061E+4
   9.85408E+3   8.81139E+4
   8.91222E+3   8.72050E+4
   7.58850E+3   8.64081E+4
   6.16220E+3   8.55547E+4
   5.06702E+3   8.45686E+4
   3.67111E+3   8.35446E+4
   2.43853E+3   8.27189E+4
   1.25108E+3   8.18208E+4
   1.51401E+2   8.08224E+4
  -9.51664E+2   7.98804E+4
  -1.96743E+3   7.86517E+4
  -2.94249E+3   7.79679E+4
  -4.07817E+3   7.70931E+4
  -5.36533E+3   7.60556E+4
  -6.30164E+3   7.48253E+4
  -7.12901E+3   7.36746E+4
  -7.90890E+3   7.26540E+4
  -9.03445E+3   7.14830E+4
  -9.78910E+3   7.07650E+4
  -1.06549E+4   6.95030E+4
  -1.17101E+4   6.86721E+4
  -1.22685E+4   6.75806E+4
  -1.33295E+4   6.66601E+4
  -1.40525E+4   6.53599E+4
  -1.47454E+4   6.43114E+4
  -1.51143E+4   6.35238E+4
  -1.59380E+4   6.25995E+4
  -1.67267E+4   6.17261E+4
  -1.72733E+4   6.03489E+4
  -1.80535E+4   5.90273E+4
  -1.88003E+4   5.83330E+4
  -1.94659E+4   5.72112E+4
  -1.99214E+4   5.60750E+4
  -2.06830E+4   5.51136E+4
  -2.08647E+4   5.39966E+4
  -2.16320E+4   5.31489E+4
  -2.20243E+4   5.21903E+4
  -2.26380E+4   5.11250E+4
  -2.28535E+4   4.99822E+4
  -2.35922E+4   4.91408E+4
  -2.39893E+4   4.82048E+4
  -2.42994E+4   4.71483E+4
  -2.45173E+4   4.61741E+4
  -2.50918E+4   4.53901E+4
  -2.54365E+4   4.43380E+4
  -2.55896E+4   4.33670E+4
  -2.61193E+4   4.24731E+4
  -2.61264E+4   4.14745E+4
  -2.65131E+4   4.07405E+4
  -2.68069E+4   3.99743E+4
  -2.72779E+4   3.88654E+4
  -2.74213E+4   3.78991E+4
