 
 $NMID
 ID=''
 FMTDAT='(2E13.5)'
 TRAMP=   1.00000E+0
 VOLUME=   1.00000E+0
 $END
  -1.85814E+4  -1.32316E+3
  -3.36933E+4   1.17164E+4
  -1.45924E+3   4.07288E+4
   3.27523E+4   2.24630E+4
   2.66759E+4  -2.11956E+4
  -1.71260E+3  -3.38338E+4
  -2.33130E+4  -1.02467E+4
  -2.16873E+4   1.79329E+4
   2.82527E+3   2.50574E+4
   2.12800E+4   7.05133E+3
   1.31554E+4  -1.46426E+4
  -6.00813E+3  -1.81939E+4
  -1.56717E+4  -3.97324E+3
  -9.86176E+3   9.68532E+3
   5.44780E+3   1.03504E+4
   1.36293E+4   6.26294E+2
   4.92533E+3  -7.41878E+3
  -5.24060E+3  -7.11546E+3
  -6.01434E+3   1.26391E+2
  -1.94957E+3   5.85873E+3
   3.07328E+3   3.96543E+3
   5.17698E+3  -1.34477E+3
   1.32366E+3  -2.54252E+3
  -3.26678E+3  -1.66576E+3
  -2.48167E+3  -8.13281E+2
   1.02310E+3   2.57776E+3
   9.70666E+2   3.68651E+3
  -1.46047E+2  -1.10169E+3
   2.25492E+2  -3.38859E+3
   2.78549E+2  -2.10924E+2
  -1.08302E+3   1.81172E+3
  -1.34495E+3   5.61673E+2
   3.71364E+2  -1.02070E+3
   1.60858E+3  -1.43669E+3
   1.71175E+3  -6.44171E+2
   1.61788E+2   1.03034E+3
  -1.31089E+3   1.20645E+3
  -7.24818E+2   5.24246E+2
   7.49164E+2  -1.02166E+2
   3.04221E+2  -1.17905E+2
  -3.58725E+2  -1.13395E+3
   5.54586E+2  -6.69145E+2
   7.51645E+2   1.24572E+3
   4.45099E+2   1.45887E+3
   3.36482E+2   5.61719E+2
  -2.55116E+1   4.01117E+2
  -1.63230E+3   3.14913E+2
  -1.55279E+3  -1.14479E+3
   3.82855E+2  -1.19290E+3
   1.76554E+3  -7.61045E+1
   9.65348E+2  -1.06226E+2
   5.26377E+1  -3.99354E+2
   4.28861E+1   2.85983E+2
  -2.35373E+2   9.69263E+2
  -4.71733E+2   5.73690E+2
  -3.91875E+2  -4.09361E+2
  -3.63158E+1  -9.72507E+2
   4.93489E+2  -6.87872E+2
   6.19044E+2   5.73812E+2
   2.79160E+2   1.11805E+3
  -1.41439E+2   6.12314E+2
  -3.65920E+2   3.54225E+2
  -1.25488E+3   1.64559E+2
  -1.66279E+3  -7.21452E+2
  -6.59858E+2  -1.36063E+3
   5.59173E+2  -6.99611E+2
   1.18869E+3   4.98259E+1
   9.82103E+2   3.10293E+2
   2.68325E+2   4.61533E+2
  -5.06264E+2   3.48458E+2
  -2.60635E+2  -2.35916E+1
   3.86523E+2   3.36025E+2
   2.66076E+2   9.23675E+2
  -7.04746E+2   4.00693E+2
  -2.95089E+2  -5.82250E+2
   8.82244E+1  -2.49713E+2
  -3.18333E+2   3.71197E+2
  -7.32111E+2   3.25925E+2
  -1.93081E+2  -1.18037E+2
   1.66033E+2  -2.28039E+2
   4.48224E+2  -5.31918E+2
   3.38798E+2  -2.98707E+2
  -7.05378E+0   9.49170E+1
  -2.44538E+2  -2.55636E+1
   4.40973E+2  -1.02524E+1
   6.77445E+2   1.42459E+2
   3.83043E+2   3.98028E+2
  -4.38284E+2   2.53165E+2
  -1.14181E+2  -2.93855E+2
  -8.83651E+0   6.97490E+1
   1.07614E+2   7.41245E+2
  -5.24379E+2  -7.99825E+1
  -3.95170E+2  -4.81481E+2
  -7.92016E+1  -6.68391E+2
   2.97466E+2  -5.61641E+2
   2.64250E+2   1.65964E+2
   1.70725E+2   4.90916E+1
   2.12871E+2  -2.46078E+2
   2.85249E+2  -1.30799E+2
   5.72307E+1   4.74178E+2
  -5.97319E+2   3.85871E+2
  -5.53796E+2  -8.84000E+1
  -9.40879E+1  -3.98273E+2
   3.37145E+2  -4.52781E+2
   5.79109E+2  -8.86556E+1
  -1.65246E+2   4.84615E+2
  -8.58028E+2   6.18428E+1
  -2.70894E+2  -7.73334E+2
   7.49482E+2  -9.00502E+2
   1.00233E+3   4.07776E+2
   1.39224E+2   8.63051E+2
  -5.85484E+2   4.12742E+2
  -3.83643E+2  -1.51090E+2
  -1.02492E+2   5.76954E+1
  -3.18035E+2   3.66810E+2
  -2.63116E+2  -1.69024E+2
  -3.40048E+2  -8.88689E+2
   1.11661E+2  -6.10293E+2
   7.20671E+2  -1.24783E+1
   6.23919E+2   2.99678E+2
  -1.17574E+2   6.47012E+2
  -2.68026E+2   4.47758E+2
  -2.39290E+2   1.87003E+2
  -3.04061E+2  -4.58255E+1
  -1.61611E+2  -2.76272E+2
   2.93883E+2  -1.98962E+2
   3.64108E+2   1.10617E+1
   3.78183E+2   2.87212E+2
   1.12586E+2   1.04101E+2
  -1.80021E+2   2.18845E+2
  -5.41412E+2  -2.29262E+2
   9.86788E+1  -5.92807E+2
   1.82076E+2  -2.70755E+2
   1.28105E+2   7.32338E+1
  -9.92098E+1  -1.14143E+2
   2.30955E+2  -2.72250E+2
   2.31801E+2   1.01944E+1
  -3.92579E+1   6.01176E+2
  -3.26358E+2   3.04451E+2
  -3.32410E+2  -2.37674E+2
   1.28965E+2  -6.55400E+2
   5.87941E+2  -8.48471E+1
   2.42180E+2   3.40645E+2
  -3.69262E+2   2.53298E+2
  -5.84477E+2  -2.40926E+2
   1.15392E+1  -3.16166E+2
   1.19007E+1  -4.55402E+2
   3.34363E+1  -5.07432E+2
   1.61751E+2  -4.78036E+2
   2.18849E+2  -2.88286E+2
   3.05989E+2  -2.22632E+1
   3.95307E+2   1.17811E+2
   1.67873E+2   3.39539E+2
  -2.51430E+2   1.80625E+2
  -3.58727E+2  -4.73645E+1
   2.32557E+1  -2.61921E+2
  -7.42427E+1  -5.26380E+1
  -3.28273E+2   1.09176E+2
  -1.00465E+2  -1.95078E+2
  -5.80636E+1  -2.05448E+2
  -2.79463E+2  -1.76827E+2
  -2.03299E+2  -1.73742E+2
  -2.48526E+2  -3.93771E+2
   3.54280E+2  -4.19324E+2
   4.73809E+2   3.73745E+1
   5.11365E+1   4.49361E+2
  -5.04453E+2   1.75531E+2
  -2.87744E+2  -1.89558E+2
  -6.04063E+1  -6.25859E+1
   6.42298E+1   4.68871E+1
  -1.46427E+2   1.61234E+2
  -3.23454E+2  -2.60511E+2
  -2.91022E+2  -1.01820E+2
   7.29100E+1   5.57232E+1
   2.09527E+2   9.69438E+1
  -2.00928E+2   4.69750E+1
  -4.96222E+2  -1.45985E+2
   2.09818E+1  -4.90963E+2
   5.82199E+2  -1.70150E+2
   5.95411E+1   2.11049E+2
  -9.57712E+1   3.22867E+2
  -1.53264E+2  -3.79995E+2
  -1.28506E+2  -2.18761E+2
   1.79990E+2  -1.35802E+2
   2.72187E+2  -9.40456E+1
   6.70972E+1  -2.79833E+2
   1.38926E+2  -3.88741E+2
   1.09614E+2   5.80860E+1
   1.48619E+2   3.58698E+2
  -1.46843E+2   6.38858E+2
  -5.38705E+2   7.40091E+1
  -1.99448E+2  -4.94870E+2
   2.68580E+2  -5.65128E+2
   1.46796E+2   1.04845E+2
   4.24950E+1   1.03920E+2
   9.03851E+1   1.66354E+2
  -4.59944E+0  -1.14226E+0
  -2.12085E+2   8.39302E+1
  -2.82266E+2  -1.90142E+1
  -9.76001E+1  -3.39151E+2
   1.05220E+2  -4.42845E+2
   3.44459E+2  -4.29674E+2
   3.08229E+2   2.11142E+2
  -1.07921E+2   1.45200E+2
  -3.16205E+2   9.52554E+0
   1.25171E+2  -1.81685E+2
  -1.33730E+2  -1.11093E+2
   1.84421E+2  -2.78358E+2
  -1.78775E+2   1.82803E+1
  -7.35239E+1   8.40711E+1
   6.42730E+1   3.36005E+1
   1.68732E+2   5.92683E+1
  -2.08639E+2   3.29522E+2
  -6.04565E+2  -1.32737E+1
  -2.76403E+2  -3.27874E+2
   1.88270E+2  -4.94973E+2
   2.82573E+2  -1.96524E+2
   3.24633E+2   1.38126E+2
   9.51213E+1  -2.45029E+2
   1.87137E+1   1.44874E+2
  -1.30173E+2  -5.42450E+0
  -1.75937E+2   1.78019E+2
  -4.86118E+2  -1.22827E+2
  -4.87057E+2  -1.94643E+2
  -3.31457E+1  -6.23270E+2
   3.78418E+2  -1.41555E+2
   1.60272E+2  -1.64865E+2
  -4.15086E+2   2.60474E+2
  -2.35192E+2  -1.03761E+2
   1.37991E+1  -1.29431E+2
  -2.08372E+2  -1.15935E+1
  -1.97039E+2  -4.55886E+1
  -2.12742E+2   8.89010E+1
  -3.05418E+1  -3.70930E+2
  -6.48564E+1   1.61162E+1
   3.52726E+1   2.34847E+2
  -5.32738E+1  -1.16879E+0
  -6.59761E+1   1.76536E+1
   1.23763E+2  -1.11652E+2
   1.17349E+2  -5.11495E+1
  -7.78121E+1   3.20044E+2
  -3.04271E+2   2.27862E+1
  -6.91664E+1  -2.29622E+2
  -8.57651E+1  -5.83458E+1
   1.49275E+1   6.18465E+1
   1.64420E+0  -1.36929E+2
  -7.09045E+1  -1.46124E+2
   7.93340E+1  -3.24561E+2
   2.00111E+2   4.97732E+1
   3.14982E+1   2.73275E+2
  -1.87115E+2   1.54148E+2
  -1.57153E+2  -3.22016E+2
  -5.78851E+1  -2.14289E+2
  -3.72558E+1   1.14452E+2
   3.04558E+2   3.16600E+1
  -1.25902E+2   1.18872E+2
  -1.78545E+2   6.90312E+1
  -1.60192E+2   1.16874E+0
   6.09614E+1  -2.76580E+2
  -2.38861E+2  -2.01277E+2
  -3.43115E+2  -1.75059E+2
  -3.96884E+1  -1.47235E+2
   4.17927E+2  -7.76355E+1
   6.21595E+1   5.86513E+1
   3.99182E+0   2.12043E+2
  -2.68954E+2   1.57182E+2
  -3.33719E+2  -3.26756E+1
   1.18834E+2  -5.39217E+1
   1.46743E+2  -2.88121E+1
  -8.79883E+1   3.20564E+1
   7.76149E+1   4.14781E+1
  -3.26886E+1   6.22733E+1
   2.75870E+1   8.76192E+1
  -5.60807E+1   1.22103E+2
  -4.34673E+2  -5.01808E+1
  -2.42041E+2  -3.66224E+2
   6.73397E+0  -2.50313E+2
   2.08943E+2   1.93912E+2
   9.37063E+1   8.12344E+1
  -1.09493E+2   2.48659E+2
   1.50746E+2   2.67978E+2
  -1.42729E+2  -5.54774E+1
   1.00071E+2   8.76228E+1
  -1.91272E+2  -1.31882E+2
  -3.98640E+1   1.25526E+2
   1.05243E+2  -2.23168E+2
  -1.27457E+1   2.16369E+2
   1.81937E+2   1.53833E+2
  -1.94045E+2   1.78252E+2
  -9.35828E+1   1.85832E+1
  -2.65460E+2  -6.06633E+1
   4.09201E+1  -4.60284E+1
  -3.94455E+1  -1.87956E+1
   6.71139E+1  -9.82689E-1
   6.07911E+1  -9.43232E+1
  -1.57029E+2  -4.88236E+1
   1.64954E+0   2.72863E+2
  -2.37080E+2   5.59851E+1
  -1.78038E+2   2.42032E+2
  -8.05245E+1  -3.31417E+1
   1.63020E+2   1.09582E+2
  -1.62822E+1   1.30562E+2
  -1.99407E+2   1.86951E+2
  -7.96793E+1  -2.56213E+2
   1.30937E+2  -7.10983E+1
   9.56860E+1   8.23165E+0
   1.80232E+1   5.92877E+1
  -9.00686E+1   1.33644E+2
  -6.14951E+1   1.59396E+2
   1.65294E+2   1.17703E+2
   1.12369E+1   2.94892E+2
  -1.06313E+2   1.35017E+2
   3.49783E+1   4.73694E+1
  -6.89394E+1  -7.23650E+1
  -3.68991E+1  -8.58489E+1
   1.55350E+2   4.57091E+1
   7.81649E+1  -2.91947E+1
  -6.16541E+1   5.09985E+1
  -6.73630E+1   5.45368E+1
   4.77502E+1   2.18681E+0
  -1.06081E+2   1.01490E+2
   2.48387E+2  -1.73643E+2
  -1.97336E+1   3.22456E+1
   6.29152E+1  -5.44485E+1
  -2.37937E+1   7.25202E+1
  -1.52585E+2   2.06582E+1
  -3.07009E+2   1.29907E+1
  -4.85699E+1  -1.71426E+2
  -1.96389E+2  -3.03073E+2
  -5.43050E-1  -1.56459E+2
  -3.16044E+1  -3.20902E+1
   6.10701E+1   1.71502E+2
  -1.03212E+2  -1.79617E+1
   1.09323E+2   5.35862E+0
  -3.07581E+1   2.78574E+1
  -1.81294E+2  -3.27287E+1
   2.27149E+1  -2.87674E+2
   1.58251E+2   5.92547E+1
   2.58216E+2   2.39366E+0
   5.34485E+1  -8.45971E+1
  -2.08597E+1  -4.94481E+1
  -2.17596E+2   2.20506E+2
  -1.89575E+2   6.32288E+1
   1.48979E+2   7.96175E+1
  -9.46747E+1  -9.17580E+1
  -6.28376E+1  -1.98976E+2
   2.44168E+2   1.73314E+2
   8.86628E+0   3.17892E+1
   3.82216E+1   1.65332E+2
  -1.11232E+2   2.77083E+2
  -1.12002E+2  -3.34007E+1
  -4.26505E+1  -9.11178E+1
   3.56726E+0  -1.16036E+2
   6.74003E+1   2.07132E+2
  -5.40598E+1   1.71821E+2
   5.43234E+1  -2.04564E+2
  -4.49364E+0  -5.73510E+1
  -1.13526E+2   2.77077E+2
  -3.50589E+2  -5.54359E+1
  -1.32524E+2  -1.72376E+1
  -1.30575E+2  -8.85370E+1
   2.72009E+1  -1.88365E+2
   9.53553E+1  -4.42150E+1
  -1.79098E+2   1.93067E+2
  -2.51493E+2  -1.68889E+2
   6.70693E+1  -7.15825E+1
  -1.08795E+2  -1.07695E+2
