 LCModel (Version 6.3-1N) Copyright: S.W. Provencher.          Ref.: Magn. Reson. Med. 30:672-679 (1993).                
 Slice_N1@20_12  28-Feb-2025 11:41:36
 27 lines in following concentration table = NCONC+1
    Conc.  %SD /Cr+PCr  Metabolite                                         
 3.10E-04   4% 3.4E-04 Mac                                                 
    4.202  21%   4.660 Cr                                                  
    3.012  28%   3.340 PCr                                                 
    7.187  12%   7.971 Ins                                                 
    9.541   7%  10.581 NAA                                                 
    5.252  14%   5.824 Tau                                                 
    1.767  52%   1.960 PCho                                                
 3.96E-02 999% 4.4E-02 GPC                                                 
    9.358  10%  10.378 Glu                                                 
    4.763  16%   5.282 Gln                                                 
    0.000 999%   0.000 Ala                                                 
    4.509  24%   5.000 Asc                                                 
    1.517  53%   1.682 Asp                                                 
    0.762  57%   0.846 GABA                                                
    0.687  80%   0.762 Glc                                                 
    2.272  20%   2.520 GSH                                                 
    0.000 999%   0.000 Lac                                                 
    1.679  29%   1.862 NAAG                                                
    0.000 999%   0.000 PE                                                  
    1.807  11%   2.004 GPC+PCho                                            
   11.219   6%  12.442 NAA+NAAG                                            
   14.121   8%  15.660 Glu+Gln                                             
    7.214   8%   8.000 Cr+PCr                                              
   11.219   6%  12.442 NAA+NAAG                                            
    7.214   8%   8.000 Cr+PCr                                              
   14.121   8%  15.660 Glu+Gln                                             
   6 lines in following misc. output table
  FWHM = 0.024 ppm    S/N =   4                                            
  Data shift = 0.024 ppm                                                   
  Ph:-151 deg       0.0 deg/ppm                                            
  alphaB,S = 1.1E-01,   5.8E+00                                            
   19 spline knots.   Ns = 5(1)                                            
  ( 3) 2 infls.   ( 2) 1 extrs.                                            
  480 points on ppm-axis = NY
      4.100000     4.091866     4.083733     4.075600     4.067466     4.059333     4.051199     4.043066     4.034933     4.026799
      4.018666     4.010532     4.002399     3.994265     3.986132     3.977998     3.969864     3.961731     3.953597     3.945463
      3.937330     3.929196     3.921062     3.912929     3.904795     3.896662     3.888528     3.880394     3.872261     3.864127
      3.855993     3.847860     3.839726     3.831592     3.823459     3.815325     3.807191     3.799058     3.790924     3.782790
      3.774657     3.766523     3.758389     3.750256     3.742122     3.733989     3.725855     3.717721     3.709588     3.701454
      3.693320     3.685187     3.677053     3.668919     3.660786     3.652652     3.644518     3.636385     3.628251     3.620117
      3.611984     3.603850     3.595716     3.587583     3.579449     3.571316     3.563182     3.555048     3.546915     3.538781
      3.530647     3.522514     3.514380     3.506246     3.498113     3.489979     3.481845     3.473712     3.465578     3.457444
      3.449311     3.441177     3.433043     3.424910     3.416776     3.408643     3.400509     3.392375     3.384242     3.376108
      3.367974     3.359841     3.351707     3.343573     3.335440     3.327306     3.319172     3.311039     3.302905     3.294771
      3.286638     3.278504     3.270370     3.262237     3.254103     3.245970     3.237836     3.229702     3.221569     3.213435
      3.205301     3.197168     3.189034     3.180900     3.172767     3.164633     3.156499     3.148366     3.140232     3.132098
      3.123965     3.115831     3.107697     3.099564     3.091430     3.083297     3.075163     3.067029     3.058896     3.050762
      3.042628     3.034495     3.026361     3.018227     3.010094     3.001960     2.993826     2.985693     2.977559     2.969425
      2.961292     2.953158     2.945024     2.936891     2.928757     2.920624     2.912490     2.904356     2.896223     2.888089
      2.879955     2.871822     2.863688     2.855554     2.847421     2.839287     2.831153     2.823020     2.814886     2.806752
      2.798619     2.790485     2.782351     2.774218     2.766084     2.757951     2.749817     2.741683     2.733550     2.725416
      2.717282     2.709149     2.701015     2.692881     2.684748     2.676614     2.668480     2.660347     2.652213     2.644079
      2.635946     2.627812     2.619678     2.611545     2.603411     2.595278     2.587144     2.579010     2.570877     2.562743
      2.554609     2.546476     2.538342     2.530208     2.522075     2.513941     2.505807     2.497674     2.489540     2.481406
      2.473273     2.465139     2.457006     2.448872     2.440738     2.432605     2.424471     2.416337     2.408204     2.400070
      2.391936     2.383803     2.375669     2.367535     2.359402     2.351268     2.343134     2.335001     2.326867     2.318733
      2.310600     2.302466     2.294333     2.286199     2.278065     2.269932     2.261798     2.253664     2.245531     2.237397
      2.229263     2.221130     2.212996     2.204862     2.196729     2.188595     2.180461     2.172328     2.164194     2.156060
      2.147927     2.139793     2.131660     2.123526     2.115392     2.107259     2.099125     2.090991     2.082858     2.074724
      2.066590     2.058457     2.050323     2.042189     2.034056     2.025922     2.017788     2.009655     2.001521     1.993387
      1.985254     1.977120     1.968987     1.960853     1.952719     1.944586     1.936452     1.928318     1.920185     1.912051
      1.903917     1.895784     1.887650     1.879516     1.871383     1.863249     1.855115     1.846982     1.838848     1.830714
      1.822581     1.814447     1.806314     1.798180     1.790046     1.781913     1.773779     1.765645     1.757512     1.749378
      1.741244     1.733111     1.724977     1.716843     1.708710     1.700576     1.692442     1.684309     1.676175     1.668041
      1.659908     1.651774     1.643641     1.635507     1.627373     1.619240     1.611106     1.602972     1.594839     1.586705
      1.578571     1.570438     1.562304     1.554170     1.546037     1.537903     1.529769     1.521636     1.513502     1.505368
      1.497235     1.489101     1.480968     1.472834     1.464700     1.456567     1.448433     1.440299     1.432166     1.424032
      1.415898     1.407765     1.399631     1.391497     1.383364     1.375230     1.367096     1.358963     1.350829     1.342695
      1.334562     1.326428     1.318295     1.310161     1.302027     1.293894     1.285760     1.277626     1.269493     1.261359
      1.253225     1.245092     1.236958     1.228824     1.220691     1.212557     1.204423     1.196290     1.188156     1.180022
      1.171889     1.163755     1.155622     1.147488     1.139354     1.131221     1.123087     1.114953     1.106820     1.098686
      1.090552     1.082419     1.074285     1.066151     1.058018     1.049884     1.041750     1.033617     1.025483     1.017349
      1.009216     1.001082     0.992949     0.984815     0.976681     0.968548     0.960414     0.952280     0.944147     0.936013
      0.927879     0.919746     0.911612     0.903478     0.895345     0.887211     0.879077     0.870944     0.862810     0.854676
      0.846543     0.838409     0.830276     0.822142     0.814008     0.805875     0.797741     0.789607     0.781474     0.773340
      0.765206     0.757073     0.748939     0.740805     0.732672     0.724538     0.716404     0.708271     0.700137     0.692003
      0.683870     0.675736     0.667603     0.659469     0.651335     0.643202     0.635068     0.626934     0.618801     0.610667
      0.602533     0.594400     0.586266     0.578132     0.569999     0.561865     0.553731     0.545598     0.537464     0.529330
      0.521197     0.513063     0.504930     0.496796     0.488662     0.480529     0.472395     0.464261     0.456128     0.447994
      0.439861     0.431727     0.423593     0.415460     0.407326     0.399192     0.391059     0.382925     0.374792     0.366658
      0.358524     0.350391     0.342257     0.334124     0.325990     0.317856     0.309723     0.301589     0.293455     0.285322
      0.277188     0.269055     0.260921     0.252787     0.244654     0.236520     0.228386     0.220253     0.212119     0.203986
 NY phased data points follow
   4.12856E+01  2.92435E+01  2.50020E+01  1.81069E+01  2.10275E+01  1.77803E+01  2.45053E+01  2.20264E+01  2.72187E+01  1.15042E+01
   5.27237E-01  1.53327E+01 -1.46941E+01 -1.60193E+01 -1.21171E+01 -2.81972E+01 -2.12198E+01 -2.42155E+01 -3.20121E+01 -7.04906E+01
  -8.75761E+01 -4.67501E+01 -4.93922E+01 -2.97603E+01  9.20780E+00  3.92685E+00  6.83764E+00 -4.36928E+00 -3.20274E+00 -3.12841E+00
  -7.52653E+00 -7.62123E+00 -1.97156E+01 -5.89188E+00 -3.12994E+00 -2.11466E+01 -3.38950E+01 -3.39888E+01 -6.08866E+01 -7.89490E+01
  -7.57652E+01 -8.98009E+01 -6.99549E+01 -6.89181E+01 -5.35894E+01 -2.17964E+01 -1.41851E+01  2.94748E+01  3.20399E+01  2.42874E+01
   2.89698E+01  1.15546E+01  2.98444E+01  8.56971E+00 -2.61080E+01 -1.65131E+01 -1.10342E+01 -1.43678E+01 -4.88345E+01 -3.58093E+01
  -4.58302E+00 -3.64764E+01 -1.97992E+01  3.07253E+01  3.37205E+01  2.77978E+01  3.28887E+01  1.60092E+01 -1.72391E+01 -4.77850E+01
  -2.92339E+01 -5.78643E+00 -2.89479E+01  2.43350E-01  1.82666E+01  2.45966E+01  5.57508E+01  4.93183E+01  4.88815E+01  4.51736E+01
   5.67698E+01  4.43449E+01  1.91071E+01  1.62624E+01 -5.02601E+00  3.34361E+00  2.07540E+00  1.99423E+01  5.03615E+01  4.92336E+01
   5.00073E+01  5.27700E+01  7.02376E+01  7.02119E+01  7.51274E+01  7.61050E+01  7.63269E+01  8.81633E+01  7.00021E+01  6.58345E+01
   7.42953E+01  4.99947E+01  2.79218E+01  3.12827E+01  1.42903E+01 -1.56914E+00 -1.56715E+01 -2.38411E+01 -3.69057E+01 -8.56669E+01
  -1.22070E+02 -1.30395E+02 -9.13538E+01 -7.58874E+01 -6.42366E+01 -3.43270E+01 -3.37046E+01 -1.40720E+00  4.04570E+00 -1.24321E+01
   1.19854E+00  1.77704E+01  2.29090E+01  2.96911E+01  3.39428E+01  3.96174E+01  6.35333E+01  7.26438E+01  9.31853E+01  1.08809E+02
   1.52955E+02  1.43256E+02 -6.70880E+00 -6.95223E+01 -5.83079E+01 -8.18683E+01 -8.06671E+01 -7.15694E+01 -7.55992E+01 -6.25665E+01
  -5.30033E+01 -6.48843E+01 -5.45508E+01 -5.77690E+01 -5.87077E+01 -4.83580E+01 -5.97253E+01 -4.83091E+01 -4.74956E+01 -4.79409E+01
  -3.49595E+01 -3.66544E+01 -2.14670E+01 -1.93335E+01 -3.03161E+01 -1.34685E+01 -1.39656E+01 -2.23252E+01 -1.20067E+01 -1.41956E+01
  -1.10264E+01 -1.09667E+01 -1.64526E+01 -1.94628E+01 -1.00387E+01 -4.52290E+00 -1.42920E+01  4.50982E+00  1.73529E+00 -3.05420E+00
   5.56424E+00  2.67768E+01  4.55450E+01  3.17664E+01  2.24628E+01  1.35217E+00  3.23065E+01  4.15407E+01  1.44303E+01 -2.63214E+00
  -2.24867E+01 -1.27569E+01 -4.95136E+01 -3.68819E+01 -1.06060E+01 -2.67609E+01 -2.79461E+01 -2.93491E+01 -1.29265E+01 -2.28768E+01
  -1.71836E+01 -6.84354E+00 -7.46066E+00  6.40646E+00  1.18816E+01  1.01010E+01  9.50835E+00  1.23996E+01  1.28466E+01  3.18147E+00
  -6.37559E+00  1.40624E+01  1.30873E+01  1.15491E+01  1.57012E+01  1.56586E+01  3.09200E+00 -1.93537E+01 -1.03385E+00 -1.24248E+01
  -2.63127E+01 -2.26493E+01  1.67529E+00  1.70761E+01  1.47500E+01  6.00684E+01  6.27000E+01  5.45520E+01  6.65723E+01  3.34660E+01
   1.61750E+01  2.08605E+01  9.54121E+00  1.72655E+01  1.60360E+01  1.46271E+01  1.73627E+01  2.11017E+01  3.30248E+01  1.37526E+01
   2.02804E+01  4.09546E+00 -1.51800E+01 -9.38215E+00 -2.85517E+01 -3.54164E+01 -4.58035E+01 -5.07315E+01 -6.09432E+01 -5.56289E+01
  -3.95125E+01 -4.05137E+01 -2.64079E+01 -1.03286E+01 -1.37400E+01  1.13206E+00  9.48022E+00  3.85789E+00  5.87292E+00 -1.41737E+01
  -9.28712E+00 -2.45920E+01 -1.44209E+01 -1.76349E+01 -3.86747E+01 -5.60600E+01 -1.04121E+02  6.39389E+01  2.00783E+02  1.79965E+02
   1.82954E+02  1.61116E+02  1.51451E+02  1.28872E+02  1.27324E+02  1.15105E+02  1.01483E+02  1.04874E+02  9.05170E+01  9.45642E+01
   9.50740E+01  9.71758E+01  9.53177E+01  8.20718E+01  8.03863E+01  9.74796E+01  8.83256E+01  8.82298E+01  8.71449E+01  7.16588E+01
   8.10882E+01  7.21313E+01  7.53406E+01  6.73614E+01  5.58259E+01  6.78403E+01  5.68595E+01  5.99852E+01  5.99537E+01  4.45283E+01
   5.24531E+01  4.65291E+01  4.67576E+01  4.57046E+01  2.97634E+01  3.90460E+01  3.65145E+01  3.36573E+01  4.39988E+01  5.76828E+01
   3.89107E+01  3.13506E+01  5.65945E+01  5.34760E+01  5.45819E+01  5.06971E+01  5.49356E+01  4.86007E+01  4.76022E+01  5.89758E+01
   7.00934E+01  7.21941E+01  6.01638E+01  9.01736E+01  7.75904E+01  7.69939E+01  8.92937E+01  8.69116E+01  1.04299E+02  9.02306E+01
   1.02897E+02  1.00200E+02  8.81540E+01  8.80337E+01  8.22072E+01  7.29529E+01  6.23114E+01  6.25746E+01  3.25342E+01  2.32847E+01
   1.43395E+01 -1.41060E+01 -1.81662E+01 -1.91240E+01 -1.65185E+01 -6.80838E+00  1.39564E+00  6.55534E+00  1.92916E+01  3.26547E+01
   3.44737E+01  3.19789E+01  3.40058E+01  3.44035E+01  3.64651E+01  4.39113E+01  4.81906E+01  5.63199E+01  6.15418E+01  6.05136E+01
   6.43699E+01  5.06148E+01  4.81530E+01  6.25407E+01  4.26605E+01  4.47585E+01  3.99910E+01  8.42535E+00  2.74277E+01  3.63321E+01
   2.07044E+01  2.71491E+01  2.13533E+01  2.65861E+01  4.18256E+01  2.90496E+01  4.00727E+01  4.65242E+01  4.46576E+01  5.57221E+01
   4.85261E+01  6.05694E+01  7.18187E+01  6.00373E+01  6.34731E+01  7.85812E+01  7.27202E+01  7.31489E+01  7.99638E+01  9.56506E+01
   1.11754E+02  1.06860E+02  1.16256E+02  1.12909E+02  1.32167E+02  1.43723E+02  1.44731E+02  1.65935E+02  1.60223E+02  1.63799E+02
   1.56491E+02  1.41969E+02  1.03791E+02  8.45706E+01  9.63221E+01  7.50674E+01  7.85170E+01  7.95459E+01  6.06967E+01  5.16029E+01
   4.50440E+01  2.62226E+01  1.06059E+01  4.70431E+00 -3.83710E+00 -8.46047E+00 -4.37147E+00  2.32089E-01 -8.58754E+00 -3.74175E+00
  -5.01960E+00 -5.71898E+00 -8.18512E+00 -6.49769E+00  1.00009E+01  2.71080E+00 -4.97439E+00 -5.58643E+00  1.10853E+01  2.83810E+00
  -4.36640E+00  8.40935E+00 -1.84436E+00  4.91475E+00  2.37204E-01  2.49756E+00  1.49177E+01  9.44888E+00  7.40433E+00 -1.27557E+00
  -9.62235E+00  3.31742E+00  1.35144E+01  8.66556E+00  9.41334E+00 -2.00641E+00  7.31259E+00  1.31328E+01 -3.03543E+00  6.85660E+00
   3.89416E+00 -2.94189E+00  3.68839E+00 -4.02294E+00 -6.52699E+00  9.68165E+00  5.46220E+00  1.04127E+01  1.62945E+01 -3.04743E+00
   1.06628E+01  1.17916E+01 -1.08905E+00  5.79791E+00  1.52007E+01  7.74868E+00 -7.08852E+00  5.46196E+00  8.53245E+00  1.06550E+01
   1.33219E+01  1.97060E+01  1.76407E+01 -8.89095E-01  1.10656E+01  1.81632E+01  1.73459E+01 -5.96051E+00 -4.75141E+00  2.87786E+01
   1.62334E+01  2.43804E+01  2.18230E+01 -2.68730E+00  1.32358E+01  2.66567E+01  2.06965E+01  1.69348E+01  2.00263E+01  1.78737E+01
 NY points of the fit to the data follow
  -5.16818E+00 -1.33465E+01 -2.38155E+01 -3.18346E+01 -2.54898E+01 -3.65883E+00  1.17384E+01  8.93842E+00 -1.12350E+00 -1.08021E+01
  -1.88119E+01 -2.19599E+01 -1.89200E+01 -1.45407E+01 -1.33535E+01 -1.65308E+01 -2.43709E+01 -3.45918E+01 -4.43413E+01 -5.80846E+01
  -6.77012E+01 -5.75427E+01 -4.10641E+01 -1.38742E+01  2.02950E+01  3.16386E+01  2.82558E+01  2.83749E+01  2.59385E+01  2.42975E+01
   2.36423E+01  2.15334E+01  1.93895E+01  1.63974E+01  1.14919E+01  5.50690E+00 -9.36457E-01 -1.13044E+01 -3.10730E+01 -6.21796E+01
  -8.66004E+01 -7.98411E+01 -6.19104E+01 -4.93482E+01 -3.12251E+01 -7.44284E+00  1.01516E+01  2.08307E+01  2.97558E+01  3.51981E+01
   3.30737E+01  3.03290E+01  2.77055E+01  1.89222E+01  3.72116E+00 -1.06303E+01 -1.64265E+01 -2.16749E+01 -3.17090E+01 -2.58459E+01
  -1.02521E+01 -9.34292E+00 -1.20242E+00  2.10232E+01  3.16690E+01  3.38807E+01  3.36898E+01  1.74027E+01 -1.51897E+01 -3.64471E+01
  -2.92928E+01 -2.08249E+01 -1.81702E+01 -1.65578E-01  2.14084E+01  3.13623E+01  3.71996E+01  4.13655E+01  4.26914E+01  4.25033E+01
   3.83434E+01  2.86693E+01  1.53171E+01 -1.40259E+00 -1.09011E+01 -9.68720E+00 -2.13321E+00  1.18983E+01  2.57322E+01  3.34627E+01
   3.97975E+01  4.46797E+01  4.82037E+01  5.20233E+01  5.60609E+01  5.98342E+01  6.29641E+01  6.37519E+01  5.95068E+01  5.57987E+01
   5.80467E+01  5.41942E+01  4.13763E+01  3.10180E+01  1.71526E+01 -3.47336E+00 -5.96662E+00  2.57227E+00 -1.66011E+01 -8.04834E+01
  -1.28902E+02 -1.17203E+02 -8.99090E+01 -7.21690E+01 -4.91815E+01 -3.32103E+01 -2.63575E+01 -1.94377E+01 -1.26199E+01 -6.17279E+00
   1.36545E-01  6.89753E+00  1.41278E+01  2.24645E+01  3.23937E+01  4.41850E+01  5.83659E+01  7.30296E+01  8.98102E+01  1.12689E+02
   1.39321E+02  1.19642E+02  1.36515E+01 -6.72536E+01 -7.19818E+01 -7.27721E+01 -7.17669E+01 -5.26832E+01 -4.53188E+01 -4.65717E+01
  -4.78294E+01 -4.94312E+01 -5.18701E+01 -5.25821E+01 -5.38496E+01 -5.42087E+01 -5.11771E+01 -4.77573E+01 -4.46123E+01 -4.10059E+01
  -3.76381E+01 -3.46691E+01 -3.27303E+01 -3.07556E+01 -2.78471E+01 -2.47816E+01 -2.25989E+01 -2.15599E+01 -2.07849E+01 -1.92679E+01
  -1.68294E+01 -1.47893E+01 -1.51083E+01 -1.65256E+01 -1.64115E+01 -1.44216E+01 -1.17248E+01 -1.08912E+01 -1.27203E+01 -1.22911E+01
  -3.48214E+00  1.22509E+01  2.14198E+01  1.49671E+01  4.55080E+00  7.83619E+00  2.06491E+01  2.42907E+01  1.37879E+01 -1.14876E+00
  -1.08479E+01 -1.60690E+01 -2.02580E+01 -2.21011E+01 -2.21658E+01 -2.23301E+01 -2.16431E+01 -1.98858E+01 -1.72785E+01 -1.46525E+01
  -1.06371E+01 -6.86703E+00 -5.55250E+00  1.86387E+00  1.29871E+01  1.00319E+01  5.36085E+00  1.18040E+01  1.41996E+01  1.17646E+01
   9.51186E+00  1.17687E+01  2.05762E+01  2.30029E+01  1.95405E+01  1.75769E+01  1.32565E+01  5.84800E+00 -4.86533E+00 -1.51229E+01
  -2.07221E+01 -2.27239E+01 -1.63304E+01 -3.70869E+00  1.60163E+01  4.80640E+01  6.47763E+01  6.66332E+01  6.71496E+01  5.28485E+01
   3.59244E+01  3.20670E+01  3.07541E+01  3.34469E+01  3.74677E+01  3.83031E+01  3.67210E+01  3.05838E+01  2.08380E+01  1.01441E+01
  -2.24154E+00 -1.53246E+01 -2.71974E+01 -3.80658E+01 -4.97253E+01 -5.82019E+01 -6.17657E+01 -6.42969E+01 -6.18712E+01 -5.50624E+01
  -4.90058E+01 -4.05891E+01 -2.81970E+01 -1.69099E+01 -5.53024E+00  2.51089E+00  3.93145E+00  9.99366E-01 -4.87577E+00 -9.89985E+00
  -1.66631E+01 -2.67162E+01 -3.18379E+01 -2.97745E+01 -3.66253E+01 -8.02334E+01 -8.39687E+01  4.79709E+01  1.60803E+02  1.67815E+02
   1.67226E+02  1.62689E+02  1.33494E+02  1.19208E+02  1.13961E+02  1.09923E+02  1.05524E+02  1.01067E+02  9.70046E+01  9.37376E+01
   9.20967E+01  9.15322E+01  9.20882E+01  9.29677E+01  9.35790E+01  9.38509E+01  9.29724E+01  9.17651E+01  9.09368E+01  8.94733E+01
   8.74009E+01  8.49566E+01  8.23731E+01  8.03439E+01  7.81903E+01  7.54928E+01  7.29831E+01  7.06187E+01  6.77002E+01  6.43951E+01
   6.04483E+01  5.61150E+01  5.18643E+01  4.72351E+01  4.32814E+01  4.12144E+01  4.09322E+01  4.23544E+01  4.50892E+01  4.79799E+01
   5.07769E+01  5.39915E+01  5.73918E+01  6.04104E+01  6.31313E+01  6.55312E+01  6.75740E+01  6.97261E+01  7.25827E+01  7.57447E+01
   7.83339E+01  8.04308E+01  8.21107E+01  8.37826E+01  8.55166E+01  8.63150E+01  8.64183E+01  8.64723E+01  8.52240E+01  8.27148E+01
   8.02903E+01  7.75571E+01  7.35352E+01  6.93386E+01  6.51981E+01  6.01595E+01  5.37841E+01  4.50085E+01  3.41674E+01  2.35518E+01
   1.40904E+01  5.89368E+00 -5.77366E-02 -2.78800E+00 -2.24868E+00  1.52008E+00  7.27348E+00  1.27923E+01  1.72110E+01  2.01882E+01
   2.19615E+01  2.40473E+01  2.75728E+01  3.20328E+01  3.68681E+01  4.15464E+01  4.42222E+01  4.49094E+01  4.53148E+01  4.52775E+01
   4.39897E+01  4.16088E+01  3.82927E+01  3.35458E+01  2.75169E+01  2.22369E+01  1.92627E+01  1.78529E+01  1.81093E+01  2.02468E+01
   2.32100E+01  2.68650E+01  3.10520E+01  3.52148E+01  3.95669E+01  4.34330E+01  4.68003E+01  5.00052E+01  5.29898E+01  5.63416E+01
   5.98284E+01  6.29999E+01  6.63426E+01  6.97666E+01  7.35611E+01  7.84614E+01  8.38942E+01  8.90517E+01  9.54301E+01  1.03149E+02
   1.10413E+02  1.17733E+02  1.26437E+02  1.35503E+02  1.43740E+02  1.50807E+02  1.55156E+02  1.54708E+02  1.48665E+02  1.37274E+02
   1.23277E+02  1.10121E+02  9.90622E+01  8.98958E+01  8.28290E+01  7.68745E+01  6.96537E+01  6.02713E+01  5.01999E+01  3.98453E+01
   2.96044E+01  2.15140E+01  1.58578E+01  1.15510E+01  8.32416E+00  6.46881E+00  5.45818E+00  4.61267E+00  3.65212E+00  2.62624E+00
   1.55544E+00  9.37896E-01  9.17249E-01  1.10989E+00  9.87318E-01  1.01168E+00  1.49166E+00  1.65520E+00  1.08139E+00  9.51293E-01
   1.88252E+00  2.40757E+00  2.05090E+00  2.07730E+00  2.57067E+00  2.77719E+00  2.57444E+00  2.43898E+00  2.87087E+00  3.63577E+00
   4.04929E+00  4.20146E+00  4.18560E+00  3.98397E+00  3.90255E+00  4.07697E+00  4.54506E+00  5.02739E+00  5.55347E+00  5.98873E+00
   6.16350E+00  6.35562E+00  6.73405E+00  6.77936E+00  6.46179E+00  6.36687E+00  6.56818E+00  6.89819E+00  7.33591E+00  7.68160E+00
   7.99782E+00  8.03146E+00  7.93009E+00  8.36847E+00  8.88054E+00  9.21036E+00  9.67523E+00  1.00099E+01  1.01621E+01  1.04716E+01
   1.08212E+01  1.10900E+01  1.10608E+01  1.09186E+01  1.10842E+01  1.12825E+01  1.14839E+01  1.22130E+01  1.31364E+01  1.38065E+01
   1.39430E+01  1.37072E+01  1.33725E+01  1.34173E+01  1.37694E+01  1.39748E+01  1.42575E+01  1.49065E+01  1.51237E+01  1.49055E+01
 NY background values follow
     2.753E+01    2.672E+01    2.591E+01    2.511E+01    2.430E+01    2.349E+01    2.268E+01    2.188E+01    2.107E+01    2.028E+01
     1.948E+01    1.869E+01    1.791E+01    1.714E+01    1.637E+01    1.561E+01    1.486E+01    1.413E+01    1.340E+01    1.269E+01
     1.198E+01    1.130E+01    1.062E+01    9.964E+00    9.322E+00    8.696E+00    8.089E+00    7.500E+00    6.931E+00    6.382E+00
     5.854E+00    5.348E+00    4.864E+00    4.401E+00    3.959E+00    3.539E+00    3.139E+00    2.760E+00    2.401E+00    2.063E+00
     1.745E+00    1.447E+00    1.169E+00    9.097E-01    6.703E-01    4.499E-01    2.486E-01    6.599E-02   -9.801E-02   -2.436E-01
    -3.711E-01   -4.805E-01   -5.721E-01   -6.461E-01   -7.027E-01   -7.420E-01   -7.643E-01   -7.698E-01   -7.586E-01   -7.310E-01
    -6.871E-01   -6.272E-01   -5.519E-01   -4.616E-01   -3.571E-01   -2.389E-01   -1.075E-01    3.652E-02    1.925E-01    3.600E-01
     5.383E-01    7.269E-01    9.253E-01    1.133E+00    1.349E+00    1.573E+00    1.804E+00    2.043E+00    2.288E+00    2.538E+00
     2.793E+00    3.054E+00    3.318E+00    3.585E+00    3.856E+00    4.128E+00    4.403E+00    4.678E+00    4.954E+00    5.230E+00
     5.506E+00    5.780E+00    6.054E+00    6.326E+00    6.598E+00    6.869E+00    7.138E+00    7.407E+00    7.675E+00    7.943E+00
     8.209E+00    8.475E+00    8.740E+00    9.004E+00    9.268E+00    9.531E+00    9.794E+00    1.006E+01    1.032E+01    1.058E+01
     1.084E+01    1.110E+01    1.136E+01    1.162E+01    1.188E+01    1.214E+01    1.239E+01    1.265E+01    1.291E+01    1.317E+01
     1.343E+01    1.368E+01    1.394E+01    1.420E+01    1.445E+01    1.471E+01    1.497E+01    1.522E+01    1.547E+01    1.573E+01
     1.598E+01    1.623E+01    1.647E+01    1.672E+01    1.697E+01    1.721E+01    1.745E+01    1.769E+01    1.793E+01    1.817E+01
     1.840E+01    1.863E+01    1.886E+01    1.908E+01    1.931E+01    1.953E+01    1.975E+01    1.996E+01    2.017E+01    2.038E+01
     2.058E+01    2.078E+01    2.098E+01    2.118E+01    2.137E+01    2.155E+01    2.174E+01    2.191E+01    2.209E+01    2.226E+01
     2.243E+01    2.259E+01    2.275E+01    2.291E+01    2.306E+01    2.321E+01    2.335E+01    2.349E+01    2.363E+01    2.376E+01
     2.389E+01    2.401E+01    2.413E+01    2.424E+01    2.435E+01    2.446E+01    2.456E+01    2.466E+01    2.475E+01    2.484E+01
     2.492E+01    2.500E+01    2.507E+01    2.514E+01    2.521E+01    2.527E+01    2.532E+01    2.538E+01    2.543E+01    2.547E+01
     2.552E+01    2.556E+01    2.559E+01    2.563E+01    2.566E+01    2.569E+01    2.572E+01    2.574E+01    2.576E+01    2.578E+01
     2.580E+01    2.582E+01    2.583E+01    2.585E+01    2.586E+01    2.587E+01    2.588E+01    2.589E+01    2.590E+01    2.591E+01
     2.592E+01    2.593E+01    2.594E+01    2.594E+01    2.595E+01    2.596E+01    2.596E+01    2.596E+01    2.596E+01    2.596E+01
     2.596E+01    2.595E+01    2.594E+01    2.593E+01    2.592E+01    2.590E+01    2.588E+01    2.585E+01    2.582E+01    2.579E+01
     2.576E+01    2.571E+01    2.567E+01    2.562E+01    2.556E+01    2.550E+01    2.544E+01    2.537E+01    2.529E+01    2.521E+01
     2.512E+01    2.502E+01    2.492E+01    2.481E+01    2.470E+01    2.458E+01    2.446E+01    2.433E+01    2.420E+01    2.406E+01
     2.392E+01    2.378E+01    2.363E+01    2.348E+01    2.332E+01    2.317E+01    2.301E+01    2.285E+01    2.268E+01    2.252E+01
     2.235E+01    2.218E+01    2.201E+01    2.184E+01    2.167E+01    2.150E+01    2.132E+01    2.115E+01    2.098E+01    2.081E+01
     2.064E+01    2.047E+01    2.030E+01    2.013E+01    1.997E+01    1.981E+01    1.965E+01    1.949E+01    1.933E+01    1.918E+01
     1.903E+01    1.889E+01    1.875E+01    1.861E+01    1.848E+01    1.836E+01    1.823E+01    1.812E+01    1.801E+01    1.790E+01
     1.781E+01    1.771E+01    1.763E+01    1.755E+01    1.748E+01    1.742E+01    1.736E+01    1.732E+01    1.728E+01    1.725E+01
     1.723E+01    1.721E+01    1.721E+01    1.722E+01    1.723E+01    1.725E+01    1.727E+01    1.731E+01    1.735E+01    1.739E+01
     1.744E+01    1.750E+01    1.756E+01    1.763E+01    1.770E+01    1.778E+01    1.785E+01    1.794E+01    1.802E+01    1.811E+01
     1.820E+01    1.829E+01    1.838E+01    1.848E+01    1.857E+01    1.867E+01    1.876E+01    1.886E+01    1.895E+01    1.905E+01
     1.914E+01    1.923E+01    1.932E+01    1.941E+01    1.950E+01    1.959E+01    1.967E+01    1.975E+01    1.983E+01    1.991E+01
     1.999E+01    2.006E+01    2.014E+01    2.021E+01    2.027E+01    2.034E+01    2.041E+01    2.047E+01    2.053E+01    2.058E+01
     2.064E+01    2.069E+01    2.074E+01    2.079E+01    2.083E+01    2.087E+01    2.091E+01    2.095E+01    2.098E+01    2.101E+01
     2.104E+01    2.106E+01    2.108E+01    2.110E+01    2.111E+01    2.113E+01    2.114E+01    2.114E+01    2.115E+01    2.115E+01
     2.115E+01    2.115E+01    2.114E+01    2.113E+01    2.112E+01    2.111E+01    2.110E+01    2.108E+01    2.107E+01    2.105E+01
     2.103E+01    2.100E+01    2.098E+01    2.095E+01    2.093E+01    2.090E+01    2.087E+01    2.084E+01    2.080E+01    2.077E+01
     2.073E+01    2.070E+01    2.066E+01    2.062E+01    2.058E+01    2.055E+01    2.051E+01    2.046E+01    2.042E+01    2.038E+01
     2.034E+01    2.029E+01    2.025E+01    2.020E+01    2.016E+01    2.011E+01    2.007E+01    2.002E+01    1.998E+01    1.993E+01
     1.989E+01    1.984E+01    1.979E+01    1.975E+01    1.970E+01    1.965E+01    1.961E+01    1.956E+01    1.952E+01    1.947E+01
     1.943E+01    1.938E+01    1.934E+01    1.930E+01    1.925E+01    1.921E+01    1.917E+01    1.913E+01    1.909E+01    1.905E+01
     1.901E+01    1.897E+01    1.894E+01    1.890E+01    1.887E+01    1.883E+01    1.880E+01    1.877E+01    1.873E+01    1.870E+01
     1.867E+01    1.865E+01    1.862E+01    1.859E+01    1.857E+01    1.855E+01    1.852E+01    1.850E+01    1.848E+01    1.847E+01
     1.845E+01    1.844E+01    1.842E+01    1.841E+01    1.840E+01    1.839E+01    1.838E+01    1.837E+01    1.837E+01    1.836E+01
     1.836E+01    1.835E+01    1.835E+01    1.835E+01    1.835E+01    1.835E+01    1.835E+01    1.835E+01    1.835E+01    1.835E+01
     1.835E+01    1.835E+01    1.836E+01    1.836E+01    1.836E+01    1.837E+01    1.837E+01    1.838E+01    1.838E+01    1.838E+01
 Mac      Conc. = 3.10E-04
   5.16761E+00  3.82389E+00  2.83029E+00  1.89435E+00  7.28354E-01 -8.92002E-01 -3.16592E+00 -6.05659E+00 -9.15971E+00 -1.18654E+01
  -1.37714E+01 -1.47343E+01 -1.53716E+01 -1.58532E+01 -1.71429E+01 -2.02557E+01 -2.39840E+01 -2.50931E+01 -2.13303E+01 -1.57480E+01
  -1.20739E+01 -8.25854E+00 -4.23063E+00 -2.80291E+00 -2.80803E+00 -2.42261E+00 -1.68203E+00 -7.54685E-01  7.93402E-01  2.75082E+00
   4.13188E+00  4.75886E+00  5.33344E+00  5.60004E+00  4.79006E+00  3.37197E+00  2.66939E+00  3.81607E+00  6.78764E+00  9.58708E+00
   1.02046E+01  9.17021E+00  8.49737E+00  8.87824E+00  1.01208E+01  1.16936E+01  1.22550E+01  1.17974E+01  1.08131E+01  9.15380E+00
   6.95219E+00  5.23590E+00  4.31428E+00  3.38518E+00  2.60986E+00  2.32249E+00  2.35372E+00  3.52686E+00  5.51726E+00  6.81961E+00
   8.08104E+00  1.01490E+01  1.14415E+01  1.12188E+01  1.05004E+01  9.23478E+00  8.12610E+00  7.83847E+00  7.54908E+00  6.96781E+00
   7.62930E+00  1.04306E+01  1.40767E+01  1.67002E+01  1.84972E+01  1.96898E+01  1.95823E+01  1.88394E+01  1.79367E+01  1.69979E+01
   1.65814E+01  1.62928E+01  1.59612E+01  1.65064E+01  1.77905E+01  1.90643E+01  2.03307E+01  2.15315E+01  2.26694E+01  2.34248E+01
   2.40832E+01  2.48667E+01  2.53302E+01  2.55207E+01  2.56193E+01  2.45411E+01  2.23726E+01  1.97720E+01  1.67786E+01  1.41851E+01
   1.26611E+01  1.11489E+01  8.68210E+00  5.80840E+00  2.30010E+00 -3.07584E+00 -1.04396E+01 -1.85482E+01 -2.44446E+01 -2.65340E+01
