 
 $NMID
 ID=''
 FMTDAT='(2E13.5)'
 TRAMP=   1.00000E+0
 VOLUME=   1.00000E+0
 $END
   2.48938E+4  -5.90636E+3
   2.19699E+4  -2.86356E+4
  -2.36053E+4  -2.04094E+4
  -1.95113E+4   3.06460E+4
   2.46046E+4   1.75300E+4
   1.42557E+4  -2.81687E+4
  -2.11736E+4  -9.00328E+3
  -5.67742E+3   2.27036E+4
   1.72665E+4   4.94274E+3
   6.63396E+2  -1.11288E+4
  -1.46253E+4   4.50222E+2
  -3.12004E+3   6.29045E+3
   6.73881E+3   1.67723E+3
  -1.85146E+2  -1.70801E+3
  -5.47263E+3  -3.50158E+3
   1.08612E+3  -8.27400E+2
   5.14509E+3   2.48482E+3
  -4.62980E+2   1.22549E+3
  -2.55728E+3  -8.46248E+2
   1.38912E+3  -8.43748E+2
   1.16015E+3  -1.28799E+2
   1.32719E+2   1.43078E+3
   1.09082E+3   1.32150E+3
  -3.66681E+2  -1.13796E+3
  -1.07500E+3  -1.60541E+3
   1.42070E+3   1.54499E+3
   6.90736E+2   3.01953E+3
  -1.78017E+3   8.34848E+1
  -2.75880E+2  -1.45471E+3
   9.14707E+2   8.78419E+2
  -7.03779E+2   1.28577E+3
  -9.85412E+2  -5.06969E+2
  -3.19595E+2  -4.85679E+2
  -5.32221E+2  -4.62120E+2
   1.07194E+3  -2.35918E+3
   2.88613E+3  -6.20166E+2
   1.14625E+3   3.15143E+3
  -1.37461E+3   1.86499E+3
  -5.72557E+2  -1.30187E+3
   8.33982E+2   8.13894E+1
  -8.92293E+2   7.40702E+2
  -8.40813E+2  -1.35280E+3
   1.59760E+3  -1.21372E+3
   2.08690E+3   8.59407E+2
   3.84958E+2   1.32237E+3
  -9.23916E+0   1.19463E+3
  -4.60718E+2   1.26329E+3
  -1.44236E+3  -5.14556E+1
  -8.00869E+2  -1.76077E+3
   8.58902E+2  -1.52880E+3
   1.17031E+3  -4.76859E+2
   1.06864E+3  -3.38738E+2
   8.64280E+2  -2.16514E+2
   3.75343E+2   4.25152E+2
   1.02508E+2   7.51427E+2
   1.24661E+1   4.12591E+2
  -6.86148E+2  -4.71326E+2
  -1.33522E+2  -1.31428E+3
   1.44273E+3  -8.19642E+2
   1.61743E+3   6.84344E+2
   4.35040E+2   1.14463E+3
   5.06365E+1   8.78004E+2
  -6.42028E+1   1.00269E+3
  -1.10378E+3   7.23210E+2
  -1.86744E+3  -7.66099E+2
  -5.93596E+2  -1.74076E+3
   1.33679E+3  -1.74205E+3
   1.93770E+3  -7.02535E+2
   8.32958E+2   4.19190E+2
  -2.03175E+2   7.44015E+2
  -1.77188E+2  -1.92104E+2
   1.16774E+3  -6.04086E+2
   5.94860E+2   5.15910E+2
  -3.30320E+2   1.05158E+3
  -3.74412E+2   6.14612E+1
   3.66512E+2  -6.77023E+2
   1.03518E+2  -1.02304E+2
  -3.54754E+2   6.36093E+2
  -1.07025E+1   2.66569E+2
   1.42442E+2  -4.74411E+2
  -3.89905E+2  -1.01908E+3
  -7.70061E+1  -7.85658E+2
   5.52953E+2  -1.68498E+2
   1.75783E+2  -8.33072E+1
  -2.14377E+2  -6.78208E+2
   3.45876E+2  -6.84187E+2
   1.16316E+3  -8.75414E+1
   1.78859E+2   3.52637E+2
  -3.54887E+2   2.68502E+2
   1.32874E+2   7.71378E+0
   7.58799E+2   5.25940E+2
  -8.68682E+0   7.15987E+2
  -1.39368E+3   2.19501E+2
  -1.21350E+3  -6.61287E+2
   4.44476E+1  -1.06854E+3
   8.07461E+2  -7.94297E+2
   2.76169E+2  -2.48301E+2
  -8.72923E+1  -3.46257E+2
   3.15409E+2  -2.87507E+2
   8.11555E+2  -2.07846E+1
   1.86735E+2   5.21292E+2
  -7.50824E+2   3.17645E+2
  -1.02258E+3  -1.67408E+2
  -3.23054E+2  -8.13929E+2
   6.11290E+2  -5.45449E+2
   6.01706E+2   5.95524E+2
  -5.86733E+2   7.12622E+2
  -1.24895E+3  -3.51498E+2
  -3.20193E+2  -1.41244E+3
   1.05774E+3  -7.81270E+2
   1.25302E+3   7.53118E+2
  -8.21599E+1   9.72170E+2
  -5.15381E+2   4.22343E+2
  -4.41475E+1   2.26142E+2
  -1.81711E+2   4.14826E+2
  -1.02336E+3   4.86108E+1
  -1.27445E+3  -3.72054E+2
  -6.90267E+2  -1.03432E+3
   4.09778E+2  -1.06769E+3
   9.04012E+2  -4.51123E+2
   7.92936E+2   4.19004E+2
   3.14799E+2   6.57426E+2
  -2.30768E+2   6.15308E+2
  -6.32809E+2   5.41626E+2
  -8.03463E+2   2.48909E+2
  -2.95179E+2  -8.91835E+1
  -2.88909E+2  -3.34398E+2
   2.19321E+2  -2.55487E+2
   3.50718E+2  -5.82158E+1
  -2.58891E+2   6.43010E+2
  -8.79197E+2   3.87655E+2
  -4.39781E+2  -5.63585E+2
   1.83113E+2  -5.21084E+2
   3.42716E+2   1.15574E+2
  -4.90438E+2   6.93314E+1
   1.14438E+2  -5.32172E+2
   5.71656E+2  -5.53477E+1
   4.75813E+2   4.83400E+2
  -3.37209E+2   5.41432E+2
  -5.35863E+2   1.47329E+2
  -5.26639E+2  -2.60903E+2
   4.22325E+2  -5.10873E+2
   8.27083E+2   2.52569E+1
   1.78413E+2   8.73599E+2
  -6.72339E+2   7.36315E+2
  -6.88612E+2   2.20009E+2
  -4.01845E+2  -3.77596E+2
  -2.25978E+2  -7.73716E+1
  -2.72385E+2  -5.83995E+1
  -4.70390E+1  -4.34659E+2
   3.37118E+2  -6.74170E+2
   7.17656E+2  -2.57531E+2
   6.26662E+2   6.59069E+2
  -2.32328E+1   5.78963E+2
  -5.09134E+2   1.65136E+2
  -1.56672E+2   2.51634E+1
   1.91823E+2   1.92249E+2
  -1.64754E+2   3.89675E+2
   4.73152E+1   3.17859E+2
   1.14004E+2   7.25946E+1
  -2.49416E+2   1.34585E+2
  -5.34326E+2  -7.00926E+1
  -3.30425E+2  -3.69484E+2
  -1.41335E+2  -4.65428E+2
   1.74541E+2  -6.08371E+2
   5.19234E+2  -1.94598E+2
   4.30021E+2   3.80893E+2
   1.00072E+2   1.81673E+2
  -4.69066E+2  -5.54024E+1
   2.78239E+2  -2.27899E+2
   4.13783E+2   1.93192E+2
   1.19742E+2   2.88541E+2
  -2.57573E+2  -1.39413E+2
  -1.02044E+2  -7.83094E+1
   3.03741E+2   1.45406E+1
   1.39613E+2   2.37265E+2
  -2.88548E+2   3.57557E+2
  -5.95899E+2  -2.29410E+2
  -2.38471E+2  -2.37473E+2
   5.17177E+2  -4.23961E+1
   1.77605E+2   4.37544E+2
  -1.44454E+2   4.86775E+2
  -6.25065E+2  -5.62285E+1
  -2.59356E+2  -3.34525E+2
  -1.34493E+1  -3.65741E+2
  -1.87706E+2  -3.17046E+2
  -1.89787E+2  -4.45876E+2
   1.40787E+2  -4.45419E+2
   3.63789E+2  -1.33943E+2
   4.51809E+2   5.87425E+2
  -1.46506E+2   8.58529E+2
  -9.91968E+2   2.11008E+2
  -6.94203E+2  -4.75957E+2
  -1.54936E+0  -2.62338E+2
   2.62215E+2  -7.50346E+1
   1.09201E+2  -5.38492E+1
  -2.25151E+2   8.05738E+1
   1.20745E+2   1.76857E+2
  -4.33334E+1   2.83954E+2
  -5.31767E+2   1.85652E+2
  -4.61494E+2  -2.95977E+2
   8.00631E+1  -4.80754E+2
   3.80331E+2  -2.32752E+2
   3.51972E+2   1.29718E+2
   2.61316E+1   2.06320E+2
  -2.12959E+2   7.63305E+1
  -4.50363E+1  -3.26533E+2
   5.06167E+1   2.48399E+1
   5.72200E+1   8.74167E+1
  -2.32415E+2   3.12952E+2
  -2.84910E+2  -1.43378E+2
   1.76189E+2  -1.62577E+2
   4.70858E+2   4.37484E+2
  -6.64161E+1   7.47835E+2
  -8.14969E+2   3.33914E+2
  -5.49841E+2  -4.59410E+2
  -1.67362E+1  -4.85593E+2
   2.75549E+2  -7.63259E+1
   1.89615E+2   2.12511E+2
   1.24945E+2   3.54076E+1
  -1.89452E+2  -7.82502E+1
   4.11985E+2   7.91782E+1
   2.12380E+1   7.26766E+2
  -5.14667E+2   1.98703E+2
  -3.70456E+2  -2.71337E+2
   5.35837E-1  -5.03143E+2
   3.16412E+2   9.02879E+1
  -5.38739E+1   4.07533E+2
  -2.02312E+2   3.16465E+2
  -2.15434E+2  -2.56781E+2
   4.05124E+1  -1.51687E+2
   9.30694E+1  -7.57513E+1
   1.60638E+2  -2.69340E+1
  -9.94674E+1  -1.61935E+2
  -1.34288E+2  -4.10297E+2
  -8.28078E+1  -8.42268E+1
   1.47377E+2   3.42692E+2
  -1.70971E+2   2.37553E+2
  -3.03026E+2   1.08619E+1
   1.57459E+2  -1.76524E+2
   2.93301E+2  -2.38283E+1
   8.20159E+1   1.52243E+2
  -2.81129E+2  -2.83610E+1
  -2.53660E+2  -2.24357E+2
   6.94733E+1  -3.93380E+2
   6.65715E+1   1.13692E+1
  -2.55290E+2   4.16093E+2
  -2.79757E+2   1.16479E+1
   1.06338E+2  -3.90814E+2
   4.49774E+2   1.22270E+2
   2.89399E+1   9.94918E+1
  -1.97222E+2   2.16954E+2
  -4.33919E+2  -3.66277E+1
  -1.75220E+2  -5.37538E+2
   1.37549E+2  -1.90394E+2
   5.57226E+1   2.09228E+2
   1.09670E+2   3.32480E+2
   8.39282E+1   1.79080E+2
  -1.19241E+2   9.42978E+1
  -1.44279E+1   1.81154E+2
  -4.11212E+2   2.96066E+2
  -4.08576E+2  -1.79805E+2
  -1.63707E+2  -4.94442E+2
   3.38449E+2  -2.16034E+2
   2.18177E+2   1.07247E+2
   1.96475E+2   3.92132E+2
  -3.18608E+2   2.67686E+2
  -2.38360E+2  -3.21472E+2
  -2.07485E+1  -1.79398E+2
   1.20745E+2  -2.97272E+1
  -1.08499E+2   1.05398E+2
  -7.63679E+1   4.93952E+1
   8.79661E+1  -1.84994E+2
   1.31964E+2   3.07105E+2
  -1.02851E+2   1.90744E+2
  -3.81609E+2  -1.02118E+2
  -1.46669E+2  -2.31685E+2
   3.33848E+1  -1.51020E+2
   6.18943E+1  -8.31756E+1
   1.44377E+2   3.67620E+2
  -1.02079E+2   2.14522E+2
   1.46309E+1  -1.14833E+2
  -1.30784E+0   2.03470E+1
   1.47864E+2   2.32893E+2
  -3.23378E+2  -1.19754E+2
  -3.85610E+2  -2.65029E+2
   3.13420E+2  -4.29902E+2
   3.96822E+2  -1.30918E+2
   1.95602E+2   4.42360E+2
  -8.25872E+1   3.95771E+2
  -2.62847E+2   1.38966E+2
  -3.55755E+1  -2.98313E+2
  -1.07965E+2  -6.82397E+1
   1.36958E+2  -2.22648E+0
  -9.77313E+1  -9.83662E+1
  -6.86237E+1  -1.20552E+2
   7.04713E+1  -3.27372E+1
  -1.63386E+1   1.42798E+2
  -3.59613E+2   4.74917E+1
  -2.39004E+2  -1.17363E+1
  -2.95213E+1  -1.45122E+2
   3.00271E+2   1.33721E+2
   4.43322E+0   3.55338E+2
  -1.96933E+2  -1.30190E+2
  -9.75517E+1  -3.79784E+1
   3.80735E+1  -2.84427E+2
   2.25086E+2  -2.13933E+2
  -7.74197E+1   1.99059E+2
  -4.37162E+1  -7.15424E+1
   6.63943E+1  -1.33389E+1
   1.42448E+2   1.51208E+2
   2.31463E+2   1.94838E+2
  -1.01307E+2   2.31212E+2
  -5.19794E+2   1.83592E+2
  -1.63361E+2  -3.17686E+2
  -6.01186E+1  -5.42895E+1
   8.24830E+1  -1.34589E+2
   8.64132E+1   1.61419E+2
  -1.31528E+1  -3.70637E+1
   3.65002E+1  -2.11948E+2
   1.79980E+2   2.02114E+2
  -3.23145E-2   4.89011E+1
  -2.65863E+2  -1.00726E+2
  -4.21034E+0  -1.49345E+2
   2.16017E+2  -2.36159E+2
   1.74972E+1   3.57356E+2
  -1.53290E+2   2.50564E+2
  -1.50022E+2   1.53181E+2
  -1.67157E+2  -1.35953E+2
   1.18066E+2  -2.28187E+2
  -1.06359E+2  -1.07596E+2
   1.44023E+2  -1.43515E+2
  -2.90299E+1  -2.75449E+1
  -1.96124E+1  -4.39008E+1
   1.30043E+2   3.33982E+2
  -2.37795E+2   3.29975E+2
  -3.76375E+2  -3.87885E+1
  -8.12919E+1  -2.50462E+2
  -7.39140E+1  -2.51923E+2
   2.29872E+2   3.21907E+1
   5.14639E+1   7.38486E+1
  -8.22932E+1   7.51659E+1
  -9.71262E+1   2.98647E+1
   1.07469E+2  -1.62518E+2
   1.17008E+2  -2.22281E+1
  -1.21820E+2   1.78388E+1
  -1.31820E+1   5.38952E+1
   1.11799E+2  -2.00063E+2
   3.62623E+2   1.17859E+2
   1.35014E+2   2.27566E+0
  -7.94527E+1   2.86098E+2
  -1.94906E+2  -1.53703E+2
  -1.61120E+2  -1.77634E+2
  -4.11194E+1   9.72988E+1
  -3.70462E+1  -4.46227E+1
  -2.09601E+2  -1.42686E+2
   1.67383E+2  -2.40594E+2
   1.90685E+2   1.88272E+2
   3.66184E+1   8.00693E+1
  -2.93658E+2   3.37418E+2
  -2.68395E+2  -5.12614E+1
   2.58657E+1  -3.98863E+2
   3.31529E+2  -2.59618E+2
  -7.71709E+1   3.66853E+1
   1.31026E+2  -3.97700E+1
  -1.88482E+2   2.00391E+1
  -2.74679E+2   5.63418E+1
