 
 $NMID
 ID=''
 FMTDAT='(2E13.5)'
 TRAMP=   1.00000E+0
 VOLUME=   1.00000E+0
 $END
  -2.48060E+4  -1.04162E+4
  -5.21485E+4   1.99457E+3
  -2.01844E+4   5.41025E+4
   3.88129E+4   4.05973E+4
   4.78807E+4  -2.15918E+4
   5.92768E+3  -4.73240E+4
  -3.41163E+4  -2.08008E+4
  -3.53923E+4   2.08356E+4
   9.45308E+2   3.76827E+4
   3.17150E+4   1.17827E+4
   2.20550E+4  -2.47270E+4
  -8.99807E+3  -2.82701E+4
  -2.56734E+4  -3.47656E+3
  -1.39014E+4   1.69451E+4
   1.22766E+4   1.62208E+4
   2.17094E+4  -4.27251E+2
   4.01708E+3  -1.44359E+4
  -1.23442E+4  -1.05876E+4
  -1.05568E+4   4.91816E+3
  -1.30117E+1   1.25797E+4
   8.49789E+3   4.94124E+3
   7.36894E+3  -5.76017E+3
  -2.66853E+3  -7.46570E+3
  -7.82046E+3  -1.27558E+3
  -1.94711E+3   4.34387E+3
   3.56658E+3   4.90702E+3
   3.22308E+3   3.20018E+2
   2.53606E+2  -5.57716E+3
  -1.73898E+3  -3.24676E+3
  -2.07732E+3   2.83245E+3
  -6.55376E+2   3.83908E+3
   1.65651E+3  -2.68325E+2
   1.84355E+3  -3.12433E+3
   4.71174E+2  -2.17222E+3
  -9.96632E+2   1.21903E+3
  -1.18195E+3   3.19225E+3
  -4.54444E+0   1.07302E+3
   9.91882E+2  -1.46275E+3
   6.77033E+2  -1.31346E+3
  -1.10853E+3  -5.45529E+2
  -9.41221E+2  -9.91060E+1
   9.89104E+2   8.77984E+2
   1.20704E+3   1.11832E+3
   1.67229E+2   1.96047E+1
  -6.68977E+2  -4.17771E+2
  -1.67025E+3   2.58662E+2
  -1.49559E+3  -4.21618E+1
   9.41733E+2  -1.25167E+3
   1.89916E+3  -3.37414E+2
   1.57399E+2   6.73465E+2
  -6.22881E+2   3.88625E+2
  -7.20088E+1   2.79139E+2
   3.77720E+2   6.79409E+2
  -1.94059E+2   3.61798E+2
  -7.65576E+2  -1.73367E+2
  -4.02461E+2  -6.14479E+2
   3.40288E+2   1.83237E+2
   6.60335E+2   8.97439E+2
   3.62494E+2   7.40483E+2
  -3.82787E+2   1.57247E+2
  -9.23683E+2  -4.30182E+2
  -9.08902E+2   1.27276E+2
  -6.13947E+2   5.21543E+1
   5.52085E+2  -1.00648E+3
   9.63722E+2  -9.94354E+2
   8.19659E+2  -2.35037E+2
   9.03334E-1   7.62322E+2
  -1.83454E+2   1.39677E+3
  -4.77002E+2   5.80196E+2
   1.84879E+2  -3.75318E+2
   6.72432E+2  -5.33570E+2
  -1.58451E+2   5.93737E+2
  -1.00724E+3   8.20410E+2
  -9.60957E+2  -1.68588E+2
   4.41165E+2  -3.01814E+2
   6.89500E+2  -2.78731E+2
  -8.51428E+1  -4.65936E+2
  -6.43547E+2  -3.39944E+2
  -1.54410E+1  -1.60878E+2
   3.77669E+2   3.36519E-1
   5.68876E+2   1.79270E+2
   5.10358E+2   2.67846E+1
  -3.14059E+2   8.05476E+1
  -7.03201E+1  -4.64327E+1
   3.57145E+1   2.69900E+2
  -1.39402E+2   5.68885E+2
  -3.85416E+2   3.86923E+2
  -7.83687E+1  -2.07708E+2
   5.27303E+1  -3.19373E+2
  -2.22611E+2   1.39887E+2
  -4.60044E+2   2.93279E+2
  -4.09346E+2  -2.45459E+2
   2.38207E+2  -6.78775E+2
   6.07267E+2  -1.65005E+2
   2.70831E+2   2.43598E+2
  -3.08730E+1   7.23574E+2
  -2.40384E+2   1.63254E+2
  -2.08032E+1  -2.48406E+2
  -2.74521E+1  -5.03033E+1
  -3.42584E+2   2.88058E+2
  -7.81171E+2  -5.06580E+1
  -1.80278E+1  -5.33446E+2
   2.46323E+2  -2.79351E+2
   3.46194E+2   6.18994E+2
  -4.45699E+2   5.49984E+2
  -7.16215E+2   2.12666E+2
   1.22032E+1  -4.43968E+2
   5.46249E+2  -4.33683E+2
   2.69623E+2   4.74535E+2
  -3.81424E+2   5.36035E+2
  -7.09854E+2   7.40924E+1
  -1.95409E+2  -3.13410E+2
   2.58379E+2  -1.43774E+2
  -1.32534E+2  -3.02580E+1
  -2.94533E+2  -2.02074E+2
  -2.10968E+2  -1.82907E+2
   5.17665E+2   2.71619E+1
   8.11015E+2   2.98176E+2
   1.31123E+2   4.93749E+2
  -1.95484E+2   6.31429E+1
  -2.70691E+2  -2.47083E+1
  -3.54442E+2  -9.56068E+0
  -2.66352E+2  -5.97532E+1
  -1.57850E+0  -1.21973E+2
   2.11095E+2  -6.57576E+1
   2.11338E+2  -1.94521E+1
  -1.55803E+2  -4.78269E+1
  -6.42010E+1   3.24691E+2
   2.32950E+1   6.14597E+1
   7.46873E+0  -3.61782E+2
   2.67751E+2  -5.56995E+2
   5.05327E+2   4.02107E-1
  -1.52867E+2   2.63043E+2
  -3.77276E+2   9.22433E+1
   4.10941E+2  -8.33830E+1
   9.54961E+1   6.33757E+1
  -7.20575E+1   2.56540E+2
  -6.68181E+2   1.19726E+1
   1.52708E+2  -4.11326E+2
   2.56366E+2  -2.84311E+2
   1.89054E+2   2.52905E+2
  -2.00339E+2   3.70827E+2
  -3.35355E+2  -2.79592E+2
  -1.12527E+1  -5.15649E+2
   1.72901E+2  -2.60788E+2
   3.63582E+2   3.08219E+1
   1.39087E+2   1.84808E+2
   1.57495E+2   2.78061E+1
   1.91693E+1  -2.64405E+2
  -1.29231E+0  -1.87738E+2
  -2.19507E+2   3.66726E+2
  -1.11958E+2   2.85326E+2
  -4.43151E+2  -4.33155E+2
   5.60600E+1  -5.60774E+2
   3.00870E+2   3.80420E+1
  -7.52187E+1   2.00735E+2
  -3.00229E+1  -6.19943E+1
   2.06456E+2  -1.02701E+2
   2.24417E+2  -1.62769E+2
   1.67554E+2  -7.91213E+1
  -3.30055E+1  -2.49488E+2
   1.13529E+2   1.58334E+1
   4.72410E+2   1.29122E+2
   1.74868E+2   1.55515E+2
  -1.37672E+2   2.88747E+2
  -1.80433E+2  -6.92302E+1
   5.47292E+1  -1.82792E+2
   3.09614E+2  -2.37815E+2
  -8.93460E+1  -1.08733E+2
   9.33108E+0   1.12530E+2
  -1.14727E+2   1.09166E+2
   5.45964E+1   2.50452E+1
   2.91248E+2  -1.00976E+2
   1.37770E+2   2.53694E+1
  -1.15415E+2  -1.98462E+2
  -4.79119E+1  -8.56808E+1
   2.61163E+2  -4.22937E+1
   4.86821E+2   4.57759E+2
   5.48501E+1   5.19820E+2
  -3.22964E+2  -1.25375E+2
   1.54000E+2  -1.72805E+2
   1.18017E+2  -2.70506E+1
   3.01195E+2   2.13946E+1
   5.51425E+1   2.25883E+2
   5.38085E+1   1.80771E+2
   4.78832E+1  -1.45410E+2
  -1.45203E+1   9.08272E+1
   6.70616E+1   2.69474E+2
  -2.53604E+2   1.63650E+2
  -2.40993E+2  -6.08920E+2
   4.27536E+2  -2.92507E+2
   4.19045E+2  -1.08367E+2
   6.10579E+1   3.26503E+2
  -7.18743E+1   2.18581E+2
  -2.13151E+2  -3.18937E+2
   6.51171E+1  -4.44054E+1
  -2.22270E+2  -3.27728E+1
   6.42122E+1  -1.56429E+2
   7.92364E+1  -9.93543E+1
   3.36732E+2   1.45175E+2
   3.31088E+2   5.53019E+1
   1.18889E+2   2.42988E+2
  -4.42174E+2   2.21935E+2
  -2.71877E+2  -2.29766E+2
   1.68457E+2  -1.11628E+2
   2.06598E+2   1.09391E+2
  -1.86231E+2  -7.00760E+1
   1.05258E+1  -1.25470E+2
   9.22085E+1  -1.97617E+2
   1.65299E+2   7.81790E+1
   2.00335E+1   1.25696E+2
  -1.05453E+2  -9.86474E+1
  -2.50100E+2  -3.28827E+2
   3.26031E+2  -2.77877E+2
   2.86290E+2   5.36908E+1
   2.56536E+2   3.33699E+2
  -3.25686E+2   9.61102E+1
  -1.63680E+2   1.43834E+1
  -6.48809E+1  -1.05146E+2
  -1.16863E+2   2.49722E+2
  -1.27688E+2   2.21359E+2
  -9.15334E+1  -5.07940E+1
   1.35788E+2  -8.92933E+1
   4.01289E+1   7.05181E+1
   1.63942E+2   8.46402E+1
  -1.18807E+2   8.99778E+1
  -4.58682E+0  -8.60374E+1
  -1.71942E+1  -3.36701E+2
   2.70739E+2  -1.38606E+2
   8.96156E+1   1.66703E+2
  -1.74985E+0   2.24509E+2
  -9.18147E+1   7.33639E+1
  -2.99609E+1  -2.59662E+2
   8.70859E+1   2.76916E+2
   7.31778E+1   1.93700E+2
   1.52740E+1  -5.18489E+0
   2.09492E+2  -2.68874E+2
   1.50656E+2  -4.50902E+1
  -1.68619E+2   4.17132E+0
  -1.81292E+2   2.24401E+1
  -2.40056E+2  -1.83679E+2
   2.07071E+2  -1.30842E+2
   8.07131E+1  -5.61772E+1
   8.24376E+1   6.55362E+1
  -8.51643E+0   5.94762E+1
   1.75446E+2  -8.37974E+1
   2.21366E+2   2.10849E+2
   2.05507E+1   3.03167E+2
   5.48146E+1  -4.87602E+1
  -1.71976E+2  -2.16577E+2
   7.78293E+1  -8.53245E+1
   7.78004E+1   1.36425E+1
   4.71134E+2  -3.85790E+1
  -1.56688E+2   1.03766E+2
  -3.63431E+2  -9.05799E+1
   1.75909E+2  -2.75249E+2
  -3.87372E+1   1.17135E+2
   1.79179E+2   8.72431E+1
   6.67881E+0   3.43849E+0
  -1.04951E+1   3.70777E+1
   3.65425E+2  -6.18993E+1
   1.28310E+2   2.07904E+2
  -1.72737E+2  -2.91014E+1
  -6.34143E+1  -1.92517E+2
   2.65584E+2  -1.04580E+2
   1.84034E+2  -1.35085E+2
   2.12096E+2  -1.41667E+2
  -1.08615E+2  -3.58230E+1
  -7.31013E+1  -4.08393E+1
  -3.12765E+1   1.08361E+2
  -1.99442E+1  -4.12508E+1
   2.85766E+1  -6.44182E+1
  -4.99211E+1   2.99733E+1
  -1.40304E+2  -1.09852E+2
   7.88196E+1  -4.37749E+1
  -4.06415E+1   2.97756E+2
   4.13339E+1   1.64550E+2
  -1.10517E+2   1.83215E+1
  -4.26246E+1  -1.85429E+2
   1.30937E+1  -9.11896E+1
   2.50368E+1   3.93999E+1
   1.37853E+2   3.78637E+1
   1.93310E+1   9.97663E+1
   1.20659E+2  -1.65066E+2
   8.82052E+1  -6.23228E+0
  -1.26755E+2   8.43941E+1
  -1.08961E+2   1.25290E+2
  -7.46613E+1  -1.17222E+2
  -1.15323E+2   1.16325E+2
   1.25525E+2  -1.94753E+2
   1.42031E+2   2.30516E+2
   2.29410E+2   8.92329E+1
   2.28815E+2  -9.02622E+1
  -5.77866E+1   8.73686E+1
  -5.16819E+1   4.59351E+1
   5.97066E+1   6.62234E+1
   3.31206E+1  -2.53032E+2
  -6.17871E+1  -2.44714E+1
   1.01409E+2   1.47029E+2
  -1.33695E+2   1.47450E+2
  -1.55357E+2  -1.14213E+2
  -2.75515E+1  -2.16696E+2
  -2.63979E+1  -1.48162E+2
  -3.32859E+1   8.63954E+1
   7.95471E+1   3.54866E+1
  -2.65469E+2   1.65481E+2
   1.62355E+2  -4.05294E+1
  -9.77746E+1  -1.18415E+2
   4.67491E+1  -1.29399E+2
   7.27637E+1  -1.06237E+2
  -1.21209E+2  -6.86525E+1
   1.48440E+2  -1.75774E+2
   3.83575E+2   1.47398E+2
  -1.14308E+2   1.32777E+2
   2.26376E+1   2.45609E+1
  -2.82112E+1   4.80027E+1
  -9.08930E+1  -2.52693E+1
   1.71076E+2  -6.97220E+1
  -7.98166E+1  -4.99723E+0
   1.36200E+2   1.61251E+2
  -1.47156E+2  -9.93488E+1
  -1.11779E+0   2.99302E+2
   1.70906E+2  -9.92635E+1
  -2.34409E+2  -1.92431E+2
   4.33003E+1  -2.83976E+2
   4.92886E+1  -6.34709E+1
  -1.75901E+1  -1.47522E+2
   2.18336E+2   8.98709E+1
   4.28482E+1   1.09348E+2
   8.93818E+1   7.59487E+1
  -4.32289E+1   2.50935E+1
   8.70152E+1  -1.22027E+2
   4.62984E+1  -3.28625E+1
   1.46184E+1  -1.64482E+2
   4.03205E+1  -2.18503E+2
   4.10430E+1  -6.62114E+1
   5.74312E+1   1.47445E+2
   1.02953E+2   1.84356E+2
  -1.32716E+2   2.49772E+1
   5.43318E+1  -4.55154E+0
  -6.42594E+1   8.60403E+1
   1.46892E+1   2.16829E+2
   5.63114E+1  -3.14010E+1
  -1.23845E+2  -2.27029E+2
   2.63901E+2   1.06398E+2
  -2.12709E+2   3.98999E+1
  -5.26532E+1   9.39159E+1
  -1.52980E+2   1.13597E+1
  -9.71639E+1   7.51672E+1
   7.74562E+1  -6.79363E+1
   2.57982E+1   1.38444E+1
  -6.58319E+1   8.31207E+1
   5.13865E+1   9.75226E+1
   2.45511E+2  -8.34892E+1
  -2.05577E+2   9.42513E+1
   2.12712E+0   1.80017E+2
   1.50425E+1  -1.06857E+2
  -4.08919E+1   3.47899E+1
  -1.40301E+2   3.54251E+1
   7.10221E+1   7.10625E+0
   4.62806E+1  -4.83945E+1
   1.29694E+2   6.61615E+1
  -1.77961E+2  -5.15591E+1
  -4.21314E+1  -1.17198E+2
   1.83345E+1  -1.34286E+1
   1.03999E+2  -1.77593E+1
  -2.25635E+1  -7.10217E+1
