 LCModel (Version 6.3-1N) Copyright: S.W. Provencher.          Ref.: Magn. Reson. Med. 30:672-679 (1993).                
 Slice_N1@11_10  28-Feb-2025 11:37:04
 27 lines in following concentration table = NCONC+1
    Conc.  %SD /Cr+PCr  Metabolite                                         
 3.35E-04   3% 3.5E-04 Mac                                                 
    2.777  55%   2.914 Cr                                                  
    4.847  32%   5.086 PCr                                                 
    2.138  37%   2.244 Ins                                                 
   12.133   7%  12.731 NAA                                                 
    6.704  12%   7.034 Tau                                                 
    0.928  32%   0.974 PCho                                                
    0.000 999%   0.000 GPC                                                 
   10.889   9%  11.426 Glu                                                 
    2.554  29%   2.680 Gln                                                 
    0.000 999%   0.000 Ala                                                 
    0.449 259%   0.471 Asc                                                 
    3.526  26%   3.700 Asp                                                 
    0.000 999%   0.000 GABA                                                
    0.308 215%   0.324 Glc                                                 
    1.221  36%   1.281 GSH                                                 
    3.098  22%   3.251 Lac                                                 
    2.379  27%   2.496 NAAG                                                
    2.322  48%   2.436 PE                                                  
    0.928  32%   0.974 GPC+PCho                                            
   14.512   5%  15.228 NAA+NAAG                                            
   13.443   9%  14.106 Glu+Gln                                             
    7.624   8%   8.000 Cr+PCr                                              
   14.512   5%  15.228 NAA+NAAG                                            
    7.624   8%   8.000 Cr+PCr                                              
   13.443   9%  14.106 Glu+Gln                                             
   6 lines in following misc. output table
  FWHM = 0.033 ppm    S/N =   4                                            
  Data shift = 0.041 ppm                                                   
  Ph: 149 deg       0.0 deg/ppm                                            
  alphaB,S = 3.1E+01,   1.4E+01                                            
   19 spline knots.   Ns = 5(1)                                            
  ( 3) 2 infls.   ( 3) 1 extrs.                                            
  480 points on ppm-axis = NY
      4.100000     4.091866     4.083733     4.075600     4.067466     4.059333     4.051199     4.043066     4.034933     4.026799
      4.018666     4.010532     4.002399     3.994265     3.986132     3.977998     3.969864     3.961731     3.953597     3.945463
      3.937330     3.929196     3.921062     3.912929     3.904795     3.896662     3.888528     3.880394     3.872261     3.864127
      3.855993     3.847860     3.839726     3.831592     3.823459     3.815325     3.807191     3.799058     3.790924     3.782790
      3.774657     3.766523     3.758389     3.750256     3.742122     3.733989     3.725855     3.717721     3.709588     3.701454
      3.693320     3.685187     3.677053     3.668919     3.660786     3.652652     3.644518     3.636385     3.628251     3.620117
      3.611984     3.603850     3.595716     3.587583     3.579449     3.571316     3.563182     3.555048     3.546915     3.538781
      3.530647     3.522514     3.514380     3.506246     3.498113     3.489979     3.481845     3.473712     3.465578     3.457444
      3.449311     3.441177     3.433043     3.424910     3.416776     3.408643     3.400509     3.392375     3.384242     3.376108
      3.367974     3.359841     3.351707     3.343573     3.335440     3.327306     3.319172     3.311039     3.302905     3.294771
      3.286638     3.278504     3.270370     3.262237     3.254103     3.245970     3.237836     3.229702     3.221569     3.213435
      3.205301     3.197168     3.189034     3.180900     3.172767     3.164633     3.156499     3.148366     3.140232     3.132098
      3.123965     3.115831     3.107697     3.099564     3.091430     3.083297     3.075163     3.067029     3.058896     3.050762
      3.042628     3.034495     3.026361     3.018227     3.010094     3.001960     2.993826     2.985693     2.977559     2.969425
      2.961292     2.953158     2.945024     2.936891     2.928757     2.920624     2.912490     2.904356     2.896223     2.888089
      2.879955     2.871822     2.863688     2.855554     2.847421     2.839287     2.831153     2.823020     2.814886     2.806752
      2.798619     2.790485     2.782351     2.774218     2.766084     2.757951     2.749817     2.741683     2.733550     2.725416
      2.717282     2.709149     2.701015     2.692881     2.684748     2.676614     2.668480     2.660347     2.652213     2.644079
      2.635946     2.627812     2.619678     2.611545     2.603411     2.595278     2.587144     2.579010     2.570877     2.562743
      2.554609     2.546476     2.538342     2.530208     2.522075     2.513941     2.505807     2.497674     2.489540     2.481406
      2.473273     2.465139     2.457006     2.448872     2.440738     2.432605     2.424471     2.416337     2.408204     2.400070
      2.391936     2.383803     2.375669     2.367535     2.359402     2.351268     2.343134     2.335001     2.326867     2.318733
      2.310600     2.302466     2.294333     2.286199     2.278065     2.269932     2.261798     2.253664     2.245531     2.237397
      2.229263     2.221130     2.212996     2.204862     2.196729     2.188595     2.180461     2.172328     2.164194     2.156060
      2.147927     2.139793     2.131660     2.123526     2.115392     2.107259     2.099125     2.090991     2.082858     2.074724
      2.066590     2.058457     2.050323     2.042189     2.034056     2.025922     2.017788     2.009655     2.001521     1.993387
      1.985254     1.977120     1.968987     1.960853     1.952719     1.944586     1.936452     1.928318     1.920185     1.912051
      1.903917     1.895784     1.887650     1.879516     1.871383     1.863249     1.855115     1.846982     1.838848     1.830714
      1.822581     1.814447     1.806314     1.798180     1.790046     1.781913     1.773779     1.765645     1.757512     1.749378
      1.741244     1.733111     1.724977     1.716843     1.708710     1.700576     1.692442     1.684309     1.676175     1.668041
      1.659908     1.651774     1.643641     1.635507     1.627373     1.619240     1.611106     1.602972     1.594839     1.586705
      1.578571     1.570438     1.562304     1.554170     1.546037     1.537903     1.529769     1.521636     1.513502     1.505368
      1.497235     1.489101     1.480968     1.472834     1.464700     1.456567     1.448433     1.440299     1.432166     1.424032
      1.415898     1.407765     1.399631     1.391497     1.383364     1.375230     1.367096     1.358963     1.350829     1.342695
      1.334562     1.326428     1.318295     1.310161     1.302027     1.293894     1.285760     1.277626     1.269493     1.261359
      1.253225     1.245092     1.236958     1.228824     1.220691     1.212557     1.204423     1.196290     1.188156     1.180022
      1.171889     1.163755     1.155622     1.147488     1.139354     1.131221     1.123087     1.114953     1.106820     1.098686
      1.090552     1.082419     1.074285     1.066151     1.058018     1.049884     1.041750     1.033617     1.025483     1.017349
      1.009216     1.001082     0.992949     0.984815     0.976681     0.968548     0.960414     0.952280     0.944147     0.936013
      0.927879     0.919746     0.911612     0.903478     0.895345     0.887211     0.879077     0.870944     0.862810     0.854676
      0.846543     0.838409     0.830276     0.822142     0.814008     0.805875     0.797741     0.789607     0.781474     0.773340
      0.765206     0.757073     0.748939     0.740805     0.732672     0.724538     0.716404     0.708271     0.700137     0.692003
      0.683870     0.675736     0.667603     0.659469     0.651335     0.643202     0.635068     0.626934     0.618801     0.610667
      0.602533     0.594400     0.586266     0.578132     0.569999     0.561865     0.553731     0.545598     0.537464     0.529330
      0.521197     0.513063     0.504930     0.496796     0.488662     0.480529     0.472395     0.464261     0.456128     0.447994
      0.439861     0.431727     0.423593     0.415460     0.407326     0.399192     0.391059     0.382925     0.374792     0.366658
      0.358524     0.350391     0.342257     0.334124     0.325990     0.317856     0.309723     0.301589     0.293455     0.285322
      0.277188     0.269055     0.260921     0.252787     0.244654     0.236520     0.228386     0.220253     0.212119     0.203986
 NY phased data points follow
  -6.22392E+01 -4.64812E+01 -4.41494E+01 -4.53268E+01 -4.79717E+01 -5.32770E+01 -5.80996E+01 -5.54852E+01 -3.13310E+01 -3.50090E+01
  -4.70361E+01 -5.47471E+01 -5.83532E+01 -5.87746E+01 -8.00230E+01 -7.65720E+01 -7.97516E+01 -9.42765E+01 -9.02712E+01 -1.04057E+02
  -1.12200E+02 -9.04516E+01 -8.08331E+01 -5.79057E+01 -1.91325E+01 -1.71437E+01 -1.83232E+01 -1.94650E+01 -1.32110E+01 -9.31607E+00
  -1.70485E+01 -7.93806E+00 -4.33365E+00 -5.47626E+00 -8.95759E+00 -1.57747E+01 -1.59522E+01  1.99443E+00 -2.06452E+01 -5.99880E+01
  -4.93475E+01 -6.21668E+01 -6.37826E+01 -4.29888E+01 -3.24586E+01 -1.20217E+01  2.33053E+00  2.15562E+01  2.15142E+01  2.15687E+01
   3.32619E+01  3.43258E+01  4.23064E+01  3.03701E+01  1.55691E+01  1.49985E+01  6.51517E+00 -3.53923E+00 -4.89523E+00  2.07361E-01
   5.41612E+00  1.57182E+01  2.49812E+01  2.85252E+01  2.62759E+01  2.49717E+01  2.69539E+01  3.23311E+01  1.66477E+01 -4.84612E-01
   1.41586E+01  4.00445E-01  1.44970E+00  1.71090E+01  7.91005E+00  2.94939E+01  3.88046E+01  2.25173E+01  2.68319E+01  4.75231E+01
   4.08374E+01  2.00717E+01  8.54809E+00  5.25722E+00  2.37573E+00 -2.37593E+01 -1.14421E+01  1.32499E+01  1.75237E+01  1.62860E+01
   1.64611E+01  3.83902E+01  3.77274E+01  3.08101E+01  3.24869E+01  5.56323E+01  5.14106E+01  3.35680E+01  5.64733E+01  4.74881E+01
   4.34633E+01  2.85523E+01  2.23064E+01  1.25554E+01 -2.61658E+01 -2.12503E+01 -3.99402E+01 -4.84301E+01 -5.29482E+01 -8.79077E+01
  -1.12088E+02 -1.15536E+02 -9.77220E+01 -9.22657E+01 -7.71365E+01 -5.72512E+01 -4.81141E+01 -5.12932E+01 -4.86153E+01 -4.80755E+01
  -3.55461E+01 -1.54585E+01 -1.56523E+01 -1.07016E+01 -1.09986E+01  2.01334E+01  3.14012E+01  3.25511E+01  3.15195E+01  5.06112E+01
   1.03515E+02  5.95176E+01  5.24220E+00 -4.07638E+01 -7.97216E+01 -9.48010E+01 -9.19212E+01 -8.08512E+01 -9.62924E+01 -8.14251E+01
  -9.01260E+01 -7.97817E+01 -7.36303E+01 -8.96150E+01 -8.61475E+01 -9.13908E+01 -7.22912E+01 -8.86886E+01 -8.77136E+01 -5.72717E+01
  -7.51603E+01 -7.88615E+01 -5.72538E+01 -6.89958E+01 -6.10416E+01 -4.16448E+01 -5.33916E+01 -3.71249E+01 -4.14859E+01 -4.78160E+01
  -4.09810E+01 -4.16060E+01 -2.89471E+01 -4.55530E+01 -5.04326E+01 -4.98256E+01 -5.15404E+01 -2.85853E+01 -4.35893E+01 -4.65125E+01
  -2.68476E+01 -2.13569E+01 -7.88394E+00 -1.30836E+01 -7.39000E-01 -7.33112E+00 -1.38324E+01  1.98587E+00 -1.23739E+01 -2.77410E+01
  -4.97400E+01 -5.36250E+01 -6.50629E+01 -6.29923E+01 -6.49184E+01 -7.37730E+01 -5.52116E+01 -5.87911E+01 -6.36060E+01 -7.12599E+01
  -6.63746E+01 -6.47492E+01 -3.68430E+01 -3.43270E+01 -4.38394E+01 -1.87293E+01 -3.74310E+01 -3.54327E+01 -2.24941E+01 -1.87198E+01
  -3.56292E+01 -3.97150E+01 -4.20371E+01 -2.74366E+01 -1.50752E+01 -5.03769E+01 -4.66502E+01 -6.05663E+01 -5.25596E+01 -6.28638E+01
  -7.20661E+01 -6.22055E+01 -6.53149E+01 -4.30812E+01 -3.17969E+01  4.08265E+00 -1.17009E+01  1.24001E+01  3.02008E+01  6.50163E+00
   7.55826E+00 -3.28428E+01 -2.32233E+01 -1.39355E+01 -2.16554E+01 -2.47043E+01 -1.22127E+01 -2.11982E+01 -3.51513E+01 -1.85659E+01
  -2.71405E+01 -3.00830E+01 -4.68652E+01 -4.90003E+01 -5.53781E+01 -6.68580E+01 -8.03957E+01 -8.41233E+01 -8.79141E+01 -9.59001E+01
  -7.75717E+01 -9.27631E+01 -7.75941E+01 -7.86239E+01 -8.03308E+01 -6.66679E+01 -7.16933E+01 -6.46395E+01 -8.28687E+01 -7.62971E+01
  -9.13181E+01 -9.50754E+01 -9.29872E+01 -1.02947E+02 -9.01204E+01 -1.34213E+02 -1.27979E+02 -4.38462E+01  5.69871E+01  1.33225E+02
   1.34273E+02  1.42510E+02  1.39120E+02  1.04690E+02  1.05806E+02  9.58861E+01  8.82959E+01  9.48424E+01  7.98335E+01  7.95428E+01
   6.79833E+01  6.36260E+01  8.02664E+01  6.90599E+01  6.06780E+01  7.14549E+01  7.36360E+01  6.08447E+01  5.73472E+01  5.77853E+01
   5.36441E+01  5.62827E+01  5.02617E+01  4.51040E+01  5.42639E+01  4.84154E+01  3.54508E+01  4.85182E+01  4.76761E+01  3.19253E+01
   4.37396E+01  4.65130E+01  3.16191E+01  2.17260E+01  2.24487E+01  2.79007E+01  1.49452E+01 -1.38375E+00 -5.11055E+00  2.07119E+00
   3.61127E+00 -2.89669E+00  8.23219E-01  4.31236E-01  1.39304E+01  2.58152E+01  1.91498E+01  3.76951E+01  2.35693E+01  4.59891E-01
   8.21330E+00  8.99996E+00  3.56578E+01  4.60069E+01  5.77803E+01  5.33832E+01  5.06257E+01  8.22970E+01  6.44284E+01  7.62073E+01
   8.17671E+01  7.60857E+01  8.32983E+01  7.37127E+01  6.51564E+01  4.17132E+01  5.87704E+01  4.40159E+01  3.25753E+01  4.54960E+01
   4.12457E+01  4.74956E+01  2.75600E+01  1.61099E+01 -5.96718E+00 -1.97720E+01 -1.32566E+01 -1.27343E+01 -2.52425E+01 -1.45936E+01
  -5.27809E+00 -2.05799E+01 -1.81451E+01 -4.33119E+01 -1.47372E+01 -7.48126E+00 -4.21978E+01 -1.49807E+01 -5.21021E+00 -1.19698E+01
  -4.13414E+00  4.89480E-01 -1.29162E+00  1.85900E+01  1.39134E+00 -2.75595E+00 -1.52045E+01 -3.70029E+01  5.78474E+00 -1.04045E+01
  -1.37379E+01 -2.21661E+01 -2.32876E+01  5.27947E+00 -7.24749E+00  1.40310E+01  1.55512E+01  2.29547E+01  1.66152E+01 -9.58258E-01
   2.14461E+01  2.07341E+01  3.97807E+01  5.21341E+01  4.48492E+01  5.48079E+01  3.99471E+01  3.65380E+01  5.77715E+01  5.72804E+01
   6.68352E+01  8.18164E+01  9.46666E+01  9.36397E+01  8.61608E+01  1.03339E+02  9.79035E+01  1.07741E+02  1.25939E+02  1.15559E+02
   1.09459E+02  1.02216E+02  9.26911E+01  8.03764E+01  7.21882E+01  6.10636E+01  5.20261E+01  4.90485E+01  4.89995E+01  4.03246E+01
   2.35776E+01  1.91831E+01  9.71686E+00 -1.87289E+00 -8.77887E+00 -4.69917E+00 -1.73288E+01 -2.48556E+01 -1.05267E+01 -3.51720E+01
  -3.52844E+01 -1.03134E+01 -1.19001E+01 -1.25399E+01 -2.63743E+01 -3.19073E+01 -1.84784E+01 -2.62411E+01 -3.62065E+01 -2.71376E+01
  -2.77880E+01 -3.69892E+01 -3.89418E+01 -3.49156E+01 -3.04469E+01 -2.53619E+01 -2.81576E+01 -3.75241E+01 -2.17936E+01 -2.35955E+01
  -3.25437E+01 -2.04979E+01 -3.16167E+01 -2.73768E+01 -2.84345E+01 -3.37001E+01 -2.08755E+01 -3.80394E+01 -5.02626E+01 -4.67608E+01
  -3.48916E+01 -2.98909E+01 -2.96000E+01 -1.82353E+01 -2.50634E+01 -3.30989E+01 -4.00007E+01 -3.48969E+01 -2.04618E+01 -2.28278E+01
  -1.66216E+01 -6.11698E+00 -1.90384E+01 -4.05329E+01 -4.14470E+01 -2.80650E+01 -2.29566E+01 -2.78577E+01 -2.99676E+01 -2.17292E+01
  -9.20882E+00 -1.45328E+01 -1.64553E+01 -2.16515E+01 -2.44375E+01 -7.75578E+00 -2.33570E+01 -2.67608E+01 -1.69520E+01 -1.97399E+01
  -3.12234E+01 -2.05130E+01 -1.09078E+00 -3.50893E+01 -3.03225E+01 -2.12939E+01 -2.51088E+01 -2.14160E+01 -1.81169E+01 -1.27074E+01
 NY points of the fit to the data follow
  -3.73243E+01 -3.64867E+01 -3.71894E+01 -3.92951E+01 -4.17066E+01 -4.25551E+01 -4.19351E+01 -4.18889E+01 -4.40764E+01 -4.85513E+01
  -5.41086E+01 -5.96986E+01 -6.47474E+01 -6.86638E+01 -7.11667E+01 -7.37141E+01 -7.43528E+01 -7.61425E+01 -8.17296E+01 -9.11257E+01
  -9.56948E+01 -8.80317E+01 -6.85944E+01 -4.39865E+01 -2.42077E+01 -1.26566E+01 -7.60152E+00 -4.96636E+00 -1.88761E+00  1.34129E+00
   3.33973E+00  3.72117E+00  2.98344E+00  1.52431E+00 -9.31542E-01 -5.19686E+00 -9.84808E+00 -1.52940E+01 -2.33203E+01 -3.60076E+01
  -4.89636E+01 -5.63700E+01 -5.45268E+01 -4.37524E+01 -2.74322E+01 -9.91569E+00  4.18377E+00  1.29964E+01  1.67757E+01  1.74290E+01
   1.65895E+01  1.47893E+01  1.26324E+01  9.93212E+00  5.97709E+00  1.77377E+00 -1.08390E+00 -2.26362E+00 -2.36877E+00 -1.40194E+00
   7.33857E-01  3.18917E+00  6.12575E+00  9.43928E+00  1.24038E+01  1.47059E+01  1.63431E+01  1.61682E+01  1.28437E+01  7.54972E+00
   3.84105E+00  3.72766E+00  6.61597E+00  1.12931E+01  1.67752E+01  2.21291E+01  2.63777E+01  2.92504E+01  2.93811E+01  2.78619E+01
   2.16479E+01  1.08521E+01 -4.52465E+00 -1.93343E+01 -2.87436E+01 -2.97872E+01 -2.23438E+01 -1.14872E+01 -6.02541E-01  7.74659E+00
   1.37822E+01  1.85247E+01  2.25949E+01  2.63398E+01  2.97505E+01  3.28102E+01  3.58618E+01  3.77771E+01  3.87147E+01  4.01021E+01
   4.13370E+01  4.09403E+01  3.44799E+01  2.18788E+01  2.22753E+00 -1.66309E+01 -2.85468E+01 -3.67507E+01 -5.13772E+01 -7.58552E+01
  -9.83774E+01 -1.07722E+02 -1.02065E+02 -8.89378E+01 -7.60516E+01 -6.55311E+01 -5.69374E+01 -4.94562E+01 -4.24804E+01 -3.58561E+01
  -2.93587E+01 -2.27068E+01 -1.55305E+01 -7.36613E+00  2.12019E+00  1.37511E+01  2.86127E+01  3.71184E+01  4.92113E+01  7.06920E+01
   8.93042E+01  7.33824E+01  2.00376E+01 -4.00153E+01 -7.98110E+01 -9.12254E+01 -8.95271E+01 -8.59891E+01 -8.30280E+01 -8.16332E+01
  -8.18238E+01 -8.27918E+01 -8.36855E+01 -8.42646E+01 -8.46911E+01 -8.46743E+01 -8.38387E+01 -8.20388E+01 -7.95449E+01 -7.66574E+01
  -7.34573E+01 -7.03658E+01 -6.77294E+01 -6.52223E+01 -6.20190E+01 -5.84233E+01 -5.55587E+01 -5.45033E+01 -5.43870E+01 -5.29104E+01
  -4.94824E+01 -4.62138E+01 -4.58908E+01 -4.82445E+01 -5.07405E+01 -5.09213E+01 -4.84392E+01 -4.59181E+01 -4.55741E+01 -4.48248E+01
  -3.76850E+01 -2.41211E+01 -1.31099E+01 -1.20252E+01 -1.70532E+01 -1.77883E+01 -1.20684E+01 -7.73621E+00 -1.23642E+01 -2.41007E+01
  -3.64007E+01 -4.52321E+01 -5.08113E+01 -5.48614E+01 -5.79273E+01 -5.98872E+01 -6.07102E+01 -6.09804E+01 -6.03647E+01 -5.76206E+01
  -5.52556E+01 -5.35520E+01 -4.95596E+01 -4.21691E+01 -3.44925E+01 -3.08901E+01 -2.87950E+01 -2.58194E+01 -2.23349E+01 -2.14997E+01
  -2.35208E+01 -2.38428E+01 -2.28619E+01 -2.33768E+01 -2.74290E+01 -3.42143E+01 -4.14407E+01 -4.83208E+01 -5.47870E+01 -6.18757E+01
  -6.56682E+01 -6.63944E+01 -6.27894E+01 -5.31855E+01 -3.58733E+01 -1.36558E+01  6.67304E+00  2.14332E+01  2.60093E+01  2.17281E+01
   1.28150E+01  3.54736E+00 -2.21784E+00 -4.64416E+00 -5.45218E+00 -5.92341E+00 -7.38302E+00 -1.06676E+01 -1.60239E+01 -2.39586E+01
  -3.40377E+01 -4.50449E+01 -5.62347E+01 -6.69048E+01 -7.63754E+01 -8.41182E+01 -8.98810E+01 -9.28553E+01 -9.34427E+01 -9.19689E+01
  -8.93475E+01 -8.54422E+01 -8.04612E+01 -7.47103E+01 -6.89230E+01 -6.51379E+01 -6.40680E+01 -6.66799E+01 -7.10094E+01 -7.57496E+01
  -8.62701E+01 -1.03200E+02 -1.03194E+02 -9.71164E+01 -1.07440E+02 -1.31916E+02 -1.19779E+02 -5.13963E+01  3.74704E+01  1.02502E+02
   1.22882E+02  1.19025E+02  1.09907E+02  1.01059E+02  9.39025E+01  8.83156E+01  8.37146E+01  7.97004E+01  7.61204E+01  7.30936E+01
   7.08893E+01  6.94854E+01  6.87801E+01  6.84737E+01  6.83536E+01  6.80498E+01  6.73682E+01  6.63806E+01  6.53138E+01  6.42847E+01
   6.30141E+01  6.12787E+01  5.92636E+01  5.71822E+01  5.51265E+01  5.29251E+01  5.05111E+01  4.79888E+01  4.53526E+01  4.24209E+01
   3.89631E+01  3.51517E+01  3.11401E+01  2.70271E+01  2.30114E+01  1.95842E+01  1.74105E+01  1.69764E+01  1.80547E+01  2.00767E+01
   2.25530E+01  2.53326E+01  2.83518E+01  3.15050E+01  3.47019E+01  3.77390E+01  4.05143E+01  4.31463E+01  4.59088E+01  4.89505E+01
   5.20516E+01  5.48581E+01  5.72210E+01  5.93584E+01  6.12974E+01  6.29066E+01  6.40993E+01  6.47887E+01  6.46225E+01  6.35678E+01
   6.18158E+01  5.96222E+01  5.68249E+01  5.32434E+01  4.90001E+01  4.43671E+01  3.90889E+01  3.23645E+01  2.39161E+01  1.43209E+01
   4.71043E+00 -3.95816E+00 -1.09612E+01 -1.57855E+01 -1.77168E+01 -1.63959E+01 -1.34138E+01 -7.63356E+00 -3.84285E-01  5.75557E+00
   6.70236E+00  1.36217E+00 -8.33157E+00 -1.83919E+01 -2.30563E+01 -2.12527E+01 -1.51161E+01 -8.30333E+00 -3.39712E+00 -4.04032E-01
   1.09634E+00  1.24294E+00  8.37925E-02 -2.49189E+00 -6.25011E+00 -1.05393E+01 -1.44374E+01 -1.71387E+01 -1.83489E+01 -1.80508E+01
  -1.65220E+01 -1.39307E+01 -1.05219E+01 -6.56778E+00 -2.37522E+00  1.79136E+00  5.79887E+00  9.57452E+00  1.32540E+01  1.69316E+01
   2.05936E+01  2.43038E+01  2.80726E+01  3.19642E+01  3.60920E+01  4.07297E+01  4.58414E+01  5.14548E+01  5.77775E+01  6.49274E+01
   7.26286E+01  8.06995E+01  8.91449E+01  9.80091E+01  1.06837E+02  1.14938E+02  1.21400E+02  1.25254E+02  1.25237E+02  1.20502E+02
   1.11702E+02  1.00583E+02  8.90969E+01  7.83561E+01  6.90660E+01  6.09577E+01  5.31469E+01  4.47824E+01  3.54965E+01  2.54271E+01
   1.51310E+01  5.50777E+00 -2.70171E+00 -9.35808E+00 -1.45880E+01 -1.86266E+01 -2.15600E+01 -2.35876E+01 -2.51117E+01 -2.64239E+01
  -2.77134E+01 -2.87547E+01 -2.94402E+01 -2.98274E+01 -3.01675E+01 -3.03893E+01 -3.03011E+01 -3.01755E+01 -3.02629E+01 -3.05047E+01
  -3.04702E+01 -3.01989E+01 -2.99581E+01 -2.98854E+01 -2.98399E+01 -2.96404E+01 -2.94927E+01 -2.94639E+01 -2.94120E+01 -2.91064E+01
  -2.86717E+01 -2.82865E+01 -2.81189E+01 -2.81785E+01 -2.82580E+01 -2.82234E+01 -2.80006E+01 -2.76933E+01 -2.73038E+01 -2.69560E+01
  -2.66581E+01 -2.64007E+01 -2.61093E+01 -2.58199E+01 -2.57301E+01 -2.58402E+01 -2.59412E+01 -2.58820E+01 -2.56599E+01 -2.53220E+01
  -2.49913E+01 -2.48627E+01 -2.48327E+01 -2.47793E+01 -2.45417E+01 -2.41996E+01 -2.38116E+01 -2.35600E+01 -2.33520E+01 -2.31526E+01
  -2.29268E+01 -2.27426E+01 -2.26957E+01 -2.27226E+01 -2.27884E+01 -2.28125E+01 -2.27786E+01 -2.25308E+01 -2.20262E+01 -2.14450E+01
  -2.10659E+01 -2.11224E+01 -2.14609E+01 -2.17338E+01 -2.18080E+01 -2.17968E+01 -2.17388E+01 -2.16652E+01 -2.16803E+01 -2.17892E+01
 NY background values follow
    -1.557E+01   -1.556E+01   -1.554E+01   -1.553E+01   -1.552E+01   -1.550E+01   -1.549E+01   -1.548E+01   -1.547E+01   -1.545E+01
    -1.544E+01   -1.543E+01   -1.541E+01   -1.540E+01   -1.539E+01   -1.538E+01   -1.536E+01   -1.535E+01   -1.534E+01   -1.532E+01
    -1.531E+01   -1.530E+01   -1.529E+01   -1.527E+01   -1.526E+01   -1.525E+01   -1.523E+01   -1.522E+01   -1.521E+01   -1.520E+01
    -1.518E+01   -1.517E+01   -1.516E+01   -1.515E+01   -1.513E+01   -1.512E+01   -1.511E+01   -1.509E+01   -1.508E+01   -1.507E+01
    -1.506E+01   -1.504E+01   -1.503E+01   -1.502E+01   -1.500E+01   -1.499E+01   -1.498E+01   -1.497E+01   -1.495E+01   -1.494E+01
    -1.493E+01   -1.491E+01   -1.490E+01   -1.489E+01   -1.488E+01   -1.486E+01   -1.485E+01   -1.484E+01   -1.482E+01   -1.481E+01
    -1.480E+01   -1.479E+01   -1.477E+01   -1.476E+01   -1.475E+01   -1.474E+01   -1.472E+01   -1.471E+01   -1.470E+01   -1.468E+01
    -1.467E+01   -1.466E+01   -1.465E+01   -1.463E+01   -1.462E+01   -1.461E+01   -1.459E+01   -1.458E+01   -1.457E+01   -1.456E+01
    -1.454E+01   -1.453E+01   -1.452E+01   -1.451E+01   -1.449E+01   -1.448E+01   -1.447E+01   -1.445E+01   -1.444E+01   -1.443E+01
    -1.442E+01   -1.440E+01   -1.439E+01   -1.438E+01   -1.436E+01   -1.435E+01   -1.434E+01   -1.433E+01   -1.431E+01   -1.430E+01
    -1.429E+01   -1.428E+01   -1.426E+01   -1.425E+01   -1.424E+01   -1.422E+01   -1.421E+01   -1.420E+01   -1.419E+01   -1.417E+01
    -1.416E+01   -1.415E+01   -1.413E+01   -1.412E+01   -1.411E+01   -1.410E+01   -1.408E+01   -1.407E+01   -1.406E+01   -1.405E+01
    -1.403E+01   -1.402E+01   -1.401E+01   -1.399E+01   -1.398E+01   -1.397E+01   -1.396E+01   -1.394E+01   -1.393E+01   -1.392E+01
    -1.390E+01   -1.389E+01   -1.388E+01   -1.387E+01   -1.385E+01   -1.384E+01   -1.383E+01   -1.382E+01   -1.380E+01   -1.379E+01
    -1.378E+01   -1.376E+01   -1.375E+01   -1.374E+01   -1.373E+01   -1.371E+01   -1.370E+01   -1.369E+01   -1.368E+01   -1.366E+01
    -1.365E+01   -1.364E+01   -1.362E+01   -1.361E+01   -1.360E+01   -1.359E+01   -1.357E+01   -1.356E+01   -1.355E+01   -1.353E+01
    -1.352E+01   -1.351E+01   -1.350E+01   -1.348E+01   -1.347E+01   -1.346E+01   -1.345E+01   -1.343E+01   -1.342E+01   -1.341E+01
    -1.339E+01   -1.338E+01   -1.337E+01   -1.336E+01   -1.334E+01   -1.333E+01   -1.332E+01   -1.331E+01   -1.329E+01   -1.328E+01
    -1.327E+01   -1.325E+01   -1.324E+01   -1.323E+01   -1.322E+01   -1.320E+01   -1.319E+01   -1.318E+01   -1.316E+01   -1.315E+01
    -1.314E+01   -1.313E+01   -1.311E+01   -1.310E+01   -1.309E+01   -1.308E+01   -1.306E+01   -1.305E+01   -1.304E+01   -1.302E+01
    -1.301E+01   -1.300E+01   -1.299E+01   -1.297E+01   -1.296E+01   -1.295E+01   -1.294E+01   -1.292E+01   -1.291E+01   -1.290E+01
    -1.288E+01   -1.287E+01   -1.286E+01   -1.285E+01   -1.283E+01   -1.282E+01   -1.281E+01   -1.279E+01   -1.278E+01   -1.277E+01
    -1.276E+01   -1.274E+01   -1.273E+01   -1.272E+01   -1.271E+01   -1.269E+01   -1.268E+01   -1.267E+01   -1.265E+01   -1.264E+01
    -1.263E+01   -1.262E+01   -1.260E+01   -1.259E+01   -1.258E+01   -1.257E+01   -1.255E+01   -1.254E+01   -1.253E+01   -1.251E+01
    -1.250E+01   -1.249E+01   -1.248E+01   -1.246E+01   -1.245E+01   -1.244E+01   -1.242E+01   -1.241E+01   -1.240E+01   -1.239E+01
    -1.237E+01   -1.236E+01   -1.235E+01   -1.234E+01   -1.232E+01   -1.231E+01   -1.230E+01   -1.228E+01   -1.227E+01   -1.226E+01
    -1.225E+01   -1.223E+01   -1.222E+01   -1.221E+01   -1.219E+01   -1.218E+01   -1.217E+01   -1.216E+01   -1.214E+01   -1.213E+01
    -1.212E+01   -1.211E+01   -1.209E+01   -1.208E+01   -1.207E+01   -1.205E+01   -1.204E+01   -1.203E+01   -1.202E+01   -1.200E+01
    -1.199E+01   -1.198E+01   -1.196E+01   -1.195E+01   -1.194E+01   -1.193E+01   -1.191E+01   -1.190E+01   -1.189E+01   -1.188E+01
    -1.186E+01   -1.185E+01   -1.184E+01   -1.182E+01   -1.181E+01   -1.180E+01   -1.179E+01   -1.177E+01   -1.176E+01   -1.175E+01
    -1.173E+01   -1.172E+01   -1.171E+01   -1.170E+01   -1.168E+01   -1.167E+01   -1.166E+01   -1.165E+01   -1.163E+01   -1.162E+01
    -1.161E+01   -1.159E+01   -1.158E+01   -1.157E+01   -1.156E+01   -1.154E+01   -1.153E+01   -1.152E+01   -1.150E+01   -1.149E+01
    -1.148E+01   -1.147E+01   -1.145E+01   -1.144E+01   -1.143E+01   -1.141E+01   -1.140E+01   -1.139E+01   -1.138E+01   -1.136E+01
    -1.135E+01   -1.134E+01   -1.133E+01   -1.131E+01   -1.130E+01   -1.129E+01   -1.127E+01   -1.126E+01   -1.125E+01   -1.124E+01
    -1.122E+01   -1.121E+01   -1.120E+01   -1.118E+01   -1.117E+01   -1.116E+01   -1.115E+01   -1.113E+01   -1.112E+01   -1.111E+01
    -1.109E+01   -1.108E+01   -1.107E+01   -1.106E+01   -1.104E+01   -1.103E+01   -1.102E+01   -1.100E+01   -1.099E+01   -1.098E+01
    -1.097E+01   -1.095E+01   -1.094E+01   -1.093E+01   -1.092E+01   -1.090E+01   -1.089E+01   -1.088E+01   -1.086E+01   -1.085E+01
    -1.084E+01   -1.083E+01   -1.081E+01   -1.080E+01   -1.079E+01   -1.077E+01   -1.076E+01   -1.075E+01   -1.074E+01   -1.072E+01
    -1.071E+01   -1.070E+01   -1.068E+01   -1.067E+01   -1.066E+01   -1.065E+01   -1.063E+01   -1.062E+01   -1.061E+01   -1.060E+01
    -1.058E+01   -1.057E+01   -1.056E+01   -1.054E+01   -1.053E+01   -1.052E+01   -1.051E+01   -1.049E+01   -1.048E+01   -1.047E+01
    -1.045E+01   -1.044E+01   -1.043E+01   -1.042E+01   -1.040E+01   -1.039E+01   -1.038E+01   -1.036E+01   -1.035E+01   -1.034E+01
    -1.033E+01   -1.031E+01   -1.030E+01   -1.029E+01   -1.027E+01   -1.026E+01   -1.025E+01   -1.024E+01   -1.022E+01   -1.021E+01
    -1.020E+01   -1.018E+01   -1.017E+01   -1.016E+01   -1.015E+01   -1.013E+01   -1.012E+01   -1.011E+01   -1.010E+01   -1.008E+01
    -1.007E+01   -1.006E+01   -1.004E+01   -1.003E+01   -1.002E+01   -1.001E+01   -9.993E+00   -9.980E+00   -9.967E+00   -9.954E+00
    -9.942E+00   -9.929E+00   -9.916E+00   -9.903E+00   -9.890E+00   -9.878E+00   -9.865E+00   -9.852E+00   -9.839E+00   -9.826E+00
    -9.813E+00   -9.801E+00   -9.788E+00   -9.775E+00   -9.762E+00   -9.749E+00   -9.737E+00   -9.724E+00   -9.711E+00   -9.698E+00
    -9.685E+00   -9.672E+00   -9.660E+00   -9.647E+00   -9.634E+00   -9.621E+00   -9.608E+00   -9.596E+00   -9.583E+00   -9.570E+00
    -9.557E+00   -9.544E+00   -9.532E+00   -9.519E+00   -9.506E+00   -9.493E+00   -9.480E+00   -9.468E+00   -9.455E+00   -9.442E+00
 Mac      Conc. = 3.35E-04
  -3.75959E+01 -3.84080E+01 -3.91324E+01 -3.96599E+01 -4.00934E+01 -4.06581E+01 -4.16474E+01 -4.31394E+01 -4.50691E+01 -4.70220E+01
  -4.87075E+01 -4.99615E+01 -5.08000E+01 -5.12212E+01 -5.13186E+01 -5.20345E+01 -5.36862E+01 -5.50707E+01 -5.43721E+01 -5.13465E+01
  -4.71275E+01 -4.26370E+01 -3.83857E+01 -3.47335E+01 -3.19864E+01 -3.01717E+01 -2.87741E+01 -2.72231E+01 -2.52729E+01 -2.30475E+01
  -2.09401E+01 -1.91556E+01 -1.76750E+01 -1.64174E+01 -1.55540E+01 -1.53441E+01 -1.55566E+01 -1.53223E+01 -1.38456E+01 -1.14205E+01
  -9.15431E+00 -7.94751E+00 -7.66819E+00 -7.48035E+00 -6.71455E+00 -5.39688E+00 -4.17040E+00 -3.48417E+00 -3.52441E+00 -4.19789E+00
  -5.34633E+00 -6.78048E+00 -8.16634E+00 -9.23475E+00 -9.89964E+00 -1.04397E+01 -1.07664E+01 -1.04968E+01 -9.58464E+00 -8.34681E+00
  -6.97880E+00 -5.51892E+00 -4.09732E+00 -3.12940E+00 -2.93170E+00 -3.58912E+00 -4.47531E+00 -5.09152E+00 -5.51301E+00 -5.98019E+00
  -6.17867E+00 -5.36088E+00 -3.33654E+00 -7.83871E-01  1.45304E+00  2.93842E+00  3.68271E+00  3.74717E+00  3.24589E+00  2.54920E+00
   1.94925E+00  1.41175E+00  9.85729E-01  7.72274E-01  1.02307E+00  1.61680E+00  2.49805E+00  3.48730E+00  4.47458E+00  5.34293E+00
   6.07805E+00  6.61550E+00  7.00882E+00  7.25388E+00  7.22880E+00  6.64903E+00  5.37540E+00  3.37296E+00  7.23166E-01 -2.12375E+00
  -4.74685E+00 -7.14121E+00 -9.71151E+00 -1.27597E+01 -1.63312E+01 -2.06534E+01 -2.62653E+01 -3.31125E+01 -4.00072E+01 -4.52989E+01
