 LCModel (Version 6.3-1N) Copyright: S.W. Provencher.          Ref.: Magn. Reson. Med. 30:672-679 (1993).                
 Slice_N1@20_11  28-Feb-2025 11:41:58
 27 lines in following concentration table = NCONC+1
    Conc.  %SD /Cr+PCr  Metabolite                                         
 2.70E-04   5% 2.4E-04 Mac                                                 
    5.219  22%   4.632 Cr                                                  
    3.795  30%   3.368 PCr                                                 
   10.561   9%   9.373 Ins                                                 
   12.918   6%  11.465 NAA                                                 
    5.463  17%   4.848 Tau                                                 
    1.227  28%   1.089 PCho                                                
    1.383  24%   1.227 GPC                                                 
   12.806   9%  11.365 Glu                                                 
    5.784  16%   5.133 Gln                                                 
    0.000 999%   0.000 Ala                                                 
   11.399  11%  10.116 Asc                                                 
    1.074 108%   0.953 Asp                                                 
    1.667  35%   1.480 GABA                                                
    1.107  74%   0.982 Glc                                                 
    3.372  16%   2.993 GSH                                                 
    0.618 119%   0.549 Lac                                                 
    1.801  34%   1.599 NAAG                                                
    0.000 999%   0.000 PE                                                  
    2.609   9%   2.316 GPC+PCho                                            
   14.720   6%  13.064 NAA+NAAG                                            
   18.590   8%  16.498 Glu+Gln                                             
    9.014   8%   8.000 Cr+PCr                                              
   14.720   6%  13.064 NAA+NAAG                                            
    9.014   8%   8.000 Cr+PCr                                              
   18.590   8%  16.498 Glu+Gln                                             
   6 lines in following misc. output table
  FWHM = 0.024 ppm    S/N =   4                                            
  Data shift = 0.024 ppm                                                   
  Ph:-161 deg       0.0 deg/ppm                                            
  alphaB,S = 8.4E-02,   8.5E+00                                            
   19 spline knots.   Ns = 5(1)                                            
  ( 3) 2 infls.   ( 3) 1 extrs.                                            
  480 points on ppm-axis = NY
      4.100000     4.091866     4.083733     4.075600     4.067466     4.059333     4.051199     4.043066     4.034933     4.026799
      4.018666     4.010532     4.002399     3.994265     3.986132     3.977998     3.969864     3.961731     3.953597     3.945463
      3.937330     3.929196     3.921062     3.912929     3.904795     3.896662     3.888528     3.880394     3.872261     3.864127
      3.855993     3.847860     3.839726     3.831592     3.823459     3.815325     3.807191     3.799058     3.790924     3.782790
      3.774657     3.766523     3.758389     3.750256     3.742122     3.733989     3.725855     3.717721     3.709588     3.701454
      3.693320     3.685187     3.677053     3.668919     3.660786     3.652652     3.644518     3.636385     3.628251     3.620117
      3.611984     3.603850     3.595716     3.587583     3.579449     3.571316     3.563182     3.555048     3.546915     3.538781
      3.530647     3.522514     3.514380     3.506246     3.498113     3.489979     3.481845     3.473712     3.465578     3.457444
      3.449311     3.441177     3.433043     3.424910     3.416776     3.408643     3.400509     3.392375     3.384242     3.376108
      3.367974     3.359841     3.351707     3.343573     3.335440     3.327306     3.319172     3.311039     3.302905     3.294771
      3.286638     3.278504     3.270370     3.262237     3.254103     3.245970     3.237836     3.229702     3.221569     3.213435
      3.205301     3.197168     3.189034     3.180900     3.172767     3.164633     3.156499     3.148366     3.140232     3.132098
      3.123965     3.115831     3.107697     3.099564     3.091430     3.083297     3.075163     3.067029     3.058896     3.050762
      3.042628     3.034495     3.026361     3.018227     3.010094     3.001960     2.993826     2.985693     2.977559     2.969425
      2.961292     2.953158     2.945024     2.936891     2.928757     2.920624     2.912490     2.904356     2.896223     2.888089
      2.879955     2.871822     2.863688     2.855554     2.847421     2.839287     2.831153     2.823020     2.814886     2.806752
      2.798619     2.790485     2.782351     2.774218     2.766084     2.757951     2.749817     2.741683     2.733550     2.725416
      2.717282     2.709149     2.701015     2.692881     2.684748     2.676614     2.668480     2.660347     2.652213     2.644079
      2.635946     2.627812     2.619678     2.611545     2.603411     2.595278     2.587144     2.579010     2.570877     2.562743
      2.554609     2.546476     2.538342     2.530208     2.522075     2.513941     2.505807     2.497674     2.489540     2.481406
      2.473273     2.465139     2.457006     2.448872     2.440738     2.432605     2.424471     2.416337     2.408204     2.400070
      2.391936     2.383803     2.375669     2.367535     2.359402     2.351268     2.343134     2.335001     2.326867     2.318733
      2.310600     2.302466     2.294333     2.286199     2.278065     2.269932     2.261798     2.253664     2.245531     2.237397
      2.229263     2.221130     2.212996     2.204862     2.196729     2.188595     2.180461     2.172328     2.164194     2.156060
      2.147927     2.139793     2.131660     2.123526     2.115392     2.107259     2.099125     2.090991     2.082858     2.074724
      2.066590     2.058457     2.050323     2.042189     2.034056     2.025922     2.017788     2.009655     2.001521     1.993387
      1.985254     1.977120     1.968987     1.960853     1.952719     1.944586     1.936452     1.928318     1.920185     1.912051
      1.903917     1.895784     1.887650     1.879516     1.871383     1.863249     1.855115     1.846982     1.838848     1.830714
      1.822581     1.814447     1.806314     1.798180     1.790046     1.781913     1.773779     1.765645     1.757512     1.749378
      1.741244     1.733111     1.724977     1.716843     1.708710     1.700576     1.692442     1.684309     1.676175     1.668041
      1.659908     1.651774     1.643641     1.635507     1.627373     1.619240     1.611106     1.602972     1.594839     1.586705
      1.578571     1.570438     1.562304     1.554170     1.546037     1.537903     1.529769     1.521636     1.513502     1.505368
      1.497235     1.489101     1.480968     1.472834     1.464700     1.456567     1.448433     1.440299     1.432166     1.424032
      1.415898     1.407765     1.399631     1.391497     1.383364     1.375230     1.367096     1.358963     1.350829     1.342695
      1.334562     1.326428     1.318295     1.310161     1.302027     1.293894     1.285760     1.277626     1.269493     1.261359
      1.253225     1.245092     1.236958     1.228824     1.220691     1.212557     1.204423     1.196290     1.188156     1.180022
      1.171889     1.163755     1.155622     1.147488     1.139354     1.131221     1.123087     1.114953     1.106820     1.098686
      1.090552     1.082419     1.074285     1.066151     1.058018     1.049884     1.041750     1.033617     1.025483     1.017349
      1.009216     1.001082     0.992949     0.984815     0.976681     0.968548     0.960414     0.952280     0.944147     0.936013
      0.927879     0.919746     0.911612     0.903478     0.895345     0.887211     0.879077     0.870944     0.862810     0.854676
      0.846543     0.838409     0.830276     0.822142     0.814008     0.805875     0.797741     0.789607     0.781474     0.773340
      0.765206     0.757073     0.748939     0.740805     0.732672     0.724538     0.716404     0.708271     0.700137     0.692003
      0.683870     0.675736     0.667603     0.659469     0.651335     0.643202     0.635068     0.626934     0.618801     0.610667
      0.602533     0.594400     0.586266     0.578132     0.569999     0.561865     0.553731     0.545598     0.537464     0.529330
      0.521197     0.513063     0.504930     0.496796     0.488662     0.480529     0.472395     0.464261     0.456128     0.447994
      0.439861     0.431727     0.423593     0.415460     0.407326     0.399192     0.391059     0.382925     0.374792     0.366658
      0.358524     0.350391     0.342257     0.334124     0.325990     0.317856     0.309723     0.301589     0.293455     0.285322
      0.277188     0.269055     0.260921     0.252787     0.244654     0.236520     0.228386     0.220253     0.212119     0.203986
 NY phased data points follow
   1.18096E+02  1.07602E+02  1.14646E+02  1.03619E+02  1.08221E+02  1.07235E+02  1.11693E+02  1.00431E+02  1.08156E+02  1.03900E+02
   8.60393E+01  9.42752E+01  5.84803E+01  6.10085E+01  7.55289E+01  5.81885E+01  5.99095E+01  4.72532E+01  3.26621E+01 -6.66204E+00
  -2.66369E+01  4.57851E+00 -4.73145E+00  2.23072E+01  7.15838E+01  6.39423E+01  5.98760E+01  5.63133E+01  5.27195E+01  3.86275E+01
   3.16672E+01  2.24530E+01  6.16887E+00  1.06446E+01  3.28317E+00 -2.23246E+01 -4.16887E+01 -3.76818E+01 -7.18955E+01 -1.06714E+02
  -1.22786E+02 -1.40854E+02 -1.26036E+02 -1.24027E+02 -1.06231E+02 -8.15969E+01 -5.75935E+01 -2.30385E+01 -2.96466E+01 -2.43852E+01
  -1.32153E+01 -2.38430E+01 -1.63719E+01 -3.57714E+01 -6.64721E+01 -6.44812E+01 -5.10307E+01 -6.22318E+01 -9.22422E+01 -7.56417E+01
  -5.77274E+01 -6.87993E+01 -5.81310E+01 -1.57299E+01 -9.11497E+00 -1.12710E+01  8.18795E+00 -2.19805E+01 -5.98379E+01 -9.34275E+01
  -7.02889E+01 -5.58024E+01 -7.96442E+01 -3.97522E+01 -2.70262E+01 -1.25756E+01  1.55889E+01  1.07185E+01  6.19403E+00  1.57320E+01
   1.85304E+01  2.80389E+00 -1.30595E+01 -3.26459E+01 -4.44477E+01 -5.02826E+01 -3.77715E+01 -1.78679E+01 -5.34562E+00  8.93074E+00
   2.52933E+01  1.89818E+01  2.56755E+01  4.35016E+01  3.54771E+01  5.11102E+01  4.83940E+01  4.89262E+01  3.53617E+01  2.96893E+01
   5.19218E+01  1.78865E+01  1.34137E+01  9.84110E+00 -8.53085E+00 -1.62058E+01 -3.65402E+01 -4.30412E+01 -6.65476E+01 -1.15113E+02
  -1.66373E+02 -1.72017E+02 -1.35186E+02 -1.13898E+02 -9.89903E+01 -7.34848E+01 -5.36213E+01 -3.38721E+01 -2.88353E+01 -3.35449E+01
  -3.40234E+01 -2.21593E+01  3.64221E-01 -4.78394E+00 -2.61091E+00  1.25574E+01  2.28298E+01  3.84090E+01  6.39535E+01  1.04424E+02
   1.64191E+02  1.36991E+02 -2.05247E+01 -9.22881E+01 -9.12718E+01 -1.12491E+02 -1.08136E+02 -9.54945E+01 -9.17057E+01 -9.08346E+01
  -7.94012E+01 -9.14036E+01 -8.82536E+01 -7.56897E+01 -9.13634E+01 -7.82650E+01 -6.66350E+01 -7.14420E+01 -7.07235E+01 -6.91231E+01
  -7.06161E+01 -6.68849E+01 -4.73253E+01 -4.46762E+01 -5.30351E+01 -3.86300E+01 -3.96752E+01 -5.42233E+01 -4.42041E+01 -3.92877E+01
  -3.90946E+01 -3.10235E+01 -3.41235E+01 -3.91883E+01 -3.51273E+01 -2.99892E+01 -2.44900E+01 -2.63663E+01 -1.94858E+01 -1.97826E+01
  -2.60662E+01  1.55348E+01  2.74304E+01  1.57233E+01  4.30424E+00 -8.58566E+00  2.79490E+01  2.25116E+01 -3.21018E-01 -1.68483E+01
  -2.79537E+01 -3.57928E+01 -7.02370E+01 -5.08789E+01 -4.35044E+01 -4.38353E+01 -4.66601E+01 -5.49616E+01 -2.72951E+01 -4.37648E+01
  -3.86171E+01 -1.89422E+01 -2.79586E+01 -9.83477E+00 -1.92123E+00 -1.58547E+01 -1.22398E+01 -6.12217E+00  9.65724E-01 -3.17504E-01
  -8.49832E+00  6.50335E+00  1.17020E+00  6.53745E+00  8.66855E+00  4.31228E+00 -4.76971E+00 -3.16263E+01 -2.17987E+01 -3.18129E+01
  -5.02021E+01 -5.91185E+01 -2.81238E+01 -1.65291E+01 -1.28101E+01  5.15564E+01  4.95339E+01  6.01270E+01  6.45972E+01  3.05658E+01
   2.06045E+01 -5.72303E+00 -1.22099E+01 -1.71922E+00  3.06291E+00 -6.12333E+00 -6.30964E+00  8.97917E+00  9.83827E+00 -1.09627E+00
   6.84350E-02 -8.20677E+00 -2.30440E+01 -2.27017E+01 -3.51026E+01 -4.61351E+01 -5.84387E+01 -6.55687E+01 -6.86210E+01 -7.14711E+01
  -6.34348E+01 -6.42806E+01 -5.60192E+01 -3.26518E+01 -3.75007E+01 -3.01171E+01 -5.99941E+00 -5.77920E+00 -1.72341E+01 -3.50272E+01
  -2.53222E+01 -3.92879E+01 -3.41843E+01 -3.66704E+01 -5.84592E+01 -1.11165E+02 -1.70237E+02  3.58378E+01  1.70888E+02  1.59625E+02
   1.94576E+02  1.57148E+02  1.63621E+02  1.34443E+02  1.06924E+02  1.05468E+02  9.83265E+01  1.07237E+02  8.35268E+01  9.28584E+01
   9.34445E+01  8.57002E+01  8.55006E+01  7.65494E+01  6.67482E+01  8.10823E+01  8.34971E+01  7.01793E+01  7.36878E+01  7.80163E+01
   8.96889E+01  6.79256E+01  7.45195E+01  7.26473E+01  5.98060E+01  8.00470E+01  6.02543E+01  6.98223E+01  7.38544E+01  5.30190E+01
   6.27203E+01  6.27537E+01  5.45213E+01  4.20494E+01  4.46651E+01  4.25129E+01  3.28627E+01  3.75856E+01  3.45059E+01  5.38206E+01
   4.53139E+01  4.03252E+01  6.31224E+01  5.83932E+01  6.49771E+01  5.56285E+01  6.38739E+01  7.31598E+01  7.15909E+01  7.22465E+01
   7.87718E+01  8.23755E+01  5.98443E+01  9.25755E+01  7.42637E+01  5.16236E+01  6.61465E+01  5.76006E+01  6.35923E+01  4.03273E+01
   5.47565E+01  5.99001E+01  4.21916E+01  4.40644E+01  4.32658E+01  4.10082E+01  4.58630E+01  5.97505E+01  4.25251E+01  4.80765E+01
   5.32374E+01  4.09114E+01  2.19083E+01 -2.82383E+00 -2.96898E+00  3.98282E+00 -1.49935E+00 -7.21245E+00  1.95590E+01  1.75529E+01
   1.17381E+01  2.63184E+01  2.58537E+01  2.84972E+01  2.52680E+01  2.87184E+01  3.65435E+01  5.25859E+01  5.31260E+01  4.22073E+01
   4.74295E+01  3.89763E+01  3.37146E+01  3.76540E+01  2.66018E+01  1.91432E+01  9.21034E+00 -4.26899E+00  8.74479E+00  5.04577E+00
  -1.14663E+01 -7.36190E-01  6.93908E-01  5.53539E+00  2.18783E+01  1.96535E+01  2.37668E+01  2.81085E+01  2.51100E+01  4.03655E+01
   5.12833E+01  5.20892E+01  5.97144E+01  6.14919E+01  6.32578E+01  6.82606E+01  6.72775E+01  8.10500E+01  7.38814E+01  7.72721E+01
   1.03456E+02  9.81131E+01  1.07787E+02  1.03104E+02  1.14683E+02  1.37940E+02  1.40425E+02  1.61746E+02  1.56326E+02  1.53272E+02
   1.55495E+02  1.40290E+02  1.05080E+02  8.97839E+01  9.77425E+01  7.53810E+01  6.60536E+01  7.25258E+01  5.96617E+01  3.88828E+01
   3.67888E+01  2.37173E+01  1.31826E+01  1.88126E+00 -1.63601E+01 -1.02998E+01 -8.91745E+00 -8.13167E+00 -1.76152E+01 -2.15035E+01
  -9.83421E+00 -2.57927E+00 -1.66842E+01 -1.19724E+01 -1.74614E-01 -1.02683E+01 -4.23379E+00 -1.19683E+01  4.44921E+00  2.63594E-01
  -1.06320E+01 -4.88109E+00 -1.83991E+01 -3.91041E+00 -4.58226E+00  1.18759E+00  3.17486E+00  7.39307E+00  7.38030E+00 -1.01889E+01
  -8.43836E+00  3.88815E-02  1.09837E+01  7.69174E-01  6.21882E+00 -1.97216E+00 -2.03186E+00  5.37679E+00 -9.65238E+00 -7.88873E-01
  -3.17253E+00  2.28739E+00 -4.06210E+00 -1.93262E+01 -1.67286E+01 -6.64756E+00 -3.45089E+00 -4.63125E-01  8.94412E+00 -2.78418E+00
   8.53070E+00  5.85483E+00 -1.22642E+01 -3.19717E+00 -9.26434E-01 -9.34332E+00 -6.18813E+00  1.67688E+00 -3.31206E+00  8.28351E+00
   9.59851E+00  8.09372E+00  1.06142E+01 -8.25382E+00  5.86531E-03  1.40455E+01  3.26028E+00 -9.29802E+00 -7.52797E+00  1.39718E+01
   1.63234E+01  1.21610E+01  1.29677E+01 -1.47491E+01 -5.52356E+00  2.39113E+01  2.03682E+01  1.90773E+01  1.50788E+01  1.13734E+01
 NY points of the fit to the data follow
   9.39719E+01  8.25936E+01  6.59895E+01  5.28380E+01  5.93975E+01  8.32901E+01  9.70252E+01  9.05488E+01  7.48544E+01  5.86086E+01
   4.66320E+01  4.25147E+01  4.83274E+01  5.62602E+01  5.92395E+01  5.60732E+01  4.75543E+01  3.42534E+01  1.88790E+01 -3.58759E+00
  -2.19669E+01 -2.04221E+01 -2.49440E+00  3.35332E+01  6.54568E+01  7.38617E+01  7.41522E+01  7.14087E+01  6.43352E+01  5.94243E+01
   5.51578E+01  5.00839E+01  4.44856E+01  3.69951E+01  2.66702E+01  1.41479E+01  4.12401E+00 -1.07689E+01 -4.10547E+01 -8.76063E+01
  -1.22440E+02 -1.19104E+02 -1.07441E+02 -1.04067E+02 -9.30634E+01 -6.97234E+01 -4.30664E+01 -2.08208E+01  3.32052E-01  1.47501E+01
   1.47919E+01  9.68116E+00  1.94882E+00 -1.14625E+01 -2.52042E+01 -3.48907E+01 -4.06557E+01 -5.51078E+01 -7.35417E+01 -6.56524E+01
  -5.11402E+01 -5.21492E+01 -3.78546E+01 -1.41936E+01 -4.10568E+00  3.34232E+00  3.39378E+00 -2.16970E+01 -6.36778E+01 -8.60161E+01
  -7.82295E+01 -7.29351E+01 -6.88194E+01 -4.65182E+01 -2.35510E+01 -1.11744E+01 -2.98615E+00  1.45082E+00  2.91121E+00  3.57219E+00
   4.81241E-01 -7.24911E+00 -1.81878E+01 -3.23265E+01 -4.15688E+01 -4.21971E+01 -3.62332E+01 -2.36213E+01 -1.10336E+01 -2.30146E+00
   5.05936E+00  1.09455E+01  1.61548E+01  2.11754E+01  2.57303E+01  3.13298E+01  3.60811E+01  3.66809E+01  3.20428E+01  2.98474E+01
   2.98162E+01  2.21079E+01  1.27104E+01  5.52365E+00 -9.70473E+00 -2.60615E+01 -2.27437E+01 -2.19212E+01 -5.79771E+01 -1.20763E+02
  -1.66560E+02 -1.65868E+02 -1.40521E+02 -1.16151E+02 -9.34617E+01 -7.63555E+01 -6.60860E+01 -5.71528E+01 -4.88011E+01 -4.09530E+01
  -3.30025E+01 -2.46311E+01 -1.55265E+01 -5.50419E+00  6.16170E+00  2.10784E+01  3.92167E+01  4.68012E+01  5.77824E+01  8.95643E+01
   1.31445E+02  1.10158E+02 -3.89257E+00 -8.44378E+01 -9.47105E+01 -1.00357E+02 -9.62542E+01 -8.00712E+01 -7.46576E+01 -7.52072E+01
  -7.49619E+01 -7.61115E+01 -7.86622E+01 -7.94981E+01 -8.10606E+01 -8.11079E+01 -7.79955E+01 -7.45679E+01 -7.13422E+01 -6.81927E+01
  -6.51843E+01 -6.24520E+01 -6.02708E+01 -5.77479E+01 -5.48393E+01 -5.21002E+01 -4.98455E+01 -4.82382E+01 -4.70696E+01 -4.58561E+01
  -4.40825E+01 -4.20208E+01 -4.10996E+01 -4.13130E+01 -4.06991E+01 -3.81771E+01 -3.48594E+01 -3.38167E+01 -3.51606E+01 -3.41184E+01
  -2.36678E+01 -5.15483E+00  5.36503E+00 -1.27762E+00 -1.23457E+01 -8.87500E+00  5.90285E+00  1.14708E+01  7.64277E-01 -1.61474E+01
  -2.86408E+01 -3.63382E+01 -4.14496E+01 -4.31961E+01 -4.35646E+01 -4.34798E+01 -4.26110E+01 -4.16627E+01 -3.95459E+01 -3.56901E+01
  -3.11048E+01 -2.84999E+01 -2.61615E+01 -1.46209E+01 -1.30962E+00 -4.39963E+00 -7.47825E+00  4.10074E-01  3.25653E+00  6.82544E-01
  -3.43060E+00 -1.90705E+00  7.06728E+00  9.24201E+00  5.86372E+00  3.22936E+00 -1.88974E+00 -1.02720E+01 -2.17771E+01 -3.33613E+01
  -3.98216E+01 -4.34088E+01 -3.73442E+01 -2.25520E+01  2.05930E+00  3.76973E+01  5.76966E+01  6.50685E+01  6.70959E+01  5.12911E+01
   3.42983E+01  2.82015E+01  2.47956E+01  2.64818E+01  2.98546E+01  2.90874E+01  2.57150E+01  1.80994E+01  6.67514E+00 -5.57409E+00
  -1.87450E+01 -3.18006E+01 -4.42364E+01 -5.60084E+01 -6.81779E+01 -7.75118E+01 -8.24278E+01 -8.48804E+01 -8.18452E+01 -7.50875E+01
  -6.91494E+01 -6.00001E+01 -4.70394E+01 -3.50889E+01 -2.17800E+01 -1.26007E+01 -1.06664E+01 -1.38576E+01 -2.03662E+01 -2.42409E+01
  -3.40126E+01 -5.27282E+01 -5.23437E+01 -4.53235E+01 -6.71596E+01 -1.33562E+02 -1.36059E+02  1.08369E+01  1.36989E+02  1.62620E+02
   1.71022E+02  1.62322E+02  1.36444E+02  1.23265E+02  1.16241E+02  1.10233E+02  1.04211E+02  9.84339E+01  9.29759E+01  8.82068E+01
   8.58375E+01  8.44251E+01  8.44224E+01  8.61089E+01  8.70944E+01  8.80496E+01  8.86196E+01  8.82146E+01  8.76390E+01  8.61885E+01
   8.39365E+01  8.16285E+01  7.94029E+01  7.72671E+01  7.47963E+01  7.21926E+01  6.97883E+01  6.71405E+01  6.42118E+01  6.08002E+01
   5.69471E+01  5.32290E+01  4.94165E+01  4.55980E+01  4.27318E+01  4.13554E+01  4.16181E+01  4.31818E+01  4.51866E+01  4.72086E+01
   4.94740E+01  5.19971E+01  5.43784E+01  5.66284E+01  5.87710E+01  6.06312E+01  6.23542E+01  6.44676E+01  6.70288E+01  6.93634E+01
   7.11757E+01  7.26723E+01  7.40562E+01  7.53676E+01  7.62984E+01  7.67218E+01  7.68489E+01  7.62371E+01  7.44798E+01  7.22913E+01
   7.01762E+01  6.73503E+01  6.36735E+01  5.97934E+01  5.57194E+01  5.09763E+01  4.44588E+01  3.60074E+01  2.70358E+01  1.86792E+01
   1.12694E+01  5.43799E+00  1.78481E+00  6.74917E-01  2.30419E+00  6.06784E+00  1.06905E+01  1.48672E+01  1.84598E+01  2.12442E+01
   2.31436E+01  2.38994E+01  2.40885E+01  2.48023E+01  2.57776E+01  2.78189E+01  3.04821E+01  3.20994E+01  3.30396E+01  3.32357E+01
   3.20115E+01  2.98922E+01  2.66972E+01  2.23009E+01  1.79782E+01  1.48428E+01  1.30520E+01  1.26735E+01  1.37000E+01  1.56746E+01
   1.83483E+01  2.16023E+01  2.52116E+01  2.88949E+01  3.22349E+01  3.53640E+01  3.83231E+01  4.11340E+01  4.41565E+01  4.72125E+01
   5.01422E+01  5.30931E+01  5.62969E+01  5.97915E+01  6.37013E+01  6.81426E+01  7.28327E+01  7.81249E+01  8.44150E+01  9.09820E+01
   9.74000E+01  1.04351E+02  1.11994E+02  1.19319E+02  1.25640E+02  1.30307E+02  1.32155E+02  1.29900E+02  1.22946E+02  1.12868E+02
   1.02042E+02  9.21672E+01  8.36046E+01  7.65230E+01  7.07952E+01  6.48528E+01  5.74620E+01  4.91383E+01  4.05124E+01  3.17274E+01
   2.37987E+01  1.79027E+01  1.34122E+01  9.64761E+00  7.00102E+00  5.31275E+00  4.11194E+00  3.00826E+00  1.91472E+00  8.25478E-01
  -4.42482E-02 -4.49382E-01 -6.36051E-01 -1.02882E+00 -1.37288E+00 -1.20811E+00 -1.06943E+00 -1.49451E+00 -2.02069E+00 -1.84539E+00
  -1.42915E+00 -1.61768E+00 -1.86166E+00 -1.74012E+00 -1.63627E+00 -1.76111E+00 -1.95221E+00 -1.95856E+00 -1.60484E+00 -1.18816E+00
  -1.05473E+00 -1.16358E+00 -1.34667E+00 -1.55944E+00 -1.62829E+00 -1.31773E+00 -1.02332E+00 -8.15676E-01 -5.32599E-01 -3.83445E-01
  -3.00059E-01 -4.15003E-02  1.78279E-01  1.10409E-01 -9.15023E-02 -2.31863E-01 -5.97510E-02  2.93436E-01  5.06308E-01  8.29710E-01
   1.00231E+00  8.12958E-01  8.94421E-01  1.35016E+00  1.68064E+00  1.99440E+00  2.30851E+00  2.45424E+00  2.66659E+00  3.01103E+00
   3.26580E+00  3.23929E+00  3.22596E+00  3.30068E+00  3.32699E+00  3.46005E+00  3.87589E+00  4.63196E+00  5.39749E+00  5.70378E+00
   5.54946E+00  5.23279E+00  5.14391E+00  5.36886E+00  5.66231E+00  5.89283E+00  6.20960E+00  6.50837E+00  6.43620E+00  6.44383E+00
 NY background values follow
     1.353E+02    1.316E+02    1.280E+02    1.243E+02    1.206E+02    1.169E+02    1.132E+02    1.095E+02    1.058E+02    1.021E+02
     9.843E+01    9.477E+01    9.112E+01    8.749E+01    8.389E+01    8.030E+01    7.674E+01    7.321E+01    6.970E+01    6.623E+01
     6.279E+01    5.939E+01    5.603E+01    5.272E+01    4.944E+01    4.622E+01    4.304E+01    3.991E+01    3.684E+01    3.383E+01
     3.087E+01    2.798E+01    2.514E+01    2.237E+01    1.966E+01    1.702E+01    1.443E+01    1.191E+01    9.457E+00    7.064E+00
     4.734E+00    2.469E+00    2.673E-01   -1.869E+00   -3.941E+00   -5.948E+00   -7.890E+00   -9.766E+00   -1.158E+01   -1.332E+01
    -1.500E+01   -1.661E+01   -1.815E+01   -1.963E+01   -2.104E+01   -2.238E+01   -2.365E+01   -2.486E+01   -2.600E+01   -2.706E+01
    -2.806E+01   -2.899E+01   -2.986E+01   -3.066E+01   -3.139E+01   -3.206E+01   -3.268E+01   -3.323E+01   -3.373E+01   -3.417E+01
    -3.456E+01   -3.490E+01   -3.519E+01   -3.543E+01   -3.562E+01   -3.578E+01   -3.588E+01   -3.595E+01   -3.598E+01   -3.597E+01
    -3.593E+01   -3.586E+01   -3.575E+01   -3.561E+01   -3.544E+01   -3.525E+01   -3.503E+01   -3.479E+01   -3.453E+01   -3.425E+01
    -3.396E+01   -3.364E+01   -3.331E+01   -3.297E+01   -3.261E+01   -3.224E+01   -3.185E+01   -3.145E+01   -3.103E+01   -3.061E+01
    -3.017E+01   -2.972E+01   -2.926E+01   -2.879E+01   -2.830E+01   -2.781E+01   -2.731E+01   -2.680E+01   -2.628E+01   -2.575E+01
    -2.521E+01   -2.467E+01   -2.412E+01   -2.356E+01   -2.300E+01   -2.243E+01   -2.186E+01   -2.128E+01   -2.070E+01   -2.011E+01
    -1.952E+01   -1.893E+01   -1.833E+01   -1.774E+01   -1.714E+01   -1.653E+01   -1.593E+01   -1.533E+01   -1.473E+01   -1.412E+01
    -1.352E+01   -1.292E+01   -1.232E+01   -1.172E+01   -1.113E+01   -1.054E+01   -9.945E+00   -9.359E+00   -8.777E+00   -8.199E+00
    -7.626E+00   -7.058E+00   -6.495E+00   -5.939E+00   -5.389E+00   -4.846E+00   -4.310E+00   -3.781E+00   -3.261E+00   -2.749E+00
    -2.246E+00   -1.752E+00   -1.267E+00   -7.913E-01   -3.252E-01    1.314E-01    5.784E-01    1.016E+00    1.444E+00    1.861E+00
     2.269E+00    2.667E+00    3.055E+00    3.433E+00    3.801E+00    4.158E+00    4.505E+00    4.842E+00    5.168E+00    5.483E+00
     5.788E+00    6.082E+00    6.365E+00    6.638E+00    6.899E+00    7.149E+00    7.388E+00    7.616E+00    7.832E+00    8.037E+00
     8.230E+00    8.412E+00    8.584E+00    8.745E+00    8.897E+00    9.040E+00    9.175E+00    9.302E+00    9.422E+00    9.535E+00
     9.643E+00    9.745E+00    9.843E+00    9.936E+00    1.003E+01    1.011E+01    1.020E+01    1.028E+01    1.036E+01    1.045E+01
     1.053E+01    1.061E+01    1.070E+01    1.078E+01    1.087E+01    1.096E+01    1.106E+01    1.116E+01    1.126E+01    1.137E+01
     1.149E+01    1.161E+01    1.174E+01    1.188E+01    1.202E+01    1.216E+01    1.231E+01    1.246E+01    1.261E+01    1.276E+01
     1.292E+01    1.307E+01    1.323E+01    1.339E+01    1.354E+01    1.370E+01    1.385E+01    1.400E+01    1.415E+01    1.429E+01
     1.443E+01    1.456E+01    1.469E+01    1.482E+01    1.494E+01    1.505E+01    1.515E+01    1.525E+01    1.533E+01    1.541E+01
     1.548E+01    1.554E+01    1.559E+01    1.563E+01    1.566E+01    1.568E+01    1.570E+01    1.570E+01    1.570E+01    1.569E+01
     1.567E+01    1.564E+01    1.561E+01    1.557E+01    1.552E+01    1.547E+01    1.541E+01    1.534E+01    1.527E+01    1.519E+01
     1.510E+01    1.501E+01    1.492E+01    1.482E+01    1.471E+01    1.460E+01    1.449E+01    1.437E+01    1.425E+01    1.412E+01
     1.399E+01    1.386E+01    1.372E+01    1.359E+01    1.344E+01    1.330E+01    1.316E+01    1.301E+01    1.287E+01    1.272E+01
     1.257E+01    1.243E+01    1.228E+01    1.213E+01    1.199E+01    1.185E+01    1.170E+01    1.156E+01    1.143E+01    1.129E+01
     1.116E+01    1.104E+01    1.091E+01    1.079E+01    1.068E+01    1.057E+01    1.046E+01    1.036E+01    1.027E+01    1.018E+01
     1.010E+01    1.002E+01    9.955E+00    9.892E+00    9.835E+00    9.784E+00    9.739E+00    9.699E+00    9.663E+00    9.633E+00
     9.607E+00    9.586E+00    9.569E+00    9.556E+00    9.547E+00    9.542E+00    9.540E+00    9.542E+00    9.546E+00    9.553E+00
     9.563E+00    9.576E+00    9.591E+00    9.607E+00    9.626E+00    9.646E+00    9.668E+00    9.691E+00    9.716E+00    9.741E+00
     9.766E+00    9.792E+00    9.820E+00    9.848E+00    9.877E+00    9.907E+00    9.938E+00    9.971E+00    1.000E+01    1.004E+01
     1.008E+01    1.012E+01    1.016E+01    1.020E+01    1.024E+01    1.029E+01    1.034E+01    1.039E+01    1.045E+01    1.050E+01
     1.056E+01    1.062E+01    1.069E+01    1.076E+01    1.083E+01    1.090E+01    1.098E+01    1.106E+01    1.114E+01    1.123E+01
     1.132E+01    1.142E+01    1.152E+01    1.162E+01    1.172E+01    1.182E+01    1.193E+01    1.203E+01    1.214E+01    1.224E+01
     1.234E+01    1.244E+01    1.254E+01    1.264E+01    1.273E+01    1.282E+01    1.291E+01    1.299E+01    1.306E+01    1.313E+01
     1.320E+01    1.326E+01    1.331E+01    1.335E+01    1.338E+01    1.341E+01    1.343E+01    1.343E+01    1.343E+01    1.342E+01
     1.339E+01    1.336E+01    1.331E+01    1.325E+01    1.319E+01    1.311E+01    1.303E+01    1.294E+01    1.284E+01    1.274E+01
     1.263E+01    1.251E+01    1.239E+01    1.227E+01    1.214E+01    1.200E+01    1.187E+01    1.173E+01    1.159E+01    1.144E+01
     1.130E+01    1.115E+01    1.101E+01    1.087E+01    1.072E+01    1.058E+01    1.044E+01    1.030E+01    1.017E+01    1.004E+01
     9.909E+00    9.786E+00    9.667E+00    9.553E+00    9.443E+00    9.337E+00    9.235E+00    9.138E+00    9.046E+00    8.958E+00
     8.875E+00    8.796E+00    8.723E+00    8.654E+00    8.590E+00    8.530E+00    8.476E+00    8.427E+00    8.383E+00    8.344E+00
     8.310E+00    8.282E+00    8.259E+00    8.241E+00    8.228E+00    8.222E+00    8.220E+00    8.224E+00    8.234E+00    8.250E+00
     8.271E+00    8.298E+00    8.330E+00    8.368E+00    8.410E+00    8.458E+00    8.509E+00    8.566E+00    8.626E+00    8.691E+00
     8.759E+00    8.831E+00    8.906E+00    8.984E+00    9.066E+00    9.150E+00    9.237E+00    9.326E+00    9.418E+00    9.511E+00
     9.607E+00    9.704E+00    9.802E+00    9.902E+00    1.000E+01    1.010E+01    1.021E+01    1.031E+01    1.041E+01    1.051E+01
 Mac      Conc. = 2.70E-04
   1.16141E+02  1.12058E+02  1.08017E+02  1.04038E+02  9.99147E+01  9.52230E+01  8.99303E+01  8.43737E+01  7.89725E+01  7.40683E+01
   6.97389E+01  6.57863E+01  6.21156E+01  5.85295E+01  5.38929E+01  4.81096E+01  4.32401E+01  4.16176E+01  4.25624E+01  4.29889E+01
   4.30002E+01  4.35952E+01  4.30903E+01  4.10363E+01  3.86719E+01  3.64634E+01  3.44774E+01  3.30190E+01  3.20315E+01  3.07421E+01
   2.89318E+01  2.71285E+01  2.52710E+01  2.28478E+01  1.97345E+01  1.65218E+01  1.44019E+01  1.39429E+01  1.41568E+01  1.34150E+01
   1.11839E+01  8.58553E+00  6.59780E+00  5.37511E+00  4.69235E+00  3.68347E+00  1.95670E+00 -3.17910E-01 -3.06354E+00 -6.11802E+00
  -9.17576E+00 -1.18884E+01 -1.42059E+01 -1.61408E+01 -1.78627E+01 -1.94121E+01 -2.02172E+01 -2.01748E+01 -2.00885E+01 -2.02167E+01
  -1.98150E+01 -1.92775E+01 -1.97686E+01 -2.09843E+01 -2.25947E+01 -2.42874E+01 -2.53200E+01 -2.61022E+01 -2.72021E+01 -2.79176E+01
  -2.70168E+01 -2.46799E+01 -2.26004E+01 -2.12669E+01 -2.04543E+01 -2.04390E+01 -2.09814E+01 -2.19155E+01 -2.28167E+01 -2.32430E+01
  -2.36004E+01 -2.39711E+01 -2.39398E+01 -2.32665E+01 -2.23348E+01 -2.14754E+01 -2.04022E+01 -1.92708E+01 -1.84502E+01 -1.77229E+01
  -1.70154E+01 -1.64682E+01 -1.60445E+01 -1.57720E+01 -1.60913E+01 -1.73374E+01 -1.91187E+01 -2.12027E+01 -2.33658E+01 -2.49897E+01
  -2.61556E+01 -2.78332E+01 -3.00859E+01 -3.25755E+01 -3.59258E+01 -4.09158E+01 -4.71247E+01 -5.26006E+01 -5.54925E+01 -5.57701E+01
