 
 $NMID
 ID=''
 FMTDAT='(2E13.5)'
 TRAMP=   1.00000E+0
 VOLUME=   1.00000E+0
 $END
  -4.98005E+5   4.90945E+5
  -1.63230E+6   7.41178E+5
  -1.47761E+6   8.58734E+5
  -1.48738E+6   6.76183E+5
  -1.62610E+6   6.85636E+5
  -1.54631E+6   7.29430E+5
  -1.48245E+6   6.23323E+5
  -1.54878E+6   5.73937E+5
  -1.54818E+6   5.84955E+5
  -1.53885E+6   5.59813E+5
  -1.53504E+6   5.56222E+5
  -1.49055E+6   5.23388E+5
  -1.49758E+6   4.61883E+5
  -1.52551E+6   4.70789E+5
  -1.49065E+6   4.80946E+5
  -1.46550E+6   4.44504E+5
  -1.47402E+6   4.20781E+5
  -1.46420E+6   3.92823E+5
  -1.46577E+6   3.57047E+5
  -1.46609E+6   3.47061E+5
  -1.44079E+6   3.20593E+5
  -1.43449E+6   2.82247E+5
  -1.43675E+6   2.67523E+5
  -1.42299E+6   2.47046E+5
  -1.41339E+6   2.17688E+5
  -1.40294E+6   2.13648E+5
  -1.38764E+6   1.99914E+5
  -1.38217E+6   1.78760E+5
  -1.37214E+6   1.69030E+5
  -1.35556E+6   1.58948E+5
  -1.35010E+6   1.37362E+5
  -1.33938E+6   1.20733E+5
  -1.32351E+6   9.93285E+4
  -1.31556E+6   7.97335E+4
  -1.30496E+6   6.52658E+4
  -1.29083E+6   4.57069E+4
  -1.28267E+6   2.39655E+4
  -1.27128E+6   6.45891E+3
  -1.25608E+6  -9.89342E+3
  -1.24677E+6  -2.36742E+4
  -1.23364E+6  -3.42449E+4
  -1.21868E+6  -4.67241E+4
  -1.20711E+6  -5.69004E+4
  -1.19657E+6  -6.53823E+4
  -1.18304E+6  -7.56663E+4
  -1.17263E+6  -8.56967E+4
  -1.16057E+6  -9.84626E+4
  -1.14626E+6  -1.15506E+5
  -1.13126E+6  -1.29373E+5
  -1.11784E+6  -1.40808E+5
  -1.10499E+6  -1.55145E+5
  -1.09173E+6  -1.70358E+5
  -1.07798E+6  -1.83492E+5
  -1.06596E+6  -1.96413E+5
  -1.05313E+6  -2.08598E+5
  -1.03864E+6  -2.20044E+5
  -1.02459E+6  -2.30771E+5
  -1.01170E+6  -2.40056E+5
  -9.98548E+5  -2.48390E+5
  -9.85816E+5  -2.57678E+5
  -9.72679E+5  -2.66805E+5
  -9.59903E+5  -2.75936E+5
  -9.47205E+5  -2.86687E+5
  -9.32617E+5  -2.97082E+5
  -9.17400E+5  -3.06323E+5
  -9.02695E+5  -3.14576E+5
  -8.88333E+5  -3.24116E+5
  -8.74082E+5  -3.32565E+5
  -8.61324E+5  -3.40324E+5
  -8.48783E+5  -3.48567E+5
  -8.34389E+5  -3.56549E+5
  -8.19931E+5  -3.62773E+5
  -8.08118E+5  -3.68437E+5
  -7.96613E+5  -3.75689E+5
  -7.81924E+5  -3.82227E+5
  -7.67481E+5  -3.88028E+5
  -7.55116E+5  -3.93488E+5
  -7.42302E+5  -4.00130E+5
  -7.27678E+5  -4.07149E+5
  -7.12830E+5  -4.13126E+5
  -6.99000E+5  -4.18516E+5
  -6.85646E+5  -4.24318E+5
  -6.72277E+5  -4.29022E+5
  -6.58522E+5  -4.34003E+5
  -6.45272E+5  -4.38700E+5
  -6.32552E+5  -4.42198E+5
  -6.20195E+5  -4.45406E+5
  -6.07888E+5  -4.48622E+5
  -5.96119E+5  -4.50790E+5
  -5.84264E+5  -4.52817E+5
  -5.72798E+5  -4.54756E+5
  -5.61122E+5  -4.57231E+5
  -5.48977E+5  -4.59782E+5
  -5.35950E+5  -4.62098E+5
  -5.23672E+5  -4.63712E+5
  -5.12282E+5  -4.65033E+5
  -5.00833E+5  -4.67411E+5
  -4.88760E+5  -4.69445E+5
  -4.76583E+5  -4.70672E+5
  -4.65625E+5  -4.71059E+5
  -4.55643E+5  -4.72208E+5
  -4.44842E+5  -4.73621E+5
  -4.33253E+5  -4.73227E+5
  -4.22706E+5  -4.72181E+5
  -4.13562E+5  -4.71398E+5
  -4.04345E+5  -4.71284E+5
  -3.94627E+5  -4.71283E+5
  -3.84202E+5  -4.70573E+5
  -3.74578E+5  -4.69324E+5
  -3.65492E+5  -4.67498E+5
  -3.56566E+5  -4.66390E+5
  -3.47205E+5  -4.66367E+5
  -3.37435E+5  -4.66112E+5
  -3.27820E+5  -4.64828E+5
  -3.18422E+5  -4.63557E+5
  -3.09353E+5  -4.62456E+5
  -3.00038E+5  -4.61156E+5
  -2.90745E+5  -4.58985E+5
  -2.82334E+5  -4.56189E+5
  -2.74569E+5  -4.54335E+5
  -2.66872E+5  -4.52258E+5
  -2.58908E+5  -4.50308E+5
  -2.50638E+5  -4.48303E+5
  -2.42318E+5  -4.46197E+5
  -2.34420E+5  -4.44049E+5
  -2.26342E+5  -4.41404E+5
  -2.18904E+5  -4.38350E+5
  -2.11129E+5  -4.35760E+5
  -2.03518E+5  -4.33372E+5
  -1.95859E+5  -4.31175E+5
  -1.87734E+5  -4.28988E+5
  -1.79593E+5  -4.25961E+5
  -1.72106E+5  -4.22746E+5
  -1.64813E+5  -4.20067E+5
  -1.57402E+5  -4.17281E+5
  -1.49929E+5  -4.14086E+5
  -1.43137E+5  -4.11243E+5
  -1.36270E+5  -4.08443E+5
  -1.29374E+5  -4.05764E+5
  -1.22026E+5  -4.02827E+5
  -1.14846E+5  -3.99491E+5
  -1.08525E+5  -3.95722E+5
  -1.02365E+5  -3.92416E+5
  -9.59220E+4  -3.89851E+5
  -8.95683E+4  -3.86889E+5
  -8.31894E+4  -3.83352E+5
  -7.72847E+4  -3.79668E+5
  -7.15093E+4  -3.76515E+5
  -6.59457E+4  -3.72725E+5
  -6.05161E+4  -3.69207E+5
  -5.52905E+4  -3.65963E+5
  -5.03868E+4  -3.62512E+5
  -4.54327E+4  -3.59511E+5
  -4.05593E+4  -3.56422E+5
  -3.54945E+4  -3.52680E+5
  -3.07322E+4  -3.49157E+5
  -2.62905E+4  -3.45765E+5
  -2.15441E+4  -3.42806E+5
  -1.72470E+4  -3.39061E+5
  -1.32493E+4  -3.35653E+5
  -8.71940E+3  -3.32090E+5
  -4.83890E+3  -3.28608E+5
  -5.74766E+2  -3.25226E+5
   3.24574E+3  -3.21514E+5
   6.51145E+3  -3.18092E+5
   9.91924E+3  -3.14802E+5
   1.32019E+4  -3.12041E+5
   1.68323E+4  -3.08825E+5
   2.01494E+4  -3.05230E+5
   2.31578E+4  -3.02166E+5
   2.61737E+4  -2.98949E+5
   2.90271E+4  -2.95637E+5
   3.17202E+4  -2.92197E+5
   3.43452E+4  -2.89067E+5
   3.72955E+4  -2.86185E+5
   3.99268E+4  -2.83008E+5
   4.23539E+4  -2.80042E+5
   4.53898E+4  -2.76620E+5
   4.77553E+4  -2.72817E+5
   5.01405E+4  -2.69680E+5
   5.23675E+4  -2.67103E+5
   5.51512E+4  -2.64000E+5
   5.76090E+4  -2.60870E+5
   6.00544E+4  -2.57492E+5
   6.21001E+4  -2.54533E+5
   6.45528E+4  -2.51301E+5
   6.64059E+4  -2.48006E+5
   6.83336E+4  -2.44905E+5
   6.97862E+4  -2.42152E+5
   7.16445E+4  -2.39298E+5
   7.40173E+4  -2.36458E+5
   7.61442E+4  -2.33215E+5
   7.83061E+4  -2.30008E+5
   7.98202E+4  -2.26717E+5
   8.16642E+4  -2.23869E+5
   8.35413E+4  -2.20688E+5
   8.55142E+4  -2.17637E+5
   8.74142E+4  -2.14678E+5
   8.90635E+4  -2.11497E+5
   9.12871E+4  -2.08300E+5
   9.29712E+4  -2.05299E+5
   9.45802E+4  -2.01896E+5
   9.61712E+4  -1.98815E+5
   9.77199E+4  -1.96097E+5
   9.92237E+4  -1.93250E+5
   1.00894E+5  -1.89984E+5
   1.02621E+5  -1.86761E+5
   1.04104E+5  -1.83754E+5
   1.05146E+5  -1.80702E+5
   1.07018E+5  -1.77674E+5
   1.08184E+5  -1.74460E+5
   1.09316E+5  -1.71743E+5
   1.10622E+5  -1.69032E+5
   1.12279E+5  -1.66173E+5
   1.13537E+5  -1.62784E+5
   1.14511E+5  -1.59650E+5
   1.15360E+5  -1.56705E+5
   1.16292E+5  -1.54069E+5
   1.17077E+5  -1.51380E+5
   1.18393E+5  -1.48557E+5
   1.19009E+5  -1.45872E+5
   1.19645E+5  -1.43372E+5
   1.20662E+5  -1.40660E+5
   1.21481E+5  -1.38053E+5
   1.22267E+5  -1.34940E+5
   1.22412E+5  -1.32292E+5
   1.23061E+5  -1.29937E+5
   1.23528E+5  -1.27627E+5
   1.24351E+5  -1.24932E+5
   1.24637E+5  -1.22417E+5
   1.24734E+5  -1.19698E+5
   1.25073E+5  -1.17525E+5
   1.25400E+5  -1.15023E+5
   1.25838E+5  -1.12969E+5
   1.25775E+5  -1.10554E+5
   1.25741E+5  -1.08179E+5
   1.25972E+5  -1.06053E+5
   1.25961E+5  -1.04070E+5
   1.25925E+5  -1.02016E+5
   1.25878E+5  -9.98291E+4
   1.25616E+5  -9.77971E+4
   1.25750E+5  -9.56154E+4
   1.25685E+5  -9.35808E+4
   1.25675E+5  -9.15785E+4
   1.25233E+5  -8.94039E+4
   1.25090E+5  -8.72361E+4
   1.24748E+5  -8.54907E+4
   1.24660E+5  -8.34065E+4
   1.24124E+5  -8.15545E+4
   1.23914E+5  -7.96600E+4
   1.23760E+5  -7.78458E+4
   1.23582E+5  -7.58022E+4
   1.23174E+5  -7.36378E+4
   1.22820E+5  -7.20401E+4
   1.22256E+5  -7.00995E+4
   1.21869E+5  -6.87793E+4
   1.21652E+5  -6.69961E+4
   1.21246E+5  -6.47072E+4
   1.21025E+5  -6.29134E+4
   1.20650E+5  -6.07530E+4
   1.20103E+5  -5.91398E+4
   1.19525E+5  -5.70949E+4
   1.19073E+5  -5.51968E+4
   1.18400E+5  -5.34780E+4
   1.18100E+5  -5.18743E+4
   1.17816E+5  -5.01232E+4
   1.17421E+5  -4.82381E+4
   1.16653E+5  -4.63166E+4
   1.16011E+5  -4.46402E+4
   1.15483E+5  -4.30238E+4
   1.14934E+5  -4.13203E+4
   1.14424E+5  -3.95635E+4
   1.13613E+5  -3.79523E+4
   1.13108E+5  -3.62718E+4
   1.12622E+5  -3.47640E+4
   1.11954E+5  -3.27143E+4
   1.11359E+5  -3.10509E+4
   1.10490E+5  -2.92964E+4
   1.09867E+5  -2.78707E+4
   1.09237E+5  -2.64770E+4
   1.08588E+5  -2.47514E+4
   1.07981E+5  -2.31750E+4
   1.07072E+5  -2.17023E+4
   1.06244E+5  -2.01751E+4
   1.05802E+5  -1.87339E+4
   1.04706E+5  -1.71483E+4
   1.04031E+5  -1.56813E+4
   1.02771E+5  -1.43684E+4
   1.02369E+5  -1.33137E+4
   1.01540E+5  -1.16513E+4
   1.00629E+5  -1.04449E+4
   9.97643E+4  -9.13751E+3
   9.88158E+4  -7.90468E+3
   9.80453E+4  -6.37331E+3
   9.68903E+4  -5.25107E+3
   9.63708E+4  -3.94933E+3
   9.52941E+4  -2.99599E+3
   9.44215E+4  -1.80592E+3
   9.35725E+4  -4.99984E+2
   9.27380E+4   6.10608E+2
   9.15131E+4   1.79610E+3
   9.06539E+4   2.73538E+3
   8.95097E+4   3.61653E+3
   8.88231E+4   4.86405E+3
   8.74713E+4   5.82358E+3
   8.65805E+4   6.97575E+3
   8.56477E+4   7.80421E+3
   8.45682E+4   8.53888E+3
   8.36125E+4   9.55744E+3
   8.26508E+4   1.05862E+4
   8.16628E+4   1.14298E+4
   8.06810E+4   1.24859E+4
   7.93137E+4   1.32779E+4
   7.83224E+4   1.42708E+4
   7.72335E+4   1.49034E+4
   7.61815E+4   1.55945E+4
   7.52378E+4   1.63488E+4
   7.42622E+4   1.72363E+4
   7.27181E+4   1.78893E+4
   7.20048E+4   1.86288E+4
   7.08785E+4   1.93743E+4
   6.97802E+4   2.00144E+4
   6.84778E+4   2.06496E+4
   6.74714E+4   2.12665E+4
   6.64250E+4   2.16518E+4
   6.54790E+4   2.23179E+4
   6.44031E+4   2.29762E+4
   6.32253E+4   2.40315E+4
   6.21046E+4   2.39666E+4
   6.09011E+4   2.48628E+4
   5.96995E+4   2.53377E+4
   5.90132E+4   2.58020E+4
   5.76042E+4   2.60498E+4
   5.68915E+4   2.68505E+4
   5.58477E+4   2.69871E+4
   5.48333E+4   2.76206E+4
   5.36687E+4   2.79771E+4
   5.21469E+4   2.84819E+4
   5.13206E+4   2.88591E+4
   5.02529E+4   2.89566E+4
   4.94725E+4   2.92393E+4
   4.84635E+4   2.99179E+4
   4.70599E+4   3.01719E+4
   4.59303E+4   3.05339E+4
   4.52197E+4   3.10038E+4
   4.39801E+4   3.10530E+4
   4.30520E+4   3.12831E+4
   4.20128E+4   3.14889E+4
   4.12431E+4   3.17564E+4
   4.01442E+4   3.20965E+4
   3.91453E+4   3.23990E+4
   3.81792E+4   3.24719E+4
   3.73969E+4   3.25505E+4
   3.62210E+4   3.25596E+4
   3.52014E+4   3.28589E+4
   3.42741E+4   3.29459E+4
   3.33798E+4   3.31649E+4
   3.24207E+4   3.31519E+4
   3.18926E+4   3.34541E+4
   3.07543E+4   3.35522E+4
   2.99228E+4   3.35975E+4
   2.91672E+4   3.38206E+4
   2.81450E+4   3.35778E+4
   2.74093E+4   3.37737E+4
   2.65678E+4   3.38799E+4
   2.59154E+4   3.39756E+4
   2.50899E+4   3.38414E+4
