 
 $NMID
 ID=''
 FMTDAT='(2E13.5)'
 TRAMP=   1.00000E+0
 VOLUME=   1.00000E+0
 $END
   7.31862E+5   9.48640E+4
   1.68550E+6   9.68953E+5
   1.72477E+6   7.91580E+5
   1.59661E+6   8.27084E+5
   1.66554E+6   8.57658E+5
   1.67933E+6   7.48279E+5
   1.63118E+6   7.35402E+5
   1.65961E+6   7.58133E+5
   1.64336E+6   7.19814E+5
   1.59594E+6   7.39257E+5
   1.60393E+6   7.55953E+5
   1.58147E+6   7.30741E+5
   1.54752E+6   7.45547E+5
   1.54588E+6   7.62993E+5
   1.51169E+6   7.57463E+5
   1.47674E+6   7.71880E+5
   1.47895E+6   7.77246E+5
   1.45975E+6   7.63573E+5
   1.43510E+6   7.62736E+5
   1.43681E+6   7.46878E+5
   1.41676E+6   7.31496E+5
   1.39316E+6   7.34843E+5
   1.38415E+6   7.28644E+5
   1.36286E+6   7.16443E+5
   1.33701E+6   7.20933E+5
   1.32162E+6   7.13749E+5
   1.29587E+6   7.12703E+5
   1.26940E+6   7.25242E+5
   1.24613E+6   7.27163E+5
   1.22071E+6   7.19002E+5
   1.20207E+6   7.19221E+5
   1.18669E+6   7.12310E+5
   1.16366E+6   7.03753E+5
   1.14508E+6   6.97996E+5
   1.13043E+6   6.84167E+5
   1.11503E+6   6.68679E+5
   1.10147E+6   6.61008E+5
   1.08555E+6   6.51867E+5
   1.06221E+6   6.43095E+5
   1.04256E+6   6.39198E+5
   1.02170E+6   6.34834E+5
   9.97822E+5   6.29523E+5
   9.76550E+5   6.24793E+5
   9.55764E+5   6.20347E+5
   9.31685E+5   6.17186E+5
   9.11424E+5   6.13971E+5
   8.92402E+5   6.08898E+5
   8.71203E+5   6.04476E+5
   8.50326E+5   5.95990E+5
   8.32595E+5   5.86565E+5
   8.15532E+5   5.79107E+5
   7.97879E+5   5.72814E+5
   7.79747E+5   5.64107E+5
   7.62273E+5   5.56659E+5
   7.44083E+5   5.50492E+5
   7.24429E+5   5.44571E+5
   7.03958E+5   5.38868E+5
   6.84587E+5   5.32558E+5
   6.65565E+5   5.25598E+5
   6.47463E+5   5.19458E+5
   6.29787E+5   5.12951E+5
   6.12554E+5   5.06664E+5
   5.95525E+5   5.00094E+5
   5.78089E+5   4.93683E+5
   5.61154E+5   4.85626E+5
   5.44843E+5   4.76742E+5
   5.28868E+5   4.68723E+5
   5.13013E+5   4.60833E+5
   4.97408E+5   4.53392E+5
   4.82011E+5   4.46931E+5
   4.65990E+5   4.40254E+5
   4.49272E+5   4.32408E+5
   4.34342E+5   4.24832E+5
   4.19371E+5   4.17908E+5
   4.03977E+5   4.11150E+5
   3.88802E+5   4.03394E+5
   3.74874E+5   3.95632E+5
   3.60933E+5   3.87715E+5
   3.46979E+5   3.80327E+5
   3.33473E+5   3.72244E+5
   3.20119E+5   3.64556E+5
   3.06671E+5   3.56606E+5
   2.93920E+5   3.49514E+5
   2.80949E+5   3.42602E+5
   2.67416E+5   3.35715E+5
   2.54317E+5   3.28844E+5
   2.41887E+5   3.21908E+5
   2.29331E+5   3.15562E+5
   2.16609E+5   3.08536E+5
   2.05207E+5   3.01905E+5
   1.94179E+5   2.94729E+5
   1.83360E+5   2.87975E+5
   1.73081E+5   2.80895E+5
   1.63222E+5   2.73897E+5
   1.53251E+5   2.67052E+5
   1.44020E+5   2.59892E+5
   1.35244E+5   2.53240E+5
   1.26373E+5   2.47100E+5
   1.17594E+5   2.41121E+5
   1.09114E+5   2.34673E+5
   1.00674E+5   2.28555E+5
   9.24026E+4   2.23096E+5
   8.39770E+4   2.17190E+5
   7.61599E+4   2.10979E+5
   6.88762E+4   2.04882E+5
   6.18068E+4   1.99587E+5
   5.52225E+4   1.94331E+5
   4.85379E+4   1.89168E+5
   4.19489E+4   1.83556E+5
   3.60115E+4   1.78036E+5
   3.06642E+4   1.72839E+5
   2.50144E+4   1.67799E+5
   1.94829E+4   1.63057E+5
   1.40238E+4   1.58448E+5
   9.08766E+3   1.53507E+5
   4.22582E+3   1.49001E+5
  -6.23646E+2   1.44665E+5
  -5.26424E+3   1.39909E+5
  -9.39021E+3   1.35481E+5
  -1.30816E+4   1.31092E+5
  -1.70025E+4   1.27092E+5
  -2.05592E+4   1.22635E+5
  -2.39197E+4   1.18700E+5
  -2.74054E+4   1.14771E+5
  -3.06793E+4   1.11046E+5
  -3.37524E+4   1.07047E+5
  -3.64001E+4   1.02793E+5
  -3.92710E+4   9.92212E+4
  -4.20455E+4   9.56762E+4
  -4.48264E+4   9.20423E+4
  -4.71098E+4   8.86155E+4
  -4.95484E+4   8.47256E+4
  -5.19042E+4   8.13931E+4
  -5.40253E+4   7.78911E+4
  -5.62019E+4   7.46553E+4
  -5.80552E+4   7.15813E+4
  -5.97846E+4   6.82256E+4
  -6.15185E+4   6.54052E+4
  -6.31619E+4   6.22777E+4
  -6.50401E+4   5.93783E+4
  -6.60465E+4   5.66033E+4
  -6.72285E+4   5.37685E+4
  -6.85214E+4   5.11122E+4
  -6.96099E+4   4.86237E+4
  -7.09652E+4   4.61690E+4
  -7.18321E+4   4.36743E+4
  -7.26242E+4   4.11761E+4
  -7.33826E+4   3.89318E+4
  -7.41977E+4   3.66849E+4
  -7.50028E+4   3.46013E+4
  -7.54246E+4   3.22696E+4
  -7.61075E+4   3.04319E+4
  -7.66775E+4   2.86108E+4
  -7.74652E+4   2.68391E+4
  -7.76718E+4   2.46654E+4
  -7.78106E+4   2.30060E+4
  -7.81483E+4   2.13876E+4
  -7.83270E+4   1.98530E+4
  -7.83278E+4   1.83920E+4
  -7.88336E+4   1.66695E+4
  -7.89382E+4   1.55557E+4
  -7.87916E+4   1.39333E+4
  -7.88676E+4   1.27864E+4
  -7.87621E+4   1.15849E+4
  -7.86106E+4   1.05713E+4
  -7.84918E+4   9.56841E+3
  -7.83243E+4   8.93020E+3
  -7.84112E+4   7.75927E+3
  -7.80979E+4   6.85457E+3
  -7.79547E+4   6.16255E+3
  -7.74427E+4   5.45983E+3
  -7.70293E+4   4.69093E+3
  -7.67948E+4   3.83113E+3
  -7.59608E+4   3.20793E+3
  -7.55948E+4   2.68075E+3
  -7.51976E+4   2.26296E+3
  -7.48757E+4   1.51723E+3
  -7.42793E+4   8.27701E+2
  -7.34574E+4   5.63902E+2
  -7.31404E+4  -1.39168E+2
  -7.25465E+4  -2.51678E+2
  -7.20442E+4  -8.38168E+2
  -7.15066E+4  -1.48355E+3
  -7.05774E+4  -1.85675E+3
  -6.99172E+4  -2.21649E+3
  -6.93388E+4  -2.43362E+3
  -6.84545E+4  -2.85315E+3
  -6.78092E+4  -3.37066E+3
  -6.72885E+4  -3.43068E+3
  -6.64519E+4  -3.70038E+3
  -6.57481E+4  -4.22484E+3
  -6.52262E+4  -4.57972E+3
  -6.43798E+4  -5.11656E+3
  -6.37405E+4  -5.22732E+3
  -6.31303E+4  -5.61784E+3
  -6.23669E+4  -5.87782E+3
  -6.13012E+4  -6.11136E+3
  -6.06971E+4  -6.54125E+3
  -5.99717E+4  -6.77187E+3
  -5.92743E+4  -7.10523E+3
  -5.83392E+4  -7.73796E+3
  -5.73553E+4  -7.65634E+3
  -5.66973E+4  -8.01917E+3
  -5.60392E+4  -8.03866E+3
  -5.56375E+4  -8.38745E+3
  -5.45843E+4  -8.94602E+3
  -5.37979E+4  -9.33133E+3
  -5.32472E+4  -9.47567E+3
  -5.24555E+4  -9.66767E+3
  -5.18631E+4  -9.77187E+3
  -5.09533E+4  -1.02675E+4
  -5.04586E+4  -1.06218E+4
  -4.96824E+4  -1.04862E+4
  -4.90360E+4  -1.09858E+4
  -4.84581E+4  -1.10972E+4
  -4.75490E+4  -1.14395E+4
  -4.69445E+4  -1.14576E+4
  -4.64461E+4  -1.16526E+4
  -4.57379E+4  -1.16400E+4
  -4.50453E+4  -1.17871E+4
  -4.45612E+4  -1.19802E+4
  -4.41809E+4  -1.20458E+4
  -4.33885E+4  -1.20932E+4
  -4.28505E+4  -1.21025E+4
  -4.24499E+4  -1.23572E+4
  -4.16468E+4  -1.22653E+4
  -4.10615E+4  -1.26547E+4
  -4.07538E+4  -1.23704E+4
  -4.02532E+4  -1.25941E+4
  -3.96229E+4  -1.25430E+4
  -3.92703E+4  -1.25976E+4
  -3.85472E+4  -1.25953E+4
  -3.82054E+4  -1.23538E+4
  -3.77656E+4  -1.25012E+4
  -3.73078E+4  -1.20245E+4
  -3.70365E+4  -1.20786E+4
  -3.64856E+4  -1.21989E+4
  -3.60797E+4  -1.20939E+4
  -3.54913E+4  -1.21396E+4
  -3.49353E+4  -1.20107E+4
  -3.48682E+4  -1.17328E+4
  -3.43579E+4  -1.13660E+4
  -3.40612E+4  -1.14729E+4
  -3.35100E+4  -1.13039E+4
  -3.31641E+4  -1.11205E+4
  -3.27286E+4  -1.08212E+4
  -3.24714E+4  -1.07790E+4
  -3.17579E+4  -1.06059E+4
  -3.13482E+4  -1.03765E+4
  -3.10970E+4  -9.93170E+3
  -3.06269E+4  -9.91438E+3
  -3.04401E+4  -9.83372E+3
  -3.00003E+4  -9.57772E+3
  -2.94976E+4  -9.32249E+3
  -2.90278E+4  -9.28126E+3
  -2.84332E+4  -8.78106E+3
  -2.82041E+4  -8.69042E+3
  -2.77374E+4  -8.62124E+3
  -2.74262E+4  -8.28102E+3
  -2.71062E+4  -8.26848E+3
  -2.65341E+4  -8.24594E+3
  -2.61918E+4  -7.90974E+3
  -2.57070E+4  -7.90048E+3
  -2.53612E+4  -7.63320E+3
  -2.48801E+4  -6.97522E+3
  -2.45993E+4  -6.80379E+3
  -2.42547E+4  -6.89739E+3
  -2.37802E+4  -6.84980E+3
  -2.33045E+4  -6.22160E+3
  -2.28113E+4  -6.37633E+3
  -2.26462E+4  -5.98078E+3
  -2.22017E+4  -5.78123E+3
  -2.15863E+4  -5.55199E+3
  -2.10991E+4  -5.37427E+3
  -2.09181E+4  -5.23157E+3
  -2.05786E+4  -4.97489E+3
  -1.99711E+4  -4.93332E+3
  -1.94544E+4  -4.77546E+3
  -1.92718E+4  -4.53093E+3
  -1.88180E+4  -4.26220E+3
  -1.84365E+4  -4.43776E+3
  -1.81686E+4  -3.92020E+3
  -1.76075E+4  -3.81639E+3
  -1.74299E+4  -3.95442E+3
  -1.70407E+4  -3.93998E+3
  -1.66938E+4  -3.86436E+3
  -1.62829E+4  -3.57096E+3
  -1.58719E+4  -3.34352E+3
  -1.57626E+4  -2.86299E+3
  -1.55898E+4  -2.91258E+3
  -1.49494E+4  -2.86243E+3
  -1.46586E+4  -2.99357E+3
  -1.44344E+4  -2.64664E+3
  -1.42170E+4  -2.57542E+3
  -1.38911E+4  -2.40291E+3
  -1.37215E+4  -1.86506E+3
  -1.35565E+4  -2.10244E+3
  -1.30608E+4  -1.89099E+3
  -1.28743E+4  -1.71811E+3
  -1.28200E+4  -1.72191E+3
  -1.23638E+4  -1.73705E+3
  -1.22369E+4  -1.46158E+3
  -1.19548E+4  -1.40940E+3
  -1.17769E+4  -1.25451E+3
  -1.16611E+4  -1.09923E+3
  -1.12797E+4  -9.96287E+2
  -1.13332E+4  -9.03769E+2
  -1.11642E+4  -6.17887E+2
  -1.10861E+4  -5.85186E+2
  -1.09072E+4  -4.94645E+2
  -1.08304E+4  -4.92871E+2
  -1.07691E+4  -1.95210E+2
  -1.05379E+4  -2.19354E+2
  -1.05531E+4  -1.15685E+2
  -1.03324E+4   1.08549E+2
  -1.00630E+4   1.35512E+2
  -1.03496E+4   3.67198E+2
  -1.00136E+4   2.72364E+2
  -1.01323E+4   3.78263E+2
  -9.75323E+3   6.06656E+2
  -1.02350E+4   6.96043E+2
  -9.97128E+3   7.93463E+2
  -9.87241E+3   9.00317E+2
  -9.90002E+3   1.01063E+3
  -9.87974E+3   1.25077E+3
  -9.93462E+3   1.07076E+3
  -9.74009E+3   1.13141E+3
  -1.00090E+4   1.56173E+3
  -9.83582E+3   1.73516E+3
  -9.38120E+3   1.49570E+3
  -9.74669E+3   1.53239E+3
  -9.60879E+3   1.75907E+3
  -9.61804E+3   1.74827E+3
  -9.60739E+3   1.73355E+3
  -9.89333E+3   2.04386E+3
  -9.89035E+3   2.02029E+3
  -9.59432E+3   2.22615E+3
  -9.83796E+3   2.13957E+3
  -9.60813E+3   2.27633E+3
  -9.75892E+3   2.29004E+3
  -9.77307E+3   2.18700E+3
  -9.90961E+3   2.29604E+3
  -9.63635E+3   2.32389E+3
  -9.68104E+3   2.65428E+3
  -9.96161E+3   2.44217E+3
  -9.81972E+3   2.44576E+3
  -9.87031E+3   2.56495E+3
  -1.00855E+4   2.72949E+3
  -9.82043E+3   2.39857E+3
  -1.02037E+4   2.50283E+3
  -1.00125E+4   2.66526E+3
  -1.01678E+4   2.90540E+3
  -1.01999E+4   2.68706E+3
  -1.01220E+4   2.64364E+3
  -1.00797E+4   2.46015E+3
  -1.01952E+4   2.75956E+3
  -1.01667E+4   2.78062E+3
  -1.02961E+4   2.85610E+3
  -1.05579E+4   2.96423E+3
  -1.04848E+4   2.98766E+3
  -1.02849E+4   2.95582E+3
  -1.06794E+4   2.81201E+3
  -1.06900E+4   2.93004E+3
  -1.07774E+4   2.83268E+3
  -1.08133E+4   2.83367E+3
  -1.09934E+4   2.67452E+3
  -1.08741E+4   2.92126E+3
