 
 $NMID
 ID=''
 FMTDAT='(2E13.5)'
 TRAMP=   1.00000E+0
 VOLUME=   1.00000E+0
 $END
  -4.72896E+5   4.39587E+5
  -1.62514E+6   6.32630E+5
  -1.53356E+6   8.30645E+5
  -1.45461E+6   7.71837E+5
  -1.48141E+6   7.82385E+5
  -1.42916E+6   8.19686E+5
  -1.40728E+6   8.11592E+5
  -1.41431E+6   8.54090E+5
  -1.34980E+6   8.75411E+5
  -1.33632E+6   8.44918E+5
  -1.34597E+6   8.70783E+5
  -1.29367E+6   8.92995E+5
  -1.26792E+6   8.77343E+5
  -1.26745E+6   8.93110E+5
  -1.22735E+6   9.01699E+5
  -1.20177E+6   8.91725E+5
  -1.19492E+6   9.12214E+5
  -1.16354E+6   9.20166E+5
  -1.14179E+6   9.08671E+5
  -1.12565E+6   9.24595E+5
  -1.09536E+6   9.33460E+5
  -1.07632E+6   9.28482E+5
  -1.06003E+6   9.37148E+5
  -1.03239E+6   9.39332E+5
  -1.01530E+6   9.30720E+5
  -9.94362E+5   9.40535E+5
  -9.70210E+5   9.42062E+5
  -9.54000E+5   9.35067E+5
  -9.34760E+5   9.34883E+5
  -9.08414E+5   9.34517E+5
  -8.94367E+5   9.30344E+5
  -8.75039E+5   9.32555E+5
  -8.51054E+5   9.29732E+5
  -8.33552E+5   9.25880E+5
  -8.13055E+5   9.26051E+5
  -7.89021E+5   9.26379E+5
  -7.73337E+5   9.25956E+5
  -7.57091E+5   9.24298E+5
  -7.34697E+5   9.17044E+5
  -7.17171E+5   9.13917E+5
  -7.00570E+5   9.10449E+5
  -6.82134E+5   9.02952E+5
  -6.63073E+5   8.96786E+5
  -6.45665E+5   8.93682E+5
  -6.29999E+5   8.85738E+5
  -6.15525E+5   8.78565E+5
  -5.99776E+5   8.72581E+5
  -5.85773E+5   8.63530E+5
  -5.71007E+5   8.54581E+5
  -5.54940E+5   8.47658E+5
  -5.39991E+5   8.40334E+5
  -5.27211E+5   8.32489E+5
  -5.14130E+5   8.24791E+5
  -5.00653E+5   8.16652E+5
  -4.87782E+5   8.07762E+5
  -4.76209E+5   7.98980E+5
  -4.64534E+5   7.88077E+5
  -4.51743E+5   7.77357E+5
  -4.39091E+5   7.68240E+5
  -4.28069E+5   7.59182E+5
  -4.17803E+5   7.48813E+5
  -4.07015E+5   7.38558E+5
  -3.96909E+5   7.29381E+5
  -3.87816E+5   7.18898E+5
  -3.78371E+5   7.06992E+5
  -3.67344E+5   6.95855E+5
  -3.57474E+5   6.86355E+5
  -3.48746E+5   6.76252E+5
  -3.40581E+5   6.65721E+5
  -3.33518E+5   6.56043E+5
  -3.26163E+5   6.44944E+5
  -3.18196E+5   6.33648E+5
  -3.09570E+5   6.23509E+5
  -3.02832E+5   6.13932E+5
  -2.96899E+5   6.02947E+5
  -2.89917E+5   5.91498E+5
  -2.82608E+5   5.81290E+5
  -2.76499E+5   5.71542E+5
  -2.70861E+5   5.60288E+5
  -2.65014E+5   5.49160E+5
  -2.59265E+5   5.38766E+5
  -2.53593E+5   5.28793E+5
  -2.48436E+5   5.18205E+5
  -2.44112E+5   5.07345E+5
  -2.39222E+5   4.96466E+5
  -2.34355E+5   4.86385E+5
  -2.29781E+5   4.76386E+5
  -2.25363E+5   4.66056E+5
  -2.20953E+5   4.55930E+5
  -2.16210E+5   4.45386E+5
  -2.11747E+5   4.35900E+5
  -2.07822E+5   4.26531E+5
  -2.03825E+5   4.17166E+5
  -2.00104E+5   4.07459E+5
  -1.95956E+5   3.97222E+5
  -1.91543E+5   3.88175E+5
  -1.87775E+5   3.79626E+5
  -1.84602E+5   3.70871E+5
  -1.81241E+5   3.61382E+5
  -1.77306E+5   3.52047E+5
  -1.74000E+5   3.44104E+5
  -1.71648E+5   3.35652E+5
  -1.69071E+5   3.26504E+5
  -1.65137E+5   3.17664E+5
  -1.61732E+5   3.09610E+5
  -1.58874E+5   3.01878E+5
  -1.56224E+5   2.94110E+5
  -1.53786E+5   2.86038E+5
  -1.50906E+5   2.77756E+5
  -1.47698E+5   2.69961E+5
  -1.45067E+5   2.62771E+5
  -1.42908E+5   2.55792E+5
  -1.41019E+5   2.48455E+5
  -1.39082E+5   2.40728E+5
  -1.37223E+5   2.33526E+5
  -1.34970E+5   2.26798E+5
  -1.33292E+5   2.19832E+5
  -1.31221E+5   2.12871E+5
  -1.28857E+5   2.05812E+5
  -1.26416E+5   1.99969E+5
  -1.24882E+5   1.93914E+5
  -1.23378E+5   1.87603E+5
  -1.21389E+5   1.81747E+5
  -1.19698E+5   1.75652E+5
  -1.18580E+5   1.69726E+5
  -1.16745E+5   1.63876E+5
  -1.14832E+5   1.58087E+5
  -1.12945E+5   1.52488E+5
  -1.11537E+5   1.47221E+5
  -1.10480E+5   1.41803E+5
  -1.09094E+5   1.36110E+5
  -1.08000E+5   1.30742E+5
  -1.06327E+5   1.25323E+5
  -1.05016E+5   1.20425E+5
  -1.03570E+5   1.15398E+5
  -1.02081E+5   1.10424E+5
  -1.00874E+5   1.05449E+5
  -9.93954E+4   1.01120E+5
  -9.80275E+4   9.65559E+4
  -9.65365E+4   9.18267E+4
  -9.54072E+4   8.73154E+4
  -9.37551E+4   8.28417E+4
  -9.21357E+4   7.86959E+4
  -9.10104E+4   7.46661E+4
  -8.97320E+4   7.06622E+4
  -8.84768E+4   6.63604E+4
  -8.70077E+4   6.24865E+4
  -8.53267E+4   5.90002E+4
  -8.42230E+4   5.49894E+4
  -8.27843E+4   5.13723E+4
  -8.13764E+4   4.76542E+4
  -7.95961E+4   4.42891E+4
  -7.85003E+4   4.11294E+4
  -7.70895E+4   3.77442E+4
  -7.58280E+4   3.46727E+4
  -7.44557E+4   3.12491E+4
  -7.31356E+4   2.83122E+4
  -7.15433E+4   2.53549E+4
  -7.03628E+4   2.23312E+4
  -6.89513E+4   1.98452E+4
  -6.77404E+4   1.70869E+4
  -6.64655E+4   1.45578E+4
  -6.52516E+4   1.19436E+4
  -6.40524E+4   9.68201E+3
  -6.26385E+4   7.07873E+3
  -6.12015E+4   5.14470E+3
  -6.01666E+4   2.80458E+3
  -5.90922E+4   6.51132E+2
  -5.77609E+4  -1.46796E+3
  -5.62405E+4  -3.59287E+3
  -5.52835E+4  -4.93436E+3
  -5.41643E+4  -6.80573E+3
  -5.27771E+4  -8.62992E+3
  -5.16855E+4  -1.03492E+4
  -5.04206E+4  -1.19833E+4
  -4.92622E+4  -1.33576E+4
  -4.81426E+4  -1.51128E+4
  -4.69653E+4  -1.64818E+4
  -4.55969E+4  -1.79238E+4
  -4.47873E+4  -1.92768E+4
  -4.37260E+4  -2.03981E+4
  -4.23119E+4  -2.16255E+4
  -4.07471E+4  -2.30205E+4
  -3.99646E+4  -2.38890E+4
  -3.90185E+4  -2.48819E+4
  -3.72786E+4  -2.59648E+4
  -3.61612E+4  -2.68048E+4
  -3.52114E+4  -2.74638E+4
  -3.39324E+4  -2.83701E+4
  -3.29092E+4  -2.94495E+4
  -3.15247E+4  -3.01391E+4
  -3.03412E+4  -3.07250E+4
  -2.86610E+4  -3.13778E+4
  -2.74028E+4  -3.20895E+4
  -2.63020E+4  -3.26356E+4
  -2.52061E+4  -3.31758E+4
  -2.37641E+4  -3.38569E+4
  -2.25138E+4  -3.43055E+4
  -2.12340E+4  -3.49459E+4
  -1.94967E+4  -3.53668E+4
  -1.86360E+4  -3.55477E+4
  -1.72442E+4  -3.61959E+4
  -1.58490E+4  -3.63041E+4
  -1.46485E+4  -3.64989E+4
  -1.35753E+4  -3.68159E+4
  -1.24373E+4  -3.72097E+4
  -1.09192E+4  -3.73762E+4
  -9.51036E+3  -3.74073E+4
  -8.45258E+3  -3.76279E+4
  -7.38352E+3  -3.76544E+4
  -6.03158E+3  -3.76584E+4
  -4.97526E+3  -3.73963E+4
  -3.68182E+3  -3.75669E+4
  -2.65117E+3  -3.73080E+4
  -1.41469E+3  -3.72438E+4
  -2.43961E+2  -3.71912E+4
   7.78124E+2  -3.71801E+4
   1.77444E+3  -3.71784E+4
   2.83668E+3  -3.65146E+4
   3.55326E+3  -3.66998E+4
   4.88653E+3  -3.64360E+4
   5.86568E+3  -3.60969E+4
   6.83554E+3  -3.56421E+4
   7.70016E+3  -3.54676E+4
   8.55920E+3  -3.50466E+4
   9.58586E+3  -3.49137E+4
   1.04831E+4  -3.45569E+4
   1.13074E+4  -3.40933E+4
   1.20387E+4  -3.38573E+4
   1.28556E+4  -3.34223E+4
   1.38459E+4  -3.30593E+4
   1.44558E+4  -3.25733E+4
   1.52574E+4  -3.18664E+4
   1.60325E+4  -3.15267E+4
   1.68062E+4  -3.08926E+4
   1.74786E+4  -3.05179E+4
   1.80824E+4  -2.99398E+4
   1.87072E+4  -2.95892E+4
   1.95923E+4  -2.88317E+4
   1.98754E+4  -2.84256E+4
   2.07513E+4  -2.78838E+4
   2.11683E+4  -2.71294E+4
   2.17070E+4  -2.65233E+4
   2.22984E+4  -2.60144E+4
   2.26146E+4  -2.51206E+4
   2.36498E+4  -2.48173E+4
   2.37374E+4  -2.37614E+4
   2.47572E+4  -2.35551E+4
   2.50442E+4  -2.23558E+4
   2.53128E+4  -2.18807E+4
   2.57906E+4  -2.12001E+4
   2.62687E+4  -2.06558E+4
   2.65279E+4  -1.97084E+4
   2.71814E+4  -1.89882E+4
   2.74390E+4  -1.81904E+4
   2.77892E+4  -1.73343E+4
   2.82659E+4  -1.70044E+4
   2.87936E+4  -1.61466E+4
   2.90298E+4  -1.52675E+4
   2.95201E+4  -1.44983E+4
   2.98683E+4  -1.40426E+4
   3.01492E+4  -1.31395E+4
   3.04270E+4  -1.24674E+4
   3.05746E+4  -1.16087E+4
   3.12633E+4  -1.09501E+4
   3.11674E+4  -1.03899E+4
   3.13260E+4  -9.48479E+3
   3.17780E+4  -8.67193E+3
   3.19832E+4  -7.86553E+3
   3.20947E+4  -7.20603E+3
   3.21771E+4  -6.43655E+3
   3.24419E+4  -5.96458E+3
   3.27135E+4  -5.04772E+3
   3.28675E+4  -4.42023E+3
   3.30246E+4  -3.74566E+3
   3.31144E+4  -3.02425E+3
   3.29802E+4  -2.38126E+3
   3.31484E+4  -1.56908E+3
   3.32925E+4  -1.13224E+3
   3.32931E+4  -5.17705E+2
   3.32917E+4   2.53863E+2
   3.34891E+4   1.01823E+3
   3.33763E+4   1.72397E+3
   3.35768E+4   2.47845E+3
   3.34635E+4   3.11766E+3
   3.33714E+4   3.34589E+3
   3.31971E+4   4.04683E+3
   3.32005E+4   4.71614E+3
   3.31265E+4   5.28596E+3
   3.30745E+4   5.72037E+3
   3.29930E+4   6.46152E+3
   3.27982E+4   7.11840E+3
   3.25539E+4   7.73110E+3
   3.23888E+4   8.00716E+3
   3.22049E+4   8.72787E+3
   3.21894E+4   9.30040E+3
   3.20385E+4   9.75911E+3
   3.16548E+4   1.02563E+4
   3.14658E+4   1.07096E+4
   3.11470E+4   1.13099E+4
   3.08926E+4   1.19483E+4
   3.08159E+4   1.22677E+4
   3.03466E+4   1.28968E+4
   3.01587E+4   1.33508E+4
   2.98942E+4   1.39154E+4
   2.98582E+4   1.43690E+4
   2.94225E+4   1.47332E+4
   2.90701E+4   1.50874E+4
   2.87145E+4   1.54518E+4
   2.81835E+4   1.59277E+4
   2.81294E+4   1.64596E+4
   2.75339E+4   1.69587E+4
   2.71665E+4   1.71519E+4
   2.67650E+4   1.78052E+4
   2.63585E+4   1.81250E+4
   2.61178E+4   1.85041E+4
   2.58749E+4   1.90520E+4
   2.50226E+4   1.92052E+4
   2.48171E+4   1.95506E+4
   2.43829E+4   1.97165E+4
   2.43230E+4   2.02838E+4
   2.38110E+4   2.05848E+4
   2.31563E+4   2.09409E+4
   2.28456E+4   2.10052E+4
   2.26355E+4   2.14253E+4
   2.21019E+4   2.20374E+4
   2.16700E+4   2.21775E+4
   2.14112E+4   2.23669E+4
   2.07559E+4   2.26633E+4
   2.03279E+4   2.30673E+4
   1.98053E+4   2.33638E+4
   1.95821E+4   2.33259E+4
   1.92410E+4   2.35142E+4
   1.86679E+4   2.39678E+4
   1.83891E+4   2.38417E+4
   1.79405E+4   2.42253E+4
   1.72065E+4   2.45480E+4
   1.67681E+4   2.44754E+4
   1.67134E+4   2.45829E+4
   1.61459E+4   2.50427E+4
   1.56943E+4   2.52118E+4
   1.52231E+4   2.51901E+4
   1.44522E+4   2.51986E+4
   1.43155E+4   2.55720E+4
   1.37624E+4   2.57817E+4
   1.32441E+4   2.56417E+4
   1.29192E+4   2.58091E+4
   1.24652E+4   2.58783E+4
   1.18328E+4   2.60229E+4
   1.12081E+4   2.59080E+4
   1.10472E+4   2.60597E+4
   1.04588E+4   2.60356E+4
   9.98083E+3   2.58999E+4
   9.39863E+3   2.62299E+4
   9.15824E+3   2.60603E+4
   8.52070E+3   2.61305E+4
   8.25787E+3   2.59775E+4
   7.78324E+3   2.62034E+4
   7.19162E+3   2.61193E+4
   6.85954E+3   2.61500E+4
   6.37490E+3   2.59560E+4
   5.73346E+3   2.58632E+4
   5.50331E+3   2.56988E+4
   5.09463E+3   2.57390E+4
   4.56198E+3   2.57155E+4
   3.82521E+3   2.58387E+4
   3.72250E+3   2.56418E+4
