 LCModel (Version 6.3-1N) Copyright: S.W. Provencher.          Ref.: Magn. Reson. Med. 30:672-679 (1993).                
 Slice_N1@8_21  28-Feb-2025 11:44:47
 27 lines in following concentration table = NCONC+1
    Conc.  %SD /Cr+PCr  Metabolite                                         
 3.66E-04   4% 3.8E-04 Mac                                                 
    0.300 792%   0.316 Cr                                                  
    7.300  31%   7.684 PCr                                                 
    5.427  22%   5.713 Ins                                                 
    3.884  33%   4.089 NAA                                                 
    7.989  17%   8.409 Tau                                                 
    0.102 999%   0.108 PCho                                                
    0.593 233%   0.624 GPC                                                 
    9.764  14%  10.278 Glu                                                 
    7.020  17%   7.389 Gln                                                 
   10.060  11%  10.590 Ala                                                 
    0.000 999%   0.000 Asc                                                 
    2.357  46%   2.481 Asp                                                 
    0.348 182%   0.366 GABA                                                
    0.789  91%   0.831 Glc                                                 
    1.144  64%   1.205 GSH                                                 
    0.000 999%   0.000 Lac                                                 
   10.540   9%  11.095 NAAG                                                
    2.706  65%   2.849 PE                                                  
    0.695  66%   0.731 GPC+PCho                                            
   14.424   8%  15.183 NAA+NAAG                                            
   16.784  11%  17.667 Glu+Gln                                             
    7.600  13%   8.000 Cr+PCr                                              
   14.424   8%  15.183 NAA+NAAG                                            
    7.600  13%   8.000 Cr+PCr                                              
   16.784  11%  17.667 Glu+Gln                                             
   6 lines in following misc. output table
  FWHM = 0.049 ppm    S/N =   3                                            
  Data shift = 0.057 ppm                                                   
  Ph:-132 deg       0.0 deg/ppm                                            
  alphaB,S = 1.5E-01,   2.3E+01                                            
   19 spline knots.   Ns = 5(1)                                            
  ( 7) 3 infls.   ( 7) 1 extrs.                                            
  480 points on ppm-axis = NY
      4.100000     4.091866     4.083733     4.075600     4.067466     4.059333     4.051199     4.043066     4.034933     4.026799
      4.018666     4.010532     4.002399     3.994265     3.986132     3.977998     3.969864     3.961731     3.953597     3.945463
      3.937330     3.929196     3.921062     3.912929     3.904795     3.896662     3.888528     3.880394     3.872261     3.864127
      3.855993     3.847860     3.839726     3.831592     3.823459     3.815325     3.807191     3.799058     3.790924     3.782790
      3.774657     3.766523     3.758389     3.750256     3.742122     3.733989     3.725855     3.717721     3.709588     3.701454
      3.693320     3.685187     3.677053     3.668919     3.660786     3.652652     3.644518     3.636385     3.628251     3.620117
      3.611984     3.603850     3.595716     3.587583     3.579449     3.571316     3.563182     3.555048     3.546915     3.538781
      3.530647     3.522514     3.514380     3.506246     3.498113     3.489979     3.481845     3.473712     3.465578     3.457444
      3.449311     3.441177     3.433043     3.424910     3.416776     3.408643     3.400509     3.392375     3.384242     3.376108
      3.367974     3.359841     3.351707     3.343573     3.335440     3.327306     3.319172     3.311039     3.302905     3.294771
      3.286638     3.278504     3.270370     3.262237     3.254103     3.245970     3.237836     3.229702     3.221569     3.213435
      3.205301     3.197168     3.189034     3.180900     3.172767     3.164633     3.156499     3.148366     3.140232     3.132098
      3.123965     3.115831     3.107697     3.099564     3.091430     3.083297     3.075163     3.067029     3.058896     3.050762
      3.042628     3.034495     3.026361     3.018227     3.010094     3.001960     2.993826     2.985693     2.977559     2.969425
      2.961292     2.953158     2.945024     2.936891     2.928757     2.920624     2.912490     2.904356     2.896223     2.888089
      2.879955     2.871822     2.863688     2.855554     2.847421     2.839287     2.831153     2.823020     2.814886     2.806752
      2.798619     2.790485     2.782351     2.774218     2.766084     2.757951     2.749817     2.741683     2.733550     2.725416
      2.717282     2.709149     2.701015     2.692881     2.684748     2.676614     2.668480     2.660347     2.652213     2.644079
      2.635946     2.627812     2.619678     2.611545     2.603411     2.595278     2.587144     2.579010     2.570877     2.562743
      2.554609     2.546476     2.538342     2.530208     2.522075     2.513941     2.505807     2.497674     2.489540     2.481406
      2.473273     2.465139     2.457006     2.448872     2.440738     2.432605     2.424471     2.416337     2.408204     2.400070
      2.391936     2.383803     2.375669     2.367535     2.359402     2.351268     2.343134     2.335001     2.326867     2.318733
      2.310600     2.302466     2.294333     2.286199     2.278065     2.269932     2.261798     2.253664     2.245531     2.237397
      2.229263     2.221130     2.212996     2.204862     2.196729     2.188595     2.180461     2.172328     2.164194     2.156060
      2.147927     2.139793     2.131660     2.123526     2.115392     2.107259     2.099125     2.090991     2.082858     2.074724
      2.066590     2.058457     2.050323     2.042189     2.034056     2.025922     2.017788     2.009655     2.001521     1.993387
      1.985254     1.977120     1.968987     1.960853     1.952719     1.944586     1.936452     1.928318     1.920185     1.912051
      1.903917     1.895784     1.887650     1.879516     1.871383     1.863249     1.855115     1.846982     1.838848     1.830714
      1.822581     1.814447     1.806314     1.798180     1.790046     1.781913     1.773779     1.765645     1.757512     1.749378
      1.741244     1.733111     1.724977     1.716843     1.708710     1.700576     1.692442     1.684309     1.676175     1.668041
      1.659908     1.651774     1.643641     1.635507     1.627373     1.619240     1.611106     1.602972     1.594839     1.586705
      1.578571     1.570438     1.562304     1.554170     1.546037     1.537903     1.529769     1.521636     1.513502     1.505368
      1.497235     1.489101     1.480968     1.472834     1.464700     1.456567     1.448433     1.440299     1.432166     1.424032
      1.415898     1.407765     1.399631     1.391497     1.383364     1.375230     1.367096     1.358963     1.350829     1.342695
      1.334562     1.326428     1.318295     1.310161     1.302027     1.293894     1.285760     1.277626     1.269493     1.261359
      1.253225     1.245092     1.236958     1.228824     1.220691     1.212557     1.204423     1.196290     1.188156     1.180022
      1.171889     1.163755     1.155622     1.147488     1.139354     1.131221     1.123087     1.114953     1.106820     1.098686
      1.090552     1.082419     1.074285     1.066151     1.058018     1.049884     1.041750     1.033617     1.025483     1.017349
      1.009216     1.001082     0.992949     0.984815     0.976681     0.968548     0.960414     0.952280     0.944147     0.936013
      0.927879     0.919746     0.911612     0.903478     0.895345     0.887211     0.879077     0.870944     0.862810     0.854676
      0.846543     0.838409     0.830276     0.822142     0.814008     0.805875     0.797741     0.789607     0.781474     0.773340
      0.765206     0.757073     0.748939     0.740805     0.732672     0.724538     0.716404     0.708271     0.700137     0.692003
      0.683870     0.675736     0.667603     0.659469     0.651335     0.643202     0.635068     0.626934     0.618801     0.610667
      0.602533     0.594400     0.586266     0.578132     0.569999     0.561865     0.553731     0.545598     0.537464     0.529330
      0.521197     0.513063     0.504930     0.496796     0.488662     0.480529     0.472395     0.464261     0.456128     0.447994
      0.439861     0.431727     0.423593     0.415460     0.407326     0.399192     0.391059     0.382925     0.374792     0.366658
      0.358524     0.350391     0.342257     0.334124     0.325990     0.317856     0.309723     0.301589     0.293455     0.285322
      0.277188     0.269055     0.260921     0.252787     0.244654     0.236520     0.228386     0.220253     0.212119     0.203986
 NY phased data points follow
   6.77873E+01  3.21970E+01  3.81713E+01  3.56625E+01  5.28522E+01  4.61614E+01  4.59993E+01  5.23489E+01  4.30067E+01  3.81259E+01
   2.87205E+01  3.42249E+01  4.58418E+01  3.39530E+01  2.59502E+01  3.89380E+01  1.79660E+01  8.95651E+00  2.39077E+01  3.77309E+01
   1.86663E+01  7.76588E+00  2.96387E+01  4.01552E+01  7.24093E+01  8.20502E+01  7.15141E+01  8.60482E+01  9.89711E+01  8.66142E+01
   1.01952E+02  9.35588E+01  6.47698E+01  7.71744E+01  8.92979E+01  1.08928E+02  8.77366E+01  7.34802E+01  7.69459E+01  4.85404E+01
   3.88353E+01  4.35878E+01  1.97659E+01  2.66660E+01  6.70348E+01  6.51226E+01  7.92262E+01  1.15466E+02  1.42236E+02  1.42277E+02
   1.25167E+02  1.08596E+02  1.39845E+02  1.41718E+02  1.05811E+02  1.35810E+02  1.04359E+02  9.57235E+01  1.07338E+02  7.02247E+01
   8.80188E+01  1.05132E+02  1.09275E+02  1.19736E+02  1.18048E+02  1.31772E+02  1.36167E+02  9.54212E+01  9.73217E+01  1.00907E+02
   8.43886E+01  9.90720E+01  9.57430E+01  9.63242E+01  1.21945E+02  1.05716E+02  9.75008E+01  1.28310E+02  9.70161E+01  1.08437E+02
   1.29275E+02  1.13637E+02  1.04998E+02  7.41303E+01  7.39353E+01  8.20800E+01  9.89202E+01  8.97155E+01  9.66229E+01  1.05284E+02
   1.07830E+02  1.30642E+02  1.23482E+02  1.19079E+02  9.70344E+01  1.21469E+02  1.42596E+02  1.30313E+02  1.49886E+02  1.37903E+02
   1.23974E+02  1.32420E+02  9.70442E+01  8.75960E+01  1.11716E+02  7.44137E+01  6.49714E+01  5.72768E+01  1.94390E+01  4.01637E+00
  -1.24727E+01 -1.73558E+01  1.09132E-01  5.79598E-01  1.32961E-01  1.98850E+01  2.98077E+01  4.48506E+01  4.91987E+01  5.81425E+01
   5.35347E+01  6.88907E+01  7.68787E+01  6.12075E+01  8.06503E+01  9.07905E+01  1.08715E+02  1.08483E+02  1.59293E+02  1.90731E+02
   1.55750E+02  1.25607E+02  8.16006E+01  6.02177E+01  3.80865E+01  7.00149E+00 -2.58878E+01 -9.29668E+00 -3.55313E+00  1.38654E+00
   7.33568E+00  2.79951E+00  1.42692E+01  4.20964E+00  1.83989E+01  1.94034E+00  6.94826E+00  1.16808E+01  2.32494E+01  3.47649E+01
   1.44896E+01  3.11893E+01  2.68405E+01  1.27790E+01  1.52013E+01  4.80600E+01  4.18571E+01  4.26686E+01  4.38715E+01  4.39944E+01
   6.14966E+01  4.73826E+01  6.32918E+01  5.11747E+01  4.28801E+01  3.36652E+01  4.62134E+01  4.60312E+01  3.11178E+01  5.98243E+01
   7.87422E+01  8.76440E+01  5.90498E+01  6.16295E+01  7.36107E+01  9.68572E+01  8.83957E+01  7.00121E+01  7.82590E+01  5.99301E+01
   5.42151E+01  4.24976E+01  5.84397E+01  2.42977E+01  3.32326E+01  6.20382E+01  1.60365E+01  5.56508E+00  1.58576E+01  5.14419E+01
   3.58871E+01  3.67026E+01  7.19761E+01  5.66629E+01  5.18883E+01  5.78813E+01  6.19652E+01  7.01542E+01  6.58245E+01  5.43757E+01
   6.16089E+01  6.98568E+01  7.73394E+01  8.37608E+01  8.33715E+01  6.79742E+01  6.59897E+01  6.04506E+01  3.67989E+01  4.90497E+01
   4.65935E+01  3.13048E+01  4.53032E+01  6.51995E+01  8.65682E+01  1.16221E+02  1.16664E+02  9.68761E+01  1.04288E+02  9.85224E+01
   8.79327E+01  9.17993E+01  7.16486E+01  5.62062E+01  4.27442E+01  5.32092E+01  8.31619E+01  6.64652E+01  5.00260E+01  2.11942E+01
   2.05441E+01  2.43352E+01  1.96557E+01  3.85319E+01 -2.29422E+00 -1.42906E+01 -1.98129E+01 -2.08113E+01 -7.04913E+00 -2.14231E+01
  -8.99991E+00 -4.15789E+00  6.51496E+00  1.98460E+01  2.72349E+01  5.26552E+01  3.22633E+01  8.65621E-01  4.51141E+01  4.40633E+01
   4.64359E+01  3.60230E+01  3.81830E+00  3.53758E+01 -2.66441E+01  1.14248E+01  1.01277E+02  1.03376E+02  1.78687E+02  2.38268E+02
   2.33252E+02  2.28241E+02  2.19082E+02  1.97379E+02  2.06144E+02  1.68641E+02  1.61124E+02  1.78356E+02  1.74145E+02  1.81317E+02
   1.52085E+02  1.64966E+02  1.55300E+02  1.62551E+02  1.70653E+02  1.40005E+02  1.46175E+02  1.57565E+02  1.62038E+02  1.63484E+02
   1.68236E+02  1.58172E+02  1.67286E+02  1.61610E+02  1.57834E+02  1.59117E+02  1.68221E+02  1.54008E+02  1.35857E+02  1.73811E+02
   1.57274E+02  1.58839E+02  1.62758E+02  1.45699E+02  1.26271E+02  1.51185E+02  1.61423E+02  1.17610E+02  1.44363E+02  1.25747E+02
   1.43646E+02  1.46056E+02  1.36498E+02  1.58624E+02  1.16067E+02  1.36033E+02  1.48187E+02  1.40124E+02  1.26068E+02  1.30743E+02
   1.29598E+02  1.05154E+02  1.24158E+02  1.18193E+02  1.08054E+02  1.08482E+02  1.33153E+02  1.32079E+02  1.18380E+02  9.50495E+01
   6.19363E+01  8.19702E+01  6.43686E+01  4.39399E+01  3.02093E+01  1.82608E+01  1.20018E+01  3.52374E+00  1.46114E+01 -1.71165E+01
  -3.61696E+01 -4.66531E+01 -6.18487E+01 -4.88146E+01 -5.41561E+01 -6.13247E+01 -4.93772E+01 -3.58401E+01 -2.48646E+01 -1.06522E+01
  -1.21317E+01 -2.02993E+01 -1.19606E+01 -3.41742E+00  2.02571E+00  2.96621E+01  4.71556E+01  3.83021E+01  3.82754E+01  4.07826E+01
   5.74736E+01  5.96130E+01  4.75895E+01  4.12530E+01  3.06732E+01  2.01992E+01  5.93837E+00 -3.61168E+00  9.13864E-01  4.19583E+01
   2.90375E+01 -7.85529E+00  3.15627E+01  4.05379E+01  2.84841E+01  4.05977E+01  2.24532E+01  3.32244E+01  6.13660E+01  4.64140E+01
   5.80152E+01  4.68431E+01  4.83642E+01  7.61441E+01  6.12459E+01  7.05810E+01  7.52627E+01  7.35476E+01  6.76556E+01  1.00577E+02
   1.27844E+02  1.00917E+02  1.22622E+02  1.45221E+02  1.37192E+02  1.56801E+02  1.83867E+02  1.67520E+02  1.84432E+02  1.81895E+02
   1.66601E+02  1.51852E+02  1.05487E+02  1.29964E+02  1.05733E+02  9.64541E+01  1.10736E+02  8.73883E+01  8.00959E+01  5.47331E+01
   6.07413E+01  6.21131E+01  5.61426E+01  3.82427E+01  3.15725E+01  8.52595E+00 -3.03704E+00  9.05613E+00  1.37550E+00  3.54153E+01
   5.43114E+00  6.19917E+00  1.37291E+01  6.99619E+00  3.33720E+01 -1.00676E+01  1.45204E+01  2.41305E+01  1.10464E+01  2.21783E+01
   9.16406E+00  3.66208E+01  3.83888E+01  1.87036E+01 -1.50375E+00  1.07718E+01  1.96616E+01  1.54301E+01  4.49482E+01  2.47643E+01
   1.08564E+01  2.88200E+01  2.42847E+01  1.61617E+01  2.13284E+01  3.06574E+01  3.08945E+01  2.40471E+01  1.95758E+01  3.75906E+01
   3.29245E+01  1.39795E+01  2.05559E+01  2.21302E+01  3.39375E+01  3.22535E+01  2.14757E+01  4.37894E+01  2.41479E+01  8.61245E+00
   3.46720E+01  2.95568E+01  3.33924E+01  3.04565E+01  2.36210E+01  3.22392E+01  4.29922E+01  4.15997E+01  1.61597E+01  1.48364E+01
   2.68889E+01  3.72098E+01  2.04152E+01  2.71715E+01  5.31814E+01  2.93688E+01  2.16254E+01  3.34559E+01  3.58559E+01  2.52595E+01
   1.99121E+01  2.57984E+01  3.75484E+01  3.79721E+01  2.66503E+01  2.36623E+01  2.94096E+01  3.24029E+01  2.27240E+01  4.44298E+01
 NY points of the fit to the data follow
   5.42161E+01  5.75997E+01  5.84324E+01  5.64077E+01  5.26680E+01  4.83032E+01  4.51975E+01  4.40583E+01  4.43116E+01  4.49411E+01
   4.47263E+01  4.18862E+01  3.63064E+01  2.99269E+01  2.33961E+01  1.82099E+01  1.55244E+01  1.33403E+01  1.29106E+01  1.54516E+01
   2.00977E+01  2.74122E+01  3.89611E+01  5.36699E+01  7.07747E+01  8.73479E+01  9.51905E+01  9.49516E+01  9.54874E+01  9.67294E+01
   9.76283E+01  9.77772E+01  9.68688E+01  9.37839E+01  8.90282E+01  8.20051E+01  7.35099E+01  6.43181E+01  5.42626E+01  4.45011E+01
   3.66548E+01  3.14740E+01  3.05041E+01  3.61884E+01  4.91867E+01  6.74214E+01  8.89008E+01  1.06571E+02  1.17535E+02  1.22977E+02
   1.23567E+02  1.21354E+02  1.18706E+02  1.15612E+02  1.11699E+02  1.08427E+02  1.05069E+02  1.00932E+02  9.79133E+01  9.59027E+01
   9.41536E+01  9.37984E+01  9.50231E+01  9.64453E+01  9.97569E+01  1.04639E+02  1.07371E+02  1.08873E+02  1.09695E+02  1.07712E+02
   1.03607E+02  9.88830E+01  9.57204E+01  9.52231E+01  9.84972E+01  1.05488E+02  1.11952E+02  1.16828E+02  1.20479E+02  1.22591E+02
   1.20772E+02  1.15879E+02  1.08792E+02  9.99100E+01  8.98249E+01  8.08625E+01  7.54668E+01  7.49536E+01  7.95117E+01  8.92076E+01
   9.89510E+01  1.08947E+02  1.16255E+02  1.21453E+02  1.25475E+02  1.28689E+02  1.31569E+02  1.33542E+02  1.34297E+02  1.34902E+02
   1.33001E+02  1.29646E+02  1.23823E+02  1.14684E+02  1.01227E+02  8.44154E+01  6.47581E+01  4.40802E+01  2.64752E+01  1.29890E+01
   3.17997E+00 -6.85497E-01 -2.78507E+00 -8.37463E-01  4.58057E+00  1.56208E+01  2.87896E+01  3.96921E+01  4.88803E+01  5.72864E+01
   6.53653E+01  7.35780E+01  8.19870E+01  9.08233E+01  1.00749E+02  1.12577E+02  1.21645E+02  1.29302E+02  1.36226E+02  1.38511E+02
   1.34818E+02  1.25702E+02  1.08371E+02  8.33508E+01  5.45606E+01  2.40094E+01  2.17143E-01 -4.40294E+00 -1.01573E+00  1.70392E+00
   3.30014E+00  4.47171E+00  5.51054E+00  6.58619E+00  7.67368E+00  8.80995E+00  1.02540E+01  1.21970E+01  1.47650E+01  1.75991E+01
   2.05455E+01  2.35647E+01  2.63122E+01  2.87547E+01  3.10792E+01  3.34203E+01  3.58465E+01  3.82292E+01  4.02720E+01  4.20630E+01
   4.36392E+01  4.52229E+01  4.69370E+01  4.90535E+01  5.13761E+01  5.38139E+01  5.65472E+01  5.93984E+01  6.27032E+01  6.62189E+01
   6.92563E+01  7.10584E+01  7.22793E+01  7.38742E+01  7.49986E+01  7.47079E+01  7.07656E+01  6.34009E+01  5.61097E+01  5.12667E+01
   4.84817E+01  4.57767E+01  4.26657E+01  3.88773E+01  3.58158E+01  3.40861E+01  3.35998E+01  3.37462E+01  3.47738E+01  3.73130E+01
   4.00016E+01  4.33953E+01  4.76693E+01  5.22191E+01  5.66435E+01  6.04122E+01  6.25547E+01  6.35079E+01  6.56080E+01  6.64440E+01
   6.57319E+01  6.62556E+01  6.72294E+01  6.87721E+01  6.96841E+01  7.00522E+01  7.03784E+01  6.97079E+01  6.71611E+01  6.23003E+01
   5.81612E+01  5.43522E+01  5.24638E+01  5.42679E+01  5.95626E+01  6.76260E+01  7.83917E+01  8.92295E+01  9.74778E+01  1.02855E+02
   1.03517E+02  9.92080E+01  9.48891E+01  8.88487E+01  8.34832E+01  7.89013E+01  7.32558E+01  6.54996E+01  5.56096E+01  4.33538E+01
   2.89704E+01  1.49214E+01  5.94318E-01 -1.24663E+01 -2.17812E+01 -2.76167E+01 -2.91873E+01 -2.45280E+01 -1.60685E+01 -5.88488E+00
   6.10392E+00  1.65205E+01  2.25142E+01  2.84006E+01  3.22251E+01  3.38723E+01  3.56817E+01  3.41136E+01  2.77695E+01  2.45016E+01
   1.65767E+01  7.76203E+00  4.60204E+00  8.62709E+00  1.97194E+01  4.37594E+01  8.10198E+01  1.24803E+02  1.70762E+02  2.02747E+02
   2.08033E+02  2.13055E+02  2.17853E+02  2.16121E+02  2.07014E+02  1.97751E+02  1.89410E+02  1.81798E+02  1.74641E+02  1.67723E+02
   1.61549E+02  1.56411E+02  1.52632E+02  1.50474E+02  1.49810E+02  1.50075E+02  1.50998E+02  1.52336E+02  1.53517E+02  1.54246E+02
   1.54619E+02  1.54193E+02  1.52952E+02  1.50803E+02  1.48047E+02  1.44873E+02  1.41228E+02  1.37228E+02  1.32935E+02  1.28477E+02
   1.23836E+02  1.19071E+02  1.14432E+02  1.10074E+02  1.06387E+02  1.03691E+02  1.02048E+02  1.01684E+02  1.02562E+02  1.04377E+02
   1.06731E+02  1.09360E+02  1.12088E+02  1.14877E+02  1.17701E+02  1.20514E+02  1.23217E+02  1.25930E+02  1.28685E+02  1.31474E+02
   1.34294E+02  1.37139E+02  1.39804E+02  1.42243E+02  1.44637E+02  1.47010E+02  1.49016E+02  1.48359E+02  1.47004E+02  1.42506E+02
   1.33331E+02  1.20663E+02  1.02609E+02  7.78409E+01  4.91112E+01  1.90397E+01 -8.95267E+00 -2.69001E+01 -3.18411E+01 -3.20638E+01
  -2.61540E+01 -1.97709E+01 -1.74021E+01 -1.58170E+01 -1.36536E+01 -1.03281E+01 -5.85113E+00 -6.86495E-01  4.71628E+00  9.82088E+00
   1.43806E+01  1.84854E+01  2.24943E+01  2.64995E+01  3.05168E+01  3.43312E+01  3.74059E+01  3.94253E+01  4.02978E+01  3.99446E+01
   3.85957E+01  3.63841E+01  3.34504E+01  2.98854E+01  2.60046E+01  2.23900E+01  1.94358E+01  1.76401E+01  1.73049E+01  1.84161E+01
   2.07191E+01  2.39166E+01  2.77839E+01  3.20445E+01  3.64719E+01  4.09165E+01  4.52647E+01  4.94875E+01  5.35780E+01  5.77396E+01
   6.19296E+01  6.62494E+01  7.08017E+01  7.56540E+01  8.08288E+01  8.65196E+01  9.28384E+01  9.97416E+01  1.07268E+02  1.15438E+02
   1.23972E+02  1.32773E+02  1.41432E+02  1.49455E+02  1.56305E+02  1.61552E+02  1.64368E+02  1.64086E+02  1.60522E+02  1.53807E+02
   1.44418E+02  1.33346E+02  1.21791E+02  1.10714E+02  1.00462E+02  9.09852E+01  8.17355E+01  7.23972E+01  6.29185E+01  5.32598E+01
   4.39096E+01  3.54465E+01  2.83015E+01  2.24764E+01  1.81172E+01  1.50028E+01  1.27297E+01  1.11258E+01  1.00613E+01  9.33889E+00
   8.82746E+00  8.44509E+00  8.27662E+00  8.31379E+00  8.57320E+00  8.91089E+00  9.28740E+00  9.70085E+00  1.01420E+01  1.06220E+01
   1.10555E+01  1.14900E+01  1.20061E+01  1.26426E+01  1.31530E+01  1.35632E+01  1.40867E+01  1.46366E+01  1.51691E+01  1.57142E+01
   1.62902E+01  1.68575E+01  1.74046E+01  1.78297E+01  1.81783E+01  1.86198E+01  1.91553E+01  1.97494E+01  2.03972E+01  2.10400E+01
   2.15904E+01  2.21329E+01  2.26170E+01  2.30316E+01  2.34463E+01  2.37810E+01  2.41081E+01  2.44714E+01  2.49099E+01  2.54010E+01
   2.59753E+01  2.64334E+01  2.68619E+01  2.73381E+01  2.78192E+01  2.83171E+01  2.89342E+01  2.94922E+01  2.99608E+01  3.03963E+01
   3.08089E+01  3.11701E+01  3.15575E+01  3.18894E+01  3.22314E+01  3.25880E+01  3.30773E+01  3.36162E+01  3.42388E+01  3.48210E+01
   3.53317E+01  3.57345E+01  3.59439E+01  3.60747E+01  3.63106E+01  3.66479E+01  3.70645E+01  3.75474E+01  3.80098E+01  3.84815E+01
 NY background values follow
     7.935E+01    7.952E+01    7.968E+01    7.985E+01    8.001E+01    8.018E+01    8.034E+01    8.051E+01    8.067E+01    8.084E+01
     8.100E+01    8.117E+01    8.133E+01    8.149E+01    8.165E+01    8.181E+01    8.197E+01    8.213E+01    8.229E+01    8.244E+01
     8.260E+01    8.275E+01    8.290E+01    8.305E+01    8.320E+01    8.334E+01    8.349E+01    8.363E+01    8.377E+01    8.391E+01
     8.404E+01    8.418E+01    8.431E+01    8.444E+01    8.456E+01    8.468E+01    8.480E+01    8.492E+01    8.504E+01    8.515E+01
     8.525E+01    8.536E+01    8.546E+01    8.556E+01    8.566E+01    8.575E+01    8.584E+01    8.592E+01    8.600E+01    8.608E+01
     8.615E+01    8.622E+01    8.629E+01    8.635E+01    8.641E+01    8.646E+01    8.651E+01    8.656E+01    8.660E+01    8.664E+01
     8.667E+01    8.670E+01    8.672E+01    8.674E+01    8.675E+01    8.676E+01    8.677E+01    8.677E+01    8.677E+01    8.677E+01
     8.676E+01    8.675E+01    8.674E+01    8.672E+01    8.670E+01    8.668E+01    8.666E+01    8.663E+01    8.660E+01    8.657E+01
     8.654E+01    8.650E+01    8.647E+01    8.643E+01    8.639E+01    8.635E+01    8.631E+01    8.627E+01    8.623E+01    8.618E+01
     8.614E+01    8.610E+01    8.605E+01    8.601E+01    8.596E+01    8.592E+01    8.587E+01    8.583E+01    8.579E+01    8.574E+01
     8.570E+01    8.566E+01    8.562E+01    8.558E+01    8.554E+01    8.551E+01    8.547E+01    8.544E+01    8.541E+01    8.538E+01
     8.535E+01    8.532E+01    8.530E+01    8.528E+01    8.526E+01    8.524E+01    8.523E+01    8.522E+01    8.521E+01    8.520E+01
     8.520E+01    8.520E+01    8.521E+01    8.522E+01    8.523E+01    8.524E+01    8.526E+01    8.527E+01    8.530E+01    8.532E+01
     8.535E+01    8.538E+01    8.541E+01    8.544E+01    8.548E+01    8.552E+01    8.556E+01    8.560E+01    8.564E+01    8.569E+01
     8.574E+01    8.578E+01    8.583E+01    8.589E+01    8.594E+01    8.599E+01    8.605E+01    8.611E+01    8.616E+01    8.622E+01
     8.628E+01    8.634E+01    8.640E+01    8.647E+01    8.653E+01    8.659E+01    8.665E+01    8.672E+01    8.678E+01    8.684E+01
     8.690E+01    8.697E+01    8.703E+01    8.709E+01    8.715E+01    8.721E+01    8.727E+01    8.732E+01    8.738E+01    8.744E+01
     8.749E+01    8.754E+01    8.759E+01    8.764E+01    8.769E+01    8.774E+01    8.778E+01    8.782E+01    8.786E+01    8.790E+01
     8.793E+01    8.797E+01    8.800E+01    8.802E+01    8.805E+01    8.807E+01    8.809E+01    8.810E+01    8.812E+01    8.813E+01
     8.813E+01    8.814E+01    8.814E+01    8.813E+01    8.813E+01    8.812E+01    8.810E+01    8.808E+01    8.806E+01    8.804E+01
     8.801E+01    8.798E+01    8.794E+01    8.790E+01    8.786E+01    8.781E+01    8.776E+01    8.770E+01    8.764E+01    8.758E+01
     8.751E+01    8.743E+01    8.735E+01    8.727E+01    8.718E+01    8.709E+01    8.699E+01    8.689E+01    8.678E+01    8.666E+01
     8.655E+01    8.642E+01    8.629E+01    8.616E+01    8.601E+01    8.587E+01    8.571E+01    8.556E+01    8.539E+01    8.522E+01
     8.504E+01    8.486E+01    8.467E+01    8.447E+01    8.427E+01    8.406E+01    8.384E+01    8.362E+01    8.339E+01    8.315E+01
     8.290E+01    8.265E+01    8.239E+01    8.212E+01    8.185E+01    8.157E+01    8.128E+01    8.098E+01    8.067E+01    8.036E+01
     8.003E+01    7.970E+01    7.936E+01    7.901E+01    7.865E+01    7.828E+01    7.791E+01    7.752E+01    7.713E+01    7.672E+01
     7.631E+01    7.588E+01    7.545E+01    7.500E+01    7.455E+01    7.408E+01    7.360E+01    7.312E+01    7.262E+01    7.211E+01
     7.159E+01    7.106E+01    7.052E+01    6.997E+01    6.941E+01    6.884E+01    6.825E+01    6.766E+01    6.706E+01    6.645E+01
     6.583E+01    6.519E+01    6.455E+01    6.391E+01    6.325E+01    6.258E+01    6.191E+01    6.122E+01    6.053E+01    5.983E+01
     5.912E+01    5.841E+01    5.768E+01    5.695E+01    5.622E+01    5.547E+01    5.472E+01    5.396E+01    5.319E+01    5.242E+01
     5.164E+01    5.086E+01    5.007E+01    4.928E+01    4.848E+01    4.769E+01    4.689E+01    4.609E+01    4.529E+01    4.449E+01
     4.369E+01    4.289E+01    4.210E+01    4.131E+01    4.053E+01    3.975E+01    3.898E+01    3.822E+01    3.746E+01    3.671E+01
     3.598E+01    3.525E+01    3.454E+01    3.384E+01    3.315E+01    3.247E+01    3.181E+01    3.117E+01    3.054E+01    2.993E+01
     2.934E+01    2.876E+01    2.820E+01    2.767E+01    2.715E+01    2.664E+01    2.616E+01    2.569E+01    2.524E+01    2.481E+01
     2.440E+01    2.401E+01    2.363E+01    2.327E+01    2.293E+01    2.260E+01    2.229E+01    2.200E+01    2.173E+01    2.148E+01
     2.124E+01    2.102E+01    2.081E+01    2.063E+01    2.046E+01    2.031E+01    2.017E+01    2.005E+01    1.995E+01    1.986E+01
     1.979E+01    1.974E+01    1.971E+01    1.969E+01    1.968E+01    1.969E+01    1.971E+01    1.975E+01    1.980E+01    1.987E+01
     1.995E+01    2.004E+01    2.014E+01    2.026E+01    2.038E+01    2.052E+01    2.067E+01    2.083E+01    2.100E+01    2.118E+01
     2.136E+01    2.156E+01    2.177E+01    2.198E+01    2.220E+01    2.243E+01    2.266E+01    2.290E+01    2.315E+01    2.341E+01
     2.367E+01    2.393E+01    2.420E+01    2.447E+01    2.475E+01    2.503E+01    2.532E+01    2.561E+01    2.590E+01    2.620E+01
     2.649E+01    2.679E+01    2.709E+01    2.739E+01    2.770E+01    2.800E+01    2.831E+01    2.861E+01    2.891E+01    2.922E+01
     2.952E+01    2.982E+01    3.013E+01    3.042E+01    3.072E+01    3.102E+01    3.131E+01    3.160E+01    3.188E+01    3.217E+01
     3.244E+01    3.272E+01    3.299E+01    3.326E+01    3.352E+01    3.378E+01    3.404E+01    3.429E+01    3.454E+01    3.478E+01
     3.502E+01    3.526E+01    3.549E+01    3.573E+01    3.595E+01    3.618E+01    3.640E+01    3.661E+01    3.683E+01    3.704E+01
     3.725E+01    3.745E+01    3.765E+01    3.785E+01    3.804E+01    3.824E+01    3.843E+01    3.861E+01    3.879E+01    3.897E+01
     3.915E+01    3.932E+01    3.950E+01    3.967E+01    3.983E+01    4.000E+01    4.016E+01    4.032E+01    4.048E+01    4.063E+01
     4.079E+01    4.094E+01    4.109E+01    4.124E+01    4.139E+01    4.154E+01    4.168E+01    4.183E+01    4.197E+01    4.212E+01
     4.226E+01    4.240E+01    4.254E+01    4.269E+01    4.283E+01    4.297E+01    4.311E+01    4.325E+01    4.340E+01    4.354E+01
 Mac      Conc. = 3.66E-04
   5.37169E+01  5.31660E+01  5.25043E+01  5.18284E+01  5.11295E+01  5.02724E+01  4.91743E+01  4.78806E+01  4.64323E+01  4.49375E+01
   4.36032E+01  4.25893E+01  4.20151E+01  4.16759E+01  4.14991E+01  4.16378E+01  4.21222E+01  4.31738E+01  4.51351E+01  4.82428E+01
   5.23233E+01  5.69146E+01  6.11619E+01  6.45019E+01  6.73996E+01  6.99067E+01  7.19407E+01  7.38399E+01  7.58674E+01  7.79544E+01
   7.99213E+01  8.16805E+01  8.31650E+01  8.42956E+01  8.51903E+01  8.60016E+01  8.68356E+01  8.78159E+01  8.91260E+01  9.07838E+01
   9.25313E+01  9.40249E+01  9.50301E+01  9.56289E+01  9.61629E+01  9.68541E+01  9.74698E+01  9.77077E+01  9.74349E+01  9.66091E+01
   9.54815E+01  9.43062E+01  9.32535E+01  9.24029E+01  9.19238E+01  9.19140E+01  9.22126E+01  9.28629E+01  9.38477E+01  9.50014E+01
   9.62861E+01  9.74600E+01  9.82426E+01  9.85787E+01  9.86435E+01  9.83095E+01  9.77052E+01  9.72389E+01  9.71098E+01  9.73871E+01
   9.81569E+01  9.93034E+01  1.00809E+02  1.02531E+02  1.04227E+02  1.05329E+02  1.05655E+02  1.05471E+02  1.04992E+02  1.04327E+02
   1.03735E+02  1.03281E+02  1.03114E+02  1.03196E+02  1.03532E+02  1.04085E+02  1.04853E+02  1.05720E+02  1.06508E+02  1.07105E+02
   1.07574E+02  1.07744E+02  1.07600E+02  1.07080E+02  1.06208E+02  1.04792E+02  1.02840E+02  1.00418E+02  9.75844E+01  9.44219E+01
   9.11461E+01  8.76382E+01  8.38673E+01  7.97231E+01  7.49985E+01  6.96938E+01  6.41682E+01  5.88060E+01  5.40553E+01  5.06060E+01
