 
 $NMID
 ID=''
 FMTDAT='(2E13.5)'
 TRAMP=   1.00000E+0
 VOLUME=   1.00000E+0
 $END
  -2.21811E+4   8.49636E+3
  -4.20685E+3   2.31504E+4
   2.36721E+4  -3.60671E+3
   1.20498E+3  -1.70474E+4
  -1.30301E+4   1.26663E+4
   9.74041E+3   5.80354E+3
   5.01356E+3  -1.79001E+4
  -8.97923E+3   9.86334E+2
   5.94257E+3   9.89131E+3
   6.00212E+3  -7.45348E+3
  -8.75253E+3  -6.02481E+2
  -1.97147E+3   8.47143E+3
   3.32055E+3  -2.06026E+3
  -3.97313E+3  -3.69930E+2
  -2.65062E+3   3.93698E+3
   7.95750E+2  -3.93418E+3
  -7.95030E+2  -1.27995E+3
   1.13034E+3   3.88990E+3
   5.95880E+2  -1.10812E+3
  -1.75598E+3  -9.69397E+2
   5.89654E+2   1.75715E+3
  -1.75182E+2  -1.67920E+3
  -4.44680E+2  -7.48304E+2
   1.52075E+3   2.29739E+3
  -1.18940E+3  -6.15138E+2
  -1.60012E+3  -2.02612E+3
   3.19729E+3   7.65206E+2
   7.88161E+2   2.53803E+3
  -3.05467E+3   9.05723E+2
   2.14675E+1  -8.65595E+2
   1.46691E+3  -3.70525E+1
  -6.47679E+2   2.49659E+3
  -1.12352E+3   1.28698E+3
  -1.83688E+3  -7.47370E+2
  -1.64892E+3  -1.56122E+3
   1.44655E+3  -2.06019E+3
   1.79185E+3  -1.20074E+2
   4.48806E+2   2.05532E+3
   2.06811E+2   1.52244E+2
   1.26503E+2  -4.40251E+2
  -8.02139E+2   1.74552E+3
  -6.67564E+2   6.73630E+2
  -3.92421E+2  -2.18996E+3
   6.78939E+2  -8.41322E+2
   1.44796E+3  -1.90591E+2
   1.21615E+3  -3.36969E+2
   7.54939E+2   1.58796E+3
  -2.53439E+2   2.40277E+3
  -1.86248E+3  -2.64259E+2
  -1.31695E+3  -1.21148E+3
   4.44425E+1  -7.76619E+2
   7.40228E+1  -7.34440E+2
  -9.31327E+1  -5.97043E+2
   8.86997E+2  -1.56929E+2
   1.04888E+3  -6.75394E+1
  -1.52904E+2   3.79111E+2
  -8.59198E+2   8.98601E+2
  -7.92671E+2  -2.79351E+2
  -3.94367E+2  -1.79944E+3
   4.88298E+2  -1.04872E+3
   8.97215E+2  -2.93551E+2
   8.27419E+2  -2.50590E+2
   6.77487E+2   7.83082E+2
   8.63754E+0   1.59496E+3
  -1.66250E+3   8.97159E+2
  -2.26218E+3  -2.55587E+2
  -1.37388E+3  -1.10893E+3
  -8.62989E+1  -1.65707E+3
   4.26681E+2  -9.50951E+2
   5.23236E+2   3.49756E+2
  -6.69412E+2   2.50907E+2
  -7.60970E+2  -8.87124E+2
   6.51314E+2  -8.66455E+2
   1.07651E+3   3.86156E+2
  -7.77583E+1   5.93309E+2
  -5.16194E+2  -2.04716E+2
   2.23420E+1  -2.01518E+2
   4.40560E+2   4.24970E+2
   2.00635E+2   7.21944E+2
  -6.69355E+2   5.41373E+2
  -9.56012E+2  -1.70018E+1
  -5.12769E+2  -1.54453E+2
  -2.35908E+2  -2.79700E+2
  -4.02285E+2  -2.75430E+1
  -5.97431E+2  -6.41005E+1
  -2.86196E+2  -5.92480E+2
   2.72917E+2  -8.90973E+2
   3.90779E+2   2.43979E+2
   2.26604E+2   2.25306E+2
   4.41208E+1  -1.42900E+2
   6.29356E+2  -5.61715E+2
   8.94863E+2   2.61897E+2
   2.40197E+2   1.05700E+3
  -7.29226E+2   1.09297E+3
  -8.45348E+2  -1.71557E+2
  -4.38073E+2  -1.21960E+3
  -1.00924E+2  -6.26203E+2
   2.88114E+2   1.48358E+2
  -2.24213E+2  -3.96198E+2
  -1.91657E+1  -6.05411E+2
   8.54936E+2  -1.41300E+2
   6.08342E+2   6.75683E+2
  -5.68731E+2   4.00604E+2
  -8.99352E+2  -2.38531E+2
  -1.17477E+1  -8.40008E+2
   7.51674E+2  -2.57735E+2
   6.28366E+2   4.28485E+2
  -6.27318E+2   7.13314E+2
  -1.28305E+3  -5.13077E+2
  -4.63720E+2  -1.21456E+3
   8.81449E+2  -9.34661E+2
   1.08505E+3   1.54609E+2
   2.76150E+2   4.44339E+2
   1.90439E+1   1.69202E+2
   3.21288E+2   2.77204E+2
   6.94323E+1   6.02313E+2
  -4.73899E+2   7.62171E+2
  -1.18062E+3   1.46338E+2
  -8.94524E+2  -9.22954E+2
  -9.23752E+1  -1.05956E+3
   7.69868E+2  -6.79688E+2
   5.75234E+2   1.55902E+2
   5.98408E+2   1.29916E+2
   3.59775E+2   4.16441E+2
  -1.88338E+2   3.83711E+2
  -2.92517E+2   1.62838E+2
  -3.35381E+2  -3.18669E+2
  -1.16912E+2  -4.65270E+2
   3.90207E+2  -4.20971E+2
   5.69808E+2   9.35813E+1
   7.86555E+0   5.64524E+2
  -6.27430E+2   3.48872E+2
  -6.74281E+2  -2.10000E+2
   1.50643E+2  -4.92346E+2
   7.57630E+1  -2.96395E+2
  -1.90014E+2  -3.28160E+2
  -8.43793E+1  -2.45803E+2
   5.56069E+2  -8.44198E+1
   5.22311E+2   2.78608E+2
   1.07596E+2   7.91859E+2
  -4.59039E+2   3.89480E+2
  -4.11163E+2  -4.64574E+2
   2.35280E+2  -7.87015E+2
   8.80174E+2  -1.88699E+2
   3.71806E+2   6.74918E+2
   7.68562E+1   6.60081E+2
  -3.64743E+2   1.66989E+2
  -1.33141E+2   2.60356E+2
  -4.67753E+2   1.44252E+2
  -4.13290E+2  -1.17549E+2
  -3.96717E+2  -5.25131E+2
   2.19185E+1  -6.26563E+2
   5.81977E+2  -3.54448E+2
   5.64304E+2   1.81740E+2
   1.19162E+2   3.68678E+2
  -2.14723E+2  -2.47394E+1
   3.68750E+2  -2.39602E+2
   2.97225E+2   1.56900E+2
   1.76637E+1   3.25168E+2
  -6.09037E+1  -2.98366E+1
   5.48703E+1   6.81985E+1
   1.57455E+2   1.77088E+2
  -4.66454E+1   3.66518E+2
  -4.32947E+2   6.23331E+1
  -4.06498E+2  -4.92797E+2
  -5.00156E+1  -4.49417E+2
   4.56915E+2  -5.68989E+1
   1.70675E+2   1.75285E+2
  -4.62766E+1  -8.09959E+1
  -1.39578E+2  -2.62786E+2
   1.66496E+2  -3.56946E+2
   2.68232E+2  -3.58573E+1
  -4.13744E+1   4.92679E+2
   7.31370E+1  -4.30817E+1
  -2.24795E+2  -3.76951E+1
   3.61126E+2  -2.03976E+2
   3.66125E+2   3.16115E+2
  -1.52214E+2   2.85491E+2
  -4.19874E+2  -2.86371E+2
   4.32145E+2  -5.60196E+2
   6.05663E+2   1.00899E+2
   4.07446E+2   2.11119E+2
  -2.76109E+2   4.09987E+2
  -1.44909E+2   1.09762E+2
  -2.54253E+2   1.75975E+1
  -1.21378E+2  -9.63802E+1
  -1.90859E+2  -2.16844E+2
  -1.55084E+2  -4.39291E+2
   3.64630E+2  -6.87831E+2
   1.03780E+3  -1.74751E+2
   7.89778E+2   3.69118E+2
  -1.73941E+2   5.26226E+2
  -6.73481E+2   6.03994E+2
  -3.84349E+2  -2.13867E+2
   1.14626E+2  -3.55926E+2
   8.81005E+1  -2.51136E+2
   1.16605E+2   7.44101E+1
   3.73358E+1  -1.73091E+1
   2.18252E+2   2.33760E+0
   3.85553E+1   6.01413E+1
  -9.48201E+1   2.25861E+2
  -5.53164E+2   8.20717E+1
  -8.19469E+1  -3.24648E+2
   2.75987E+2  -2.54779E+2
   3.09579E+2  -1.27347E+2
   7.33626E+1   1.74603E+2
  -1.22845E+2  -8.20813E+1
  -4.58781E+1  -1.62975E+2
   2.20722E+2  -6.52992E+1
   1.42411E+2  -4.59689E+1
  -4.50490E+1   2.37611E+1
  -7.67173E+1  -3.78147E+2
   7.20240E+2  -3.72461E+2
   4.69809E+2   2.23051E+2
  -1.61606E+2   4.18109E+2
  -6.25946E+2   1.78748E+2
  -5.14099E+2  -2.45446E+2
   7.02481E+1  -2.76024E+2
   1.83409E+2  -2.07362E+2
  -3.33469E+0  -1.91600E+2
  -3.29963E+1  -1.19572E+2
   3.49093E+2  -9.19894E+1
   9.77552E+1  -2.64116E+2
   1.11476E+2   5.86806E+1
  -3.31004E+2   3.54042E+2
  -4.07508E+2  -3.04782E+2
   1.36872E+2  -2.58915E+2
   3.03851E+2  -3.15658E+2
   1.50569E+2   2.61660E+2
  -6.63490E+1   1.57580E+2
  -4.12780E+2  -1.80532E+2
   3.42708E+2  -2.50955E+2
   1.55913E+2   2.35223E+2
  -1.43097E+1  -1.56097E+1
  -3.91690E+2   2.83414E+1
  -4.34114E+1  -8.75432E+1
   4.09549E+2  -1.02254E+2
   1.62682E+2   2.47678E+2
  -3.02873E+1   2.60367E+0
  -2.06024E+2  -8.24606E+1
   2.12499E+2  -1.76610E+2
   2.75665E+2   2.41683E+1
  -2.50249E+1   3.07490E+2
  -2.46926E+2   3.51186E+2
  -1.81321E+2  -1.46026E+2
  -7.95724E+1  -1.71687E+2
  -9.08834E+1   2.94616E+1
  -2.22355E+2   1.04162E+2
  -1.72620E+1  -3.94783E+1
   1.89399E+2  -3.03603E+2
   1.55134E+2  -1.68996E+1
  -3.21528E+1   3.00465E+2
  -3.52400E+2   1.04808E+2
  -2.13494E+2  -2.20239E+0
  -4.76739E+1  -2.80724E+2
   2.66449E+2  -3.02517E+2
   3.87751E+2   3.73584E+1
   1.95771E+2   3.72398E-1
  -1.31605E+2  -1.02403E+2
   1.57909E+2  -3.22941E+1
  -5.12463E+1   4.06125E+2
  -3.88787E+2   2.68519E+2
  -3.87263E+2  -3.89329E+2
   2.46710E+2  -5.03436E+2
   3.59418E+2  -1.34372E+2
   3.08269E+2   8.32671E+1
   5.29635E+1   2.80370E+2
  -3.91634E+2   2.14762E+2
  -5.05830E+1   1.97877E+1
   2.77911E+1  -1.34813E+2
   1.08265E+2   1.40753E+2
   2.58183E+2  -1.13371E+1
   2.37959E+2  -2.35846E+2
   2.43111E+2  -3.27867E+1
   3.75917E+2   1.22503E+2
  -1.21334E+2   1.80298E+2
  -8.77551E+1   2.44725E+2
  -3.07617E+2  -2.55184E+2
   1.27329E+2  -4.97563E+2
   1.78130E+2  -1.74061E+2
  -1.40306E+2   1.93796E+2
   2.69739E+2   1.86810E+2
   4.74994E+2  -1.48201E+2
   3.52543E+2   1.38240E+2
  -2.04459E+2   1.47380E+2
  -1.76618E+2   2.09787E+2
  -1.22272E+2  -6.39112E+2
   1.99281E+2  -4.92792E+2
   4.31750E+2  -8.58209E+1
   3.58818E+2   2.94353E+2
  -1.56463E+2  -5.32487E+1
  -4.00908E+1   8.84409E+1
   5.19378E+1  -1.71029E+1
   1.07774E+2   8.56702E+1
  -9.96342E+1  -3.55889E+1
  -5.69278E+1  -9.00366E+1
   6.64189E+1   3.89083E+1
   1.08117E+2  -2.28163E+2
  -7.33397E+1   1.94451E+2
  -1.79237E+2  -5.94870E+1
  -3.03708E+2  -3.01980E+2
   4.63013E+2  -1.00758E+2
  -3.04262E+1   2.49855E+2
   8.07786E+1   3.47587E+2
  -3.54859E+2   3.55536E+1
  -6.70953E+0  -2.47917E+2
   1.47586E+2  -2.18880E+2
  -1.31193E+2  -2.36315E+2
  -7.13170E+1   4.00064E+1
  -1.28868E+2   7.35191E+1
   6.21940E+1  -4.55726E+1
   5.30714E+1  -1.64987E+2
   1.29509E+2   1.23031E+2
  -1.67480E+2   6.80004E+1
  -1.71533E+2   7.83415E+1
  -1.46075E+2  -1.21571E+2
   2.44198E+2   1.04791E+2
   8.96137E+1   1.82121E+2
  -2.32015E+2   1.93507E+1
  -2.50389E+1  -2.87713E+1
   2.54607E+1   1.02640E+1
   9.66969E+1   2.82339E+2
  -1.71401E+2   2.01303E+2
  -1.17434E+2  -3.23516E+2
   6.75257E+1  -2.85457E+2
   2.89906E+2   1.17261E+2
   2.47050E+2   2.56756E+2
   2.07926E+1   4.19874E+2
  -3.03166E+2   1.49798E+2
  -2.01080E+0  -3.39642E+1
  -1.13351E+2  -9.79959E+0
  -1.35062E+1  -4.36908E+1
  -1.75883E+2  -9.90657E+1
   3.54967E+2  -2.39728E+2
   3.16907E+2   5.97433E+1
   4.48149E+1   2.86739E+2
  -1.76336E+2   3.34442E+2
  -3.47159E+2   1.02302E+2
  -1.48346E+2  -1.72489E+2
   4.10405E+1  -2.32635E+2
   3.10602E+2   3.98866E+1
   1.24293E+2  -2.17147E+1
  -2.65475E+2   1.06833E+2
   1.13963E+1  -2.11011E+1
   2.85832E+2   2.28802E+1
  -1.58836E+2   4.05189E+1
  -1.17807E+2  -1.26244E+2
  -1.21287E+2   3.22044E+1
   3.14060E+2  -1.72688E+2
   1.60253E+2   2.12464E+2
   6.79261E+1   3.38020E+2
  -3.60517E+2   3.75005E+1
  -1.33581E+0   1.22292E+1
  -1.60480E+1   1.61829E+2
  -6.59724E+1   1.40870E+2
   7.39563E+1  -2.37223E+2
  -1.00403E+1  -1.74669E+2
   1.87408E+2  -1.29875E+2
   4.05879E+1   4.79596E+2
  -2.51475E+2   2.88519E+2
  -2.35685E+2   2.15257E+2
  -2.12013E+2  -3.53067E+2
   5.85957E+1  -2.02199E+2
   1.76732E+2  -2.25819E+2
   1.51448E+2   1.84660E+2
   9.76588E+1   3.22855E+2
   6.26536E+1   2.82205E+2
