 
 $NMID
 ID=''
 FMTDAT='(2E13.5)'
 TRAMP=   1.00000E+0
 VOLUME=   1.00000E+0
 $END
   4.16451E+5   6.30768E+5
   4.10053E+5   1.91452E+6
   5.53729E+5   1.81593E+6
   3.95525E+5   1.79681E+6
   3.94811E+5   1.89868E+6
   4.09228E+5   1.79961E+6
   2.77876E+5   1.76113E+6
   2.51303E+5   1.85398E+6
   2.90255E+5   1.81516E+6
   2.16799E+5   1.76296E+6
   1.63263E+5   1.78664E+6
   1.50710E+5   1.76916E+6
   1.10332E+5   1.75354E+6
   9.26453E+4   1.75427E+6
   6.77645E+4   1.71688E+6
   1.98589E+4   1.70394E+6
   1.13499E+3   1.71677E+6
  -2.67920E+4   1.68625E+6
  -8.11218E+4   1.66610E+6
  -1.05933E+5   1.66523E+6
  -1.34762E+5   1.64022E+6
  -1.77443E+5   1.62241E+6
  -1.99837E+5   1.61266E+6
  -2.27543E+5   1.58826E+6
  -2.66905E+5   1.56955E+6
  -2.79190E+5   1.55650E+6
  -3.00165E+5   1.53390E+6
  -3.30484E+5   1.51915E+6
  -3.48587E+5   1.50102E+6
  -3.66925E+5   1.47673E+6
  -3.97505E+5   1.46121E+6
  -4.18228E+5   1.44291E+6
  -4.42930E+5   1.41727E+6
  -4.68978E+5   1.39791E+6
  -4.88350E+5   1.37581E+6
  -5.11043E+5   1.35265E+6
  -5.37521E+5   1.33612E+6
  -5.59994E+5   1.31318E+6
  -5.79853E+5   1.28565E+6
  -5.98868E+5   1.26689E+6
  -6.15163E+5   1.24530E+6
  -6.32007E+5   1.21962E+6
  -6.45610E+5   1.19843E+6
  -6.59237E+5   1.17907E+6
  -6.75071E+5   1.15597E+6
  -6.90909E+5   1.13510E+6
  -7.06587E+5   1.11287E+6
  -7.25288E+5   1.08724E+6
  -7.41212E+5   1.06036E+6
  -7.55479E+5   1.03600E+6
  -7.71492E+5   1.01282E+6
  -7.87741E+5   9.89028E+5
  -8.01878E+5   9.64175E+5
  -8.16749E+5   9.40196E+5
  -8.30234E+5   9.16597E+5
  -8.42788E+5   8.92193E+5
  -8.54584E+5   8.67398E+5
  -8.64533E+5   8.43276E+5
  -8.72361E+5   8.21156E+5
  -8.82117E+5   7.99299E+5
  -8.92576E+5   7.75882E+5
  -9.01663E+5   7.52749E+5
  -9.11143E+5   7.30587E+5
  -9.20324E+5   7.06100E+5
  -9.27930E+5   6.80159E+5
  -9.34396E+5   6.56150E+5
  -9.40154E+5   6.33265E+5
  -9.45916E+5   6.10121E+5
  -9.52506E+5   5.87384E+5
  -9.59026E+5   5.64702E+5
  -9.63305E+5   5.41465E+5
  -9.65970E+5   5.19336E+5
  -9.69460E+5   4.98743E+5
  -9.73661E+5   4.77552E+5
  -9.76287E+5   4.55205E+5
  -9.77415E+5   4.33432E+5
  -9.79303E+5   4.12341E+5
  -9.81329E+5   3.90908E+5
  -9.82244E+5   3.69296E+5
  -9.82382E+5   3.47096E+5
  -9.82475E+5   3.25322E+5
  -9.81553E+5   3.04331E+5
  -9.80228E+5   2.84278E+5
  -9.78802E+5   2.63133E+5
  -9.76707E+5   2.42093E+5
  -9.73415E+5   2.22933E+5
  -9.70370E+5   2.04837E+5
  -9.67019E+5   1.85952E+5
  -9.63296E+5   1.67478E+5
  -9.58527E+5   1.50394E+5
  -9.53636E+5   1.34037E+5
  -9.49107E+5   1.16808E+5
  -9.44627E+5   9.88728E+4
  -9.38267E+5   8.18040E+4
  -9.31196E+5   6.55093E+4
  -9.24357E+5   4.95114E+4
  -9.17968E+5   3.41994E+4
  -9.11681E+5   1.84924E+4
  -9.04363E+5   3.03873E+3
  -8.96590E+5  -1.19296E+4
  -8.89207E+5  -2.58525E+4
  -8.82002E+5  -4.03950E+4
  -8.73510E+5  -5.52900E+4
  -8.63803E+5  -6.85625E+4
  -8.54975E+5  -8.07370E+4
  -8.47279E+5  -9.21187E+4
  -8.39050E+5  -1.04276E+5
  -8.29373E+5  -1.16897E+5
  -8.19051E+5  -1.29049E+5
  -8.09301E+5  -1.38706E+5
  -8.00424E+5  -1.48831E+5
  -7.91530E+5  -1.60463E+5
  -7.82013E+5  -1.72340E+5
  -7.71730E+5  -1.83233E+5
  -7.61631E+5  -1.93800E+5
  -7.51596E+5  -2.04306E+5
  -7.41441E+5  -2.15054E+5
  -7.30363E+5  -2.24829E+5
  -7.18979E+5  -2.33262E+5
  -7.08625E+5  -2.40630E+5
  -6.99125E+5  -2.48879E+5
  -6.89299E+5  -2.57342E+5
  -6.78991E+5  -2.65362E+5
  -6.68444E+5  -2.73424E+5
  -6.57791E+5  -2.81392E+5
  -6.46434E+5  -2.88905E+5
  -6.35222E+5  -2.95271E+5
  -6.24722E+5  -3.02076E+5
  -6.13982E+5  -3.08915E+5
  -6.03302E+5  -3.15907E+5
  -5.92080E+5  -3.23215E+5
  -5.80353E+5  -3.30162E+5
  -5.68799E+5  -3.35939E+5
  -5.57827E+5  -3.41336E+5
  -5.46830E+5  -3.47136E+5
  -5.35343E+5  -3.52809E+5
  -5.24199E+5  -3.57474E+5
  -5.13764E+5  -3.61626E+5
  -5.02909E+5  -3.66595E+5
  -4.91865E+5  -3.71467E+5
  -4.79977E+5  -3.75519E+5
  -4.69176E+5  -3.78383E+5
  -4.58536E+5  -3.81438E+5
  -4.48365E+5  -3.84704E+5
  -4.37962E+5  -3.88564E+5
  -4.26938E+5  -3.91422E+5
  -4.15899E+5  -3.93564E+5
  -4.05143E+5  -3.95763E+5
  -3.94609E+5  -3.97684E+5
  -3.84518E+5  -3.99058E+5
  -3.74185E+5  -4.00769E+5
  -3.64338E+5  -4.01558E+5
  -3.55045E+5  -4.02317E+5
  -3.45727E+5  -4.03351E+5
  -3.35869E+5  -4.04328E+5
  -3.26212E+5  -4.04672E+5
  -3.17198E+5  -4.04352E+5
  -3.08513E+5  -4.04737E+5
  -2.99138E+5  -4.04629E+5
  -2.90206E+5  -4.04152E+5
  -2.81842E+5  -4.04050E+5
  -2.73047E+5  -4.03564E+5
  -2.63984E+5  -4.02620E+5
  -2.55272E+5  -4.01814E+5
  -2.47033E+5  -4.00410E+5
  -2.39308E+5  -3.98859E+5
  -2.31407E+5  -3.97795E+5
  -2.23646E+5  -3.97187E+5
  -2.15802E+5  -3.95768E+5
  -2.08399E+5  -3.93946E+5
  -2.01239E+5  -3.92124E+5
  -1.94185E+5  -3.90346E+5
  -1.86759E+5  -3.88621E+5
  -1.79851E+5  -3.86858E+5
  -1.72961E+5  -3.84787E+5
  -1.65988E+5  -3.82716E+5
  -1.59144E+5  -3.81266E+5
  -1.51911E+5  -3.79241E+5
  -1.44533E+5  -3.76470E+5
  -1.38289E+5  -3.73953E+5
  -1.32228E+5  -3.71918E+5
  -1.25694E+5  -3.70268E+5
  -1.19155E+5  -3.68105E+5
  -1.12507E+5  -3.65559E+5
  -1.06421E+5  -3.62762E+5
  -1.00645E+5  -3.60143E+5
  -9.47974E+4  -3.57548E+5
  -8.88788E+4  -3.54485E+5
  -8.37167E+4  -3.51752E+5
  -7.89964E+4  -3.49457E+5
  -7.31103E+4  -3.47050E+5
  -6.72697E+4  -3.44625E+5
  -6.11850E+4  -3.41918E+5
  -5.57257E+4  -3.38899E+5
  -5.05339E+4  -3.35795E+5
  -4.52866E+4  -3.33117E+5
  -4.02407E+4  -3.30298E+5
  -3.50876E+4  -3.27301E+5
  -2.98558E+4  -3.24334E+5
  -2.47936E+4  -3.21572E+5
  -1.93419E+4  -3.18635E+5
  -1.43853E+4  -3.14940E+5
  -9.90357E+3  -3.11348E+5
  -5.85417E+3  -3.08267E+5
  -1.32258E+3  -3.05573E+5
   3.22764E+3  -3.02381E+5
   7.78863E+3  -2.98985E+5
   1.18366E+4  -2.95715E+5
   1.59252E+4  -2.92169E+5
   2.00161E+4  -2.88931E+5
   2.46714E+4  -2.85656E+5
   2.85316E+4  -2.81966E+5
   3.17921E+4  -2.78667E+5
   3.54962E+4  -2.75471E+5
   3.97600E+4  -2.72486E+5
   4.34871E+4  -2.68543E+5
   4.65356E+4  -2.65093E+5
   4.94764E+4  -2.61451E+5
   5.25023E+4  -2.57792E+5
   5.54285E+4  -2.54512E+5
   5.85731E+4  -2.51127E+5
   6.11848E+4  -2.47527E+5
   6.39023E+4  -2.44117E+5
   6.66626E+4  -2.40918E+5
   6.95030E+4  -2.37478E+5
   7.20488E+4  -2.33406E+5
   7.39517E+4  -2.29944E+5
   7.57270E+4  -2.26994E+5
   7.83718E+4  -2.23501E+5
   8.09226E+4  -2.19904E+5
   8.30232E+4  -2.16419E+5
   8.43969E+4  -2.12972E+5
   8.61084E+4  -2.09848E+5
   8.80233E+4  -2.06593E+5
   8.98049E+4  -2.03127E+5
   9.09598E+4  -2.00063E+5
   9.26743E+4  -1.96800E+5
   9.40147E+4  -1.93618E+5
   9.55589E+4  -1.90473E+5
   9.68187E+4  -1.87088E+5
   9.79982E+4  -1.83835E+5
   9.89041E+4  -1.81004E+5
   1.00255E+5  -1.78037E+5
   1.01747E+5  -1.74905E+5
   1.02689E+5  -1.71395E+5
   1.03490E+5  -1.68537E+5
   1.04621E+5  -1.65662E+5
   1.06113E+5  -1.62630E+5
   1.06559E+5  -1.59284E+5
   1.07093E+5  -1.56358E+5
   1.07649E+5  -1.53938E+5
   1.08811E+5  -1.51474E+5
   1.10001E+5  -1.48151E+5
   1.10450E+5  -1.44988E+5
   1.10632E+5  -1.41981E+5
   1.11285E+5  -1.39711E+5
   1.12079E+5  -1.36958E+5
   1.13120E+5  -1.34405E+5
   1.13434E+5  -1.31299E+5
   1.14397E+5  -1.28589E+5
   1.15118E+5  -1.25766E+5
   1.15720E+5  -1.22691E+5
   1.16117E+5  -1.19667E+5
   1.16307E+5  -1.17012E+5
   1.16422E+5  -1.14793E+5
   1.16830E+5  -1.12221E+5
   1.17717E+5  -1.09378E+5
   1.17950E+5  -1.06650E+5
   1.17909E+5  -1.03834E+5
   1.18229E+5  -1.01491E+5
   1.18467E+5  -9.91346E+4
   1.18765E+5  -9.64007E+4
   1.18757E+5  -9.40965E+4
   1.18981E+5  -9.18647E+4
   1.19306E+5  -8.94008E+4
   1.19466E+5  -8.70876E+4
   1.19276E+5  -8.38615E+4
   1.19300E+5  -8.16331E+4
   1.19165E+5  -7.94606E+4
   1.19463E+5  -7.72871E+4
   1.19303E+5  -7.46515E+4
   1.19083E+5  -7.25137E+4
   1.19015E+5  -7.02949E+4
   1.18959E+5  -6.80227E+4
   1.18957E+5  -6.59729E+4
   1.18607E+5  -6.36753E+4
   1.18240E+5  -6.12098E+4
   1.17451E+5  -5.93696E+4
   1.17359E+5  -5.78033E+4
   1.17433E+5  -5.57784E+4
   1.17352E+5  -5.37142E+4
   1.16678E+5  -5.12332E+4
   1.15927E+5  -4.94945E+4
   1.15428E+5  -4.74537E+4
   1.15221E+5  -4.55565E+4
   1.14969E+5  -4.36271E+4
   1.14152E+5  -4.16756E+4
   1.13496E+5  -4.02190E+4
   1.13406E+5  -3.81211E+4
   1.12687E+5  -3.62223E+4
   1.11792E+5  -3.43955E+4
   1.10929E+5  -3.30557E+4
   1.10511E+5  -3.13424E+4
   1.10332E+5  -2.94879E+4
   1.09533E+5  -2.77346E+4
   1.08353E+5  -2.56363E+4
   1.07623E+5  -2.43061E+4
   1.07107E+5  -2.28277E+4
   1.06530E+5  -2.11465E+4
   1.05697E+5  -1.99791E+4
   1.04656E+5  -1.82511E+4
   1.04246E+5  -1.68750E+4
   1.03423E+5  -1.54402E+4
   1.03023E+5  -1.35674E+4
   1.01699E+5  -1.19810E+4
   1.00832E+5  -1.07736E+4
   9.98914E+4  -9.81672E+3
   9.90639E+4  -8.30257E+3
   9.82943E+4  -6.88690E+3
   9.74150E+4  -5.41556E+3
   9.64998E+4  -4.33312E+3
   9.59044E+4  -3.09540E+3
   9.46911E+4  -1.61104E+3
   9.37086E+4  -1.34863E+2
   9.26482E+4   8.49302E+2
   9.19739E+4   1.58801E+3
   9.11597E+4   2.87651E+3
   9.05164E+4   4.24375E+3
   8.92890E+4   5.86497E+3
   8.79581E+4   6.46260E+3
   8.71063E+4   7.22328E+3
   8.63159E+4   8.42179E+3
   8.51561E+4   9.54218E+3
   8.43666E+4   1.04246E+4
   8.33181E+4   1.13545E+4
   8.27272E+4   1.26571E+4
   8.14989E+4   1.36580E+4
   8.05221E+4   1.46673E+4
   7.92421E+4   1.53144E+4
   7.81459E+4   1.61898E+4
   7.73420E+4   1.70248E+4
   7.65169E+4   1.79226E+4
   7.51679E+4   1.88660E+4
   7.44334E+4   1.95688E+4
   7.33791E+4   2.02011E+4
   7.21490E+4   2.10768E+4
   7.10341E+4   2.15906E+4
   6.97515E+4   2.24242E+4
   6.88807E+4   2.31836E+4
   6.80604E+4   2.35184E+4
   6.75412E+4   2.45346E+4
   6.61579E+4   2.54709E+4
   6.47680E+4   2.57827E+4
   6.38711E+4   2.64577E+4
   6.30541E+4   2.67070E+4
   6.19473E+4   2.75637E+4
   6.06823E+4   2.77562E+4
   5.97240E+4   2.81276E+4
   5.89432E+4   2.87728E+4
   5.79270E+4   2.95944E+4
   5.66490E+4   3.02014E+4
   5.53076E+4   3.03867E+4
   5.45206E+4   3.07044E+4
   5.37133E+4   3.10615E+4
   5.27113E+4   3.15961E+4
   5.14763E+4   3.21437E+4
   5.05210E+4   3.22942E+4
