 
 $NMID
 ID=''
 FMTDAT='(2E13.5)'
 TRAMP=   1.00000E+0
 VOLUME=   1.00000E+0
 $END
  -2.23272E+4  -7.11007E+3
  -4.68465E+4   5.66679E+3
  -1.45393E+4   4.93493E+4
   3.70016E+4   3.50060E+4
   4.10705E+4  -2.02523E+4
   3.73560E+3  -4.26851E+4
  -2.95004E+4  -1.89932E+4
  -3.04189E+4   1.83896E+4
  -1.16731E+2   3.39143E+4
   2.62083E+4   1.12775E+4
   1.98671E+4  -2.08350E+4
  -5.33863E+3  -2.47537E+4
  -2.18275E+4  -4.26861E+3
  -1.45867E+4   1.27380E+4
   8.71119E+3   1.35311E+4
   1.91135E+4   1.74624E+3
   4.58814E+3  -1.02902E+4
  -9.18022E+3  -1.02734E+4
  -8.28490E+3   1.28768E+3
  -8.89656E+2   9.76940E+3
   5.27304E+3   5.84282E+3
   6.43099E+3  -3.05791E+3
   3.82927E+0  -5.03774E+3
  -5.02476E+3  -1.65091E+3
  -2.33915E+3   1.83850E+3
   1.60018E+3   3.98041E+3
   1.66683E+3   2.06729E+3
   4.78733E+2  -2.96529E+3
  -3.64192E+2  -2.97912E+3
  -5.94766E+2   9.93562E+2
  -7.78679E+2   2.17162E+3
  -1.25130E+2  -5.61528E+1
   8.70296E+2  -1.56079E+3
   1.54757E+3  -1.47166E+3
   1.21582E+3   3.95119E+2
  -1.54699E+2   2.16224E+3
  -1.13801E+3   5.91165E+2
  -6.85694E+2  -1.30604E+3
   6.55651E+2  -1.55931E+2
   2.29396E+2   1.79045E+2
   2.26491E+2  -1.08464E+3
   8.76067E+2  -9.39375E+2
   1.22334E+2   4.77926E+2
  -7.70210E+2   1.20291E+3
  -3.14775E+2   1.02470E+3
  -2.48949E+2   4.22385E+2
  -1.18123E+3  -8.69406E+2
  -3.67987E+2  -2.56077E+3
   5.14076E+2  -1.01051E+3
   4.96252E+0   1.29167E+3
   3.82098E+2   1.15600E+3
   9.77428E+2   8.92546E-2
   6.86669E+2  -5.84614E+2
  -1.01393E+3  -2.04718E+2
  -1.80928E+3   2.54399E+2
  -6.56734E+2   4.43921E+2
   9.49585E+2   2.94227E+2
   1.34096E+3   7.36213E+1
   4.85221E+2   2.13730E+2
  -9.23224E+2   4.47363E+2
  -1.56661E+3   4.10611E+2
  -9.12871E+2   9.39923E+2
  -5.29240E+2   2.49553E+2
   1.18939E+2  -1.44201E+3
   6.84331E+2  -1.70596E+3
   5.92444E+2  -3.71163E+2
   3.05732E+2   9.47031E+2
   5.07305E+2   1.59685E+3
  -1.58079E+1   9.41897E+2
   1.71345E+2  -2.34605E+2
   4.28842E+2  -5.02938E+2
   1.88445E+2   7.49882E+2
  -4.94073E+2   1.17901E+3
  -1.00300E+3   1.37211E+2
   3.13312E+2  -3.10942E+2
   6.52929E+2  -1.28500E+2
   8.17009E+1  -1.25744E+2
  -6.36208E+2  -3.09555E+2
  -7.34720E+1  -2.38412E+2
   4.82698E+2  -2.16091E+2
   7.45436E+2   1.83144E+2
   6.13437E+2   1.15697E+2
   2.30148E+2   3.80757E+1
   2.90876E+2  -1.90212E+2
   3.25587E+2  -2.18594E+1
  -5.09094E+1   6.93221E+2
  -2.11208E+2   8.87659E+2
   3.37101E+1   2.48647E+2
   5.79147E+2  -3.68666E+2
  -4.44022E+1  -1.40408E+2
  -4.78792E+2   3.08038E+2
  -8.62820E+2  -1.71154E+2
  -1.32221E+2  -7.77293E+2
   7.37511E+2  -4.47590E+2
   8.82977E+2   3.73738E+0
   2.80746E+2   3.31772E+2
  -4.11273E+2  -4.81489E+1
  -1.94431E+2  -9.31974E+1
   1.39428E+2   2.88993E+2
   1.71579E+1   5.24384E+2
  -7.60469E+2  -1.66835E+2
  -4.89134E+2  -9.65666E+2
   1.65886E+1  -3.33107E+2
   3.80284E+2   7.40022E+2
   1.37934E+2   7.20476E+2
  -4.42333E+2   3.57463E+2
  -4.73273E+2  -7.21096E+2
   1.57552E+2  -7.89787E+2
   6.42124E+2   3.10028E+2
  -3.20482E+1   1.06050E+3
  -7.30680E+2   5.20064E+2
  -5.07350E+2  -1.18128E+2
   8.10051E+1  -4.47790E+2
  -3.20856E+2  -1.21661E+2
  -5.19696E+2   1.22527E+2
  -3.19786E+2  -1.08796E+2
   6.22247E+2  -7.38119E+2
   9.00079E+2  -3.36347E+1
   5.07880E+2   5.86451E+2
  -1.03626E+2   5.26161E+2
  -5.31255E+2   2.99803E+2
  -5.31017E+2   8.35794E+1
  -3.93486E+2   1.65881E+2
  -2.20216E+2  -3.29093E+2
  -6.64074E+1  -3.76508E+2
   2.41215E+2  -9.69521E+1
   2.37944E+0   1.99788E+2
  -4.76481E+1   4.71736E+2
  -2.15838E+2   2.63413E+2
  -3.03497E+2  -2.38912E+2
  -1.19496E+2  -7.46969E+2
   4.54286E+2  -2.68539E+2
   1.20755E+2   3.41445E+2
  -4.03919E+2   1.88094E+2
   1.47326E+2  -4.54168E+1
   1.11827E+2   3.04884E+1
   1.46017E+1   3.62899E+2
  -5.61735E+2   1.63775E+2
  -2.67898E+2  -4.57483E+2
   1.78203E+2  -3.04315E+2
   3.60389E+2  -1.33040E+2
   8.39510E+1   4.25188E+2
  -3.29958E+2   1.10867E+2
  -2.88433E+2  -3.61062E+2
  -1.86792E+2  -4.94847E+2
   4.54607E+2  -3.08400E+2
   3.71944E+2  -7.70018E+1
   1.57075E+2  -3.64327E+1
   2.76833E+2  -3.10005E+2
   3.48139E+2  -2.19140E+2
   1.70276E+2   4.26281E+2
  -1.82893E+2   5.40530E+2
  -6.03700E+2  -2.52669E+1
  -2.52121E+2  -4.03776E+2
   2.06975E+2  -5.48068E+1
  -1.67172E+2   7.30094E+0
  -2.61006E+2   8.37202E+1
   9.66268E+1   1.72014E+1
   1.79014E+2  -1.12114E+2
   1.85916E+2  -1.74144E+2
   3.95896E+1  -2.38336E+2
   8.44863E+1   6.57263E+0
   4.13172E+2  -2.81775E+1
   2.48576E+2   1.70639E+2
  -1.21274E+2   2.27385E+2
   1.12565E+1   4.56124E+1
  -1.06053E+2  -6.00727E+1
   1.96316E+2  -3.71650E+2
   5.27849E-1  -1.68830E+2
  -5.41924E+0   3.02949E+2
  -1.46145E+2   1.36276E+2
   3.56070E+0  -5.49779E+1
   2.94998E+2  -3.26449E+2
   1.78281E+2   1.59145E+2
  -8.42232E+1   5.68436E+0
  -2.23642E+2  -3.23087E+2
   2.93632E+2  -3.24948E+2
   5.80362E+2   8.95048E+0
   2.80221E+2   3.70736E+2
  -2.84646E+2  -4.17476E+1
  -1.36849E+2  -1.03662E+2
  -4.96889E+0  -3.90316E+2
   3.56189E+2  -1.90615E+2
   1.51253E+2   1.18192E+2
   1.11359E+2   2.87678E+1
   1.63117E+2  -2.45243E+2
   1.72052E+2  -1.57155E+2
   1.25867E+2   4.77667E+2
  -3.28307E+2   1.83967E+2
  -5.86290E+2  -4.05788E+2
   5.88998E+1  -5.47147E+2
   2.70207E+2  -4.85034E+2
   3.53449E+2   3.42879E+1
   2.24051E+1   2.29445E+2
  -2.17733E+2  -2.37358E+2
  -4.26460E+1  -2.02822E+2
  -1.33986E+2  -8.48909E+1
   8.38508E+1  -1.06561E+2
   3.26714E+1  -1.55549E+2
   3.97667E+2  -1.90721E+2
   3.91127E+2  -2.23655E+2
   1.67501E+2   2.91433E+2
  -2.46550E+2   1.76084E+2
  -1.65345E+2  -4.72569E+1
   2.58683E+1  -9.88888E+1
   2.71635E+2  -1.31722E+2
  -1.44443E+2  -1.76283E+2
  -3.82610E+1  -5.10080E+1
  -3.91935E+1  -1.95019E+2
   4.82511E+1   5.48423E+0
   1.28235E+2   1.11100E+2
  -2.12324E+2   9.33648E-1
  -4.17774E+2  -2.28890E+2
  -6.07446E+1  -5.67438E+2
   2.44432E+2  -2.12038E+2
   3.37525E+2  -1.61110E+1
  -1.93094E+2   1.99915E+2
  -2.20305E+2   1.70575E+1
   4.71581E+1  -2.76983E+2
  -7.51652E+1   2.64293E+2
  -3.00435E+2   1.68577E+2
  -9.26120E+1  -5.18744E+0
   2.29921E+1  -1.82514E+2
   1.29845E+2  -1.56114E+2
   3.78085E+2  -6.53108E+1
  -1.02284E+2   2.04168E+2
  -8.12925E+1  -1.54883E+2
  -1.79360E+2  -4.08846E+2
   2.26271E+2  -1.08298E+2
   1.18594E+2   1.07409E+2
  -7.63754E+1   1.93652E+2
  -1.12153E+2  -1.01562E+1
   3.44877E+1  -2.29200E+2
   1.62042E+2   1.27031E+2
   9.75549E+1   1.72638E+2
  -3.89125E+1  -7.15260E+1
   1.37816E+2  -2.59790E+2
   9.21381E+1   5.81108E+0
   5.44830E+1  -5.08513E+1
  -1.48941E+2   8.13167E+1
  -1.94222E+2  -6.81606E+1
   1.12421E+2  -2.44606E+2
   8.96494E+0  -1.88352E+2
   1.35475E+2  -1.04262E+1
  -1.61957E+1   1.52365E+2
   1.22366E+2  -2.64982E+2
   2.17030E+2   5.22574E+1
   1.18136E+2   3.18310E+2
  -1.80690E+2  -4.75780E+1
  -2.76351E+2  -1.10962E+2
   3.19010E+1  -1.23346E+2
   5.97944E+1  -3.06201E+2
   3.40657E+2  -1.83522E+2
   9.69417E+0   1.66015E+2
  -4.19763E+2  -5.86720E+1
  -1.36708E+1  -3.00252E+2
   1.62125E+1  -5.31846E+1
   1.79792E+2   6.65296E+1
   6.85539E+1  -1.66812E+2
  -7.04380E+1  -5.51932E+1
   2.24812E+2  -2.11591E+2
   2.52485E+2   1.32680E+2
  -1.03300E+2   1.08985E+2
  -2.44433E+2  -1.46076E+2
   1.65105E+2  -2.77434E+2
   1.09620E+2  -2.20348E+2
   1.48567E+2  -2.10876E+2
  -6.51285E+1   1.64330E+1
   3.14482E+1  -2.61306E+1
   8.59812E+1   1.69864E+0
   1.45588E+0   6.27200E+1
  -1.45926E+2   7.07490E+1
  -7.52243E+1   1.21018E+2
  -8.37097E+1  -8.93456E+1
  -1.02575E+2  -3.53173E+2
  -5.62048E+0   6.70437E+1
   1.55037E+2   1.72306E+2
  -2.80601E+1   2.46273E+2
  -2.74901E+2  -1.53326E+2
  -7.24850E+1   2.46876E+1
  -3.93661E+0   6.78886E+1
   5.41631E+1   2.98270E+1
   8.37473E+0   1.28818E+2
  -1.66813E+1  -2.39301E+2
   1.84393E+2   8.76297E+1
  -4.54497E+0   8.91909E+1
  -1.69999E+2   1.97010E+2
  -2.88857E+2  -1.41356E+2
  -1.67081E+2   2.72115E+1
  -9.70585E+1  -9.02668E+1
   1.51009E+2   2.66250E+2
   1.88553E+2   1.11860E+2
   1.76914E+2  -1.01772E+2
   4.96942E+0   7.90304E+0
  -1.57542E+1  -1.14246E+1
  -1.19908E+1   8.85631E+1
  -1.63683E+2  -6.77262E+1
  -1.11699E+2  -6.07520E+1
   1.51096E+2   1.48834E+2
   2.87561E+1   7.63407E+1
  -2.62888E+1  -1.37133E+2
  -9.47291E+1  -9.67630E+1
   2.92090E+1  -3.45701E+2
   1.55784E+2   1.96846E+2
   2.11509E+2   1.24637E+2
  -7.68392E+1   2.12835E+2
  -6.93864E+1  -3.71888E+1
   6.28965E+1  -1.65555E+2
  -4.40259E+1   1.99485E+2
  -9.39442E+1  -2.34287E+1
  -1.01198E+2  -1.17987E+2
   5.53382E+1  -2.25939E+2
   2.32337E+2   6.13115E+1
  -2.32445E+1   1.56177E+2
  -1.18561E+1   8.70628E+1
  -1.60886E+2   6.03459E+1
   6.95395E+1  -6.03777E+1
   9.83223E+1  -4.82006E+1
  -1.25433E+2  -3.50234E+1
   1.37819E+2   1.09094E+2
  -1.22382E+2  -9.98574E+1
   1.82625E+2   2.84758E+2
   1.39253E+2  -2.51014E+1
  -2.03841E+2  -8.20353E+1
  -5.51950E+1  -1.50331E+2
  -2.27301E+2  -1.93994E+2
   8.92759E+1  -4.96043E+1
   1.18697E+2   1.68940E+2
  -5.20993E+1   1.17788E+2
  -5.19510E+1   8.28104E+1
   2.26962E+1  -4.04248E+1
   1.06847E+1  -6.30911E+1
  -1.50076E+2  -1.75155E+2
  -2.57842E+1  -1.81315E+2
  -1.00904E+2  -1.68326E+2
   2.77814E+1  -7.79599E+1
   2.15687E+2   2.05234E+2
  -1.45236E+2   3.32010E+2
  -1.79743E+2  -1.87974E+0
   9.92158E+1   1.63251E+2
   6.87793E+1  -2.66145E+1
  -1.12912E+2   1.47922E+2
  -1.26434E+2   1.28864E+2
  -3.11843E+1  -7.97451E+1
   1.99451E+2  -2.64754E+1
  -1.78050E+2   6.51991E+1
   1.18160E+1   1.49691E+2
  -1.76225E+2  -6.18111E+1
  -2.57892E+2  -6.08970E+0
   8.74910E+1  -6.18716E+1
  -1.58058E+1  -2.19864E+1
   6.26055E+1   9.52005E+1
  -7.19385E+1   1.54251E+2
   6.52549E+1  -1.42113E+2
  -7.93891E+1   2.98098E+2
   9.44620E+1   1.86595E+2
  -1.98316E+2   2.78248E+1
  -1.38372E+2  -1.81693E+2
  -1.50365E+2  -5.57111E+1
   1.48239E+2   5.29368E+1
   2.18395E+1  -4.23210E+1
   1.04094E+2   6.30334E+1
  -1.88233E+2   6.27547E+1
  -1.57177E+2  -1.11669E+2
  -1.90360E+2   3.65804E+1
   4.05472E+1   1.50208E+2
  -1.22116E+2   1.10754E+1
