 LCModel (Version 6.3-1N) Copyright: S.W. Provencher.          Ref.: Magn. Reson. Med. 30:672-679 (1993).                
 Slice_N1@9_19  28-Feb-2025 11:44:44
 27 lines in following concentration table = NCONC+1
    Conc.  %SD /Cr+PCr  Metabolite                                         
 2.77E-04   4% 3.1E-04 Mac                                                 
    5.199  35%   5.818 Cr                                                  
    1.950  91%   2.182 PCr                                                 
    5.442  17%   6.091 Ins                                                 
    9.116   9%  10.202 NAA                                                 
    6.751  14%   7.555 Tau                                                 
    0.588 179%   0.658 PCho                                                
    1.475  69%   1.651 GPC                                                 
   10.311  11%  11.539 Glu                                                 
    4.957  18%   5.547 Gln                                                 
    0.000 999%   0.000 Ala                                                 
    2.773  47%   3.103 Asc                                                 
    1.495  70%   1.673 Asp                                                 
    0.330 170%   0.370 GABA                                                
    0.771  94%   0.863 Glc                                                 
    2.050  27%   2.294 GSH                                                 
    0.000 999%   0.000 Lac                                                 
    2.457  27%   2.750 NAAG                                                
    0.000 999%   0.000 PE                                                  
    2.063  12%   2.309 GPC+PCho                                            
   11.573   7%  12.951 NAA+NAAG                                            
   15.267   9%  17.086 Glu+Gln                                             
    7.148  10%   8.000 Cr+PCr                                              
   11.573   7%  12.951 NAA+NAAG                                            
    7.148  10%   8.000 Cr+PCr                                              
   15.267   9%  17.086 Glu+Gln                                             
   6 lines in following misc. output table
  FWHM = 0.049 ppm    S/N =   3                                            
  Data shift = 0.033 ppm                                                   
  Ph:-123 deg       0.0 deg/ppm                                            
  alphaB,S = 1.5E-01,   1.2E+01                                            
   19 spline knots.   Ns = 5(1)                                            
  ( 3) 1 infls.   ( 4) 2 extrs.                                            
  480 points on ppm-axis = NY
      4.100000     4.091866     4.083733     4.075600     4.067466     4.059333     4.051199     4.043066     4.034933     4.026799
      4.018666     4.010532     4.002399     3.994265     3.986132     3.977998     3.969864     3.961731     3.953597     3.945463
      3.937330     3.929196     3.921062     3.912929     3.904795     3.896662     3.888528     3.880394     3.872261     3.864127
      3.855993     3.847860     3.839726     3.831592     3.823459     3.815325     3.807191     3.799058     3.790924     3.782790
      3.774657     3.766523     3.758389     3.750256     3.742122     3.733989     3.725855     3.717721     3.709588     3.701454
      3.693320     3.685187     3.677053     3.668919     3.660786     3.652652     3.644518     3.636385     3.628251     3.620117
      3.611984     3.603850     3.595716     3.587583     3.579449     3.571316     3.563182     3.555048     3.546915     3.538781
      3.530647     3.522514     3.514380     3.506246     3.498113     3.489979     3.481845     3.473712     3.465578     3.457444
      3.449311     3.441177     3.433043     3.424910     3.416776     3.408643     3.400509     3.392375     3.384242     3.376108
      3.367974     3.359841     3.351707     3.343573     3.335440     3.327306     3.319172     3.311039     3.302905     3.294771
      3.286638     3.278504     3.270370     3.262237     3.254103     3.245970     3.237836     3.229702     3.221569     3.213435
      3.205301     3.197168     3.189034     3.180900     3.172767     3.164633     3.156499     3.148366     3.140232     3.132098
      3.123965     3.115831     3.107697     3.099564     3.091430     3.083297     3.075163     3.067029     3.058896     3.050762
      3.042628     3.034495     3.026361     3.018227     3.010094     3.001960     2.993826     2.985693     2.977559     2.969425
      2.961292     2.953158     2.945024     2.936891     2.928757     2.920624     2.912490     2.904356     2.896223     2.888089
      2.879955     2.871822     2.863688     2.855554     2.847421     2.839287     2.831153     2.823020     2.814886     2.806752
      2.798619     2.790485     2.782351     2.774218     2.766084     2.757951     2.749817     2.741683     2.733550     2.725416
      2.717282     2.709149     2.701015     2.692881     2.684748     2.676614     2.668480     2.660347     2.652213     2.644079
      2.635946     2.627812     2.619678     2.611545     2.603411     2.595278     2.587144     2.579010     2.570877     2.562743
      2.554609     2.546476     2.538342     2.530208     2.522075     2.513941     2.505807     2.497674     2.489540     2.481406
      2.473273     2.465139     2.457006     2.448872     2.440738     2.432605     2.424471     2.416337     2.408204     2.400070
      2.391936     2.383803     2.375669     2.367535     2.359402     2.351268     2.343134     2.335001     2.326867     2.318733
      2.310600     2.302466     2.294333     2.286199     2.278065     2.269932     2.261798     2.253664     2.245531     2.237397
      2.229263     2.221130     2.212996     2.204862     2.196729     2.188595     2.180461     2.172328     2.164194     2.156060
      2.147927     2.139793     2.131660     2.123526     2.115392     2.107259     2.099125     2.090991     2.082858     2.074724
      2.066590     2.058457     2.050323     2.042189     2.034056     2.025922     2.017788     2.009655     2.001521     1.993387
      1.985254     1.977120     1.968987     1.960853     1.952719     1.944586     1.936452     1.928318     1.920185     1.912051
      1.903917     1.895784     1.887650     1.879516     1.871383     1.863249     1.855115     1.846982     1.838848     1.830714
      1.822581     1.814447     1.806314     1.798180     1.790046     1.781913     1.773779     1.765645     1.757512     1.749378
      1.741244     1.733111     1.724977     1.716843     1.708710     1.700576     1.692442     1.684309     1.676175     1.668041
      1.659908     1.651774     1.643641     1.635507     1.627373     1.619240     1.611106     1.602972     1.594839     1.586705
      1.578571     1.570438     1.562304     1.554170     1.546037     1.537903     1.529769     1.521636     1.513502     1.505368
      1.497235     1.489101     1.480968     1.472834     1.464700     1.456567     1.448433     1.440299     1.432166     1.424032
      1.415898     1.407765     1.399631     1.391497     1.383364     1.375230     1.367096     1.358963     1.350829     1.342695
      1.334562     1.326428     1.318295     1.310161     1.302027     1.293894     1.285760     1.277626     1.269493     1.261359
      1.253225     1.245092     1.236958     1.228824     1.220691     1.212557     1.204423     1.196290     1.188156     1.180022
      1.171889     1.163755     1.155622     1.147488     1.139354     1.131221     1.123087     1.114953     1.106820     1.098686
      1.090552     1.082419     1.074285     1.066151     1.058018     1.049884     1.041750     1.033617     1.025483     1.017349
      1.009216     1.001082     0.992949     0.984815     0.976681     0.968548     0.960414     0.952280     0.944147     0.936013
      0.927879     0.919746     0.911612     0.903478     0.895345     0.887211     0.879077     0.870944     0.862810     0.854676
      0.846543     0.838409     0.830276     0.822142     0.814008     0.805875     0.797741     0.789607     0.781474     0.773340
      0.765206     0.757073     0.748939     0.740805     0.732672     0.724538     0.716404     0.708271     0.700137     0.692003
      0.683870     0.675736     0.667603     0.659469     0.651335     0.643202     0.635068     0.626934     0.618801     0.610667
      0.602533     0.594400     0.586266     0.578132     0.569999     0.561865     0.553731     0.545598     0.537464     0.529330
      0.521197     0.513063     0.504930     0.496796     0.488662     0.480529     0.472395     0.464261     0.456128     0.447994
      0.439861     0.431727     0.423593     0.415460     0.407326     0.399192     0.391059     0.382925     0.374792     0.366658
      0.358524     0.350391     0.342257     0.334124     0.325990     0.317856     0.309723     0.301589     0.293455     0.285322
      0.277188     0.269055     0.260921     0.252787     0.244654     0.236520     0.228386     0.220253     0.212119     0.203986
 NY phased data points follow
  -5.53187E+01 -3.92526E+01 -4.87433E+01 -5.12670E+01 -2.54595E+01 -2.63379E+01 -4.47274E+01 -3.76627E+01 -3.10847E+01 -3.25611E+01
  -4.33776E+01 -6.92767E+01 -4.83376E+01 -4.11332E+01 -5.58469E+01 -6.18656E+01 -4.83487E+01 -5.08864E+01 -7.49563E+01 -8.13441E+01
  -9.12585E+01 -1.12804E+02 -1.14874E+02 -5.96622E+01 -3.93517E+01 -4.12590E+01 -1.53655E+01 -5.37264E-01 -4.59712E+00 -2.14750E+01
  -1.51485E+01 -7.35532E+00 -1.84715E+01 -1.29446E+01 -2.79597E+00 -1.34320E+01 -1.07319E+01 -3.08763E+01 -4.18894E+01 -3.91974E+01
  -6.75444E+01 -6.70358E+01 -8.06330E+01 -7.05302E+01 -3.90479E+01 -5.07290E+01 -3.17723E+01  8.76283E-01  9.51515E+00  2.46996E+01
   2.47437E+01  1.10299E+01  7.27309E+00 -4.73339E+00 -7.77278E+00  1.82068E+00 -2.01326E+01 -5.06207E+01 -1.70059E+01 -7.45467E-02
  -1.85377E+01 -1.75355E+01 -3.23068E+00  2.07006E+01  5.44868E+00  2.26638E+01  1.97203E+01 -8.80937E+00  3.94633E-01 -9.64188E+00
  -7.76937E+00 -1.93692E+01 -1.17569E+01 -1.33574E+01 -2.53204E+00  2.55484E+01  2.19189E+01  3.89510E+01  2.46110E+01  3.88682E+01
   3.66132E+01  3.65948E+00 -7.38708E+00 -8.88699E+00  1.74128E+01 -1.10671E+01 -2.25567E+01 -1.69934E+01 -8.03864E+00  2.26432E+01
   2.22011E+01  4.11974E+01  4.93461E+01  3.35741E+01  3.87156E+01  6.23754E+01  5.52648E+01  5.01362E+01  7.42523E+01  8.33816E+01
   6.99534E+01  5.26485E+01  5.46578E+01  3.84907E+01  2.42941E+01  1.10792E+00 -5.90456E+00  2.57278E+00 -3.73239E+01 -7.42207E+01
  -1.00753E+02 -1.14130E+02 -1.10563E+02 -9.77469E+01 -8.55834E+01 -5.88945E+01 -6.60174E+01 -4.77708E+01 -4.94695E+00 -3.91933E+01
  -1.61534E+01 -1.21933E+01 -2.39491E+01 -2.57297E+01 -2.13671E+01  2.73716E+01  6.75821E+00  2.44784E+01  6.01255E+01  9.16010E+01
   1.10067E+02  6.52160E+01  3.34515E+01  6.43770E+00 -3.09421E+01 -7.06980E+01 -6.95012E+01 -6.73192E+01 -6.64881E+01 -5.56178E+01
  -5.08047E+01 -5.30505E+01 -6.24585E+01 -6.99132E+01 -8.32504E+01 -7.42421E+01 -7.34185E+01 -5.92764E+01 -6.82785E+01 -7.14421E+01
  -4.96028E+01 -7.04860E+01 -5.44828E+01 -5.03811E+01 -4.45763E+01 -3.70268E+01 -5.72518E+01 -3.32493E+01 -4.41514E+01 -4.29245E+01
  -1.89945E+01 -3.56623E+01 -1.86402E+01 -2.72374E+01 -3.00851E+01 -2.17166E+01 -2.87225E+01 -2.36493E+01 -5.22394E+01 -2.09320E+01
  -2.09260E+01 -1.87656E+01  2.25608E+01 -2.50740E-02  1.09709E+00 -2.07539E+01 -3.85226E+00  1.21130E+01 -6.21634E+00 -4.40402E+00
  -2.37875E+01 -2.78414E+01 -4.32600E+01 -3.61351E+01 -4.62600E+01 -5.15943E+01 -2.52902E+01 -2.51270E+01 -2.34368E+01 -4.06841E+01
  -4.61213E+01 -3.66101E+01 -1.49396E+01 -6.86951E+00 -2.69200E+01 -2.18240E+01 -2.89755E+01 -3.36113E+01 -2.40354E+01 -2.15587E+01
  -4.94874E+00 -1.96708E+01 -2.51656E+01  9.43595E+00  8.72310E+00 -7.24903E+00 -4.03375E+00 -9.66310E+00 -4.10729E+01 -4.72896E+01
  -4.50836E+01 -5.19944E+01 -3.55875E+01 -2.61218E+01 -1.15740E+01  1.19451E+01  3.09761E+01  4.29842E+01  3.11310E+01  2.35878E+01
   3.41499E+01  3.69266E+00 -1.34560E+01  5.02580E+00 -4.51169E+00  6.88962E+00  9.72047E+00 -1.33731E+01 -1.75372E+01 -1.90476E+00
   2.71343E+00 -1.48773E+01 -2.84191E+01 -3.35439E+01 -3.58458E+01 -4.43588E+01 -6.51829E+01 -9.45015E+01 -8.13736E+01 -7.24468E+01
  -7.85980E+01 -5.52466E+01 -4.62760E+01 -4.52091E+01 -3.18326E+01 -2.35292E+01 -2.90680E+01 -1.28724E+00  2.39459E+00 -3.42742E+01
  -4.23730E+01 -3.27587E+01 -3.48077E+01 -5.08256E+01 -6.76833E+01 -9.43912E+01 -4.28856E+01  1.77984E+01  1.68798E+01  5.97764E+01
   1.15397E+02  1.46379E+02  1.50892E+02  1.18274E+02  1.14834E+02  1.15377E+02  7.51127E+01  1.00377E+02  9.99840E+01  7.77956E+01
   9.27356E+01  7.11681E+01  9.32800E+01  8.11703E+01  5.90672E+01  9.26972E+01  9.45048E+01  8.16000E+01  7.61789E+01  8.45213E+01
   8.58814E+01  8.50423E+01  8.05955E+01  6.34007E+01  7.70874E+01  7.44291E+01  4.93189E+01  5.88088E+01  4.33837E+01  6.40301E+01
   6.60775E+01  2.58544E+01  5.03232E+01  4.05399E+01  4.33295E+01  3.81031E+01  2.53041E+01  2.70973E+01  1.84322E+01  1.99793E+01
  -8.86602E+00  1.16531E+01  1.42266E+01  1.36245E+01  1.66345E+01  1.87253E+01  4.75305E+01  2.22108E+01  4.27571E+01  4.84239E+01
   2.57440E+01  5.84266E+00 -8.35601E+00  1.36021E+01 -1.60940E+01 -1.86473E+01 -1.82822E+00 -1.85500E+01 -1.08410E+01  1.20217E+01
   1.53914E+01  4.04011E-01  1.55225E+00  1.02582E+01  1.58959E+00 -3.57360E+00  8.16814E+00  1.30444E+00 -3.77871E+00 -6.29144E+00
  -1.48441E+01 -1.15751E+01 -4.02041E+01 -4.99656E+01 -3.89658E+01 -4.12036E+01 -2.16750E+01 -1.51040E+01  2.24094E+00  1.16253E+01
   5.09121E+00  7.43381E+00 -8.56040E+00  6.42155E-01  5.25436E+00 -4.47475E+00  3.27618E+00  1.13390E+01  1.70852E+00  1.17327E+01
   3.88907E+01  1.79692E+01  1.94117E+01  3.00606E+01  1.78426E+01  3.08670E+00 -1.15468E+01 -1.13183E+01 -1.04489E+01  1.99215E+00
  -5.41156E+00  3.19185E-01  1.31133E+00  1.37601E+00  1.20193E+01 -4.67963E-01  1.64579E+01  2.10674E+00  4.94669E+00  2.33384E+01
   2.44621E+01  3.63380E+01  2.76547E+01  4.63445E+01  4.21581E+01  5.62017E+01  6.00601E+01  4.00845E+01  7.03660E+01  6.85776E+01
   7.24488E+01  6.42724E+01  8.24054E+01  1.19154E+02  9.64479E+01  1.06712E+02  1.17174E+02  1.28825E+02  1.39744E+02  1.32130E+02
   1.38079E+02  1.21389E+02  1.01858E+02  8.35754E+01  8.65650E+01  9.28122E+01  6.33246E+01  6.10786E+01  6.64571E+01  4.95494E+01
   3.45015E+01  3.11741E+01  3.70421E+01  2.47750E+01  1.04853E+01  1.14575E+01  5.93699E+00 -6.91899E+00 -1.71405E+00  2.75376E+00
  -3.68549E+00  9.23108E+00  1.13042E+00 -2.00038E+01 -4.39222E+00  8.06291E-01 -3.89699E+00 -2.10615E+00 -1.24449E+01  4.80750E+00
   2.56005E-01 -1.03218E+01  4.56032E+00 -1.20835E+01 -2.51051E+00 -9.45545E+00 -2.11991E+00  1.45800E+01 -1.61081E+01 -3.94466E+00
  -2.58915E+00 -8.60283E-01  9.97765E+00  9.80777E+00 -1.45913E+01 -2.63864E+01  1.83492E+01  1.43877E+00 -1.02791E+01 -3.12066E+00
  -1.81356E+01  6.01430E+00  1.17616E+01 -2.82646E+00 -4.04936E-01 -1.42082E+01 -1.50012E+01  9.17379E-01 -2.61745E+00  1.16009E+00
  -1.26760E+01 -1.30229E+01  6.00830E+00  4.78255E-01  7.18061E-01  1.12837E+01 -7.52387E+00 -1.36200E+01  1.00801E+01 -6.93808E+00
   1.87115E+01  1.64035E+01 -1.58790E+01  1.14858E+01  1.69929E+01  1.33672E+01 -5.45755E+00  6.59130E+00 -1.71468E+00 -5.13349E+00
   1.38605E+01 -2.09963E+01  1.59473E+00  1.84881E+01  3.49158E+00 -2.83330E+00 -2.19227E+00  1.78971E+01  1.28978E+01  1.19583E+01
 NY points of the fit to the data follow
  -4.33363E+01 -4.93071E+01 -5.55663E+01 -5.78159E+01 -5.48266E+01 -4.98400E+01 -4.55810E+01 -4.23529E+01 -4.10508E+01 -4.28537E+01
  -4.64401E+01 -4.91365E+01 -5.04949E+01 -5.16587E+01 -5.27781E+01 -5.32622E+01 -5.44205E+01 -5.78603E+01 -6.66957E+01 -8.06758E+01
  -9.36435E+01 -9.77723E+01 -8.92569E+01 -7.25390E+01 -5.38687E+01 -3.39196E+01 -1.49421E+01 -3.05770E+00  1.50462E+00  3.34988E+00
   4.68457E+00  5.12994E+00  4.27273E+00  2.76425E+00  1.49839E+00  1.29455E+00 -2.60020E+00 -1.46903E+01 -3.49123E+01 -5.58239E+01
  -7.03704E+01 -7.78067E+01 -7.79169E+01 -6.78933E+01 -4.98177E+01 -3.10227E+01 -1.53536E+01 -2.69545E+00  6.94772E+00  1.29089E+01
   1.51142E+01  1.32727E+01  7.43359E+00  6.81562E-01 -4.31271E+00 -8.92641E+00 -1.46114E+01 -1.98535E+01 -2.16475E+01 -2.07078E+01
  -2.03037E+01 -1.76000E+01 -9.27428E+00  1.26847E+00  1.14145E+01  1.92580E+01  1.99979E+01  1.28469E+01  3.44590E+00 -4.26203E+00
  -1.12413E+01 -1.57397E+01 -1.25787E+01 -3.35055E+00  5.86630E+00  1.42638E+01  2.36615E+01  3.19251E+01  3.78672E+01  3.84654E+01
   3.32681E+01  2.18106E+01  6.05778E+00 -9.08952E+00 -1.96893E+01 -2.35497E+01 -2.01078E+01 -1.18879E+01 -1.69692E+00  8.88011E+00
   1.77148E+01  2.43711E+01  2.97617E+01  3.43970E+01  3.90256E+01  4.30589E+01  4.57288E+01  4.83149E+01  5.25220E+01  5.70380E+01
   5.97362E+01  5.71214E+01  4.92068E+01  3.43653E+01  2.04468E+01  1.63919E+01  1.37315E+01 -4.29592E+00 -3.75438E+01 -6.82748E+01
  -8.83417E+01 -1.03845E+02 -1.12231E+02 -1.04639E+02 -8.67343E+01 -6.99634E+01 -5.73190E+01 -4.74532E+01 -3.92243E+01 -3.19444E+01
  -2.52380E+01 -1.87318E+01 -1.19775E+01 -4.16714E+00  5.11654E+00  1.43655E+01  2.05956E+01  3.42823E+01  6.13628E+01  8.94477E+01
   9.45264E+01  6.96154E+01  3.52491E+01  3.37216E+00 -3.23543E+01 -6.37883E+01 -7.56201E+01 -7.29866E+01 -6.80269E+01 -6.45308E+01
  -6.27273E+01 -6.23944E+01 -6.29908E+01 -6.41035E+01 -6.49949E+01 -6.48672E+01 -6.37185E+01 -6.18726E+01 -5.94810E+01 -5.68783E+01
  -5.44967E+01 -5.23973E+01 -5.02391E+01 -4.77938E+01 -4.52581E+01 -4.29924E+01 -4.12383E+01 -3.98576E+01 -3.83818E+01 -3.66921E+01
  -3.52088E+01 -3.44966E+01 -3.41450E+01 -3.32168E+01 -3.16693E+01 -3.06686E+01 -3.13368E+01 -3.31434E+01 -3.32923E+01 -2.90462E+01
  -2.13389E+01 -1.45091E+01 -1.17574E+01 -1.09825E+01 -8.31498E+00 -4.67040E+00 -2.86718E+00 -3.57382E+00 -5.83316E+00 -9.35358E+00
  -1.54085E+01 -2.37772E+01 -3.12031E+01 -3.58230E+01 -3.83646E+01 -3.97521E+01 -4.06260E+01 -4.03651E+01 -3.88197E+01 -3.73016E+01
  -3.62950E+01 -3.42849E+01 -2.96004E+01 -2.41638E+01 -2.14671E+01 -1.94987E+01 -1.52196E+01 -1.16881E+01 -1.15122E+01 -1.18706E+01
  -9.40510E+00 -4.92248E+00 -1.13770E+00  1.24256E+00  2.97544E+00  2.83159E+00 -1.25847E+00 -8.85120E+00 -1.83382E+01 -2.78937E+01
  -3.79457E+01 -4.42482E+01 -4.32373E+01 -3.36646E+01 -1.63374E+01  3.48888E+00  2.18442E+01  3.60577E+01  4.15133E+01  3.90739E+01
   3.41344E+01  2.83689E+01  2.30928E+01  2.01662E+01  1.87866E+01  1.71968E+01  1.41709E+01  9.14859E+00  1.79418E+00 -7.52732E+00
  -1.80898E+01 -2.96999E+01 -4.16025E+01 -5.31911E+01 -6.37573E+01 -7.19455E+01 -7.78426E+01 -8.09420E+01 -8.09510E+01 -7.93819E+01
  -7.48071E+01 -6.68854E+01 -5.73627E+01 -4.64120E+01 -3.61332E+01 -2.85418E+01 -2.38639E+01 -2.17599E+01 -2.29143E+01 -3.04097E+01
  -4.00984E+01 -4.08109E+01 -3.80390E+01 -4.93981E+01 -7.33079E+01 -8.10575E+01 -5.33593E+01 -1.13594E+01  2.38466E+01  6.09243E+01
   9.88736E+01  1.18203E+02  1.16944E+02  1.08755E+02  1.01025E+02  9.44687E+01  8.87702E+01  8.36199E+01  7.89905E+01  7.51419E+01
   7.21721E+01  7.01274E+01  6.88833E+01  6.80349E+01  6.73815E+01  6.68941E+01  6.64399E+01  6.57967E+01  6.48208E+01  6.35274E+01
   6.20203E+01  6.02828E+01  5.82783E+01  5.60496E+01  5.38002E+01  5.16092E+01  4.92555E+01  4.66568E+01  4.37694E+01  4.05196E+01
   3.68159E+01  3.26299E+01  2.81906E+01  2.40531E+01  2.07224E+01  1.85176E+01  1.75365E+01  1.76498E+01  1.86811E+01  2.04547E+01
   2.26525E+01  2.49666E+01  2.72719E+01  2.94665E+01  3.14841E+01  3.34098E+01  3.54686E+01  3.76750E+01  3.98467E+01  4.19313E+01
   4.39883E+01  4.59411E+01  4.76518E+01  4.90892E+01  5.03218E+01  5.12488E+01  5.15812E+01  5.12178E+01  5.03165E+01  4.89038E+01
   4.68064E+01  4.42563E+01  4.15822E+01  3.86646E+01  3.50008E+01  3.00744E+01  2.37340E+01  1.61745E+01  7.66676E+00 -1.42978E+00
  -1.02402E+01 -1.77172E+01 -2.30659E+01 -2.58281E+01 -2.60281E+01 -2.41755E+01 -2.11501E+01 -1.78603E+01 -1.48636E+01 -1.22564E+01
  -9.65940E+00 -6.70286E+00 -3.20409E+00  7.09805E-01  4.52335E+00  7.87647E+00  1.06807E+01  1.27589E+01  1.39612E+01  1.43531E+01
   1.38081E+01  1.20221E+01  8.94840E+00  5.10044E+00  1.12751E+00 -2.51924E+00 -5.29702E+00 -6.72396E+00 -6.81069E+00 -5.67939E+00
  -3.50391E+00 -5.31271E-01  2.95007E+00  6.60424E+00  1.02313E+01  1.37622E+01  1.71633E+01  2.04839E+01  2.37224E+01  2.68611E+01
   2.99228E+01  3.30590E+01  3.63376E+01  3.98139E+01  4.35135E+01  4.75993E+01  5.23016E+01  5.75798E+01  6.32069E+01  6.93008E+01
   7.61946E+01  8.39044E+01  9.21616E+01  1.00798E+02  1.09166E+02  1.15982E+02  1.19729E+02  1.19520E+02  1.15491E+02  1.08471E+02
   9.95952E+01  9.02218E+01  8.16316E+01  7.42189E+01  6.74943E+01  6.07368E+01  5.35641E+01  4.56588E+01  3.70908E+01  2.84819E+01
   2.05546E+01  1.35817E+01  7.78490E+00  3.39831E+00  2.97351E-01 -1.92879E+00 -3.60415E+00 -4.90308E+00 -5.93053E+00 -6.68882E+00
  -7.20844E+00 -7.57650E+00 -7.79831E+00 -7.73553E+00 -7.46091E+00 -7.29163E+00 -7.26203E+00 -7.09428E+00 -6.70244E+00 -6.38958E+00
  -6.22529E+00 -5.93208E+00 -5.48747E+00 -5.19692E+00 -5.10986E+00 -4.98327E+00 -4.68512E+00 -4.26704E+00 -3.84691E+00 -3.42670E+00
  -3.07312E+00 -2.82915E+00 -2.70772E+00 -2.61220E+00 -2.42356E+00 -2.12991E+00 -1.76070E+00 -1.35100E+00 -9.25915E-01 -5.20383E-01
  -1.16105E-01  1.88320E-01  3.38860E-01  4.42709E-01  5.50462E-01  6.86506E-01  9.05766E-01  1.19018E+00  1.50868E+00  1.77389E+00
   1.96527E+00  2.17786E+00  2.46803E+00  2.75258E+00  3.08433E+00  3.44016E+00  3.79452E+00  4.16309E+00  4.53985E+00  4.84502E+00
   5.05114E+00  5.20556E+00  5.31291E+00  5.31759E+00  5.35747E+00  5.62464E+00  6.14968E+00  6.75000E+00  7.24668E+00  7.56314E+00
   7.73965E+00  7.81661E+00  7.83182E+00  7.88070E+00  8.08617E+00  8.39480E+00  8.65038E+00  8.74832E+00  8.82999E+00  8.99502E+00
 NY background values follow
    -2.077E+01   -2.060E+01   -2.044E+01   -2.027E+01   -2.010E+01   -1.994E+01   -1.977E+01   -1.960E+01   -1.943E+01   -1.927E+01
    -1.910E+01   -1.893E+01   -1.876E+01   -1.859E+01   -1.842E+01   -1.825E+01   -1.808E+01   -1.791E+01   -1.774E+01   -1.756E+01
    -1.739E+01   -1.721E+01   -1.703E+01   -1.686E+01   -1.668E+01   -1.650E+01   -1.631E+01   -1.613E+01   -1.595E+01   -1.576E+01
    -1.557E+01   -1.538E+01   -1.519E+01   -1.500E+01   -1.480E+01   -1.461E+01   -1.441E+01   -1.421E+01   -1.401E+01   -1.381E+01
    -1.361E+01   -1.341E+01   -1.320E+01   -1.300E+01   -1.279E+01   -1.258E+01   -1.238E+01   -1.217E+01   -1.196E+01   -1.175E+01
    -1.154E+01   -1.133E+01   -1.111E+01   -1.090E+01   -1.069E+01   -1.048E+01   -1.026E+01   -1.005E+01   -9.836E+00   -9.623E+00
    -9.409E+00   -9.195E+00   -8.981E+00   -8.767E+00   -8.553E+00   -8.340E+00   -8.127E+00   -7.915E+00   -7.703E+00   -7.491E+00
    -7.281E+00   -7.071E+00   -6.862E+00   -6.653E+00   -6.446E+00   -6.240E+00   -6.035E+00   -5.831E+00   -5.629E+00   -5.428E+00
    -5.229E+00   -5.031E+00   -4.834E+00   -4.640E+00   -4.447E+00   -4.256E+00   -4.067E+00   -3.880E+00   -3.695E+00   -3.512E+00
    -3.332E+00   -3.154E+00   -2.978E+00   -2.804E+00   -2.633E+00   -2.464E+00   -2.297E+00   -2.133E+00   -1.970E+00   -1.810E+00
    -1.652E+00   -1.496E+00   -1.342E+00   -1.190E+00   -1.040E+00   -8.928E-01   -7.471E-01   -6.035E-01   -4.618E-01   -3.221E-01
    -1.844E-01   -4.853E-02    8.539E-02    2.174E-01    3.476E-01    4.759E-01    6.024E-01    7.271E-01    8.500E-01    9.712E-01
     1.091E+00    1.208E+00    1.324E+00    1.438E+00    1.551E+00    1.662E+00    1.771E+00    1.878E+00    1.984E+00    2.089E+00
     2.191E+00    2.292E+00    2.391E+00    2.489E+00    2.585E+00    2.680E+00    2.773E+00    2.864E+00    2.954E+00    3.042E+00
     3.129E+00    3.215E+00    3.298E+00    3.381E+00    3.461E+00    3.541E+00    3.619E+00    3.695E+00    3.770E+00    3.843E+00
     3.915E+00    3.986E+00    4.055E+00    4.123E+00    4.189E+00    4.254E+00    4.318E+00    4.379E+00    4.440E+00    4.499E+00
     4.556E+00    4.612E+00    4.666E+00    4.719E+00    4.770E+00    4.820E+00    4.868E+00    4.914E+00    4.959E+00    5.003E+00
     5.044E+00    5.084E+00    5.123E+00    5.159E+00    5.194E+00    5.228E+00    5.260E+00    5.290E+00    5.318E+00    5.345E+00
     5.370E+00    5.393E+00    5.414E+00    5.434E+00    5.453E+00    5.469E+00    5.484E+00    5.498E+00    5.510E+00    5.520E+00
     5.529E+00    5.537E+00    5.543E+00    5.548E+00    5.552E+00    5.554E+00    5.555E+00    5.555E+00    5.553E+00    5.550E+00
     5.546E+00    5.541E+00    5.535E+00    5.528E+00    5.520E+00    5.510E+00    5.500E+00    5.489E+00    5.477E+00    5.463E+00
     5.449E+00    5.434E+00    5.418E+00    5.401E+00    5.383E+00    5.363E+00    5.342E+00    5.319E+00    5.294E+00    5.268E+00
     5.239E+00    5.208E+00    5.176E+00    5.140E+00    5.103E+00    5.062E+00    5.019E+00    4.974E+00    4.925E+00    4.873E+00
     4.818E+00    4.760E+00    4.698E+00    4.633E+00    4.564E+00    4.492E+00    4.415E+00    4.335E+00    4.250E+00    4.161E+00
     4.068E+00    3.970E+00    3.868E+00    3.761E+00    3.650E+00    3.534E+00    3.413E+00    3.288E+00    3.158E+00    3.023E+00
     2.884E+00    2.739E+00    2.590E+00    2.436E+00    2.276E+00    2.112E+00    1.943E+00    1.768E+00    1.588E+00    1.404E+00
     1.213E+00    1.018E+00    8.172E-01    6.111E-01    3.996E-01    1.826E-01   -3.990E-02   -2.679E-01   -5.015E-01   -7.407E-01
    -9.856E-01   -1.236E+00   -1.491E+00   -1.751E+00   -2.015E+00   -2.284E+00   -2.555E+00   -2.829E+00   -3.107E+00   -3.386E+00
    -3.667E+00   -3.949E+00   -4.233E+00   -4.517E+00   -4.801E+00   -5.085E+00   -5.368E+00   -5.650E+00   -5.931E+00   -6.210E+00
    -6.486E+00   -6.760E+00   -7.031E+00   -7.298E+00   -7.562E+00   -7.821E+00   -8.075E+00   -8.324E+00   -8.568E+00   -8.805E+00
    -9.037E+00   -9.262E+00   -9.480E+00   -9.690E+00   -9.894E+00   -1.009E+01   -1.028E+01   -1.046E+01   -1.063E+01   -1.080E+01
    -1.095E+01   -1.110E+01   -1.124E+01   -1.137E+01   -1.149E+01   -1.160E+01   -1.170E+01   -1.180E+01   -1.188E+01   -1.195E+01
    -1.201E+01   -1.206E+01   -1.210E+01   -1.213E+01   -1.215E+01   -1.216E+01   -1.215E+01   -1.214E+01   -1.211E+01   -1.207E+01
    -1.202E+01   -1.195E+01   -1.187E+01   -1.179E+01   -1.169E+01   -1.158E+01   -1.146E+01   -1.132E+01   -1.118E+01   -1.103E+01
    -1.087E+01   -1.070E+01   -1.052E+01   -1.034E+01   -1.014E+01   -9.938E+00   -9.728E+00   -9.510E+00   -9.285E+00   -9.053E+00
    -8.816E+00   -8.572E+00   -8.322E+00   -8.067E+00   -7.807E+00   -7.542E+00   -7.272E+00   -6.998E+00   -6.721E+00   -6.439E+00
    -6.155E+00   -5.867E+00   -5.577E+00   -5.284E+00   -4.988E+00   -4.691E+00   -4.392E+00   -4.091E+00   -3.789E+00   -3.486E+00
    -3.182E+00   -2.878E+00   -2.573E+00   -2.269E+00   -1.964E+00   -1.660E+00   -1.357E+00   -1.055E+00   -7.535E-01   -4.539E-01
    -1.559E-01    1.401E-01    4.339E-01    7.252E-01    1.014E+00    1.299E+00    1.582E+00    1.861E+00    2.136E+00    2.407E+00
     2.675E+00    2.938E+00    3.196E+00    3.450E+00    3.700E+00    3.946E+00    4.187E+00    4.424E+00    4.656E+00    4.884E+00
     5.108E+00    5.327E+00    5.541E+00    5.751E+00    5.957E+00    6.158E+00    6.355E+00    6.547E+00    6.734E+00    6.917E+00
     7.095E+00    7.268E+00    7.437E+00    7.601E+00    7.761E+00    7.915E+00    8.065E+00    8.210E+00    8.351E+00    8.486E+00
     8.617E+00    8.743E+00    8.865E+00    8.982E+00    9.095E+00    9.204E+00    9.308E+00    9.409E+00    9.506E+00    9.600E+00
     9.690E+00    9.777E+00    9.860E+00    9.940E+00    1.002E+01    1.009E+01    1.016E+01    1.023E+01    1.030E+01    1.037E+01
     1.043E+01    1.049E+01    1.055E+01    1.061E+01    1.066E+01    1.072E+01    1.077E+01    1.082E+01    1.087E+01    1.092E+01
     1.097E+01    1.102E+01    1.107E+01    1.112E+01    1.116E+01    1.121E+01    1.126E+01    1.130E+01    1.135E+01    1.139E+01
     1.143E+01    1.148E+01    1.152E+01    1.156E+01    1.161E+01    1.165E+01    1.169E+01    1.173E+01    1.177E+01    1.181E+01
     1.186E+01    1.190E+01    1.194E+01    1.198E+01    1.202E+01    1.206E+01    1.210E+01    1.214E+01    1.218E+01    1.222E+01
 Mac      Conc. = 2.77E-04
  -3.99813E+01 -4.01934E+01 -4.02930E+01 -4.03663E+01 -4.06911E+01 -4.14903E+01 -4.27169E+01 -4.41715E+01 -4.55868E+01 -4.66782E+01
  -4.72481E+01 -4.73473E+01 -4.75672E+01 -4.86665E+01 -5.03825E+01 -5.16352E+01 -5.16649E+01 -5.05182E+01 -4.83331E+01 -4.48195E+01
  -4.04573E+01 -3.65378E+01 -3.35895E+01 -3.12433E+01 -2.93174E+01 -2.77085E+01 -2.60652E+01 -2.42087E+01 -2.22593E+01 -2.03120E+01
  -1.83691E+01 -1.67389E+01 -1.58405E+01 -1.56489E+01 -1.56250E+01 -1.51034E+01 -1.38538E+01 -1.22060E+01 -1.06366E+01 -9.36419E+00
  -8.29978E+00 -7.39482E+00 -6.53227E+00 -5.53092E+00 -4.35907E+00 -3.20392E+00 -2.39477E+00 -2.19532E+00 -2.62158E+00 -3.41733E+00
  -4.34709E+00 -5.32109E+00 -6.25676E+00 -7.02210E+00 -7.44378E+00 -7.39222E+00 -6.92308E+00 -6.13281E+00 -4.93150E+00 -3.24897E+00
  -1.52092E+00 -2.42862E-01  5.20546E-01  8.41976E-01  7.81840E-01  4.00369E-01 -3.41921E-01 -1.22863E+00 -1.63020E+00 -1.13267E+00
   1.77092E-01  1.93767E+00  4.03931E+00  6.22336E+00  7.90725E+00  8.79494E+00  9.01589E+00  8.82605E+00  8.39705E+00  7.80665E+00
   7.22513E+00  6.96297E+00  7.06722E+00  7.42406E+00  8.01863E+00  8.86548E+00  9.84137E+00  1.07614E+01  1.16098E+01  1.24281E+01
   1.32241E+01  1.39795E+01  1.46197E+01  1.48650E+01  1.44941E+01  1.34529E+01  1.18485E+01  9.93974E+00  8.02956E+00  6.23253E+00
   4.50622E+00  2.91905E+00  1.16522E+00 -1.55366E+00 -5.82110E+00 -1.14176E+01 -1.74316E+01 -2.29529E+01 -2.72945E+01 -2.98535E+01
