 
 $NMID
 ID=''
 FMTDAT='(2E13.5)'
 TRAMP=   1.00000E+0
 VOLUME=   1.00000E+0
 $END
   2.11877E+3   1.80607E+4
   4.51891E+3  -7.82996E+3
  -2.19733E+3   3.29076E+2
  -5.03659E+2   4.72888E+3
   3.98392E+2  -4.27967E+3
   3.55947E+2  -3.13714E+3
   1.37627E+3   3.80092E+3
  -6.04951E+2   2.72760E+3
  -2.16707E+2   1.95804E+2
   1.22904E+3   7.05374E+2
  -1.96022E+3  -1.15233E+2
  -2.88235E+3  -7.47686E+2
   1.27337E+3  -4.49328E+2
   1.76077E+3  -9.31637E+2
   2.45063E+2  -1.41880E+3
   7.70769E+2  -1.13925E+3
   7.19603E+2  -2.81672E+2
  -4.35788E+1   7.31049E+2
   7.81596E+2   6.19704E+2
  -8.10080E+1  -2.96690E+2
  -8.65589E+2  -8.42723E+2
   6.83310E+2  -1.03046E+2
   2.44010E+2   1.41317E+3
  -1.00001E+3   7.17610E+2
   2.98410E+2  -1.78229E+3
   1.21856E+3  -7.63263E+2
  -5.03545E+2   2.00614E+3
  -2.02600E+3   5.89358E+2
  -4.60563E+2  -1.49861E+3
   1.24600E+3  -5.05858E+2
  -8.70862E+1   1.12026E+3
  -1.42482E+3   3.94780E+2
  -7.58092E+2  -8.55163E+2
   3.45402E+2  -9.94709E+2
   1.05085E+3  -8.34488E+2
   1.00176E+3   3.59305E+2
  -6.75909E+2   1.04859E+3
  -9.94516E+2   4.57172E+2
  -1.27999E+2  -7.97763E+1
   2.67244E+2   2.67014E+2
  -4.07297E+2  -4.03826E+2
  -1.43836E+2  -7.46593E+2
   6.76519E+2   1.56694E+2
   4.65879E+2   8.25838E+2
   2.87984E+2   4.38887E+2
  -1.24455E+2   3.01912E+2
  -7.94960E+2   6.37498E+2
  -1.22783E+3   2.08545E+2
  -3.31878E+2  -8.02429E+2
   2.47404E+2  -3.85202E+2
   5.61949E+2   1.52730E+2
   1.69675E+2  -5.37263E+1
   2.93274E+2  -2.89492E+1
   7.12537E+1   4.88708E+2
  -1.46516E+2   5.66075E+2
  -4.45207E+2   1.61749E+2
  -3.81888E+2  -1.00735E+2
  -7.89196E+1  -1.79774E+2
   2.83343E+2  -2.11267E+2
   7.55877E+2   1.92529E+2
   2.85480E+2   4.72617E+2
  -3.56548E+2   2.74784E+2
  -4.83564E+2   2.63889E+2
  -5.64814E+2   1.80890E+2
  -5.56259E+2  -9.69982E+1
  -9.49687E+1  -3.35857E+2
   5.55088E+2  -8.33393E+2
   7.81042E+2  -6.63093E+2
   4.57011E+2   1.84293E+2
  -6.70172E+2   2.79388E+2
  -3.74182E+2   9.44101E+1
   1.59164E+2  -3.99281E+2
   5.77957E+2   5.67880E+2
   4.02007E+1   7.28837E+2
  -4.55373E+2  -2.05154E+2
   1.82332E+2  -3.79171E+2
  -2.42308E+1   3.75293E+1
  -3.92506E+2   1.85228E+2
  -1.98258E+2   2.17058E+1
   1.71895E+2  -3.38271E+2
  -4.61834E+1  -6.51742E+1
  -2.91723E+2  -2.56182E+2
   5.26748E+1  -2.71647E+2
  -3.92170E+1  -3.40191E+1
   8.29889E+1   3.15238E+1
  -9.02034E+0   1.15734E+1
  -5.52919E+1  -2.00167E+2
   4.46048E+1  -8.45878E+1
   3.23997E+0   1.28113E+2
  -1.42925E+2   2.60941E+2
   3.45287E+1   7.07928E+1
   9.65583E+1   1.46272E+2
  -1.10329E+2   1.29183E+2
  -2.12593E+2  -2.53027E+2
  -9.46910E+1  -3.94529E+2
   2.98491E+2  -1.21386E+2
   2.97430E+2   2.05353E+2
  -2.77197E+2   6.92429E+1
   1.69076E+1  -1.60305E+2
   4.92479E+2   3.73274E+2
   3.00756E+2   8.16482E+1
  -1.20160E+2   4.36437E+1
  -2.79763E+2  -8.56234E+1
   1.47615E+2  -2.74290E+2
   5.67848E+0  -7.51245E+0
   1.23292E+2   7.08292E+1
   4.52762E+1   6.89832E+1
   1.26310E+1  -2.63801E+1
  -9.25670E+1  -3.96785E+2
   2.99335E+2  -3.24189E+2
   2.33550E+2  -6.49225E+1
   2.14441E+2   2.50862E+2
  -2.04360E+2   2.40922E+2
   7.93908E+0  -7.73691E+1
   9.23563E+1   2.43697E+2
   1.28910E+2   1.98293E+2
  -3.75153E+1  -1.53151E+2
  -2.32615E+2  -2.86585E+2
   1.55963E+2  -1.29784E+2
   2.32488E+2  -1.61102E+2
   2.17704E+2   1.82756E+2
   1.25879E+2   8.92727E+1
   3.48033E+2  -1.56028E+1
   1.84039E+2   1.09972E+2
  -1.51240E+2  -2.05992E+2
  -7.28663E+1  -1.28370E+2
   3.43809E+2  -3.07176E+2
   1.63095E+2  -1.40109E+2
   3.00659E+2   3.21975E+2
   1.51492E+2   2.52543E+2
  -1.10704E+2   1.74837E+2
   1.20359E+2   6.85185E+1
   1.27490E+2  -1.11156E+2
  -8.98493E+1   7.43349E+0
   2.19431E+2   3.92562E+1
   7.66164E+1   5.02476E+1
   2.30346E+2  -2.46120E+2
   2.16744E+2   1.64101E+2
   1.25805E+2   7.69440E+1
  -6.59217E+1  -4.42701E+1
  -2.18694E+2   7.66954E+1
   1.52481E+2  -1.04967E+2
   2.86652E+2  -1.52767E+2
   1.94288E+2   1.42923E+2
  -2.10997E+2   9.01250E+1
  -7.60358E+1   2.06925E+2
  -9.00173E+1   1.02539E+2
  -1.89591E+2  -2.31962E+1
  -2.36328E+0  -2.37485E+2
  -7.56589E+1  -9.77742E+1
   4.89747E+1   1.55023E+2
   1.08800E+2  -1.46016E+2
   2.65958E+2   1.15843E+2
   7.91759E+1   1.77596E+2
  -1.00571E+2  -1.20671E+2
   2.35156E-1   1.86093E+2
   2.13495E+2   9.81666E+1
  -4.55905E+0   8.49470E+1
   4.03201E+1  -3.69910E+1
  -1.08434E+2   8.65530E+1
   5.10548E+1   2.20089E+1
   9.76164E+1   4.68358E+2
  -1.52623E+2  -3.35125E+1
  -1.38677E+2  -4.26555E+1
  -9.83291E+1  -2.54224E+2
  -2.40575E+2  -2.08306E+2
   5.31185E+1   3.50675E+1
  -1.38173E+1   1.23456E+2
   2.27459E+2   1.39127E+2
   1.19175E+1   8.62666E+1
  -6.41739E+1   6.34520E+1
  -1.16744E+2   8.28338E+1
  -1.19075E+2   1.24229E+2
  -3.01220E+2   2.91600E+2
  -2.01126E+2   4.12502E+1
   1.57271E+1   2.00103E+2
  -7.31687E+1   5.20286E+1
  -1.82486E+1  -9.39942E+1
  -2.75511E+1  -8.78064E+1
   8.15010E+1  -4.12997E+0
  -2.95993E+2   2.86619E+2
   6.46988E+1  -1.51778E+1
  -1.72118E+2   2.08076E+2
  -3.66566E+1   2.93853E+2
  -4.56337E+1   4.79022E+1
  -2.95473E+1  -1.29718E+2
   1.20732E+2   7.72648E+1
  -1.41898E+2  -8.36182E+1
   4.49168E+1   9.72577E+0
   2.30025E+2   1.26370E+2
  -8.38058E+0   4.10800E+2
  -1.72928E+2   1.63057E+2
   1.04241E+2  -2.84509E+2
  -2.84572E+1  -8.19147E+1
   2.42527E+2   3.44612E+0
  -1.35016E+1  -1.16991E+2
   3.19362E+1   1.43509E+2
   3.54021E+0  -1.51856E+2
   1.92930E+2   1.50147E+2
   5.01399E+1  -1.20139E+1
  -1.69805E+2  -1.65762E+2
   6.64604E+1  -2.06689E+2
   1.65556E+2   9.52493E+1
   2.23793E+2  -2.32675E+1
  -3.77893E+1  -1.25120E+0
   1.39591E+1  -1.72481E+2
  -1.55923E+2  -5.40299E+1
   1.14130E+2  -1.42887E+2
   6.92518E+0   3.23451E+1
  -1.48551E+1  -5.77276E+1
  -1.48813E+2  -7.41255E+1
  -1.67928E+2   2.32943E+2
   1.53755E+2   1.00512E+2
  -1.20244E+2   3.36520E+2
  -1.02825E+2  -2.84434E+2
  -2.52528E+2  -2.24361E+2
  -4.54823E+1  -2.05847E+2
  -1.82974E+2  -6.46761E+1
   3.65998E+2  -3.72915E+1
  -2.29118E+0  -5.84383E+1
   1.69185E+1   5.14719E+1
  -1.87671E+1   2.36648E+1
  -3.53476E+1   4.28741E+1
  -8.83664E+1   3.40563E+1
  -1.63203E+2  -5.88669E+1
   1.58468E+2   9.30146E+1
   1.89299E+1  -1.91591E+0
  -2.78458E+2  -8.07615E+1
  -1.86146E+1  -9.56522E+1
  -5.64838E+1  -9.02601E+1
  -1.23250E+2  -4.21318E+2
  -1.05838E+2   2.66022E+1
  -1.69415E+2   1.77183E+2
  -6.22289E+1   1.17316E+2
  -2.98140E+1  -1.47269E+2
  -2.88491E+1   2.51496E+2
  -6.61767E+1  -4.54245E+1
   3.57203E+1   8.63665E+0
   9.07993E+0  -8.96220E+1
   1.04552E+2  -5.45062E+1
   1.27959E+2   1.61393E+2
   1.86686E+1   8.22147E+0
  -1.71779E+2   2.02974E+2
  -2.44050E+2  -3.16763E+1
  -1.23321E+1  -5.00922E+1
   1.07037E+2  -1.13312E+2
  -1.67140E+2  -1.32665E+2
  -1.22003E+2   4.82771E+1
   1.08327E+2  -1.82497E+2
  -2.00096E+1   6.50073E+1
  -4.61353E+1   6.34801E+1
  -8.95836E+0   1.22756E+2
  -1.91463E+2  -1.84728E+2
  -3.36386E+1  -8.76183E+1
   3.63293E+2   1.45168E+2
  -2.09411E+1   1.01541E+2
   2.95778E+1   2.89240E+0
  -4.53808E+1  -1.29941E+2
   1.18488E+2   2.00525E+2
  -9.89476E+1  -7.59488E+1
  -1.94586E+2  -5.40663E+1
  -3.67629E+1   5.12813E+0
  -7.86997E+1  -1.64670E+2
   7.44256E+1  -1.35850E+2
   1.99318E+2   2.09464E+0
  -9.88935E+1   4.64290E+1
  -5.85821E+0   1.46597E+2
  -2.07043E+2  -1.87101E+1
  -1.10245E+2  -1.28918E+2
   3.26470E+1  -1.59435E+2
   7.12946E+1  -1.36937E+2
   3.51712E+1  -1.94238E+2
  -1.24106E+2  -8.38789E+1
  -2.85014E+2  -1.24925E+2
  -6.01531E+1  -5.48800E+1
  -1.21487E+2  -5.11193E+1
   2.72442E+1  -3.96414E+2
   3.10113E+2  -8.68984E+1
   1.50962E+2   6.03578E+0
   2.07640E+2   1.47185E+2
   7.54305E+1  -1.43753E+1
  -2.96309E+1   3.14844E+1
   6.23448E+1  -2.43191E+2
  -3.77177E+1   1.11497E+1
  -5.67312E+0  -1.34640E+2
  -2.37145E+1  -3.58005E+2
   8.95687E+1  -1.59340E+2
   1.18892E+2  -3.17820E+1
  -1.93917E+2  -7.91380E+1
  -1.15460E+1   1.50682E+2
   1.15243E+2  -1.56571E+2
  -2.42103E+2   1.01433E+2
  -9.37759E+1  -1.66230E+2
  -1.21294E+2   7.42839E+1
   2.86501E+1  -1.08307E+1
  -1.41268E+2  -2.93708E+2
   1.54191E+2  -8.47771E+1
   1.28583E+2   1.48089E+2
   9.28890E+1   1.02041E+1
  -1.69426E+1  -1.76029E+2
   1.88867E+2   4.96086E+1
  -1.24803E+2   1.14517E+2
   1.04816E+2  -9.06967E+1
  -9.86727E+0   4.13071E+1
   1.83315E+1  -1.14515E+2
   1.43032E+2  -2.09201E+2
  -6.27327E+1   1.13327E+1
   7.43979E+1  -2.01997E+1
  -6.30533E+1   1.32197E+2
  -1.23301E+2  -6.39530E+1
  -2.72464E+1  -1.14503E+2
  -1.62229E+2   6.62009E+1
  -1.08406E+2  -4.11992E+1
   8.86544E+1   1.42789E+2
  -1.75741E+2  -2.05489E+2
   6.69620E+1   1.83511E+1
  -1.51501E+2  -3.33163E+1
  -9.56583E+0   1.09543E+2
   2.50825E+1   1.31701E+1
   1.06920E+2   1.12434E+2
   2.00361E+1  -8.23733E+1
   4.92038E+1  -3.47583E+1
  -1.63038E+2   9.30088E+1
   9.41526E+1   7.01667E+1
   2.59712E+1  -8.26901E+1
  -5.58986E+1   1.93962E+2
  -6.70776E+1   2.62443E+0
  -6.80961E+1   1.27143E+2
  -1.69212E+2  -1.02446E+2
   1.88368E+1  -1.02819E+2
   1.94432E+2  -2.35565E+0
   7.86431E+1   8.01577E+0
   2.33533E+1   4.42156E+1
   1.68795E+2  -1.02946E+2
   7.07671E+1   1.90162E+1
   8.11427E+1  -2.02980E+1
  -3.10128E+2   1.02053E+1
  -1.47434E+2  -1.67758E+2
   6.95266E+1  -2.15578E+2
   1.72370E+2  -2.24321E+2
  -1.38175E+2  -7.79248E+1
  -1.69311E+2   5.25491E+1
   1.63587E+2   1.18772E+2
   3.40014E+1  -8.44032E+1
  -4.38471E+1   7.06522E+1
   1.45209E+1  -1.69542E+2
   2.13764E+1   2.27542E+2
   4.31886E+1   3.78813E+1
   2.07460E+2   4.00951E+1
  -7.73359E+1   5.68278E+1
   1.09575E+2  -1.80107E+2
   1.80774E+2  -2.35760E+2
   2.54628E+2   3.39561E+1
   1.59198E+1  -1.69955E+1
  -2.42449E+2   8.75694E+1
  -2.42903E+1  -5.55858E+1
   7.96889E+1  -1.57169E+2
   1.55476E+2  -3.58737E+1
  -2.46700E+2   1.57512E+1
   5.77825E+1  -1.02297E+1
  -2.37933E+1  -7.56529E+1
   4.84485E+1  -2.74882E+2
   9.78038E+1  -5.89855E+0
  -6.86718E+1   1.14326E+2
  -1.95515E+2  -4.60751E+0
   4.32892E+1  -1.96598E+1
  -5.77825E+1  -1.28926E+2
