 
 $NMID
 ID=''
 FMTDAT='(2E13.5)'
 TRAMP=   1.00000E+0
 VOLUME=   1.00000E+0
 $END
  -5.93296E+3  -2.61537E+4
  -2.03846E+4  -2.00638E+4
  -1.83285E+4   1.85635E+4
   2.81704E+4   1.86747E+4
   1.56487E+4  -2.12609E+4
  -2.61041E+4  -1.17209E+4
  -4.70832E+3   1.83978E+4
   2.13707E+4   3.36486E+2
  -2.15781E+3  -1.36513E+4
  -1.04701E+4   8.40224E+3
   6.53801E+3   1.12905E+4
   3.45748E+3  -5.73284E+3
  -5.40374E+3  -3.13131E+3
  -2.21593E+3   6.61036E+3
  -7.03182E+2   2.43608E+3
  -2.73411E+2  -4.25181E+3
   2.07599E+3  -2.42888E+3
   2.35046E+2   2.61474E+3
  -8.88437E+2   1.46848E+3
   8.32653E+2  -1.04656E+3
   5.46437E+2  -2.16367E+1
   5.86288E+2  -1.71805E+2
   9.10558E+2  -1.77601E+3
  -7.63776E+2   1.42456E+3
  -1.14250E+3   1.32477E+3
   1.20221E+3  -2.40104E+3
   2.56049E+3   1.84301E+2
   4.41593E+2   3.30565E+3
  -1.75948E+3  -2.53912E+2
  -1.37437E+1  -1.63935E+3
   1.96517E+3   9.52533E+2
   3.39617E+2   1.43619E+3
  -1.51597E+3   4.86388E+2
  -1.17694E+3  -2.82171E+1
  -1.07796E+3  -2.39749E+3
   1.86228E+2  -2.26141E+3
   2.44914E+3   1.04972E+3
   1.75996E+3   1.75618E+3
  -7.31469E+2  -6.29507E+2
  -4.00872E+2  -1.33042E+2
   2.28381E+1   1.03843E+3
  -9.41976E+2  -5.06552E+2
  -6.64091E+2  -1.74958E+3
   1.16337E+3  -8.77364E+2
   1.46686E+3  -1.00862E+3
   1.44684E+3  -6.56493E+2
   8.76577E+2   1.87434E+3
  -8.76127E+2   2.70234E+3
  -1.98844E+3  -5.40734E+2
  -1.11030E+3  -1.83468E+3
  -3.02360E+2  -5.96672E+2
  -2.26019E+2  -4.98190E+2
   6.36723E+0  -1.18129E+3
   8.01985E+2  -4.72737E+2
   9.22507E+2   2.98923E+2
   1.69260E+2   3.06774E+2
  -7.31761E+2   3.62965E+2
  -1.09484E+3  -1.26797E+3
  -1.38253E+2  -1.41016E+3
   6.24278E+2  -1.15026E+3
   7.53185E+2  -5.47621E+2
   1.11630E+3  -4.04131E+1
   9.81553E+2   1.14376E+3
  -3.16041E+2   2.31898E+3
  -1.83806E+3   1.13154E+3
  -2.02045E+3  -4.37796E+2
  -1.31132E+3  -8.11919E+2
  -1.49687E+2  -1.70878E+3
   7.78174E+2  -1.79152E+3
   5.12276E+2  -1.12817E+2
  -4.36988E+2   7.62090E+2
  -4.81714E+2  -8.47614E+2
   9.57141E+2  -1.43191E+3
   1.09828E+3   5.03247E+2
   1.73600E+2   1.16706E+3
  -4.86853E+2  -2.84453E+2
  -1.32703E+2  -4.00772E+2
   7.49412E+2   4.77564E+2
   4.03903E+2   8.14523E+2
  -7.72975E+2   1.66630E+1
  -1.09675E+3  -4.87987E+1
  -2.45825E+2  -2.61660E+2
   1.17812E+2   5.65892E+1
  -1.40951E+2   4.41547E+1
  -8.96257E+2  -3.90472E+2
  -1.20462E+2  -1.07509E+3
   3.51047E+2  -3.43785E+2
   4.12359E+2   7.28911E+1
   3.22232E+1   4.73881E+1
   1.88536E+2  -3.74254E+2
   8.02291E+2  -1.65673E+2
   6.32009E+2   4.09427E+2
   2.31901E+2   1.35969E+3
  -8.56421E+2   1.14490E+3
  -1.32890E+3   1.22963E+1
  -6.43333E+2  -1.37963E+3
   3.45506E+2  -1.05082E+3
   2.83821E+2   1.87287E+2
  -3.71655E+2   5.63111E+1
   1.10838E+2  -9.39341E+2
   1.30484E+3  -4.69006E+2
   8.18982E+2   1.14906E+3
  -6.88071E+2   9.41795E+2
  -1.28422E+3  -3.59273E+2
  -1.63467E+2  -9.81220E+2
   1.06544E+3   2.24764E+1
   6.20663E+2   4.90222E+2
  -7.87696E+2   3.68332E+2
  -1.20160E+3  -3.75402E+2
   3.93893E+1  -9.42083E+2
   6.83025E+2  -7.63290E+2
   1.07466E+3  -2.27402E+2
   4.91326E+2   4.49270E+2
   1.68716E+2   4.67127E+2
  -1.73747E+1   5.42611E+1
   2.97649E+2   5.95357E+2
  -3.71781E+2   1.00294E+3
  -1.35381E+3   2.12225E+2
  -1.14770E+3  -1.03892E+3
  -1.66780E+2  -1.36439E+3
   9.75282E+2  -5.29624E+2
   5.86089E+2  -9.48800E+1
   4.30351E+2   3.94778E+1
   4.54069E+2   4.89043E+2
  -9.12406E+1   6.23299E+2
  -6.36533E+2   2.28427E+2
  -5.75094E+2  -2.55035E+2
   8.00308E+1  -4.49102E+2
   5.53801E+2  -2.10386E+2
   5.74458E+2   3.45781E+2
   8.20687E+1   6.61045E+2
  -5.92934E+2   5.12478E+2
  -3.27789E+2  -3.44311E+2
   3.54946E+2  -3.02090E+2
  -8.40839E+1  -4.92535E+1
  -5.22377E+2  -3.39362E+2
  -2.27935E+2  -4.52869E+2
   2.67968E+2  -8.92951E+1
   4.65285E+2   3.11512E+2
  -1.90373E+2   6.70527E+2
  -8.24039E+2   5.60979E+1
  -3.53189E+2  -6.55502E+2
   4.39098E+2  -8.59623E+2
   1.01660E+3   6.65560E+1
   5.61701E+2   1.08598E+3
  -1.74437E+2   7.73315E+2
  -7.90912E+2   2.76663E+2
  -6.25536E+2  -4.34754E+1
  -4.28385E+2   3.16478E+2
  -4.51719E+2  -1.14449E+2
  -3.72929E+2  -5.05043E+2
   1.82829E+1  -8.27182E+2
   5.22696E+2  -2.71243E+2
   6.45250E+2   4.83358E+2
  -1.29851E+2   5.03407E+2
   2.17046E+1  -1.47255E+1
   2.55793E+2  -8.65811E+1
   2.83382E+2   1.92664E+2
  -1.20687E+2   8.08478E+1
   1.51052E+2   2.86487E+1
   1.04894E+1   1.67866E+2
   5.40399E+1   4.01940E+2
  -5.79126E+2   3.20094E+2
  -5.71554E+2   1.18317E+2
  -2.14678E+2  -4.56095E+2
   9.91851E+1  -5.00018E+2
   3.37653E+2  -2.06570E+2
   4.30610E+2   4.26684E+2
  -1.56701E+2   3.78037E+2
  -1.18454E+2  -2.21957E+2
   9.53934E+1  -1.94850E+2
   2.18254E+2   2.69007E+2
   5.38829E+1   6.89500E+2
  -1.31079E+2   1.10118E+2
  -5.77562E+1  -5.02125E+2
   3.73984E+2  -2.87987E+1
   1.37575E+2   5.03368E+2
  -5.08405E+2   3.34006E+2
  -5.52074E+2  -5.03306E+2
   3.38598E+2  -5.08211E+2
   5.38187E+2   7.03128E+1
   2.73670E+2   6.48886E+2
  -2.59960E+2   4.42565E+2
  -5.56995E+2   2.47775E+2
  -3.73192E+2   8.37014E+1
   7.71648E+0   2.91559E+1
  -2.23065E+2  -2.16341E+2
  -1.36840E+2  -7.08590E+2
   2.33907E+2  -6.49001E+2
   9.90890E+2  -1.88544E+2
   9.01560E+2   5.68082E+2
   1.08686E+1   9.23528E+2
  -7.02255E+2   6.14088E+2
  -4.05496E+2  -3.27829E+2
  -1.16615E+2  -3.34608E+2
   8.22924E+1  -2.73564E+2
   2.83240E+2   2.35001E+2
   1.43798E+2  -2.19386E+2
  -2.28079E+1   2.61972E+2
   1.02598E+2   6.75269E+2
  -3.54319E+2   4.37526E+2
  -5.91830E+2  -1.88672E+2
  -1.19973E+2  -6.65887E+2
   4.09393E+2  -3.45587E+2
   5.35112E+2   1.80644E+2
   1.62447E+2   4.41867E+2
  -2.81791E+2   1.29410E+2
  -2.06291E+1  -2.92555E+2
   2.31102E+2  -1.98285E+2
   1.47818E+2   3.58979E+2
  -3.37364E+2  -1.79276E+2
  -8.75725E+1  -4.50705E+2
   3.96943E+2   2.00229E+1
   5.48955E+2   6.42918E+2
  -6.01158E+1   8.55941E+2
  -8.11747E+2   2.21517E+2
  -5.29125E+2  -2.48994E+2
   4.94713E+1  -2.88260E+2
   1.20573E+2  -1.75207E+2
   1.79939E+2   2.05809E+2
   1.71902E+2   6.23902E+1
   2.51320E+2  -2.74659E+2
   5.05714E+2   6.53087E+1
   4.19180E+1   6.28313E+2
  -4.08580E+2   4.91467E+2
  -4.49382E+2  -2.21537E+2
   2.73863E+2  -5.39158E+2
   6.25401E+2   1.13417E+2
   1.36541E+2   4.02468E+2
  -2.83531E+2   3.04862E+2
  -4.02795E+2  -2.26614E+2
  -2.41812E+1   3.01836E+1
   1.04679E+2  -6.14675E+1
  -2.58829E+2   2.85182E+1
  -2.84392E+2   2.37227E+1
  -1.41316E+2  -1.52753E+2
   4.00003E+2   2.14256E+2
  -2.93747E-1   1.55449E+2
   2.20186E+1   1.90529E+2
  -4.94054E+2  -5.20949E+1
   2.19922E+2  -2.58489E+2
   3.11667E+2   7.16899E+1
   1.22803E+2   3.64385E+2
  -2.78937E+2   1.95615E+2
  -3.79140E+2  -1.09154E+2
   3.00342E+2  -1.29999E+2
   1.60382E+2   2.34052E+2
  -8.83421E+1   1.49885E+2
  -2.90757E+2  -2.04195E+2
   1.44643E+2  -3.01767E+2
   4.48659E+2   6.69984E+1
   1.53092E+2   6.17650E+2
  -7.69513E+1   5.27353E+2
  -5.18139E+2  -2.31807E+2
  -6.33584E+1  -5.29484E+2
   3.92405E+2  -2.44631E+2
   3.52531E+2   1.31972E+2
   4.91305E+1   3.28952E+2
   6.30835E+1   5.77896E+1
  -1.35936E+2   9.07787E+1
   1.68164E+2   3.08382E+2
  -5.82123E+2   3.15022E+2
  -5.13085E+2  -1.46611E+2
   1.05368E+2  -7.74067E+2
   3.97109E+2  -2.58095E+2
   4.50110E+2   2.94704E+2
  -5.80442E+1   3.71706E+2
  -4.02580E+2   1.17884E+2
  -2.36294E+2  -3.27794E+2
  -9.07976E+1  -1.72002E+2
   1.11048E+2  -1.37464E+2
  -5.83030E+1  -5.31956E+1
  -1.76297E+1  -2.24179E+2
   2.17183E+2  -9.78824E+1
   4.48381E+2   3.55802E+2
  -1.90481E+2   4.44276E+2
  -5.40425E+2   1.67507E+2
   4.28727E+0  -4.39561E+2
   9.37007E+1  -8.68827E+1
   8.22576E+1  -2.88624E+1
  -1.92837E+2   3.45177E+2
  -6.67583E+1   6.35820E+1
   5.47839E+1  -4.32490E+1
   1.28662E+2   1.50186E+2
  -1.56206E+2   3.38087E+2
  -7.59007E+2   8.11666E+1
  -3.38052E+2  -5.33098E+2
   4.56962E+2  -3.37994E+2
   4.79413E+2   4.09104E+1
   2.73147E+2   3.19394E+2
  -1.22745E+2   2.61244E+2
  -2.10889E+2   1.01797E+2
   3.61615E+1   4.65876E+1
  -1.08655E+2   1.90970E+2
  -1.35226E+2   1.95490E+1
  -7.36803E+1  -2.67562E+2
   8.84077E+1  -1.95175E+2
   4.32147E+2   2.07333E+2
  -1.82400E+2   3.31434E+2
  -1.85440E+2   2.48293E+2
  -2.01449E+2  -3.73897E+2
   1.95250E+2  -1.10108E+2
   2.81739E+2   1.56352E+2
  -2.17377E+2   4.10067E+2
  -5.33860E+2  -9.56941E+0
  -3.25666E+2  -3.09926E+2
  -7.28372E+1  -1.74145E+2
  -9.32293E+1   7.41432E+1
  -1.02693E+2   3.28622E+1
  -2.07008E+1  -1.60746E+2
   1.37412E+2  -1.81898E+2
   4.53455E+2  -6.39186E+1
  -8.00098E+1   3.15052E+2
  -7.83863E+1   3.42320E+2
  -2.64321E+2  -6.69020E+1
  -2.08483E+2   4.33680E+1
   2.11375E+2   2.36357E+1
   1.07908E+1   2.23928E+2
  -2.57780E+2  -9.02950E+1
   9.07362E+1  -1.72019E+2
   1.29369E+2   1.04190E+2
  -3.49486E+1   2.85800E+2
  -2.67733E+2  -1.99556E+2
  -3.50209E+2  -2.45591E+2
   1.66844E+2  -2.79456E+2
   4.74212E+2   2.77649E+2
  -1.96486E+1   3.32631E+2
  -4.88247E+2   4.21661E+2
  -3.00293E+2  -1.58470E+2
  -1.85011E+2  -3.79237E+1
   7.76254E+1  -9.74930E+1
   1.90782E+2   1.18239E+2
  -8.72483E+1  -2.14482E+2
   1.48793E+2  -2.79059E+2
   3.42282E+2   1.35814E+2
  -3.61126E+1   4.92290E+2
  -2.09930E+2   6.42116E+2
  -4.98458E+2  -2.89551E+0
  -1.32253E+2  -3.93695E+2
   1.80302E+2  -4.14277E+2
   1.44405E+2   1.58783E+2
   1.71023E+1   2.59026E+2
  -1.84815E+2  -3.44450E+1
   3.46356E+1   1.19830E+2
   1.77166E+2   7.74631E+1
  -1.53906E+2  -1.32882E+1
  -1.18705E+2  -3.19907E+2
   1.94538E+2  -4.32375E+2
   3.70167E+2   8.79090E+1
   1.59312E+2   3.02787E+2
  -9.90946E+1   3.61999E+2
  -4.67930E+2   7.89323E+1
  -3.58549E+2   1.30339E+1
   1.22095E+2   6.18491E+1
  -1.88877E+2   1.04123E+2
  -2.73491E+1  -9.94107E+1
  -1.54571E+2  -4.78071E+2
   1.98607E+2  -4.78018E+1
   1.05584E+2   1.60243E+2
  -1.31390E+2   4.54739E+2
  -4.10089E+2  -1.25576E+2
  -2.91670E+2  -3.27896E+2
   5.98973E+1  -2.79207E+2
   3.15928E+2  -1.41395E+1
   1.78010E+2   2.71491E+2
   4.30969E+0   9.05282E+1
   1.60083E+2  -8.45281E+1
