 
 $NMID
 ID=''
 FMTDAT='(2E13.5)'
 TRAMP=   1.00000E+0
 VOLUME=   1.00000E+0
 $END
  -3.35449E+5   6.25295E+5
  -1.37047E+6   1.21906E+6
  -1.18851E+6   1.29140E+6
  -1.24729E+6   1.10832E+6
  -1.38273E+6   1.14221E+6
  -1.31050E+6   1.14682E+6
  -1.29412E+6   1.02008E+6
  -1.37282E+6   9.90877E+5
  -1.36606E+6   9.94559E+5
  -1.36878E+6   9.51678E+5
  -1.37595E+6   9.34478E+5
  -1.34899E+6   8.88682E+5
  -1.37280E+6   8.29887E+5
  -1.39447E+6   8.35228E+5
  -1.36176E+6   8.20190E+5
  -1.35474E+6   7.71090E+5
  -1.37342E+6   7.47899E+5
  -1.37000E+6   7.10262E+5
  -1.37898E+6   6.62771E+5
  -1.38259E+6   6.40942E+5
  -1.36965E+6   5.99962E+5
  -1.37523E+6   5.53230E+5
  -1.37731E+6   5.30989E+5
  -1.36580E+6   4.98780E+5
  -1.36457E+6   4.59087E+5
  -1.35630E+6   4.42621E+5
  -1.34288E+6   4.17498E+5
  -1.34072E+6   3.91741E+5
  -1.33250E+6   3.72712E+5
  -1.31704E+6   3.48295E+5
  -1.31336E+6   3.16800E+5
  -1.30387E+6   2.92885E+5
  -1.29252E+6   2.61374E+5
  -1.28616E+6   2.30785E+5
  -1.27321E+6   2.05802E+5
  -1.25993E+6   1.75951E+5
  -1.25510E+6   1.44487E+5
  -1.24316E+6   1.16502E+5
  -1.22599E+6   9.08027E+4
  -1.21548E+6   6.90726E+4
  -1.20228E+6   4.78471E+4
  -1.18552E+6   2.53464E+4
  -1.17111E+6   9.03305E+3
  -1.15903E+6  -7.49793E+3
  -1.14405E+6  -2.79465E+4
  -1.12999E+6  -4.60077E+4
  -1.11527E+6  -6.53598E+4
  -1.10075E+6  -9.02632E+4
  -1.08363E+6  -1.13951E+5
  -1.06615E+6  -1.33704E+5
  -1.05033E+6  -1.55121E+5
  -1.03506E+6  -1.78087E+5
  -1.01833E+6  -1.99577E+5
  -1.00207E+6  -2.19779E+5
  -9.85815E+5  -2.38877E+5
  -9.68331E+5  -2.58589E+5
  -9.50917E+5  -2.76406E+5
  -9.33880E+5  -2.91159E+5
  -9.17355E+5  -3.05911E+5
  -9.00934E+5  -3.21992E+5
  -8.83661E+5  -3.37311E+5
  -8.67080E+5  -3.51513E+5
  -8.51208E+5  -3.67221E+5
  -8.32486E+5  -3.83591E+5
  -8.12645E+5  -3.98385E+5
  -7.94682E+5  -4.11711E+5
  -7.77456E+5  -4.25780E+5
  -7.58449E+5  -4.38895E+5
  -7.40640E+5  -4.51295E+5
  -7.24819E+5  -4.64025E+5
  -7.07068E+5  -4.76056E+5
  -6.88499E+5  -4.85174E+5
  -6.72118E+5  -4.93923E+5
  -6.56067E+5  -5.04751E+5
  -6.38409E+5  -5.14411E+5
  -6.20766E+5  -5.22214E+5
  -6.04094E+5  -5.30154E+5
  -5.86460E+5  -5.39412E+5
  -5.68527E+5  -5.48336E+5
  -5.50293E+5  -5.55371E+5
  -5.32410E+5  -5.62333E+5
  -5.15021E+5  -5.69088E+5
  -4.97093E+5  -5.75086E+5
  -4.80214E+5  -5.79876E+5
  -4.63088E+5  -5.84550E+5
  -4.46381E+5  -5.88588E+5
  -4.30317E+5  -5.91470E+5
  -4.15030E+5  -5.93889E+5
  -3.99723E+5  -5.96209E+5
  -3.84357E+5  -5.97664E+5
  -3.69253E+5  -5.98511E+5
  -3.54258E+5  -6.00094E+5
  -3.38681E+5  -6.01704E+5
  -3.22720E+5  -6.02410E+5
  -3.07238E+5  -6.02068E+5
  -2.92227E+5  -6.02609E+5
  -2.77102E+5  -6.02930E+5
  -2.61418E+5  -6.02778E+5
  -2.47020E+5  -6.01807E+5
  -2.33018E+5  -6.00518E+5
  -2.19313E+5  -5.99277E+5
  -2.05147E+5  -5.97471E+5
  -1.91326E+5  -5.94977E+5
  -1.78503E+5  -5.92085E+5
  -1.66137E+5  -5.88827E+5
  -1.54131E+5  -5.86152E+5
  -1.41850E+5  -5.83300E+5
  -1.28943E+5  -5.79907E+5
  -1.16854E+5  -5.75305E+5
  -1.05867E+5  -5.70741E+5
  -9.42869E+4  -5.67398E+5
  -8.19421E+4  -5.64038E+5
  -7.00440E+4  -5.59913E+5
  -5.83303E+4  -5.55507E+5
  -4.64782E+4  -5.50761E+5
  -3.51734E+4  -5.46362E+5
  -2.39328E+4  -5.41368E+5
  -1.34904E+4  -5.35609E+5
  -3.46141E+3  -5.30075E+5
   6.27708E+3  -5.24222E+5
   1.56015E+4  -5.19675E+5
   2.51215E+4  -5.14388E+5
   3.47650E+4  -5.08561E+5
   4.42293E+4  -5.02966E+5
   5.34418E+4  -4.97116E+5
   6.21448E+4  -4.90837E+5
   7.07329E+4  -4.83959E+5
   7.91192E+4  -4.77722E+5
   8.72594E+4  -4.71467E+5
   9.55197E+4  -4.65132E+5
   1.03918E+5  -4.58680E+5
   1.12106E+5  -4.51171E+5
   1.20040E+5  -4.44178E+5
   1.27453E+5  -4.37211E+5
   1.34702E+5  -4.30120E+5
   1.41522E+5  -4.22513E+5
   1.48303E+5  -4.15554E+5
   1.54837E+5  -4.08563E+5
   1.61306E+5  -4.01228E+5
   1.68029E+5  -3.93717E+5
   1.74082E+5  -3.85891E+5
   1.79245E+5  -3.78347E+5
   1.84331E+5  -3.70691E+5
   1.89502E+5  -3.63364E+5
   1.94791E+5  -3.55569E+5
   1.99508E+5  -3.47886E+5
   2.04027E+5  -3.40028E+5
   2.08479E+5  -3.32193E+5
   2.12415E+5  -3.24041E+5
   2.15899E+5  -3.16175E+5
   2.19183E+5  -3.08640E+5
   2.22484E+5  -3.00977E+5
   2.25553E+5  -2.93350E+5
   2.28443E+5  -2.85898E+5
   2.31336E+5  -2.77954E+5
   2.33708E+5  -2.70490E+5
   2.36343E+5  -2.63290E+5
   2.39044E+5  -2.55722E+5
   2.41069E+5  -2.48074E+5
   2.42597E+5  -2.40376E+5
   2.44556E+5  -2.33421E+5
   2.46090E+5  -2.25797E+5
   2.47742E+5  -2.18556E+5
   2.48940E+5  -2.10988E+5
   2.50033E+5  -2.03997E+5
   2.50747E+5  -1.97024E+5
   2.51897E+5  -1.90448E+5
   2.53106E+5  -1.83325E+5
   2.53495E+5  -1.76940E+5
   2.54194E+5  -1.70046E+5
   2.54436E+5  -1.63811E+5
   2.54844E+5  -1.57371E+5
   2.55009E+5  -1.50925E+5
   2.55281E+5  -1.44887E+5
   2.55005E+5  -1.38224E+5
   2.55172E+5  -1.32192E+5
   2.55064E+5  -1.26079E+5
   2.54785E+5  -1.19811E+5
   2.54447E+5  -1.13334E+5
   2.53672E+5  -1.07776E+5
   2.53557E+5  -1.02004E+5
   2.53051E+5  -9.65130E+4
   2.52412E+5  -9.03169E+4
   2.51694E+5  -8.46421E+4
   2.50523E+5  -7.91971E+4
   2.49642E+5  -7.38955E+4
   2.48267E+5  -6.86189E+4
   2.47052E+5  -6.37080E+4
   2.45998E+5  -5.87864E+4
   2.44945E+5  -5.39265E+4
   2.44306E+5  -4.89342E+4
   2.42504E+5  -4.39095E+4
   2.40944E+5  -3.87298E+4
   2.39255E+5  -3.38479E+4
   2.37300E+5  -2.92430E+4
   2.35842E+5  -2.45332E+4
   2.34018E+5  -2.00517E+4
   2.32332E+5  -1.55832E+4
   2.30433E+5  -1.10536E+4
   2.28240E+5  -6.51305E+3
   2.25965E+5  -2.07973E+3
   2.23914E+5   2.37395E+3
   2.21416E+5   6.54686E+3
   2.19064E+5   1.00748E+4
   2.16893E+5   1.41440E+4
   2.14699E+5   1.81959E+4
   2.11989E+5   2.20436E+4
   2.09590E+5   2.56313E+4
   2.06931E+5   2.94601E+4
   2.03987E+5   3.28746E+4
   2.01188E+5   3.67098E+4
   1.98420E+5   3.97875E+4
   1.95661E+5   4.28986E+4
   1.92669E+5   4.60889E+4
   1.89999E+5   4.94451E+4
   1.86668E+5   5.24762E+4
   1.83668E+5   5.51090E+4
   1.80725E+5   5.79324E+4
   1.77416E+5   6.01563E+4
   1.74343E+5   6.29755E+4
   1.71000E+5   6.52095E+4
   1.68193E+5   6.77030E+4
   1.64943E+5   6.98123E+4
   1.62053E+5   7.19889E+4
   1.58566E+5   7.46772E+4
   1.55319E+5   7.62637E+4
   1.52403E+5   7.80698E+4
   1.48981E+5   7.99820E+4
   1.45877E+5   8.15491E+4
   1.42518E+5   8.34307E+4
   1.39331E+5   8.49745E+4
   1.35971E+5   8.61576E+4
   1.32952E+5   8.78911E+4
   1.30003E+5   8.87678E+4
   1.26794E+5   9.01255E+4
   1.23641E+5   9.11116E+4
   1.20530E+5   9.22239E+4
   1.17481E+5   9.31398E+4
   1.14350E+5   9.39768E+4
   1.11304E+5   9.45885E+4
   1.08349E+5   9.54028E+4
   1.05531E+5   9.60181E+4
   1.02388E+5   9.67613E+4
   9.92376E+4   9.72764E+4
   9.63739E+4   9.78921E+4
   9.36635E+4   9.80852E+4
   9.05612E+4   9.86907E+4
   8.77714E+4   9.89365E+4
   8.50128E+4   9.92805E+4
   8.23552E+4   9.94508E+4
   7.97992E+4   9.97608E+4
   7.67957E+4   9.98284E+4
   7.41584E+4   1.00167E+5
   7.15719E+4   1.00089E+5
   6.88589E+4   1.00018E+5
   6.63036E+4   1.00062E+5
   6.37045E+4   9.97120E+4
   6.12328E+4   1.00254E+5
   5.83790E+4   1.00226E+5
   5.57691E+4   1.00243E+5
   5.31974E+4   1.00055E+5
   5.07517E+4   9.97125E+4
   4.82336E+4   9.93806E+4
   4.57550E+4   9.90107E+4
   4.35703E+4   9.86166E+4
   4.10964E+4   9.83576E+4
   3.87880E+4   9.80862E+4
   3.64442E+4   9.77641E+4
   3.43194E+4   9.72516E+4
   3.20090E+4   9.67056E+4
   2.98717E+4   9.62138E+4
   2.76849E+4   9.54603E+4
   2.54695E+4   9.49653E+4
   2.34455E+4   9.44947E+4
   2.12425E+4   9.39790E+4
   1.91866E+4   9.28568E+4
   1.69409E+4   9.23497E+4
   1.50240E+4   9.15036E+4
   1.31192E+4   9.10041E+4
   1.12414E+4   8.99300E+4
   9.33247E+3   8.90717E+4
   7.47701E+3   8.82117E+4
   5.81528E+3   8.74094E+4
   4.07605E+3   8.64442E+4
   2.52357E+3   8.57192E+4
   6.85183E+2   8.45653E+4
  -8.56812E+2   8.36892E+4
  -2.56843E+3   8.25537E+4
  -3.92896E+3   8.16107E+4
  -5.57932E+3   8.08675E+4
  -7.13704E+3   7.94779E+4
  -8.51547E+3   7.87191E+4
  -9.94767E+3   7.77523E+4
  -1.11318E+4   7.64660E+4
  -1.24665E+4   7.56002E+4
  -1.38720E+4   7.43809E+4
  -1.49376E+4   7.32401E+4
  -1.61219E+4   7.24713E+4
  -1.72857E+4   7.12170E+4
  -1.84638E+4   6.99438E+4
  -1.94055E+4   6.88810E+4
  -2.03993E+4   6.76590E+4
  -2.16399E+4   6.65866E+4
  -2.27762E+4   6.56200E+4
  -2.39603E+4   6.46707E+4
  -2.46565E+4   6.31546E+4
  -2.55798E+4   6.21258E+4
  -2.63514E+4   6.08950E+4
  -2.74633E+4   5.98278E+4
  -2.81313E+4   5.88335E+4
  -2.90358E+4   5.77640E+4
  -2.97021E+4   5.67714E+4
  -3.06611E+4   5.54331E+4
  -3.11176E+4   5.46151E+4
  -3.19688E+4   5.31680E+4
  -3.25599E+4   5.20012E+4
  -3.29233E+4   5.10818E+4
  -3.36707E+4   5.00188E+4
  -3.40857E+4   4.88235E+4
  -3.45649E+4   4.76845E+4
  -3.50333E+4   4.66774E+4
  -3.56345E+4   4.54799E+4
  -3.61352E+4   4.44240E+4
  -3.66382E+4   4.31422E+4
  -3.65230E+4   4.22227E+4
  -3.71285E+4   4.13366E+4
  -3.75194E+4   4.00685E+4
  -3.77083E+4   3.91271E+4
  -3.80907E+4   3.79154E+4
  -3.82797E+4   3.68089E+4
  -3.86980E+4   3.59213E+4
  -3.86308E+4   3.47071E+4
  -3.92533E+4   3.37974E+4
  -3.92075E+4   3.28343E+4
  -3.94850E+4   3.19139E+4
  -3.94196E+4   3.06518E+4
  -3.96224E+4   2.97566E+4
  -3.95863E+4   2.87479E+4
  -3.97365E+4   2.77014E+4
  -3.96284E+4   2.67235E+4
  -3.96472E+4   2.58950E+4
  -3.97544E+4   2.48558E+4
  -3.96685E+4   2.39629E+4
  -3.97365E+4   2.34303E+4
  -3.93276E+4   2.21350E+4
  -3.95111E+4   2.10826E+4
  -3.91239E+4   2.02498E+4
  -3.92450E+4   1.95030E+4
  -3.91354E+4   1.86140E+4
  -3.86599E+4   1.79338E+4
  -3.86105E+4   1.69168E+4
  -3.84042E+4   1.60308E+4
  -3.83818E+4   1.52385E+4
  -3.79410E+4   1.44128E+4
  -3.76511E+4   1.36301E+4
  -3.76547E+4   1.27644E+4
  -3.72805E+4   1.22732E+4
  -3.69951E+4   1.13119E+4
  -3.67821E+4   1.08862E+4
  -3.64366E+4   1.00130E+4
  -3.62037E+4   8.95637E+3
  -3.58657E+4   8.57237E+3
  -3.53978E+4   7.85133E+3
  -3.52044E+4   7.27101E+3
  -3.50886E+4   6.58696E+3
  -3.45628E+4   5.83858E+3
  -3.42186E+4   5.41281E+3
