 
 $NMID
 ID=''
 FMTDAT='(2E13.5)'
 TRAMP=   1.00000E+0
 VOLUME=   1.00000E+0
 $END
  -6.61355E+3  -4.45293E+3
  -7.12585E+3   9.82082E+3
   1.25860E+4  -1.21595E+2
   1.42030E+3  -1.65260E+4
  -1.13751E+4   6.18784E+3
   6.34462E+3   1.19170E+4
   6.70424E+3  -1.13356E+4
  -8.84269E+3  -5.23755E+3
   1.53884E+3   6.95825E+3
   9.21616E+3  -4.00262E+3
  -4.69230E+3  -1.70525E+3
  -3.75959E+3   7.94414E+3
   4.40584E+3  -1.28389E+3
  -2.05329E+2  -1.44072E+3
  -2.75781E+3   7.49514E+3
   2.95363E+2  -1.29335E+3
  -1.37821E+3  -6.78323E+3
   5.66926E+2   3.04600E+3
   2.88253E+3   2.93535E+3
  -1.04371E+3  -3.18810E+3
  -2.22453E+3  -3.73640E+2
   8.97118E+2   4.32064E+2
   1.43242E+3  -1.46959E+3
  -3.56955E+1   1.30574E+3
  -1.21947E+3   1.06018E+3
  -6.82687E+2  -2.54133E+3
   1.95938E+3  -1.02883E+3
   1.29299E+3   2.66192E+3
  -2.01781E+3   1.13011E+3
  -6.02594E+2  -1.92436E+3
   2.60663E+3  -5.75948E+2
   6.08673E+2   1.40795E+3
  -2.11351E+3   1.43399E+3
  -1.28162E+3   7.09333E+2
   2.09490E+1  -3.17071E+2
  -2.81148E+2  -2.03381E+3
   3.76890E+1  -1.16301E+3
   1.09426E+3   9.51882E+2
   9.23257E+2   1.44167E+2
  -7.10154E+2  -1.26072E+2
  -1.06989E+3   1.53588E+3
   8.73502E+1   2.51680E+2
  -6.12192E+2  -1.87502E+3
  -1.54236E+3  -2.93482E+2
  -2.08415E+2   4.48577E+2
   1.41861E+3  -2.15865E+3
   1.81381E+3  -5.80692E+2
   4.47325E+2   3.11669E+3
  -1.21607E+3   1.87175E+3
  -1.12928E+3  -1.22430E+3
  -1.00454E+2  -5.92811E+2
   9.35083E+1   6.20841E+2
  -4.16354E+2  -5.58851E+2
  -8.66807E+1  -1.29502E+3
   7.76791E+2  -2.58565E+1
   8.10233E+2   6.73674E+2
  -3.45816E+2   4.76902E+2
  -9.67644E+2  -8.07666E+1
  -4.40600E+2  -8.50044E+2
   9.46884E+1  -4.69963E+2
   3.97169E+2  -2.72208E+1
   3.86897E+2  -7.41981E+2
   1.40214E+3  -5.46737E+2
   1.22242E+3   1.20746E+3
  -5.04371E+1   1.75649E+3
  -9.67418E+2   3.17839E+2
  -9.80756E+2  -3.75792E+2
  -2.68805E+2  -5.44746E+2
  -3.42354E+2  -3.49744E+2
   1.31040E+2  -1.84555E+2
   9.95080E+1   2.61263E+1
  -1.26467E+2  -8.77384E+1
   6.27291E+1  -5.23061E+2
   4.07621E+2  -2.28410E+2
   4.62871E+2  -1.06589E+2
   2.17339E+2   2.50916E+2
   1.90524E+1   3.93945E+1
   3.34026E+2  -7.65273E+1
   1.18742E+2  -4.83897E+1
   1.65423E+1   2.54549E+2
  -2.41594E+2   5.04078E+2
  -4.13638E+2  -2.97548E+2
  -5.88432E+1  -2.38382E+2
   1.78552E+1  -7.00736E+1
  -2.01734E+2   6.06851E+1
  -3.58680E+2  -5.31682E+2
  -3.54401E+2  -6.65988E+2
   4.80184E+2  -1.99857E+2
   4.60612E+2  -3.23072E+1
  -1.72957E+2  -7.03641E+1
   1.58751E+2  -4.47910E+2
   6.87847E+2   4.09553E+1
   6.58964E+2   3.43943E+2
  -2.25838E+2   3.54345E+2
  -3.35763E+2   7.88169E+1
  -2.87207E+2  -2.27083E+2
   2.89951E+1  -1.80939E+2
  -3.08212E+2   1.52238E+1
  -2.65775E+2  -2.97039E+2
  -3.82232E+1  -7.49974E+1
   2.29572E+2   1.03772E+2
   1.30689E+2   3.09272E+2
   2.26017E+2   2.44911E+2
  -2.28929E+2   8.22620E+1
  -1.07048E+2  -3.91382E+2
   4.76444E+1  -4.73783E+2
   5.01081E+2  -8.36413E+1
  -4.99874E+1   3.18343E+2
  -2.35721E+2   2.92656E+2
  -3.71214E+2  -4.17220E+2
  -7.68967E+1  -4.96781E+2
   2.01589E+2  -1.64751E+2
   2.00280E+2   2.84642E+2
  -2.05851E+1  -2.03364E+1
   1.64667E+0   4.85143E+1
   2.89112E+2   1.91852E+1
   1.92323E+1   3.99337E+2
  -9.19125E+1   2.66758E+2
  -4.27503E+2   2.25498E+1
  -1.11300E+2  -1.34475E+2
   3.14254E+2   1.08671E+1
   1.25673E+2  -4.89608E+1
   1.26255E+2  -1.91574E+2
   2.98066E+2   1.50297E+2
   1.95261E+2   1.79437E+2
  -4.28867E+1   6.52268E+1
  -1.85519E+2  -2.13459E+2
  -5.13974E+1  -2.20568E+2
  -1.52880E+2   1.39329E-1
   9.67032E+1   5.56431E+0
   6.81653E+1   3.19298E+2
  -4.36618E+1   1.17149E+2
  -2.11302E+2   2.24105E+2
   1.56352E+2  -1.19594E+2
  -1.74707E+1  -6.99633E+1
   1.26814E+1  -2.89373E+1
  -1.48976E+2   1.51808E+2
   1.98950E+2   1.10402E+2
   1.40857E+2   1.28722E+2
  -1.50696E+1   1.58080E+2
  -1.20790E+2  -1.40037E+2
  -1.13501E+2   3.37276E+1
   2.18548E+2  -2.25682E+2
   1.56456E+2   1.99365E+2
   1.30404E+2   2.89551E+2
  -1.63030E+2   1.44911E+2
  -8.50911E+1   7.97342E+1
  -1.38615E+1   2.05380E+2
   2.89707E+0   1.73699E+2
   1.44724E+2   2.92570E+2
  -2.63744E+2  -1.82941E+2
   1.52181E+2  -8.27036E+1
   2.04532E+2   1.42269E+2
  -3.45759E+1   1.72214E+2
  -1.44384E+0  -8.62541E+1
   7.03346E+1   5.08033E+1
   8.28969E+1  -4.07841E+1
   1.44166E+2   3.06733E+2
   1.15881E+2   2.36824E+2
  -1.01534E+2  -4.91354E+1
   2.65955E+2   9.34183E+1
  -1.26151E+2   3.75313E+2
  -2.67170E+2   1.44581E+2
   4.82521E+1  -8.14493E+1
   1.95696E+2   1.97707E+2
  -1.28447E+2  -1.70074E+1
  -8.93932E+1  -1.44200E+2
   1.36947E+2   1.96187E+1
  -9.09743E+1   2.42178E+2
  -6.46748E+0   3.00501E+2
  -1.80299E+2   6.73277E+1
  -7.52246E+1   1.38683E+2
   7.54807E+1   2.58754E+2
   2.23260E+1  -1.89379E+1
   6.24026E+1   1.48128E+1
   3.04521E+2   1.23232E+2
  -1.75463E+1   3.56159E+1
  -1.09424E+2  -2.15873E+1
   2.93570E+2  -2.98426E+1
   1.36179E+2   1.81269E+2
   1.09489E+2   1.29675E+2
  -2.06399E+2   1.65718E+2
   2.64238E+1  -1.35946E+1
   1.38444E+2  -1.49648E+2
   2.01403E+2   1.77943E+2
   1.96433E+2   3.40132E+2
  -2.40503E+1   1.81198E+2
   3.45878E+2  -4.05345E+1
   2.37208E+1   5.89033E+1
   5.07355E+1   6.56025E+1
   1.65207E+2   1.63296E+2
  -6.92571E+1  -1.68705E+2
  -1.08644E+2  -6.44090E+0
   2.52623E+2   8.93717E+0
   1.13101E+2   1.44650E+2
  -6.55722E+1  -4.80167E+1
   7.99351E+1   1.91412E+1
   6.40398E+1   1.95175E+2
   7.11475E+1   1.28220E+2
  -7.02321E+1  -1.03320E+2
   1.36842E+2  -3.34004E+2
  -9.40721E+1   1.13669E+1
   8.34491E+1  -9.71419E+1
  -2.04294E+1  -2.75073E+2
  -1.71568E+2  -7.91027E+1
   1.84383E+1  -1.86543E+2
   4.21103E+1   2.07850E+1
  -6.86054E+1  -6.63182E+0
   1.31263E+2  -3.08368E+1
  -9.07457E+0  -3.12809E+1
  -1.98949E+2  -6.76926E+1
  -2.13373E+2   1.46434E+2
  -1.45905E+2  -4.43745E+1
  -2.88857E+2   3.96653E+1
  -3.22560E+1   3.16848E+1
   5.60935E+1  -1.91256E+2
  -1.47877E+2  -2.28083E+2
   1.99422E+2   1.59600E+2
   2.94547E+1   2.28864E+2
  -7.61091E+1  -6.31153E+1
  -1.77674E+2  -8.02154E+1
  -7.38368E+1  -1.40363E+1
   9.52892E+1   2.07486E+2
  -1.08210E+2   9.71025E+1
  -6.53572E+1   7.82741E+1
  -8.48388E+1  -1.87602E+2
  -1.20492E+2   6.19188E+1
  -1.42692E+2   9.28312E+1
  -2.40157E+2   3.02442E+0
   4.07148E+1  -1.01367E+2
  -8.89867E+1  -1.47964E+2
   2.35499E+1   7.05221E+1
  -3.42854E+2   4.98905E+1
  -1.90612E+2   1.56044E+2
   1.85414E+2   3.00874E+1
  -2.36064E+0   8.30208E+0
  -1.62041E+2   2.03163E+1
  -3.19269E+2  -1.46628E+2
   1.79474E+2   2.35220E+1
  -1.34568E+2   1.79688E+2
   4.58434E+1   1.88340E+1
  -1.80996E+2  -1.38185E+2
  -1.24423E+2   1.25280E+2
  -1.63768E+2  -4.92686E+1
   8.89927E+1  -7.95742E+1
  -1.94204E+2  -1.67968E+1
  -1.72070E+0   1.14116E+2
  -4.48462E+1   8.34512E+1
  -4.48301E+1   1.54043E+2
   1.12208E+2  -6.20473E+1
  -1.03212E+2   2.49207E+1
  -3.01215E+1   9.93933E+1
  -1.37647E+2  -1.57299E+2
  -9.69494E+1  -1.39335E+2
   2.34026E+2   6.84373E+1
   1.15090E+2   2.59535E+2
  -4.64485E+1   5.51641E+1
  -1.83904E+2   1.55807E+2
   3.50188E+1   1.85591E+2
   1.20728E+2   9.66979E+1
   4.94832E+1  -7.60059E+1
   2.35462E+2  -2.84720E+2
   1.23289E+2   1.55341E+1
   1.69696E+2   2.17154E+2
   1.25574E+2   1.70906E+2
   2.16332E+0  -1.82734E+2
  -1.58019E+2  -1.00023E+2
   7.15947E+1   1.22194E+2
  -1.70211E+1   1.22066E+2
  -4.29001E+1   2.31523E+1
   8.92113E+1   4.09485E+1
  -1.78483E+2   2.27331E+0
  -3.98199E+1   1.68707E+2
   1.48351E+2   3.57818E+1
  -5.38988E+1  -1.47448E+2
  -5.20783E+1  -1.05827E+2
  -9.58377E+1  -1.32179E+2
  -2.97989E+1  -1.89175E+1
   3.33144E+1  -1.79533E+1
   1.17318E+2  -3.67005E+1
   1.23103E+1  -1.15799E+2
   5.95543E+0   8.53340E+1
   3.75454E+2  -1.43964E+2
   1.27859E+2   8.62525E+1
   5.18765E+1  -5.41485E+1
   2.62241E+2  -1.07161E+2
   8.02721E+1  -9.50271E+0
   2.61985E+2   1.74114E+2
  -1.06055E+2  -3.36440E+0
  -1.12279E+2  -2.89870E+2
  -9.59307E+1   8.65425E+1
  -1.14119E+2   5.56682E+0
   1.28352E+2  -9.71311E+1
   1.04240E+2  -7.24789E+1
  -1.48039E+2   1.02753E+2
   2.28558E+2  -1.31856E+2
  -9.01014E+1   8.68046E+1
   9.38890E+1  -5.67332E+1
  -1.82695E+2  -1.56423E+2
  -2.37886E+2  -1.19822E+2
   1.19757E+2  -1.39233E+2
  -4.14383E+1   4.17274E+1
  -1.16305E+1   6.32589E+1
  -1.45207E+2  -1.82410E+2
  -1.11924E+2   1.36718E+2
   8.95018E+1  -1.00973E+2
   6.01019E+0   2.31163E+1
   1.70373E+1   1.31348E+2
  -9.81006E+0   1.14930E+2
  -7.91170E+1   1.29301E+2
   4.38817E+1   4.95852E+1
  -3.00686E+2  -1.49376E+2
   1.00375E+2   2.94225E+1
  -1.17720E+1   3.78895E+1
   6.40960E+1   1.29983E+2
   5.18543E+1  -1.62485E+2
   1.39184E+2  -2.77558E+2
   8.28283E+0  -6.13362E+1
   2.47794E+2  -3.70170E+1
   5.20775E+1   2.08549E+2
  -2.70233E+1   2.16464E+1
  -9.38862E+1   7.76028E+1
  -1.25497E+1  -4.53520E+1
   8.75307E+1  -3.53876E+1
  -9.55778E+1   1.02703E+2
  -1.24216E+2  -1.77293E+2
  -1.74448E+2  -6.53216E+1
  -7.10694E+1  -1.46292E+2
   8.80922E+1  -4.68678E+1
  -2.31705E+1  -3.55041E+1
   2.13909E+2   1.58132E+2
   9.28616E+1  -1.13403E+2
  -3.09509E+1  -1.45454E+2
  -2.15480E+2   7.89023E+1
   1.24069E+2   2.44024E+2
  -1.88841E+2  -4.41902E+1
  -2.40669E+2  -4.08258E+1
   2.67254E+2  -2.85766E+1
   1.78605E+2  -1.69413E+2
  -1.39752E+2   1.98925E+2
  -4.61061E+1  -8.84415E+1
  -8.13929E+1  -9.51156E+1
   3.06428E+2   3.78388E+1
   2.11416E+2   8.60490E+1
  -2.24798E+2  -1.05630E+2
   3.21861E+1  -1.01228E+2
   1.48325E+2   4.89961E+1
  -5.27704E+1   9.16818E+1
  -2.06387E+2   1.33737E+2
  -1.67156E+2   6.04833E+1
  -5.23249E+1   1.73245E+2
   2.87173E+1  -5.08071E+1
   1.69836E+2   5.32753E+1
   7.54648E+0  -7.06774E+0
   1.21736E+2  -5.49070E+1
  -1.14415E+1   6.46350E+1
   1.09778E+2  -1.01584E+2
  -8.73645E+1  -4.67927E+1
  -1.06704E+2  -7.87277E+1
   3.62093E+1  -1.49339E+2
  -7.52571E+1  -2.84357E+2
   1.11317E+1   4.06626E+1
  -4.76336E+1  -1.54828E+2
   9.71560E+1   6.06579E+1
   1.52662E+2   1.10214E+2
  -2.89824E+1   1.21098E+2
   1.80574E+2  -8.05902E+1
