 LCModel (Version 6.3-1N) Copyright: S.W. Provencher.          Ref.: Magn. Reson. Med. 30:672-679 (1993).                
 Slice_N1@16_9  28-Feb-2025 11:39:30
 27 lines in following concentration table = NCONC+1
    Conc.  %SD /Cr+PCr  Metabolite                                         
 2.78E-04   5% 2.6E-04 Mac                                                 
    5.728  54%   5.418 Cr                                                  
    2.731 115%   2.582 PCr                                                 
    6.789  17%   6.421 Ins                                                 
   11.222  11%  10.614 NAA                                                 
    4.956  25%   4.687 Tau                                                 
    0.000 999%   0.000 PCho                                                
    1.618  17%   1.531 GPC                                                 
   10.238  12%   9.683 Glu                                                 
    3.363  28%   3.180 Gln                                                 
    8.722  11%   8.249 Ala                                                 
    2.764  57%   2.614 Asc                                                 
    2.911  47%   2.753 Asp                                                 
    0.624 117%   0.590 GABA                                                
    1.244  76%   1.177 Glc                                                 
    1.303  44%   1.232 GSH                                                 
    0.000 999%   0.000 Lac                                                 
    5.779  18%   5.466 NAAG                                                
    0.000 999%   0.000 PE                                                  
    1.618  17%   1.531 GPC+PCho                                            
   17.002   6%  16.080 NAA+NAAG                                            
   13.601  11%  12.863 Glu+Gln                                             
    8.459  10%   8.000 Cr+PCr                                              
   17.002   6%  16.080 NAA+NAAG                                            
    8.459  10%   8.000 Cr+PCr                                              
   13.601  11%  12.863 Glu+Gln                                             
   6 lines in following misc. output table
  FWHM = 0.057 ppm    S/N =   3                                            
  Data shift =-0.016 ppm                                                   
  Ph:-167 deg       0.0 deg/ppm                                            
  alphaB,S = 1.8E-01,   4.7E+01                                            
   19 spline knots.   Ns = 8(1)                                            
  ( 9) 2 infls.   ( 8) 1 extrs.                                            
  480 points on ppm-axis = NY
      4.100000     4.091866     4.083733     4.075600     4.067466     4.059333     4.051199     4.043066     4.034933     4.026799
      4.018666     4.010532     4.002399     3.994265     3.986132     3.977998     3.969864     3.961731     3.953597     3.945463
      3.937330     3.929196     3.921062     3.912929     3.904795     3.896662     3.888528     3.880394     3.872261     3.864127
      3.855993     3.847860     3.839726     3.831592     3.823459     3.815325     3.807191     3.799058     3.790924     3.782790
      3.774657     3.766523     3.758389     3.750256     3.742122     3.733989     3.725855     3.717721     3.709588     3.701454
      3.693320     3.685187     3.677053     3.668919     3.660786     3.652652     3.644518     3.636385     3.628251     3.620117
      3.611984     3.603850     3.595716     3.587583     3.579449     3.571316     3.563182     3.555048     3.546915     3.538781
      3.530647     3.522514     3.514380     3.506246     3.498113     3.489979     3.481845     3.473712     3.465578     3.457444
      3.449311     3.441177     3.433043     3.424910     3.416776     3.408643     3.400509     3.392375     3.384242     3.376108
      3.367974     3.359841     3.351707     3.343573     3.335440     3.327306     3.319172     3.311039     3.302905     3.294771
      3.286638     3.278504     3.270370     3.262237     3.254103     3.245970     3.237836     3.229702     3.221569     3.213435
      3.205301     3.197168     3.189034     3.180900     3.172767     3.164633     3.156499     3.148366     3.140232     3.132098
      3.123965     3.115831     3.107697     3.099564     3.091430     3.083297     3.075163     3.067029     3.058896     3.050762
      3.042628     3.034495     3.026361     3.018227     3.010094     3.001960     2.993826     2.985693     2.977559     2.969425
      2.961292     2.953158     2.945024     2.936891     2.928757     2.920624     2.912490     2.904356     2.896223     2.888089
      2.879955     2.871822     2.863688     2.855554     2.847421     2.839287     2.831153     2.823020     2.814886     2.806752
      2.798619     2.790485     2.782351     2.774218     2.766084     2.757951     2.749817     2.741683     2.733550     2.725416
      2.717282     2.709149     2.701015     2.692881     2.684748     2.676614     2.668480     2.660347     2.652213     2.644079
      2.635946     2.627812     2.619678     2.611545     2.603411     2.595278     2.587144     2.579010     2.570877     2.562743
      2.554609     2.546476     2.538342     2.530208     2.522075     2.513941     2.505807     2.497674     2.489540     2.481406
      2.473273     2.465139     2.457006     2.448872     2.440738     2.432605     2.424471     2.416337     2.408204     2.400070
      2.391936     2.383803     2.375669     2.367535     2.359402     2.351268     2.343134     2.335001     2.326867     2.318733
      2.310600     2.302466     2.294333     2.286199     2.278065     2.269932     2.261798     2.253664     2.245531     2.237397
      2.229263     2.221130     2.212996     2.204862     2.196729     2.188595     2.180461     2.172328     2.164194     2.156060
      2.147927     2.139793     2.131660     2.123526     2.115392     2.107259     2.099125     2.090991     2.082858     2.074724
      2.066590     2.058457     2.050323     2.042189     2.034056     2.025922     2.017788     2.009655     2.001521     1.993387
      1.985254     1.977120     1.968987     1.960853     1.952719     1.944586     1.936452     1.928318     1.920185     1.912051
      1.903917     1.895784     1.887650     1.879516     1.871383     1.863249     1.855115     1.846982     1.838848     1.830714
      1.822581     1.814447     1.806314     1.798180     1.790046     1.781913     1.773779     1.765645     1.757512     1.749378
      1.741244     1.733111     1.724977     1.716843     1.708710     1.700576     1.692442     1.684309     1.676175     1.668041
      1.659908     1.651774     1.643641     1.635507     1.627373     1.619240     1.611106     1.602972     1.594839     1.586705
      1.578571     1.570438     1.562304     1.554170     1.546037     1.537903     1.529769     1.521636     1.513502     1.505368
      1.497235     1.489101     1.480968     1.472834     1.464700     1.456567     1.448433     1.440299     1.432166     1.424032
      1.415898     1.407765     1.399631     1.391497     1.383364     1.375230     1.367096     1.358963     1.350829     1.342695
      1.334562     1.326428     1.318295     1.310161     1.302027     1.293894     1.285760     1.277626     1.269493     1.261359
      1.253225     1.245092     1.236958     1.228824     1.220691     1.212557     1.204423     1.196290     1.188156     1.180022
      1.171889     1.163755     1.155622     1.147488     1.139354     1.131221     1.123087     1.114953     1.106820     1.098686
      1.090552     1.082419     1.074285     1.066151     1.058018     1.049884     1.041750     1.033617     1.025483     1.017349
      1.009216     1.001082     0.992949     0.984815     0.976681     0.968548     0.960414     0.952280     0.944147     0.936013
      0.927879     0.919746     0.911612     0.903478     0.895345     0.887211     0.879077     0.870944     0.862810     0.854676
      0.846543     0.838409     0.830276     0.822142     0.814008     0.805875     0.797741     0.789607     0.781474     0.773340
      0.765206     0.757073     0.748939     0.740805     0.732672     0.724538     0.716404     0.708271     0.700137     0.692003
      0.683870     0.675736     0.667603     0.659469     0.651335     0.643202     0.635068     0.626934     0.618801     0.610667
      0.602533     0.594400     0.586266     0.578132     0.569999     0.561865     0.553731     0.545598     0.537464     0.529330
      0.521197     0.513063     0.504930     0.496796     0.488662     0.480529     0.472395     0.464261     0.456128     0.447994
      0.439861     0.431727     0.423593     0.415460     0.407326     0.399192     0.391059     0.382925     0.374792     0.366658
      0.358524     0.350391     0.342257     0.334124     0.325990     0.317856     0.309723     0.301589     0.293455     0.285322
      0.277188     0.269055     0.260921     0.252787     0.244654     0.236520     0.228386     0.220253     0.212119     0.203986
 NY phased data points follow
  -1.27783E+02 -1.05388E+02 -1.20432E+02 -1.12106E+02 -1.16190E+02 -1.25246E+02 -1.28532E+02 -1.17847E+02 -1.17292E+02 -1.52265E+02
  -1.28951E+02 -1.23162E+02 -1.33532E+02 -1.40951E+02 -1.41458E+02 -1.55815E+02 -1.64425E+02 -1.45554E+02 -1.69294E+02 -1.62154E+02
  -1.60576E+02 -1.62444E+02 -1.48315E+02 -1.47905E+02 -1.33377E+02 -1.30043E+02 -1.12588E+02 -1.01017E+02 -1.11797E+02 -1.06977E+02
  -9.40887E+01 -9.92547E+01 -9.99480E+01 -9.45241E+01 -1.02594E+02 -1.09925E+02 -1.10632E+02 -1.08166E+02 -1.28054E+02 -1.36831E+02
  -1.44570E+02 -1.51136E+02 -1.37218E+02 -1.51871E+02 -1.21317E+02 -9.58747E+01 -1.14342E+02 -9.21944E+01 -7.80175E+01 -6.27274E+01
  -7.41738E+01 -8.50278E+01 -6.54107E+01 -7.73381E+01 -7.83609E+01 -7.59185E+01 -7.61555E+01 -8.38888E+01 -8.78031E+01 -9.22843E+01
  -9.57480E+01 -7.84057E+01 -8.53974E+01 -7.90719E+01 -5.98851E+01 -6.14650E+01 -7.70586E+01 -8.03541E+01 -8.93509E+01 -1.01789E+02
  -9.02726E+01 -8.84967E+01 -9.27882E+01 -1.02651E+02 -7.67250E+01 -5.80546E+01 -6.55794E+01 -4.55856E+01 -5.45022E+01 -6.86753E+01
  -5.48067E+01 -6.15104E+01 -6.48912E+01 -5.83487E+01 -7.27893E+01 -6.36517E+01 -6.28796E+01 -6.35787E+01 -5.78432E+01 -6.44864E+01
  -4.93395E+01 -4.50268E+01 -3.84347E+01 -3.08726E+01 -1.22179E+01 -9.80196E-01 -2.24396E+00 -1.15829E+01 -2.89729E+01 -1.29481E+01
  -1.56883E+01 -3.91820E+01 -5.34207E+01 -4.51738E+01 -6.18839E+01 -8.21474E+01 -8.93379E+01 -1.08627E+02 -1.11882E+02 -1.27221E+02
  -1.31184E+02 -1.51477E+02 -1.43739E+02 -1.19869E+02 -1.28099E+02 -1.31060E+02 -1.24289E+02 -9.11711E+01 -9.24389E+01 -8.22839E+01
  -6.60679E+01 -6.42981E+01 -5.84921E+01 -5.14066E+01 -3.71730E+01 -4.56097E+01 -1.45057E+01 -9.14318E+00 -1.74307E+01 -1.77615E-01
  -8.61485E+00 -2.11799E+01 -5.79842E+01 -7.12835E+01 -9.18195E+01 -1.13205E+02 -1.05931E+02 -1.52671E+02 -1.70667E+02 -1.41517E+02
  -1.30498E+02 -1.29747E+02 -1.39489E+02 -1.31953E+02 -1.30017E+02 -1.28610E+02 -1.25029E+02 -1.27740E+02 -1.09742E+02 -1.05974E+02
  -1.11774E+02 -1.18434E+02 -1.08702E+02 -9.56583E+01 -1.06967E+02 -1.14342E+02 -1.15093E+02 -1.10432E+02 -9.85732E+01 -9.03660E+01
  -1.06472E+02 -1.05017E+02 -1.03619E+02 -1.02857E+02 -8.42632E+01 -8.82882E+01 -8.73439E+01 -8.67539E+01 -7.54477E+01 -7.98262E+01
  -7.29995E+01 -5.60131E+01 -6.62987E+01 -4.30006E+01 -5.23964E+01 -6.33770E+01 -4.93113E+01 -4.96885E+01 -5.80368E+01 -8.80116E+01
  -8.38316E+01 -8.57376E+01 -1.05273E+02 -1.02712E+02 -1.18449E+02 -1.22873E+02 -1.10240E+02 -1.08246E+02 -1.02418E+02 -1.04103E+02
  -8.63358E+01 -7.69730E+01 -1.04048E+02 -9.22993E+01 -8.37223E+01 -9.41839E+01 -8.48451E+01 -7.90197E+01 -7.25666E+01 -8.08771E+01
  -7.78491E+01 -6.02298E+01 -8.09833E+01 -9.20540E+01 -8.61077E+01 -9.34112E+01 -9.21689E+01 -9.69101E+01 -8.80763E+01 -8.98452E+01
  -1.15248E+02 -9.92948E+01 -7.86373E+01 -8.02951E+01 -7.50802E+01 -6.79222E+01 -6.50164E+01 -5.69833E+01 -5.00047E+01 -5.14364E+01
  -5.67530E+01 -5.62836E+01 -6.79551E+01 -8.04104E+01 -7.57948E+01 -8.23641E+01 -7.10626E+01 -8.60439E+01 -9.29852E+01 -8.52591E+01
  -1.09018E+02 -7.81442E+01 -9.64439E+01 -1.24117E+02 -1.08847E+02 -1.35888E+02 -1.41386E+02 -1.43717E+02 -1.46512E+02 -1.30712E+02
  -1.29399E+02 -1.37957E+02 -1.22181E+02 -1.17705E+02 -1.27414E+02 -1.27063E+02 -1.27104E+02 -1.26647E+02 -1.38810E+02 -1.30852E+02
  -1.40912E+02 -1.47964E+02 -1.53391E+02 -1.62703E+02 -1.43221E+02 -1.36978E+02 -9.93252E+01 -6.03272E+01 -2.47799E+01  1.14391E+01
   2.97712E+01  3.66060E+01  5.53210E+01  6.89125E+01  3.71310E+01  3.52960E+01  2.29379E+01  2.04254E+01  2.31799E+01  1.06466E+01
   1.14285E+01  5.58743E+00  3.31861E+01  2.67591E+01  2.84933E+00  7.70108E+00  1.65737E+01 -2.96128E+00 -1.16752E+00  2.14050E+01
  -9.21064E-01  9.66882E+00  5.62315E+00  4.08590E+00  1.69822E+01  1.29476E+00  5.10490E+00  3.76027E+00  4.45110E+00  2.61171E+00
  -1.58468E+01 -1.56072E+01  1.03359E+00 -1.13178E+01 -1.89764E+01 -7.61992E+00 -1.20872E+01 -2.33851E+01 -2.72363E+01 -1.90124E+01
  -1.97214E+01 -2.03297E+01 -2.88189E+01 -3.16227E+01 -1.93664E+01 -1.80113E+01 -1.19262E+01 -1.09771E+01 -2.17069E+01 -1.61820E+01
  -1.85054E+01 -3.70986E+01 -2.01367E+01 -1.04993E+01 -2.31334E+01 -1.74526E+01 -1.33875E+01 -2.39885E+01 -4.59168E+01 -3.94820E+01
  -1.18618E+01 -2.53265E+01 -3.48470E+01 -4.46230E+01 -9.27427E+01 -9.74253E+01 -1.04131E+02 -1.23900E+02 -1.25843E+02 -1.34468E+02
  -1.26210E+02 -1.22812E+02 -1.02959E+02 -1.06781E+02 -1.16761E+02 -9.76939E+01 -8.19232E+01 -5.82577E+01 -5.94414E+01 -4.77994E+01
  -2.79671E+01 -2.78611E+01 -2.84651E+01 -2.84278E+01 -2.27548E+01 -1.17275E+01 -1.15240E+01 -1.44729E+01 -4.94716E+00 -5.29992E+00
  -6.08521E-01 -5.13175E+00 -6.92033E+00 -1.64268E+01 -2.54333E+01 -1.60598E+01 -3.58785E+01 -3.86037E+01 -3.42855E+01 -3.73822E+01
  -4.07871E+01 -3.62908E+01 -3.19336E+01 -3.85624E+01 -1.97590E+01 -2.50093E+01 -2.80552E+01 -1.07739E+01 -8.26779E+00 -1.33179E+01
  -1.71352E+01 -4.84144E+00 -3.07852E+00  8.17523E-01  1.33985E+01  1.54342E+01  4.44499E+00  1.32532E+01  3.84601E+01  2.08390E+01
   2.68510E+01  5.50760E+01  5.79979E+01  6.21006E+01  6.02142E+01  8.61074E+01  9.24047E+01  8.34309E+01  9.31889E+01  8.20479E+01
   9.64006E+01  8.79486E+01  7.30107E+01  8.77966E+01  6.04236E+01  4.04505E+01  4.89161E+01  3.91033E+01  2.09803E+01  1.36938E+01
  -3.23635E-02 -1.35850E+01 -1.72351E+01 -1.09530E+01 -8.48816E+00 -2.42195E+01 -2.94511E+01 -3.20499E+01 -3.50547E+01 -3.68717E+01
  -3.37161E+01 -3.37428E+01 -4.51377E+01 -3.27131E+01 -3.12621E+01 -4.50711E+01 -3.80656E+01 -4.59106E+01 -5.99661E+01 -5.53270E+01
  -5.99445E+01 -5.82688E+01 -4.28424E+01 -4.56594E+01 -4.65761E+01 -2.99420E+01 -3.24992E+01 -4.95133E+01 -5.36064E+01 -5.29742E+01
  -3.65619E+01 -3.94971E+01 -5.61921E+01 -4.60355E+01 -4.26901E+01 -4.34616E+01 -6.35119E+01 -5.42190E+01 -2.54678E+01 -3.61430E+01
  -3.11413E+01 -4.40542E+01 -4.66020E+01 -3.97281E+01 -4.96360E+01 -4.37862E+01 -4.00312E+01 -3.58327E+01 -5.20495E+01 -3.16558E+01
  -3.23972E+01 -5.43608E+01 -3.42813E+01 -3.65991E+01 -2.81729E+01 -4.68010E+01 -4.25030E+01 -3.47796E+01 -5.08222E+01 -3.36311E+01
  -4.68580E+01 -4.69601E+01 -5.12385E+01 -4.79900E+01 -3.08373E+01 -2.76586E+01 -3.34030E+01 -3.49434E+01 -1.59019E+01 -3.31941E+01
  -2.96426E+01 -3.07617E+01 -4.46043E+01 -3.14530E+01 -3.29281E+01 -3.28410E+01 -3.54142E+01 -3.90410E+01 -3.42965E+01 -2.92311E+01
 NY points of the fit to the data follow
  -1.30345E+02 -1.31250E+02 -1.32709E+02 -1.34122E+02 -1.34767E+02 -1.34394E+02 -1.33352E+02 -1.32157E+02 -1.31207E+02 -1.30702E+02
  -1.30816E+02 -1.31992E+02 -1.34587E+02 -1.37992E+02 -1.41785E+02 -1.45461E+02 -1.49001E+02 -1.52976E+02 -1.57276E+02 -1.60786E+02
  -1.62242E+02 -1.60463E+02 -1.54714E+02 -1.45302E+02 -1.33531E+02 -1.20677E+02 -1.07887E+02 -9.65101E+01 -8.75966E+01 -8.19294E+01
  -8.00033E+01 -8.09039E+01 -8.34980E+01 -8.74402E+01 -9.26528E+01 -9.91917E+01 -1.06887E+02 -1.15250E+02 -1.23718E+02 -1.31388E+02
  -1.36805E+02 -1.38716E+02 -1.36742E+02 -1.31082E+02 -1.22323E+02 -1.11481E+02 -9.97804E+01 -8.87578E+01 -8.00157E+01 -7.41990E+01
  -7.12365E+01 -7.11461E+01 -7.28975E+01 -7.56864E+01 -7.93333E+01 -8.29413E+01 -8.60884E+01 -8.89569E+01 -9.11355E+01 -9.18141E+01
  -9.09591E+01 -8.90773E+01 -8.60454E+01 -8.19696E+01 -7.77809E+01 -7.41480E+01 -7.20692E+01 -7.26103E+01 -7.51442E+01 -7.83060E+01
  -8.13138E+01 -8.33173E+01 -8.34370E+01 -8.13838E+01 -7.70792E+01 -7.11500E+01 -6.48218E+01 -5.97446E+01 -5.65608E+01 -5.50922E+01
  -5.56764E+01 -5.84020E+01 -6.23166E+01 -6.62647E+01 -6.93450E+01 -7.09074E+01 -7.05183E+01 -6.81190E+01 -6.40172E+01 -5.86604E+01
  -5.26861E+01 -4.68779E+01 -4.16574E+01 -3.71357E+01 -3.36316E+01 -3.09828E+01 -2.88448E+01 -2.77582E+01 -2.77234E+01 -2.86568E+01
  -3.08814E+01 -3.57148E+01 -4.27938E+01 -5.11845E+01 -6.09753E+01 -7.20249E+01 -8.39116E+01 -9.69252E+01 -1.10558E+02 -1.22946E+02
  -1.32194E+02 -1.37309E+02 -1.38260E+02 -1.36020E+02 -1.31102E+02 -1.22835E+02 -1.12088E+02 -1.01483E+02 -9.25828E+01 -8.46482E+01
  -7.70131E+01 -6.92715E+01 -6.09118E+01 -5.14814E+01 -4.28557E+01 -3.47899E+01 -2.61096E+01 -1.79750E+01 -1.20695E+01 -9.70957E+00
  -1.34191E+01 -2.52378E+01 -4.39167E+01 -6.56668E+01 -8.72819E+01 -1.06762E+02 -1.23399E+02 -1.36225E+02 -1.42512E+02 -1.41875E+02
  -1.38498E+02 -1.36058E+02 -1.34361E+02 -1.32885E+02 -1.31432E+02 -1.29849E+02 -1.28063E+02 -1.26026E+02 -1.23743E+02 -1.21314E+02
  -1.18848E+02 -1.16367E+02 -1.13863E+02 -1.11368E+02 -1.08968E+02 -1.06768E+02 -1.04769E+02 -1.02913E+02 -1.01120E+02 -9.94265E+01
  -9.79170E+01 -9.66522E+01 -9.55563E+01 -9.42991E+01 -9.26727E+01 -9.09143E+01 -8.92243E+01 -8.72879E+01 -8.45961E+01 -8.08055E+01
  -7.61655E+01 -7.17037E+01 -6.82680E+01 -6.60495E+01 -6.47632E+01 -6.42268E+01 -6.49013E+01 -6.75406E+01 -7.21684E+01 -7.77117E+01
  -8.31030E+01 -8.83120E+01 -9.36497E+01 -9.88208E+01 -1.03193E+02 -1.06011E+02 -1.06949E+02 -1.06776E+02 -1.05901E+02 -1.04000E+02
  -1.01213E+02 -9.77695E+01 -9.37968E+01 -8.93402E+01 -8.46443E+01 -8.02395E+01 -7.64722E+01 -7.34376E+01 -7.11364E+01 -6.98117E+01
  -6.98625E+01 -7.09554E+01 -7.24729E+01 -7.46262E+01 -7.78161E+01 -8.16722E+01 -8.58967E+01 -8.99986E+01 -9.39079E+01 -9.76750E+01
  -1.00087E+02 -1.00338E+02 -9.81673E+01 -9.31981E+01 -8.55851E+01 -7.62907E+01 -6.67201E+01 -5.80827E+01 -5.14503E+01 -4.76289E+01
  -4.65762E+01 -4.79938E+01 -5.13702E+01 -5.58704E+01 -6.10278E+01 -6.67736E+01 -7.31106E+01 -8.02735E+01 -8.84572E+01 -9.77802E+01
  -1.07759E+02 -1.17530E+02 -1.26464E+02 -1.33914E+02 -1.39064E+02 -1.41758E+02 -1.42096E+02 -1.40432E+02 -1.37400E+02 -1.33767E+02
  -1.30123E+02 -1.26741E+02 -1.24026E+02 -1.22436E+02 -1.22158E+02 -1.23129E+02 -1.24646E+02 -1.27883E+02 -1.34160E+02 -1.40594E+02
  -1.45794E+02 -1.50237E+02 -1.51654E+02 -1.47666E+02 -1.38374E+02 -1.23091E+02 -9.99773E+01 -6.98316E+01 -3.69525E+01 -6.75611E+00
   1.66754E+01  3.35853E+01  4.60222E+01  5.18400E+01  4.86042E+01  4.02560E+01  3.21478E+01  2.54550E+01  1.98003E+01  1.50811E+01
   1.12964E+01  8.47558E+00  6.61816E+00  5.62578E+00  5.33338E+00  5.50754E+00  5.87189E+00  6.21268E+00  6.34714E+00  6.12827E+00
   5.50139E+00  4.47629E+00  3.06645E+00  1.31161E+00 -7.42390E-01 -3.04132E+00 -5.52088E+00 -8.16002E+00 -1.09465E+01 -1.38400E+01
  -1.67608E+01 -1.95997E+01 -2.22009E+01 -2.43750E+01 -2.59421E+01 -2.67679E+01 -2.67968E+01 -2.60622E+01 -2.46351E+01 -2.26103E+01
  -2.01409E+01 -1.74099E+01 -1.45434E+01 -1.16273E+01 -8.68900E+00 -5.71396E+00 -2.70409E+00  3.23950E-01  3.37878E+00  6.45074E+00
   9.52816E+00  1.26324E+01  1.57751E+01  1.88376E+01  2.10750E+01  2.27830E+01  2.38357E+01  2.32358E+01  2.06639E+01  1.51904E+01
   5.30048E+00 -9.29301E+00 -2.73976E+01 -4.71048E+01 -6.61879E+01 -8.24323E+01 -9.46356E+01 -1.02280E+02 -1.04986E+02 -1.03690E+02
  -1.00215E+02 -9.57973E+01 -9.13620E+01 -8.77337E+01 -8.43930E+01 -8.06078E+01 -7.63909E+01 -7.19061E+01 -6.73420E+01 -6.28244E+01
  -5.84278E+01 -5.42089E+01 -5.01897E+01 -4.63890E+01 -4.28930E+01 -3.98227E+01 -3.73004E+01 -3.54429E+01 -3.43540E+01 -3.40730E+01
  -3.45549E+01 -3.56845E+01 -3.72568E+01 -3.90284E+01 -4.07479E+01 -4.21360E+01 -4.29409E+01 -4.29864E+01 -4.21839E+01 -4.05254E+01
  -3.80935E+01 -3.50694E+01 -3.16528E+01 -2.80000E+01 -2.42416E+01 -2.04792E+01 -1.67503E+01 -1.30597E+01 -9.41174E+00 -5.76694E+00
  -2.05607E+00  1.76868E+00  5.76964E+00  1.00406E+01  1.46456E+01  1.96064E+01  2.49706E+01  3.07571E+01  3.69126E+01  4.33487E+01
   4.99196E+01  5.64075E+01  6.25457E+01  6.79725E+01  7.22098E+01  7.48170E+01  7.54711E+01  7.39759E+01  7.03595E+01  6.49538E+01
   5.82354E+01  5.06817E+01  4.27690E+01  3.48651E+01  2.71512E+01  1.96553E+01  1.23175E+01  5.07742E+00 -2.03271E+00 -8.87583E+00
  -1.52725E+01 -2.10315E+01 -2.59666E+01 -2.99966E+01 -3.31494E+01 -3.55311E+01 -3.72900E+01 -3.85960E+01 -3.95730E+01 -4.02978E+01
  -4.08259E+01 -4.11883E+01 -4.14266E+01 -4.15625E+01 -4.15989E+01 -4.15540E+01 -4.14632E+01 -4.13514E+01 -4.12203E+01 -4.10673E+01
  -4.08984E+01 -4.07372E+01 -4.05846E+01 -4.04165E+01 -4.02385E+01 -4.00785E+01 -3.99327E+01 -3.97621E+01 -3.95735E+01 -3.93973E+01
  -3.92501E+01 -3.91224E+01 -3.89935E+01 -3.88567E+01 -3.87213E+01 -3.85815E+01 -3.84152E+01 -3.82176E+01 -3.80073E+01 -3.78033E+01
  -3.76280E+01 -3.74930E+01 -3.74063E+01 -3.73569E+01 -3.73133E+01 -3.72581E+01 -3.71877E+01 -3.71027E+01 -3.70049E+01 -3.68905E+01
  -3.67522E+01 -3.65967E+01 -3.64367E+01 -3.62709E+01 -3.60995E+01 -3.59249E+01 -3.57464E+01 -3.55700E+01 -3.54092E+01 -3.52801E+01
  -3.51772E+01 -3.50947E+01 -3.50152E+01 -3.49198E+01 -3.47935E+01 -3.46281E+01 -3.44345E+01 -3.42344E+01 -3.40393E+01 -3.38768E+01
  -3.37629E+01 -3.36789E+01 -3.36088E+01 -3.35611E+01 -3.35052E+01 -3.34124E+01 -3.32739E+01 -3.30836E+01 -3.28318E+01 -3.24984E+01
 NY background values follow
    -1.053E+02   -1.050E+02   -1.047E+02   -1.045E+02   -1.042E+02   -1.039E+02   -1.037E+02   -1.034E+02   -1.031E+02   -1.028E+02
    -1.026E+02   -1.023E+02   -1.020E+02   -1.017E+02   -1.015E+02   -1.012E+02   -1.009E+02   -1.006E+02   -1.003E+02   -1.000E+02
    -9.974E+01   -9.945E+01   -9.915E+01   -9.886E+01   -9.856E+01   -9.826E+01   -9.795E+01   -9.764E+01   -9.733E+01   -9.702E+01
    -9.670E+01   -9.638E+01   -9.606E+01   -9.574E+01   -9.541E+01   -9.508E+01   -9.474E+01   -9.440E+01   -9.406E+01   -9.372E+01
    -9.338E+01   -9.303E+01   -9.268E+01   -9.233E+01   -9.198E+01   -9.162E+01   -9.127E+01   -9.091E+01   -9.055E+01   -9.019E+01
    -8.983E+01   -8.946E+01   -8.910E+01   -8.873E+01   -8.836E+01   -8.800E+01   -8.763E+01   -8.726E+01   -8.689E+01   -8.652E+01
    -8.615E+01   -8.578E+01   -8.541E+01   -8.504E+01   -8.467E+01   -8.430E+01   -8.393E+01   -8.356E+01   -8.319E+01   -8.282E+01
    -8.245E+01   -8.209E+01   -8.172E+01   -8.136E+01   -8.100E+01   -8.064E+01   -8.028E+01   -7.993E+01   -7.957E+01   -7.922E+01
    -7.887E+01   -7.853E+01   -7.818E+01   -7.784E+01   -7.751E+01   -7.717E+01   -7.684E+01   -7.651E+01   -7.619E+01   -7.587E+01
    -7.555E+01   -7.524E+01   -7.493E+01   -7.462E+01   -7.432E+01   -7.402E+01   -7.373E+01   -7.344E+01   -7.316E+01   -7.287E+01
    -7.260E+01   -7.232E+01   -7.205E+01   -7.179E+01   -7.153E+01   -7.127E+01   -7.102E+01   -7.077E+01   -7.053E+01   -7.028E+01
    -7.005E+01   -6.982E+01   -6.959E+01   -6.937E+01   -6.915E+01   -6.893E+01   -6.872E+01   -6.851E+01   -6.831E+01   -6.811E+01
    -6.792E+01   -6.773E+01   -6.755E+01   -6.736E+01   -6.719E+01   -6.702E+01   -6.685E+01   -6.668E+01   -6.653E+01   -6.637E+01
    -6.622E+01   -6.607E+01   -6.593E+01   -6.579E+01   -6.566E+01   -6.553E+01   -6.541E+01   -6.529E+01   -6.517E+01   -6.506E+01
    -6.495E+01   -6.485E+01   -6.475E+01   -6.465E+01   -6.456E+01   -6.448E+01   -6.439E+01   -6.432E+01   -6.424E+01   -6.417E+01
    -6.411E+01   -6.405E+01   -6.399E+01   -6.394E+01   -6.389E+01   -6.385E+01   -6.381E+01   -6.377E+01   -6.374E+01   -6.371E+01
    -6.369E+01   -6.367E+01   -6.365E+01   -6.364E+01   -6.363E+01   -6.362E+01   -6.362E+01   -6.362E+01   -6.362E+01   -6.363E+01
    -6.364E+01   -6.366E+01   -6.367E+01   -6.369E+01   -6.372E+01   -6.374E+01   -6.377E+01   -6.380E+01   -6.384E+01   -6.388E+01
    -6.392E+01   -6.396E+01   -6.401E+01   -6.406E+01   -6.411E+01   -6.416E+01   -6.422E+01   -6.427E+01   -6.433E+01   -6.439E+01
    -6.446E+01   -6.452E+01   -6.459E+01   -6.466E+01   -6.473E+01   -6.480E+01   -6.487E+01   -6.495E+01   -6.502E+01   -6.510E+01
    -6.517E+01   -6.525E+01   -6.533E+01   -6.541E+01   -6.549E+01   -6.557E+01   -6.565E+01   -6.573E+01   -6.581E+01   -6.589E+01
    -6.598E+01   -6.606E+01   -6.614E+01   -6.622E+01   -6.630E+01   -6.638E+01   -6.646E+01   -6.654E+01   -6.662E+01   -6.670E+01
    -6.678E+01   -6.686E+01   -6.694E+01   -6.702E+01   -6.710E+01   -6.718E+01   -6.726E+01   -6.734E+01   -6.742E+01   -6.749E+01
    -6.757E+01   -6.765E+01   -6.773E+01   -6.780E+01   -6.788E+01   -6.795E+01   -6.803E+01   -6.810E+01   -6.818E+01   -6.825E+01
    -6.832E+01   -6.840E+01   -6.847E+01   -6.854E+01   -6.861E+01   -6.868E+01   -6.875E+01   -6.882E+01   -6.888E+01   -6.895E+01
    -6.901E+01   -6.908E+01   -6.914E+01   -6.920E+01   -6.926E+01   -6.932E+01   -6.938E+01   -6.944E+01   -6.949E+01   -6.955E+01
    -6.960E+01   -6.965E+01   -6.970E+01   -6.975E+01   -6.979E+01   -6.983E+01   -6.988E+01   -6.992E+01   -6.996E+01   -6.999E+01
    -7.003E+01   -7.006E+01   -7.009E+01   -7.011E+01   -7.014E+01   -7.016E+01   -7.017E+01   -7.019E+01   -7.019E+01   -7.020E+01
    -7.020E+01   -7.019E+01   -7.018E+01   -7.016E+01   -7.013E+01   -7.010E+01   -7.006E+01   -7.002E+01   -6.997E+01   -6.991E+01
    -6.984E+01   -6.976E+01   -6.968E+01   -6.958E+01   -6.948E+01   -6.937E+01   -6.924E+01   -6.911E+01   -6.897E+01   -6.882E+01
    -6.865E+01   -6.847E+01   -6.829E+01   -6.809E+01   -6.788E+01   -6.766E+01   -6.743E+01   -6.719E+01   -6.693E+01   -6.667E+01
    -6.640E+01   -6.611E+01   -6.582E+01   -6.551E+01   -6.520E+01   -6.487E+01   -6.454E+01   -6.419E+01   -6.383E+01   -6.346E+01
    -6.309E+01   -6.270E+01   -6.230E+01   -6.190E+01   -6.148E+01   -6.105E+01   -6.062E+01   -6.017E+01   -5.972E+01   -5.925E+01
    -5.878E+01   -5.829E+01   -5.780E+01   -5.730E+01   -5.679E+01   -5.628E+01   -5.575E+01   -5.523E+01   -5.469E+01   -5.415E+01
    -5.361E+01   -5.306E+01   -5.251E+01   -5.196E+01   -5.140E+01   -5.084E+01   -5.028E+01   -4.972E+01   -4.916E+01   -4.860E+01
    -4.803E+01   -4.747E+01   -4.691E+01   -4.636E+01   -4.580E+01   -4.525E+01   -4.470E+01   -4.416E+01   -4.362E+01   -4.308E+01
    -4.255E+01   -4.203E+01   -4.151E+01   -4.100E+01   -4.050E+01   -4.000E+01   -3.951E+01   -3.902E+01   -3.855E+01   -3.808E+01
    -3.761E+01   -3.716E+01   -3.671E+01   -3.627E+01   -3.584E+01   -3.542E+01   -3.501E+01   -3.460E+01   -3.421E+01   -3.382E+01
    -3.345E+01   -3.308E+01   -3.272E+01   -3.237E+01   -3.204E+01   -3.171E+01   -3.140E+01   -3.109E+01   -3.080E+01   -3.052E+01
    -3.024E+01   -2.998E+01   -2.974E+01   -2.950E+01   -2.927E+01   -2.905E+01   -2.885E+01   -2.865E+01   -2.847E+01   -2.829E+01
    -2.813E+01   -2.797E+01   -2.783E+01   -2.769E+01   -2.756E+01   -2.744E+01   -2.733E+01   -2.723E+01   -2.714E+01   -2.706E+01
    -2.698E+01   -2.691E+01   -2.685E+01   -2.680E+01   -2.676E+01   -2.672E+01   -2.669E+01   -2.667E+01   -2.665E+01   -2.664E+01
    -2.664E+01   -2.664E+01   -2.665E+01   -2.667E+01   -2.669E+01   -2.671E+01   -2.675E+01   -2.678E+01   -2.683E+01   -2.687E+01
    -2.692E+01   -2.698E+01   -2.704E+01   -2.710E+01   -2.716E+01   -2.723E+01   -2.731E+01   -2.738E+01   -2.746E+01   -2.754E+01
    -2.762E+01   -2.770E+01   -2.779E+01   -2.788E+01   -2.797E+01   -2.806E+01   -2.815E+01   -2.824E+01   -2.833E+01   -2.842E+01
    -2.851E+01   -2.860E+01   -2.869E+01   -2.878E+01   -2.887E+01   -2.897E+01   -2.906E+01   -2.915E+01   -2.924E+01   -2.933E+01
    -2.942E+01   -2.951E+01   -2.960E+01   -2.969E+01   -2.978E+01   -2.987E+01   -2.996E+01   -3.005E+01   -3.014E+01   -3.023E+01
    -3.033E+01   -3.042E+01   -3.051E+01   -3.060E+01   -3.069E+01   -3.078E+01   -3.087E+01   -3.096E+01   -3.105E+01   -3.115E+01
 Mac      Conc. = 2.78E-04
  -1.25108E+02 -1.25389E+02 -1.25713E+02 -1.26138E+02 -1.26677E+02 -1.27322E+02 -1.28075E+02 -1.28905E+02 -1.29747E+02 -1.30485E+02
  -1.31069E+02 -1.31524E+02 -1.31827E+02 -1.31931E+02 -1.31791E+02 -1.31277E+02 -1.30234E+02 -1.28604E+02 -1.26458E+02 -1.23891E+02
  -1.21019E+02 -1.18008E+02 -1.15070E+02 -1.12404E+02 -1.10085E+02 -1.08019E+02 -1.06102E+02 -1.04313E+02 -1.02619E+02 -1.00979E+02
  -9.94231E+01 -9.80310E+01 -9.68360E+01 -9.57920E+01 -9.48089E+01 -9.37845E+01 -9.26401E+01 -9.14016E+01 -9.01406E+01 -8.89002E+01
  -8.76765E+01 -8.64867E+01 -8.53845E+01 -8.44343E+01 -8.36918E+01 -8.31440E+01 -8.27614E+01 -8.25730E+01 -8.26122E+01 -8.28526E+01
  -8.32307E+01 -8.36347E+01 -8.39258E+01 -8.40262E+01 -8.38967E+01 -8.34754E+01 -8.27724E+01 -8.18520E+01 -8.07896E+01 -7.96561E+01
  -7.85654E+01 -7.76162E+01 -7.68692E+01 -7.63600E+01 -7.60512E+01 -7.58424E+01 -7.56466E+01 -7.53747E+01 -7.48852E+01 -7.40786E+01
  -7.29648E+01 -7.16398E+01 -7.02492E+01 -6.89319E+01 -6.77727E+01 -6.68438E+01 -6.62264E+01 -6.59151E+01 -6.58072E+01 -6.57699E+01
  -6.57107E+01 -6.55436E+01 -6.52020E+01 -6.46712E+01 -6.39806E+01 -6.31663E+01 -6.22939E+01 -6.14158E+01 -6.05864E+01 -5.98796E+01
  -5.93508E+01 -5.90291E+01 -5.89639E+01 -5.92250E+01 -5.98360E+01 -6.07911E+01 -6.20802E+01 -6.36682E+01 -6.55104E+01 -6.75805E+01
  -6.98693E+01 -7.24085E+01 -7.52374E+01 -7.83884E+01 -8.18255E+01 -8.54220E+01 -8.89091E+01 -9.19346E+01 -9.41899E+01 -9.54947E+01
