 
 $NMID
 ID=''
 FMTDAT='(2E13.5)'
 TRAMP=   1.00000E+0
 VOLUME=   1.00000E+0
 $END
  -1.02883E+4   1.31340E+4
   5.54475E+3   1.16990E+4
   1.02085E+4  -1.02210E+4
  -6.11469E+3  -5.56390E+3
  -1.74132E+3   1.33898E+4
   5.71195E+3  -6.33290E+2
  -4.99870E+3  -9.64890E+3
  -2.56818E+3   5.21014E+3
   6.73974E+3   1.86665E+3
  -7.02121E+2  -7.20229E+3
  -3.17434E+3   2.42457E+3
   4.07923E+3   3.63018E+3
  -1.98430E+2  -3.47315E+3
  -2.46880E+3   1.58730E+3
   8.45619E+2   2.26800E+3
  -1.76529E+3  -3.06532E+3
  -1.37570E+3  -1.87638E+2
   2.68577E+3   1.56287E+3
  -5.91595E+2  -1.69028E+3
  -1.29424E+3   7.29299E+1
   1.48777E+3   8.38055E+2
  -1.38830E+3  -1.90787E+3
  -9.69060E+2  -1.10406E+2
   2.11952E+3   1.34646E+3
  -1.02892E+3   1.86816E+2
  -1.93776E+3  -8.79838E+2
   2.65610E+3  -1.16342E+3
   1.46461E+3   9.46568E+2
  -2.10086E+3   2.06547E+3
   5.49071E+1  -7.55076E+2
   1.37180E+3  -1.66212E+3
   2.88428E+2   1.27088E+3
  -7.37229E+1   1.57928E+3
  -1.19670E+3   3.18867E+2
  -1.45497E+3  -8.34560E+2
   4.61572E+2  -1.74256E+3
   1.51046E+3  -5.23550E+2
   6.81871E+1   1.03961E+3
  -3.27282E+2   2.57003E+0
   1.58167E+2  -3.26426E+2
   8.07002E+0   1.11761E+3
  -6.70831E+2   7.36203E+1
  -2.92244E+2  -1.48573E+3
   5.61600E+2  -5.13347E+2
   6.78338E+1   5.06477E+2
   2.66086E+2  -3.35920E+2
   1.29398E+3   2.41562E+2
   3.75649E+2   1.40717E+3
  -1.01858E+3   8.98868E+2
  -1.11506E+3  -4.51158E+2
  -2.63383E+2  -5.99743E+2
   1.09222E+1  -6.18509E+1
  -1.38742E+2  -3.97710E+2
   3.94690E+0  -4.58235E+2
   4.35880E+2   9.48426E+1
   5.23897E+2   1.45220E+2
  -2.52760E+2   2.87882E+2
  -7.76043E+2  -1.56736E+2
   6.20123E+1  -7.23674E+2
   3.92481E+2  -5.14787E+2
   4.83153E+2   3.88183E+2
   2.45129E+2   3.97761E+2
   6.11415E+2   2.95164E+2
   3.51653E+1   7.82056E+2
  -6.18251E+2   9.12218E+2
  -7.08617E+2  -4.62210E+1
  -4.74712E+2  -4.82582E+2
   1.08284E+2  -6.08572E+2
   2.61456E+2  -7.74942E+1
   1.59260E+2   2.48555E+2
  -2.40968E+2   1.17029E+2
   4.89041E+1  -3.90550E+2
   6.57401E+2  -4.09679E+2
   2.94253E+2   4.98184E+2
  -2.00840E+1   1.74905E+2
  -4.22198E+1   2.30381E+1
  -3.36952E+0   5.88866E+1
   8.35124E+1   2.43186E+2
  -5.07226E+2   3.17823E+2
  -3.96490E+2  -6.96917E+0
  -1.60551E+2  -2.38680E+0
  -2.09920E+2  -1.30586E+2
  -1.15029E+1  -2.01065E+1
  -7.53441E+1  -1.21616E+2
  -1.18843E+2  -1.99748E+2
   1.41864E+2  -2.46379E+2
   4.40769E+1   1.82941E+2
  -2.78908E+1   1.15263E+2
  -2.05835E+2   6.86298E+1
   1.77968E+0  -3.46010E+1
   1.82086E+2   1.44929E+2
   6.71275E+1   1.32569E+2
  -7.43493E+1   1.84039E+2
  -5.36700E+2  -1.00748E+2
  -1.70968E+2  -2.41064E+2
   3.00130E+1  -2.13561E+2
   2.12189E+2   1.20675E+2
  -1.00395E+2   7.54478E+1
   1.18360E+1  -2.87706E+2
   2.31286E+1   1.84520E+2
   1.03952E+1   6.35803E+2
  -5.08316E+1   3.63441E+2
  -2.42955E+2  -7.07169E+1
  -5.29916E+1  -2.95176E+2
   8.34284E+1  -9.49946E-1
   1.02959E+2   2.93945E+2
  -2.38649E+1   3.36967E+2
  -2.74458E+2  -6.89937E+1
  -1.81464E+2  -3.23064E+2
   1.54403E+2  -1.54386E+2
   3.63729E+2   2.66031E+2
  -1.34437E+1   2.51251E+2
  -7.60700E+1   3.07759E+2
  -1.49617E+0   2.40529E+2
   1.56523E+2   2.04208E+2
  -2.15191E+1   8.69856E+1
  -1.66317E+2   1.72693E+2
  -9.50499E+1  -1.60233E+2
   1.90401E+2  -1.67638E+2
   3.71410E+2   9.31206E+1
   1.52218E+2   1.14249E+2
   6.90926E+1   2.80315E+2
   9.26966E+1   1.83295E+1
   1.70683E+0   2.01023E+2
  -2.21970E+1  -1.10950E+2
   2.03425E+2  -4.81272E+0
   4.51208E+1  -7.25892E+1
   8.37272E+1  -1.31242E+2
   8.37426E+1   4.26880E+1
   7.60950E+1   2.28809E+2
  -1.67559E+2   4.26565E+1
   2.37517E+1  -2.86465E+2
   1.55272E+2  -2.05039E+2
   1.54751E+2  -2.19051E+2
   1.34593E+2   4.55403E+1
   7.01360E+1  -1.17106E+2
   2.60842E+2   1.52953E+2
   1.02330E+2   1.66659E+2
   6.31447E+1  -1.41234E+2
  -3.81543E+2  -1.96443E+2
  -1.39608E+2  -1.72822E+2
   1.83450E+2  -1.71401E+2
   3.28335E+2   1.07403E+2
  -5.02730E+0   2.29153E+2
  -3.45414E+1  -3.42987E+0
  -3.14159E+2  -1.15837E+2
  -2.87784E+2  -5.59775E+1
   4.29363E+1  -8.15920E+1
  -2.30968E+2  -2.51196E+2
   1.92007E+2  -1.17211E+2
   4.94656E+1  -1.26124E+2
   1.60627E+2   4.34507E+0
   2.45122E+2   2.53519E+2
   5.60486E+0   2.97979E+2
  -7.43803E+1  -2.63518E+1
   9.46139E+1  -2.47134E+1
   5.49266E+1  -2.14706E+2
  -5.57926E+1  -1.44988E+1
  -1.08649E+2   2.69380E+1
  -2.99492E+2  -1.47565E+1
   2.07896E+2  -9.76119E+1
   4.18859E+1   1.42649E+2
   7.84586E+1  -2.97858E+2
   8.78391E+1  -7.76608E+1
   3.16666E+2   4.65598E+1
   6.19584E+1   4.62438E+1
  -1.69055E+2  -1.93677E+2
  -5.75979E+1  -5.48634E+1
  -1.45991E+2  -1.13931E+2
   6.63722E+0   1.07476E+2
  -8.16119E+0   9.47697E+0
  -2.13909E+2  -7.17426E+1
   2.11130E+0   2.50446E+1
   8.43126E+1   3.97892E+1
   1.02270E+2   9.86423E+1
   2.38255E+2   3.83279E+1
  -3.79951E+1  -1.31410E+2
  -9.14060E+1  -1.33302E+2
   2.31296E+2  -3.97560E+0
   1.64853E+2   9.53542E+1
   6.53672E+1  -7.42969E+1
  -2.25168E+2  -2.51243E+1
   2.36979E+1  -2.70126E+1
   9.83476E+1  -1.79367E+2
   4.67277E+1  -6.30278E+1
   1.23137E+2   9.03316E+1
   4.96672E+1   5.43971E+1
   1.61512E+2  -3.81437E+2
   1.98710E+2   8.11212E+1
  -1.91267E+2   1.06265E+2
  -7.66734E+1   9.89912E+0
  -1.82943E+2  -3.40656E+2
   2.27184E+1  -3.06105E+2
   2.22098E+2   7.76934E+1
   4.32882E+0   3.58763E+1
   1.05134E+1  -2.02731E+2
   5.05096E+1   7.63807E+1
  -4.23109E+1   1.01330E+2
   7.24940E+1   1.40722E+1
  -9.29885E+1  -9.44042E+1
  -8.98763E-1  -2.82295E+2
   5.49129E+1   3.26467E-1
   1.07395E+2   1.20045E+1
  -2.20322E+2  -1.68986E+1
  -1.33503E+2   1.23119E+2
   7.15876E+1   4.36824E+0
   1.23796E+1  -9.80327E+1
   1.41547E+2   3.54596E+1
   1.16270E+2  -2.37226E+2
   1.89244E+2  -1.39672E+1
  -1.83524E+2   5.07853E+1
  -3.81896E+1   2.05908E+2
  -1.21201E+2  -2.04856E+1
  -9.28743E+1   8.68998E+1
  -4.03525E+1   6.99650E+0
  -7.44690E+1  -2.14161E+2
  -1.89927E+2   2.85808E+1
   2.04340E+2   7.93912E+1
   2.43428E+2   1.25218E+2
  -4.87450E+1  -2.58056E+1
  -1.78133E+2   2.21100E+2
  -9.53138E+1   4.68000E+1
   3.94156E+1   1.04700E+2
  -6.05181E+0   2.50755E+1
  -1.28286E+2   1.22051E+2
  -2.08146E+2  -9.30276E+1
   3.52924E+1   2.04811E+2
  -6.30916E+1   3.65251E+1
  -1.54192E+2   1.49169E+1
  -1.06396E+2  -1.16528E+2
  -2.41904E+1   2.67153E+1
  -1.20829E+2  -3.34248E+1
  -1.68675E+2   3.83970E+1
  -2.09025E-1   7.08680E+0
   6.90476E+1  -1.06356E+2
  -7.34541E+1   3.35833E+1
  -1.45057E+2   1.75355E+1
  -2.90680E+1  -9.53588E+1
   6.18025E+1  -1.05541E+1
   8.29374E-1   1.30289E+2
   5.99019E+1  -4.86370E+1
  -2.58138E+1  -1.37139E+2
   2.40493E+2  -1.11258E+2
  -4.75276E+1   9.21134E+1
   9.03109E+1   9.65786E+1
  -6.67772E+1   6.24680E+1
  -2.71908E+1   1.31480E+1
   1.68965E+2  -2.30577E+1
  -1.89871E+2   2.59363E+2
  -1.14595E+2   3.94309E+1
   2.16760E+1  -2.99294E+1
  -1.21622E+2   2.35689E+0
  -8.66770E+1   1.89911E+2
   6.63505E+1  -3.51167E+1
   1.45129E+2  -7.02300E+1
   9.50512E+1   1.54417E+2
  -2.22622E+1  -6.50574E+1
   3.59449E+1   1.30307E+2
   7.76670E+1   1.78882E+1
   7.80257E+1  -1.49954E+2
   4.07527E+1  -3.31069E+1
   2.80577E+1  -2.55831E+2
   1.31871E+2   1.96804E+2
   1.49847E+2  -2.20173E+2
  -5.92440E+1  -9.11572E+0
   1.41250E+2  -9.97696E+1
   1.02957E+2  -1.36903E+2
  -9.70447E+1   2.59230E+1
   1.19949E+2  -1.65010E+1
   2.81565E+1   8.16517E+1
  -2.23143E+1  -1.85105E+1
  -1.84189E+2  -1.50471E+2
  -8.17988E+1   1.51797E+2
   1.91688E+1  -3.03645E+2
  -1.24410E+2  -1.25493E+2
  -7.96031E+1  -3.71927E+1
   1.34676E+2   4.07005E+1
   1.39658E+2   1.72263E+1
  -7.87646E+1   1.39745E+2
   4.16037E+1   2.96574E+1
  -2.77122E+1  -1.72788E+2
   2.14357E+2   1.28310E+2
   9.14555E+1   7.29177E+1
   2.09197E+2   1.01714E+2
   1.59857E+2  -1.86548E+1
   1.16229E+2  -1.42654E+2
  -1.19829E+2   2.12181E+1
   1.58997E+2  -1.08981E+2
   3.58076E+1  -1.62958E+2
  -3.90067E+1  -1.71162E+2
   1.72070E+2  -8.77000E+1
   4.33433E+1   1.32463E+2
  -6.59501E+1  -6.31820E+1
   7.66425E+0  -1.88546E+2
  -7.96562E+1   2.00980E+1
   2.90881E+2  -1.35620E+2
   1.11946E+1  -8.51702E+0
  -6.35173E+1  -6.58317E+0
  -1.43792E+2  -5.60913E+1
  -1.20918E+2   6.84771E+1
   1.05576E+1  -1.64771E+2
  -2.28404E+2  -1.99396E+2
  -1.05724E+2   3.80765E+1
  -1.06625E+2   1.66535E+2
   3.58127E+1   1.46589E+1
   1.01769E+2   1.75570E+1
   1.27130E+1   3.58294E+1
   3.92626E+1  -3.24102E+1
  -4.02539E+1  -3.58343E+1
  -1.41355E+2   1.12214E+1
  -8.54564E+1   6.15871E+1
  -1.02290E+2  -1.06821E+2
   1.51941E+2   2.55636E+2
  -7.68661E+1   1.52988E+2
  -1.99193E+2   1.69995E+2
  -1.18598E+2   5.25645E+1
   1.49179E+2   2.64102E+1
  -2.91231E+1  -8.12946E+1
   8.77266E+1  -5.35705E+1
   3.03209E+0   1.34395E+2
   4.43537E+1  -1.45950E+2
   7.58116E+1  -1.03186E+2
  -1.05911E+2   1.75209E+2
   4.26680E+1  -9.73410E+1
   3.92013E+1  -6.80878E+1
  -4.32001E+1  -7.76207E+1
  -6.78550E+1  -3.46158E+1
  -1.41822E+1  -1.47884E+2
   1.28802E+2  -2.24609E+2
   4.00272E+1   1.46595E+2
   2.14200E+2  -1.07449E+2
  -5.52702E+1   1.75559E+1
   7.81556E+1  -4.29811E+1
  -2.37399E+2  -2.52912E+1
   1.25711E+2  -6.31656E+1
  -1.43157E+2  -7.92553E+1
  -4.70958E+1   1.02249E+2
  -4.30086E+1  -6.13387E+0
   7.96331E+1  -1.88494E+1
  -1.32366E+2  -6.11776E+1
  -1.01685E+2  -1.82565E+1
  -1.27733E+2   5.26505E+1
   1.67035E+2  -2.44027E+2
   4.79507E+1  -4.01038E+1
  -2.31312E+2  -3.54239E+1
  -2.91947E+1   1.76038E+2
  -6.57158E+1  -9.20426E+1
  -9.59824E+0   6.47610E+1
  -6.31565E+1  -1.75942E+1
  -1.03389E+2   1.12807E+2
  -1.08747E+1   1.00470E+2
  -9.65483E+1   1.57543E+2
   2.79822E+2  -3.23101E+1
   9.41081E+1   5.37916E+1
   7.15330E+1  -9.23732E+1
   7.97449E+1   1.18162E+2
  -2.08180E+2  -2.86711E+2
  -4.72638E+1  -1.59076E+2
   4.99969E+1  -3.10052E+1
   3.07759E+1  -1.47307E+2
   5.11998E+1   2.32017E+1
   4.36827E+1  -1.55534E+2
  -1.14070E+1  -2.40891E+2
  -2.48175E+1  -2.69576E+1
   1.38504E+2   5.94478E+0
   1.27129E+2   1.69028E+2
   6.42274E+1  -7.04021E+1
