 LCModel (Version 6.3-1N) Copyright: S.W. Provencher.          Ref.: Magn. Reson. Med. 30:672-679 (1993).                
 Slice_N1@13_21  28-Feb-2025 11:37:19
 27 lines in following concentration table = NCONC+1
    Conc.  %SD /Cr+PCr  Metabolite                                         
 2.21E-04   6% 1.9E-04 Mac                                                 
    5.271  33%   4.616 Cr                                                  
    3.864  44%   3.384 PCr                                                 
    5.090  19%   4.457 Ins                                                 
   11.031   8%   9.661 NAA                                                 
    7.442  13%   6.517 Tau                                                 
    1.806  20%   1.582 PCho                                                
    0.000 999%   0.000 GPC                                                 
   10.428  11%   9.132 Glu                                                 
    3.197  28%   2.800 Gln                                                 
    0.000 999%   0.000 Ala                                                 
    1.447  93%   1.267 Asc                                                 
    2.709  44%   2.373 Asp                                                 
    0.488 124%   0.428 GABA                                                
    0.345 237%   0.302 Glc                                                 
    0.929  57%   0.814 GSH                                                 
   11.503   8%  10.074 Lac                                                 
    1.024  67%   0.897 NAAG                                                
    1.712  80%   1.499 PE                                                  
    1.806  20%   1.582 GPC+PCho                                            
   12.056   7%  10.558 NAA+NAAG                                            
   13.625  11%  11.932 Glu+Gln                                             
    9.135   8%   8.000 Cr+PCr                                              
   12.056   7%  10.558 NAA+NAAG                                            
    9.135   8%   8.000 Cr+PCr                                              
   13.625  11%  11.932 Glu+Gln                                             
   6 lines in following misc. output table
  FWHM = 0.024 ppm    S/N =   3                                            
  Data shift = 0.033 ppm                                                   
  Ph: -95 deg       0.0 deg/ppm                                            
  alphaB,S = 1.3E-01,   2.6E+01                                            
   19 spline knots.   Ns = 5(1)                                            
  ( 3) 2 infls.   ( 3) 1 extrs.                                            
  480 points on ppm-axis = NY
      4.100000     4.091866     4.083733     4.075600     4.067466     4.059333     4.051199     4.043066     4.034933     4.026799
      4.018666     4.010532     4.002399     3.994265     3.986132     3.977998     3.969864     3.961731     3.953597     3.945463
      3.937330     3.929196     3.921062     3.912929     3.904795     3.896662     3.888528     3.880394     3.872261     3.864127
      3.855993     3.847860     3.839726     3.831592     3.823459     3.815325     3.807191     3.799058     3.790924     3.782790
      3.774657     3.766523     3.758389     3.750256     3.742122     3.733989     3.725855     3.717721     3.709588     3.701454
      3.693320     3.685187     3.677053     3.668919     3.660786     3.652652     3.644518     3.636385     3.628251     3.620117
      3.611984     3.603850     3.595716     3.587583     3.579449     3.571316     3.563182     3.555048     3.546915     3.538781
      3.530647     3.522514     3.514380     3.506246     3.498113     3.489979     3.481845     3.473712     3.465578     3.457444
      3.449311     3.441177     3.433043     3.424910     3.416776     3.408643     3.400509     3.392375     3.384242     3.376108
      3.367974     3.359841     3.351707     3.343573     3.335440     3.327306     3.319172     3.311039     3.302905     3.294771
      3.286638     3.278504     3.270370     3.262237     3.254103     3.245970     3.237836     3.229702     3.221569     3.213435
      3.205301     3.197168     3.189034     3.180900     3.172767     3.164633     3.156499     3.148366     3.140232     3.132098
      3.123965     3.115831     3.107697     3.099564     3.091430     3.083297     3.075163     3.067029     3.058896     3.050762
      3.042628     3.034495     3.026361     3.018227     3.010094     3.001960     2.993826     2.985693     2.977559     2.969425
      2.961292     2.953158     2.945024     2.936891     2.928757     2.920624     2.912490     2.904356     2.896223     2.888089
      2.879955     2.871822     2.863688     2.855554     2.847421     2.839287     2.831153     2.823020     2.814886     2.806752
      2.798619     2.790485     2.782351     2.774218     2.766084     2.757951     2.749817     2.741683     2.733550     2.725416
      2.717282     2.709149     2.701015     2.692881     2.684748     2.676614     2.668480     2.660347     2.652213     2.644079
      2.635946     2.627812     2.619678     2.611545     2.603411     2.595278     2.587144     2.579010     2.570877     2.562743
      2.554609     2.546476     2.538342     2.530208     2.522075     2.513941     2.505807     2.497674     2.489540     2.481406
      2.473273     2.465139     2.457006     2.448872     2.440738     2.432605     2.424471     2.416337     2.408204     2.400070
      2.391936     2.383803     2.375669     2.367535     2.359402     2.351268     2.343134     2.335001     2.326867     2.318733
      2.310600     2.302466     2.294333     2.286199     2.278065     2.269932     2.261798     2.253664     2.245531     2.237397
      2.229263     2.221130     2.212996     2.204862     2.196729     2.188595     2.180461     2.172328     2.164194     2.156060
      2.147927     2.139793     2.131660     2.123526     2.115392     2.107259     2.099125     2.090991     2.082858     2.074724
      2.066590     2.058457     2.050323     2.042189     2.034056     2.025922     2.017788     2.009655     2.001521     1.993387
      1.985254     1.977120     1.968987     1.960853     1.952719     1.944586     1.936452     1.928318     1.920185     1.912051
      1.903917     1.895784     1.887650     1.879516     1.871383     1.863249     1.855115     1.846982     1.838848     1.830714
      1.822581     1.814447     1.806314     1.798180     1.790046     1.781913     1.773779     1.765645     1.757512     1.749378
      1.741244     1.733111     1.724977     1.716843     1.708710     1.700576     1.692442     1.684309     1.676175     1.668041
      1.659908     1.651774     1.643641     1.635507     1.627373     1.619240     1.611106     1.602972     1.594839     1.586705
      1.578571     1.570438     1.562304     1.554170     1.546037     1.537903     1.529769     1.521636     1.513502     1.505368
      1.497235     1.489101     1.480968     1.472834     1.464700     1.456567     1.448433     1.440299     1.432166     1.424032
      1.415898     1.407765     1.399631     1.391497     1.383364     1.375230     1.367096     1.358963     1.350829     1.342695
      1.334562     1.326428     1.318295     1.310161     1.302027     1.293894     1.285760     1.277626     1.269493     1.261359
      1.253225     1.245092     1.236958     1.228824     1.220691     1.212557     1.204423     1.196290     1.188156     1.180022
      1.171889     1.163755     1.155622     1.147488     1.139354     1.131221     1.123087     1.114953     1.106820     1.098686
      1.090552     1.082419     1.074285     1.066151     1.058018     1.049884     1.041750     1.033617     1.025483     1.017349
      1.009216     1.001082     0.992949     0.984815     0.976681     0.968548     0.960414     0.952280     0.944147     0.936013
      0.927879     0.919746     0.911612     0.903478     0.895345     0.887211     0.879077     0.870944     0.862810     0.854676
      0.846543     0.838409     0.830276     0.822142     0.814008     0.805875     0.797741     0.789607     0.781474     0.773340
      0.765206     0.757073     0.748939     0.740805     0.732672     0.724538     0.716404     0.708271     0.700137     0.692003
      0.683870     0.675736     0.667603     0.659469     0.651335     0.643202     0.635068     0.626934     0.618801     0.610667
      0.602533     0.594400     0.586266     0.578132     0.569999     0.561865     0.553731     0.545598     0.537464     0.529330
      0.521197     0.513063     0.504930     0.496796     0.488662     0.480529     0.472395     0.464261     0.456128     0.447994
      0.439861     0.431727     0.423593     0.415460     0.407326     0.399192     0.391059     0.382925     0.374792     0.366658
      0.358524     0.350391     0.342257     0.334124     0.325990     0.317856     0.309723     0.301589     0.293455     0.285322
      0.277188     0.269055     0.260921     0.252787     0.244654     0.236520     0.228386     0.220253     0.212119     0.203986
 NY phased data points follow
   2.83059E+01  3.16492E+01  1.71832E+01  2.70382E+01  3.17360E+01  2.93110E+01  3.57620E+01  3.50201E+01  2.81497E+01  2.42475E+01
   3.46015E+01  2.18107E+01  1.40781E+01  1.70451E+01  1.90275E+01  1.90755E+01  6.22091E+00  8.41269E+00 -4.32915E+00 -2.20351E+01
  -2.07178E+01 -1.18886E+00  7.22410E+00  1.36163E+01  5.37618E+01  8.31317E+01  7.45313E+01  5.88785E+01  7.02880E+01  7.07694E+01
   5.74859E+01  6.04202E+01  6.74847E+01  5.61901E+01  6.01827E+01  7.27545E+01  5.66830E+01  5.94156E+01  4.72797E+01  1.79319E+01
   1.34335E+01  1.51306E+01  8.76298E-01  9.22008E+00  4.94778E+01  7.51995E+01  8.66414E+01  8.56621E+01  9.95001E+01  9.09275E+01
   7.60949E+01  8.32299E+01  7.80575E+01  7.44852E+01  6.86096E+01  5.85252E+01  4.59405E+01  4.60465E+01  3.60137E+01  4.35733E+01
   5.79808E+01  6.24505E+01  7.64796E+01  7.72057E+01  9.93993E+01  9.56944E+01  7.99202E+01  7.78271E+01  4.05012E+01  2.32547E+01
   4.76631E+01  4.09655E+01  5.65801E+01  9.45030E+01  8.11555E+01  8.91411E+01  9.29203E+01  9.81009E+01  9.37868E+01  8.19016E+01
   8.19230E+01  6.14354E+01  6.20325E+01  4.51924E+01  3.21471E+01  1.97492E+01  2.99628E+01  6.07347E+01  7.50420E+01  8.63798E+01
   9.08206E+01  1.05781E+02  9.34861E+01  9.95415E+01  9.58293E+01  8.90514E+01  1.00695E+02  1.03414E+02  1.00502E+02  9.40371E+01
   1.07700E+02  7.57694E+01  6.42088E+01  5.83403E+01  4.98531E+01  4.69531E+01  2.03263E+01  3.20617E+01  1.21678E+01 -3.87593E+01
  -8.70819E+01 -8.14619E+01 -5.27561E+01 -3.69933E+01 -5.56835E+00  3.54397E+00  1.28492E+01  1.61565E+01  2.56598E+01  3.56031E+01
   4.49551E+01  5.32855E+01  4.50800E+01  5.47741E+01  6.09176E+01  6.52042E+01  7.82977E+01  7.77592E+01  1.03923E+02  1.28438E+02
   1.53673E+02  1.52679E+02  3.17588E+01 -4.09913E+01 -4.83673E+01 -4.79223E+01 -3.83556E+01 -4.84123E+01 -3.33940E+01 -4.85192E+01
  -3.94458E+01 -2.26427E+01 -3.52829E+01 -3.07941E+01 -1.64995E+01 -1.52463E+01 -2.89229E+01 -2.64042E+01 -1.41490E+01 -7.09818E+00
  -3.07998E+01  1.60148E+00  1.05538E+01 -6.61784E+00  1.61798E+01  3.08888E+00  2.09682E+01  2.09990E+01  1.11366E+01  1.29336E+01
   1.77050E+01  2.99011E+01  1.94901E+01  8.44652E+00  8.50751E+00  2.10632E+01  1.53414E+01  1.41961E+01  1.99966E+01  2.31198E+01
   2.25965E+01  3.65059E+01  3.79984E+01  4.05760E+01  3.73262E+01  3.65687E+01  6.71443E+01  4.19830E+01  3.66805E+01  1.37968E+01
   1.20837E+01  2.24377E+01 -5.15008E+00 -1.20624E+00 -2.35466E+01 -3.43294E+00 -8.24434E+00  2.76941E+00  1.53658E+01 -5.64232E+00
   1.21140E+01 -3.69893E+00  6.25984E+00  1.73573E+01  3.10620E+01  2.06207E+01  1.80359E+00  1.75620E+01  1.95188E+01  2.98325E+01
   1.95095E+01  3.25023E+01  5.90759E+01  4.46139E+01  2.67800E+01  1.95493E+01  2.05989E+01  1.31283E+01 -1.32905E+01 -6.30606E+00
  -5.41959E+00 -1.79121E+01 -2.44289E+00  9.42009E-01  2.43175E+01  5.23873E+01  7.70040E+01  8.22701E+01  6.79430E+01  6.13813E+01
   4.98467E+01  3.93409E+01  3.40157E+01  3.45952E+01  2.58901E+01  4.42528E+01  3.87707E+01  3.49059E+01  5.33558E+01  3.13305E+01
   3.73066E+01  5.19629E+01  2.22831E+01  1.50590E-01  9.43781E+00 -5.34810E+00 -1.32334E+01 -2.54077E+01 -3.15883E+01 -1.96655E+01
  -2.38049E+01 -2.39232E+00  2.86912E+00  1.28288E+01  1.36256E+01  1.31161E+01  1.72275E+01  5.62332E+00  5.95155E+00 -7.78685E+00
  -1.65074E+00 -9.10430E+00 -8.05352E+00 -6.26490E+00 -2.11070E+01 -3.93952E+01 -6.50493E+01  3.39912E+01  1.44725E+02  1.74825E+02
   2.02208E+02  1.85613E+02  1.67349E+02  1.42142E+02  1.18269E+02  1.38030E+02  1.27050E+02  1.17098E+02  1.14904E+02  1.08799E+02
   1.12673E+02  1.02122E+02  1.11949E+02  1.24604E+02  1.15262E+02  1.09730E+02  1.17957E+02  1.03702E+02  9.53173E+01  9.90709E+01
   9.62114E+01  1.05323E+02  9.14200E+01  9.49833E+01  9.80549E+01  8.36049E+01  8.56413E+01  8.14089E+01  6.88243E+01  8.00733E+01
   9.60461E+01  7.64168E+01  7.29703E+01  6.36311E+01  5.33619E+01  5.55801E+01  4.63535E+01  4.95177E+01  4.63453E+01  4.18659E+01
   4.60207E+01  5.34601E+01  6.07539E+01  6.90819E+01  6.75725E+01  7.23788E+01  8.46997E+01  8.03607E+01  8.06836E+01  9.67175E+01
   8.80847E+01  7.74289E+01  9.64458E+01  9.14954E+01  1.12402E+02  1.24980E+02  1.14316E+02  1.16014E+02  1.12638E+02  1.33397E+02
   1.28269E+02  1.35852E+02  1.37095E+02  1.26970E+02  1.32366E+02  1.32153E+02  1.51689E+02  1.40060E+02  1.41695E+02  1.47922E+02
   1.21107E+02  1.15026E+02  1.30243E+02  1.22408E+02  1.03688E+02  9.35621E+01  6.85239E+01  7.30580E+01  8.20754E+01  8.71345E+01
   9.43323E+01  7.77362E+01  6.12378E+01  4.44353E+01  2.63179E+01  7.69090E+00  9.64819E-01 -4.06746E+00 -2.90960E+00 -4.29457E+00
  -7.12947E+00  5.71580E+00 -4.22654E+00 -1.46124E+01 -6.49471E+00 -9.25895E+00 -2.52133E+01 -2.59555E+01 -1.94062E+01 -2.55763E+01
  -2.73446E+01 -1.24261E+01 -1.93861E+00 -2.20260E+00  1.84507E+01  1.45325E+01  1.63735E+01  2.94988E+01  1.37703E+01  2.88555E+01
   1.93373E+01  2.70344E+01  4.76228E+01  2.97960E+01  4.33474E+01  4.14325E+01  5.33466E+01  5.95450E+01  3.85453E+01  5.41390E+01
   7.29137E+01  6.88487E+01  5.41410E+01  6.28639E+01  8.35162E+01  9.80725E+01  9.51376E+01  9.29478E+01  9.99202E+01  9.79548E+01
   8.85033E+01  8.21705E+01  7.16773E+01  4.52963E+01  3.93779E+01  1.85429E+01  2.18456E+01  3.50058E+01  3.00953E+01  2.89692E+01
  -2.26691E+00  9.30341E+00  1.16221E+01  2.36404E+00 -7.06285E+00 -6.84276E+00  5.01467E+00 -3.31236E+01 -2.71941E+01 -1.54941E+01
  -3.36507E+00 -1.39649E+00 -2.14872E+01 -1.86825E+01 -1.88534E+01 -2.29277E+00 -1.53898E+01 -1.98371E+01 -1.25556E+01 -2.15953E+01
  -8.64702E+00 -1.16043E+00 -6.03713E+00 -1.76163E+01 -2.13086E+01 -1.64700E+01 -2.07389E+01 -1.79529E+01 -3.86605E+00 -2.35562E+01
  -2.07959E+01  8.52838E+00 -1.00193E+01 -1.74280E+01  1.75095E+00  8.36424E+00 -5.74469E+00 -1.69359E+01 -1.20982E+01  1.22970E+00
   3.22919E+00 -2.00855E+01 -2.05244E+01 -9.56706E+00 -7.19669E+00  1.99464E-01 -1.65378E+01 -2.33198E+01 -2.96189E+00 -1.21164E+00
  -3.02098E+00  2.31964E+00 -7.78269E+00 -1.48984E+01 -3.55602E+00 -2.09990E+01 -1.31848E+01  2.00012E+01  4.29523E+00 -1.11369E+00
  -1.06257E+01 -7.26344E+00  2.52681E+00 -1.35929E+01 -2.16782E+01 -2.12338E+01 -3.87452E+00  5.90117E+00  1.88706E+01  4.53660E+00
  -1.02780E+00  7.96233E+00  4.01382E+00  1.44573E+01 -7.44649E+00 -2.31403E+00 -4.29907E-01 -8.55000E+00 -3.40358E+00 -1.94494E+01
 NY points of the fit to the data follow
   8.37001E+00  1.51862E+01  2.13737E+01  2.73922E+01  3.46783E+01  4.31065E+01  4.84398E+01  4.74099E+01  4.13807E+01  3.37257E+01
   2.69461E+01  2.17609E+01  1.79885E+01  1.54344E+01  1.32940E+01  9.97133E+00  6.65929E+00  1.31827E+00 -4.93649E+00 -1.35157E+01
  -2.06067E+01 -1.70914E+01  1.65960E+00  3.12746E+01  5.83260E+01  7.27544E+01  7.67012E+01  7.65079E+01  7.65617E+01  7.71693E+01
   7.70189E+01  7.57332E+01  7.36953E+01  7.10407E+01  6.76426E+01  6.26098E+01  5.68809E+01  4.99772E+01  4.09375E+01  2.90199E+01
   1.77124E+01  1.25491E+01  1.61346E+01  2.72129E+01  4.24816E+01  5.82033E+01  7.08984E+01  7.87505E+01  8.24063E+01  8.29528E+01
   8.14535E+01  7.90018E+01  7.52645E+01  6.84687E+01  5.98814E+01  5.25218E+01  4.72174E+01  4.42866E+01  4.40082E+01  4.71971E+01
   5.24390E+01  5.76525E+01  6.39128E+01  7.07792E+01  7.60130E+01  7.88825E+01  7.71216E+01  6.90101E+01  5.74119E+01  4.88285E+01
   4.74580E+01  5.10704E+01  5.70153E+01  6.52700E+01  7.47371E+01  8.27372E+01  8.77360E+01  8.99877E+01  8.88845E+01  8.52137E+01
   7.64166E+01  6.31503E+01  4.73709E+01  3.36017E+01  2.73927E+01  3.01617E+01  4.01135E+01  5.29884E+01  6.41447E+01  7.24043E+01
   7.83604E+01  8.31536E+01  8.75500E+01  9.16123E+01  9.53878E+01  9.94809E+01  1.03156E+02  1.04847E+02  1.05490E+02  1.05797E+02
   1.04703E+02  1.00502E+02  9.05344E+01  7.68321E+01  5.71444E+01  4.02758E+01  3.31890E+01  2.66474E+01  5.16208E+00 -3.20798E+01
  -6.23627E+01 -6.74156E+01 -5.31263E+01 -3.34566E+01 -1.72543E+01 -5.67255E+00  3.34734E+00  1.11146E+01  1.82133E+01  2.49099E+01
   3.14568E+01  3.82449E+01  4.56627E+01  5.41875E+01  6.42366E+01  7.70475E+01  9.35148E+01  1.03186E+02  1.15654E+02  1.35197E+02
   1.46155E+02  1.20924E+02  5.54252E+01 -1.02896E+01 -4.32457E+01 -4.78981E+01 -4.07621E+01 -3.39698E+01 -2.98823E+01 -2.72817E+01
  -2.56982E+01 -2.46087E+01 -2.37125E+01 -2.28395E+01 -2.19609E+01 -2.08751E+01 -1.92542E+01 -1.70914E+01 -1.46264E+01 -1.20781E+01
  -9.55932E+00 -7.22084E+00 -5.16436E+00 -3.13737E+00 -7.03776E-01  1.97083E+00  4.13989E+00  5.06622E+00  5.29254E+00  6.28387E+00
   8.44738E+00  1.04359E+01  1.04807E+01  8.59816E+00  6.69865E+00  6.32220E+00  7.76191E+00  9.78050E+00  1.12446E+01  1.36855E+01
   2.03978E+01  3.09799E+01  3.91142E+01  3.98587E+01  3.65271E+01  3.70087E+01  4.19714E+01  4.42880E+01  3.86474E+01  2.74207E+01
   1.67570E+01  9.68873E+00  5.38331E+00  2.53405E+00  5.55580E-01 -6.40964E-01 -1.01153E+00 -9.80657E-01 -6.32229E-01  1.03622E+00
   2.33296E+00  3.44306E+00  6.87248E+00  1.28470E+01  1.97233E+01  2.32516E+01  2.47506E+01  2.81538E+01  3.14540E+01  3.28151E+01
   3.25325E+01  3.32543E+01  3.54966E+01  3.58914E+01  3.25481E+01  2.65917E+01  1.94235E+01  1.21124E+01  5.64538E+00 -2.51474E-01
  -2.65993E+00 -1.68099E+00  3.39870E+00  1.49578E+01  3.19860E+01  5.25738E+01  7.02665E+01  8.01805E+01  8.23309E+01  7.68876E+01
   6.77997E+01  6.01197E+01  5.56764E+01  5.40515E+01  5.33596E+01  5.20652E+01  4.94166E+01  4.49994E+01  3.90255E+01  3.17219E+01
   2.35901E+01  1.51671E+01  6.85285E+00 -1.19034E+00 -8.46047E+00 -1.52171E+01 -2.04351E+01 -2.37033E+01 -2.47125E+01 -2.27587E+01
  -1.91478E+01 -1.35477E+01 -6.51450E+00  5.34959E-01  7.11117E+00  1.13269E+01  1.24051E+01  1.09144E+01  7.22197E+00  3.07024E+00
  -3.98735E+00 -1.61461E+01 -1.78802E+01 -1.95033E+01 -3.39782E+01 -5.21099E+01 -3.81646E+01  2.79389E+01  1.07275E+02  1.54400E+02
   1.65282E+02  1.56963E+02  1.46049E+02  1.37990E+02  1.32041E+02  1.27355E+02  1.23255E+02  1.19592E+02  1.16412E+02  1.13883E+02
   1.12170E+02  1.11140E+02  1.10688E+02  1.10530E+02  1.10417E+02  1.10110E+02  1.09450E+02  1.08543E+02  1.07556E+02  1.06463E+02
   1.05130E+02  1.03553E+02  1.01913E+02  1.00326E+02  9.87572E+01  9.70687E+01  9.52583E+01  9.34018E+01  9.13876E+01  8.91415E+01
   8.66224E+01  8.39343E+01  8.12329E+01  7.86696E+01  7.64942E+01  7.50431E+01  7.45881E+01  7.51841E+01  7.65781E+01  7.83938E+01
   8.03871E+01  8.25195E+01  8.47459E+01  8.69640E+01  8.90870E+01  9.10412E+01  9.28826E+01  9.47261E+01  9.67290E+01  9.88750E+01
   1.00916E+02  1.02666E+02  1.04176E+02  1.05535E+02  1.06711E+02  1.07573E+02  1.08089E+02  1.08189E+02  1.07764E+02  1.06810E+02
   1.05446E+02  1.03799E+02  1.01759E+02  9.92989E+01  9.64986E+01  9.33326E+01  8.95634E+01  8.48901E+01  7.94933E+01  7.40276E+01
   6.92864E+01  6.58325E+01  6.41030E+01  6.45754E+01  6.76791E+01  7.37314E+01  8.25546E+01  9.03947E+01  9.87177E+01  1.08052E+02
   1.11673E+02  1.02223E+02  7.32776E+01  3.12545E+01 -1.05413E+01 -3.90752E+01 -4.51737E+01 -3.40461E+01 -1.82425E+01 -5.40814E+00
   2.41816E+00  6.67635E+00  8.68311E+00  9.00381E+00  8.19902E+00  7.03849E+00  6.27438E+00  6.25910E+00  7.04968E+00  8.61095E+00
   1.07211E+01  1.32498E+01  1.60401E+01  1.89407E+01  2.18500E+01  2.45878E+01  2.70803E+01  2.93832E+01  3.15932E+01  3.38435E+01
   3.61211E+01  3.84173E+01  4.06826E+01  4.30690E+01  4.57752E+01  4.88734E+01  5.22782E+01  5.59858E+01  6.01623E+01  6.48184E+01
   6.97492E+01  7.48368E+01  8.00648E+01  8.53197E+01  9.00950E+01  9.38297E+01  9.58542E+01  9.55318E+01  9.23526E+01  8.64053E+01
   7.86652E+01  7.04485E+01  6.27156E+01  5.58657E+01  4.98852E+01  4.43438E+01  3.86513E+01  3.23820E+01  2.56271E+01  1.86978E+01
   1.21019E+01  6.34211E+00  1.71672E+00 -1.86224E+00 -4.60462E+00 -6.64823E+00 -8.11134E+00 -9.18856E+00 -1.00857E+01 -1.09412E+01
  -1.17209E+01 -1.22775E+01 -1.25533E+01 -1.26881E+01 -1.28263E+01 -1.28977E+01 -1.28499E+01 -1.28364E+01 -1.29324E+01 -1.29883E+01
  -1.28443E+01 -1.26481E+01 -1.25825E+01 -1.25754E+01 -1.24888E+01 -1.23679E+01 -1.23125E+01 -1.22845E+01 -1.21525E+01 -1.18683E+01
  -1.15839E+01 -1.13874E+01 -1.13354E+01 -1.13454E+01 -1.13233E+01 -1.12051E+01 -1.09634E+01 -1.06496E+01 -1.03289E+01 -1.00754E+01
  -9.87808E+00 -9.70511E+00 -9.52540E+00 -9.38232E+00 -9.33758E+00 -9.30450E+00 -9.20838E+00 -9.02616E+00 -8.75850E+00 -8.48932E+00
  -8.25539E+00 -8.09767E+00 -7.96572E+00 -7.77416E+00 -7.48285E+00 -7.16348E+00 -6.84307E+00 -6.58589E+00 -6.37470E+00 -6.14797E+00
  -5.90040E+00 -5.69396E+00 -5.56573E+00 -5.47921E+00 -5.33720E+00 -5.15698E+00 -4.89525E+00 -4.52233E+00 -4.03162E+00 -3.55040E+00
  -3.24845E+00 -3.16929E+00 -3.16343E+00 -3.06625E+00 -2.84311E+00 -2.55075E+00 -2.18374E+00 -1.80350E+00 -1.43841E+00 -1.12113E+00
 NY background values follow
     4.093E+01    4.105E+01    4.118E+01    4.131E+01    4.144E+01    4.157E+01    4.170E+01    4.183E+01    4.196E+01    4.210E+01
     4.223E+01    4.236E+01    4.249E+01    4.262E+01    4.275E+01    4.289E+01    4.302E+01    4.315E+01    4.328E+01    4.341E+01
     4.354E+01    4.367E+01    4.380E+01    4.393E+01    4.406E+01    4.419E+01    4.432E+01    4.445E+01    4.458E+01    4.471E+01
     4.484E+01    4.496E+01    4.509E+01    4.521E+01    4.534E+01    4.546E+01    4.558E+01    4.570E+01    4.582E+01    4.593E+01
     4.604E+01    4.615E+01    4.626E+01    4.636E+01    4.646E+01    4.655E+01    4.664E+01    4.673E+01    4.681E+01    4.689E+01
     4.696E+01    4.703E+01    4.709E+01    4.715E+01    4.720E+01    4.725E+01    4.729E+01    4.732E+01    4.735E+01    4.737E+01
     4.738E+01    4.738E+01    4.738E+01    4.737E+01    4.735E+01    4.733E+01    4.730E+01    4.727E+01    4.722E+01    4.717E+01
     4.712E+01    4.706E+01    4.699E+01    4.692E+01    4.684E+01    4.676E+01    4.667E+01    4.657E+01    4.647E+01    4.637E+01
     4.626E+01    4.615E+01    4.603E+01    4.590E+01    4.578E+01    4.565E+01    4.551E+01    4.537E+01    4.523E+01    4.508E+01
     4.493E+01    4.478E+01    4.462E+01    4.446E+01    4.430E+01    4.413E+01    4.396E+01    4.379E+01    4.362E+01    4.345E+01
     4.328E+01    4.310E+01    4.293E+01    4.275E+01    4.258E+01    4.240E+01    4.223E+01    4.206E+01    4.188E+01    4.171E+01
     4.154E+01    4.137E+01    4.120E+01    4.104E+01    4.087E+01    4.071E+01    4.056E+01    4.040E+01    4.025E+01    4.011E+01
     3.996E+01    3.982E+01    3.969E+01    3.956E+01    3.943E+01    3.931E+01    3.919E+01    3.907E+01    3.896E+01    3.885E+01
     3.874E+01    3.864E+01    3.853E+01    3.844E+01    3.834E+01    3.825E+01    3.816E+01    3.807E+01    3.798E+01    3.790E+01
     3.782E+01    3.774E+01    3.766E+01    3.759E+01    3.751E+01    3.744E+01    3.737E+01    3.730E+01    3.723E+01    3.717E+01
     3.710E+01    3.704E+01    3.697E+01    3.691E+01    3.685E+01    3.679E+01    3.673E+01    3.667E+01    3.661E+01    3.655E+01
     3.650E+01    3.645E+01    3.639E+01    3.634E+01    3.629E+01    3.624E+01    3.619E+01    3.614E+01    3.610E+01    3.605E+01
     3.601E+01    3.596E+01    3.592E+01    3.588E+01    3.584E+01    3.580E+01    3.577E+01    3.573E+01    3.569E+01    3.566E+01
     3.563E+01    3.560E+01    3.557E+01    3.554E+01    3.551E+01    3.549E+01    3.547E+01    3.545E+01    3.543E+01    3.542E+01
     3.540E+01    3.540E+01    3.539E+01    3.539E+01    3.540E+01    3.541E+01    3.542E+01    3.543E+01    3.546E+01    3.548E+01
     3.551E+01    3.555E+01    3.559E+01    3.564E+01    3.570E+01    3.576E+01    3.583E+01    3.590E+01    3.598E+01    3.607E+01
     3.616E+01    3.626E+01    3.637E+01    3.649E+01    3.661E+01    3.674E+01    3.687E+01    3.701E+01    3.715E+01    3.729E+01
     3.744E+01    3.760E+01    3.775E+01    3.791E+01    3.807E+01    3.823E+01    3.840E+01    3.856E+01    3.873E+01    3.890E+01
     3.906E+01    3.923E+01    3.939E+01    3.956E+01    3.972E+01    3.988E+01    4.004E+01    4.019E+01    4.034E+01    4.049E+01
     4.064E+01    4.078E+01    4.091E+01    4.105E+01    4.117E+01    4.130E+01    4.142E+01    4.153E+01    4.165E+01    4.176E+01
     4.186E+01    4.196E+01    4.206E+01    4.215E+01    4.224E+01    4.232E+01    4.241E+01    4.248E+01    4.256E+01    4.263E+01
     4.269E+01    4.275E+01    4.281E+01    4.287E+01    4.292E+01    4.297E+01    4.301E+01    4.305E+01    4.309E+01    4.312E+01
     4.315E+01    4.317E+01    4.320E+01    4.322E+01    4.323E+01    4.325E+01    4.326E+01    4.327E+01    4.327E+01    4.328E+01
     4.328E+01    4.328E+01    4.328E+01    4.328E+01    4.328E+01    4.328E+01    4.328E+01    4.328E+01    4.327E+01    4.327E+01
     4.327E+01    4.327E+01    4.327E+01    4.327E+01    4.327E+01    4.328E+01    4.328E+01    4.329E+01    4.330E+01    4.331E+01
     4.332E+01    4.334E+01    4.336E+01    4.337E+01    4.339E+01    4.340E+01    4.342E+01    4.342E+01    4.343E+01    4.342E+01
     4.341E+01    4.340E+01    4.337E+01    4.334E+01    4.329E+01    4.323E+01    4.316E+01    4.308E+01    4.298E+01    4.287E+01
     4.274E+01    4.259E+01    4.243E+01    4.224E+01    4.204E+01    4.181E+01    4.156E+01    4.129E+01    4.100E+01    4.068E+01
     4.033E+01    3.996E+01    3.956E+01    3.914E+01    3.870E+01    3.824E+01    3.775E+01    3.725E+01    3.673E+01    3.619E+01
     3.564E+01    3.507E+01    3.449E+01    3.389E+01    3.329E+01    3.267E+01    3.204E+01    3.141E+01    3.077E+01    3.012E+01
     2.946E+01    2.881E+01    2.815E+01    2.748E+01    2.682E+01    2.616E+01    2.549E+01    2.483E+01    2.418E+01    2.353E+01
     2.288E+01    2.224E+01    2.161E+01    2.098E+01    2.036E+01    1.974E+01    1.913E+01    1.853E+01    1.794E+01    1.735E+01
     1.678E+01    1.620E+01    1.564E+01    1.509E+01    1.454E+01    1.400E+01    1.347E+01    1.295E+01    1.244E+01    1.194E+01
     1.145E+01    1.096E+01    1.049E+01    1.003E+01    9.574E+00    9.131E+00    8.698E+00    8.276E+00    7.865E+00    7.465E+00
     7.075E+00    6.697E+00    6.330E+00    5.974E+00    5.628E+00    5.293E+00    4.968E+00    4.653E+00    4.348E+00    4.053E+00
     3.767E+00    3.491E+00    3.225E+00    2.967E+00    2.718E+00    2.479E+00    2.248E+00    2.025E+00    1.811E+00    1.605E+00
     1.407E+00    1.217E+00    1.035E+00    8.601E-01    6.928E-01    5.327E-01    3.798E-01    2.337E-01    9.441E-02   -3.827E-02
    -1.647E-01   -2.847E-01   -3.986E-01   -5.065E-01   -6.088E-01   -7.055E-01   -7.968E-01   -8.830E-01   -9.641E-01   -1.040E+00
    -1.112E+00   -1.179E+00   -1.242E+00   -1.301E+00   -1.356E+00   -1.407E+00   -1.455E+00   -1.499E+00   -1.540E+00   -1.578E+00
    -1.614E+00   -1.646E+00   -1.676E+00   -1.704E+00   -1.730E+00   -1.754E+00   -1.776E+00   -1.796E+00   -1.815E+00   -1.833E+00
    -1.850E+00   -1.866E+00   -1.881E+00   -1.895E+00   -1.908E+00   -1.921E+00   -1.933E+00   -1.944E+00   -1.955E+00   -1.965E+00
    -1.975E+00   -1.984E+00   -1.993E+00   -2.002E+00   -2.010E+00   -2.018E+00   -2.026E+00   -2.034E+00   -2.042E+00   -2.050E+00
    -2.058E+00   -2.067E+00   -2.075E+00   -2.084E+00   -2.093E+00   -2.102E+00   -2.112E+00   -2.122E+00   -2.133E+00   -2.144E+00
 Mac      Conc. = 2.21E-04
   2.54148E+01  2.50741E+01  2.48500E+01  2.46735E+01  2.44111E+01  2.39410E+01  2.32102E+01  2.21938E+01  2.10606E+01  2.00425E+01
   1.93253E+01  1.89388E+01  1.87710E+01  1.87570E+01  1.86615E+01  1.80912E+01  1.74021E+01  1.76303E+01  1.94680E+01  2.25087E+01
   2.57315E+01  2.87101E+01  3.13236E+01  3.33894E+01  3.48799E+01  3.60227E+01  3.71286E+01  3.83960E+01  3.98798E+01  4.14222E+01
   4.27819E+01  4.38364E+01  4.46731E+01  4.53477E+01  4.57593E+01  4.59066E+01  4.61014E+01  4.68738E+01  4.83564E+01  5.00145E+01
   5.11664E+01  5.15751E+01  5.17117E+01  5.20987E+01  5.28843E+01  5.37645E+01  5.43290E+01  5.44324E+01  5.40753E+01  5.33744E+01
   5.24925E+01  5.16217E+01  5.09347E+01  5.04640E+01  5.01643E+01  5.00249E+01  5.01838E+01  5.07638E+01  5.16178E+01  5.25282E+01
   5.33786E+01  5.42110E+01  5.48691E+01  5.50890E+01  5.47874E+01  5.41420E+01  5.35317E+01  5.31927E+01  5.30009E+01  5.28980E+01
   5.31935E+01  5.41492E+01  5.56558E+01  5.71333E+01  5.81645E+01  5.86655E+01  5.86512E+01  5.82399E+01  5.75837E+01  5.69079E+01
   5.63613E+01  5.59411E+01  5.56446E+01  5.56105E+01  5.58551E+01  5.62758E+01  5.67419E+01  5.71717E+01  5.75415E+01  5.78256E+01
   5.80054E+01  5.80591E+01  5.79715E+01  5.76987E+01  5.71563E+01  5.61875E+01  5.47281E+01  5.28316E+01  5.07162E+01  4.86684E+01
   4.67948E+01  4.49336E+01  4.27420E+01  4.01360E+01  3.70993E+01  3.34524E+01  2.91395E+01  2.45488E+01  2.06803E+01  1.83795E+01
