 
 $NMID
 ID=''
 FMTDAT='(2E13.5)'
 TRAMP=   1.00000E+0
 VOLUME=   1.00000E+0
 $END
  -6.37660E+2  -2.34313E+4
  -1.28541E+4  -2.36051E+4
  -2.67507E+4   7.84731E+3
   1.53661E+4   2.43930E+4
   2.66165E+4  -8.97045E+3
  -1.49519E+4  -2.16585E+4
  -1.91502E+4   7.85426E+3
   1.37637E+4   1.25668E+4
   1.32183E+4  -9.19327E+3
  -8.81571E+3  -6.86349E+3
  -6.83432E+3   1.04028E+4
   7.29280E+3   7.25018E+3
   6.31770E+3  -6.65067E+3
  -6.26846E+3  -3.20195E+3
  -7.41283E+3   8.11035E+3
   4.45154E+3   1.98663E+3
   5.00212E+3  -8.24866E+3
  -4.65486E+3  -1.26872E+3
  -2.52552E+3   5.59424E+3
   4.00718E+3  -2.58849E+2
   6.20100E+2  -2.82983E+3
  -1.89889E+3  -1.18018E+2
   6.69375E+2  -6.59531E+2
   9.96031E+2   2.58089E+2
  -9.82757E+2   6.80477E+2
  -1.04915E+3  -2.25588E+3
   9.79104E+2  -4.39498E+2
   2.09858E+3   3.06635E+3
  -5.39081E+2  -4.59254E+2
  -1.86333E+3  -1.42189E+3
   1.82756E+3   1.90360E+3
   2.87221E+3   9.39445E+2
  -1.40286E+3  -9.00366E+2
  -2.93512E+3   1.36778E+3
  -3.70814E+2   1.02210E+3
   3.41679E+2  -3.22955E+3
   8.97142E+1  -1.97355E+3
   8.02097E+2   2.37601E+3
   1.50838E+3   1.25436E+3
   1.83140E+2  -1.43618E+3
  -1.08742E+3   6.50067E+2
  -4.84191E+2   2.09316E+3
   6.15720E+2  -8.14326E+2
  -6.06940E+2  -2.50421E+3
  -9.11129E+2  -1.18936E+3
   2.07788E+3  -2.43378E+2
   3.04685E+3   2.58992E+2
  -5.25664E+2   1.54242E+3
  -2.92763E+3   1.64198E+3
  -2.74344E+2   4.73633E+2
   8.68728E+2  -9.30625E+2
  -1.32200E+3  -8.02206E+2
  -1.10027E+3   1.36665E+0
   1.81772E+3  -3.09791E+2
   1.61724E+3  -1.07281E+3
  -7.61142E+2   1.33090E+1
  -3.88106E+2   1.64420E+3
   3.15227E+2   4.24360E+1
  -8.46870E+2  -1.62589E+3
  -1.40394E+3  -9.17925E+2
   5.15209E+1  -3.30936E+2
   1.78505E+3  -7.86073E+2
   1.48316E+3  -5.12703E+2
   3.09710E+2   1.63857E+3
  -2.93896E+2   1.95554E+3
  -5.67034E+2   9.43178E+2
  -1.10866E+3  -7.13437E+1
  -2.02955E+3  -6.08781E+2
  -2.08261E+2  -1.35967E+3
   1.51284E+3  -6.44339E+2
  -2.04555E+2   4.32895E+2
  -1.56547E+3   1.11779E+2
  -2.63098E+2  -1.21785E+3
   1.58390E+3  -9.02880E+2
   4.02079E+2   5.72370E+2
  -8.64218E+2   3.88232E+2
   3.36297E+1  -2.24992E+2
   1.05298E+3  -5.42689E+2
   3.60225E+2   6.32620E+2
  -1.83249E+2   8.40418E+2
   1.87515E+1   2.94370E+2
  -7.27218E+1  -1.25797E+2
  -3.73818E+2  -1.35783E+2
  -2.01527E+2   6.33480E+1
  -1.44482E+2  -7.47243E+1
  -3.40964E+2  -5.82297E+2
  -5.46645E+2  -5.05061E+2
   2.22823E+2  -9.23763E+1
   3.76107E+2  -2.22503E+2
  -2.06561E+2  -3.54617E+2
  -3.17064E+2  -3.99527E+2
   6.62692E+2  -1.55474E+2
   1.14871E+3   2.42871E+1
   6.59927E+0   8.15907E+2
  -7.86246E+2   1.15577E+3
  -8.85435E+2  -1.59401E+2
   9.25185E+0  -6.32540E+2
   2.50138E+1   3.33969E+2
  -5.63747E+2   3.57609E+2
  -4.15235E+2  -9.56225E+2
   5.12573E+2  -1.01043E+3
   9.72508E+2   1.80030E+2
   3.56338E+2   7.36005E+2
  -6.01903E+2   1.76205E+2
  -5.66025E+2  -3.02807E+2
   1.42039E+2  -3.64439E+2
   8.01288E+2  -5.39549E+2
   6.23600E+2   4.30069E+2
  -5.86626E+2   1.08474E+3
  -1.20874E+3  -8.71178E+1
  -5.53980E+2  -1.24538E+3
   5.69288E+2  -7.31570E+2
   5.59481E+2   2.38650E+2
   1.87766E+2  -4.63510E+0
   8.84527E+1  -5.40739E+2
   5.71956E+2  -2.78667E+1
   6.83972E+2   9.55962E+2
  -1.68362E+2   1.06298E+3
  -8.81354E+2   2.62314E+2
  -9.56442E+2  -5.57249E+2
  -5.34026E+1  -2.50832E+2
  -4.08062E+1  -2.73215E+2
   3.57192E+2  -3.64475E+2
   1.76531E+2  -2.01860E+2
   4.31440E+2   3.19569E+2
   2.17029E+1   4.39428E+2
  -4.11380E+2   4.28936E+1
  -1.64557E+2  -3.25006E+2
  -2.95731E+1  -4.06536E+1
   4.04988E+2  -8.97377E+1
   6.22833E+2  -6.26560E+1
   2.01793E+2   6.12786E+2
  -1.72083E+2   8.34126E+2
  -2.97791E+1   9.75362E+1
   4.11808E+2   1.66338E+1
  -8.12310E+1   1.95470E+2
  -4.65904E+1   8.31534E+1
  -3.79393E+1  -1.49233E+2
   4.81291E+2  -5.32652E+2
   5.18357E+2   3.85159E+2
   3.62645E+1   3.85636E+2
  -1.89711E+2   8.45935E+1
  -2.80759E+2  -6.83065E+2
   2.20247E+2  -5.81386E+2
   8.57310E+2   8.20756E+1
   5.81300E+2   2.88491E+2
   2.00266E+2   2.46871E+2
   1.11422E+2   2.05554E+2
   1.26826E+2   2.51569E+2
  -9.88823E+1   1.01817E+2
  -3.35944E+2   7.93860E+1
  -3.60125E+2  -1.79200E+2
  -1.45129E+2  -4.51426E+2
   3.46446E+2  -2.71578E+2
   5.91818E+1   6.98752E+1
   2.20739E+2  -7.40007E+0
   6.58548E+1  -2.10750E+2
   4.01972E+1  -4.53202E+2
   1.52272E+2  -5.71153E+0
   4.31565E+2   9.85555E+1
   3.29754E+2   1.61600E+2
   3.26949E+2  -6.82843E+1
   5.28787E+1   2.84672E+2
  -7.58623E+1   3.78034E+2
  -3.28695E+2   3.13259E+2
  -5.58759E+2  -2.41025E+2
  -1.10883E+2  -5.07985E+2
   3.43321E+2   9.84163E+1
   2.29365E+2   3.24940E+2
  -2.34830E+2   1.46929E+2
  -2.14874E+2  -1.38255E+2
   1.12419E+2   3.62062E+0
   2.91641E+2   1.08831E+2
   1.13816E+2  -4.53098E+1
  -9.95121E+1   1.10778E+1
  -6.58789E+1  -2.14363E+2
   5.64135E+1   1.28099E+2
   1.00140E+2   2.60206E+2
  -1.65158E+2   1.54423E+2
  -1.40003E+2  -1.35731E+2
  -3.71548E+1  -3.36012E+2
   3.63064E+2   2.08002E+2
   2.48677E+2   2.00353E+2
   6.16780E+1   3.47355E+2
  -9.80814E+1   1.67913E+1
   1.68883E+2   1.16605E+2
  -1.22338E+2   1.81052E+2
  -1.43902E+2   1.57193E+2
  -2.13467E+2  -1.43907E+2
  -1.61252E+2  -3.53441E+2
   5.12917E+2  -3.35013E+2
   7.24066E+2   2.37242E+2
   2.38355E+2   3.22846E+2
  -1.19187E+2   4.06004E+2
  -6.08749E+1  -4.98175E+1
   9.24191E+1  -2.62043E+1
   4.94927E+1  -7.35049E+1
   1.83250E+2  -1.46378E+2
   2.56490E+2  -1.13594E+2
   4.00422E+2  -1.20190E+1
   9.30781E+1   4.23745E+2
   9.59560E+1   3.58241E+2
  -2.65039E+2   4.23126E+1
  -1.14835E+1  -2.86642E+2
   4.19795E+2  -2.06187E+2
   1.31994E+2   1.76617E+2
   2.63712E+2   1.81961E+2
  -5.44786E+1   7.94039E+0
   9.86925E+1   3.58528E+1
   2.19403E+2   1.32196E+2
  -8.55794E+1   1.13631E+2
  -7.26485E+1  -1.27749E+2
  -7.44526E+1  -3.59211E+2
   2.72758E+2  -3.10896E+2
   4.57220E+2   1.47018E+2
   2.79516E+1   2.51512E+2
  -8.50870E+1   2.22228E+2
  -2.77537E+2  -1.55471E+1
   2.57334E+1  -1.31231E+2
   4.40025E+1   2.24978E+1
  -6.93055E+1  -2.04992E+2
  -2.74302E+2  -2.35573E+2
   2.70107E+2   2.70137E+1
   3.41291E+2   2.41486E+1
   2.88943E+2   3.03830E+2
  -2.36646E+2   6.73243E+1
  -8.48123E+1  -1.75984E+2
   1.73392E+2  -2.60375E+2
   3.34027E+2   1.26783E+0
   3.16973E+2   1.52427E+2
  -1.06714E+0   1.38554E+2
  -1.00199E+2  -7.29620E+1
   1.77006E+2   3.81467E+1
   2.14050E+2   1.57615E+2
  -1.48844E+2   2.24877E+2
  -9.59436E+1  -2.19608E+2
   3.07493E+1   1.78063E+2
   1.58220E+1   2.67949E+0
   9.29424E+1   1.45908E+2
  -2.08995E+2   3.46550E+1
  -1.69781E+2  -3.45492E+2
  -7.34693E+1  -1.13322E+2
   3.08631E+2   1.63019E+1
   3.08348E+2   2.73911E+2
  -1.78838E+2   1.90765E+2
  -2.88154E+1  -1.73606E+2
   1.60473E+2   1.51199E+2
   2.65736E+2   2.08539E+2
  -1.00228E+2   2.16193E+2
  -1.40504E+2  -1.71956E+2
   2.36474E+1  -3.06626E+2
   3.13079E+2   7.79253E+1
   6.86512E+1  -1.62224E+1
  -1.52965E+2   2.86242E+2
  -1.92124E+2   9.14168E+1
  -1.64516E+2  -1.33722E+2
   3.60171E+1   1.83844E+2
  -1.08311E+2  -6.99336E+1
   8.72593E+1  -1.05480E+2
   3.46571E+2   2.71940E+1
   2.05550E+2   1.50200E+2
   3.94939E+1   1.42475E+2
  -2.66703E+1   6.10017E+2
  -2.25806E+2   7.23634E+1
  -2.08255E+2  -1.49063E+2
   2.60331E+2  -3.02476E+2
   3.15550E+2   2.67842E+2
  -5.00228E+1   2.82630E+2
  -1.28638E+2   3.12690E+2
  -7.90121E+0   1.00873E+2
   7.87504E+1  -4.65660E+1
  -2.02317E+2   4.77746E+1
  -1.47842E+2   1.11664E+2
   1.28159E+2  -2.24860E+2
   9.52084E+0  -1.35465E+2
   8.28899E+1   5.47062E+1
  -1.38672E+1   2.38568E+2
  -2.53947E+2  -2.84601E+1
  -1.91629E+2  -1.69123E+1
   2.02727E+2   5.37005E+1
   3.59230E+2   8.00682E+1
   6.71230E+1   1.83243E+2
   4.55458E+1  -4.93944E+1
  -5.89797E+1   1.44482E+2
   1.05288E+2   1.22522E+2
   1.68133E+2   3.56358E+2
  -9.98884E+1   1.46231E+2
  -1.53167E+0   1.13782E+2
  -7.73314E+1  -2.31308E+2
   5.43680E+2  -5.32047E+1
   2.66956E+2   1.52740E+2
  -7.52271E+1  -4.37685E+1
   3.63436E+0  -4.75312E+1
   1.75540E+2  -1.11127E+2
   8.82747E+0   1.31572E+2
  -1.90252E+2   1.52752E+2
   2.29919E+2  -2.32989E+1
   2.13448E+2  -4.76840E-1
   2.76009E+2  -1.54556E+2
   1.00204E+2   4.52435E+1
   3.02828E+1  -5.35596E+1
   7.14593E+1  -3.55588E+1
   4.18060E+2  -1.33345E+2
   4.14915E+1  -1.00154E+2
   4.92224E+1   2.17977E+2
   5.86561E+1  -7.29268E+1
   3.40001E+2   5.56926E+0
   1.43095E+2  -1.68395E+2
   2.76036E+2   1.25752E+2
  -1.33280E+2   1.91781E+2
   7.26606E+1  -7.35780E+1
  -7.64603E+1  -1.03090E+2
   1.60807E+2  -1.62585E+2
   1.88684E+2   1.80934E+2
  -1.83338E+2  -2.53908E+1
  -1.92919E+2  -7.67918E+1
  -3.11685E+1  -6.58637E+1
  -1.77961E+2   2.18506E+2
  -9.50856E+1   1.70066E+2
   2.48398E+2  -2.75181E+0
   1.30688E+2   7.85909E+1
   1.06667E+2  -9.86171E+1
   1.75309E+1   1.29533E+2
  -1.56316E+2   2.82327E+2
  -1.41962E+2  -1.38925E+1
  -3.65695E+1  -2.43787E+2
   9.13261E+1  -1.96699E+2
   1.30137E+1   1.47305E+2
  -1.92704E+1   2.83072E+2
  -1.58291E+2   9.75570E+1
  -1.61578E+1   2.45156E+1
   3.14279E+1  -3.75438E+1
   5.16208E+0  -5.73623E+1
  -3.29574E+2  -1.67214E+2
   3.19553E+1  -8.50266E+1
   1.44880E+2   9.99948E+1
   2.87965E+0   1.11208E+2
  -6.05298E+1   2.72978E+2
  -1.84070E+2   1.68423E+1
  -9.66350E+1  -2.74476E+2
   4.84072E+1  -4.92962E+1
   5.37856E+1   2.99060E+1
   2.26731E+1  -3.23583E+1
  -6.64344E+1   7.58772E+1
   6.11452E+1  -6.42982E+1
   9.59927E+1  -6.61983E+0
  -2.56814E+2   4.27019E+1
   2.58542E+1  -5.73286E+1
  -4.40834E+1   1.89120E+0
   2.08580E+2  -3.03330E+1
   1.52049E+2   3.13661E+1
  -1.20583E+2   3.93694E+1
  -1.62773E+1   5.64099E+1
   4.27049E+1   9.28249E-1
   1.37908E+2  -1.65922E+2
   1.19743E+2   2.69987E+2
  -2.13338E+2   2.18817E+1
  -1.62519E+2   2.13622E+1
   7.73987E+1  -2.83072E+2
  -8.33204E+0   4.10052E+1
   2.10560E+2   1.03899E+2
  -2.98807E+2   2.87695E+2
  -1.80537E+2  -1.28762E+2
   1.54942E+2  -1.23785E+2
  -5.40393E+1   9.46004E+1
   7.33030E+1  -1.60880E+1
  -7.65863E+1   3.13992E+1
