 
 $NMID
 ID=''
 FMTDAT='(2E13.5)'
 TRAMP=   1.00000E+0
 VOLUME=   1.00000E+0
 $END
   3.10059E+5   6.64383E+5
   8.96962E+4   1.95747E+6
   2.96698E+5   1.89373E+6
   2.25350E+5   1.79033E+6
   2.51341E+5   1.85848E+6
   3.78504E+5   1.80645E+6
   3.89634E+5   1.74634E+6
   4.03558E+5   1.77858E+6
   4.49121E+5   1.74033E+6
   4.28291E+5   1.69968E+6
   4.34851E+5   1.70888E+6
   4.63711E+5   1.67360E+6
   4.51522E+5   1.64326E+6
   4.51324E+5   1.64594E+6
   4.57321E+5   1.61188E+6
   4.43874E+5   1.58363E+6
   4.56658E+5   1.58086E+6
   4.78444E+5   1.55054E+6
   4.83311E+5   1.52008E+6
   5.11365E+5   1.50322E+6
   5.31957E+5   1.47029E+6
   5.32811E+5   1.44389E+6
   5.46848E+5   1.42733E+6
   5.59617E+5   1.39692E+6
   5.56035E+5   1.37201E+6
   5.66157E+5   1.35060E+6
   5.67162E+5   1.32660E+6
   5.54134E+5   1.30872E+6
   5.50530E+5   1.28925E+6
   5.54670E+5   1.26016E+6
   5.54776E+5   1.24005E+6
   5.61711E+5   1.21833E+6
   5.67161E+5   1.18867E+6
   5.71784E+5   1.16390E+6
   5.82830E+5   1.13788E+6
   5.94923E+5   1.10699E+6
   6.03658E+5   1.08217E+6
   6.11059E+5   1.05919E+6
   6.11503E+5   1.03196E+6
   6.10850E+5   1.00910E+6
   6.10078E+5   9.86732E+5
   6.06392E+5   9.63131E+5
   6.02418E+5   9.40851E+5
   6.00130E+5   9.20099E+5
   5.94639E+5   8.98698E+5
   5.90190E+5   8.80302E+5
   5.87465E+5   8.60250E+5
   5.83078E+5   8.38743E+5
   5.79739E+5   8.15695E+5
   5.79821E+5   7.94120E+5
   5.78686E+5   7.73072E+5
   5.76872E+5   7.52678E+5
   5.74705E+5   7.31960E+5
   5.72101E+5   7.12347E+5
   5.67499E+5   6.93734E+5
   5.62423E+5   6.75152E+5
   5.56102E+5   6.57662E+5
   5.49158E+5   6.40455E+5
   5.42340E+5   6.22533E+5
   5.36794E+5   6.05313E+5
   5.30852E+5   5.90033E+5
   5.25194E+5   5.74212E+5
   5.18411E+5   5.58650E+5
   5.11650E+5   5.42771E+5
   5.05538E+5   5.27088E+5
   4.99588E+5   5.11562E+5
   4.93003E+5   4.96141E+5
   4.86288E+5   4.80709E+5
   4.80208E+5   4.67148E+5
   4.73257E+5   4.55153E+5
   4.64942E+5   4.42735E+5
   4.57038E+5   4.29453E+5
   4.50111E+5   4.16764E+5
   4.42433E+5   4.05570E+5
   4.33817E+5   3.94779E+5
   4.25553E+5   3.82992E+5
   4.18666E+5   3.72026E+5
   4.10939E+5   3.61649E+5
   4.03112E+5   3.51145E+5
   3.95309E+5   3.41113E+5
   3.87439E+5   3.31854E+5
   3.79461E+5   3.22485E+5
   3.71394E+5   3.13755E+5
   3.63669E+5   3.05549E+5
   3.55028E+5   2.97770E+5
   3.46356E+5   2.90069E+5
   3.38018E+5   2.82838E+5
   3.30343E+5   2.75709E+5
   3.22318E+5   2.69223E+5
   3.14009E+5   2.62737E+5
   3.06471E+5   2.55600E+5
   2.99302E+5   2.49249E+5
   2.91828E+5   2.43347E+5
   2.84221E+5   2.37231E+5
   2.76753E+5   2.31185E+5
   2.69992E+5   2.25221E+5
   2.62883E+5   2.20408E+5
   2.55928E+5   2.15509E+5
   2.49070E+5   2.10864E+5
   2.42036E+5   2.06427E+5
   2.35063E+5   2.02324E+5
   2.27829E+5   1.98595E+5
   2.20750E+5   1.94651E+5
   2.14003E+5   1.91130E+5
   2.07322E+5   1.87102E+5
   2.01004E+5   1.84127E+5
   1.94929E+5   1.81050E+5
   1.88438E+5   1.78222E+5
   1.81965E+5   1.75549E+5
   1.76058E+5   1.72444E+5
   1.70679E+5   1.69603E+5
   1.65216E+5   1.67628E+5
   1.59160E+5   1.65778E+5
   1.53408E+5   1.63450E+5
   1.47930E+5   1.61762E+5
   1.42297E+5   1.60197E+5
   1.36997E+5   1.58741E+5
   1.31662E+5   1.56892E+5
   1.26473E+5   1.55154E+5
   1.21703E+5   1.53686E+5
   1.17244E+5   1.52481E+5
   1.12603E+5   1.51468E+5
   1.08016E+5   1.49762E+5
   1.03632E+5   1.49132E+5
   9.92277E+4   1.48101E+5
   9.45924E+4   1.46942E+5
   9.05687E+4   1.46088E+5
   8.65101E+4   1.45419E+5
   8.24219E+4   1.45032E+5
   7.87890E+4   1.43855E+5
   7.46344E+4   1.43291E+5
   7.05894E+4   1.42864E+5
   6.68199E+4   1.41966E+5
   6.33736E+4   1.41262E+5
   5.97888E+4   1.40800E+5
   5.61845E+4   1.40026E+5
   5.27988E+4   1.39303E+5
   4.99288E+4   1.38629E+5
   4.69253E+4   1.38295E+5
   4.38745E+4   1.37703E+5
   4.06376E+4   1.36607E+5
   3.80868E+4   1.35970E+5
   3.53851E+4   1.35347E+5
   3.29696E+4   1.34633E+5
   3.01484E+4   1.33808E+5
   2.75230E+4   1.32843E+5
   2.53799E+4   1.31500E+5
   2.24394E+4   1.30982E+5
   2.02642E+4   1.29783E+5
   1.80013E+4   1.28982E+5
   1.62799E+4   1.28071E+5
   1.38096E+4   1.26626E+5
   1.20025E+4   1.25936E+5
   9.98576E+3   1.24885E+5
   8.33085E+3   1.23835E+5
   6.33478E+3   1.22409E+5
   5.04143E+3   1.21234E+5
   3.54762E+3   1.19913E+5
   1.86842E+3   1.19054E+5
   3.57741E+2   1.17683E+5
  -9.27333E+2   1.16561E+5
  -2.53591E+3   1.15026E+5
  -3.92668E+3   1.13586E+5
  -5.07748E+3   1.12188E+5
  -6.20846E+3   1.10629E+5
  -7.50688E+3   1.09469E+5
  -8.72120E+3   1.08336E+5
  -9.74530E+3   1.06748E+5
  -1.12476E+4   1.05213E+5
  -1.17872E+4   1.03828E+5
  -1.28616E+4   1.02400E+5
  -1.40737E+4   1.01125E+5
  -1.47672E+4   9.94947E+4
  -1.58202E+4   9.82170E+4
  -1.67905E+4   9.65396E+4
  -1.75836E+4   9.53920E+4
  -1.84872E+4   9.41280E+4
  -1.95959E+4   9.26247E+4
  -2.02676E+4   9.10872E+4
  -2.08343E+4   9.02067E+4
  -2.16734E+4   8.85982E+4
  -2.25754E+4   8.75485E+4
  -2.31273E+4   8.61966E+4
  -2.37365E+4   8.48988E+4
  -2.44698E+4   8.34486E+4
  -2.49056E+4   8.22109E+4
  -2.50931E+4   8.10772E+4
  -2.55343E+4   7.99880E+4
  -2.57810E+4   7.85611E+4
  -2.62143E+4   7.77082E+4
  -2.65600E+4   7.69955E+4
  -2.68638E+4   7.55922E+4
  -2.73705E+4   7.40226E+4
  -2.73993E+4   7.27777E+4
  -2.77031E+4   7.16600E+4
  -2.78655E+4   7.07036E+4
  -2.81025E+4   6.96384E+4
  -2.83891E+4   6.85130E+4
  -2.82011E+4   6.73274E+4
  -2.85604E+4   6.66414E+4
  -2.85898E+4   6.52048E+4
  -2.84172E+4   6.39002E+4
  -2.79728E+4   6.30550E+4
  -2.82003E+4   6.22154E+4
  -2.80722E+4   6.12606E+4
  -2.79375E+4   6.01669E+4
  -2.77200E+4   5.90615E+4
  -2.75643E+4   5.79735E+4
  -2.75581E+4   5.69990E+4
  -2.73057E+4   5.59028E+4
  -2.67608E+4   5.50603E+4
  -2.63688E+4   5.39736E+4
  -2.59341E+4   5.33416E+4
  -2.55587E+4   5.23029E+4
  -2.54672E+4   5.11149E+4
  -2.48872E+4   5.00876E+4
  -2.45082E+4   4.90515E+4
  -2.38160E+4   4.80119E+4
  -2.32887E+4   4.71717E+4
  -2.28154E+4   4.63219E+4
  -2.22925E+4   4.50656E+4
  -2.16865E+4   4.43805E+4
  -2.10824E+4   4.36234E+4
  -2.06448E+4   4.25828E+4
  -2.01933E+4   4.14740E+4
  -1.95600E+4   4.05267E+4
  -1.89891E+4   3.99199E+4
  -1.82509E+4   3.91604E+4
  -1.76990E+4   3.78109E+4
  -1.76958E+4   3.70827E+4
  -1.66916E+4   3.62388E+4
  -1.62648E+4   3.53459E+4
  -1.57870E+4   3.41411E+4
  -1.50973E+4   3.35121E+4
  -1.47895E+4   3.27807E+4
  -1.41306E+4   3.17153E+4
  -1.36857E+4   3.08389E+4
  -1.32894E+4   3.00987E+4
  -1.26801E+4   2.89157E+4
  -1.20970E+4   2.78516E+4
  -1.18761E+4   2.74193E+4
  -1.13518E+4   2.66810E+4
  -1.09375E+4   2.58545E+4
  -1.06412E+4   2.49733E+4
  -1.00318E+4   2.43731E+4
  -9.59486E+3   2.35145E+4
  -9.25439E+3   2.28575E+4
  -9.02704E+3   2.19054E+4
  -8.64843E+3   2.13273E+4
  -8.06411E+3   2.05167E+4
  -7.92025E+3   1.97242E+4
  -7.49177E+3   1.88824E+4
  -7.37306E+3   1.81864E+4
  -6.99497E+3   1.76789E+4
  -6.65711E+3   1.68425E+4
  -6.28672E+3   1.63495E+4
  -6.55712E+3   1.56217E+4
  -5.97300E+3   1.49439E+4
  -5.97767E+3   1.46731E+4
  -5.64500E+3   1.35919E+4
  -5.63143E+3   1.31640E+4
  -5.05861E+3   1.25458E+4
  -4.98785E+3   1.18589E+4
  -5.00118E+3   1.12741E+4
  -4.96969E+3   1.10837E+4
  -4.52299E+3   1.05066E+4
  -4.54598E+3   1.02465E+4
  -4.43766E+3   9.33590E+3
  -4.01418E+3   8.95967E+3
  -3.67195E+3   8.49969E+3
  -3.67079E+3   7.64145E+3
  -3.52670E+3   7.55333E+3
  -3.42634E+3   7.00115E+3
  -3.01332E+3   6.71612E+3
  -2.95837E+3   6.17344E+3
  -2.87006E+3   5.69150E+3
  -2.36037E+3   5.27244E+3
  -2.24646E+3   4.71937E+3
  -2.12288E+3   4.40291E+3
  -2.13630E+3   3.82987E+3
  -1.82555E+3   3.83480E+3
  -1.54231E+3   3.13515E+3
  -1.27306E+3   2.61811E+3
  -1.12783E+3   2.59205E+3
  -1.00227E+3   2.00863E+3
  -9.09443E+2   1.82341E+3
  -5.21512E+2   1.32271E+3
  -2.87765E+2   1.27526E+3
  -1.50169E+2   7.41651E+2
  -3.79973E+1   2.74821E+2
   1.01307E+2   1.21047E+1
   3.99699E+2  -1.52172E+2
   8.53586E+2  -8.28955E+2
   8.32539E+2  -9.98250E+2
   1.03551E+3  -1.53378E+3
   1.22017E+3  -1.65622E+3
   1.50881E+3  -1.84147E+3
   1.50425E+3  -2.34551E+3
   1.74651E+3  -2.77368E+3
   2.04345E+3  -3.07106E+3
   2.41715E+3  -3.30799E+3
   2.21018E+3  -3.79062E+3
   2.66905E+3  -4.05395E+3
   2.86008E+3  -4.49057E+3
   2.97736E+3  -4.63116E+3
   3.12331E+3  -5.01306E+3
   3.46233E+3  -5.28900E+3
   3.44013E+3  -5.54988E+3
   3.68290E+3  -6.17712E+3
   3.67933E+3  -6.24420E+3
   4.06881E+3  -6.63648E+3
   3.92919E+3  -6.99625E+3
   4.15907E+3  -7.47627E+3
   4.25856E+3  -7.50278E+3
   4.57108E+3  -8.08244E+3
   4.62547E+3  -8.02314E+3
   4.66142E+3  -8.57392E+3
   4.57551E+3  -8.87457E+3
   5.02562E+3  -9.27291E+3
   5.04225E+3  -9.46280E+3
   5.08935E+3  -9.63917E+3
   5.10421E+3  -9.93221E+3
   5.39418E+3  -1.03792E+4
   5.31387E+3  -1.07209E+4
   5.51262E+3  -1.08162E+4
   5.56969E+3  -1.10992E+4
   5.73900E+3  -1.12801E+4
   5.40818E+3  -1.15567E+4
   5.84715E+3  -1.17565E+4
   5.74172E+3  -1.22732E+4
   5.87452E+3  -1.22091E+4
   5.79895E+3  -1.23524E+4
   5.94769E+3  -1.27232E+4
   5.82564E+3  -1.29354E+4
   5.96625E+3  -1.31779E+4
   5.91327E+3  -1.33554E+4
   6.15095E+3  -1.34882E+4
   6.20820E+3  -1.36730E+4
   6.46368E+3  -1.36080E+4
   6.00512E+3  -1.38133E+4
   6.19205E+3  -1.41253E+4
   6.27931E+3  -1.43280E+4
   6.31292E+3  -1.43518E+4
   6.16282E+3  -1.43614E+4
   6.36328E+3  -1.43759E+4
   6.47012E+3  -1.43943E+4
   6.48354E+3  -1.44387E+4
   6.27125E+3  -1.43307E+4
   6.35920E+3  -1.46669E+4
   6.29222E+3  -1.48215E+4
   6.57250E+3  -1.48556E+4
   6.74119E+3  -1.45498E+4
   6.63755E+3  -1.45755E+4
   6.81081E+3  -1.46228E+4
   6.99896E+3  -1.45560E+4
   6.93038E+3  -1.45042E+4
   6.96101E+3  -1.45129E+4
   6.81027E+3  -1.46851E+4
   6.93751E+3  -1.45594E+4
   6.86452E+3  -1.46848E+4
   7.08165E+3  -1.45638E+4
   7.18399E+3  -1.43200E+4
   7.20398E+3  -1.42088E+4
   7.33962E+3  -1.41316E+4
   7.19340E+3  -1.45433E+4
   7.47564E+3  -1.41845E+4
   7.15164E+3  -1.41756E+4
