 
 $NMID
 ID=''
 FMTDAT='(2E13.5)'
 TRAMP=   1.00000E+0
 VOLUME=   1.00000E+0
 $END
   6.79094E+3   1.46320E+4
   1.20210E+4   2.29459E+3
   4.12207E+3  -9.00474E+3
  -3.70577E+3  -3.97510E+3
  -6.51440E+3   4.08325E+3
  -1.77488E+3   3.59562E+3
   4.51158E+3   1.72936E+2
   4.85771E+3  -2.47695E+3
  -6.91776E+1  -1.22279E+3
  -2.72202E+3   1.94203E+3
  -1.99013E+3   1.14327E+3
   4.54944E+2  -1.49591E+3
   4.49723E+2  -5.21153E+1
  -2.80462E+3   9.96054E+2
  -3.13950E+3  -2.25932E+3
   1.85369E+3  -2.06973E+3
   2.54786E+3   1.78570E+3
  -9.36423E+2   1.83926E+3
  -6.36984E+2  -1.77967E+3
   1.59618E+3  -1.35308E+3
   2.52949E+2   6.11917E+2
  -9.25078E+2   3.14530E+2
   3.82165E+2   4.42594E+1
   2.64046E+2   1.00726E+3
  -4.63995E+2   1.49854E+2
   6.40786E+2  -7.71247E+2
   1.23587E+3   8.92917E+2
  -6.07844E+2   7.75587E+2
  -7.42821E+2  -8.53701E+2
   1.22859E+0  -7.42722E+2
   3.97531E+2   3.89174E+2
   4.53857E+2   1.03893E+3
  -6.95216E+2   5.98324E+2
  -1.15508E+3  -7.54497E+2
   9.33945E+2  -2.04477E+3
   2.47587E+3  -3.65096E+2
  -7.22910E+1   1.56208E+3
  -1.91219E+3   5.26446E+2
   5.46541E+1  -6.23773E+2
   9.07248E+2   6.51384E+1
  -6.44933E+2   1.65609E+2
  -2.66928E+2  -1.12284E+3
   1.49486E+3  -7.21075E+2
   6.85368E+2   8.92132E+2
  -1.85946E+2   5.49311E+2
  -3.17032E+2   7.53495E+2
  -3.43971E+2   9.16796E+2
  -9.14626E+2   5.66329E+0
  -4.90673E+2  -1.68585E+3
   6.30494E+2  -8.02072E+2
   4.30200E+2   4.56707E+1
  -1.29000E+1  -5.68028E+1
   2.25821E+2   8.88531E+1
   3.17829E+2   6.47121E+2
  -8.37985E+0   1.61881E+2
  -5.24310E+2  -5.31046E+1
  -6.62374E+2  -6.15494E+2
   1.41811E+2  -6.84023E+2
   8.34282E+2   1.87882E+2
   2.34981E+2   7.87921E+2
  -9.69442E+1   7.46443E+2
  -7.16477E+1   6.41678E+2
  -2.61519E+2   6.06279E+2
  -1.10703E+3  -2.16708E+2
  -1.04490E+3  -1.09056E+3
   1.75678E+2  -9.27230E+2
   7.52550E+2  -1.45248E+2
   7.22576E+2   3.77404E+2
   5.21929E+2   6.20991E+2
  -1.66009E+2   3.21639E+2
  -7.89130E+0  -3.10733E+2
   4.68604E+2  -1.50665E+2
   2.55846E+2   8.73421E+2
  -3.88509E+2   6.99388E+2
  -5.81499E+2  -6.70567E+1
   3.09578E+2  -3.35151E+2
   1.75633E+2  -4.77950E+1
  -3.08491E+2   2.43898E+2
  -6.66011E+2  -7.41700E+1
  -1.96726E+2  -2.39727E+2
   4.67086E+2  -2.49510E+2
   3.97433E+2  -2.87903E+2
   2.94198E+2   1.58045E+2
  -1.06403E+2   2.56799E+2
   1.76151E+2  -2.03194E+2
   3.57836E+2   1.13331E+2
   1.57827E+2   6.11856E+2
  -2.98011E+2   5.16779E+2
   5.42012E+1  -1.58800E+2
   1.34675E+2  -6.02586E+1
  -8.17890E+1   3.12706E+2
  -7.08394E+2   9.21394E+1
  -3.74843E+2  -2.78128E+2
  -1.29048E+2  -6.43999E+2
   5.30683E+2  -5.33849E+2
   6.23390E+2   3.47895E+1
   2.86917E+2   1.78879E+2
  -3.51555E+2   6.34724E+0
   6.35076E+1  -1.12089E+2
   7.11320E+1   2.39485E+2
  -2.04920E+2   3.38501E+2
  -8.82010E+2  -2.12031E+2
  -9.54233E+1  -7.94420E+2
   4.74553E+2  -2.13132E+2
   1.75402E+2   3.56157E+2
  -4.65342E+2   5.50413E+2
  -7.82481E+2  -1.15444E+2
  -2.67627E+1  -7.54808E+2
   3.83184E+2  -4.51738E+2
   1.71612E+2   2.27256E+2
  -1.69711E+2   6.86036E+2
  -6.68139E+2   1.56948E+2
  -4.25745E+2   5.56576E+0
  -2.28817E+2  -7.32624E+1
  -1.60709E+2  -1.27713E+2
  -2.98991E+2  -3.09636E+2
  -9.74680E+1  -3.88860E+2
   2.44451E+2  -5.75250E+2
   5.07070E+2   3.15214E+1
   4.60650E+2   7.33627E+2
  -2.01007E+2   3.94506E+2
  -2.22820E+2  -3.78550E+0
  -2.57541E+2   2.74508E+2
  -1.05831E+2  -1.50366E+1
  -2.91817E+2  -7.30612E+1
  -1.34968E+2  -3.10716E+2
   1.15470E+2   5.16352E+1
   5.21584E+1   3.50252E+2
  -2.27390E+2   2.70745E+2
  -3.87116E+2   6.72046E+1
  -2.15442E+2  -2.42191E+2
   3.35789E+2  -2.58135E+2
   4.11549E+2  -2.32308E+1
  -1.04368E+2   4.33932E+2
   2.96708E+2  -4.26187E+1
   2.04235E+2  -1.62158E+2
   3.12926E+2   2.25597E+2
  -2.43280E+2   4.04168E+2
  -3.84733E+2  -1.06884E+2
  -5.72560E+1  -3.62691E+2
   1.99734E+2  -4.12542E+2
   3.09989E+2   2.27429E+2
  -9.37845E+1   4.49554E+2
  -4.76760E+2  -3.44779E+1
  -2.38920E+2  -5.65825E+2
   2.20810E+2  -2.54022E+2
   3.94752E+2  -4.13888E+2
   2.29263E+2   8.64535E+1
   3.18173E+2  -1.56805E+2
   1.80133E+2  -1.27538E+2
   1.72362E+2   9.35101E+0
   1.67651E+2   3.50714E+2
  -2.07814E+2   2.20507E+2
  -3.11914E+2  -1.80203E+2
   1.36856E+2  -1.23828E+2
   2.96729E+2   2.80662E+2
  -1.47189E+2  -1.66220E+2
  -3.36795E+2  -3.26512E+2
  -4.63679E+1  -4.48506E+2
  -6.85041E+1  -1.22215E+2
  -6.25693E+1  -3.20367E+1
   1.02592E+2  -1.22369E+2
   1.87961E+2  -1.84247E+2
   2.99541E+2  -1.06529E+2
   1.28434E+2   4.61997E+2
  -1.43511E+2   1.92289E+2
  -3.88584E+2  -2.34677E+2
   8.89235E+1  -1.43754E+2
  -2.57666E+1  -2.53243E+2
   1.03785E+2  -9.08558E+0
   8.51470E+1   3.52243E+1
  -1.17754E+2  -2.52707E+0
  -1.55390E+1  -1.92946E+2
   3.79319E+2   7.89236E+1
   1.58256E+1   1.31164E+2
  -2.41610E+2  -1.27205E+2
  -5.87403E+1  -2.01579E+2
   2.59033E+2  -1.61359E+2
   2.41923E+2   1.50708E+2
  -1.05026E+2   4.32119E+2
  -4.96802E+2  -9.21379E+1
  -5.52800E+1  -3.87066E+2
   2.29301E+2  -1.56648E+2
   2.75106E+2   2.77699E+2
   1.79572E+2   1.59270E+2
   1.27856E+2  -1.86595E+1
  -3.06961E+1   8.52566E+1
   7.27904E-1   3.07371E+2
  -1.48487E+2   2.56729E+2
  -3.02441E+2   2.23539E+2
  -9.94600E+1  -3.35736E+2
   2.48743E+2  -6.04342E+2
   1.59770E+2  -3.66178E+1
   3.85789E+1   2.09992E+2
  -2.39556E+2   1.46569E+2
   1.35724E+2  -3.63557E+1
   6.17763E+1  -1.40860E+2
   1.44369E+2   1.13261E+2
  -6.10206E+1  -2.59459E+2
  -9.41300E+0  -1.49584E+2
   1.19436E+2  -2.37125E+2
   2.43688E+2   1.22532E+2
   1.21109E+2   1.14570E+2
  -1.85117E+2   7.33377E+1
  -1.15527E+2  -8.46945E+1
   1.73847E+2  -5.60438E+1
  -1.17280E+2  -1.48678E+1
  -1.24891E+2   2.08069E+1
  -2.12380E+2   9.23421E+1
  -7.17248E+1  -4.78322E+1
   6.28696E+1   7.70675E+1
  -6.50322E+1  -1.01742E+1
  -1.72914E+2  -1.77234E+1
  -1.53244E+2  -2.49601E+2
  -1.53462E+2  -3.11011E+2
   3.17187E+2  -5.26977E+1
  -5.65911E+1   1.33157E+2
  -3.07171E+2  -1.53269E+1
   2.48707E+2   1.32583E+2
   4.51093E+1   1.84594E+2
   1.38839E+1   1.44709E+2
  -2.60902E+2   6.19061E+1
  -7.81819E+1  -2.64720E+1
   1.76132E+2   7.67746E+1
   1.59242E+2  -1.43765E+2
  -2.32510E+2   3.60048E+2
  -1.59566E+2   1.06236E+2
  -2.16884E+2  -1.75661E+2
   1.27244E+2   5.74099E-1
   1.77728E+1  -5.05745E+1
   2.00120E+2   2.67229E+2
  -1.39480E+2  -8.12111E+0
   5.33355E+0   1.76823E+1
   1.43678E+2  -7.11619E+1
   1.44742E+2   5.55228E+1
  -1.24469E+2   6.38269E+1
   7.65173E+1  -2.55859E+2
   1.15263E+1  -7.03061E+0
   3.94832E+1   2.22352E+2
  -1.89097E+2   2.30346E+2
  -1.80974E+2   1.00374E+2
   1.64340E+2   3.92571E+1
  -4.54113E+1  -4.81762E+1
   1.04683E+2   1.70168E+2
   1.26891E+2   7.65563E+1
  -1.73797E+2   2.72371E+0
  -6.02604E+1  -5.38222E+1
   1.80259E+2   1.78757E+2
  -9.39020E+1   1.12144E+2
  -1.42792E+2   3.14201E+2
  -4.01176E+1  -3.69162E+1
  -5.24987E+1  -1.96683E+2
  -8.58012E+1  -9.14850E+0
   9.34929E+0   2.06362E+2
   1.46511E+1   2.30158E+2
  -2.26198E+2   1.16612E+2
   1.81993E+1  -3.77742E+1
   1.41139E+2   7.76574E+1
   3.60923E+1   6.74234E+1
  -1.08514E+1  -4.44570E+1
  -1.01472E+2   1.09889E+2
   8.68459E+1  -1.31759E+2
   7.40165E+1   1.13849E+2
  -4.54667E+0   1.04067E+2
  -1.71245E+2  -1.60008E+2
  -7.11488E+1  -6.36184E+1
  -1.68728E+2   4.34118E+1
   5.98240E+1   8.51785E+1
   6.96749E+1   1.80757E+2
   1.26963E+2  -2.15402E+1
   9.12959E+1   3.73360E+1
  -1.66046E+2   1.96953E+2
   1.08298E+2   7.42945E+0
   2.42320E+2  -1.14562E+2
  -3.34450E+1  -8.48751E+1
  -2.72836E+1  -6.14744E+1
   1.02618E+2   5.81603E+1
   1.55719E+0   2.85751E+1
  -6.88177E+1  -8.50083E+1
   2.39265E+2  -1.66018E+2
  -1.37589E+2  -2.32116E+2
   5.91794E+1   3.80471E+2
  -1.18374E+2  -3.24668E+2
   2.19560E+2   1.49924E+1
   7.89885E+1  -2.29733E+1
  -8.99939E+0   1.29410E+2
  -1.77855E+1   1.54644E+2
  -1.40609E+2  -2.58465E+1
  -7.72405E+1   1.38286E+2
   6.68202E+1   3.19087E+2
   9.87005E+1  -1.34942E+2
  -1.26691E+2   3.45793E+1
   4.93438E+1   1.93134E+2
   1.81722E+2   2.11024E+1
   3.42524E+1   1.92296E+2
  -1.99706E+2   1.91873E+1
   3.22088E+0   4.61940E+0
  -1.79421E+2   4.65818E+1
  -1.05556E+2  -6.76775E+1
   7.67968E+1  -3.51896E+1
  -2.88529E+1   8.98083E+1
  -7.47149E+1  -1.75669E+2
   1.75265E+1   1.18062E+2
   1.78615E+2   1.01398E+2
   7.62818E+1   7.45087E+1
  -8.77379E+1   1.27206E+1
   1.07078E+2   9.53736E+0
  -2.49977E+2   1.04352E+2
   5.35352E+1   5.56704E+1
  -5.38297E+1   1.49791E+2
   2.57711E+2  -7.00643E+1
   1.16195E+2  -1.22214E+2
   9.60813E+1   9.46210E+1
  -1.93183E+1   8.38184E+1
   1.88417E+2   7.27082E+0
  -2.02254E+2  -1.08176E+2
  -1.22065E+2  -1.85538E+2
  -1.60353E+2   2.13161E+2
  -3.33237E+1  -1.26652E+2
   1.41775E+2  -4.78691E+1
  -9.69028E+1  -1.47079E+2
   9.68969E+1   3.05167E+2
  -9.75165E+1   1.88992E+1
  -1.24655E+1   1.12304E+1
   1.17330E+1  -1.63265E+1
  -9.99928E+1   1.24020E+2
  -2.60909E+2  -1.68772E+2
  -3.33743E+1   2.78593E+1
  -1.86595E+2  -2.26065E+2
   1.36608E+1   8.77099E+1
   2.35210E+1   1.74090E+2
   1.37105E+2  -3.45210E+1
   1.16580E+2  -1.26563E+2
   4.89858E+1  -2.52360E+2
  -3.49871E+1  -6.44265E+1
   9.10922E+1   9.40354E+1
   6.92347E+1   6.60180E+1
   1.46187E+2  -1.32460E+2
   3.64524E+0  -6.23750E+1
  -2.12734E+2   1.13521E+2
  -2.27490E+2   4.05048E+1
   6.41443E+0  -1.25807E+1
   8.50390E+1  -4.11227E+2
   1.22878E+2   3.01086E+1
  -1.68057E+2  -2.07522E+2
  -1.51342E+2  -9.73199E+1
  -1.29334E+2  -8.07697E+0
  -1.22766E+2  -1.95405E+2
  -3.66592E+1   5.27224E+1
  -5.82184E+1   6.27704E+1
  -6.38182E+1   5.75738E+1
  -1.92252E+2  -1.89351E+2
  -2.44238E+2  -1.00782E+2
  -7.97447E+1   2.01058E+2
  -1.22498E+2   8.69910E+1
  -5.57876E+1  -8.09986E+1
   1.89384E+2  -1.00403E+2
  -1.27067E+1   1.07543E+2
  -1.20941E+2   1.24448E+2
   2.11771E+2   1.26727E+1
   1.17059E+2  -4.08027E+1
  -3.40476E+1   1.84849E+2
  -3.20637E+0  -3.35988E+1
  -8.80016E+1  -1.94522E+2
  -5.84895E+1  -1.83216E+2
  -1.67736E+2   2.21065E+1
  -6.51820E+0  -2.79340E+2
