 LCModel (Version 6.3-1N) Copyright: S.W. Provencher.          Ref.: Magn. Reson. Med. 30:672-679 (1993).                
 Slice_N1@15_9  28-Feb-2025 11:40:51
 27 lines in following concentration table = NCONC+1
    Conc.  %SD /Cr+PCr  Metabolite                                         
 3.28E-04   3% 3.9E-04 Mac                                                 
    2.779  51%   3.325 Cr                                                  
    3.908  35%   4.675 PCr                                                 
    4.620  17%   5.527 Ins                                                 
   10.011   8%  11.976 NAA                                                 
    4.003  19%   4.788 Tau                                                 
    0.692 114%   0.828 PCho                                                
    0.302 258%   0.362 GPC                                                 
    9.533  10%  11.404 Glu                                                 
    4.239  17%   5.071 Gln                                                 
    3.656  17%   4.373 Ala                                                 
    1.645  67%   1.968 Asc                                                 
    3.392  25%   4.058 Asp                                                 
 3.59E-02 999% 4.3E-02 GABA                                                
    0.734  84%   0.878 Glc                                                 
    0.584  75%   0.699 GSH                                                 
    0.000 999%   0.000 Lac                                                 
    4.389  13%   5.250 NAAG                                                
    0.772 131%   0.924 PE                                                  
    0.994  27%   1.189 GPC+PCho                                            
   14.400   6%  17.227 NAA+NAAG                                            
   13.772   8%  16.475 Glu+Gln                                             
    6.687   9%   8.000 Cr+PCr                                              
   14.400   6%  17.227 NAA+NAAG                                            
    6.687   9%   8.000 Cr+PCr                                              
   13.772   8%  16.475 Glu+Gln                                             
   6 lines in following misc. output table
  FWHM = 0.033 ppm    S/N =   4                                            
  Data shift =-0.016 ppm                                                   
  Ph: 165 deg       0.0 deg/ppm                                            
  alphaB,S = 7.1E+00,   1.4E+01                                            
   19 spline knots.   Ns = 7(1)                                            
   4 inflections.     3 extrema                                            
  480 points on ppm-axis = NY
      4.100000     4.091866     4.083733     4.075600     4.067466     4.059333     4.051199     4.043066     4.034933     4.026799
      4.018666     4.010532     4.002399     3.994265     3.986132     3.977998     3.969864     3.961731     3.953597     3.945463
      3.937330     3.929196     3.921062     3.912929     3.904795     3.896662     3.888528     3.880394     3.872261     3.864127
      3.855993     3.847860     3.839726     3.831592     3.823459     3.815325     3.807191     3.799058     3.790924     3.782790
      3.774657     3.766523     3.758389     3.750256     3.742122     3.733989     3.725855     3.717721     3.709588     3.701454
      3.693320     3.685187     3.677053     3.668919     3.660786     3.652652     3.644518     3.636385     3.628251     3.620117
      3.611984     3.603850     3.595716     3.587583     3.579449     3.571316     3.563182     3.555048     3.546915     3.538781
      3.530647     3.522514     3.514380     3.506246     3.498113     3.489979     3.481845     3.473712     3.465578     3.457444
      3.449311     3.441177     3.433043     3.424910     3.416776     3.408643     3.400509     3.392375     3.384242     3.376108
      3.367974     3.359841     3.351707     3.343573     3.335440     3.327306     3.319172     3.311039     3.302905     3.294771
      3.286638     3.278504     3.270370     3.262237     3.254103     3.245970     3.237836     3.229702     3.221569     3.213435
      3.205301     3.197168     3.189034     3.180900     3.172767     3.164633     3.156499     3.148366     3.140232     3.132098
      3.123965     3.115831     3.107697     3.099564     3.091430     3.083297     3.075163     3.067029     3.058896     3.050762
      3.042628     3.034495     3.026361     3.018227     3.010094     3.001960     2.993826     2.985693     2.977559     2.969425
      2.961292     2.953158     2.945024     2.936891     2.928757     2.920624     2.912490     2.904356     2.896223     2.888089
      2.879955     2.871822     2.863688     2.855554     2.847421     2.839287     2.831153     2.823020     2.814886     2.806752
      2.798619     2.790485     2.782351     2.774218     2.766084     2.757951     2.749817     2.741683     2.733550     2.725416
      2.717282     2.709149     2.701015     2.692881     2.684748     2.676614     2.668480     2.660347     2.652213     2.644079
      2.635946     2.627812     2.619678     2.611545     2.603411     2.595278     2.587144     2.579010     2.570877     2.562743
      2.554609     2.546476     2.538342     2.530208     2.522075     2.513941     2.505807     2.497674     2.489540     2.481406
      2.473273     2.465139     2.457006     2.448872     2.440738     2.432605     2.424471     2.416337     2.408204     2.400070
      2.391936     2.383803     2.375669     2.367535     2.359402     2.351268     2.343134     2.335001     2.326867     2.318733
      2.310600     2.302466     2.294333     2.286199     2.278065     2.269932     2.261798     2.253664     2.245531     2.237397
      2.229263     2.221130     2.212996     2.204862     2.196729     2.188595     2.180461     2.172328     2.164194     2.156060
      2.147927     2.139793     2.131660     2.123526     2.115392     2.107259     2.099125     2.090991     2.082858     2.074724
      2.066590     2.058457     2.050323     2.042189     2.034056     2.025922     2.017788     2.009655     2.001521     1.993387
      1.985254     1.977120     1.968987     1.960853     1.952719     1.944586     1.936452     1.928318     1.920185     1.912051
      1.903917     1.895784     1.887650     1.879516     1.871383     1.863249     1.855115     1.846982     1.838848     1.830714
      1.822581     1.814447     1.806314     1.798180     1.790046     1.781913     1.773779     1.765645     1.757512     1.749378
      1.741244     1.733111     1.724977     1.716843     1.708710     1.700576     1.692442     1.684309     1.676175     1.668041
      1.659908     1.651774     1.643641     1.635507     1.627373     1.619240     1.611106     1.602972     1.594839     1.586705
      1.578571     1.570438     1.562304     1.554170     1.546037     1.537903     1.529769     1.521636     1.513502     1.505368
      1.497235     1.489101     1.480968     1.472834     1.464700     1.456567     1.448433     1.440299     1.432166     1.424032
      1.415898     1.407765     1.399631     1.391497     1.383364     1.375230     1.367096     1.358963     1.350829     1.342695
      1.334562     1.326428     1.318295     1.310161     1.302027     1.293894     1.285760     1.277626     1.269493     1.261359
      1.253225     1.245092     1.236958     1.228824     1.220691     1.212557     1.204423     1.196290     1.188156     1.180022
      1.171889     1.163755     1.155622     1.147488     1.139354     1.131221     1.123087     1.114953     1.106820     1.098686
      1.090552     1.082419     1.074285     1.066151     1.058018     1.049884     1.041750     1.033617     1.025483     1.017349
      1.009216     1.001082     0.992949     0.984815     0.976681     0.968548     0.960414     0.952280     0.944147     0.936013
      0.927879     0.919746     0.911612     0.903478     0.895345     0.887211     0.879077     0.870944     0.862810     0.854676
      0.846543     0.838409     0.830276     0.822142     0.814008     0.805875     0.797741     0.789607     0.781474     0.773340
      0.765206     0.757073     0.748939     0.740805     0.732672     0.724538     0.716404     0.708271     0.700137     0.692003
      0.683870     0.675736     0.667603     0.659469     0.651335     0.643202     0.635068     0.626934     0.618801     0.610667
      0.602533     0.594400     0.586266     0.578132     0.569999     0.561865     0.553731     0.545598     0.537464     0.529330
      0.521197     0.513063     0.504930     0.496796     0.488662     0.480529     0.472395     0.464261     0.456128     0.447994
      0.439861     0.431727     0.423593     0.415460     0.407326     0.399192     0.391059     0.382925     0.374792     0.366658
      0.358524     0.350391     0.342257     0.334124     0.325990     0.317856     0.309723     0.301589     0.293455     0.285322
      0.277188     0.269055     0.260921     0.252787     0.244654     0.236520     0.228386     0.220253     0.212119     0.203986
 NY phased data points follow
  -8.62885E+01 -7.24972E+01 -7.83923E+01 -7.78488E+01 -7.11952E+01 -6.99362E+01 -9.06898E+01 -7.35914E+01 -7.88088E+01 -1.09620E+02
  -7.89142E+01 -8.92517E+01 -9.83407E+01 -1.01436E+02 -1.07825E+02 -1.23484E+02 -1.34398E+02 -1.07470E+02 -1.39816E+02 -1.36565E+02
  -1.29951E+02 -1.32935E+02 -1.00952E+02 -1.08260E+02 -8.71475E+01 -7.19462E+01 -5.84094E+01 -5.10252E+01 -5.98401E+01 -4.04935E+01
  -4.55947E+01 -5.45689E+01 -5.72529E+01 -5.20640E+01 -4.51158E+01 -5.45044E+01 -6.46249E+01 -7.58663E+01 -9.08058E+01 -9.76659E+01
  -1.11017E+02 -1.18262E+02 -1.06030E+02 -1.17388E+02 -8.58564E+01 -5.80525E+01 -5.56569E+01 -2.10571E+01 -2.80324E+01 -2.19516E+01
  -1.57311E+01 -2.55469E+01 -1.42492E+01 -3.45556E+01 -3.93686E+01 -3.06739E+01 -5.64387E+01 -5.71492E+01 -5.27890E+01 -6.87396E+01
  -5.23636E+01 -4.20985E+01 -4.46090E+01 -3.86916E+01 -1.60992E+01 -1.27114E+01 -4.06432E+01 -4.42657E+01 -5.66298E+01 -5.77153E+01
  -5.13892E+01 -5.48333E+01 -5.49305E+01 -6.48816E+01 -4.69731E+01 -2.22115E+01 -1.83929E+01 -7.21210E+00 -1.67423E+01 -2.22746E+01
  -8.27059E+00 -4.90612E+01 -4.97820E+01 -2.86088E+01 -4.40754E+01 -4.04016E+01 -3.48445E+01 -2.47010E+01 -3.72504E+01 -1.81578E+01
  -9.58372E+00 -1.47234E+01  8.94239E-01 -1.11819E+00  2.50070E+01  3.06435E+01  2.89235E+01  1.56997E+01  1.11062E+01  1.88113E+01
   7.01000E+00 -6.82843E+00 -2.59286E+01 -2.55730E+01 -4.42640E+01 -5.69964E+01 -6.99979E+01 -8.07571E+01 -1.01297E+02 -1.22703E+02
  -1.21722E+02 -1.41515E+02 -1.11071E+02 -9.78612E+01 -1.23036E+02 -1.14707E+02 -8.48762E+01 -6.25241E+01 -5.55618E+01 -4.81517E+01
  -5.24424E+01 -3.65579E+01 -2.61121E+01 -1.70345E+01 -1.07402E+01 -1.66115E+01  8.15886E+00  2.17654E+01  3.28465E+01  5.60749E+01
   5.17012E+01  9.50496E+00 -5.25557E+01 -8.01025E+01 -9.34050E+01 -1.01123E+02 -1.01233E+02 -1.63803E+02 -1.67055E+02 -1.10612E+02
  -1.07229E+02 -1.02378E+02 -1.19433E+02 -1.27090E+02 -1.11709E+02 -1.14644E+02 -1.10275E+02 -9.99779E+01 -9.16022E+01 -8.32193E+01
  -1.02938E+02 -1.00229E+02 -6.03907E+01 -7.03587E+01 -7.64188E+01 -7.74352E+01 -7.17699E+01 -6.53717E+01 -7.65050E+01 -6.37354E+01
  -6.63671E+01 -6.88867E+01 -7.82473E+01 -7.14736E+01 -6.86291E+01 -7.09945E+01 -5.70275E+01 -6.39194E+01 -5.64596E+01 -6.04710E+01
  -3.76404E+01 -2.71872E+01 -3.55674E+01 -1.13783E+01 -2.63406E+01 -2.92199E+01 -1.61023E+01 -1.08467E+01 -3.28782E+01 -7.21904E+01
  -5.81218E+01 -5.51916E+01 -6.97274E+01 -8.38887E+01 -9.72537E+01 -9.26461E+01 -1.05184E+02 -8.49479E+01 -7.78408E+01 -9.43104E+01
  -6.40749E+01 -6.93447E+01 -8.96724E+01 -7.02337E+01 -5.88480E+01 -6.81380E+01 -6.47832E+01 -6.51922E+01 -5.10522E+01 -5.11470E+01
  -7.31171E+01 -4.69237E+01 -6.36213E+01 -7.49328E+01 -6.30076E+01 -7.07644E+01 -7.19626E+01 -9.36284E+01 -8.12452E+01 -8.13500E+01
  -8.86728E+01 -6.59762E+01 -5.85124E+01 -5.18224E+01 -2.98477E+01 -2.20829E+01 -1.77069E+01 -1.02780E+01 -2.47534E+01 -1.43888E+01
  -1.40241E+01 -1.29605E+01 -2.63782E+01 -4.58824E+01 -4.33878E+01 -6.16966E+01 -4.81879E+01 -5.79589E+01 -5.32325E+01 -5.42038E+01
  -7.46325E+01 -5.64144E+01 -8.96953E+01 -1.09634E+02 -1.04109E+02 -1.30196E+02 -1.53746E+02 -1.31176E+02 -1.27526E+02 -1.34226E+02
  -1.25191E+02 -1.36474E+02 -1.01220E+02 -9.49735E+01 -1.06745E+02 -1.06721E+02 -9.30934E+01 -7.82081E+01 -1.06824E+02 -1.03677E+02
  -1.20220E+02 -1.25680E+02 -1.22123E+02 -1.42365E+02 -1.47905E+02 -1.44019E+02 -8.89589E+01 -9.93297E+00  5.48375E+01  8.32037E+01
   8.74856E+01  7.60698E+01  1.18902E+02  1.46240E+02  8.48112E+01  6.43780E+01  4.38421E+01  4.59059E+01  5.13512E+01  2.94680E+01
   3.45913E+01  2.86940E+01  3.79720E+01  4.37817E+01  2.67333E+01  2.78806E+01  3.66784E+01  2.47619E+01  3.80671E+01  3.10412E+01
   1.35650E+01  2.69678E+01  6.03220E+00  1.64821E+01  2.80613E+01  1.95936E+01  2.27715E+01  1.89916E+01  2.04505E+01  1.20822E+01
  -2.95752E+00  7.13481E+00  2.15991E+01 -2.98805E+00  2.07385E+00  1.04515E+01  7.32482E+00  1.37980E+00 -9.35485E+00  1.61338E+01
   1.43858E+01  2.13428E+00 -1.34061E+01  1.66982E+00  2.17406E+01  1.26897E+01  2.74228E+01  2.48172E+01  3.38253E+01  3.31158E+01
   1.90579E+01  3.27872E+01  5.29087E+01  5.87478E+01  5.89705E+01  8.40711E+01  1.00017E+02  8.40589E+01  7.14477E+01  9.31123E+01
   8.14722E+01  5.82731E+01  6.74360E+01  3.61790E+01  4.63842E+00 -2.98176E+00 -1.46793E+01 -3.06105E+01 -5.29373E+01 -6.22188E+01
  -6.69458E+01 -6.38030E+01 -5.74945E+01 -7.86972E+01 -9.11950E+01 -8.19745E+01 -6.29584E+01 -4.26568E+01 -3.51335E+01 -1.73428E+01
  -1.11494E+01 -1.35633E+01 -1.11781E+01 -7.72249E+00  1.50439E+01  2.26273E+01  2.91901E+01  4.66899E+01  3.51396E+01  3.51879E+01
   4.13566E+01  3.55709E+01  4.52188E+01  2.88392E+01  1.55678E+01  1.91137E+01  3.09117E+00 -3.30358E+00  1.71048E+00  2.04824E-01
   1.68195E+00  8.85755E+00 -7.85856E+00 -7.66111E+00  8.53941E+00  7.79518E-01  2.73768E+00  8.45707E+00  9.74607E+00  1.27765E+01
   9.57182E+00  8.24233E+00  2.19676E+01  2.02165E+01  1.77427E+01  2.17811E+01  2.18697E+01  3.99385E+01  5.58781E+01  6.54476E+01
   5.99715E+01  7.45804E+01  9.37461E+01  9.20708E+01  1.00334E+02  1.13553E+02  1.23170E+02  1.18366E+02  1.18420E+02  1.13125E+02
   1.15661E+02  1.02657E+02  9.58931E+01  9.94709E+01  6.29636E+01  5.43626E+01  4.90872E+01  3.93968E+01  2.60978E+01  1.42262E+01
   9.52023E+00 -1.22909E+01 -1.50436E+01 -1.07458E+01 -1.74096E+01 -3.01297E+01 -2.46339E+01 -3.59491E+01 -3.62824E+01 -3.04914E+01
  -3.94388E+01 -1.98900E+01 -2.92778E+01 -3.26096E+01 -3.05682E+01 -3.55982E+01 -3.33291E+01 -3.70981E+01 -4.51774E+01 -4.51741E+01
  -3.29000E+01 -4.45592E+01 -2.23112E+01 -2.16574E+01 -4.31441E+01 -2.12801E+01 -2.50174E+01 -5.00437E+01 -5.03905E+01 -2.45161E+01
  -2.90429E+01 -2.97065E+01 -2.80357E+01 -3.91981E+01 -2.51855E+01 -3.70841E+01 -4.82576E+01 -3.22777E+01 -2.53503E+01 -1.83284E+01
  -2.30298E+01 -3.96401E+01 -3.20960E+01 -3.06574E+01 -3.03049E+01 -2.98742E+01 -2.25579E+01 -1.92245E+01 -3.92422E+01 -1.61498E+01
  -2.42713E+01 -3.69215E+01 -2.39539E+01 -2.34189E+01 -1.91742E+01 -3.87320E+01 -2.43483E+01 -2.52641E+01 -3.69786E+01 -3.52576E+01
  -3.81684E+01 -3.24617E+01 -3.59093E+01 -2.71436E+01 -3.57453E+01 -2.60235E+01 -2.54035E+01 -1.11196E+01  9.87546E+00 -2.20738E+01
  -1.04759E+01 -2.02577E+01 -3.09956E+01 -1.79040E+01 -3.18700E+01 -1.99764E+01 -2.15595E+01 -2.39838E+01 -2.20128E+01 -3.00514E+01
 NY points of the fit to the data follow
  -7.95938E+01 -8.40218E+01 -8.84005E+01 -8.98713E+01 -8.84446E+01 -8.59929E+01 -8.51652E+01 -8.62390E+01 -8.79093E+01 -8.79225E+01
  -8.71945E+01 -8.97820E+01 -9.62950E+01 -1.01792E+02 -1.04530E+02 -1.07474E+02 -1.12151E+02 -1.19973E+02 -1.29408E+02 -1.34964E+02
  -1.32227E+02 -1.21857E+02 -1.08064E+02 -9.47746E+01 -8.25517E+01 -6.75554E+01 -5.07667E+01 -3.98228E+01 -3.59113E+01 -3.26409E+01
  -3.35987E+01 -3.84932E+01 -3.91750E+01 -3.96509E+01 -4.21307E+01 -4.69260E+01 -5.51263E+01 -6.84273E+01 -8.65435E+01 -1.04248E+02
  -1.14604E+02 -1.14877E+02 -1.07420E+02 -9.64169E+01 -8.33422E+01 -6.68606E+01 -4.77474E+01 -3.15281E+01 -2.18203E+01 -1.82191E+01
  -1.97918E+01 -2.35633E+01 -2.99538E+01 -3.58249E+01 -4.22910E+01 -4.78315E+01 -5.28661E+01 -5.81103E+01 -6.15686E+01 -6.20146E+01
  -5.93303E+01 -5.34334E+01 -4.55967E+01 -3.79671E+01 -3.04723E+01 -2.45848E+01 -2.80751E+01 -3.86851E+01 -4.54698E+01 -5.05483E+01
  -5.49996E+01 -5.54798E+01 -5.45566E+01 -5.10772E+01 -4.18253E+01 -2.82740E+01 -1.78993E+01 -1.48542E+01 -1.31050E+01 -1.28418E+01
  -1.99385E+01 -3.11489E+01 -4.09290E+01 -4.76208E+01 -5.05869E+01 -5.05009E+01 -4.74781E+01 -4.22543E+01 -3.52325E+01 -2.68208E+01
  -1.79193E+01 -1.18274E+01 -6.35641E+00 -4.32676E+00 -2.86184E+00 -1.04096E+00  7.54052E-01  2.13929E+00  3.76689E+00  4.49260E+00
   2.04957E+00 -4.92309E+00 -1.61395E+01 -2.83117E+01 -3.86374E+01 -4.74367E+01 -5.82047E+01 -7.51604E+01 -9.57204E+01 -1.14671E+02
  -1.25217E+02 -1.22157E+02 -1.13013E+02 -1.10739E+02 -1.10302E+02 -1.03085E+02 -8.34658E+01 -6.58633E+01 -6.12520E+01 -5.76788E+01
  -5.28442E+01 -4.65356E+01 -3.85525E+01 -2.93244E+01 -2.03227E+01 -9.00219E+00  6.99813E+00  2.60142E+01  4.52871E+01  5.60256E+01
   4.45884E+01  8.59037E+00 -3.59571E+01 -6.91428E+01 -8.54740E+01 -9.76265E+01 -1.21610E+02 -1.47594E+02 -1.47155E+02 -1.21287E+02
  -1.07790E+02 -1.07784E+02 -1.08906E+02 -1.09502E+02 -1.08995E+02 -1.07463E+02 -1.05382E+02 -1.03068E+02 -1.00589E+02 -9.80803E+01
  -9.56021E+01 -9.29165E+01 -8.98046E+01 -8.65333E+01 -8.37998E+01 -8.21142E+01 -8.11196E+01 -7.97833E+01 -7.72359E+01 -7.41227E+01
  -7.22469E+01 -7.27702E+01 -7.45031E+01 -7.47151E+01 -7.30558E+01 -7.22897E+01 -7.43443E+01 -7.68235E+01 -7.45759E+01 -6.45200E+01
  -5.15937E+01 -4.41981E+01 -4.40018E+01 -4.54014E+01 -4.15231E+01 -3.30050E+01 -2.80524E+01 -3.48970E+01 -4.98872E+01 -6.09429E+01
  -6.38423E+01 -6.63863E+01 -7.40129E+01 -8.40157E+01 -9.14173E+01 -9.18080E+01 -8.94849E+01 -8.91282E+01 -8.78190E+01 -8.55001E+01
  -8.33443E+01 -8.08590E+01 -7.68470E+01 -7.12767E+01 -6.56322E+01 -6.13493E+01 -5.81805E+01 -5.46953E+01 -5.04585E+01 -4.85004E+01
  -5.20639E+01 -5.41538E+01 -5.06746E+01 -4.88531E+01 -5.22862E+01 -5.73206E+01 -6.10955E+01 -6.50271E+01 -7.39327E+01 -8.38253E+01
  -8.84722E+01 -8.71957E+01 -7.82630E+01 -6.23125E+01 -4.37603E+01 -2.58788E+01 -1.27245E+01 -5.29371E+00 -2.83096E+00 -3.64732E+00
  -7.18957E+00 -1.44861E+01 -2.14927E+01 -2.42091E+01 -2.93798E+01 -3.07767E+01 -3.29756E+01 -3.93076E+01 -4.90722E+01 -6.21900E+01
  -7.72447E+01 -9.23717E+01 -1.06187E+02 -1.16758E+02 -1.22879E+02 -1.24676E+02 -1.23279E+02 -1.20169E+02 -1.17203E+02 -1.14887E+02
  -1.11476E+02 -1.05785E+02 -1.00568E+02 -9.53929E+01 -9.00567E+01 -8.81903E+01 -8.63623E+01 -8.83742E+01 -9.65307E+01 -1.07177E+02
  -1.20042E+02 -1.32034E+02 -1.39133E+02 -1.42102E+02 -1.44649E+02 -1.32349E+02 -8.99477E+01 -2.24809E+01  3.93056E+01  6.78563E+01
   6.59764E+01  7.66171E+01  1.14458E+02  1.23501E+02  8.79237E+01  5.60862E+01  4.86012E+01  4.52873E+01  4.31563E+01  4.13316E+01
   3.99054E+01  3.92062E+01  3.93295E+01  4.00637E+01  4.11683E+01  4.24862E+01  4.36229E+01  4.44320E+01  4.47501E+01  4.42412E+01
   4.32248E+01  4.22835E+01  4.09259E+01  3.91448E+01  3.69476E+01  3.46440E+01  3.23256E+01  2.96002E+01  2.62346E+01  2.20881E+01
   1.75765E+01  1.28522E+01  8.18761E+00  4.26893E+00  1.67922E+00  6.36624E-01  1.12138E+00  2.67398E+00  5.24205E+00  8.92509E+00
   1.31100E+01  1.73267E+01  2.10830E+01  2.43318E+01  2.74008E+01  3.07745E+01  3.43337E+01  3.78455E+01  4.12796E+01  4.46336E+01
   4.79374E+01  5.13985E+01  5.49273E+01  5.80678E+01  6.05299E+01  6.25271E+01  6.50195E+01  6.82411E+01  7.13071E+01  7.31061E+01
   7.08275E+01  6.14896E+01  4.54908E+01  2.60960E+01  7.16348E+00 -9.11297E+00 -2.29935E+01 -3.56678E+01 -4.60029E+01 -5.17602E+01
  -5.39164E+01 -5.47144E+01 -5.15000E+01 -4.76389E+01 -4.70384E+01 -4.40103E+01 -3.98037E+01 -3.52493E+01 -3.07172E+01 -2.61832E+01
  -2.16190E+01 -1.72628E+01 -1.29901E+01 -8.96255E+00 -5.25168E+00 -1.80494E+00  1.28645E+00  3.52318E+00  4.21989E+00  3.15586E+00
   1.09896E-01 -4.51041E+00 -9.70788E+00 -1.52062E+01 -2.04214E+01 -2.47077E+01 -2.76450E+01 -2.90944E+01 -2.89093E+01 -2.67121E+01
  -2.29490E+01 -1.85302E+01 -1.39488E+01 -9.34497E+00 -5.10884E+00 -1.12322E+00  2.70540E+00  6.36491E+00  9.80724E+00  1.29995E+01
   1.61788E+01  1.97044E+01  2.35784E+01  2.80830E+01  3.30014E+01  3.83887E+01  4.46703E+01  5.19118E+01  6.00595E+01  6.91717E+01
   7.92558E+01  9.04402E+01  1.02420E+02  1.14039E+02  1.23271E+02  1.29089E+02  1.30604E+02  1.27299E+02  1.19740E+02  1.09670E+02
   9.85291E+01  8.71230E+01  7.61335E+01  6.60226E+01  5.69072E+01  4.84742E+01  3.97019E+01  3.03772E+01  2.07218E+01  1.13270E+01
   2.28244E+00 -5.78584E+00 -1.20886E+01 -1.66046E+01 -1.96442E+01 -2.14690E+01 -2.25578E+01 -2.36924E+01 -2.47339E+01 -2.54815E+01
  -2.58799E+01 -2.63839E+01 -2.68733E+01 -2.73199E+01 -2.74676E+01 -2.74905E+01 -2.75219E+01 -2.76570E+01 -2.77541E+01 -2.76722E+01
  -2.75599E+01 -2.77033E+01 -2.79642E+01 -2.79337E+01 -2.77604E+01 -2.78506E+01 -2.80325E+01 -2.77580E+01 -2.73105E+01 -2.72557E+01
  -2.74540E+01 -2.75960E+01 -2.75050E+01 -2.73806E+01 -2.73351E+01 -2.73237E+01 -2.71971E+01 -2.69790E+01 -2.66962E+01 -2.63715E+01
  -2.61392E+01 -2.60872E+01 -2.62950E+01 -2.64741E+01 -2.66258E+01 -2.65583E+01 -2.64356E+01 -2.64216E+01 -2.64928E+01 -2.65216E+01
  -2.64369E+01 -2.63124E+01 -2.61201E+01 -2.60513E+01 -2.59794E+01 -2.59295E+01 -2.58895E+01 -2.56620E+01 -2.54787E+01 -2.55726E+01
  -2.58179E+01 -2.61965E+01 -2.65582E+01 -2.68188E+01 -2.68841E+01 -2.68886E+01 -2.67797E+01 -2.67128E+01 -2.67414E+01 -2.71572E+01
  -2.76789E+01 -2.80952E+01 -2.84916E+01 -2.91048E+01 -2.98865E+01 -3.07237E+01 -3.14924E+01 -3.22999E+01 -3.30953E+01 -3.39338E+01
 NY background values follow
    -5.821E+01   -5.809E+01   -5.797E+01   -5.785E+01   -5.773E+01   -5.761E+01   -5.749E+01   -5.737E+01   -5.725E+01   -5.713E+01
    -5.701E+01   -5.689E+01   -5.677E+01   -5.665E+01   -5.653E+01   -5.641E+01   -5.629E+01   -5.617E+01   -5.605E+01   -5.593E+01
    -5.581E+01   -5.569E+01   -5.557E+01   -5.545E+01   -5.533E+01   -5.521E+01   -5.509E+01   -5.497E+01   -5.485E+01   -5.473E+01
    -5.461E+01   -5.449E+01   -5.437E+01   -5.425E+01   -5.413E+01   -5.401E+01   -5.389E+01   -5.377E+01   -5.365E+01   -5.353E+01
    -5.341E+01   -5.329E+01   -5.317E+01   -5.305E+01   -5.293E+01   -5.281E+01   -5.269E+01   -5.257E+01   -5.245E+01   -5.233E+01
    -5.221E+01   -5.209E+01   -5.197E+01   -5.185E+01   -5.173E+01   -5.161E+01   -5.149E+01   -5.137E+01   -5.125E+01   -5.113E+01
    -5.101E+01   -5.089E+01   -5.077E+01   -5.065E+01   -5.053E+01   -5.041E+01   -5.029E+01   -5.017E+01   -5.005E+01   -4.993E+01
    -4.981E+01   -4.969E+01   -4.957E+01   -4.945E+01   -4.933E+01   -4.921E+01   -4.909E+01   -4.897E+01   -4.885E+01   -4.873E+01
    -4.861E+01   -4.849E+01   -4.837E+01   -4.825E+01   -4.813E+01   -4.801E+01   -4.789E+01   -4.778E+01   -4.766E+01   -4.754E+01
    -4.742E+01   -4.730E+01   -4.718E+01   -4.706E+01   -4.694E+01   -4.682E+01   -4.670E+01   -4.658E+01   -4.646E+01   -4.634E+01
    -4.622E+01   -4.610E+01   -4.598E+01   -4.586E+01   -4.574E+01   -4.562E+01   -4.550E+01   -4.538E+01   -4.526E+01   -4.514E+01
    -4.502E+01   -4.490E+01   -4.478E+01   -4.466E+01   -4.454E+01   -4.442E+01   -4.430E+01   -4.418E+01   -4.406E+01   -4.394E+01
    -4.382E+01   -4.370E+01   -4.358E+01   -4.346E+01   -4.334E+01   -4.322E+01   -4.310E+01   -4.299E+01   -4.287E+01   -4.275E+01
    -4.263E+01   -4.251E+01   -4.239E+01   -4.227E+01   -4.215E+01   -4.203E+01   -4.191E+01   -4.179E+01   -4.167E+01   -4.155E+01
    -4.143E+01   -4.131E+01   -4.119E+01   -4.107E+01   -4.095E+01   -4.083E+01   -4.071E+01   -4.059E+01   -4.047E+01   -4.035E+01
    -4.023E+01   -4.011E+01   -4.000E+01   -3.988E+01   -3.976E+01   -3.964E+01   -3.952E+01   -3.940E+01   -3.928E+01   -3.916E+01
    -3.904E+01   -3.892E+01   -3.880E+01   -3.868E+01   -3.856E+01   -3.844E+01   -3.832E+01   -3.820E+01   -3.808E+01   -3.796E+01
    -3.784E+01   -3.772E+01   -3.760E+01   -3.749E+01   -3.737E+01   -3.725E+01   -3.713E+01   -3.701E+01   -3.689E+01   -3.677E+01
    -3.665E+01   -3.653E+01   -3.641E+01   -3.629E+01   -3.617E+01   -3.605E+01   -3.593E+01   -3.581E+01   -3.569E+01   -3.557E+01
    -3.545E+01   -3.533E+01   -3.522E+01   -3.510E+01   -3.498E+01   -3.486E+01   -3.474E+01   -3.462E+01   -3.450E+01   -3.438E+01
    -3.426E+01   -3.414E+01   -3.402E+01   -3.390E+01   -3.378E+01   -3.366E+01   -3.354E+01   -3.342E+01   -3.330E+01   -3.318E+01
    -3.306E+01   -3.295E+01   -3.283E+01   -3.271E+01   -3.259E+01   -3.247E+01   -3.235E+01   -3.223E+01   -3.211E+01   -3.199E+01
    -3.187E+01   -3.175E+01   -3.163E+01   -3.151E+01   -3.139E+01   -3.127E+01   -3.115E+01   -3.103E+01   -3.091E+01   -3.079E+01
    -3.067E+01   -3.055E+01   -3.043E+01   -3.031E+01   -3.019E+01   -3.008E+01   -2.996E+01   -2.984E+01   -2.972E+01   -2.960E+01
    -2.948E+01   -2.936E+01   -2.924E+01   -2.912E+01   -2.900E+01   -2.888E+01   -2.876E+01   -2.864E+01   -2.852E+01   -2.840E+01
    -2.828E+01   -2.816E+01   -2.804E+01   -2.792E+01   -2.780E+01   -2.768E+01   -2.756E+01   -2.744E+01   -2.732E+01   -2.720E+01
    -2.708E+01   -2.696E+01   -2.684E+01   -2.672E+01   -2.660E+01   -2.648E+01   -2.636E+01   -2.624E+01   -2.612E+01   -2.600E+01
    -2.588E+01   -2.576E+01   -2.564E+01   -2.552E+01   -2.540E+01   -2.528E+01   -2.516E+01   -2.504E+01   -2.492E+01   -2.480E+01
    -2.468E+01   -2.456E+01   -2.444E+01   -2.432E+01   -2.420E+01   -2.408E+01   -2.396E+01   -2.384E+01   -2.372E+01   -2.360E+01
    -2.348E+01   -2.336E+01   -2.324E+01   -2.312E+01   -2.300E+01   -2.288E+01   -2.276E+01   -2.264E+01   -2.252E+01   -2.240E+01
    -2.228E+01   -2.216E+01   -2.204E+01   -2.192E+01   -2.180E+01   -2.168E+01   -2.156E+01   -2.144E+01   -2.132E+01   -2.120E+01
    -2.108E+01   -2.096E+01   -2.084E+01   -2.072E+01   -2.060E+01   -2.048E+01   -2.036E+01   -2.024E+01   -2.012E+01   -2.000E+01
    -1.988E+01   -1.976E+01   -1.964E+01   -1.952E+01   -1.940E+01   -1.928E+01   -1.916E+01   -1.904E+01   -1.892E+01   -1.880E+01
    -1.868E+01   -1.856E+01   -1.844E+01   -1.832E+01   -1.820E+01   -1.808E+01   -1.796E+01   -1.784E+01   -1.772E+01   -1.760E+01
    -1.748E+01   -1.736E+01   -1.724E+01   -1.712E+01   -1.699E+01   -1.687E+01   -1.675E+01   -1.663E+01   -1.651E+01   -1.639E+01
    -1.627E+01   -1.615E+01   -1.603E+01   -1.591E+01   -1.579E+01   -1.567E+01   -1.555E+01   -1.543E+01   -1.531E+01   -1.519E+01
    -1.507E+01   -1.495E+01   -1.483E+01   -1.471E+01   -1.459E+01   -1.447E+01   -1.435E+01   -1.423E+01   -1.411E+01   -1.399E+01
    -1.387E+01   -1.375E+01   -1.363E+01   -1.351E+01   -1.339E+01   -1.327E+01   -1.315E+01   -1.303E+01   -1.291E+01   -1.279E+01
    -1.267E+01   -1.255E+01   -1.243E+01   -1.231E+01   -1.219E+01   -1.207E+01   -1.195E+01   -1.183E+01   -1.171E+01   -1.159E+01
    -1.147E+01   -1.135E+01   -1.123E+01   -1.111E+01   -1.099E+01   -1.087E+01   -1.075E+01   -1.063E+01   -1.051E+01   -1.039E+01
    -1.027E+01   -1.015E+01   -1.003E+01   -9.908E+00   -9.788E+00   -9.668E+00   -9.548E+00   -9.428E+00   -9.308E+00   -9.188E+00
    -9.068E+00   -8.948E+00   -8.828E+00   -8.708E+00   -8.588E+00   -8.468E+00   -8.347E+00   -8.227E+00   -8.107E+00   -7.987E+00
    -7.867E+00   -7.747E+00   -7.627E+00   -7.507E+00   -7.387E+00   -7.266E+00   -7.146E+00   -7.026E+00   -6.906E+00   -6.786E+00
    -6.666E+00   -6.546E+00   -6.426E+00   -6.306E+00   -6.185E+00   -6.065E+00   -5.945E+00   -5.825E+00   -5.705E+00   -5.585E+00
    -5.465E+00   -5.344E+00   -5.224E+00   -5.104E+00   -4.984E+00   -4.864E+00   -4.744E+00   -4.624E+00   -4.503E+00   -4.383E+00
    -4.263E+00   -4.143E+00   -4.023E+00   -3.903E+00   -3.782E+00   -3.662E+00   -3.542E+00   -3.422E+00   -3.302E+00   -3.182E+00
    -3.061E+00   -2.941E+00   -2.821E+00   -2.701E+00   -2.581E+00   -2.460E+00   -2.340E+00   -2.220E+00   -2.100E+00   -1.980E+00
    -1.860E+00   -1.739E+00   -1.619E+00   -1.499E+00   -1.379E+00   -1.259E+00   -1.138E+00   -1.018E+00   -8.981E-01   -7.779E-01
 Mac      Conc. = 3.28E-04
  -7.86357E+01 -7.86910E+01 -7.90265E+01 -7.99349E+01 -8.12308E+01 -8.27905E+01 -8.46171E+01 -8.66028E+01 -8.82341E+01 -8.94333E+01
  -9.04249E+01 -9.17457E+01 -9.34935E+01 -9.55634E+01 -9.73932E+01 -9.79382E+01 -9.65976E+01 -9.37934E+01 -9.04176E+01 -8.69252E+01
  -8.28686E+01 -7.81399E+01 -7.36157E+01 -7.06745E+01 -6.92717E+01 -6.77157E+01 -6.55693E+01 -6.38993E+01 -6.23220E+01 -6.03799E+01
  -5.85449E+01 -5.72763E+01 -5.67361E+01 -5.65517E+01 -5.63483E+01 -5.53345E+01 -5.33956E+01 -5.14684E+01 -5.03585E+01 -4.96869E+01
  -4.85054E+01 -4.65042E+01 -4.42358E+01 -4.27817E+01 -4.23803E+01 -4.23144E+01 -4.20331E+01 -4.19013E+01 -4.24399E+01 -4.36139E+01
  -4.52613E+01 -4.69325E+01 -4.81980E+01 -4.91382E+01 -4.94436E+01 -4.89154E+01 -4.76870E+01 -4.61769E+01 -4.43667E+01 -4.23241E+01
  -4.05133E+01 -3.91550E+01 -3.86232E+01 -3.89830E+01 -3.96671E+01 -4.03521E+01 -4.13785E+01 -4.25557E+01 -4.27515E+01 -4.14523E+01
  -3.90381E+01 -3.61745E+01 -3.38225E+01 -3.20167E+01 -3.03909E+01 -2.90629E+01 -2.87429E+01 -2.95624E+01 -3.07271E+01 -3.16794E+01
  -3.24369E+01 -3.27342E+01 -3.23373E+01 -3.15074E+01 -3.02513E+01 -2.90164E+01 -2.77338E+01 -2.62501E+01 -2.47508E+01 -2.34676E+01
  -2.23987E+01 -2.14260E+01 -2.08970E+01 -2.11654E+01 -2.22656E+01 -2.39263E+01 -2.60559E+01 -2.82193E+01 -3.02905E+01 -3.24779E+01
  -3.48524E+01 -3.75791E+01 -4.11435E+01 -4.61163E+01 -5.26018E+01 -6.02404E+01 -6.76868E+01 -7.34625E+01 -7.70215E+01 -7.88423E+01
