 LCModel (Version 6.3-1N) Copyright: S.W. Provencher.          Ref.: Magn. Reson. Med. 30:672-679 (1993).                
 Slice_N1@18_24  28-Feb-2025 11:43:00
 27 lines in following concentration table = NCONC+1
    Conc.  %SD /Cr+PCr  Metabolite                                         
 3.14E-04   4% 3.0E-04 Mac                                                 
    4.878  66%   4.697 Cr                                                  
    3.430  95%   3.303 PCr                                                 
    5.007  25%   4.822 Ins                                                 
   10.963  12%  10.556 NAA                                                 
    6.139  23%   5.912 Tau                                                 
    2.330  21%   2.243 PCho                                                
    0.000 999%   0.000 GPC                                                 
   11.616  12%  11.185 Glu                                                 
    5.544  21%   5.339 Gln                                                 
    0.000 999%   0.000 Ala                                                 
    0.682 271%   0.657 Asc                                                 
    2.842  44%   2.736 Asp                                                 
    1.200  58%   1.155 GABA                                                
    0.524 157%   0.505 Glc                                                 
    2.482  31%   2.390 GSH                                                 
    0.000 999%   0.000 Lac                                                 
    4.308  24%   4.149 NAAG                                                
    0.235 758%   0.227 PE                                                  
    2.330  21%   2.243 GPC+PCho                                            
   15.271   7%  14.705 NAA+NAAG                                            
   17.160  11%  16.524 Glu+Gln                                             
    8.308  12%   8.000 Cr+PCr                                              
   15.271   7%  14.705 NAA+NAAG                                            
    8.308  12%   8.000 Cr+PCr                                              
   17.160  11%  16.524 Glu+Gln                                             
   6 lines in following misc. output table
  FWHM = 0.041 ppm    S/N =   3                                            
  Data shift = 0.000 ppm                                                   
  Ph: -32 deg       0.0 deg/ppm                                            
  alphaB,S = 3.1E-01,   2.2E+01                                            
   19 spline knots.   Ns = 8(1)                                            
  ( 9) 5 infls.   ( 9) 3 extrs.                                            
  480 points on ppm-axis = NY
      4.100000     4.091866     4.083733     4.075600     4.067466     4.059333     4.051199     4.043066     4.034933     4.026799
      4.018666     4.010532     4.002399     3.994265     3.986132     3.977998     3.969864     3.961731     3.953597     3.945463
      3.937330     3.929196     3.921062     3.912929     3.904795     3.896662     3.888528     3.880394     3.872261     3.864127
      3.855993     3.847860     3.839726     3.831592     3.823459     3.815325     3.807191     3.799058     3.790924     3.782790
      3.774657     3.766523     3.758389     3.750256     3.742122     3.733989     3.725855     3.717721     3.709588     3.701454
      3.693320     3.685187     3.677053     3.668919     3.660786     3.652652     3.644518     3.636385     3.628251     3.620117
      3.611984     3.603850     3.595716     3.587583     3.579449     3.571316     3.563182     3.555048     3.546915     3.538781
      3.530647     3.522514     3.514380     3.506246     3.498113     3.489979     3.481845     3.473712     3.465578     3.457444
      3.449311     3.441177     3.433043     3.424910     3.416776     3.408643     3.400509     3.392375     3.384242     3.376108
      3.367974     3.359841     3.351707     3.343573     3.335440     3.327306     3.319172     3.311039     3.302905     3.294771
      3.286638     3.278504     3.270370     3.262237     3.254103     3.245970     3.237836     3.229702     3.221569     3.213435
      3.205301     3.197168     3.189034     3.180900     3.172767     3.164633     3.156499     3.148366     3.140232     3.132098
      3.123965     3.115831     3.107697     3.099564     3.091430     3.083297     3.075163     3.067029     3.058896     3.050762
      3.042628     3.034495     3.026361     3.018227     3.010094     3.001960     2.993826     2.985693     2.977559     2.969425
      2.961292     2.953158     2.945024     2.936891     2.928757     2.920624     2.912490     2.904356     2.896223     2.888089
      2.879955     2.871822     2.863688     2.855554     2.847421     2.839287     2.831153     2.823020     2.814886     2.806752
      2.798619     2.790485     2.782351     2.774218     2.766084     2.757951     2.749817     2.741683     2.733550     2.725416
      2.717282     2.709149     2.701015     2.692881     2.684748     2.676614     2.668480     2.660347     2.652213     2.644079
      2.635946     2.627812     2.619678     2.611545     2.603411     2.595278     2.587144     2.579010     2.570877     2.562743
      2.554609     2.546476     2.538342     2.530208     2.522075     2.513941     2.505807     2.497674     2.489540     2.481406
      2.473273     2.465139     2.457006     2.448872     2.440738     2.432605     2.424471     2.416337     2.408204     2.400070
      2.391936     2.383803     2.375669     2.367535     2.359402     2.351268     2.343134     2.335001     2.326867     2.318733
      2.310600     2.302466     2.294333     2.286199     2.278065     2.269932     2.261798     2.253664     2.245531     2.237397
      2.229263     2.221130     2.212996     2.204862     2.196729     2.188595     2.180461     2.172328     2.164194     2.156060
      2.147927     2.139793     2.131660     2.123526     2.115392     2.107259     2.099125     2.090991     2.082858     2.074724
      2.066590     2.058457     2.050323     2.042189     2.034056     2.025922     2.017788     2.009655     2.001521     1.993387
      1.985254     1.977120     1.968987     1.960853     1.952719     1.944586     1.936452     1.928318     1.920185     1.912051
      1.903917     1.895784     1.887650     1.879516     1.871383     1.863249     1.855115     1.846982     1.838848     1.830714
      1.822581     1.814447     1.806314     1.798180     1.790046     1.781913     1.773779     1.765645     1.757512     1.749378
      1.741244     1.733111     1.724977     1.716843     1.708710     1.700576     1.692442     1.684309     1.676175     1.668041
      1.659908     1.651774     1.643641     1.635507     1.627373     1.619240     1.611106     1.602972     1.594839     1.586705
      1.578571     1.570438     1.562304     1.554170     1.546037     1.537903     1.529769     1.521636     1.513502     1.505368
      1.497235     1.489101     1.480968     1.472834     1.464700     1.456567     1.448433     1.440299     1.432166     1.424032
      1.415898     1.407765     1.399631     1.391497     1.383364     1.375230     1.367096     1.358963     1.350829     1.342695
      1.334562     1.326428     1.318295     1.310161     1.302027     1.293894     1.285760     1.277626     1.269493     1.261359
      1.253225     1.245092     1.236958     1.228824     1.220691     1.212557     1.204423     1.196290     1.188156     1.180022
      1.171889     1.163755     1.155622     1.147488     1.139354     1.131221     1.123087     1.114953     1.106820     1.098686
      1.090552     1.082419     1.074285     1.066151     1.058018     1.049884     1.041750     1.033617     1.025483     1.017349
      1.009216     1.001082     0.992949     0.984815     0.976681     0.968548     0.960414     0.952280     0.944147     0.936013
      0.927879     0.919746     0.911612     0.903478     0.895345     0.887211     0.879077     0.870944     0.862810     0.854676
      0.846543     0.838409     0.830276     0.822142     0.814008     0.805875     0.797741     0.789607     0.781474     0.773340
      0.765206     0.757073     0.748939     0.740805     0.732672     0.724538     0.716404     0.708271     0.700137     0.692003
      0.683870     0.675736     0.667603     0.659469     0.651335     0.643202     0.635068     0.626934     0.618801     0.610667
      0.602533     0.594400     0.586266     0.578132     0.569999     0.561865     0.553731     0.545598     0.537464     0.529330
      0.521197     0.513063     0.504930     0.496796     0.488662     0.480529     0.472395     0.464261     0.456128     0.447994
      0.439861     0.431727     0.423593     0.415460     0.407326     0.399192     0.391059     0.382925     0.374792     0.366658
      0.358524     0.350391     0.342257     0.334124     0.325990     0.317856     0.309723     0.301589     0.293455     0.285322
      0.277188     0.269055     0.260921     0.252787     0.244654     0.236520     0.228386     0.220253     0.212119     0.203986
 NY phased data points follow
  -1.42216E+02 -1.46954E+02 -1.35538E+02 -1.60363E+02 -1.53678E+02 -1.43097E+02 -1.63909E+02 -1.24529E+02 -1.39671E+02 -1.49293E+02
  -1.49424E+02 -1.47224E+02 -1.54073E+02 -1.65169E+02 -1.49202E+02 -1.74934E+02 -1.64750E+02 -1.67455E+02 -1.52792E+02 -1.63986E+02
  -1.78784E+02 -1.65193E+02 -1.63577E+02 -1.33402E+02 -1.34943E+02 -1.01037E+02 -1.04933E+02 -1.18714E+02 -1.14305E+02 -1.08463E+02
  -8.62013E+01 -1.18008E+02 -1.17387E+02 -1.12877E+02 -1.32278E+02 -1.24117E+02 -1.20899E+02 -1.33480E+02 -1.27547E+02 -1.57409E+02
  -1.62497E+02 -1.37286E+02 -1.40750E+02 -1.27381E+02 -1.14470E+02 -9.17204E+01 -9.40515E+01 -6.38677E+01 -5.82081E+01 -7.48727E+01
  -5.87589E+01 -7.05883E+01 -5.84962E+01 -6.92148E+01 -8.66363E+01 -9.62243E+01 -9.51824E+01 -8.32756E+01 -8.35826E+01 -8.54442E+01
  -9.03970E+01 -9.24200E+01 -6.60945E+01 -6.00387E+01 -9.17607E+01 -4.71756E+01 -5.20236E+01 -8.58635E+01 -7.96354E+01 -8.79860E+01
  -8.24921E+01 -9.20078E+01 -6.34642E+01 -4.89563E+01 -7.62280E+01 -6.11622E+01 -3.47860E+01 -5.56038E+01 -5.34201E+01 -5.47990E+01
  -6.97372E+01 -4.15449E+01 -6.42597E+01 -6.96145E+01 -5.35360E+01 -7.21204E+01 -7.61410E+01 -5.85320E+01 -3.75152E+01 -3.09035E+01
  -2.90032E+01 -4.11151E+01 -3.14011E+01 -1.61994E+01 -3.70478E+01 -2.47498E+01 -8.01050E+00 -1.84127E+01 -8.49584E+00 -3.46817E+01
  -3.33993E+01 -2.61230E+01 -5.35091E+01 -6.35936E+01 -9.15657E+01 -8.23858E+01 -1.02802E+02 -1.09832E+02 -1.07725E+02 -1.39881E+02
  -1.32512E+02 -1.70204E+02 -1.92106E+02 -1.47379E+02 -1.19931E+02 -1.41790E+02 -1.31354E+02 -1.11951E+02 -9.83840E+01 -7.76575E+01
  -9.52841E+01 -7.88409E+01 -5.65600E+01 -4.22800E+01 -4.67270E+01 -4.23184E+01 -1.45868E+01 -1.02720E+01 -1.01330E+01 -9.67550E+00
  -1.50800E+01 -5.10624E+01 -4.61486E+01 -6.48422E+01 -1.34487E+02 -1.48136E+02 -1.40144E+02 -1.28228E+02 -1.43885E+02 -1.57168E+02
  -1.37355E+02 -1.47470E+02 -1.48555E+02 -1.27581E+02 -1.28648E+02 -1.26528E+02 -1.31301E+02 -1.26351E+02 -1.22831E+02 -1.31281E+02
  -1.05541E+02 -1.09951E+02 -1.25904E+02 -1.10690E+02 -1.07655E+02 -1.03077E+02 -8.88903E+01 -8.49879E+01 -8.64764E+01 -9.07291E+01
  -9.29293E+01 -8.77908E+01 -9.98067E+01 -1.00174E+02 -8.19338E+01 -8.43614E+01 -7.84618E+01 -6.74754E+01 -7.33137E+01 -7.42885E+01
  -7.55715E+01 -6.61849E+01 -4.75380E+01 -3.90936E+01 -4.76758E+01 -6.88380E+01 -6.59545E+01 -6.15768E+01 -7.13636E+01 -7.39424E+01
  -9.70192E+01 -1.18359E+02 -9.47748E+01 -1.13617E+02 -1.38730E+02 -1.16071E+02 -1.33042E+02 -1.18992E+02 -9.50692E+01 -1.10704E+02
  -1.11013E+02 -9.60384E+01 -8.27695E+01 -8.02411E+01 -7.14695E+01 -6.50559E+01 -4.81243E+01 -6.42852E+01 -7.54677E+01 -5.46734E+01
  -6.27228E+01 -5.80480E+01 -5.78776E+01 -6.99340E+01 -6.80521E+01 -7.10257E+01 -8.58612E+01 -7.52892E+01 -8.17185E+01 -1.00070E+02
  -9.69428E+01 -9.89953E+01 -7.72759E+01 -8.00764E+01 -5.75196E+01 -3.82593E+01 -5.68573E+01 -3.38862E+01 -4.41659E+01 -4.74678E+01
  -3.58007E+01 -5.02572E+01 -5.12527E+01 -6.05557E+01 -7.19995E+01 -6.93474E+01 -5.17126E+01 -4.49767E+01 -5.92170E+01 -6.69236E+01
  -8.33785E+01 -8.67672E+01 -8.17663E+01 -1.08873E+02 -1.09670E+02 -1.05063E+02 -1.22443E+02 -1.20554E+02 -1.37208E+02 -1.40273E+02
  -1.19790E+02 -1.30266E+02 -1.23983E+02 -1.09404E+02 -1.18262E+02 -1.11642E+02 -8.95632E+01 -8.24528E+01 -1.08401E+02 -1.08829E+02
  -8.84218E+01 -1.16473E+02 -1.23206E+02 -9.99454E+01 -8.32017E+01 -6.54612E+01 -5.57755E+01 -1.80894E+01  1.09090E+01  6.97236E+01
   1.20815E+02  6.02068E+01  6.15565E+01  8.45903E+01  5.10224E+01  5.24998E+01  5.51906E+01  4.95992E+01  2.65616E+01  2.05429E+01
   3.36306E+01  3.20950E+01  2.74064E+01  3.10078E+01  3.21738E+01  2.02398E+01  2.89668E+01  2.92779E+01  2.36804E+01  2.91057E+01
   3.91077E+01  3.06265E+01  1.27825E+01  1.74797E+01  1.37240E+01  1.27094E+01  6.55561E+00  1.93870E+01  1.83809E+01 -1.52654E+01
   5.93581E+00  1.13142E+01  5.60480E-01  2.13940E+01  9.74804E+00  1.38667E+01  2.22161E+01 -3.51725E+00  1.37744E+01  3.65892E+01
   2.15954E+01 -5.44497E+00  7.38322E+00  4.30568E+01  2.49477E+01  1.46031E+01  1.56959E+01  1.06257E+01  4.57835E+00 -5.21738E+01
  -6.68804E+01 -4.36394E+01 -6.24869E+01 -4.95732E+01 -4.04999E+01 -4.09093E+01 -2.90413E+01 -3.05736E+01 -2.75409E+01 -5.29576E+01
  -3.83263E+01 -1.04087E+01 -2.29122E+01 -1.75351E+01 -2.21056E+01 -2.88219E+01 -1.54818E+01 -1.70659E+01 -3.61824E+01 -2.25212E+01
  -1.88380E+01 -3.99490E+01 -4.10111E+01 -4.01309E+01 -5.22990E+01 -6.04660E+01 -5.74609E+01 -6.25999E+01 -5.77416E+01 -6.21793E+01
  -4.99450E+01 -2.96729E+01 -3.52372E+01 -3.01882E+01 -1.89043E+01 -4.78393E+00 -2.46474E+01 -3.23246E+01 -2.57178E+01 -2.60824E+01
   6.02859E-01 -1.28094E+01 -1.53588E+01 -5.15313E+00 -2.36774E+01 -1.65193E+01 -4.82166E+01 -5.55450E+01 -2.97282E+01 -6.48397E+01
  -6.05816E+01 -3.70032E+01 -3.61915E+01 -3.91721E+01 -3.91531E+01 -3.41529E+01 -2.34387E+01  7.87211E+00  1.15372E+01 -2.44923E+00
   5.33358E-01  1.77426E+01  9.21955E+00  1.28707E+01  1.90708E+01  1.65660E+01  3.01220E+01  3.40295E+01  5.36200E+01  4.24576E+01
   4.68287E+01  5.66853E+01  7.28042E+01  8.19246E+01  7.50759E+01  9.50030E+01  7.49547E+01  8.82296E+01  8.37435E+01  8.70292E+01
   9.99569E+01  8.51730E+01  7.94739E+01  5.55752E+01  6.18469E+01  3.29440E+01  1.45365E+01  1.03493E+01  8.21896E+00  8.25794E+00
  -3.90673E+00 -9.26241E+00 -3.12573E+01 -3.48767E+01 -5.77404E+01 -4.92458E+01 -4.57345E+01 -5.22248E+01 -4.30162E+01 -4.39268E+01
  -5.53885E+01 -8.56152E+01 -5.36768E+01 -6.20702E+01 -7.70481E+01 -5.82631E+01 -6.28105E+01 -4.22246E+01 -5.28647E+01 -5.72786E+01
  -5.13548E+01 -6.53118E+01 -5.23836E+01 -6.81957E+01 -7.54357E+01 -5.78796E+01 -7.42860E+01 -5.08998E+01 -4.99659E+01 -6.58249E+01
  -5.46496E+01 -6.36680E+01 -6.33389E+01 -7.38208E+01 -4.97720E+01 -3.81275E+01 -6.47544E+01 -5.30455E+01 -5.16909E+01 -6.60860E+01
  -5.85064E+01 -5.83416E+01 -5.45105E+01 -5.06922E+01 -6.98178E+01 -6.70861E+01 -6.24506E+01 -4.75255E+01 -5.16542E+01 -5.96487E+01
  -4.62670E+01 -6.22813E+01 -6.29861E+01 -5.46439E+01 -4.55174E+01 -5.36182E+01 -4.78546E+01 -4.28517E+01 -5.87233E+01 -4.41314E+01
  -4.71657E+01 -4.29558E+01 -4.41748E+01 -7.19858E+01 -6.71369E+01 -6.14137E+01 -6.85685E+01 -4.79206E+01 -3.93521E+01 -4.45880E+01
  -5.50428E+01 -5.95124E+01 -3.68946E+01 -4.10674E+01 -4.71957E+01 -4.33027E+01 -4.24226E+01 -4.55633E+01 -3.90927E+01 -4.74795E+01
 NY points of the fit to the data follow
  -1.44319E+02 -1.46073E+02 -1.47999E+02 -1.49585E+02 -1.50015E+02 -1.48831E+02 -1.46256E+02 -1.43322E+02 -1.42330E+02 -1.44307E+02
  -1.47637E+02 -1.50355E+02 -1.52840E+02 -1.55268E+02 -1.58236E+02 -1.61302E+02 -1.63600E+02 -1.65741E+02 -1.67820E+02 -1.69238E+02
  -1.69084E+02 -1.65897E+02 -1.56896E+02 -1.41932E+02 -1.25160E+02 -1.10946E+02 -1.02279E+02 -9.90396E+01 -9.70938E+01 -9.36938E+01
  -9.12124E+01 -9.15594E+01 -9.47379E+01 -9.88129E+01 -1.02582E+02 -1.07477E+02 -1.13517E+02 -1.20355E+02 -1.28143E+02 -1.37024E+02
  -1.44542E+02 -1.46922E+02 -1.41006E+02 -1.26998E+02 -1.10761E+02 -9.77416E+01 -8.81956E+01 -8.09682E+01 -7.66511E+01 -7.42942E+01
  -7.33310E+01 -7.44337E+01 -7.61119E+01 -7.88331E+01 -8.36056E+01 -8.86797E+01 -9.22037E+01 -9.36850E+01 -9.29654E+01 -9.03773E+01
  -8.78838E+01 -8.55511E+01 -8.13819E+01 -7.69367E+01 -7.40498E+01 -7.10564E+01 -6.88721E+01 -6.99552E+01 -7.33431E+01 -7.71839E+01
  -7.96921E+01 -7.87546E+01 -7.38474E+01 -6.81791E+01 -6.41450E+01 -6.09468E+01 -5.65798E+01 -5.37813E+01 -5.35008E+01 -5.46188E+01
  -5.72836E+01 -6.18856E+01 -6.82080E+01 -7.41051E+01 -7.77283E+01 -7.76226E+01 -7.32873E+01 -6.64609E+01 -5.92805E+01 -5.29286E+01
  -4.76981E+01 -4.34668E+01 -3.88487E+01 -3.42870E+01 -3.06785E+01 -2.84395E+01 -2.62836E+01 -2.55519E+01 -2.53798E+01 -2.56656E+01
  -2.65288E+01 -3.08939E+01 -4.08806E+01 -5.16334E+01 -6.32682E+01 -7.58042E+01 -8.78875E+01 -9.85684E+01 -1.09435E+02 -1.24537E+02
  -1.44607E+02 -1.62913E+02 -1.65530E+02 -1.50116E+02 -1.32596E+02 -1.24456E+02 -1.19052E+02 -1.10798E+02 -1.00984E+02 -9.06400E+01
  -8.12507E+01 -7.19456E+01 -6.15029E+01 -4.91157E+01 -4.12475E+01 -3.56287E+01 -2.76161E+01 -2.00227E+01 -1.65888E+01 -1.63259E+01
  -1.88376E+01 -2.89491E+01 -5.04083E+01 -8.42408E+01 -1.19009E+02 -1.33977E+02 -1.30136E+02 -1.27701E+02 -1.32591E+02 -1.36733E+02
  -1.38355E+02 -1.37973E+02 -1.37249E+02 -1.36833E+02 -1.36031E+02 -1.34414E+02 -1.32329E+02 -1.29905E+02 -1.27151E+02 -1.24405E+02
  -1.22023E+02 -1.19684E+02 -1.17091E+02 -1.14220E+02 -1.11349E+02 -1.08800E+02 -1.06509E+02 -1.04545E+02 -1.02979E+02 -1.01741E+02
  -1.00268E+02 -9.83243E+01 -9.64282E+01 -9.50002E+01 -9.40512E+01 -9.30927E+01 -9.12842E+01 -8.84181E+01 -8.53975E+01 -8.23160E+01
  -7.80829E+01 -7.25009E+01 -6.69945E+01 -6.46669E+01 -6.68742E+01 -7.08640E+01 -7.22054E+01 -7.11044E+01 -7.22920E+01 -7.84158E+01
  -8.71420E+01 -9.41951E+01 -9.76515E+01 -9.92046E+01 -1.01086E+02 -1.02327E+02 -1.01661E+02 -1.00674E+02 -9.95001E+01 -9.69538E+01
  -9.32371E+01 -8.91348E+01 -8.51943E+01 -8.11484E+01 -7.66331E+01 -7.17238E+01 -6.84137E+01 -6.79739E+01 -6.70655E+01 -6.46097E+01
  -6.35196E+01 -6.42488E+01 -6.48424E+01 -6.45874E+01 -6.50006E+01 -6.76027E+01 -7.25302E+01 -7.72648E+01 -8.05828E+01 -8.44911E+01
  -8.69922E+01 -8.70199E+01 -8.42603E+01 -7.82306E+01 -6.80073E+01 -5.50302E+01 -4.28877E+01 -3.28551E+01 -2.73672E+01 -2.73016E+01
  -2.96325E+01 -3.28994E+01 -3.65810E+01 -3.91623E+01 -4.20198E+01 -4.73406E+01 -5.50784E+01 -6.48272E+01 -7.51126E+01 -8.62476E+01
  -9.74965E+01 -1.07882E+02 -1.17457E+02 -1.25714E+02 -1.30994E+02 -1.34088E+02 -1.34940E+02 -1.33386E+02 -1.30242E+02 -1.26540E+02
  -1.22091E+02 -1.17096E+02 -1.12313E+02 -1.07445E+02 -1.03395E+02 -1.00397E+02 -9.77705E+01 -9.97679E+01 -1.07850E+02 -1.10434E+02
  -1.09435E+02 -1.11219E+02 -1.11595E+02 -1.04643E+02 -9.03458E+01 -7.25896E+01 -5.39469E+01 -3.17751E+01  5.27908E+00  4.96412E+01
   7.07827E+01  6.39946E+01  5.53363E+01  5.54140E+01  5.62050E+01  5.44140E+01  4.92332E+01  4.33273E+01  3.81706E+01  3.41527E+01
   3.12895E+01  2.95880E+01  2.87437E+01  2.84071E+01  2.84728E+01  2.85969E+01  2.85119E+01  2.82761E+01  2.77643E+01  2.67303E+01
   2.52725E+01  2.34008E+01  2.12476E+01  1.89331E+01  1.63439E+01  1.34881E+01  1.04513E+01  7.31684E+00  4.02886E+00  5.88461E-01
  -2.87567E+00 -6.17323E+00 -9.01930E+00 -1.12524E+01 -1.27141E+01 -1.31474E+01 -1.25632E+01 -1.12792E+01 -9.58201E+00 -7.58972E+00
  -5.36379E+00 -2.93440E+00 -3.65925E-01  2.16507E+00  4.59954E+00  6.98801E+00  9.34591E+00  1.16714E+01  1.40116E+01  1.61784E+01
   1.79666E+01  1.94027E+01  2.05982E+01  2.14430E+01  2.18712E+01  2.17663E+01  2.10047E+01  1.95924E+01  1.75179E+01  1.47376E+01
   1.13833E+01  7.51651E+00  2.93668E+00 -2.38858E+00 -8.28140E+00 -1.47782E+01 -2.19535E+01 -2.95657E+01 -3.70720E+01 -4.37382E+01
  -4.90620E+01 -5.29305E+01 -5.52031E+01 -5.57370E+01 -5.46909E+01 -5.24913E+01 -4.96958E+01 -4.68544E+01 -4.42058E+01 -4.15592E+01
  -3.86741E+01 -3.55340E+01 -3.22218E+01 -2.90604E+01 -2.65076E+01 -2.47597E+01 -2.38778E+01 -2.37668E+01 -2.42874E+01 -2.53674E+01
  -2.71123E+01 -2.95553E+01 -3.23992E+01 -3.52544E+01 -3.77341E+01 -3.94362E+01 -4.00602E+01 -3.96443E+01 -3.84001E+01 -3.64455E+01
  -3.38635E+01 -3.08135E+01 -2.74818E+01 -2.39868E+01 -2.04660E+01 -1.69801E+01 -1.34709E+01 -9.91401E+00 -6.32536E+00 -2.63820E+00
   1.25352E+00  5.28646E+00  9.53957E+00  1.42162E+01  1.93750E+01  2.49745E+01  3.10798E+01  3.75847E+01  4.43367E+01  5.12366E+01
   5.80308E+01  6.44054E+01  7.02373E+01  7.51645E+01  7.83998E+01  7.93996E+01  7.78845E+01  7.37009E+01  6.70465E+01  5.87921E+01
   4.99762E+01  4.13133E+01  3.31208E+01  2.51537E+01  1.70949E+01  8.82695E+00  3.24527E-01 -8.32326E+00 -1.67008E+01 -2.43118E+01
  -3.09943E+01 -3.66452E+01 -4.12018E+01 -4.48689E+01 -4.78655E+01 -5.02181E+01 -5.19717E+01 -5.33440E+01 -5.44975E+01 -5.54714E+01
  -5.61765E+01 -5.65550E+01 -5.67603E+01 -5.68995E+01 -5.70076E+01 -5.70311E+01 -5.69888E+01 -5.69585E+01 -5.69644E+01 -5.68967E+01
  -5.66276E+01 -5.63743E+01 -5.63009E+01 -5.62678E+01 -5.60960E+01 -5.58898E+01 -5.57311E+01 -5.55592E+01 -5.53391E+01 -5.50452E+01
  -5.48398E+01 -5.47809E+01 -5.47487E+01 -5.46049E+01 -5.43827E+01 -5.41243E+01 -5.38385E+01 -5.35754E+01 -5.33264E+01 -5.31006E+01
  -5.29073E+01 -5.27435E+01 -5.26286E+01 -5.25713E+01 -5.25328E+01 -5.24427E+01 -5.22699E+01 -5.20020E+01 -5.17824E+01 -5.16444E+01
  -5.15164E+01 -5.13462E+01 -5.11672E+01 -5.08983E+01 -5.05816E+01 -5.03460E+01 -5.01708E+01 -4.99994E+01 -4.98178E+01 -4.96428E+01
  -4.94896E+01 -4.94095E+01 -4.93574E+01 -4.92595E+01 -4.90865E+01 -4.88141E+01 -4.85196E+01 -4.82361E+01 -4.79921E+01 -4.78911E+01
  -4.79735E+01 -4.80545E+01 -4.80198E+01 -4.79122E+01 -4.77462E+01 -4.76128E+01 -4.75256E+01 -4.73982E+01 -4.71769E+01 -4.68962E+01
 NY background values follow
    -1.221E+02   -1.216E+02   -1.211E+02   -1.206E+02   -1.201E+02   -1.196E+02   -1.191E+02   -1.186E+02   -1.181E+02   -1.176E+02
    -1.171E+02   -1.165E+02   -1.160E+02   -1.155E+02   -1.150E+02   -1.145E+02   -1.140E+02   -1.135E+02   -1.130E+02   -1.125E+02
    -1.120E+02   -1.115E+02   -1.110E+02   -1.104E+02   -1.099E+02   -1.094E+02   -1.089E+02   -1.084E+02   -1.079E+02   -1.074E+02
    -1.069E+02   -1.064E+02   -1.059E+02   -1.054E+02   -1.048E+02   -1.043E+02   -1.038E+02   -1.033E+02   -1.028E+02   -1.023E+02
    -1.018E+02   -1.013E+02   -1.008E+02   -1.003E+02   -9.979E+01   -9.929E+01   -9.878E+01   -9.828E+01   -9.778E+01   -9.729E+01
    -9.679E+01   -9.629E+01   -9.580E+01   -9.531E+01   -9.482E+01   -9.433E+01   -9.384E+01   -9.335E+01   -9.287E+01   -9.238E+01
    -9.190E+01   -9.142E+01   -9.095E+01   -9.047E+01   -9.000E+01   -8.953E+01   -8.906E+01   -8.859E+01   -8.813E+01   -8.767E+01
    -8.720E+01   -8.675E+01   -8.629E+01   -8.584E+01   -8.539E+01   -8.494E+01   -8.449E+01   -8.405E+01   -8.361E+01   -8.317E+01
    -8.273E+01   -8.230E+01   -8.187E+01   -8.144E+01   -8.101E+01   -8.059E+01   -8.017E+01   -7.975E+01   -7.934E+01   -7.892E+01
    -7.851E+01   -7.811E+01   -7.770E+01   -7.730E+01   -7.691E+01   -7.651E+01   -7.612E+01   -7.573E+01   -7.534E+01   -7.496E+01
    -7.457E+01   -7.419E+01   -7.382E+01   -7.344E+01   -7.307E+01   -7.270E+01   -7.234E+01   -7.198E+01   -7.162E+01   -7.126E+01
    -7.090E+01   -7.055E+01   -7.020E+01   -6.985E+01   -6.950E+01   -6.916E+01   -6.882E+01   -6.848E+01   -6.815E+01   -6.781E+01
    -6.748E+01   -6.716E+01   -6.683E+01   -6.651E+01   -6.619E+01   -6.587E+01   -6.555E+01   -6.524E+01   -6.493E+01   -6.462E+01
    -6.431E+01   -6.401E+01   -6.371E+01   -6.342E+01   -6.312E+01   -6.283E+01   -6.254E+01   -6.226E+01   -6.198E+01   -6.170E+01
    -6.142E+01   -6.115E+01   -6.088E+01   -6.061E+01   -6.035E+01   -6.009E+01   -5.983E+01   -5.958E+01   -5.933E+01   -5.908E+01
    -5.884E+01   -5.860E+01   -5.836E+01   -5.813E+01   -5.790E+01   -5.767E+01   -5.745E+01   -5.723E+01   -5.701E+01   -5.680E+01
    -5.659E+01   -5.638E+01   -5.618E+01   -5.598E+01   -5.578E+01   -5.559E+01   -5.540E+01   -5.521E+01   -5.502E+01   -5.484E+01
    -5.466E+01   -5.449E+01   -5.431E+01   -5.414E+01   -5.398E+01   -5.381E+01   -5.365E+01   -5.349E+01   -5.334E+01   -5.318E+01
    -5.303E+01   -5.289E+01   -5.274E+01   -5.260E+01   -5.246E+01   -5.232E+01   -5.219E+01   -5.206E+01   -5.193E+01   -5.180E+01
    -5.168E+01   -5.156E+01   -5.144E+01   -5.132E+01   -5.121E+01   -5.109E+01   -5.098E+01   -5.088E+01   -5.077E+01   -5.067E+01
    -5.057E+01   -5.047E+01   -5.037E+01   -5.027E+01   -5.018E+01   -5.009E+01   -5.000E+01   -4.991E+01   -4.983E+01   -4.975E+01
    -4.966E+01   -4.958E+01   -4.951E+01   -4.943E+01   -4.936E+01   -4.928E+01   -4.921E+01   -4.914E+01   -4.908E+01   -4.901E+01
    -4.895E+01   -4.889E+01   -4.883E+01   -4.877E+01   -4.872E+01   -4.866E+01   -4.861E+01   -4.856E+01   -4.852E+01   -4.847E+01
    -4.843E+01   -4.839E+01   -4.835E+01   -4.831E+01   -4.827E+01   -4.824E+01   -4.821E+01   -4.818E+01   -4.815E+01   -4.813E+01
    -4.811E+01   -4.808E+01   -4.807E+01   -4.805E+01   -4.804E+01   -4.802E+01   -4.801E+01   -4.800E+01   -4.800E+01   -4.799E+01
    -4.799E+01   -4.799E+01   -4.799E+01   -4.799E+01   -4.800E+01   -4.800E+01   -4.801E+01   -4.802E+01   -4.803E+01   -4.804E+01
    -4.805E+01   -4.807E+01   -4.809E+01   -4.810E+01   -4.812E+01   -4.814E+01   -4.817E+01   -4.819E+01   -4.821E+01   -4.824E+01
    -4.827E+01   -4.830E+01   -4.833E+01   -4.836E+01   -4.839E+01   -4.842E+01   -4.845E+01   -4.849E+01   -4.852E+01   -4.855E+01
    -4.859E+01   -4.862E+01   -4.865E+01   -4.869E+01   -4.872E+01   -4.875E+01   -4.879E+01   -4.882E+01   -4.885E+01   -4.888E+01
    -4.891E+01   -4.894E+01   -4.896E+01   -4.899E+01   -4.901E+01   -4.903E+01   -4.905E+01   -4.907E+01   -4.909E+01   -4.911E+01
    -4.912E+01   -4.913E+01   -4.914E+01   -4.914E+01   -4.915E+01   -4.915E+01   -4.915E+01   -4.915E+01   -4.914E+01   -4.913E+01
    -4.912E+01   -4.911E+01   -4.909E+01   -4.907E+01   -4.905E+01   -4.903E+01   -4.900E+01   -4.897E+01   -4.894E+01   -4.890E+01
    -4.886E+01   -4.882E+01   -4.878E+01   -4.873E+01   -4.868E+01   -4.862E+01   -4.857E+01   -4.851E+01   -4.844E+01   -4.837E+01
    -4.830E+01   -4.823E+01   -4.815E+01   -4.807E+01   -4.799E+01   -4.790E+01   -4.781E+01   -4.772E+01   -4.763E+01   -4.753E+01
    -4.743E+01   -4.733E+01   -4.723E+01   -4.712E+01   -4.701E+01   -4.690E+01   -4.679E+01   -4.668E+01   -4.657E+01   -4.646E+01
    -4.634E+01   -4.622E+01   -4.611E+01   -4.599E+01   -4.587E+01   -4.575E+01   -4.563E+01   -4.551E+01   -4.539E+01   -4.527E+01
    -4.515E+01   -4.503E+01   -4.491E+01   -4.480E+01   -4.468E+01   -4.456E+01   -4.444E+01   -4.433E+01   -4.421E+01   -4.410E+01
    -4.398E+01   -4.387E+01   -4.376E+01   -4.365E+01   -4.354E+01   -4.343E+01   -4.333E+01   -4.322E+01   -4.312E+01   -4.302E+01
    -4.293E+01   -4.283E+01   -4.274E+01   -4.265E+01   -4.256E+01   -4.247E+01   -4.239E+01   -4.231E+01   -4.223E+01   -4.215E+01
    -4.208E+01   -4.201E+01   -4.195E+01   -4.188E+01   -4.182E+01   -4.177E+01   -4.171E+01   -4.166E+01   -4.161E+01   -4.156E+01
    -4.152E+01   -4.148E+01   -4.144E+01   -4.140E+01   -4.136E+01   -4.133E+01   -4.130E+01   -4.127E+01   -4.125E+01   -4.122E+01
    -4.120E+01   -4.118E+01   -4.116E+01   -4.115E+01   -4.113E+01   -4.112E+01   -4.111E+01   -4.110E+01   -4.109E+01   -4.108E+01
    -4.108E+01   -4.108E+01   -4.107E+01   -4.107E+01   -4.107E+01   -4.108E+01   -4.108E+01   -4.108E+01   -4.109E+01   -4.109E+01
    -4.110E+01   -4.111E+01   -4.112E+01   -4.113E+01   -4.114E+01   -4.115E+01   -4.116E+01   -4.118E+01   -4.119E+01   -4.120E+01
    -4.122E+01   -4.123E+01   -4.125E+01   -4.126E+01   -4.128E+01   -4.129E+01   -4.131E+01   -4.132E+01   -4.134E+01   -4.136E+01
    -4.137E+01   -4.139E+01   -4.140E+01   -4.142E+01   -4.143E+01   -4.145E+01   -4.146E+01   -4.148E+01   -4.149E+01   -4.151E+01
    -4.152E+01   -4.154E+01   -4.155E+01   -4.156E+01   -4.158E+01   -4.159E+01   -4.161E+01   -4.162E+01   -4.164E+01   -4.165E+01
    -4.166E+01   -4.168E+01   -4.169E+01   -4.171E+01   -4.172E+01   -4.173E+01   -4.175E+01   -4.176E+01   -4.178E+01   -4.179E+01
 Mac      Conc. = 3.14E-04
  -1.44947E+02 -1.45125E+02 -1.45246E+02 -1.45507E+02 -1.45972E+02 -1.46684E+02 -1.47606E+02 -1.48573E+02 -1.49355E+02 -1.49691E+02
  -1.49729E+02 -1.49675E+02 -1.49489E+02 -1.49156E+02 -1.48745E+02 -1.48055E+02 -1.46570E+02 -1.43902E+02 -1.40187E+02 -1.36158E+02
  -1.32646E+02 -1.29694E+02 -1.26848E+02 -1.24208E+02 -1.21937E+02 -1.19741E+02 -1.17414E+02 -1.15069E+02 -1.12847E+02 -1.10808E+02
  -1.09036E+02 -1.07564E+02 -1.06310E+02 -1.05136E+02 -1.04013E+02 -1.02775E+02 -1.01188E+02 -9.92409E+01 -9.72405E+01 -9.56361E+01
  -9.45781E+01 -9.38119E+01 -9.28300E+01 -9.15217E+01 -9.02826E+01 -8.94762E+01 -8.92212E+01 -8.93810E+01 -8.96947E+01 -8.99813E+01
  -9.02830E+01 -9.04876E+01 -9.03934E+01 -9.00618E+01 -8.95955E+01 -8.88922E+01 -8.78827E+01 -8.65788E+01 -8.51170E+01 -8.37579E+01
  -8.27021E+01 -8.17937E+01 -8.10342E+01 -8.06563E+01 -8.05398E+01 -8.03338E+01 -7.98977E+01 -7.92288E+01 -7.83420E+01 -7.72009E+01
  -7.56640E+01 -7.37412E+01 -7.18724E+01 -7.05416E+01 -6.97647E+01 -6.92185E+01 -6.88574E+01 -6.86291E+01 -6.84685E+01 -6.82354E+01
  -6.79073E+01 -6.74467E+01 -6.68293E+01 -6.59969E+01 -6.49540E+01 -6.38391E+01 -6.28343E+01 -6.19321E+01 -6.11256E+01 -6.05014E+01
  -6.00824E+01 -5.98395E+01 -5.98889E+01 -6.03883E+01 -6.13507E+01 -6.27371E+01 -6.45770E+01 -6.67066E+01 -6.89898E+01 -7.13473E+01
  -7.37959E+01 -7.65435E+01 -7.98116E+01 -8.35420E+01 -8.75091E+01 -9.15892E+01 -9.54222E+01 -9.83765E+01 -9.98186E+01 -9.96249E+01
