 LCModel (Version 6.3-1N) Copyright: S.W. Provencher.          Ref.: Magn. Reson. Med. 30:672-679 (1993).                
 Slice_N1@15_12  28-Feb-2025 11:37:19
 27 lines in following concentration table = NCONC+1
    Conc.  %SD /Cr+PCr  Metabolite                                         
 2.93E-04   4% 2.7E-04 Mac                                                 
    3.690  31%   3.400 Cr                                                  
    4.993  22%   4.600 PCr                                                 
    6.442  15%   5.936 Ins                                                 
    9.661   8%   8.902 NAA                                                 
    7.054  13%   6.500 Tau                                                 
    0.450 206%   0.415 PCho                                                
    1.179  75%   1.086 GPC                                                 
   10.568  10%   9.737 Glu                                                 
    3.156  27%   2.908 Gln                                                 
    0.000 999%   0.000 Ala                                                 
    0.967 133%   0.891 Asc                                                 
    2.486  40%   2.290 Asp                                                 
    0.429 125%   0.395 GABA                                                
    0.478 144%   0.441 Glc                                                 
    1.176  41%   1.083 GSH                                                 
    3.251  22%   2.996 Lac                                                 
    1.457  40%   1.343 NAAG                                                
    2.642  44%   2.434 PE                                                  
    1.629  19%   1.501 GPC+PCho                                            
   11.118   8%  10.245 NAA+NAAG                                            
   13.723  10%  12.645 Glu+Gln                                             
    8.682   9%   8.000 Cr+PCr                                              
   11.118   8%  10.245 NAA+NAAG                                            
    8.682   9%   8.000 Cr+PCr                                              
   13.723  10%  12.645 Glu+Gln                                             
   6 lines in following misc. output table
  FWHM = 0.024 ppm    S/N =   4                                            
  Data shift = 0.016 ppm                                                   
  Ph:-175 deg       0.0 deg/ppm                                            
  alphaB,S = 2.9E-01,   3.2E+00                                            
   19 spline knots.   Ns = 5(1)                                            
  ( 3) 2 infls.   ( 2) 1 extrs.                                            
  480 points on ppm-axis = NY
      4.100000     4.091866     4.083733     4.075600     4.067466     4.059333     4.051199     4.043066     4.034933     4.026799
      4.018666     4.010532     4.002399     3.994265     3.986132     3.977998     3.969864     3.961731     3.953597     3.945463
      3.937330     3.929196     3.921062     3.912929     3.904795     3.896662     3.888528     3.880394     3.872261     3.864127
      3.855993     3.847860     3.839726     3.831592     3.823459     3.815325     3.807191     3.799058     3.790924     3.782790
      3.774657     3.766523     3.758389     3.750256     3.742122     3.733989     3.725855     3.717721     3.709588     3.701454
      3.693320     3.685187     3.677053     3.668919     3.660786     3.652652     3.644518     3.636385     3.628251     3.620117
      3.611984     3.603850     3.595716     3.587583     3.579449     3.571316     3.563182     3.555048     3.546915     3.538781
      3.530647     3.522514     3.514380     3.506246     3.498113     3.489979     3.481845     3.473712     3.465578     3.457444
      3.449311     3.441177     3.433043     3.424910     3.416776     3.408643     3.400509     3.392375     3.384242     3.376108
      3.367974     3.359841     3.351707     3.343573     3.335440     3.327306     3.319172     3.311039     3.302905     3.294771
      3.286638     3.278504     3.270370     3.262237     3.254103     3.245970     3.237836     3.229702     3.221569     3.213435
      3.205301     3.197168     3.189034     3.180900     3.172767     3.164633     3.156499     3.148366     3.140232     3.132098
      3.123965     3.115831     3.107697     3.099564     3.091430     3.083297     3.075163     3.067029     3.058896     3.050762
      3.042628     3.034495     3.026361     3.018227     3.010094     3.001960     2.993826     2.985693     2.977559     2.969425
      2.961292     2.953158     2.945024     2.936891     2.928757     2.920624     2.912490     2.904356     2.896223     2.888089
      2.879955     2.871822     2.863688     2.855554     2.847421     2.839287     2.831153     2.823020     2.814886     2.806752
      2.798619     2.790485     2.782351     2.774218     2.766084     2.757951     2.749817     2.741683     2.733550     2.725416
      2.717282     2.709149     2.701015     2.692881     2.684748     2.676614     2.668480     2.660347     2.652213     2.644079
      2.635946     2.627812     2.619678     2.611545     2.603411     2.595278     2.587144     2.579010     2.570877     2.562743
      2.554609     2.546476     2.538342     2.530208     2.522075     2.513941     2.505807     2.497674     2.489540     2.481406
      2.473273     2.465139     2.457006     2.448872     2.440738     2.432605     2.424471     2.416337     2.408204     2.400070
      2.391936     2.383803     2.375669     2.367535     2.359402     2.351268     2.343134     2.335001     2.326867     2.318733
      2.310600     2.302466     2.294333     2.286199     2.278065     2.269932     2.261798     2.253664     2.245531     2.237397
      2.229263     2.221130     2.212996     2.204862     2.196729     2.188595     2.180461     2.172328     2.164194     2.156060
      2.147927     2.139793     2.131660     2.123526     2.115392     2.107259     2.099125     2.090991     2.082858     2.074724
      2.066590     2.058457     2.050323     2.042189     2.034056     2.025922     2.017788     2.009655     2.001521     1.993387
      1.985254     1.977120     1.968987     1.960853     1.952719     1.944586     1.936452     1.928318     1.920185     1.912051
      1.903917     1.895784     1.887650     1.879516     1.871383     1.863249     1.855115     1.846982     1.838848     1.830714
      1.822581     1.814447     1.806314     1.798180     1.790046     1.781913     1.773779     1.765645     1.757512     1.749378
      1.741244     1.733111     1.724977     1.716843     1.708710     1.700576     1.692442     1.684309     1.676175     1.668041
      1.659908     1.651774     1.643641     1.635507     1.627373     1.619240     1.611106     1.602972     1.594839     1.586705
      1.578571     1.570438     1.562304     1.554170     1.546037     1.537903     1.529769     1.521636     1.513502     1.505368
      1.497235     1.489101     1.480968     1.472834     1.464700     1.456567     1.448433     1.440299     1.432166     1.424032
      1.415898     1.407765     1.399631     1.391497     1.383364     1.375230     1.367096     1.358963     1.350829     1.342695
      1.334562     1.326428     1.318295     1.310161     1.302027     1.293894     1.285760     1.277626     1.269493     1.261359
      1.253225     1.245092     1.236958     1.228824     1.220691     1.212557     1.204423     1.196290     1.188156     1.180022
      1.171889     1.163755     1.155622     1.147488     1.139354     1.131221     1.123087     1.114953     1.106820     1.098686
      1.090552     1.082419     1.074285     1.066151     1.058018     1.049884     1.041750     1.033617     1.025483     1.017349
      1.009216     1.001082     0.992949     0.984815     0.976681     0.968548     0.960414     0.952280     0.944147     0.936013
      0.927879     0.919746     0.911612     0.903478     0.895345     0.887211     0.879077     0.870944     0.862810     0.854676
      0.846543     0.838409     0.830276     0.822142     0.814008     0.805875     0.797741     0.789607     0.781474     0.773340
      0.765206     0.757073     0.748939     0.740805     0.732672     0.724538     0.716404     0.708271     0.700137     0.692003
      0.683870     0.675736     0.667603     0.659469     0.651335     0.643202     0.635068     0.626934     0.618801     0.610667
      0.602533     0.594400     0.586266     0.578132     0.569999     0.561865     0.553731     0.545598     0.537464     0.529330
      0.521197     0.513063     0.504930     0.496796     0.488662     0.480529     0.472395     0.464261     0.456128     0.447994
      0.439861     0.431727     0.423593     0.415460     0.407326     0.399192     0.391059     0.382925     0.374792     0.366658
      0.358524     0.350391     0.342257     0.334124     0.325990     0.317856     0.309723     0.301589     0.293455     0.285322
      0.277188     0.269055     0.260921     0.252787     0.244654     0.236520     0.228386     0.220253     0.212119     0.203986
 NY phased data points follow
  -1.14646E+02 -1.43827E+02 -1.28203E+02 -1.31439E+02 -1.34411E+02 -1.25580E+02 -1.15973E+02 -1.20003E+02 -1.29003E+02 -1.29534E+02
  -1.42159E+02 -1.47277E+02 -1.47598E+02 -1.54304E+02 -1.54828E+02 -1.53400E+02 -1.58360E+02 -1.56891E+02 -1.77333E+02 -1.90075E+02
  -2.00216E+02 -1.86239E+02 -1.31946E+02 -1.27845E+02 -1.01273E+02 -6.47727E+01 -7.24909E+01 -7.41176E+01 -7.46389E+01 -7.43893E+01
  -7.27745E+01 -7.83096E+01 -8.28948E+01 -7.73981E+01 -7.27926E+01 -7.87732E+01 -9.39408E+01 -9.42365E+01 -9.17181E+01 -1.14508E+02
  -1.36434E+02 -1.29265E+02 -1.23957E+02 -1.16465E+02 -9.67719E+01 -7.36538E+01 -4.92632E+01 -3.40870E+01 -1.57552E+01 -3.37709E+01
  -3.61252E+01 -4.19535E+01 -5.41763E+01 -5.12736E+01 -7.94949E+01 -7.61107E+01 -9.24879E+01 -8.61450E+01 -8.46112E+01 -1.01791E+02
  -8.05440E+01 -7.04403E+01 -5.71157E+01 -6.24208E+01 -3.16064E+01 -2.38818E+01 -3.90313E+01 -4.85262E+01 -9.43846E+01 -1.13108E+02
  -1.08430E+02 -8.76038E+01 -7.83393E+01 -6.76645E+01 -4.71303E+01 -2.86774E+01 -2.39502E+01 -2.25445E+01 -2.59929E+01 -2.55157E+01
  -1.79272E+01 -4.27400E+01 -4.82997E+01 -7.38386E+01 -9.14955E+01 -7.57870E+01 -7.45151E+01 -5.33610E+01 -3.30394E+01 -3.00451E+01
  -2.23797E+01 -1.34895E+01 -1.40462E+01 -4.00695E+00 -3.65346E+00 -2.19644E+00 -3.30684E+00 -7.11877E+00 -1.36649E+01 -2.05437E+01
  -7.83060E+00 -2.69948E+01 -4.56922E+01 -6.15308E+01 -7.37961E+01 -8.17198E+01 -9.23561E+01 -9.77031E+01 -1.22138E+02 -1.62390E+02
  -2.22475E+02 -2.41314E+02 -2.07564E+02 -1.60566E+02 -1.32609E+02 -1.13800E+02 -9.82594E+01 -8.92582E+01 -8.17393E+01 -8.10994E+01
  -5.57957E+01 -5.33545E+01 -5.05258E+01 -5.07748E+01 -6.29780E+01 -5.82948E+01 -4.70289E+01 -8.96421E+00  1.25921E+01  4.87127E+01
   7.97206E+01  4.93065E+01 -4.35295E+01 -1.45182E+02 -1.72864E+02 -1.60694E+02 -1.40946E+02 -1.46995E+02 -1.51200E+02 -1.38503E+02
  -1.34791E+02 -1.36680E+02 -1.45536E+02 -1.34471E+02 -1.32067E+02 -1.27503E+02 -1.26153E+02 -1.24297E+02 -1.11934E+02 -1.29966E+02
  -1.14738E+02 -9.94283E+01 -1.08115E+02 -1.06642E+02 -1.10696E+02 -9.49575E+01 -8.31490E+01 -9.42287E+01 -9.47660E+01 -6.81121E+01
  -6.92492E+01 -7.68792E+01 -7.71082E+01 -8.07492E+01 -7.79373E+01 -9.27915E+01 -7.28227E+01 -8.32449E+01 -9.47898E+01 -6.64049E+01
  -6.84101E+01 -6.83087E+01 -6.02973E+01 -3.65938E+01 -4.00454E+01 -6.58707E+01 -7.31026E+01 -4.95303E+01 -4.16511E+01 -6.95684E+01
  -8.00971E+01 -8.92340E+01 -9.49646E+01 -1.04426E+02 -9.76368E+01 -1.02007E+02 -1.02146E+02 -8.65285E+01 -9.33733E+01 -8.70556E+01
  -9.05893E+01 -7.57857E+01 -6.77092E+01 -8.27112E+01 -6.92136E+01 -6.37118E+01 -6.97057E+01 -6.11292E+01 -6.22400E+01 -6.56597E+01
  -5.39452E+01 -5.67500E+01 -6.13464E+01 -5.50035E+01 -4.60804E+01 -6.29531E+01 -7.46472E+01 -7.76495E+01 -9.78275E+01 -9.25722E+01
  -8.48999E+01 -8.64375E+01 -9.93539E+01 -8.45580E+01 -4.91691E+01 -2.97669E+01  8.55876E+00  1.72464E+01  1.39150E+00 -4.53217E+00
  -2.25631E+01 -3.78129E+01 -4.41305E+01 -4.83948E+01 -5.28117E+01 -5.39250E+01 -4.89559E+01 -4.71488E+01 -4.73593E+01 -5.68487E+01
  -5.52304E+01 -6.15001E+01 -7.98708E+01 -6.84898E+01 -8.10861E+01 -1.08220E+02 -1.18555E+02 -1.15867E+02 -1.13146E+02 -1.10423E+02
  -1.00812E+02 -1.10774E+02 -9.87954E+01 -8.58813E+01 -8.58999E+01 -7.37220E+01 -7.30764E+01 -7.15280E+01 -7.12219E+01 -8.52627E+01
  -8.73384E+01 -8.72191E+01 -8.47605E+01 -8.48203E+01 -1.15980E+02 -1.24387E+02 -1.36224E+02 -7.39129E+01  8.24739E+01  1.18761E+02
   9.77281E+01  1.13090E+02  9.36805E+01  6.52200E+01  5.44861E+01  4.11554E+01  3.20868E+01  3.21350E+01  3.89609E+01  2.40099E+01
   2.30064E+01  3.04617E+01  1.17176E+01  2.51345E+01  2.37274E+01  1.65452E+01  1.77584E+01  1.72205E+01  1.42484E+01  1.10713E+01
   2.46167E+01  1.07465E+01  9.64174E+00  2.67769E+00  3.32318E+00  4.95062E+00  4.94576E+00  1.57686E+01 -4.56951E+00  6.09872E+00
  -3.64235E+00 -1.50610E+01 -1.12210E+01 -2.54158E+01 -2.38840E+01 -2.84687E+01 -2.67884E+01 -2.49402E+01 -2.18614E+01 -1.78382E+01
  -1.12558E+01 -5.16376E-01  8.43320E+00  2.00651E+01  1.73946E+01  1.22333E+01  2.89012E+01  4.40653E+01  3.76817E+01  3.65048E+01
   4.41043E+01  5.13126E+01  4.56371E+01  3.50382E+01  3.67097E+01  5.59988E+01  6.75489E+01  5.60453E+01  5.29990E+01  4.85221E+01
   5.89621E+01  5.97980E+01  4.33146E+01  5.55883E+01  4.68903E+01  4.91165E+01  6.24622E+01  4.40594E+01  4.25878E+01  4.56496E+01
   5.81858E+01  4.25410E+01  1.21997E+01  8.05550E-01 -3.15652E+01 -5.38418E+01 -8.85115E+01 -9.21796E+01 -7.38218E+01 -7.52269E+01
  -7.40689E+01 -7.64678E+01 -5.96276E+01 -5.20750E+01 -4.71229E+01 -4.42955E+01 -3.88834E+01 -5.14249E+01 -5.38598E+01 -4.27701E+01
  -6.04925E+01 -4.93680E+01 -4.96398E+01 -4.56334E+01 -3.83477E+01 -4.60976E+01 -4.89608E+01 -5.94726E+01 -6.71752E+01 -6.30186E+01
  -4.50552E+01 -3.96995E+01 -4.17998E+01 -4.61373E+01 -2.55474E+01 -3.38754E+01 -4.37642E+01 -2.32262E+01 -3.33422E+01 -2.86420E+01
  -2.80338E+01 -2.34485E+01 -2.15544E+01 -2.37404E+01 -1.31785E+01 -1.15199E+01  1.21336E+00  1.28840E+01  2.74918E+00  4.61105E+00
   1.81408E+01  1.88801E+01  2.50120E+01  2.56674E+01  4.86749E+01  6.09937E+01  6.58030E+01  6.72530E+01  6.67160E+01  8.33050E+01
   5.81887E+01  5.03777E+01  4.34193E+01  2.64446E+01  1.06901E-01 -8.33603E+00  2.91381E+00 -6.08501E+00 -7.09491E+00 -3.14189E+01
  -3.02587E+01 -4.36216E+01 -5.68490E+01 -4.98316E+01 -5.91010E+01 -5.60680E+01 -6.20046E+01 -6.99171E+01 -7.28846E+01 -7.24484E+01
  -7.93813E+01 -6.33493E+01 -6.65201E+01 -6.82546E+01 -6.54040E+01 -7.57044E+01 -5.55783E+01 -5.32564E+01 -5.88440E+01 -7.33846E+01
  -5.99470E+01 -5.48311E+01 -6.00857E+01 -5.68448E+01 -6.09104E+01 -4.98964E+01 -6.10735E+01 -5.45776E+01 -6.04079E+01 -5.45481E+01
  -5.64123E+01 -7.38127E+01 -4.38300E+01 -5.23863E+01 -6.07724E+01 -4.84508E+01 -5.21455E+01 -4.22174E+01 -5.35322E+01 -5.85861E+01
  -4.83596E+01 -6.67473E+01 -4.67131E+01 -4.86039E+01 -6.88742E+01 -5.39956E+01 -5.15544E+01 -4.12268E+01 -4.75899E+01 -4.89644E+01
  -5.07270E+01 -4.67390E+01 -5.71578E+01 -6.21319E+01 -3.23258E+01 -4.11055E+01 -4.92402E+01 -5.43111E+01 -4.69832E+01 -4.59981E+01
  -4.44697E+01 -4.34136E+01 -6.05433E+01 -5.71930E+01 -5.78027E+01 -4.69291E+01 -4.80587E+01 -4.41777E+01 -3.96358E+01 -5.14977E+01
  -4.88028E+01 -4.49099E+01 -3.21088E+01 -4.08220E+01 -5.68102E+01 -4.43687E+01 -4.59944E+01 -5.22694E+01 -4.36195E+01 -4.48342E+01
 NY points of the fit to the data follow
  -1.33154E+02 -1.36596E+02 -1.41941E+02 -1.45988E+02 -1.42751E+02 -1.27067E+02 -1.11395E+02 -1.09409E+02 -1.18167E+02 -1.27569E+02
  -1.36744E+02 -1.44606E+02 -1.49882E+02 -1.52230E+02 -1.52520E+02 -1.52247E+02 -1.48987E+02 -1.54006E+02 -1.68482E+02 -1.78878E+02
  -1.86813E+02 -1.70476E+02 -1.32825E+02 -1.15209E+02 -9.25988E+01 -6.65131E+01 -6.82653E+01 -6.72428E+01 -6.24812E+01 -6.28443E+01
  -6.28059E+01 -6.35158E+01 -6.46194E+01 -6.60742E+01 -6.87785E+01 -7.30943E+01 -7.72313E+01 -8.34652E+01 -9.51644E+01 -1.10979E+02
  -1.28376E+02 -1.36504E+02 -1.27432E+02 -1.10870E+02 -9.11088E+01 -6.90459E+01 -5.26450E+01 -4.58820E+01 -4.58569E+01 -4.66782E+01
  -5.01670E+01 -5.41029E+01 -6.04391E+01 -7.15662E+01 -8.07229E+01 -8.58812E+01 -9.01923E+01 -9.08713E+01 -9.64419E+01 -1.02553E+02
  -9.06495E+01 -8.05004E+01 -7.69807E+01 -6.04401E+01 -4.62154E+01 -4.15901E+01 -4.29589E+01 -5.59761E+01 -7.69518E+01 -9.75303E+01
  -1.00115E+02 -8.79215E+01 -8.18696E+01 -7.10367E+01 -5.10176E+01 -3.88377E+01 -3.31260E+01 -2.80049E+01 -2.72156E+01 -2.77133E+01
  -3.35937E+01 -4.98748E+01 -6.81733E+01 -8.88603E+01 -1.02277E+02 -9.56235E+01 -8.43247E+01 -6.67613E+01 -4.82316E+01 -4.15466E+01
  -3.37157E+01 -2.92757E+01 -2.50089E+01 -2.05111E+01 -1.61734E+01 -1.07202E+01 -6.65972E+00 -5.58948E+00 -5.28872E+00 -5.99178E+00
  -6.68171E+00 -5.33235E+00 -1.62910E+01 -3.66157E+01 -5.44884E+01 -7.36810E+01 -8.01165E+01 -7.95537E+01 -1.03267E+02 -1.52959E+02
  -2.07085E+02 -2.15964E+02 -1.80495E+02 -1.55688E+02 -1.33794E+02 -1.16374E+02 -1.07735E+02 -1.00113E+02 -9.27488E+01 -8.54870E+01
  -7.85096E+01 -7.15044E+01 -6.37641E+01 -5.50455E+01 -4.49445E+01 -3.25411E+01 -1.75904E+01 -6.19252E+00  1.78873E+01  5.50941E+01
   7.18995E+01  5.22909E+01 -3.32751E+01 -1.44198E+02 -1.73876E+02 -1.60048E+02 -1.56191E+02 -1.40077E+02 -1.30889E+02 -1.29494E+02
  -1.29741E+02 -1.29978E+02 -1.30127E+02 -1.29830E+02 -1.29066E+02 -1.28614E+02 -1.26675E+02 -1.23269E+02 -1.20089E+02 -1.16437E+02
  -1.12764E+02 -1.09712E+02 -1.06988E+02 -1.04329E+02 -1.01206E+02 -9.75329E+01 -9.50892E+01 -9.50016E+01 -9.48793E+01 -9.22466E+01
  -8.82504E+01 -8.54575E+01 -8.58431E+01 -8.92898E+01 -9.14177E+01 -8.98774E+01 -8.71969E+01 -8.53311E+01 -8.58254E+01 -8.52815E+01
  -7.78593E+01 -6.42241E+01 -5.19206E+01 -5.18630E+01 -6.20714E+01 -6.44301E+01 -5.51455E+01 -4.80537E+01 -5.17962E+01 -6.61847E+01
  -8.00745E+01 -8.57261E+01 -8.95175E+01 -9.22414E+01 -9.28149E+01 -9.35254E+01 -9.30503E+01 -9.23112E+01 -9.09135E+01 -8.80094E+01
  -8.63942E+01 -8.45793E+01 -8.02620E+01 -7.63901E+01 -6.83993E+01 -6.27506E+01 -6.67015E+01 -6.44078E+01 -5.85539E+01 -5.92678E+01
  -5.95702E+01 -5.95527E+01 -5.52848E+01 -5.04932E+01 -5.47971E+01 -6.22084E+01 -6.96171E+01 -7.70857E+01 -8.48722E+01 -9.37021E+01
  -9.73588E+01 -9.83754E+01 -9.66265E+01 -8.05512E+01 -6.01458E+01 -3.53732E+01 -2.93594E+00  6.11694E+00  3.75666E+00  1.18467E+00
  -1.94257E+01 -3.14001E+01 -3.27562E+01 -3.46196E+01 -3.15453E+01 -3.03445E+01 -3.15383E+01 -3.49700E+01 -4.16940E+01 -5.06909E+01
  -6.10651E+01 -7.17500E+01 -8.30020E+01 -9.29671E+01 -1.01529E+02 -1.10853E+02 -1.16408E+02 -1.18469E+02 -1.20591E+02 -1.16553E+02
  -1.10768E+02 -1.06154E+02 -9.53273E+01 -8.64030E+01 -7.92149E+01 -7.09352E+01 -7.12498E+01 -7.23182E+01 -7.53655E+01 -8.22992E+01
  -8.74213E+01 -9.75466E+01 -9.35760E+01 -9.17270E+01 -1.10247E+02 -1.26098E+02 -1.34905E+02 -7.16910E+01  5.96243E+01  1.12036E+02
   1.00064E+02  9.44637E+01  7.43758E+01  5.83518E+01  5.19143E+01  4.80014E+01  4.44948E+01  4.08270E+01  3.76187E+01  3.50191E+01
   3.32727E+01  3.26024E+01  3.28020E+01  3.35695E+01  3.38594E+01  3.39050E+01  3.34334E+01  3.20166E+01  3.10231E+01  2.99915E+01
   2.85053E+01  2.66644E+01  2.45433E+01  2.25794E+01  2.07922E+01  1.89173E+01  1.65289E+01  1.43728E+01  1.22102E+01  9.38012E+00
   6.31806E+00  2.65605E+00 -1.35398E+00 -4.98167E+00 -8.82370E+00 -1.18977E+01 -1.30513E+01 -1.23569E+01 -1.02238E+01 -7.42022E+00
  -4.62734E+00 -1.91022E+00  1.09882E+00  4.16229E+00  6.90244E+00  9.37278E+00  1.16540E+01  1.37627E+01  1.60843E+01  1.89056E+01
   2.17897E+01  2.39039E+01  2.56151E+01  2.72164E+01  2.85629E+01  2.98279E+01  3.05843E+01  3.05288E+01  2.99131E+01  2.84018E+01
   2.58581E+01  2.33477E+01  2.06686E+01  1.68468E+01  1.27305E+01  8.65261E+00  3.67715E+00 -2.87844E+00 -1.16127E+01 -2.15646E+01
  -3.06371E+01 -3.83305E+01 -4.41855E+01 -4.74482E+01 -4.74291E+01 -4.41109E+01 -3.89420E+01 -2.95394E+01 -1.97933E+01 -1.44768E+01
  -1.44738E+01 -2.94307E+01 -4.89690E+01 -5.78737E+01 -6.40558E+01 -5.78648E+01 -4.31612E+01 -3.71755E+01 -3.20773E+01 -2.96079E+01
  -2.92076E+01 -2.98134E+01 -3.19824E+01 -3.51910E+01 -3.96083E+01 -4.45257E+01 -4.81784E+01 -5.00735E+01 -5.03517E+01 -4.91648E+01
  -4.68035E+01 -4.36596E+01 -3.99549E+01 -3.59104E+01 -3.18198E+01 -2.80377E+01 -2.47513E+01 -2.15513E+01 -1.84731E+01 -1.54563E+01
  -1.22273E+01 -9.08740E+00 -6.02965E+00 -2.81996E+00  9.14772E-01  4.90918E+00  9.31003E+00  1.45212E+01  2.00872E+01  2.63500E+01
   3.34371E+01  4.04889E+01  4.76300E+01  5.56638E+01  6.39244E+01  7.10072E+01  7.62869E+01  7.84324E+01  7.59544E+01  6.81870E+01
   5.65162E+01  4.36793E+01  3.20042E+01  2.25826E+01  1.50459E+01  8.65080E+00  2.71374E+00 -4.68323E+00 -1.38150E+01 -2.35117E+01
  -3.27900E+01 -4.14412E+01 -4.82263E+01 -5.26334E+01 -5.62148E+01 -5.88574E+01 -6.02938E+01 -6.11027E+01 -6.17907E+01 -6.26268E+01
  -6.34547E+01 -6.40142E+01 -6.42913E+01 -6.41845E+01 -6.41285E+01 -6.40893E+01 -6.37975E+01 -6.33528E+01 -6.32560E+01 -6.34897E+01
  -6.34110E+01 -6.26474E+01 -6.21121E+01 -6.22963E+01 -6.20411E+01 -6.15801E+01 -6.14338E+01 -6.13514E+01 -6.11547E+01 -6.06140E+01
  -5.98686E+01 -5.93044E+01 -5.92835E+01 -5.93602E+01 -5.92938E+01 -5.92114E+01 -5.88049E+01 -5.81031E+01 -5.76749E+01 -5.72992E+01
  -5.67649E+01 -5.65063E+01 -5.60971E+01 -5.56325E+01 -5.55389E+01 -5.56242E+01 -5.56353E+01 -5.54683E+01 -5.48406E+01 -5.42428E+01
  -5.40234E+01 -5.36154E+01 -5.35114E+01 -5.35800E+01 -5.29848E+01 -5.22914E+01 -5.19267E+01 -5.15089E+01 -5.11144E+01 -5.08347E+01
  -5.04194E+01 -4.99874E+01 -4.98456E+01 -4.98475E+01 -4.97395E+01 -4.95872E+01 -4.93563E+01 -4.87112E+01 -4.78498E+01 -4.67973E+01
  -4.62594E+01 -4.63581E+01 -4.66166E+01 -4.66457E+01 -4.63525E+01 -4.58018E+01 -4.52214E+01 -4.48985E+01 -4.44644E+01 -4.40547E+01
 NY background values follow
    -1.044E+02   -1.040E+02   -1.036E+02   -1.032E+02   -1.028E+02   -1.024E+02   -1.020E+02   -1.016E+02   -1.012E+02   -1.008E+02
    -1.004E+02   -1.000E+02   -9.963E+01   -9.923E+01   -9.883E+01   -9.843E+01   -9.803E+01   -9.763E+01   -9.723E+01   -9.683E+01
    -9.643E+01   -9.602E+01   -9.562E+01   -9.522E+01   -9.482E+01   -9.442E+01   -9.402E+01   -9.362E+01   -9.322E+01   -9.282E+01
    -9.242E+01   -9.202E+01   -9.162E+01   -9.122E+01   -9.082E+01   -9.042E+01   -9.002E+01   -8.962E+01   -8.923E+01   -8.883E+01
    -8.843E+01   -8.804E+01   -8.764E+01   -8.725E+01   -8.686E+01   -8.647E+01   -8.608E+01   -8.569E+01   -8.531E+01   -8.492E+01
    -8.454E+01   -8.416E+01   -8.378E+01   -8.340E+01   -8.303E+01   -8.265E+01   -8.228E+01   -8.192E+01   -8.155E+01   -8.119E+01
    -8.083E+01   -8.047E+01   -8.012E+01   -7.976E+01   -7.941E+01   -7.907E+01   -7.872E+01   -7.838E+01   -7.804E+01   -7.770E+01
    -7.737E+01   -7.704E+01   -7.671E+01   -7.638E+01   -7.606E+01   -7.574E+01   -7.542E+01   -7.510E+01   -7.479E+01   -7.447E+01
    -7.416E+01   -7.386E+01   -7.355E+01   -7.325E+01   -7.295E+01   -7.265E+01   -7.235E+01   -7.206E+01   -7.177E+01   -7.148E+01
    -7.119E+01   -7.090E+01   -7.062E+01   -7.034E+01   -7.006E+01   -6.978E+01   -6.951E+01   -6.923E+01   -6.896E+01   -6.869E+01
    -6.842E+01   -6.815E+01   -6.789E+01   -6.762E+01   -6.736E+01   -6.710E+01   -6.684E+01   -6.658E+01   -6.632E+01   -6.606E+01
    -6.580E+01   -6.555E+01   -6.529E+01   -6.504E+01   -6.479E+01   -6.453E+01   -6.428E+01   -6.403E+01   -6.378E+01   -6.353E+01
    -6.328E+01   -6.303E+01   -6.278E+01   -6.253E+01   -6.228E+01   -6.203E+01   -6.178E+01   -6.154E+01   -6.129E+01   -6.104E+01
    -6.080E+01   -6.055E+01   -6.031E+01   -6.006E+01   -5.982E+01   -5.958E+01   -5.934E+01   -5.910E+01   -5.886E+01   -5.862E+01
    -5.838E+01   -5.814E+01   -5.791E+01   -5.767E+01   -5.744E+01   -5.721E+01   -5.698E+01   -5.675E+01   -5.652E+01   -5.629E+01
    -5.606E+01   -5.584E+01   -5.561E+01   -5.539E+01   -5.517E+01   -5.495E+01   -5.473E+01   -5.451E+01   -5.430E+01   -5.408E+01
    -5.387E+01   -5.366E+01   -5.345E+01   -5.324E+01   -5.303E+01   -5.283E+01   -5.262E+01   -5.242E+01   -5.222E+01   -5.202E+01
    -5.182E+01   -5.162E+01   -5.142E+01   -5.123E+01   -5.104E+01   -5.085E+01   -5.066E+01   -5.047E+01   -5.028E+01   -5.010E+01
    -4.991E+01   -4.973E+01   -4.955E+01   -4.937E+01   -4.920E+01   -4.902E+01   -4.885E+01   -4.867E+01   -4.850E+01   -4.833E+01
    -4.817E+01   -4.800E+01   -4.783E+01   -4.767E+01   -4.751E+01   -4.735E+01   -4.719E+01   -4.703E+01   -4.687E+01   -4.671E+01
    -4.656E+01   -4.641E+01   -4.625E+01   -4.610E+01   -4.595E+01   -4.580E+01   -4.566E+01   -4.551E+01   -4.537E+01   -4.522E+01
    -4.508E+01   -4.494E+01   -4.480E+01   -4.466E+01   -4.452E+01   -4.438E+01   -4.424E+01   -4.411E+01   -4.398E+01   -4.384E+01
    -4.371E+01   -4.358E+01   -4.345E+01   -4.333E+01   -4.320E+01   -4.307E+01   -4.295E+01   -4.283E+01   -4.271E+01   -4.259E+01
    -4.247E+01   -4.235E+01   -4.224E+01   -4.212E+01   -4.201E+01   -4.190E+01   -4.179E+01   -4.168E+01   -4.158E+01   -4.147E+01
    -4.137E+01   -4.127E+01   -4.117E+01   -4.107E+01   -4.097E+01   -4.087E+01   -4.078E+01   -4.068E+01   -4.059E+01   -4.050E+01
    -4.041E+01   -4.032E+01   -4.024E+01   -4.015E+01   -4.006E+01   -3.998E+01   -3.990E+01   -3.982E+01   -3.973E+01   -3.965E+01
    -3.958E+01   -3.950E+01   -3.942E+01   -3.934E+01   -3.927E+01   -3.919E+01   -3.912E+01   -3.905E+01   -3.897E+01   -3.890E+01
    -3.883E+01   -3.876E+01   -3.869E+01   -3.862E+01   -3.855E+01   -3.849E+01   -3.842E+01   -3.836E+01   -3.829E+01   -3.823E+01
    -3.817E+01   -3.811E+01   -3.805E+01   -3.800E+01   -3.794E+01   -3.789E+01   -3.784E+01   -3.780E+01   -3.775E+01   -3.771E+01
    -3.767E+01   -3.763E+01   -3.759E+01   -3.756E+01   -3.753E+01   -3.750E+01   -3.748E+01   -3.746E+01   -3.744E+01   -3.742E+01
    -3.741E+01   -3.740E+01   -3.740E+01   -3.740E+01   -3.740E+01   -3.741E+01   -3.741E+01   -3.743E+01   -3.744E+01   -3.747E+01
    -3.749E+01   -3.752E+01   -3.755E+01   -3.759E+01   -3.763E+01   -3.767E+01   -3.772E+01   -3.777E+01   -3.783E+01   -3.789E+01
    -3.795E+01   -3.802E+01   -3.809E+01   -3.817E+01   -3.826E+01   -3.834E+01   -3.843E+01   -3.853E+01   -3.863E+01   -3.874E+01
    -3.885E+01   -3.896E+01   -3.908E+01   -3.920E+01   -3.933E+01   -3.946E+01   -3.960E+01   -3.973E+01   -3.987E+01   -4.002E+01
    -4.016E+01   -4.031E+01   -4.046E+01   -4.061E+01   -4.076E+01   -4.091E+01   -4.106E+01   -4.122E+01   -4.137E+01   -4.152E+01
    -4.168E+01   -4.183E+01   -4.198E+01   -4.214E+01   -4.229E+01   -4.244E+01   -4.258E+01   -4.273E+01   -4.287E+01   -4.301E+01
    -4.315E+01   -4.328E+01   -4.342E+01   -4.354E+01   -4.367E+01   -4.379E+01   -4.391E+01   -4.403E+01   -4.414E+01   -4.425E+01
    -4.436E+01   -4.447E+01   -4.457E+01   -4.467E+01   -4.476E+01   -4.485E+01   -4.494E+01   -4.503E+01   -4.511E+01   -4.519E+01
    -4.526E+01   -4.533E+01   -4.540E+01   -4.547E+01   -4.553E+01   -4.558E+01   -4.564E+01   -4.569E+01   -4.573E+01   -4.578E+01
    -4.581E+01   -4.585E+01   -4.588E+01   -4.591E+01   -4.594E+01   -4.596E+01   -4.597E+01   -4.599E+01   -4.600E+01   -4.601E+01
    -4.602E+01   -4.602E+01   -4.602E+01   -4.601E+01   -4.601E+01   -4.600E+01   -4.599E+01   -4.598E+01   -4.596E+01   -4.594E+01
    -4.592E+01   -4.590E+01   -4.587E+01   -4.585E+01   -4.582E+01   -4.578E+01   -4.575E+01   -4.572E+01   -4.568E+01   -4.564E+01
    -4.560E+01   -4.556E+01   -4.552E+01   -4.547E+01   -4.543E+01   -4.538E+01   -4.533E+01   -4.528E+01   -4.523E+01   -4.518E+01
    -4.513E+01   -4.508E+01   -4.502E+01   -4.497E+01   -4.491E+01   -4.485E+01   -4.480E+01   -4.474E+01   -4.468E+01   -4.462E+01
    -4.456E+01   -4.450E+01   -4.444E+01   -4.438E+01   -4.431E+01   -4.425E+01   -4.419E+01   -4.413E+01   -4.407E+01   -4.400E+01
    -4.394E+01   -4.388E+01   -4.382E+01   -4.375E+01   -4.369E+01   -4.363E+01   -4.357E+01   -4.351E+01   -4.344E+01   -4.338E+01
    -4.332E+01   -4.326E+01   -4.320E+01   -4.313E+01   -4.307E+01   -4.301E+01   -4.295E+01   -4.289E+01   -4.282E+01   -4.276E+01
    -4.270E+01   -4.264E+01   -4.258E+01   -4.252E+01   -4.245E+01   -4.239E+01   -4.233E+01   -4.227E+01   -4.221E+01   -4.214E+01
 Mac      Conc. = 2.93E-04
  -1.24929E+02 -1.25437E+02 -1.25438E+02 -1.25276E+02 -1.25120E+02 -1.25091E+02 -1.25651E+02 -1.26984E+02 -1.28702E+02 -1.30198E+02
  -1.31192E+02 -1.31493E+02 -1.31165E+02 -1.30583E+02 -1.30179E+02 -1.30890E+02 -1.32777E+02 -1.33830E+02 -1.32229E+02 -1.27231E+02
  -1.21006E+02 -1.16667E+02 -1.12471E+02 -1.08298E+02 -1.06338E+02 -1.05366E+02 -1.04108E+02 -1.02337E+02 -1.00157E+02 -9.76136E+01
  -9.50831E+01 -9.32589E+01 -9.17917E+01 -9.03845E+01 -8.96506E+01 -8.97806E+01 -9.01516E+01 -8.94520E+01 -8.69489E+01 -8.35573E+01
  -8.09236E+01 -8.02031E+01 -8.05789E+01 -8.02083E+01 -7.88429E+01 -7.69707E+01 -7.51937E+01 -7.44433E+01 -7.46106E+01 -7.53113E+01
  -7.64306E+01 -7.76710E+01 -7.87068E+01 -7.91485E+01 -7.93323E+01 -7.94042E+01 -7.90992E+01 -7.83652E+01 -7.69177E+01 -7.48776E+01
  -7.30881E+01 -7.15766E+01 -6.95306E+01 -6.83087E+01 -6.87081E+01 -6.93616E+01 -7.01158E+01 -7.06298E+01 -7.06878E+01 -7.09084E+01
  -7.08140E+01 -6.94795E+01 -6.62889E+01 -6.27094E+01 -6.05794E+01 -5.92300E+01 -5.86855E+01 -5.90239E+01 -5.96315E+01 -6.03933E+01
  -6.08232E+01 -6.09393E+01 -6.11002E+01 -6.09691E+01 -6.03571E+01 -5.91136E+01 -5.79014E+01 -5.68597E+01 -5.55634E+01 -5.45740E+01
  -5.39069E+01 -5.32770E+01 -5.26942E+01 -5.22318E+01 -5.21984E+01 -5.25911E+01 -5.39490E+01 -5.63541E+01 -5.89407E+01 -6.13877E+01
  -6.36448E+01 -6.51742E+01 -6.67741E+01 -6.92318E+01 -7.22689E+01 -7.61248E+01 -8.18635E+01 -8.89842E+01 -9.57224E+01 -9.98487E+01
