 LCModel (Version 6.3-1N) Copyright: S.W. Provencher.          Ref.: Magn. Reson. Med. 30:672-679 (1993).                
 Slice_N1@18_23  28-Feb-2025 11:37:19
 27 lines in following concentration table = NCONC+1
    Conc.  %SD /Cr+PCr  Metabolite                                         
 2.65E-04   5% 2.7E-04 Mac                                                 
    3.182 114%   3.195 Cr                                                  
    4.785  77%   4.805 PCr                                                 
    7.106  18%   7.136 Ins                                                 
   10.951  12%  10.997 NAA                                                 
    5.397  25%   5.419 Tau                                                 
    0.000 999%   0.000 PCho                                                
    1.940  24%   1.948 GPC                                                 
   10.503  13%  10.547 Glu                                                 
    4.404  27%   4.422 Gln                                                 
    0.000 999%   0.000 Ala                                                 
    3.146  59%   3.159 Asc                                                 
    4.897  29%   4.918 Asp                                                 
    1.486  55%   1.492 GABA                                                
    0.977 109%   0.982 Glc                                                 
    3.406  23%   3.420 GSH                                                 
    0.648 148%   0.651 Lac                                                 
    3.449  29%   3.463 NAAG                                                
    0.835 214%   0.839 PE                                                  
    1.940  24%   1.948 GPC+PCho                                            
   14.400   8%  14.460 NAA+NAAG                                            
   14.907  12%  14.969 Glu+Gln                                             
    7.967  12%   8.000 Cr+PCr                                              
   14.400   8%  14.460 NAA+NAAG                                            
    7.967  12%   8.000 Cr+PCr                                              
   14.907  12%  14.969 Glu+Gln                                             
   6 lines in following misc. output table
  FWHM = 0.049 ppm    S/N =   2                                            
  Data shift = 0.008 ppm                                                   
  Ph: -39 deg       0.0 deg/ppm                                            
  alphaB,S = 1.7E+00,   4.0E+01                                            
   19 spline knots.   Ns = 7(1)                                            
  ( 8) 2 infls.   ( 5) 1 extrs.                                            
  480 points on ppm-axis = NY
      4.100000     4.091866     4.083733     4.075600     4.067466     4.059333     4.051199     4.043066     4.034933     4.026799
      4.018666     4.010532     4.002399     3.994265     3.986132     3.977998     3.969864     3.961731     3.953597     3.945463
      3.937330     3.929196     3.921062     3.912929     3.904795     3.896662     3.888528     3.880394     3.872261     3.864127
      3.855993     3.847860     3.839726     3.831592     3.823459     3.815325     3.807191     3.799058     3.790924     3.782790
      3.774657     3.766523     3.758389     3.750256     3.742122     3.733989     3.725855     3.717721     3.709588     3.701454
      3.693320     3.685187     3.677053     3.668919     3.660786     3.652652     3.644518     3.636385     3.628251     3.620117
      3.611984     3.603850     3.595716     3.587583     3.579449     3.571316     3.563182     3.555048     3.546915     3.538781
      3.530647     3.522514     3.514380     3.506246     3.498113     3.489979     3.481845     3.473712     3.465578     3.457444
      3.449311     3.441177     3.433043     3.424910     3.416776     3.408643     3.400509     3.392375     3.384242     3.376108
      3.367974     3.359841     3.351707     3.343573     3.335440     3.327306     3.319172     3.311039     3.302905     3.294771
      3.286638     3.278504     3.270370     3.262237     3.254103     3.245970     3.237836     3.229702     3.221569     3.213435
      3.205301     3.197168     3.189034     3.180900     3.172767     3.164633     3.156499     3.148366     3.140232     3.132098
      3.123965     3.115831     3.107697     3.099564     3.091430     3.083297     3.075163     3.067029     3.058896     3.050762
      3.042628     3.034495     3.026361     3.018227     3.010094     3.001960     2.993826     2.985693     2.977559     2.969425
      2.961292     2.953158     2.945024     2.936891     2.928757     2.920624     2.912490     2.904356     2.896223     2.888089
      2.879955     2.871822     2.863688     2.855554     2.847421     2.839287     2.831153     2.823020     2.814886     2.806752
      2.798619     2.790485     2.782351     2.774218     2.766084     2.757951     2.749817     2.741683     2.733550     2.725416
      2.717282     2.709149     2.701015     2.692881     2.684748     2.676614     2.668480     2.660347     2.652213     2.644079
      2.635946     2.627812     2.619678     2.611545     2.603411     2.595278     2.587144     2.579010     2.570877     2.562743
      2.554609     2.546476     2.538342     2.530208     2.522075     2.513941     2.505807     2.497674     2.489540     2.481406
      2.473273     2.465139     2.457006     2.448872     2.440738     2.432605     2.424471     2.416337     2.408204     2.400070
      2.391936     2.383803     2.375669     2.367535     2.359402     2.351268     2.343134     2.335001     2.326867     2.318733
      2.310600     2.302466     2.294333     2.286199     2.278065     2.269932     2.261798     2.253664     2.245531     2.237397
      2.229263     2.221130     2.212996     2.204862     2.196729     2.188595     2.180461     2.172328     2.164194     2.156060
      2.147927     2.139793     2.131660     2.123526     2.115392     2.107259     2.099125     2.090991     2.082858     2.074724
      2.066590     2.058457     2.050323     2.042189     2.034056     2.025922     2.017788     2.009655     2.001521     1.993387
      1.985254     1.977120     1.968987     1.960853     1.952719     1.944586     1.936452     1.928318     1.920185     1.912051
      1.903917     1.895784     1.887650     1.879516     1.871383     1.863249     1.855115     1.846982     1.838848     1.830714
      1.822581     1.814447     1.806314     1.798180     1.790046     1.781913     1.773779     1.765645     1.757512     1.749378
      1.741244     1.733111     1.724977     1.716843     1.708710     1.700576     1.692442     1.684309     1.676175     1.668041
      1.659908     1.651774     1.643641     1.635507     1.627373     1.619240     1.611106     1.602972     1.594839     1.586705
      1.578571     1.570438     1.562304     1.554170     1.546037     1.537903     1.529769     1.521636     1.513502     1.505368
      1.497235     1.489101     1.480968     1.472834     1.464700     1.456567     1.448433     1.440299     1.432166     1.424032
      1.415898     1.407765     1.399631     1.391497     1.383364     1.375230     1.367096     1.358963     1.350829     1.342695
      1.334562     1.326428     1.318295     1.310161     1.302027     1.293894     1.285760     1.277626     1.269493     1.261359
      1.253225     1.245092     1.236958     1.228824     1.220691     1.212557     1.204423     1.196290     1.188156     1.180022
      1.171889     1.163755     1.155622     1.147488     1.139354     1.131221     1.123087     1.114953     1.106820     1.098686
      1.090552     1.082419     1.074285     1.066151     1.058018     1.049884     1.041750     1.033617     1.025483     1.017349
      1.009216     1.001082     0.992949     0.984815     0.976681     0.968548     0.960414     0.952280     0.944147     0.936013
      0.927879     0.919746     0.911612     0.903478     0.895345     0.887211     0.879077     0.870944     0.862810     0.854676
      0.846543     0.838409     0.830276     0.822142     0.814008     0.805875     0.797741     0.789607     0.781474     0.773340
      0.765206     0.757073     0.748939     0.740805     0.732672     0.724538     0.716404     0.708271     0.700137     0.692003
      0.683870     0.675736     0.667603     0.659469     0.651335     0.643202     0.635068     0.626934     0.618801     0.610667
      0.602533     0.594400     0.586266     0.578132     0.569999     0.561865     0.553731     0.545598     0.537464     0.529330
      0.521197     0.513063     0.504930     0.496796     0.488662     0.480529     0.472395     0.464261     0.456128     0.447994
      0.439861     0.431727     0.423593     0.415460     0.407326     0.399192     0.391059     0.382925     0.374792     0.366658
      0.358524     0.350391     0.342257     0.334124     0.325990     0.317856     0.309723     0.301589     0.293455     0.285322
      0.277188     0.269055     0.260921     0.252787     0.244654     0.236520     0.228386     0.220253     0.212119     0.203986
 NY phased data points follow
  -7.28626E+01 -7.01377E+01 -8.74490E+01 -7.88301E+01 -7.49138E+01 -8.11929E+01 -5.57307E+01 -7.27933E+01 -7.65764E+01 -8.61162E+01
  -8.52756E+01 -8.07678E+01 -8.75195E+01 -8.96773E+01 -1.02578E+02 -8.55560E+01 -1.00520E+02 -9.74607E+01 -9.75893E+01 -1.17553E+02
  -1.21487E+02 -1.15716E+02 -8.40531E+01 -8.06837E+01 -7.27163E+01 -5.67442E+01 -5.60892E+01 -4.98748E+01 -3.23901E+01 -3.32364E+01
  -4.13458E+01 -4.74333E+01 -5.19962E+01 -5.63383E+01 -5.36066E+01 -4.49761E+01 -6.07340E+01 -5.64270E+01 -8.68805E+01 -1.04979E+02
  -9.04261E+01 -9.77319E+01 -8.91042E+01 -7.96296E+01 -6.64909E+01 -5.38598E+01 -2.26364E+01 -2.03943E+01 -2.25037E+01 -1.27729E+01
  -8.62445E+00 -4.57923E+00 -2.26335E+01 -3.22145E+01 -4.68924E+01 -3.25188E+01 -3.69345E+01 -4.69931E+01 -3.49903E+01 -5.12506E+01
  -6.08687E+01 -3.77681E+01 -2.76256E+01 -4.87270E+01 -1.95365E+01 -1.36855E+01 -3.10792E+01 -3.80877E+01 -4.09020E+01 -2.94695E+01
  -5.25011E+01 -4.41486E+01 -3.02543E+01 -4.03975E+01 -3.11268E+01 -7.95334E+00 -1.04387E+01 -1.04273E+01 -1.15932E+00 -1.16776E+01
   5.29015E-01 -1.01949E+01 -1.91926E+01 -2.31131E+01 -4.12970E+01 -3.52005E+01 -2.57709E+01 -6.04642E+00 -2.05381E+00  1.90439E+00
   3.74018E+00 -4.60537E+00  1.00668E+01  7.62995E+00  1.99654E+01  3.15771E+01  2.62499E+01  3.36355E+01  1.31021E+01  1.99706E+01
   2.26068E+01  5.25090E+00  3.64781E+00 -2.94458E+01 -2.92528E+01 -3.24054E+01 -5.83743E+01 -6.26731E+01 -9.04481E+01 -9.89804E+01
  -1.19445E+02 -1.52770E+02 -1.20333E+02 -1.03497E+02 -1.16562E+02 -1.05279E+02 -8.63118E+01 -6.68391E+01 -6.37359E+01 -5.95852E+01
  -4.11666E+01 -3.43463E+01 -2.28874E+01 -1.57624E+01 -1.62019E+01  9.94666E+00  8.53629E+00  8.50764E+00  3.89173E+01  3.18587E+01
   2.69662E+01  2.90646E+01  4.47975E+00 -5.23311E+01 -8.03720E+01 -8.20622E+01 -9.08322E+01 -9.78477E+01 -1.22461E+02 -1.02839E+02
  -1.04246E+02 -1.13220E+02 -9.66974E+01 -9.83199E+01 -8.54871E+01 -9.74202E+01 -9.77522E+01 -9.30768E+01 -9.26653E+01 -8.64800E+01
  -8.90186E+01 -7.94361E+01 -7.76630E+01 -8.04835E+01 -6.82848E+01 -5.91655E+01 -6.69965E+01 -5.68474E+01 -6.09562E+01 -6.59663E+01
  -5.41013E+01 -5.85658E+01 -5.73821E+01 -5.67593E+01 -6.12727E+01 -5.38239E+01 -4.07909E+01 -4.79832E+01 -4.78433E+01 -4.45492E+01
  -3.84868E+01 -2.31565E+01 -1.44614E+01 -1.83855E+01 -3.41010E+01 -2.05284E+01 -2.21533E+01 -3.04669E+01 -1.98498E+01 -3.87585E+01
  -6.16411E+01 -5.94209E+01 -6.97004E+01 -8.99274E+01 -8.40839E+01 -7.65843E+01 -7.33906E+01 -6.94515E+01 -6.73535E+01 -6.07919E+01
  -4.82570E+01 -4.72547E+01 -3.98255E+01 -3.80106E+01 -4.11204E+01 -2.24582E+01 -3.17382E+01 -3.28830E+01 -2.66480E+01 -3.33934E+01
  -3.30299E+01 -2.94277E+01 -2.76831E+01 -3.02653E+01 -3.53072E+01 -4.33859E+01 -3.53644E+01 -5.05322E+01 -6.59218E+01 -7.68572E+01
  -7.90627E+01 -6.70887E+01 -6.99335E+01 -4.70716E+01 -3.70672E+01 -3.13271E+01 -2.43012E+01 -2.53533E+01 -2.01194E+01 -2.21713E+01
  -1.72369E+01 -2.04521E+01 -2.37985E+01 -3.10319E+01 -3.92841E+01 -1.94278E+01 -2.10144E+01 -4.23196E+01 -3.62606E+01 -4.40336E+01
  -3.68340E+01 -3.14010E+01 -6.33116E+01 -6.89638E+01 -6.40365E+01 -7.24926E+01 -8.42146E+01 -9.17756E+01 -9.94942E+01 -9.87816E+01
  -9.98308E+01 -9.07483E+01 -9.23748E+01 -9.53129E+01 -7.47832E+01 -7.70582E+01 -6.02827E+01 -7.00467E+01 -7.67111E+01 -6.61940E+01
  -8.98645E+01 -9.39406E+01 -9.48347E+01 -9.47656E+01 -9.06647E+01 -6.70133E+01 -4.81571E+01 -2.25328E+01  2.49236E+01  6.81785E+01
   7.96926E+01  7.22701E+01  9.03618E+01  8.20255E+01  8.18364E+01  6.77709E+01  5.34567E+01  5.32036E+01  4.09151E+01  5.37334E+01
   3.53188E+01  3.29541E+01  4.55175E+01  4.61509E+01  4.46984E+01  4.40350E+01  5.31676E+01  4.86233E+01  5.65100E+01  4.84015E+01
   4.08790E+01  4.70093E+01  4.52115E+01  4.31052E+01  4.26042E+01  5.04393E+01  5.26090E+01  4.47136E+01  3.89419E+01  5.38819E+01
   4.42891E+01  3.91388E+01  5.43022E+01  4.82898E+01  6.13126E+01  5.94088E+01  5.08837E+01  5.62982E+01  7.37613E+01  7.87793E+01
   4.62910E+01  5.25951E+01  5.59067E+01  4.76059E+01  4.46362E+01  1.84045E+01  1.34070E+01  1.53433E+00 -3.49407E+01 -5.12675E+01
  -4.27390E+01 -4.41855E+01 -4.15766E+01 -3.74985E+01 -3.53996E+01 -2.32233E+01 -1.66413E+01  2.95139E+00 -1.06107E+01 -2.16287E+01
  -4.17988E+00 -9.90063E+00  8.19267E+00  1.80725E+01  1.18857E+01  2.23405E+01  1.98862E+01  1.56813E+01  1.96121E+01  2.70436E+01
   1.01930E+01 -9.19959E+00 -7.42210E+00 -2.51604E+01 -3.30869E+01 -3.83374E+01 -4.33781E+01 -4.15026E+01 -5.32543E+01 -4.41684E+01
  -2.77005E+01 -2.31186E+01 -3.19854E+01 -1.82088E+01 -5.99747E+00 -2.00787E+01 -1.97780E+01 -2.66910E+01 -1.97863E+01 -6.88586E+00
  -1.25303E+01 -1.66637E+01 -1.81044E+01 -1.08153E+01 -7.26470E+00 -4.07087E+01 -4.06615E+01 -2.51577E+01 -5.26385E+01 -4.15202E+01
  -3.43050E+01 -3.33128E+01 -2.85070E+01 -3.17551E+01 -2.75060E+01 -2.38111E+01 -6.85031E+00 -1.11041E+01 -1.67641E+01 -9.49967E+00
   6.06112E+00  6.19782E+00  6.20854E+00  8.24851E+00  8.19745E+00  1.05410E+01  1.24679E+01  2.87553E+01  1.44404E+01  2.26637E+01
   3.20215E+01  4.63807E+01  5.30136E+01  5.58693E+01  7.05517E+01  5.00799E+01  8.13889E+01  9.36200E+01  9.22533E+01  9.03028E+01
   9.04641E+01  8.36448E+01  6.67353E+01  7.35233E+01  3.78646E+01  3.69736E+01  2.51103E+01  3.30530E+01  3.26547E+01  8.67309E+00
   1.36924E+01 -1.26636E+01 -9.90029E+00 -3.09422E+01 -3.04246E+01 -2.81521E+01 -3.74455E+01 -2.85206E+01 -3.70249E+01 -4.20503E+01
  -6.29575E+01 -4.53517E+01 -4.78416E+01 -5.57888E+01 -3.72089E+01 -4.55453E+01 -4.76877E+01 -4.00568E+01 -4.27331E+01 -4.80686E+01
  -4.21557E+01 -4.44350E+01 -5.50600E+01 -5.54613E+01 -3.85542E+01 -5.17736E+01 -5.04718E+01 -4.02229E+01 -5.59804E+01 -4.33535E+01
  -5.01967E+01 -5.52265E+01 -5.91948E+01 -5.82585E+01 -4.58789E+01 -5.93579E+01 -5.12701E+01 -5.21749E+01 -5.56491E+01 -4.78638E+01
  -5.33287E+01 -3.58456E+01 -4.43482E+01 -6.10525E+01 -5.23959E+01 -5.06816E+01 -3.46121E+01 -4.39598E+01 -5.26691E+01 -4.88935E+01
  -5.79871E+01 -5.70253E+01 -4.61858E+01 -4.11040E+01 -4.55567E+01 -2.52106E+01 -4.04325E+01 -4.62296E+01 -2.91177E+01 -4.09275E+01
  -3.25154E+01 -4.19129E+01 -6.02962E+01 -5.38174E+01 -4.00591E+01 -5.31710E+01 -4.20114E+01 -2.79558E+01 -4.07348E+01 -3.97722E+01
  -5.07421E+01 -2.66161E+01 -3.19900E+01 -5.03324E+01 -3.46511E+01 -4.44598E+01 -3.82724E+01 -2.73740E+01 -3.68214E+01 -4.92043E+01
 NY points of the fit to the data follow
  -7.12078E+01 -7.37774E+01 -7.64436E+01 -7.79755E+01 -7.75822E+01 -7.52914E+01 -7.20597E+01 -6.96979E+01 -6.95519E+01 -7.13190E+01
  -7.36591E+01 -7.58158E+01 -7.80837E+01 -8.11467E+01 -8.47852E+01 -8.88068E+01 -9.36525E+01 -9.92441E+01 -1.04576E+02 -1.08059E+02
  -1.07792E+02 -1.02091E+02 -9.12484E+01 -7.80076E+01 -6.49609E+01 -5.30881E+01 -4.26846E+01 -3.38744E+01 -2.68374E+01 -2.21459E+01
  -1.97419E+01 -1.95226E+01 -2.11414E+01 -2.45784E+01 -2.97207E+01 -3.65068E+01 -4.55245E+01 -5.69550E+01 -6.97246E+01 -8.15996E+01
  -8.99517E+01 -9.22992E+01 -8.78504E+01 -7.86478E+01 -6.73306E+01 -5.50851E+01 -4.27982E+01 -3.20024E+01 -2.40573E+01 -1.97197E+01
  -1.83916E+01 -1.96030E+01 -2.31866E+01 -2.78086E+01 -3.21786E+01 -3.61576E+01 -3.98954E+01 -4.30971E+01 -4.56132E+01 -4.70839E+01
  -4.62344E+01 -4.24134E+01 -3.72795E+01 -3.20964E+01 -2.66851E+01 -2.25589E+01 -2.19313E+01 -2.51195E+01 -3.09168E+01 -3.71850E+01
  -4.16942E+01 -4.26964E+01 -4.01156E+01 -3.55084E+01 -2.96080E+01 -2.26132E+01 -1.59873E+01 -1.11290E+01 -8.74192E+00 -8.82603E+00
  -1.12759E+01 -1.60573E+01 -2.21932E+01 -2.79174E+01 -3.15844E+01 -3.21806E+01 -2.98222E+01 -2.53270E+01 -1.96905E+01 -1.37506E+01
  -7.95013E+00 -2.28532E+00  2.82613E+00  7.44272E+00  1.15692E+01  1.50114E+01  1.74843E+01  1.92016E+01  1.98367E+01  1.90486E+01
   1.67635E+01  1.28639E+01  5.74490E+00 -4.48687E+00 -1.54522E+01 -2.66777E+01 -4.01767E+01 -5.70591E+01 -7.67969E+01 -9.71413E+01
  -1.13062E+02 -1.19335E+02 -1.16305E+02 -1.08983E+02 -1.01160E+02 -9.26544E+01 -8.30712E+01 -7.27922E+01 -6.35552E+01 -5.53370E+01
  -4.75513E+01 -3.97233E+01 -3.14766E+01 -2.23468E+01 -1.16729E+01 -8.77346E-01  9.37232E+00  2.01239E+01  3.02357E+01  3.53666E+01
   3.13405E+01  1.64441E+01 -8.32246E+00 -3.71441E+01 -6.06006E+01 -7.46924E+01 -8.30524E+01 -8.93581E+01 -9.38353E+01 -9.59088E+01
  -9.58369E+01 -9.59896E+01 -9.67977E+01 -9.77001E+01 -9.82890E+01 -9.83533E+01 -9.77427E+01 -9.63845E+01 -9.44406E+01 -9.21120E+01
  -8.95460E+01 -8.67802E+01 -8.37278E+01 -8.04793E+01 -7.71680E+01 -7.40948E+01 -7.15965E+01 -6.96160E+01 -6.77469E+01 -6.56814E+01
  -6.36573E+01 -6.23312E+01 -6.21598E+01 -6.28656E+01 -6.34378E+01 -6.30328E+01 -6.18804E+01 -6.04292E+01 -5.81332E+01 -5.40633E+01
  -4.81550E+01 -4.17092E+01 -3.66665E+01 -3.40594E+01 -3.33737E+01 -3.31909E+01 -3.30479E+01 -3.42403E+01 -3.81959E+01 -4.47340E+01
  -5.20666E+01 -5.83976E+01 -6.35438E+01 -6.78924E+01 -7.12079E+01 -7.32449E+01 -7.38414E+01 -7.28690E+01 -7.06843E+01 -6.76397E+01
  -6.37865E+01 -5.91332E+01 -5.41097E+01 -4.93230E+01 -4.49840E+01 -4.13419E+01 -3.88616E+01 -3.72650E+01 -3.59650E+01 -3.48926E+01
  -3.42976E+01 -3.42455E+01 -3.43910E+01 -3.49264E+01 -3.69188E+01 -4.08334E+01 -4.59135E+01 -5.14723E+01 -5.71867E+01 -6.22944E+01
  -6.60403E+01 -6.73240E+01 -6.52106E+01 -5.92853E+01 -4.99023E+01 -3.83813E+01 -2.66879E+01 -1.72391E+01 -1.16577E+01 -9.62863E+00
  -1.00669E+01 -1.18763E+01 -1.38885E+01 -1.59054E+01 -1.84951E+01 -2.20698E+01 -2.71867E+01 -3.37128E+01 -4.17738E+01 -5.11069E+01
  -6.13216E+01 -7.18904E+01 -8.19641E+01 -9.09431E+01 -9.83550E+01 -1.03624E+02 -1.06387E+02 -1.06620E+02 -1.04566E+02 -1.00517E+02
  -9.50744E+01 -8.90170E+01 -8.27793E+01 -7.69158E+01 -7.23313E+01 -6.98359E+01 -6.96584E+01 -7.14704E+01 -7.57891E+01 -8.32442E+01
  -9.06222E+01 -9.46413E+01 -9.61420E+01 -9.54352E+01 -9.00920E+01 -7.77677E+01 -5.68665E+01 -2.57139E+01  1.21392E+01  4.50380E+01
   6.42433E+01  7.23957E+01  7.60267E+01  7.73434E+01  7.53040E+01  6.93460E+01  6.22881E+01  5.59067E+01  5.05153E+01  4.62840E+01
   4.33072E+01  4.15498E+01  4.08398E+01  4.09153E+01  4.14245E+01  4.20542E+01  4.25752E+01  4.28120E+01  4.26342E+01  4.20366E+01
   4.09804E+01  3.95460E+01  3.78123E+01  3.58663E+01  3.37776E+01  3.15304E+01  2.91243E+01  2.65553E+01  2.38204E+01  2.09058E+01
   1.78312E+01  1.46817E+01  1.16196E+01  8.83529E+00  6.54200E+00  4.96177E+00  4.21037E+00  4.25881E+00  4.98604E+00  6.23933E+00
   7.88653E+00  9.82859E+00  1.19563E+01  1.41405E+01  1.62868E+01  1.83692E+01  2.04113E+01  2.24457E+01  2.44681E+01  2.64217E+01
   2.82461E+01  2.98842E+01  3.13039E+01  3.24865E+01  3.33966E+01  3.39297E+01  3.39849E+01  3.35413E+01  3.26010E+01  3.11382E+01
   2.91486E+01  2.66401E+01  2.36029E+01  2.00060E+01  1.58014E+01  1.09066E+01  5.27328E+00 -1.03746E+00 -7.76533E+00 -1.44661E+01
  -2.06552E+01 -2.59291E+01 -2.99402E+01 -3.24251E+01 -3.32950E+01 -3.27176E+01 -3.10236E+01 -2.87023E+01 -2.62096E+01 -2.38616E+01
  -2.18654E+01 -2.02909E+01 -1.90094E+01 -1.77724E+01 -1.64019E+01 -1.48988E+01 -1.34043E+01 -1.21664E+01 -1.14308E+01 -1.12851E+01
  -1.17876E+01 -1.30291E+01 -1.49388E+01 -1.73627E+01 -1.99621E+01 -2.23667E+01 -2.42340E+01 -2.53336E+01 -2.55877E+01 -2.50129E+01
  -2.36753E+01 -2.16945E+01 -1.92274E+01 -1.64465E+01 -1.35177E+01 -1.05426E+01 -7.58896E+00 -4.68283E+00 -1.80721E+00  1.07192E+00
   3.97797E+00  6.93629E+00  1.00210E+01  1.33160E+01  1.68815E+01  2.07973E+01  2.51362E+01  2.98945E+01  3.50567E+01  4.06231E+01
   4.65193E+01  5.25786E+01  5.85868E+01  6.42469E+01  6.91124E+01  7.26344E+01  7.42641E+01  7.36264E+01  7.06439E+01  6.55817E+01
   5.90035E+01  5.16196E+01  4.40200E+01  3.64778E+01  2.90558E+01  2.17112E+01  1.43388E+01  6.85796E+00 -6.51629E-01 -7.95579E+00
  -1.48068E+01 -2.09881E+01 -2.63421E+01 -3.08078E+01 -3.44206E+01 -3.72522E+01 -3.94167E+01 -4.10679E+01 -4.23602E+01 -4.33900E+01
  -4.41816E+01 -4.47655E+01 -4.51706E+01 -4.54216E+01 -4.55638E+01 -4.56479E+01 -4.56886E+01 -4.56821E+01 -4.56440E+01 -4.55816E+01
  -4.54737E+01 -4.53320E+01 -4.52008E+01 -4.51021E+01 -4.49989E+01 -4.48706E+01 -4.47317E+01 -4.45928E+01 -4.44314E+01 -4.42291E+01
  -4.40396E+01 -4.39085E+01 -4.38225E+01 -4.37352E+01 -4.36153E+01 -4.34490E+01 -4.32409E+01 -4.30135E+01 -4.27791E+01 -4.25458E+01
  -4.23260E+01 -4.21423E+01 -4.20056E+01 -4.19091E+01 -4.18466E+01 -4.17882E+01 -4.16913E+01 -4.15385E+01 -4.13708E+01 -4.12155E+01
  -4.10693E+01 -4.09151E+01 -4.07410E+01 -4.05318E+01 -4.02901E+01 -4.00455E+01 -3.98170E+01 -3.96004E+01 -3.93926E+01 -3.92002E+01
  -3.90334E+01 -3.88964E+01 -3.87788E+01 -3.86642E+01 -3.85194E+01 -3.83130E+01 -3.80458E+01 -3.77375E+01 -3.74310E+01 -3.71780E+01
  -3.69980E+01 -3.68705E+01 -3.67620E+01 -3.66313E+01 -3.64581E+01 -3.62665E+01 -3.60621E+01 -3.58273E+01 -3.55390E+01 -3.51907E+01
 NY background values follow
    -4.190E+01   -4.183E+01   -4.175E+01   -4.167E+01   -4.160E+01   -4.152E+01   -4.145E+01   -4.137E+01   -4.129E+01   -4.122E+01
    -4.114E+01   -4.107E+01   -4.099E+01   -4.091E+01   -4.084E+01   -4.076E+01   -4.069E+01   -4.061E+01   -4.053E+01   -4.046E+01
    -4.038E+01   -4.031E+01   -4.023E+01   -4.015E+01   -4.008E+01   -4.000E+01   -3.993E+01   -3.985E+01   -3.977E+01   -3.970E+01
    -3.962E+01   -3.955E+01   -3.947E+01   -3.939E+01   -3.932E+01   -3.924E+01   -3.917E+01   -3.909E+01   -3.901E+01   -3.894E+01
    -3.886E+01   -3.879E+01   -3.871E+01   -3.864E+01   -3.856E+01   -3.849E+01   -3.841E+01   -3.834E+01   -3.826E+01   -3.819E+01
    -3.811E+01   -3.804E+01   -3.796E+01   -3.789E+01   -3.781E+01   -3.774E+01   -3.766E+01   -3.759E+01   -3.751E+01   -3.744E+01
    -3.737E+01   -3.729E+01   -3.722E+01   -3.714E+01   -3.707E+01   -3.700E+01   -3.692E+01   -3.685E+01   -3.678E+01   -3.671E+01
    -3.663E+01   -3.656E+01   -3.649E+01   -3.642E+01   -3.634E+01   -3.627E+01   -3.620E+01   -3.613E+01   -3.606E+01   -3.599E+01
    -3.592E+01   -3.584E+01   -3.577E+01   -3.570E+01   -3.563E+01   -3.556E+01   -3.549E+01   -3.542E+01   -3.535E+01   -3.528E+01
    -3.522E+01   -3.515E+01   -3.508E+01   -3.501E+01   -3.494E+01   -3.487E+01   -3.481E+01   -3.474E+01   -3.467E+01   -3.460E+01
    -3.454E+01   -3.447E+01   -3.440E+01   -3.434E+01   -3.427E+01   -3.421E+01   -3.414E+01   -3.408E+01   -3.401E+01   -3.395E+01
    -3.388E+01   -3.382E+01   -3.375E+01   -3.369E+01   -3.363E+01   -3.356E+01   -3.350E+01   -3.344E+01   -3.338E+01   -3.331E+01
    -3.325E+01   -3.319E+01   -3.313E+01   -3.307E+01   -3.301E+01   -3.295E+01   -3.289E+01   -3.283E+01   -3.277E+01   -3.271E+01
    -3.265E+01   -3.260E+01   -3.254E+01   -3.248E+01   -3.242E+01   -3.237E+01   -3.231E+01   -3.225E+01   -3.220E+01   -3.214E+01
    -3.209E+01   -3.203E+01   -3.198E+01   -3.192E+01   -3.187E+01   -3.182E+01   -3.176E+01   -3.171E+01   -3.166E+01   -3.161E+01
    -3.156E+01   -3.150E+01   -3.145E+01   -3.140E+01   -3.135E+01   -3.130E+01   -3.126E+01   -3.121E+01   -3.116E+01   -3.111E+01
    -3.106E+01   -3.102E+01   -3.097E+01   -3.093E+01   -3.088E+01   -3.084E+01   -3.079E+01   -3.075E+01   -3.070E+01   -3.066E+01
    -3.062E+01   -3.058E+01   -3.053E+01   -3.049E+01   -3.045E+01   -3.041E+01   -3.037E+01   -3.033E+01   -3.029E+01   -3.025E+01
    -3.022E+01   -3.018E+01   -3.014E+01   -3.011E+01   -3.007E+01   -3.003E+01   -3.000E+01   -2.997E+01   -2.993E+01   -2.990E+01
    -2.986E+01   -2.983E+01   -2.980E+01   -2.977E+01   -2.974E+01   -2.971E+01   -2.968E+01   -2.965E+01   -2.962E+01   -2.959E+01
    -2.956E+01   -2.954E+01   -2.951E+01   -2.948E+01   -2.946E+01   -2.943E+01   -2.941E+01   -2.938E+01   -2.936E+01   -2.934E+01
    -2.931E+01   -2.929E+01   -2.927E+01   -2.925E+01   -2.923E+01   -2.921E+01   -2.919E+01   -2.917E+01   -2.915E+01   -2.913E+01
    -2.911E+01   -2.910E+01   -2.908E+01   -2.907E+01   -2.905E+01   -2.904E+01   -2.902E+01   -2.901E+01   -2.899E+01   -2.898E+01
    -2.897E+01   -2.896E+01   -2.895E+01   -2.894E+01   -2.893E+01   -2.892E+01   -2.891E+01   -2.890E+01   -2.889E+01   -2.888E+01
    -2.888E+01   -2.887E+01   -2.886E+01   -2.886E+01   -2.886E+01   -2.885E+01   -2.885E+01   -2.884E+01   -2.884E+01   -2.884E+01
    -2.884E+01   -2.884E+01   -2.884E+01   -2.884E+01   -2.884E+01   -2.884E+01   -2.884E+01   -2.884E+01   -2.885E+01   -2.885E+01
    -2.885E+01   -2.886E+01   -2.886E+01   -2.887E+01   -2.887E+01   -2.888E+01   -2.889E+01   -2.889E+01   -2.890E+01   -2.891E+01
    -2.892E+01   -2.893E+01   -2.894E+01   -2.895E+01   -2.896E+01   -2.897E+01   -2.898E+01   -2.900E+01   -2.901E+01   -2.902E+01
    -2.904E+01   -2.905E+01   -2.907E+01   -2.908E+01   -2.910E+01   -2.911E+01   -2.913E+01   -2.915E+01   -2.917E+01   -2.919E+01
    -2.920E+01   -2.922E+01   -2.924E+01   -2.926E+01   -2.928E+01   -2.930E+01   -2.932E+01   -2.935E+01   -2.937E+01   -2.939E+01
    -2.941E+01   -2.944E+01   -2.946E+01   -2.948E+01   -2.951E+01   -2.953E+01   -2.956E+01   -2.958E+01   -2.961E+01   -2.964E+01
    -2.966E+01   -2.969E+01   -2.972E+01   -2.974E+01   -2.977E+01   -2.980E+01   -2.983E+01   -2.986E+01   -2.989E+01   -2.992E+01
    -2.995E+01   -2.998E+01   -3.001E+01   -3.004E+01   -3.007E+01   -3.010E+01   -3.013E+01   -3.016E+01   -3.019E+01   -3.022E+01
    -3.026E+01   -3.029E+01   -3.032E+01   -3.035E+01   -3.039E+01   -3.042E+01   -3.045E+01   -3.049E+01   -3.052E+01   -3.055E+01
    -3.059E+01   -3.062E+01   -3.066E+01   -3.069E+01   -3.073E+01   -3.076E+01   -3.080E+01   -3.083E+01   -3.087E+01   -3.091E+01
    -3.094E+01   -3.098E+01   -3.101E+01   -3.105E+01   -3.109E+01   -3.113E+01   -3.116E+01   -3.120E+01   -3.124E+01   -3.127E+01
    -3.131E+01   -3.135E+01   -3.139E+01   -3.143E+01   -3.146E+01   -3.150E+01   -3.154E+01   -3.158E+01   -3.162E+01   -3.166E+01
    -3.170E+01   -3.174E+01   -3.178E+01   -3.182E+01   -3.186E+01   -3.190E+01   -3.194E+01   -3.198E+01   -3.202E+01   -3.206E+01
    -3.210E+01   -3.214E+01   -3.218E+01   -3.222E+01   -3.227E+01   -3.231E+01   -3.235E+01   -3.239E+01   -3.243E+01   -3.248E+01
    -3.252E+01   -3.256E+01   -3.260E+01   -3.265E+01   -3.269E+01   -3.273E+01   -3.278E+01   -3.282E+01   -3.286E+01   -3.291E+01
    -3.295E+01   -3.299E+01   -3.304E+01   -3.308E+01   -3.313E+01   -3.317E+01   -3.322E+01   -3.326E+01   -3.331E+01   -3.335E+01
    -3.340E+01   -3.344E+01   -3.349E+01   -3.353E+01   -3.358E+01   -3.362E+01   -3.367E+01   -3.371E+01   -3.376E+01   -3.380E+01
    -3.385E+01   -3.390E+01   -3.394E+01   -3.399E+01   -3.403E+01   -3.408E+01   -3.413E+01   -3.417E+01   -3.422E+01   -3.427E+01
    -3.431E+01   -3.436E+01   -3.441E+01   -3.445E+01   -3.450E+01   -3.455E+01   -3.459E+01   -3.464E+01   -3.469E+01   -3.474E+01
    -3.478E+01   -3.483E+01   -3.488E+01   -3.492E+01   -3.497E+01   -3.502E+01   -3.507E+01   -3.511E+01   -3.516E+01   -3.521E+01
    -3.525E+01   -3.530E+01   -3.535E+01   -3.540E+01   -3.544E+01   -3.549E+01   -3.554E+01   -3.558E+01   -3.563E+01   -3.568E+01
    -3.573E+01   -3.577E+01   -3.582E+01   -3.587E+01   -3.592E+01   -3.596E+01   -3.601E+01   -3.606E+01   -3.611E+01   -3.615E+01
    -3.620E+01   -3.625E+01   -3.629E+01   -3.634E+01   -3.639E+01   -3.644E+01   -3.648E+01   -3.653E+01   -3.658E+01   -3.663E+01
 Mac      Conc. = 2.65E-04
  -6.05088E+01 -6.09309E+01 -6.13407E+01 -6.17903E+01 -6.23588E+01 -6.31107E+01 -6.40332E+01 -6.50601E+01 -6.61029E+01 -6.70776E+01
  -6.79112E+01 -6.85505E+01 -6.90333E+01 -6.94822E+01 -6.99028E+01 -7.01162E+01 -6.98660E+01 -6.89080E+01 -6.71234E+01 -6.46703E+01
  -6.19425E+01 -5.92639E+01 -5.67212E+01 -5.43817E+01 -5.23263E+01 -5.05171E+01 -4.88275E+01 -4.71686E+01 -4.55659E+01 -4.40826E+01
  -4.27451E+01 -4.15746E+01 -4.06030E+01 -3.98355E+01 -3.92274E+01 -3.86349E+01 -3.78891E+01 -3.68995E+01 -3.57401E+01 -3.46141E+01
  -3.36899E+01 -3.29642E+01 -3.22791E+01 -3.15357E+01 -3.07944E+01 -3.02063E+01 -2.99052E+01 -2.99349E+01 -3.02501E+01 -3.07779E+01
  -3.14435E+01 -3.21440E+01 -3.27867E+01 -3.32996E+01 -3.36110E+01 -3.36652E+01 -3.34306E+01 -3.29041E+01 -3.21345E+01 -3.12490E+01
  -3.03828E+01 -2.96205E+01 -2.90654E+01 -2.88072E+01 -2.88221E+01 -2.89930E+01 -2.92048E+01 -2.93450E+01 -2.93070E+01 -2.89949E+01
  -2.83280E+01 -2.73028E+01 -2.60653E+01 -2.48627E+01 -2.39088E+01 -2.32648E+01 -2.29171E+01 -2.28248E+01 -2.29487E+01 -2.31970E+01
  -2.34594E+01 -2.36389E+01 -2.36808E+01 -2.35385E+01 -2.31858E+01 -2.26708E+01 -2.20775E+01 -2.14626E+01 -2.08723E+01 -2.03514E+01
  -1.99393E+01 -1.96788E+01 -1.96295E+01 -1.98526E+01 -2.04142E+01 -2.13585E+01 -2.26903E+01 -2.43108E+01 -2.61227E+01 -2.80715E+01
  -3.01672E+01 -3.24676E+01 -3.50811E+01 -3.81127E+01 -4.15982E+01 -4.54589E+01 -4.94664E+01 -5.32322E+01 -5.62766E+01 -5.82237E+01
