 
 $NMID
 ID=''
 FMTDAT='(2E13.5)'
 TRAMP=   1.00000E+0
 VOLUME=   1.00000E+0
 $END
   1.62817E+4   1.53938E+4
   1.29523E+4  -7.62805E+2
  -3.41564E+3  -5.81906E+3
   2.81347E+2   7.86176E+3
   4.38703E+3   4.09241E+3
  -3.66558E+3  -2.99017E+3
   6.24195E+2   1.33173E+3
   5.74061E+3  -3.94542E+2
  -7.14558E+2  -1.47211E+3
  -8.75908E+2   4.81690E+3
   7.83135E+2   2.87588E+3
  -3.68992E+3  -1.94099E+3
  -8.59939E+2   7.84897E+2
   2.08212E+3   2.37091E+3
  -3.04797E+3  -4.64640E+2
  -1.84974E+3  -2.18600E+3
   2.16798E+3  -1.54239E+3
   2.16887E+2   8.10852E+2
  -7.99961E+2   3.46410E+2
   8.27565E+2  -1.10608E+3
  -1.34707E+3   1.88295E+2
  -5.04533E+2  -3.90772E+2
   1.84904E+3  -1.79739E+3
   1.39243E+1   1.53942E+3
  -2.05241E+3   1.12003E+3
  -1.54650E+2  -2.92641E+3
   2.38871E+3   2.18586E+2
   2.65299E+2   3.78506E+3
  -2.81321E+3  -1.27853E+2
  -4.31784E+2  -1.60196E+3
   2.75939E+3   1.42477E+3
  -6.34275E+2   1.73466E+3
  -1.93320E+3   2.95728E+2
   3.61824E+2  -5.36961E+2
  -2.31403E+2  -7.90900E+2
  -8.50660E+2  -1.11942E+3
   2.03469E+3  -8.96688E+2
   1.94726E+3   2.12394E+2
  -4.44518E+2   1.55738E+3
  -4.07840E+2   2.15453E+2
  -1.42913E+1  -3.66933E+2
  -6.43692E+2   6.38954E+2
  -5.79949E+2  -8.01516E+2
  -2.51540E+2  -2.08393E+3
   7.37455E+2  -1.49739E+3
   2.39641E+3  -8.93165E+1
   1.40331E+3   1.46773E+3
  -1.16770E+3   1.55510E+3
  -1.29755E+3   1.78382E+2
  -9.88257E+2  -4.68715E+2
  -8.74115E+2   6.77371E+1
  -2.53419E+2  -6.41819E+2
   4.02507E+2  -9.60875E+2
   6.94924E+2   3.63385E+2
   2.52117E+2  -3.24054E+1
   1.48742E+1  -2.79194E+2
  -1.05143E+2   8.61107E+2
  -8.09465E+2   1.03857E+3
  -1.41964E+3  -1.30861E+3
   1.23167E+2  -1.54891E+3
   1.18662E+3  -3.16956E+2
   6.13502E+2  -1.41912E+2
   6.41567E+2   1.10655E+2
   9.42404E+2   8.82693E+2
  -1.95236E+2   1.12718E+3
  -1.10254E+3   1.15595E+3
  -7.85439E+2   1.22266E+2
  -7.69566E+2  -1.11522E+3
  -2.50991E+2  -9.15776E+2
   7.67785E+2  -1.19115E+2
   3.89943E+2   2.56394E+2
  -3.43630E+2  -1.69534E+2
   1.16982E+2  -5.88588E+2
   7.63183E+2  -5.21486E+2
   3.85279E+2   5.08608E+2
  -3.00447E+2   4.79244E+2
  -6.36386E+1  -3.66226E+2
   5.84641E+2  -2.35104E+2
   8.13417E+2  -5.59253E+1
   4.19423E+2   5.07136E+2
  -3.58572E+2   4.55493E+2
  -1.45618E+2  -2.35878E+2
  -2.03808E+2  -1.12285E+1
  -2.34205E+2   2.10274E+2
  -2.11751E+2   3.84996E+2
  -4.71747E+1  -2.98504E+2
  -1.78696E+2  -4.94181E+2
   2.12746E+2  -3.22552E+2
   6.68542E+2  -1.91343E+2
   2.98158E+2  -9.40068E+1
   1.63557E+2   1.29152E+2
   3.28412E+2  -6.15740E+2
   7.06577E+2   3.61942E+2
   5.58497E+2   7.84865E+2
  -3.70901E+2   5.86482E+2
  -8.36007E+2  -1.14115E+2
   2.07921E+1  -6.10521E+2
   4.05877E+2   4.52710E+1
  -1.99771E+2   4.18143E+2
  -4.61789E+2  -2.25150E+2
   3.96699E+2  -6.45179E+2
   7.03559E+2  -1.14261E+2
   1.29992E+2   4.80276E+2
  -2.84709E+2   2.21212E+2
  -2.96665E+2  -2.77855E+2
   1.50747E+2  -3.15302E+2
   6.09803E+2  -3.27542E+2
   4.77177E+2   4.17160E+2
   6.08990E+1   6.93611E+2
  -8.38914E+2   4.04193E+2
  -4.92950E+2  -6.40492E+2
   2.43127E+2  -8.91660E+2
   5.48066E+2  -1.30730E+2
   2.14801E+2   1.17246E+2
  -1.66854E+1  -1.56910E+2
   3.86419E+2  -2.98627E+2
   4.65106E+2   4.27919E+2
  -8.86254E+1   5.88801E+2
  -3.59833E+2   3.99606E+2
  -6.23049E+2  -1.99777E+2
  -2.06871E+2  -6.07620E+2
   2.17120E+2  -2.95081E+2
   2.13948E+2  -3.81800E+2
   2.25007E+2  -2.82547E+2
   5.39904E+2   6.04555E+1
   3.25875E+2   3.84658E+2
  -2.38519E+2   1.96985E+2
  -3.37587E+2  -1.76806E+2
  -3.99497E+1  -1.59794E+2
   6.68840E+1  -4.84966E+2
   3.82787E+2  -2.87575E+2
   5.10224E+2   3.65520E+2
  -2.64112E+2   5.29379E+2
  -4.67593E+2  -8.06487E+1
  -1.79528E+2  -2.56331E+2
   2.53083E+1   2.41736E+2
  -1.46623E+2   1.38347E+2
  -3.91287E+2  -3.79523E+2
   4.78439E+1  -3.03996E+2
   2.84127E+2   1.79747E+2
   4.03551E+2   4.77204E+2
  -9.61467E+1   3.38402E+2
  -2.61771E+2  -1.80848E+1
  -1.40283E+2  -3.04814E+2
  -6.21129E+0  -2.09165E+2
   1.73823E+2   9.45234E+1
   1.77234E+2  -2.06659E+2
  -3.98664E+1   2.14781E+2
  -1.06985E+1   2.83004E+2
  -2.07213E+2   2.31345E+2
   3.81933E+0   2.31126E+2
  -1.86664E+2   7.60061E+1
  -2.81720E+1  -2.20799E+0
  -5.61076E+1  -5.06869E+1
  -2.07819E+1  -3.37316E+1
   1.83719E+1   1.28674E+2
   8.66607E+1   8.55154E+1
   1.46896E+2  -4.18224E+1
  -1.94490E+1  -2.93966E+1
  -8.64290E+1   1.49529E+2
   4.59247E+1   4.05925E+2
   5.15367E+1   1.44507E+2
   1.91479E+2   4.32235E+1
   8.80713E+1   2.51376E+2
  -2.66677E+2   1.18533E+2
  -2.02111E+2   2.13468E+2
  -1.97764E+2   4.91551E+0
   1.39600E+2  -1.36579E+1
  -9.28764E+1   6.65949E+1
  -2.18963E+2   9.30477E+1
   6.07427E+0  -7.27432E+1
   1.21886E+2  -3.58953E+0
   7.90401E+1  -2.09785E+2
   1.01127E+2  -6.14962E+1
   8.32316E+1  -3.22821E+1
  -1.16361E+2  -1.27992E+2
  -7.04260E+1  -1.42385E+2
   2.68618E+1   7.38320E+1
   4.73334E+1   3.96289E+2
  -4.33911E+2   7.96341E+1
  -9.37640E+1  -1.19171E+2
   1.60653E+2  -1.83777E+2
   3.58864E+2  -1.59892E+2
   7.40195E+1   2.12506E+2
   6.30932E+1   1.47464E+2
  -4.39996E+1   2.84937E+2
  -4.31288E+0   2.16753E+2
  -1.48804E+2   1.18934E+2
  -3.86366E+2   2.49231E+2
  -7.42824E+1  -3.01738E+2
   2.46869E+2   2.56971E+2
   1.92047E+2  -8.81568E+1
   7.22640E+1   2.04774E+2
  -1.29046E+2   2.85795E+2
  -3.28178E+1   2.65697E+2
  -9.74870E+1   1.40999E+2
  -2.32430E+2  -8.41645E+0
   6.06104E+1   2.04854E+2
  -1.67367E+2  -2.41109E+1
  -4.05411E+1   5.37331E+1
   6.59411E+1   1.73452E+2
   2.48171E+2   3.28640E+2
  -1.62970E+2   2.36698E+2
  -1.00487E+2   3.21934E+2
   5.08891E+1   1.05819E+2
   1.70917E+2   9.45617E+1
   2.75689E+1   1.11819E+2
   7.94589E+1   7.59416E+1
  -4.16547E+1   2.95630E+2
   5.06208E+1   4.24239E+0
   4.36928E+1   1.66623E+2
   1.68426E+2   3.43646E+2
  -7.56227E+1   1.37517E+2
   2.68416E+1   3.11858E+0
   8.22999E+1  -7.48187E+1
   2.12639E+2   1.11022E+2
   1.90006E+2   1.13372E+2
  -9.20065E+1   3.00115E+2
   1.27514E+2   3.72526E+0
   1.91258E+2   8.84099E+1
   8.06858E+1   1.60344E+2
  -2.25539E+2   2.79715E+2
   1.09842E+2   7.94684E+1
  -2.09266E+1  -1.30676E+2
   1.16495E+2   1.50468E+2
  -1.78079E+2   7.64362E+1
   1.12438E+2   2.05246E+2
  -9.59985E+1  -2.62968E+1
   3.20890E+2   3.30811E+2
   5.28304E+1   6.07669E+1
  -9.32637E+0   3.07088E+2
   2.39061E+2   2.28456E+2
  -1.82230E+1   1.93311E+2
   2.11269E+2   1.55408E+2
   1.13958E+2   1.95273E+2
   8.24365E+1  -1.58586E+2
   2.40273E+2   1.77789E+2
   1.55861E+2   9.31861E+1
   1.07482E+2   1.86743E+2
  -3.60512E+1   1.50397E+2
  -3.54239E+1  -7.77544E+0
   8.40036E+1   2.05855E+2
   2.49960E+1   1.33362E+2
  -6.25937E+1   1.62955E+2
   3.70277E+1  -2.07358E+2
   6.32640E+1   1.05384E+2
  -8.41836E+1  -6.44290E+1
   1.86765E+2  -2.36999E+1
  -8.11033E+1   1.56506E+2
  -6.25232E+1   1.74428E+2
   2.28849E+2  -3.81915E+1
   1.45706E+2  -1.27218E+2
   1.44163E+1  -5.83992E+1
   7.16980E+1   4.24525E+1
  -4.98356E+1   1.32358E+2
  -4.34548E+1   3.43029E+1
   3.58780E+2  -7.13024E+1
   2.55446E+2   7.69850E+1
   9.47458E+1   4.80006E+1
   1.80453E+1  -1.14503E+2
   5.47665E+1  -1.65429E+2
  -7.36560E+1  -1.09679E+1
   5.72114E+1   1.89129E+1
  -3.21897E+1   1.05475E+2
   1.98028E+2   6.81779E+1
   1.19419E+2   1.00221E+1
   1.18147E+2   1.64402E+2
   6.53309E+1   2.18310E+2
  -6.13590E+1  -1.31305E+2
  -9.73779E+1   2.39416E+2
   4.46510E+1   2.32602E+2
  -1.71148E+2  -2.44124E+0
  -3.25244E+0   1.20829E+2
  -2.16995E+1  -1.74399E+2
   3.91350E-2  -2.82293E+2
  -2.16348E+1   1.13089E+2
   1.09731E+2  -2.03113E+1
   9.33687E+1   1.32756E+2
   1.98649E+1  -8.49992E+1
   4.32328E+1  -1.68696E+2
   1.44852E+2  -1.66548E+2
   1.40510E+2   1.35837E+1
  -7.28752E+1   1.15339E+2
  -1.58333E+2  -1.21191E+2
   1.78851E+1   1.80774E+1
  -5.68500E+1   1.49220E+2
   5.93633E+1   1.83645E+2
   1.60517E+1   8.20259E+1
  -1.93495E+1  -7.33013E+1
   2.92158E+2  -2.71803E+1
  -1.05376E+2   1.68319E+2
   1.82428E+2  -3.10667E+1
  -2.16246E+1   6.81631E+1
  -5.23078E+1   6.38110E+1
  -9.06388E+1  -7.81214E+0
   3.17388E+2  -7.15255E+0
  -9.07232E+1   1.25231E+2
   1.85354E+2   7.98151E+1
   1.81634E+2   1.38650E+2
   1.02010E+2   1.18775E+2
   1.32975E+2  -1.81096E+2
  -2.72692E+1  -2.01729E+2
   1.94202E+2   8.97524E+1
   9.03677E+1   8.35634E+1
   5.71564E+1   1.42661E+2
  -6.08472E+1   2.51721E+2
   8.23218E+1  -8.55098E+1
   1.13724E+2   6.69605E+1
   1.31212E+2  -2.85835E+1
   1.31430E+2   4.27712E+2
   6.44538E+1  -1.02700E+2
   7.84562E+1  -4.95182E+1
  -1.13930E+2  -1.85403E+2
   2.17122E+2   1.23031E+1
   1.47142E+2  -1.99155E+2
   2.67721E+2   1.40467E+1
   7.70002E+1   7.43181E+1
  -1.29665E+1   1.19608E+2
   9.08611E+1   9.07465E+1
  -9.73681E+1  -4.59608E+1
  -2.85964E+2  -1.78472E+2
  -2.79432E+2  -1.72105E+2
   1.56090E+2   1.39246E+2
   1.00114E+2   4.26883E+1
   1.49881E+2  -9.10743E+1
   2.07364E+2   4.56462E+1
   8.67040E+1   8.01306E+1
   3.20328E+2   2.74352E+2
  -3.97262E+1  -7.66587E+1
   4.19649E+1   4.36836E+1
  -1.42745E+1   8.35401E+1
   1.66346E+2  -8.20023E+1
  -3.05876E+0  -9.27527E+1
   1.28101E+2  -1.12379E+0
  -3.06077E+1  -6.70546E+0
  -5.73117E+1   6.08204E+0
   1.69036E+2  -3.97515E+0
   2.95310E+2   8.81013E+0
   2.25721E+2   1.44998E+2
  -1.04955E+2   1.26032E+2
   2.33272E+2   6.60575E+1
   2.67925E+2  -1.75827E+2
  -3.86487E+1  -1.04852E+2
   1.92795E+2  -1.35176E+2
  -3.21095E+1  -1.72354E+1
  -1.51904E+2  -8.50766E+1
  -2.49527E+2  -1.22334E+2
   3.40132E+1  -2.28168E+2
  -1.68668E+2  -1.54851E+2
   2.25374E+2   6.33818E+1
   2.58057E+2   1.06001E+2
   1.24466E+2   1.64795E+2
   1.59891E+2   3.09730E+0
  -6.11253E+1   7.35847E+0
  -5.85382E+1   2.02040E+2
  -2.03770E+0  -7.51495E+1
  -1.57025E+2   4.03275E+1
  -1.33262E+1  -1.07346E+2
   4.33592E+0  -3.75819E+1
  -1.14625E+2   2.41028E+2
   3.85489E+1  -1.30380E+2
  -2.18326E+1  -3.17982E+1
   7.67836E+1  -1.00381E+2
  -2.02903E+2  -7.02595E+0
   1.79740E+2  -3.32895E+0
   2.17098E+2   1.23262E+2
  -4.70616E+1   4.60130E+1
