 
 $NMID
 ID=''
 FMTDAT='(2E13.5)'
 TRAMP=   1.00000E+0
 VOLUME=   1.00000E+0
 $END
   9.91555E+3  -1.77375E+4
  -5.25159E+3  -2.51740E+4
  -2.59801E+4   2.16681E+3
   1.10983E+4   2.14804E+4
   2.80073E+4  -6.04958E+3
  -9.55662E+3  -2.15645E+4
  -2.10795E+4   3.25421E+3
   8.06178E+3   1.27273E+4
   1.51046E+4  -4.92210E+3
  -3.66641E+3  -8.53749E+3
  -9.03289E+3   5.64599E+3
   3.16782E+3   9.67348E+3
   1.00684E+4  -2.32051E+3
  -6.96003E+2  -5.66537E+3
  -9.58557E+3   5.28723E+3
   1.03107E+3   5.50543E+3
   8.71962E+3  -6.58316E+3
  -1.75902E+3  -5.41239E+3
  -6.33297E+3   4.77939E+3
   2.46287E+3   3.12903E+3
   4.62524E+3  -3.43266E+3
  -1.78073E+3  -2.37398E+3
  -2.40733E+3   1.19382E+3
   2.61928E+3   1.63811E+3
   2.04594E+3  -1.23891E+3
  -2.69433E+3  -2.49673E+3
  -1.22852E+3   9.73939E+2
   4.18706E+3   1.98393E+3
   1.26600E+3  -2.26075E+3
  -3.53082E+3  -4.75222E+2
   5.31774E+2   3.15799E+3
   3.72301E+3  -7.40317E+2
  -6.17292E+2  -2.95949E+3
  -2.50838E+3   2.87347E+3
   2.11688E+2   3.81694E+3
  -1.39311E+2  -3.43995E+3
  -1.58964E+3  -3.88743E+3
   7.46234E+2   2.55921E+3
   2.50383E+3   2.25232E+3
   1.79608E+2  -2.58423E+3
  -1.60774E+3  -1.03735E+1
   6.36329E+2   3.83381E+3
   1.13220E+3   1.27708E+2
  -1.90894E+3  -3.38376E+3
  -2.11009E+3  -7.87882E+2
   2.08342E+3   7.79086E+2
   2.99177E+3  -1.05351E+3
  -4.60719E+2  -1.46302E+2
  -2.04709E+3   2.15103E+3
   7.44553E+2   1.29810E+3
   9.22022E+2  -1.01683E+3
  -1.90777E+3  -5.57283E+2
  -1.28200E+3   1.04503E+3
   1.80755E+3  -4.67867E+1
   9.82264E+2  -1.51819E+3
  -1.18245E+3  -2.36539E+2
  -2.12021E+1   1.40831E+3
   1.23531E+3   8.16150E+2
  -6.86993E+2  -5.52815E+2
  -2.15500E+3  -3.28765E+2
  -8.41553E+2  -1.19160E+2
   1.35019E+3  -7.27393E+2
   1.24216E+3  -7.32466E+2
   3.63788E+2   4.27824E+2
   5.15422E+2   1.09036E+3
   6.67289E+2   1.23873E+3
  -2.36979E+2   7.35628E+2
  -1.80223E+3   3.53622E+2
  -1.00020E+3  -6.54580E+2
   1.32418E+3  -7.37195E+2
   6.79936E+2   1.99195E+2
  -1.33607E+3   6.22393E+2
  -1.14148E+3  -1.89137E+2
   1.00228E+3  -7.86066E+2
   8.31187E+2  -3.15837E+2
  -6.71143E+2   3.06006E+2
  -5.46543E+2  -1.88077E+1
   9.61143E+2  -4.54045E+2
   6.23646E+2  -1.91018E+1
   9.19753E+0   6.14868E+2
   2.92763E+2   4.46037E+2
   3.54334E+2   1.74577E+2
  -2.12265E+2  -2.61019E+2
  -4.35862E+2   8.63564E+1
   5.93196E+0   3.14335E+2
  -9.65309E+1  -1.72963E+2
  -8.22176E+2  -5.07810E+2
  -2.81851E+2  -2.67185E+2
   1.13104E+2  -1.02856E+2
  -1.85949E+2  -9.77590E+1
  -6.49251E+2  -4.52736E+2
  -1.61304E+2  -2.06818E+2
   6.99397E+2  -6.06687E+2
   6.92884E+2  -1.87995E+2
  -1.15094E+2   7.06021E+2
  -9.09783E+2   5.34254E+2
  -3.25021E+2   5.87481E+1
  -1.49061E+2   2.49312E+1
  -3.18610E+2   2.20771E+2
  -8.60246E+2   2.98382E+1
  -5.85785E+2  -4.20347E+2
   1.88843E+2  -3.60221E+2
   4.49114E+2   1.30105E+1
  -7.86399E+0   4.55255E+2
  -3.78415E+2   2.12653E+2
  -4.17742E+2  -1.39279E+2
   6.42190E+1  -5.36091E+2
   5.43320E+2   1.18933E+2
   1.71102E+2   8.34597E+2
  -5.74555E+2   5.25244E+2
  -7.06620E+2  -3.12983E+2
  -2.38425E+2  -3.19043E+2
  -4.23362E+1   1.71564E+2
   1.74816E+2   6.12465E+1
   3.65966E+0  -2.40713E+2
   9.46651E+1  -2.25755E+2
   4.73043E+2   2.86826E+2
   2.72907E+2   7.60817E+2
   1.26500E+2   6.66975E+2
  -5.16752E+2   1.07706E+2
  -3.46739E+2   2.59817E+2
  -1.49869E+2   4.59300E+1
   2.16728E+2  -1.61777E+2
  -1.76227E+2  -1.50669E+2
   2.64150E+2   1.82668E+2
   3.51681E+2   7.34051E+1
   6.99651E+1   6.89893E+1
  -1.16139E+2  -1.29050E+2
  -2.98780E+2   9.89270E+1
   1.11058E+2  -6.90119E+1
   2.39358E+2  -4.33168E+2
   3.81102E+2   2.44876E+2
  -2.05675E+1   6.93011E+2
  -1.24036E+2   3.12957E+2
   3.64238E+2  -1.15866E+1
   7.01404E+1   5.79396E+1
   7.59708E+1   1.50384E+2
  -1.28379E+2   7.71559E+1
   1.33586E+2  -4.41905E+2
   6.78809E+1  -1.92940E+1
   2.33168E+2  -1.15164E+2
   3.26877E+1   1.86037E+2
  -1.92373E+2  -4.12414E+1
  -1.81608E+2  -1.33932E+2
   8.99159E+1  -3.71699E+2
   2.80424E+2  -1.92628E+2
   4.53685E+2  -2.30417E+1
   1.33626E+2   1.31189E+2
   8.52406E+0   1.34898E+2
   1.24458E+2   6.86609E+1
   4.32227E-1   5.77511E+1
  -2.88458E+2   1.46288E+2
  -3.92747E+2   6.65025E+1
  -1.00798E+2  -1.52240E+2
  -2.63658E+1  -2.55182E+2
   1.75168E+2   2.46775E+1
   9.00677E+1  -3.73829E+1
  -4.93599E+1  -1.65235E+2
  -9.68655E+1   1.08386E+1
   2.61138E+2   1.56974E+2
   1.81913E+2  -8.86766E+0
   4.78034E+1  -1.31307E+2
  -1.85099E+2  -4.79625E+1
   7.45323E+1   1.80121E+2
   5.57110E+1   2.85954E+2
  -1.62781E+2   9.05074E+1
  -2.34514E+2   3.94352E+1
   4.80567E+1   3.83025E+1
   7.65741E+1   8.38890E+1
  -1.95728E+2   1.56686E+2
  -1.76188E+2  -8.90345E+1
  -3.62776E+1  -5.73237E+1
   1.51086E+2  -1.40980E+2
   6.86561E+1  -2.11362E+2
   2.85038E+1   6.84852E+1
  -1.15463E+2  -1.67010E+2
   7.23617E+0  -9.03575E+1
   9.39447E+1  -5.56800E+1
  -5.81573E+0   2.97378E+0
  -7.62852E+1  -2.31251E+1
  -4.12787E+0  -2.67641E+2
  -1.03084E+2  -1.12523E+1
   1.86896E+2  -5.09217E+1
   9.84181E+1  -4.38152E+1
   8.05238E+1  -2.77676E+1
   1.18447E+2  -9.59551E+1
  -6.12630E+1   3.32120E+0
   4.50408E+1   1.93629E+2
  -2.11686E+2  -1.13072E+2
  -4.11861E+2   6.06317E+1
  -1.10511E+2  -1.40220E+2
   3.44683E+2  -2.67952E+2
   9.32335E+1  -1.91943E+2
  -2.55611E+1   1.13094E+2
   2.46109E+1   7.70837E+1
   1.61036E+1  -1.88222E+2
  -2.37749E+2  -8.42417E+1
  -6.12132E+1  -1.73845E+2
   1.78621E+2  -2.09526E+2
  -9.85194E+1  -2.79862E+2
   3.04670E+1   6.87255E+1
   1.10190E+1  -4.29268E+0
   6.71294E+1   7.44414E+1
  -1.93202E+2  -1.89560E+2
  -4.09697E+0  -4.14576E+1
  -3.79422E+1   1.46392E+2
   9.06250E+1  -1.90237E+2
  -5.90348E+1  -7.20404E+0
  -7.52336E+1   7.57162E+1
  -8.89664E+1  -7.32776E+1
  -2.43419E+2  -9.24839E+1
  -2.40621E+1  -5.78390E+1
  -1.21557E+2  -1.02688E+2
  -2.80866E+2  -2.62529E+2
   1.46804E+2  -1.13312E+2
  -1.44650E+2  -1.37783E+2
   4.49272E+1  -1.35964E+2
  -1.98892E+2  -3.32088E+1
  -1.22754E+2  -9.03648E+1
  -5.40799E+1  -1.68270E+2
  -3.33957E+2  -1.09607E+2
  -3.20237E+2  -1.11382E+2
  -5.63529E+1  -1.25843E+2
  -1.24807E+2  -1.62165E+2
   1.79353E+2   3.24507E+0
  -1.56451E+2   4.87390E+1
   9.40675E+1  -6.65544E+1
  -8.08420E+1  -2.72623E+2
   1.03654E+2  -2.47874E+2
   1.55582E+2  -7.23072E+1
  -7.19352E+0  -6.19519E+1
  -1.00041E+2  -4.21952E+1
   1.07590E+2   1.14923E+1
   6.01721E+1   7.28118E+1
  -1.66584E+2   2.10586E+2
  -3.22648E+1  -2.29462E+2
   8.78405E+1   2.91267E+2
  -1.67780E+2  -7.30676E+0
  -4.24343E+1  -4.33262E+1
  -3.68223E+2  -1.21129E+1
  -2.09595E+2  -2.60846E+2
  -3.18641E+2  -2.57544E+1
   1.48708E+2  -6.62396E+1
   1.95113E+2  -1.60322E+2
  -3.95606E+1   4.37326E+1
  -1.66765E+2  -1.69933E+2
  -9.11573E+1  -9.66909E+1
   1.47644E+2   5.35256E+1
  -1.82374E+1   2.51395E+1
  -1.79672E+1  -1.51663E+2
  -6.16908E+1  -2.52519E+2
  -1.11140E+2  -6.97269E+1
   1.12339E+2  -2.30962E+2
  -1.40038E+2  -3.93323E+1
  -1.67598E+2   7.15542E+1
  -2.92961E+2   6.34638E+1
  -1.76033E+2   2.54917E+2
  -1.75617E+2  -1.72464E+1
  -1.73941E+2  -9.78514E+1
   2.50746E+2  -1.04180E+2
  -1.88401E+1   2.87871E+0
   2.53175E+2  -2.17388E+2
  -5.19281E+1   2.32142E+2
  -1.65664E+1   1.72285E+2
  -1.57680E+2   1.27541E+2
   1.22380E+2  -1.48174E+2
  -3.88908E+1   1.34768E+2
   1.10989E+2   1.13624E+2
  -3.71663E+1   3.26949E+2
  -6.50231E+1   1.07671E+0
   3.86659E+1  -4.82625E+1
  -1.28063E+2   2.29427E+1
  -1.28922E+2   1.31752E+2
  -6.19705E+1  -1.78076E+2
  -1.64951E+2  -1.15821E+2
  -1.00698E+2  -7.41289E+1
   1.59059E+2   1.50524E+2
  -1.46131E+2  -9.38260E+1
  -1.20876E+2  -2.44495E+0
  -3.00604E+1   9.87951E+1
   1.52240E+2   9.57730E+1
  -1.45838E+2   3.25305E+1
   8.09724E+1   6.51165E+1
  -1.79095E+2   7.08832E+1
   5.04761E+1   3.02025E+1
  -3.86948E+1   7.75533E+1
   5.78380E+1  -2.18013E+0
   7.10978E+1   1.49139E+2
  -1.80451E+2  -8.22910E+1
   2.34083E+2  -1.94487E+2
   5.24430E+1   7.85605E+1
  -1.24655E+2  -1.90671E+2
  -6.28660E+1  -7.34983E+1
   8.88688E+1  -1.28148E+2
  -4.62861E+1   5.53526E+1
  -1.97591E+2   1.58390E+2
   2.12589E+2  -4.77795E+1
   5.74888E+1  -6.58256E+1
   2.16630E+2  -1.27876E+2
  -5.60084E+1  -6.77840E+1
   6.07827E+1  -6.21978E+1
  -1.86311E+2   2.61785E+1
   2.84567E+2   3.03214E+1
  -1.58854E+1  -2.28815E+2
   7.49637E+1   1.79093E+1
   1.81417E+2  -1.02896E+1
   2.03632E+2   1.41360E+2
  -4.52439E+1   4.31438E+1
   1.78623E+2   2.89411E+2
   2.20712E+1   1.96362E+2
  -1.52064E+1  -1.16295E+1
  -1.90462E+2  -8.76262E+0
   1.05987E+0  -7.48251E+1
   8.80487E+1  -1.44715E+2
  -1.21499E+2   2.76914E+1
  -1.86471E+2  -8.73886E+0
  -3.39927E+2  -7.33005E+1
  -2.67979E+1   2.22807E+1
  -7.99381E+1   1.01101E+2
   2.35170E+1   6.85474E+0
   1.69969E+2  -3.09541E+1
   1.85860E+1  -1.14494E+2
   9.24134E+1   5.34495E+1
  -2.36473E+1   3.30293E+2
  -1.19206E+2   1.60065E+2
  -1.24567E+2  -2.06159E+2
  -2.43028E+2  -1.84438E+2
  -8.36962E+0  -2.66542E+1
  -4.05816E+1   5.79556E+1
  -2.98870E+1   7.38655E+1
  -3.75520E+1  -4.53873E+1
   1.92465E+2  -2.44622E+1
  -3.14437E+0  -1.58186E+2
  -2.83043E+2  -2.37617E+1
  -8.65452E+1   5.41000E+1
   1.26559E+2   5.19294E+1
  -6.99180E+1  -1.99885E+1
   5.97466E+1   3.42288E+1
   3.65350E+1   1.62780E+2
  -7.09405E+1   5.87606E+1
  -5.56495E+1   8.47603E+1
  -5.47630E+1  -1.24801E+2
  -1.38179E+1  -1.92490E+2
  -5.34829E+1   9.00439E+1
  -2.80528E+1  -1.39320E+2
  -8.80982E+1  -1.88693E+2
  -1.27618E+2   1.22145E+2
  -6.11854E+1   6.95847E+1
  -5.79486E+1  -9.39759E+1
  -6.62880E+1   2.03056E+1
  -7.83256E+1  -8.71074E+1
  -6.24603E+1  -3.95898E+1
   1.39713E+2  -5.48740E+1
   4.77105E+1   6.40581E+0
   4.03320E+0  -5.80883E+1
   9.49719E+1   1.11575E+2
  -2.08726E+2   1.98785E+2
  -1.54295E+2   3.00171E+0
   2.22715E+0  -2.69771E+2
  -6.03036E+1  -1.33488E+2
   8.72731E+1  -2.34073E+1
  -1.87075E+2   2.78096E+2
  -2.72995E+2  -5.88585E+1
   5.38836E+1  -8.49923E+1
   6.07636E+1   2.76962E+2
  -3.75621E+1   5.53018E+0
   7.61133E+0  -7.62928E+0
