 
 $NMID
 ID=''
 FMTDAT='(2E13.5)'
 TRAMP=   1.00000E+0
 VOLUME=   1.00000E+0
 $END
  -1.56607E+4   3.30048E+3
   5.23273E+3   9.87861E+3
   9.14398E+3  -1.21254E+4
  -7.77416E+3   8.45706E+2
  -2.29973E+2   1.23361E+4
   6.23681E+3  -7.42285E+3
  -2.68411E+3  -7.11395E+3
   1.40968E+3   6.93399E+3
   5.08241E+3  -1.57342E+3
  -4.87659E+3  -2.21996E+3
  -3.76723E+3   7.88870E+3
   2.34351E+3  -1.41243E+2
  -1.90556E+3  -4.06660E+3
  -2.28558E+3   5.08278E+3
   5.42531E+2   4.63685E+2
  -6.56717E+2  -6.01677E+3
   1.10494E+3   6.95009E+2
   2.63547E+3   2.88931E+3
  -1.06981E+3  -1.37053E+3
  -6.34270E+2  -4.58803E+2
   1.05874E+3  -3.31146E+2
  -1.33531E+2  -1.82140E+3
   3.87270E+2   3.52285E+2
  -2.82346E+1   1.28819E+3
  -1.33878E+3  -1.02485E+3
   7.69050E+2  -1.50245E+3
   2.14032E+3   1.47443E+3
  -1.56558E+3   2.02112E+3
  -2.14451E+3  -8.44437E+2
   1.01422E+3  -7.68920E+2
   1.01001E+3   1.43736E+3
  -1.38311E+3   8.85066E+2
  -1.20102E+3  -2.07936E+2
  -6.21256E+2  -3.56489E+2
  -3.79602E+2  -1.63093E+3
   1.01340E+3  -2.11128E+3
   2.09580E+3   6.41266E+2
   4.02910E+2   1.58750E+3
  -1.45160E+3   3.72623E+2
   2.35660E+2  -2.50259E+1
  -3.31632E+2   9.00403E+2
  -1.45497E+3   8.36697E+1
   3.68429E+1  -1.87378E+3
   1.67820E+3  -1.38944E+3
   9.07467E+2   6.29089E+2
   9.68401E+2   1.24775E+3
   6.60102E+2   1.23965E+3
  -1.37012E+3   9.81738E+2
  -1.36908E+3  -2.67826E+2
  -8.07069E+2  -1.58732E+3
  -3.39762E+2  -5.99544E+2
   4.95547E+2  -3.41531E+2
   2.98872E+2  -8.27585E+2
   3.01466E+2   4.83203E+1
   7.09503E+2   3.19122E+2
   2.12970E+2   1.73770E+2
  -1.02244E+3   8.06305E+2
  -1.05592E+3  -1.48525E+2
   1.67288E+1  -2.02084E+3
   9.46688E+2  -7.67084E+2
   1.08546E+3   9.07059E+2
   6.62081E+2   5.78375E+2
   4.59578E+2   8.38283E+2
   1.21942E+2   1.49462E+3
  -1.49033E+3   7.62429E+2
  -2.04169E+3  -2.44590E+2
  -1.27395E+2  -1.24025E+3
   7.88113E+2  -1.85849E+3
   5.51678E+2  -4.31561E+2
   5.51161E+2   5.69967E+2
  -6.06783E+0   4.79014E+1
  -3.82289E+2  -4.23697E+2
   5.13755E+2  -3.89854E+2
   5.67351E+2   2.00717E+2
  -1.59191E+1   4.84241E+2
   3.23432E+1   2.69177E+2
   3.08218E+2  -1.96994E+2
   5.35447E+2   2.82582E+2
   3.83539E+2   5.43488E+2
   1.02391E+2   2.48540E+2
  -8.90340E+2  -1.03352E+1
  -4.12549E+2  -4.40403E+2
   3.75101E+2  -5.07638E+2
   1.50637E+2  -2.13506E+2
  -5.30901E+2   1.23298E+2
   1.00911E+2  -7.34557E+2
   6.76102E+2  -8.08897E+2
   5.43711E+2   8.40116E+1
   2.15045E+2   2.14197E+2
   3.38484E+1  -2.00263E+2
   5.62610E+2  -1.53239E+2
   8.39463E+2   9.18235E+1
   1.70407E+2   1.03290E+3
  -3.19160E+2   8.11073E+2
  -5.08290E+2  -1.14716E+2
  -4.42912E+2  -6.62671E+2
   9.47613E+1  -5.43951E+2
   4.68104E+2   2.45537E+2
  -1.21924E+2   8.53138E+1
  -7.82084E+1  -3.73923E+2
   8.32924E+2  -2.79676E+2
   5.79028E+2   4.24903E+2
  -3.13315E+2   5.75568E+2
  -5.68505E+2  -2.63929E+2
  -3.68124E+1  -7.91301E+2
   7.67389E+2   4.86168E+1
   6.63339E+2   6.40699E+2
  -3.41743E+2   4.39661E+2
  -7.21085E+2   1.65918E+2
  -1.91002E+2  -4.89650E+2
   5.43108E+2  -7.38248E+2
   6.60397E+2  -3.59807E+1
   4.66131E+2   5.22795E+2
  -5.72750E+0   3.61962E+2
   1.60866E+2   3.10724E+2
   1.95664E+2   2.44429E+2
  -3.24910E+2   4.34066E+2
  -8.72079E+2   5.12391E+2
  -3.76344E+2  -6.62975E+2
   1.16420E+2  -9.64063E+2
   4.70958E+2  -7.16906E+2
   6.10768E+2   2.91122E+2
   3.77540E+2  -2.11657E+1
   9.43206E+1   1.98870E+2
  -5.71569E+1   4.64154E+2
  -3.89308E+2   2.80657E+2
  -1.99962E+2  -4.05055E+2
   6.35887E+1  -1.98624E+2
   3.22214E+2  -7.41504E+1
   2.50155E+2   2.74361E+2
   7.55419E+1   2.71701E+2
  -2.44998E+2   5.66870E+2
  -6.57468E+2  -8.04579E+1
  -2.46393E+2  -3.19989E+2
   3.57463E+1  -7.98123E+1
  -1.97552E+2  -1.22775E+1
  -1.90687E+2   1.94577E+1
   4.74965E+2  -3.65270E+2
   3.50183E+2   1.80549E+2
  -5.20226E+1   7.01702E+2
  -4.67904E+2   6.10467E+2
  -5.42295E+2  -2.34458E+1
   9.88777E+1  -4.46366E+2
   2.88421E+2  -2.35620E+2
   2.87116E+2   3.70803E+2
  -2.56666E+1   6.53276E+2
  -1.83672E+2   1.98717E+2
  -5.21097E+1   1.85745E+2
  -8.90131E+1   2.69946E+2
  -3.07452E+2   1.77626E+2
  -2.72559E+2  -1.73635E+1
  -2.16503E+2  -2.04556E+2
   1.01306E+2   1.08063E+1
   3.18249E+2   9.51151E+1
  -5.61859E+1   1.19435E+2
  -3.16066E+1  -9.51625E+1
   1.91922E+2  -4.04016E+1
   8.41132E+1   2.95796E+2
   3.36309E+2   3.06276E+2
   5.79534E+1   6.77249E+1
   1.40977E+2   3.23717E+2
   1.17476E+1   1.75862E+2
  -3.25564E+1   1.40755E+2
  -1.97269E+2   4.66325E+1
  -1.34918E+2   1.87596E+1
   1.69672E+2   5.47070E+1
   6.19707E+1  -1.77190E+2
   1.25933E+2   3.97761E+2
  -1.42703E+2  -5.66641E+1
  -1.46267E+2  -7.38366E+1
  -1.95865E+1  -6.54961E+1
   3.48202E+2   2.34362E+1
   2.30397E+1   1.59436E+2
  -1.34002E+2  -6.36058E+1
  -4.16076E+1  -1.52332E+2
   1.86393E+1  -2.77321E+2
   2.49120E+1  -8.36409E+1
  -8.99002E+1   1.78254E+2
  -2.28615E+2  -3.60164E+1
  -1.75760E+2  -3.00332E+2
   2.41127E+2  -1.62069E+2
   4.50954E+2   4.97152E+1
   1.19336E+2   1.65433E+2
  -1.57235E+2   1.52194E+2
  -3.64329E+2   9.63179E+0
  -1.94437E+2   6.28535E+1
  -1.61352E+2   2.73363E+1
  -2.09121E+2  -4.32834E+2
  -2.67555E+2  -1.61942E+2
   3.06397E+2  -3.58868E+2
   2.91765E+2   8.05440E+1
   9.13364E+1   3.64958E+2
  -2.33994E+2   1.79765E+2
  -3.01356E+2   1.28827E+1
  -2.68678E+2  -1.00608E+2
  -4.17077E+0  -7.43435E+1
  -8.92502E+1   1.06597E+2
   3.39913E+1  -2.57936E+1
   5.34410E+0   2.52783E+1
  -3.67715E+1   2.24625E+2
  -2.20441E+2   4.49821E+1
  -2.96374E+2   1.03953E+2
  -5.07632E+2  -1.15034E+2
  -2.82259E+1  -2.58446E+2
   2.57224E+2  -2.36275E+2
   1.38059E+2  -3.89971E+1
  -1.09328E+2  -7.70866E+1
  -1.14741E+2  -5.11239E+1
  -5.64958E+1   2.21526E+2
   5.28864E+1   3.10344E+1
  -1.98043E+2   2.11367E+2
  -1.76786E+2  -1.33781E+1
  -1.78480E+2   1.61948E+2
   8.39480E+1   7.02442E+1
  -1.10196E+2   9.17493E+1
  -1.34048E+1   1.90554E+2
   1.66068E+1   4.14632E+1
  -1.70666E+2   6.31764E+0
  -7.42254E+1  -6.01882E+1
  -1.19558E+2  -1.63266E+2
  -2.04791E+2  -5.93517E+1
  -2.80057E+2  -1.29031E+2
  -1.35000E+2  -2.50332E+2
   1.09930E+2   1.40246E+1
  -4.12069E+0   1.56493E+2
  -2.15924E+2  -4.24533E+1
   2.35175E+0   2.24817E+2
   3.76682E+1  -1.11360E+2
   6.36734E+1  -3.30620E+0
  -3.94962E+1  -5.85718E+1
  -1.71367E+2  -7.19203E+1
  -2.08503E+2  -1.18464E+2
  -9.24886E+1  -1.35275E+2
  -1.70248E+1   2.04484E+2
  -1.39335E+2   1.17302E+2
  -7.61875E+1  -2.42285E+2
  -8.80752E+1   1.52458E+2
  -5.69923E+1   2.51493E+2
   2.60770E+1   1.94175E+2
  -1.35049E+2  -3.84729E+1
  -2.19496E+2  -1.07208E+2
   1.15108E+2  -1.62513E+2
   2.42986E+2   1.91417E+2
   3.79148E+1   1.73748E+2
  -1.53069E+2   3.68963E+0
  -8.97508E+1   6.71772E+1
  -8.12553E+1  -1.53929E+2
   1.12957E+2   1.30666E+2
  -8.86987E+1   1.88032E+2
  -1.42974E+2  -1.60628E+2
   1.51783E+2  -1.44961E+2
  -1.54436E+1   7.28615E+1
  -1.07240E+2   1.59180E+1
  -1.30668E+2   1.17723E+1
  -6.41453E+1  -1.78957E+2
  -1.25139E+2  -2.08051E+2
  -7.91248E+1  -1.86265E+2
   1.89847E+2  -1.13946E+2
   1.01348E+2   5.35072E+1
   1.66936E+2   5.25836E+1
   2.03710E+2  -1.15733E+2
  -2.00141E+2   3.07707E+1
  -2.17889E+2   1.18552E+2
  -2.47570E+2  -7.21531E+1
  -4.64875E+1  -1.89106E+2
   5.43274E+0  -2.74229E+1
   6.37217E+1  -5.19868E+1
  -5.19971E+1   2.10220E+2
  -2.29299E+2  -1.25384E+2
   5.84090E+1  -5.14353E+1
  -1.97014E+2   8.30840E+1
  -1.33096E+2  -1.04192E+2
  -1.59569E+2   1.44572E+2
  -4.66754E+1  -2.41965E+2
   1.58802E+2  -3.31304E+2
   8.40135E+1   2.53186E+1
  -1.17764E+2  -7.51261E+1
  -1.69305E+2  -1.23749E+2
   2.02644E+1  -2.75717E+2
   3.39008E+1  -3.30467E+2
   1.51820E+1  -3.56446E+2
   9.19750E+1   1.57945E+1
  -1.19681E+2   4.42668E+1
  -1.72917E+2  -1.20388E+2
  -1.21024E+2  -1.53299E+2
  -1.00514E+2   2.36717E+2
  -1.75294E+2   1.36788E+2
  -9.30201E+0  -4.34525E+1
  -2.45218E+2  -9.14841E+1
  -6.82335E+1  -1.72294E+2
  -1.92245E+2   1.29437E+2
  -5.48943E+1  -1.10679E+2
  -1.53055E+2   6.35068E+1
   5.14853E+0  -7.51797E+1
   1.02827E+2  -1.47722E+2
  -9.18344E+1  -8.57008E+1
  -1.84790E+2   2.20691E+0
  -1.59195E+2   6.96246E+1
  -1.85581E+2   2.45205E+1
   1.02486E+2   1.52198E+2
  -1.35765E+2  -3.13633E+1
  -1.90873E+2  -9.65377E+1
   1.83269E+2   6.94733E+1
  -1.34638E+2   1.43208E+2
  -1.19690E+2   1.46674E+2
  -1.53762E+2  -1.33579E+2
  -2.37681E+1   1.54406E+2
  -1.14904E+2  -6.90244E+1
  -1.21027E+2  -1.01990E+2
   1.74461E+1   1.13936E+2
  -3.72604E+1  -3.99441E+1
  -1.37132E+2  -8.85833E+1
  -8.53117E+1  -3.36390E+1
  -1.93164E+2   1.31335E+2
   4.44707E+1  -1.27636E+2
  -3.96182E+1   5.57991E+1
  -3.23540E+1   9.31929E+1
  -5.00301E+1   9.30191E+1
   3.53648E+1   2.14983E+2
  -1.61706E+2   8.52866E+0
  -9.23896E+1  -2.08092E+2
  -5.38051E+1  -1.50743E+2
  -1.16186E+2   1.86617E+2
  -6.23768E+1   3.38428E+2
  -9.83873E+1  -1.76294E+2
   2.13998E+1  -6.72189E+1
   1.32674E+2   1.32597E+2
   2.57333E+2   2.38242E+2
   1.31086E+2  -1.40835E+2
   7.45145E+1   1.72318E+1
  -2.54946E+2   2.82151E+1
   1.01521E+2  -1.83553E+2
   9.06707E+1  -2.20872E+1
  -9.90712E+0  -4.47258E+1
   4.42261E-1   1.97426E+2
   8.36628E+0   1.99067E+1
   7.00128E+1   1.20933E+2
   2.82316E+2   1.42755E+2
   1.98845E+2   8.09445E+1
  -1.57331E+2   5.65306E+1
   3.43518E+1  -4.85761E+1
   1.06816E+2  -1.27542E+2
   1.13452E+2   5.75122E+1
  -3.71559E+1  -1.47213E+2
  -3.49639E+1   8.70876E+1
   4.04444E+1   3.93903E+1
   4.27533E+1  -3.05232E+2
   1.04854E+1  -9.34000E+1
  -3.00192E+2  -1.12358E+2
   6.13147E+1  -6.69587E+1
  -2.13946E+1  -6.54787E+0
   2.09372E+2   4.84467E+1
   1.52386E+2  -2.50020E+1
  -9.86002E+1  -4.52924E+1
  -6.46191E+1  -2.93889E+1
  -1.04186E+2  -9.54000E+1
  -2.39514E+2  -2.53361E+2
  -2.30635E+1  -6.81126E+1
  -1.46791E+2  -6.15134E+0
  -1.57557E+2   1.72992E+2
  -9.84195E+1  -2.76048E+2
   2.19944E+1   4.42841E+1
   5.33665E+1  -1.60167E+2
  -2.05162E+2   3.99686E+1
   1.26311E+2   2.28039E+2
  -1.53215E+2   7.45555E+1
  -7.63936E+1   4.48259E+1
