 
 $NMID
 ID=''
 FMTDAT='(2E13.5)'
 TRAMP=   1.00000E+0
 VOLUME=   1.00000E+0
 $END
  -2.00888E+3   2.13932E+4
   1.54172E+4   8.02064E+3
   5.67871E+3  -1.86620E+4
  -9.02060E+3   1.36517E+2
   4.99477E+3   1.31777E+4
   3.99628E+3  -8.94889E+3
  -8.37835E+3  -5.75999E+3
   3.84509E+3   7.68573E+3
   8.07433E+3  -3.96468E+3
  -5.22832E+3  -2.19389E+3
  -8.86935E+2   9.45834E+3
   3.62325E+3  -9.27890E+2
  -3.70579E+3  -4.24146E+3
  -1.01513E+3   5.66003E+3
   1.28652E+2   2.42418E+2
  -4.81979E+3  -5.18825E+3
   1.14499E+3   1.05819E+3
   3.74045E+3   1.19466E+3
  -2.87284E+3  -2.86171E+2
  -8.44751E+2   8.96126E+2
   1.93090E+3  -1.25166E+3
  -1.71708E+3  -1.10258E+3
   5.26953E+2   8.93900E+2
   1.60556E+3  -1.40570E+1
  -2.29838E+3  -1.84975E+2
  -2.04458E+2  -5.61303E+2
   3.09670E+3  -9.28897E+2
  -2.33229E+2   2.03547E+3
  -1.67800E+3   1.67618E+3
   4.48714E+2  -1.49398E+3
   5.56423E+2  -1.62936E+0
  -1.25659E+2   1.98644E+3
  -8.36605E+2   2.12714E+2
  -1.87259E+3   5.06877E+1
  -1.58700E+3  -7.02677E+2
   4.58564E+2  -2.85329E+3
   1.75547E+3  -7.32321E+2
   1.43330E+3   1.93234E+3
  -2.41625E+2   1.59453E+2
  -2.97603E+2  -2.00656E+2
   2.06574E+2   1.82067E+3
  -7.46844E+2   6.71523E+2
  -9.97938E+2  -1.77321E+3
   5.86941E+2  -1.52736E+3
   1.35563E+3  -5.39520E+2
   1.24265E+3  -2.51407E+1
   1.22444E+3   1.12522E+3
  -2.49228E+1   2.00622E+3
  -1.66099E+3   4.85662E+2
  -1.20702E+3  -8.31668E+2
  -2.37937E+2  -1.05581E+3
   2.74509E+1  -5.54210E+2
   1.00030E+2  -5.33509E+2
   7.58323E+2  -5.34954E+2
   8.21767E+2  -4.49834E+1
   1.83032E+2   2.84242E+2
  -5.66116E+2   1.02697E+3
  -8.56696E+2  -5.86172E+0
  -6.62578E+2  -1.62888E+3
   3.99419E+2  -1.37438E+3
   9.28864E+2  -3.25151E+2
   7.85438E+2  -2.08734E+2
   8.43632E+2   5.02872E+2
   2.97638E+2   1.21229E+3
  -1.27453E+3   1.06118E+3
  -1.98875E+3   3.88311E+2
  -1.41084E+3  -9.44660E+2
  -4.97256E+2  -1.51054E+3
   2.71209E+2  -9.32758E+2
   6.80836E+2   2.16375E+2
  -4.07973E+2   2.73678E+2
  -8.51733E+2  -5.18472E+2
   2.79465E+2  -8.49838E+2
   9.09151E+2  -5.23206E+1
   1.24438E+2   5.19327E+2
  -2.49630E+2  -2.78517E+1
   4.79906E+1  -3.69042E+2
   3.78201E+2   8.48600E+1
   2.87636E+2   6.38658E+2
  -4.97032E+2   5.98637E+2
  -9.44496E+2   2.92056E+2
  -6.43933E+2  -8.76172E+1
  -1.77640E+2  -1.91259E+2
  -3.79530E+2  -4.86796E+1
  -4.85340E+2  -1.21220E+2
  -5.41919E+2  -4.45590E+2
   7.84363E+1  -8.95982E+2
   5.06005E+2   7.67799E+1
   3.55965E+2   1.71004E+2
  -2.59517E+1   5.52671E+1
   3.34584E+2  -5.75985E+2
   8.55269E+2   3.23039E+1
   4.26599E+2   7.49575E+2
  -3.09150E+2   1.32556E+3
  -7.89583E+2   3.99494E+2
  -8.29961E+2  -8.31780E+2
  -3.82859E+1  -5.30471E+2
   6.10574E+2   2.75470E+1
  -3.07416E+2  -1.36529E+2
  -3.61941E+2  -4.47103E+2
   6.52580E+2  -4.21660E+2
   7.13772E+2   5.90541E+2
  -8.73737E+1   6.01036E+2
  -1.06239E+3   2.42096E+2
  -1.40510E+2  -6.02195E+2
   7.59105E+2  -4.41034E+2
   7.78052E+2   3.37876E+2
  -2.07821E+2   9.60104E+2
  -1.11879E+3   1.55873E+2
  -8.63235E+2  -7.80836E+2
   4.17820E+2  -1.10153E+3
   8.71056E+2  -2.12182E+2
   5.91673E+2   3.93316E+2
  -5.55583E+1   4.50989E+2
   4.27267E+2   3.12077E+2
   2.92788E+2   5.55441E+2
  -1.84493E+2   7.97358E+2
  -8.97331E+2   5.09688E+2
  -1.02054E+3  -3.68266E+2
  -4.05690E+2  -9.59308E+2
   5.84127E+2  -7.30846E+2
   5.03028E+2  -3.49134E+1
   5.20415E+2   5.04443E+1
   3.94383E+2   1.44828E+2
   2.45574E+1   5.25382E+2
  -9.25745E+1   2.97159E+2
  -4.00598E+2  -5.18999E+1
  -1.19805E+2  -2.79254E+2
   2.17007E+2  -3.50145E+2
   5.26959E+2  -4.92201E+1
   2.47510E+2   4.83487E+2
  -3.78470E+2   6.16620E+2
  -6.76158E+2   1.48127E+2
  -1.02193E+2  -3.18803E+2
   7.94600E+1  -1.58451E+2
  -4.29627E+1  -4.24145E+1
  -1.31511E+2  -1.29203E+2
   4.09370E+2  -4.45902E+2
   5.94501E+2   2.62936E+2
   5.16534E+2   8.38171E+2
  -2.54264E+2   7.42249E+2
  -5.75978E+2   4.03771E+1
  -2.63939E+2  -6.81435E+2
   5.48050E+2  -4.14785E+2
   7.00992E+2   4.24040E+2
  -3.76114E+0   8.39444E+2
  -1.25784E+2   3.00037E+2
  -7.64134E+0   5.09435E+2
  -3.57408E+2   3.88163E+2
  -2.87495E+2   1.61806E+2
  -4.33248E+2  -2.54662E+1
  -3.59459E+2  -2.41549E+2
   2.53645E+2  -4.05471E+2
   5.92803E+2  -1.26594E+2
   2.02118E+2   3.20194E+2
  -7.43820E+1   1.65733E+2
   3.53708E+2  -1.47413E+2
   3.70982E+2   2.28654E+2
   2.38387E+2   4.09281E+2
   1.64197E+2   3.14092E+2
   3.78438E+1   2.68792E+2
   1.96318E+2   2.42619E+2
   2.44700E+1   4.18765E+2
  -1.84951E+2   2.84614E+2
  -5.57447E+2  -6.72101E+1
  -2.78271E+2  -4.33802E+2
   6.64411E+2  -1.71456E+2
   4.07078E+2   3.47891E+2
  -1.39242E+1   2.47926E+2
  -2.01325E+2  -1.59274E+2
   7.48463E+1  -1.23017E+2
   3.96271E+2  -1.05482E+2
   1.38765E+2   3.84481E+2
   1.71061E+2   1.21439E+2
  -3.51693E+2   1.78907E+2
   3.75462E+2  -2.52158E+2
   4.91525E+2   9.06186E+1
   8.65000E+1   4.80279E+2
  -2.32419E+2   2.74735E+1
   1.63795E+2  -3.75176E+2
   5.22867E+2  -8.50143E+1
   6.36702E+2   4.12893E+1
   1.96583E+2   3.95275E+2
  -9.21326E+0   4.92080E+2
  -7.60698E+1   1.99745E+2
  -3.38695E+1   1.94639E+2
   1.02463E+1  -2.03505E+2
  -2.29027E+2  -2.72341E+2
   2.64271E+1  -5.69475E+2
   7.21929E+2  -4.20727E+2
   8.30300E+2  -1.15175E+2
   1.89598E+2   4.46240E+2
  -2.85982E+2   7.20411E+2
  -2.95759E+2  -7.46366E+0
  -7.46054E+1  -2.97760E+2
  -1.15802E+2  -2.30307E+2
   1.00421E+2  -1.73503E+0
  -3.72020E+1  -1.52116E+2
   3.39067E+2  -1.89898E+2
   1.73375E+2   1.28674E+2
   6.68261E+1   2.76464E+2
  -3.59445E+2   2.74374E+2
  -3.40826E+2   2.13369E+1
   1.69592E+2  -2.90792E+2
   1.94825E+2  -1.87403E+2
   1.35621E+2   1.11644E+2
  -1.30661E+2  -1.24160E+2
  -1.89616E+2  -5.98825E+0
  -3.93598E+0  -1.22903E+2
   3.81421E+1   1.37509E+2
  -1.29725E+2   8.62966E+1
  -1.57738E+2  -2.94368E+2
   1.88621E+2  -4.86536E+2
   4.04210E+2   6.67408E+1
   1.13362E+2   4.35930E+2
  -1.70166E+2   4.44942E+2
  -4.77224E+2  -1.73274E+2
  -3.59974E+1  -1.62884E+2
  -1.23270E+2  -1.10387E+2
  -5.30407E+1  -1.24147E+2
  -1.76013E+2   8.61542E+1
  -7.28399E+1  -2.10964E+2
   1.39583E+2  -1.53507E+2
   9.42912E+1   1.35354E+2
  -1.99057E+2   4.05469E+2
  -3.90917E+2  -1.29747E+2
  -4.14052E+1  -2.06024E+2
   6.59572E+1  -3.07009E+2
   2.59638E+2   2.62325E+2
   2.39144E+1   3.70630E+2
  -3.17115E+2   1.36402E+2
   8.24129E+1  -2.60487E+2
   2.42739E+2   1.04417E+2
   3.45336E+1   4.56090E+1
  -3.98567E+2   3.04292E+2
   2.34747E+1   4.96841E+1
   3.07114E+2  -1.82912E+2
   3.13001E+2   1.69144E+2
  -2.34383E+0   2.04537E+2
  -2.21391E+2   2.38360E+2
  -1.77273E+2  -1.20885E+2
   3.12206E+2  -2.07995E+2
   2.24083E+2   2.37766E+2
  -1.84489E+2   3.98014E+2
   4.27310E+1  -8.98052E+0
  -2.08656E+2  -6.21171E+1
   4.88691E+1  -2.24246E+1
   5.25046E+1   2.06325E+2
   3.35062E+1   1.79136E+2
   1.89685E+2  -3.39974E+2
   1.64566E+2  -1.16865E+2
   1.60275E+2   3.68001E+2
  -1.32729E+2   1.06325E+2
  -1.62317E+2   3.05018E+2
  -4.29370E+1  -2.48314E+2
   1.43091E+2  -2.31656E+2
   2.30492E+2  -4.72026E+1
   2.82511E+2   1.41070E+2
   4.56877E+0   3.47747E+1
   2.39218E+2  -1.38876E+2
   4.98483E+1   2.87116E+2
  -9.12219E+1   4.20733E+2
  -3.42813E+2  -2.72628E+2
  -1.13199E+2  -2.86549E+2
   1.19237E+2  -1.15070E+2
   3.45863E+2  -1.66110E+2
   2.37141E+2   1.89286E+2
  -1.66085E+2   2.26277E+2
  -1.50919E+2  -1.38683E+0
  -4.46427E+1  -9.61290E+1
   1.46771E+2   1.01042E+2
   2.14777E+2  -4.53341E+1
   2.83585E+1  -1.89794E+1
   2.77592E+2  -2.39095E+2
   3.86001E+2   7.16348E+1
  -6.34932E+1   2.75463E+2
  -6.71150E+1   2.88235E+2
  -3.25054E+2  -6.77355E+1
   1.79542E+2  -5.35544E+2
   3.32258E+2  -1.68594E+2
  -1.33189E+2   7.91872E+1
   1.10640E+2   1.72352E+2
   3.57020E+2  -3.62914E+2
   3.45120E+2  -1.19292E+2
   4.28841E+1  -9.42981E+1
  -1.05363E+2   1.18626E+2
  -1.64493E+2  -3.47122E+2
  -2.48686E+2  -3.63145E+2
   9.75557E+1  -2.50140E+2
   3.38494E+2   1.59041E+2
  -3.30905E+1   1.80732E+2
  -1.22272E+2   1.36990E+2
  -3.55365E+1   4.39760E+1
   1.20583E+2  -9.76406E+1
  -2.12426E+2  -1.46659E+2
  -3.55559E+2  -2.87771E+2
  -2.37148E+2   6.88538E+1
  -1.02477E+2  -2.23628E+2
   7.64920E+1  -1.04031E+1
  -2.01151E+1  -4.76801E+1
  -2.92182E+2  -1.29221E+2
   5.28028E+1  -2.83351E+2
  -5.93789E+1   1.71953E+2
   4.21941E+1   7.55973E+1
  -2.66194E+2  -3.14695E+1
  -4.61639E+0  -2.72560E+1
   5.40728E+1  -1.35881E+2
  -4.74178E+1  -3.95061E+2
  -1.66089E+2   2.58281E+1
  -1.24011E+2  -3.31620E+1
  -1.61027E+1  -9.58858E+0
  -8.23668E+1  -1.14587E+2
   1.29906E+1   2.92758E+1
  -2.34197E+2   5.01153E+1
  -1.30427E+2   1.32888E+2
  -2.35134E+2  -2.51756E+1
   1.39827E+2   5.11835E+1
  -1.14977E+1   2.77470E+1
  -1.41732E+2  -3.30570E+1
  -8.77682E+1   5.78666E+1
  -3.70361E+1  -9.73109E+1
  -2.62962E+1  -4.97896E+1
   6.56173E+1   9.48748E+1
  -1.69640E+2  -3.72197E+1
  -2.03661E+2  -3.08271E+2
   1.83819E+2  -3.16211E+0
   2.63723E+2   1.50162E+2
   1.43717E+2   2.39376E+2
  -2.22064E+2   1.02831E+2
  -1.73303E+2  -3.77230E+1
  -1.70393E+2   5.22847E+0
  -1.43687E+2  -7.90438E+0
  -2.51113E+2  -6.43975E+1
   4.73372E+1  -2.71179E+2
   2.57904E+1  -7.34087E+1
   1.24233E+2  -6.27313E+1
  -2.55227E+1   2.61450E+2
   3.39558E+1   1.12320E+2
  -3.12195E+2  -4.85667E+1
  -1.84883E+2  -3.10509E+2
   1.42310E+2  -2.09437E+2
   1.85901E+2   8.41019E+1
  -1.27571E+2   2.87058E+2
   1.50454E+1  -6.85119E+1
   1.64391E+2  -5.10561E+1
  -2.61286E+2  -5.38204E+1
  -1.40771E+2  -1.28283E+2
  -2.24589E+2  -1.05813E+1
   2.62432E+1  -1.55494E+2
   2.17458E+2   1.20078E+2
   5.03768E+1   1.87275E+2
  -2.14418E+2   4.45464E+1
   8.73713E+0  -3.17176E+0
  -8.37962E+1   4.70774E+1
  -1.59611E+2   2.56257E+1
   1.59406E+2  -1.07464E+2
  -2.10876E+2   7.01989E-1
   1.13273E+2  -1.07295E+2
  -5.74685E+1   1.54290E+2
  -8.16002E+1   1.71173E+2
  -2.14611E+2   2.25480E+2
  -2.51911E+2  -1.38298E+2
  -1.62510E+2  -2.75585E+2
   1.90869E+2  -3.13821E+2
   1.13096E+2   1.03558E+2
   1.44296E+2   2.67633E+2
   8.76158E+1   3.50781E+1
