 LCModel (Version 6.3-1N) Copyright: S.W. Provencher.          Ref.: Magn. Reson. Med. 30:672-679 (1993).                
 Slice_N1@18_16  28-Feb-2025 11:39:30
 27 lines in following concentration table = NCONC+1
    Conc.  %SD /Cr+PCr  Metabolite                                         
 1.89E-04  11% 1.6E-04 Mac                                                 
    4.789  57%   4.043 Cr                                                  
    4.688  55%   3.957 PCr                                                 
    5.990  26%   5.056 Ins                                                 
    8.550  16%   7.218 NAA                                                 
    7.044  23%   5.947 Tau                                                 
    0.662 258%   0.559 PCho                                                
    0.914 177%   0.772 GPC                                                 
    9.488  19%   8.009 Glu                                                 
    0.915 140%   0.772 Gln                                                 
    0.000 999%   0.000 Ala                                                 
    0.865 265%   0.730 Asc                                                 
    2.134  69%   1.801 Asp                                                 
    0.520 160%   0.439 GABA                                                
    0.591 166%   0.499 Glc                                                 
    1.385  50%   1.169 GSH                                                 
    6.027  22%   5.088 Lac                                                 
    1.264  88%   1.067 NAAG                                                
    2.540  84%   2.144 PE                                                  
    1.576  36%   1.331 GPC+PCho                                            
    9.814  14%   8.284 NAA+NAAG                                            
   10.402  21%   8.781 Glu+Gln                                             
    9.477  13%   8.000 Cr+PCr                                              
    9.814  14%   8.284 NAA+NAAG                                            
    9.477  13%   8.000 Cr+PCr                                              
   10.402  21%   8.781 Glu+Gln                                             
   6 lines in following misc. output table
  FWHM = 0.033 ppm    S/N =   2                                            
  Data shift = 0.016 ppm                                                   
  Ph:-117 deg       0.0 deg/ppm                                            
  alphaB,S = 1.3E-01,   1.3E+01                                            
   19 spline knots.   Ns = 5(1)                                            
  ( 4) 2 infls.   ( 3) 1 extrs.                                            
  480 points on ppm-axis = NY
      4.100000     4.091866     4.083733     4.075600     4.067466     4.059333     4.051199     4.043066     4.034933     4.026799
      4.018666     4.010532     4.002399     3.994265     3.986132     3.977998     3.969864     3.961731     3.953597     3.945463
      3.937330     3.929196     3.921062     3.912929     3.904795     3.896662     3.888528     3.880394     3.872261     3.864127
      3.855993     3.847860     3.839726     3.831592     3.823459     3.815325     3.807191     3.799058     3.790924     3.782790
      3.774657     3.766523     3.758389     3.750256     3.742122     3.733989     3.725855     3.717721     3.709588     3.701454
      3.693320     3.685187     3.677053     3.668919     3.660786     3.652652     3.644518     3.636385     3.628251     3.620117
      3.611984     3.603850     3.595716     3.587583     3.579449     3.571316     3.563182     3.555048     3.546915     3.538781
      3.530647     3.522514     3.514380     3.506246     3.498113     3.489979     3.481845     3.473712     3.465578     3.457444
      3.449311     3.441177     3.433043     3.424910     3.416776     3.408643     3.400509     3.392375     3.384242     3.376108
      3.367974     3.359841     3.351707     3.343573     3.335440     3.327306     3.319172     3.311039     3.302905     3.294771
      3.286638     3.278504     3.270370     3.262237     3.254103     3.245970     3.237836     3.229702     3.221569     3.213435
      3.205301     3.197168     3.189034     3.180900     3.172767     3.164633     3.156499     3.148366     3.140232     3.132098
      3.123965     3.115831     3.107697     3.099564     3.091430     3.083297     3.075163     3.067029     3.058896     3.050762
      3.042628     3.034495     3.026361     3.018227     3.010094     3.001960     2.993826     2.985693     2.977559     2.969425
      2.961292     2.953158     2.945024     2.936891     2.928757     2.920624     2.912490     2.904356     2.896223     2.888089
      2.879955     2.871822     2.863688     2.855554     2.847421     2.839287     2.831153     2.823020     2.814886     2.806752
      2.798619     2.790485     2.782351     2.774218     2.766084     2.757951     2.749817     2.741683     2.733550     2.725416
      2.717282     2.709149     2.701015     2.692881     2.684748     2.676614     2.668480     2.660347     2.652213     2.644079
      2.635946     2.627812     2.619678     2.611545     2.603411     2.595278     2.587144     2.579010     2.570877     2.562743
      2.554609     2.546476     2.538342     2.530208     2.522075     2.513941     2.505807     2.497674     2.489540     2.481406
      2.473273     2.465139     2.457006     2.448872     2.440738     2.432605     2.424471     2.416337     2.408204     2.400070
      2.391936     2.383803     2.375669     2.367535     2.359402     2.351268     2.343134     2.335001     2.326867     2.318733
      2.310600     2.302466     2.294333     2.286199     2.278065     2.269932     2.261798     2.253664     2.245531     2.237397
      2.229263     2.221130     2.212996     2.204862     2.196729     2.188595     2.180461     2.172328     2.164194     2.156060
      2.147927     2.139793     2.131660     2.123526     2.115392     2.107259     2.099125     2.090991     2.082858     2.074724
      2.066590     2.058457     2.050323     2.042189     2.034056     2.025922     2.017788     2.009655     2.001521     1.993387
      1.985254     1.977120     1.968987     1.960853     1.952719     1.944586     1.936452     1.928318     1.920185     1.912051
      1.903917     1.895784     1.887650     1.879516     1.871383     1.863249     1.855115     1.846982     1.838848     1.830714
      1.822581     1.814447     1.806314     1.798180     1.790046     1.781913     1.773779     1.765645     1.757512     1.749378
      1.741244     1.733111     1.724977     1.716843     1.708710     1.700576     1.692442     1.684309     1.676175     1.668041
      1.659908     1.651774     1.643641     1.635507     1.627373     1.619240     1.611106     1.602972     1.594839     1.586705
      1.578571     1.570438     1.562304     1.554170     1.546037     1.537903     1.529769     1.521636     1.513502     1.505368
      1.497235     1.489101     1.480968     1.472834     1.464700     1.456567     1.448433     1.440299     1.432166     1.424032
      1.415898     1.407765     1.399631     1.391497     1.383364     1.375230     1.367096     1.358963     1.350829     1.342695
      1.334562     1.326428     1.318295     1.310161     1.302027     1.293894     1.285760     1.277626     1.269493     1.261359
      1.253225     1.245092     1.236958     1.228824     1.220691     1.212557     1.204423     1.196290     1.188156     1.180022
      1.171889     1.163755     1.155622     1.147488     1.139354     1.131221     1.123087     1.114953     1.106820     1.098686
      1.090552     1.082419     1.074285     1.066151     1.058018     1.049884     1.041750     1.033617     1.025483     1.017349
      1.009216     1.001082     0.992949     0.984815     0.976681     0.968548     0.960414     0.952280     0.944147     0.936013
      0.927879     0.919746     0.911612     0.903478     0.895345     0.887211     0.879077     0.870944     0.862810     0.854676
      0.846543     0.838409     0.830276     0.822142     0.814008     0.805875     0.797741     0.789607     0.781474     0.773340
      0.765206     0.757073     0.748939     0.740805     0.732672     0.724538     0.716404     0.708271     0.700137     0.692003
      0.683870     0.675736     0.667603     0.659469     0.651335     0.643202     0.635068     0.626934     0.618801     0.610667
      0.602533     0.594400     0.586266     0.578132     0.569999     0.561865     0.553731     0.545598     0.537464     0.529330
      0.521197     0.513063     0.504930     0.496796     0.488662     0.480529     0.472395     0.464261     0.456128     0.447994
      0.439861     0.431727     0.423593     0.415460     0.407326     0.399192     0.391059     0.382925     0.374792     0.366658
      0.358524     0.350391     0.342257     0.334124     0.325990     0.317856     0.309723     0.301589     0.293455     0.285322
      0.277188     0.269055     0.260921     0.252787     0.244654     0.236520     0.228386     0.220253     0.212119     0.203986
 NY phased data points follow
  -2.55491E+01 -2.94706E+01 -2.73945E+01 -2.29745E+01 -2.83030E+01 -2.92664E+01 -3.33218E+01 -3.88844E+01 -2.94897E+01 -2.41300E+01
  -3.09774E+01 -4.32054E+01 -4.98218E+01 -4.97269E+01 -5.03780E+01 -5.42875E+01 -6.22101E+01 -6.22145E+01 -5.14381E+01 -7.61109E+01
  -9.46010E+01 -7.77237E+01 -7.15837E+01 -5.93578E+01 -4.82944E+01 -3.21053E+01 -2.79194E+00  3.84624E+00  2.02832E+00  1.68032E+01
   1.28129E+01  7.68171E+00  1.35866E+01  1.26396E+01  1.41610E+01  8.90026E+00  1.63018E+01 -1.05106E-01 -1.10155E+01 -1.47993E+01
  -3.21766E+01 -3.24047E+01 -5.33121E+01 -3.19540E+01 -2.40346E+01 -3.06437E+01  7.07429E+00  1.26352E+01  2.52164E+01  3.46879E+01
   3.13399E+01  3.24554E+01  2.85844E+01  2.78128E+01  2.44279E+01  1.83141E+01  3.91880E+00 -7.04573E-01 -5.59339E+00 -1.16228E+01
  -1.17076E+01 -1.93236E+00  1.49685E+00 -7.13515E-01  2.03024E+01  2.22417E+01  3.08858E+01  3.63747E+01  1.73430E+01  7.55553E-01
  -2.72911E+01 -1.92961E+01 -1.26905E+01 -1.75554E+01  3.54304E-01  5.02816E+00  1.68191E+01  3.85429E+01  3.78176E+01  2.16298E+01
   2.84643E+01  2.09984E+01  1.16057E+01  1.91561E+01 -2.06322E+00 -1.07011E+01 -1.29284E+01 -8.28342E+00  1.61413E+01  2.43048E+01
   2.48481E+01  3.53473E+01  4.91881E+01  5.82632E+01  5.52343E+01  5.05452E+01  6.21755E+01  6.86782E+01  5.88444E+01  5.09159E+01
   6.40486E+01  5.75778E+01  3.77791E+01  4.11186E+01  3.12955E+01  5.85488E+00 -1.28008E+01 -2.07245E+01 -3.35089E+01 -3.54861E+01
  -6.65822E+01 -1.12637E+02 -1.22217E+02 -1.21922E+02 -8.75120E+01 -5.50711E+01 -4.57658E+01 -3.98101E+01 -2.97866E+01 -1.80981E+01
  -1.07185E+01 -5.98833E-01  8.25575E+00  1.13622E+01  1.05793E+01  3.16378E+01  3.97238E+01  4.15043E+01  5.20545E+01  5.73648E+01
   7.98765E+01  1.12390E+02  9.94056E+01  3.72579E+01 -1.55244E+01 -5.32356E+01 -5.73658E+01 -6.80510E+01 -7.55754E+01 -6.40593E+01
  -6.48694E+01 -6.34452E+01 -6.30998E+01 -5.87871E+01 -7.66629E+01 -7.16762E+01 -6.83665E+01 -7.16381E+01 -5.84783E+01 -5.84389E+01
  -4.36971E+01 -4.81109E+01 -5.33325E+01 -4.93648E+01 -4.63372E+01 -5.05939E+01 -4.36683E+01 -3.02593E+01 -3.49345E+01 -3.76556E+01
  -3.54140E+01 -2.30522E+01 -3.01964E+01 -1.63140E+01 -1.99287E+01 -4.07464E+01 -2.81000E+01 -2.47275E+01 -2.20085E+01 -2.68978E+01
  -2.35121E+01 -1.69601E+01 -5.51975E+00  5.75560E+00  1.34451E+01 -1.98897E+00 -1.14313E+01  1.25896E+01 -1.71240E+00 -1.01894E+01
  -2.02160E+01 -2.21827E+01 -2.38992E+01 -4.84822E+01 -4.59632E+01 -4.97987E+01 -4.30696E+01 -4.83748E+01 -5.46967E+01 -2.95592E+01
  -3.22280E+01 -4.63572E+01 -4.00083E+01 -2.36253E+01 -1.31976E+01 -1.66077E+01 -2.87463E+01 -2.48289E+01 -8.69259E+00 -1.24247E+01
  -1.18725E+01 -1.25575E+01 -2.42397E+01 -1.44894E+01 -1.72188E+01 -3.22621E+01 -3.36392E+01 -3.34530E+01 -4.56143E+01 -7.48357E+01
  -8.82245E+01 -7.80367E+01 -7.21579E+01 -7.10042E+01 -5.22950E+01 -4.12291E+01 -2.76674E+01 -4.51415E+00 -1.08770E+01 -2.48429E+00
   1.67789E+01 -3.74569E+00 -2.46069E+01 -1.70421E+01 -1.72831E+01 -2.25535E+01 -9.61278E+00 -3.32498E+00 -1.45944E+01 -8.07501E+00
  -2.40781E+00 -8.12338E+00  3.02150E+00 -5.20415E+00 -1.61427E+01 -2.68855E+01 -4.11800E+01 -4.08184E+01 -5.32942E+01 -5.06190E+01
  -5.01386E+01 -5.93102E+01 -4.13781E+01 -3.53538E+01 -3.94399E+01 -3.56907E+01 -4.16652E+01 -3.85974E+01 -3.64732E+01 -4.75385E+01
  -5.13530E+01 -5.38590E+01 -6.74335E+01 -6.63803E+01 -5.66903E+01 -5.94842E+01 -7.40212E+01 -9.76645E+01 -1.57888E+01  9.53155E+01
   1.02505E+02  9.96464E+01  1.14343E+02  1.16350E+02  9.42091E+01  8.22301E+01  5.99352E+01  5.81872E+01  6.94240E+01  5.21963E+01
   6.22878E+01  6.13960E+01  6.13537E+01  5.29660E+01  5.08953E+01  4.25805E+01  4.44663E+01  6.23928E+01  3.58891E+01  4.93562E+01
   4.17225E+01  3.71729E+01  5.13983E+01  4.03639E+01  4.49275E+01  2.31590E+01  1.50762E+01  1.37583E+01  2.12771E+01  1.69517E+01
  -4.77173E+00 -6.03975E-01 -1.86507E+01 -2.29304E+01 -2.26976E+01 -4.46692E+01 -4.15223E+01 -4.26496E+01 -6.20126E+01 -6.51522E+01
  -6.15592E+01 -6.11156E+01 -5.40230E+01 -4.57993E+01 -5.29019E+01 -6.32040E+01 -5.76230E+01 -5.88130E+01 -7.09459E+01 -7.29811E+01
  -7.10728E+01 -7.03770E+01 -6.00789E+01 -4.66210E+01 -3.86338E+01 -4.06833E+01 -4.15264E+01 -2.67400E+01 -2.24873E+01 -2.17141E+01
  -5.98258E+00 -5.18853E+00  1.28029E+01  3.81589E+01  3.87728E+01  6.86517E+01  9.58247E+01  1.14369E+02  1.30243E+02  1.32940E+02
   1.46661E+02  1.42087E+02  1.20729E+02  9.42655E+01  8.56199E+01  8.12173E+01  6.23673E+01  4.71953E+01  5.08724E+01  5.57381E+01
   3.68327E+01  4.38493E+01  4.00648E+01  2.39604E+01  2.81097E+01  1.13422E+01  9.20284E+00  1.34702E+01 -3.58287E+00 -2.97646E+00
  -7.29837E-02 -2.57371E+00  2.87760E+00  2.76038E+00 -1.71402E+00 -1.29364E+01 -1.53382E+00  5.50770E+00 -1.51343E+01 -1.43747E+01
   6.54541E-01  1.87790E+00  1.81021E+00  1.00519E+01  5.32216E+00  8.85212E+00  1.20188E+01  2.19135E+01  2.92490E+01  3.89898E+01
   5.95720E+01  4.15738E+01  5.07342E+01  5.21975E+01  4.96388E+01  6.63141E+01  5.59565E+01  6.58262E+01  6.07789E+01  5.20229E+01
   6.14172E+01  6.49337E+01  7.19068E+01  7.33599E+01  7.61682E+01  8.54096E+01  8.87324E+01  9.93224E+01  1.10045E+02  1.06422E+02
   1.06822E+02  1.03532E+02  9.05650E+01  7.26233E+01  6.33384E+01  6.30762E+01  5.64257E+01  3.79707E+01  4.07061E+01  3.90488E+01
   1.58973E+01  6.13085E+00 -1.57546E+01 -1.61928E+01 -1.46733E+01 -2.24116E+01 -2.86707E+01 -3.73749E+01 -2.87664E+01 -3.01910E+01
  -2.69181E+01 -2.55716E+01 -4.09357E+01 -4.81846E+01 -2.99034E+01 -3.53538E+01 -3.13291E+01 -1.85307E+01 -4.14585E+01 -3.25141E+01
  -1.77808E+01 -2.17022E+01 -2.19371E+01 -1.77015E+01 -2.92776E+01 -1.67660E+01 -2.26253E+01 -3.45041E+01 -1.38933E+01 -2.70882E+01
  -2.06009E+01 -2.55497E+01 -1.13008E+01 -1.84872E+01 -3.40157E+01 -1.60907E+01 -3.79414E+01 -1.90144E+01 -1.52112E+01 -2.07716E+01
  -1.83256E+01 -2.71828E+01 -2.33824E+01 -2.52464E+01 -3.69300E+01 -2.77038E+01 -5.54169E+00 -2.48356E+01 -1.76270E+01 -2.67407E+01
  -3.58901E+01 -2.65645E+01 -2.89590E+01 -1.95844E+01 -2.78783E+01 -2.41687E+01 -3.02107E+01 -2.81059E+01 -2.55630E+01 -2.47816E+01
  -2.00686E+01 -1.72031E+01 -1.33902E+01 -2.75547E+01 -2.08868E+01 -2.13989E+01 -2.14068E+01 -2.16367E+01 -2.53957E+01 -2.63411E+01
  -2.69696E+01 -2.50158E+01 -2.05248E+01 -6.18191E+00 -1.58652E+01 -1.39551E+01 -1.52312E+01 -1.37385E+01 -1.10413E+01 -2.24875E+01
 NY points of the fit to the data follow
  -4.56484E+01 -4.30146E+01 -4.07038E+01 -4.02564E+01 -4.15688E+01 -4.13179E+01 -3.59429E+01 -2.80648E+01 -2.37358E+01 -2.47974E+01
  -2.91937E+01 -3.48600E+01 -4.09926E+01 -4.63611E+01 -5.01547E+01 -5.27361E+01 -5.47505E+01 -5.49671E+01 -5.65705E+01 -6.40271E+01
  -7.32048E+01 -7.70073E+01 -7.12913E+01 -5.91967E+01 -4.24796E+01 -1.90581E+01  2.50585E+00  1.29260E+01  1.83023E+01  2.23149E+01
   2.28501E+01  2.21500E+01  2.09785E+01  1.94787E+01  1.73558E+01  1.44992E+01  1.09220E+01  7.26142E+00  3.05465E+00 -4.18952E+00
  -1.49737E+01 -2.61020E+01 -3.19435E+01 -3.07126E+01 -2.47986E+01 -1.53018E+01 -3.04871E+00  8.55170E+00  1.69010E+01  2.15207E+01
   2.30120E+01  2.26922E+01  2.03515E+01  1.66230E+01  1.12780E+01  4.41900E+00 -9.13900E-01 -3.87185E+00 -7.29519E+00 -1.19931E+01
  -1.49389E+01 -1.24242E+01 -7.38721E+00 -3.31142E+00  3.97268E+00  1.35672E+01  1.98613E+01  2.30247E+01  2.04645E+01  9.31841E+00
  -3.91721E+00 -1.05719E+01 -9.65160E+00 -6.55446E+00 -1.39704E+00  8.59074E+00  1.92369E+01  2.63922E+01  3.16516E+01  3.43490E+01
   3.39478E+01  2.87336E+01  1.80305E+01  3.89315E+00 -1.04329E+01 -1.93372E+01 -2.00014E+01 -1.34369E+01 -2.73966E+00  8.62830E+00
   1.72150E+01  2.46606E+01  3.04614E+01  3.53599E+01  3.98357E+01  4.37588E+01  4.76281E+01  5.18556E+01  5.49824E+01  5.64633E+01
   5.82079E+01  5.93003E+01  5.74270E+01  4.89897E+01  3.54645E+01  1.91376E+01  2.03406E+00 -8.20690E+00 -1.44340E+01 -3.18564E+01
  -6.43058E+01 -9.30691E+01 -1.01449E+02 -9.19805E+01 -7.86535E+01 -6.44674E+01 -5.09296E+01 -4.03342E+01 -3.16901E+01 -2.42285E+01
  -1.74583E+01 -1.09456E+01 -4.31763E+00  2.72367E+00  1.04596E+01  1.92970E+01  3.00693E+01  4.32145E+01  5.43160E+01  6.58110E+01
   8.58999E+01  1.05432E+02  9.66956E+01  4.55092E+01 -1.96106E+01 -6.03517E+01 -7.53052E+01 -8.03255E+01 -7.77065E+01 -7.16798E+01
  -6.72913E+01 -6.43872E+01 -6.26298E+01 -6.16696E+01 -6.09461E+01 -6.01763E+01 -5.91321E+01 -5.74473E+01 -5.52464E+01 -5.29461E+01
  -5.06894E+01 -4.85535E+01 -4.65828E+01 -4.47505E+01 -4.28018E+01 -4.04927E+01 -3.81667E+01 -3.64249E+01 -3.55771E+01 -3.51437E+01
  -3.41166E+01 -3.22614E+01 -3.05908E+01 -3.04232E+01 -3.16354E+01 -3.26460E+01 -3.25142E+01 -3.16755E+01 -3.10137E+01 -3.06628E+01
  -2.88571E+01 -2.31803E+01 -1.46947E+01 -8.66031E+00 -8.57147E+00 -1.10125E+01 -1.00002E+01 -5.99559E+00 -4.66655E+00 -8.92491E+00
  -1.65478E+01 -2.38452E+01 -2.95115E+01 -3.40167E+01 -3.71471E+01 -3.87327E+01 -3.95219E+01 -3.96121E+01 -3.94209E+01 -3.88783E+01
  -3.73034E+01 -3.56263E+01 -3.42351E+01 -3.15613E+01 -2.67214E+01 -2.11953E+01 -1.86135E+01 -1.79187E+01 -1.51342E+01 -1.25380E+01
  -1.30750E+01 -1.50833E+01 -1.67857E+01 -1.80589E+01 -2.08505E+01 -2.61575E+01 -3.15390E+01 -3.63768E+01 -4.13023E+01 -4.53836E+01
  -4.86866E+01 -5.17939E+01 -5.31284E+01 -5.20607E+01 -4.61456E+01 -3.42880E+01 -1.78544E+01  5.47988E-01  1.49740E+01  2.25778E+01
   2.41231E+01  1.98110E+01  1.29538E+01  8.71014E+00  5.58836E+00  3.27253E+00  8.47085E-01 -2.60583E+00 -7.33511E+00 -1.33468E+01
  -2.02488E+01 -2.77284E+01 -3.52255E+01 -4.24733E+01 -4.91453E+01 -5.49387E+01 -5.95588E+01 -6.25447E+01 -6.35921E+01 -6.26497E+01
  -6.01194E+01 -5.75707E+01 -5.54632E+01 -5.32214E+01 -5.13689E+01 -4.97576E+01 -4.78889E+01 -4.71442E+01 -4.82020E+01 -5.03468E+01
  -5.30345E+01 -5.70969E+01 -6.43569E+01 -6.61060E+01 -6.50693E+01 -7.43936E+01 -8.91338E+01 -8.01740E+01 -3.07125E+01  2.82892E+01
   6.05891E+01  7.13682E+01  7.51525E+01  6.98862E+01  6.30457E+01  5.73414E+01  5.25339E+01  4.82885E+01  4.44982E+01  4.11983E+01
   3.84627E+01  3.64952E+01  3.52227E+01  3.45009E+01  3.41680E+01  3.39067E+01  3.34918E+01  3.29730E+01  3.23146E+01  3.15301E+01
   3.05114E+01  2.91971E+01  2.77735E+01  2.63288E+01  2.48642E+01  2.33154E+01  2.16749E+01  2.00465E+01  1.83559E+01  1.64795E+01
   1.43813E+01  1.21142E+01  9.78911E+00  7.50729E+00  5.36862E+00  3.72225E+00  2.91767E+00  3.05206E+00  3.98559E+00  5.40945E+00
   7.10626E+00  9.01592E+00  1.10965E+01  1.32107E+01  1.52932E+01  1.73112E+01  1.92459E+01  2.11506E+01  2.31764E+01  2.53474E+01
   2.74880E+01  2.94261E+01  3.11897E+01  3.28641E+01  3.44154E+01  3.57630E+01  3.68501E+01  3.76408E+01  3.80105E+01  3.78804E+01
   3.73868E+01  3.67026E+01  3.57131E+01  3.42993E+01  3.26242E+01  3.07397E+01  2.83882E+01  2.52157E+01  2.12111E+01  1.68315E+01
   1.27144E+01  9.26650E+00  6.90692E+00  6.06393E+00  7.10410E+00  1.02303E+01  1.53602E+01  2.13067E+01  2.77952E+01  3.59082E+01
   4.21821E+01  4.16375E+01  3.04225E+01  1.06307E+01 -1.05077E+01 -2.68045E+01 -3.26124E+01 -2.77557E+01 -1.98280E+01 -1.31756E+01
  -6.92978E+00 -3.11748E+00 -1.14696E+00 -5.59204E-01 -9.94366E-01 -1.87686E+00 -2.56462E+00 -2.71429E+00 -2.19611E+00 -9.66997E-01
   8.67048E-01  3.17133E+00  5.83461E+00  8.70867E+00  1.16230E+01  1.44244E+01  1.70643E+01  1.95583E+01  2.19577E+01  2.43184E+01
   2.66531E+01  2.89349E+01  3.12086E+01  3.35603E+01  3.60665E+01  3.87921E+01  4.17578E+01  4.49828E+01  4.85501E+01  5.25244E+01
   5.67699E+01  6.11259E+01  6.56877E+01  7.04635E+01  7.50881E+01  7.90638E+01  8.19253E+01  8.30572E+01  8.18364E+01  7.80310E+01
   7.22378E+01  6.55107E+01  5.87839E+01  5.25326E+01  4.69923E+01  4.20290E+01  3.71573E+01  3.18681E+01  2.61256E+01  2.01499E+01
   1.41987E+01  8.68951E+00  4.04006E+00  2.91689E-01 -2.76929E+00 -5.14279E+00 -6.87991E+00 -8.18530E+00 -9.28508E+00 -1.02761E+01
  -1.11957E+01 -1.19606E+01 -1.25381E+01 -1.29840E+01 -1.34238E+01 -1.38072E+01 -1.40356E+01 -1.42563E+01 -1.46214E+01 -1.50235E+01
  -1.52429E+01 -1.53586E+01 -1.55833E+01 -1.58911E+01 -1.61159E+01 -1.63002E+01 -1.65649E+01 -1.68564E+01 -1.70779E+01 -1.71678E+01
  -1.72288E+01 -1.73698E+01 -1.76257E+01 -1.79473E+01 -1.82647E+01 -1.85250E+01 -1.86746E+01 -1.87740E+01 -1.88744E+01 -1.89839E+01
  -1.91025E+01 -1.92559E+01 -1.93885E+01 -1.95335E+01 -1.97897E+01 -2.01180E+01 -2.04110E+01 -2.06061E+01 -2.07247E+01 -2.08226E+01
  -2.09387E+01 -2.11027E+01 -2.13366E+01 -2.15339E+01 -2.16017E+01 -2.16431E+01 -2.17063E+01 -2.17822E+01 -2.18856E+01 -2.19834E+01
  -2.20634E+01 -2.21722E+01 -2.23736E+01 -2.25967E+01 -2.28041E+01 -2.29809E+01 -2.31050E+01 -2.30840E+01 -2.29338E+01 -2.27657E+01
  -2.27515E+01 -2.29379E+01 -2.32086E+01 -2.34090E+01 -2.34963E+01 -2.35242E+01 -2.35216E+01 -2.34919E+01 -2.34706E+01 -2.34899E+01
 NY background values follow
    -1.845E+01   -1.826E+01   -1.807E+01   -1.788E+01   -1.769E+01   -1.750E+01   -1.731E+01   -1.712E+01   -1.693E+01   -1.674E+01
    -1.655E+01   -1.636E+01   -1.616E+01   -1.597E+01   -1.577E+01   -1.558E+01   -1.538E+01   -1.518E+01   -1.498E+01   -1.478E+01
    -1.458E+01   -1.437E+01   -1.417E+01   -1.396E+01   -1.376E+01   -1.355E+01   -1.334E+01   -1.313E+01   -1.291E+01   -1.270E+01
    -1.248E+01   -1.226E+01   -1.204E+01   -1.182E+01   -1.159E+01   -1.137E+01   -1.114E+01   -1.092E+01   -1.069E+01   -1.046E+01
    -1.024E+01   -1.001E+01   -9.782E+00   -9.555E+00   -9.329E+00   -9.103E+00   -8.878E+00   -8.653E+00   -8.430E+00   -8.209E+00
    -7.988E+00   -7.770E+00   -7.553E+00   -7.338E+00   -7.126E+00   -6.915E+00   -6.708E+00   -6.503E+00   -6.300E+00   -6.101E+00
    -5.905E+00   -5.712E+00   -5.523E+00   -5.337E+00   -5.155E+00   -4.976E+00   -4.801E+00   -4.629E+00   -4.461E+00   -4.297E+00
    -4.136E+00   -3.979E+00   -3.825E+00   -3.676E+00   -3.530E+00   -3.389E+00   -3.251E+00   -3.117E+00   -2.987E+00   -2.861E+00
    -2.740E+00   -2.622E+00   -2.508E+00   -2.399E+00   -2.294E+00   -2.193E+00   -2.097E+00   -2.004E+00   -1.917E+00   -1.833E+00
    -1.754E+00   -1.680E+00   -1.610E+00   -1.544E+00   -1.482E+00   -1.425E+00   -1.372E+00   -1.323E+00   -1.278E+00   -1.238E+00
    -1.201E+00   -1.168E+00   -1.139E+00   -1.113E+00   -1.091E+00   -1.073E+00   -1.059E+00   -1.048E+00   -1.041E+00   -1.037E+00
    -1.036E+00   -1.039E+00   -1.045E+00   -1.054E+00   -1.066E+00   -1.081E+00   -1.100E+00   -1.121E+00   -1.145E+00   -1.172E+00
    -1.202E+00   -1.235E+00   -1.270E+00   -1.308E+00   -1.349E+00   -1.392E+00   -1.438E+00   -1.487E+00   -1.539E+00   -1.593E+00
    -1.649E+00   -1.708E+00   -1.770E+00   -1.835E+00   -1.902E+00   -1.971E+00   -2.043E+00   -2.118E+00   -2.195E+00   -2.274E+00
    -2.356E+00   -2.440E+00   -2.527E+00   -2.617E+00   -2.708E+00   -2.802E+00   -2.899E+00   -2.998E+00   -3.099E+00   -3.202E+00
    -3.308E+00   -3.416E+00   -3.527E+00   -3.639E+00   -3.754E+00   -3.871E+00   -3.990E+00   -4.111E+00   -4.234E+00   -4.359E+00
    -4.486E+00   -4.614E+00   -4.745E+00   -4.877E+00   -5.011E+00   -5.146E+00   -5.283E+00   -5.422E+00   -5.562E+00   -5.704E+00
    -5.847E+00   -5.991E+00   -6.137E+00   -6.284E+00   -6.432E+00   -6.582E+00   -6.732E+00   -6.884E+00   -7.037E+00   -7.190E+00
    -7.345E+00   -7.500E+00   -7.657E+00   -7.813E+00   -7.970E+00   -8.128E+00   -8.285E+00   -8.443E+00   -8.600E+00   -8.757E+00
    -8.913E+00   -9.069E+00   -9.224E+00   -9.378E+00   -9.531E+00   -9.682E+00   -9.832E+00   -9.981E+00   -1.013E+01   -1.027E+01
    -1.042E+01   -1.056E+01   -1.069E+01   -1.083E+01   -1.096E+01   -1.109E+01   -1.122E+01   -1.135E+01   -1.147E+01   -1.158E+01
    -1.170E+01   -1.181E+01   -1.192E+01   -1.202E+01   -1.212E+01   -1.222E+01   -1.232E+01   -1.241E+01   -1.251E+01   -1.260E+01
    -1.269E+01   -1.277E+01   -1.286E+01   -1.295E+01   -1.304E+01   -1.312E+01   -1.321E+01   -1.330E+01   -1.338E+01   -1.347E+01
    -1.356E+01   -1.365E+01   -1.374E+01   -1.384E+01   -1.393E+01   -1.403E+01   -1.413E+01   -1.423E+01   -1.434E+01   -1.445E+01
    -1.456E+01   -1.468E+01   -1.480E+01   -1.492E+01   -1.505E+01   -1.518E+01   -1.531E+01   -1.545E+01   -1.559E+01   -1.573E+01
    -1.587E+01   -1.602E+01   -1.617E+01   -1.632E+01   -1.648E+01   -1.664E+01   -1.680E+01   -1.696E+01   -1.712E+01   -1.729E+01
    -1.746E+01   -1.763E+01   -1.780E+01   -1.797E+01   -1.815E+01   -1.832E+01   -1.850E+01   -1.868E+01   -1.886E+01   -1.905E+01
    -1.923E+01   -1.941E+01   -1.960E+01   -1.978E+01   -1.996E+01   -2.014E+01   -2.031E+01   -2.048E+01   -2.064E+01   -2.079E+01
    -2.094E+01   -2.107E+01   -2.120E+01   -2.131E+01   -2.141E+01   -2.150E+01   -2.158E+01   -2.164E+01   -2.168E+01   -2.171E+01
    -2.171E+01   -2.170E+01   -2.167E+01   -2.162E+01   -2.154E+01   -2.144E+01   -2.132E+01   -2.117E+01   -2.100E+01   -2.080E+01
    -2.057E+01   -2.031E+01   -2.003E+01   -1.972E+01   -1.939E+01   -1.903E+01   -1.865E+01   -1.825E+01   -1.784E+01   -1.740E+01
    -1.694E+01   -1.647E+01   -1.598E+01   -1.548E+01   -1.497E+01   -1.444E+01   -1.390E+01   -1.336E+01   -1.280E+01   -1.224E+01
    -1.167E+01   -1.110E+01   -1.052E+01   -9.939E+00   -9.356E+00   -8.773E+00   -8.191E+00   -7.610E+00   -7.032E+00   -6.458E+00
    -5.889E+00   -5.326E+00   -4.769E+00   -4.218E+00   -3.675E+00   -3.139E+00   -2.610E+00   -2.090E+00   -1.579E+00   -1.076E+00
    -5.836E-01   -1.006E-01    3.721E-01    8.341E-01    1.285E+00    1.724E+00    2.151E+00    2.566E+00    2.968E+00    3.357E+00
     3.733E+00    4.094E+00    4.440E+00    4.772E+00    5.089E+00    5.389E+00    5.674E+00    5.942E+00    6.193E+00    6.427E+00
     6.643E+00    6.841E+00    7.021E+00    7.184E+00    7.330E+00    7.459E+00    7.571E+00    7.666E+00    7.744E+00    7.806E+00
     7.852E+00    7.882E+00    7.896E+00    7.895E+00    7.878E+00    7.845E+00    7.798E+00    7.735E+00    7.658E+00    7.566E+00
     7.459E+00    7.338E+00    7.203E+00    7.055E+00    6.892E+00    6.716E+00    6.527E+00    6.324E+00    6.108E+00    5.879E+00
     5.638E+00    5.384E+00    5.119E+00    4.842E+00    4.555E+00    4.257E+00    3.949E+00    3.631E+00    3.305E+00    2.970E+00
     2.627E+00    2.277E+00    1.919E+00    1.555E+00    1.185E+00    8.085E-01    4.274E-01    4.143E-02   -3.487E-01   -7.427E-01
    -1.140E+00   -1.540E+00   -1.943E+00   -2.347E+00   -2.753E+00   -3.159E+00   -3.567E+00   -3.974E+00   -4.381E+00   -4.786E+00
    -5.191E+00   -5.594E+00   -5.995E+00   -6.395E+00   -6.794E+00   -7.191E+00   -7.586E+00   -7.979E+00   -8.371E+00   -8.761E+00
    -9.150E+00   -9.537E+00   -9.922E+00   -1.031E+01   -1.069E+01   -1.107E+01   -1.144E+01   -1.182E+01   -1.219E+01   -1.257E+01
    -1.294E+01   -1.331E+01   -1.367E+01   -1.404E+01   -1.440E+01   -1.476E+01   -1.512E+01   -1.547E+01   -1.583E+01   -1.618E+01
    -1.653E+01   -1.688E+01   -1.723E+01   -1.757E+01   -1.791E+01   -1.825E+01   -1.859E+01   -1.893E+01   -1.926E+01   -1.960E+01
    -1.993E+01   -2.026E+01   -2.059E+01   -2.092E+01   -2.125E+01   -2.158E+01   -2.190E+01   -2.223E+01   -2.256E+01   -2.288E+01
    -2.320E+01   -2.353E+01   -2.385E+01   -2.417E+01   -2.449E+01   -2.481E+01   -2.514E+01   -2.546E+01   -2.578E+01   -2.610E+01
 Mac      Conc. = 1.89E-04
  -3.16304E+01 -3.18535E+01 -3.19789E+01 -3.20516E+01 -3.21299E+01 -3.23050E+01 -3.27275E+01 -3.34287E+01 -3.42946E+01 -3.51128E+01
  -3.57250E+01 -3.60747E+01 -3.62034E+01 -3.61930E+01 -3.61730E+01 -3.64937E+01 -3.71309E+01 -3.72937E+01 -3.61837E+01 -3.39237E+01
  -3.13057E+01 -2.87258E+01 -2.61404E+01 -2.38839E+01 -2.23072E+01 -2.11299E+01 -2.00306E+01 -1.88663E+01 -1.75492E+01 -1.61174E+01
  -1.47647E+01 -1.36255E+01 -1.26359E+01 -1.17896E+01 -1.12317E+01 -1.09922E+01 -1.08092E+01 -1.02274E+01 -9.01966E+00 -7.51881E+00
  -6.30517E+00 -5.64875E+00 -5.28645E+00 -4.80246E+00 -4.05786E+00 -3.17284E+00 -2.41191E+00 -1.98227E+00 -1.91682E+00 -2.16420E+00
  -2.65477E+00 -3.24797E+00 -3.78404E+00 -4.15171E+00 -4.34433E+00 -4.41982E+00 -4.31577E+00 -3.88099E+00 -3.10983E+00 -2.20075E+00
  -1.27607E+00 -2.87708E-01  6.66221E-01  1.24935E+00  1.35330E+00  1.15479E+00  8.58220E-01  6.67683E-01  5.70328E-01  4.71850E-01
   6.33192E-01  1.43286E+00  2.83252E+00  4.33446E+00  5.52825E+00  6.37583E+00  6.82871E+00  6.87605E+00  6.64006E+00  6.31828E+00
   6.06410E+00  5.86731E+00  5.70929E+00  5.73181E+00  6.01211E+00  6.46694E+00  6.98840E+00  7.55826E+00  8.14447E+00  8.63968E+00
   9.03600E+00  9.35970E+00  9.58093E+00  9.68376E+00  9.58362E+00  9.14577E+00  8.26250E+00  6.99700E+00  5.48680E+00  3.92173E+00
   2.46455E+00  1.12518E+00 -3.70438E-01 -2.17287E+00 -4.29213E+00 -6.90610E+00 -1.02672E+01 -1.41347E+01 -1.77115E+01 -2.01844E+01
