 
 $NMID
 ID=''
 FMTDAT='(2E13.5)'
 TRAMP=   1.00000E+0
 VOLUME=   1.00000E+0
 $END
  -2.74475E+5   6.68463E+5
  -1.29283E+6   1.35756E+6
  -1.13390E+6   1.41932E+6
  -1.20426E+6   1.27952E+6
  -1.29232E+6   1.33308E+6
  -1.20688E+6   1.29255E+6
  -1.23794E+6   1.15307E+6
  -1.33206E+6   1.16814E+6
  -1.29248E+6   1.18810E+6
  -1.28057E+6   1.11696E+6
  -1.30911E+6   1.07940E+6
  -1.30391E+6   1.04746E+6
  -1.32187E+6   1.01066E+6
  -1.32438E+6   1.00791E+6
  -1.29475E+6   9.69010E+5
  -1.30684E+6   9.19187E+5
  -1.33049E+6   9.10791E+5
  -1.31983E+6   8.75288E+5
  -1.32475E+6   8.21219E+5
  -1.33191E+6   7.95788E+5
  -1.32785E+6   7.54991E+5
  -1.33703E+6   7.11204E+5
  -1.33613E+6   6.89799E+5
  -1.32524E+6   6.54463E+5
  -1.32891E+6   6.11182E+5
  -1.32291E+6   5.92271E+5
  -1.31156E+6   5.65690E+5
  -1.31101E+6   5.38878E+5
  -1.30338E+6   5.15958E+5
  -1.28978E+6   4.86161E+5
  -1.28949E+6   4.53322E+5
  -1.28296E+6   4.29201E+5
  -1.27416E+6   3.95965E+5
  -1.26896E+6   3.62715E+5
  -1.25740E+6   3.35170E+5
  -1.24821E+6   3.04157E+5
  -1.24706E+6   2.72271E+5
  -1.23711E+6   2.42508E+5
  -1.22177E+6   2.13961E+5
  -1.21434E+6   1.89572E+5
  -1.20361E+6   1.65683E+5
  -1.18886E+6   1.40367E+5
  -1.17634E+6   1.21379E+5
  -1.16640E+6   1.02209E+5
  -1.15358E+6   7.85140E+4
  -1.14128E+6   5.78948E+4
  -1.12903E+6   3.62292E+4
  -1.11770E+6   8.98941E+3
  -1.10336E+6  -1.67387E+4
  -1.08827E+6  -3.85105E+4
  -1.07516E+6  -6.13869E+4
  -1.06314E+6  -8.62991E+4
  -1.04905E+6  -1.09836E+5
  -1.03540E+6  -1.31191E+5
  -1.02150E+6  -1.52126E+5
  -1.00659E+6  -1.73801E+5
  -9.91255E+5  -1.93786E+5
  -9.76145E+5  -2.10710E+5
  -9.61493E+5  -2.26853E+5
  -9.47231E+5  -2.44812E+5
  -9.31369E+5  -2.62504E+5
  -9.16636E+5  -2.78408E+5
  -9.03053E+5  -2.95186E+5
  -8.86821E+5  -3.13369E+5
  -8.68391E+5  -3.30000E+5
  -8.51945E+5  -3.44573E+5
  -8.36786E+5  -3.59776E+5
  -8.19680E+5  -3.74680E+5
  -8.03276E+5  -3.88345E+5
  -7.88790E+5  -4.01978E+5
  -7.72769E+5  -4.15954E+5
  -7.55096E+5  -4.27130E+5
  -7.39419E+5  -4.36892E+5
  -7.24891E+5  -4.48462E+5
  -7.08482E+5  -4.60241E+5
  -6.91588E+5  -4.69772E+5
  -6.75180E+5  -4.78661E+5
  -6.59233E+5  -4.89205E+5
  -6.42471E+5  -4.99714E+5
  -6.24931E+5  -5.08579E+5
  -6.07826E+5  -5.16338E+5
  -5.91258E+5  -5.24760E+5
  -5.74414E+5  -5.32472E+5
  -5.57303E+5  -5.38782E+5
  -5.40843E+5  -5.44830E+5
  -5.24417E+5  -5.50470E+5
  -5.08654E+5  -5.55186E+5
  -4.93133E+5  -5.58931E+5
  -4.78014E+5  -5.62499E+5
  -4.62614E+5  -5.65665E+5
  -4.47623E+5  -5.68330E+5
  -4.32651E+5  -5.71284E+5
  -4.17271E+5  -5.74294E+5
  -4.01069E+5  -5.76725E+5
  -3.85243E+5  -5.78210E+5
  -3.70342E+5  -5.79719E+5
  -3.55683E+5  -5.81282E+5
  -3.40124E+5  -5.83172E+5
  -3.24938E+5  -5.83850E+5
  -3.10926E+5  -5.84002E+5
  -2.97308E+5  -5.84240E+5
  -2.82817E+5  -5.84486E+5
  -2.68031E+5  -5.83523E+5
  -2.54930E+5  -5.81918E+5
  -2.42194E+5  -5.80054E+5
  -2.29976E+5  -5.79171E+5
  -2.16972E+5  -5.77687E+5
  -2.03925E+5  -5.75916E+5
  -1.91286E+5  -5.73097E+5
  -1.79583E+5  -5.70075E+5
  -1.67743E+5  -5.67752E+5
  -1.55358E+5  -5.66137E+5
  -1.43079E+5  -5.63961E+5
  -1.30905E+5  -5.60986E+5
  -1.18815E+5  -5.57553E+5
  -1.07213E+5  -5.54830E+5
  -9.55223E+4  -5.51521E+5
  -8.44638E+4  -5.47353E+5
  -7.38846E+4  -5.42827E+5
  -6.40924E+4  -5.38630E+5
  -5.44466E+4  -5.35450E+5
  -4.45089E+4  -5.31642E+5
  -3.46773E+4  -5.27069E+5
  -2.52592E+4  -5.22844E+5
  -1.55187E+4  -5.18556E+5
  -6.30652E+3  -5.13479E+5
   2.93429E+3  -5.08056E+5
   1.14583E+4  -5.02883E+5
   1.98663E+4  -4.98036E+5
   2.84136E+4  -4.92703E+5
   3.73643E+4  -4.87479E+5
   4.60946E+4  -4.81410E+5
   5.41130E+4  -4.75439E+5
   6.17684E+4  -4.69617E+5
   6.93623E+4  -4.63856E+5
   7.69099E+4  -4.57379E+5
   8.37877E+4  -4.51632E+5
   9.06293E+4  -4.45551E+5
   9.72615E+4  -4.39275E+5
   1.04635E+5  -4.33064E+5
   1.10916E+5  -4.26463E+5
   1.16431E+5  -4.19283E+5
   1.21727E+5  -4.12418E+5
   1.27276E+5  -4.06091E+5
   1.33118E+5  -3.99529E+5
   1.38461E+5  -3.92648E+5
   1.43208E+5  -3.85319E+5
   1.48108E+5  -3.78273E+5
   1.52638E+5  -3.70737E+5
   1.56843E+5  -3.63610E+5
   1.60616E+5  -3.56566E+5
   1.64109E+5  -3.49405E+5
   1.67900E+5  -3.42449E+5
   1.71226E+5  -3.35758E+5
   1.74643E+5  -3.28469E+5
   1.77447E+5  -3.21315E+5
   1.80510E+5  -3.14765E+5
   1.83406E+5  -3.07846E+5
   1.85940E+5  -3.00723E+5
   1.88289E+5  -2.93694E+5
   1.90796E+5  -2.86860E+5
   1.92813E+5  -2.79810E+5
   1.94956E+5  -2.72750E+5
   1.96891E+5  -2.65773E+5
   1.98665E+5  -2.59021E+5
   1.99836E+5  -2.52552E+5
   2.01426E+5  -2.46384E+5
   2.03136E+5  -2.39421E+5
   2.04300E+5  -2.33207E+5
   2.05395E+5  -2.26652E+5
   2.06151E+5  -2.20499E+5
   2.07000E+5  -2.14493E+5
   2.07929E+5  -2.07994E+5
   2.08485E+5  -2.02237E+5
   2.08846E+5  -1.95953E+5
   2.09700E+5  -1.90268E+5
   2.10086E+5  -1.84354E+5
   2.10703E+5  -1.78110E+5
   2.11070E+5  -1.71708E+5
   2.10820E+5  -1.65932E+5
   2.11194E+5  -1.60503E+5
   2.11525E+5  -1.55159E+5
   2.11316E+5  -1.49354E+5
   2.11393E+5  -1.43622E+5
   2.11023E+5  -1.38372E+5
   2.10822E+5  -1.33003E+5
   2.10153E+5  -1.27902E+5
   2.09545E+5  -1.22701E+5
   2.09009E+5  -1.18042E+5
   2.08344E+5  -1.13265E+5
   2.08299E+5  -1.08547E+5
   2.07455E+5  -1.03519E+5
   2.06662E+5  -9.84187E+4
   2.05662E+5  -9.32338E+4
   2.04537E+5  -8.87805E+4
   2.03663E+5  -8.42397E+4
   2.02570E+5  -7.94857E+4
   2.01650E+5  -7.49758E+4
   2.00449E+5  -7.04495E+4
   1.99257E+5  -6.60278E+4
   1.97780E+5  -6.14252E+4
   1.96317E+5  -5.70139E+4
   1.94596E+5  -5.25218E+4
   1.92926E+5  -4.88978E+4
   1.91458E+5  -4.49700E+4
   1.89972E+5  -4.08621E+4
   1.88196E+5  -3.67782E+4
   1.86472E+5  -3.30023E+4
   1.84610E+5  -2.92560E+4
   1.82414E+5  -2.54990E+4
   1.80524E+5  -2.14396E+4
   1.78558E+5  -1.82741E+4
   1.76387E+5  -1.48657E+4
   1.74085E+5  -1.16223E+4
   1.72409E+5  -8.13063E+3
   1.70118E+5  -4.76482E+3
   1.67721E+5  -1.93230E+3
   1.65286E+5   9.74219E+2
   1.62866E+5   3.52282E+3
   1.60749E+5   6.56960E+3
   1.58051E+5   9.14754E+3
   1.55871E+5   1.20531E+4
   1.53466E+5   1.41795E+4
   1.51167E+5   1.68338E+4
   1.48620E+5   1.95928E+4
   1.46062E+5   2.16583E+4
   1.43873E+5   2.36380E+4
   1.41028E+5   2.58575E+4
   1.38741E+5   2.76033E+4
   1.36283E+5   2.98507E+4
   1.33729E+5   3.17620E+4
   1.31160E+5   3.34422E+4
   1.28665E+5   3.51710E+4
   1.26494E+5   3.64824E+4
   1.24150E+5   3.81041E+4
   1.21273E+5   3.93501E+4
   1.19116E+5   4.07149E+4
   1.16606E+5   4.19498E+4
   1.14211E+5   4.34498E+4
   1.11658E+5   4.42032E+4
   1.09444E+5   4.53376E+4
   1.07346E+5   4.61793E+4
   1.04682E+5   4.70431E+4
   1.02242E+5   4.79070E+4
   1.00172E+5   4.89961E+4
   9.81416E+4   4.95842E+4
   9.55598E+4   5.02982E+4
   9.35864E+4   5.08412E+4
   9.10853E+4   5.14171E+4
   8.91615E+4   5.20606E+4
   8.69683E+4   5.25183E+4
   8.47357E+4   5.28304E+4
   8.28296E+4   5.34286E+4
   8.07478E+4   5.37937E+4
   7.85647E+4   5.40071E+4
   7.65516E+4   5.41757E+4
   7.45122E+4   5.42023E+4
   7.26543E+4   5.49511E+4
   7.04303E+4   5.51420E+4
   6.85453E+4   5.52483E+4
   6.65578E+4   5.55749E+4
   6.47769E+4   5.53314E+4
   6.28176E+4   5.56207E+4
   6.08926E+4   5.55946E+4
   5.90358E+4   5.54420E+4
   5.72244E+4   5.52221E+4
   5.53783E+4   5.52209E+4
   5.37186E+4   5.52335E+4
   5.19143E+4   5.52600E+4
   5.02603E+4   5.48026E+4
   4.85834E+4   5.45607E+4
   4.68795E+4   5.40376E+4
   4.51710E+4   5.42927E+4
   4.35671E+4   5.38698E+4
   4.20089E+4   5.35516E+4
   4.05126E+4   5.30428E+4
   3.87201E+4   5.28488E+4
   3.71486E+4   5.24669E+4
   3.56939E+4   5.25090E+4
   3.43266E+4   5.16227E+4
   3.28145E+4   5.12064E+4
   3.13825E+4   5.08178E+4
   3.01830E+4   5.05023E+4
   2.89610E+4   5.02095E+4
   2.76934E+4   4.93309E+4
   2.61809E+4   4.90508E+4
   2.50441E+4   4.85914E+4
   2.37488E+4   4.77763E+4
   2.26459E+4   4.71558E+4
   2.14323E+4   4.68991E+4
   2.03916E+4   4.59751E+4
   1.92764E+4   4.54981E+4
   1.79677E+4   4.50398E+4
   1.73212E+4   4.43859E+4
   1.62630E+4   4.39838E+4
   1.52382E+4   4.31484E+4
   1.42246E+4   4.24573E+4
   1.33997E+4   4.21687E+4
   1.26421E+4   4.13772E+4
   1.16946E+4   4.06118E+4
   1.10659E+4   3.99263E+4
   1.01030E+4   3.93780E+4
   9.25874E+3   3.86406E+4
   8.58670E+3   3.81518E+4
   7.77609E+3   3.78314E+4
   7.00849E+3   3.67101E+4
   6.46619E+3   3.63137E+4
   5.95517E+3   3.55728E+4
   4.94217E+3   3.49836E+4
   4.31911E+3   3.44424E+4
   3.77171E+3   3.40097E+4
   3.38491E+3   3.32845E+4
   2.76165E+3   3.25753E+4
   2.41605E+3   3.23156E+4
   1.66178E+3   3.15123E+4
   1.38374E+3   3.07303E+4
   1.16945E+3   3.01822E+4
   5.48664E+2   2.96161E+4
   3.77787E+2   2.91588E+4
  -7.89367E+1   2.84159E+4
  -4.27617E+2   2.75933E+4
  -6.66443E+2   2.71180E+4
  -1.09828E+3   2.66157E+4
  -1.54921E+3   2.59891E+4
  -1.54351E+3   2.55157E+4
  -1.86580E+3   2.50387E+4
  -1.99081E+3   2.41966E+4
  -2.16947E+3   2.38241E+4
  -2.56487E+3   2.32660E+4
  -2.64318E+3   2.25597E+4
  -2.97422E+3   2.20380E+4
  -3.05765E+3   2.14691E+4
  -3.42934E+3   2.11519E+4
  -3.31839E+3   2.05589E+4
  -3.35221E+3   2.02140E+4
  -3.52479E+3   1.94774E+4
  -3.70505E+3   1.92074E+4
  -3.54697E+3   1.87052E+4
  -3.73821E+3   1.82651E+4
  -3.74471E+3   1.74078E+4
  -3.70844E+3   1.73514E+4
  -3.96123E+3   1.68238E+4
  -3.90183E+3   1.64065E+4
  -3.79542E+3   1.61523E+4
  -3.77122E+3   1.56265E+4
  -3.85783E+3   1.49603E+4
  -3.85566E+3   1.47281E+4
  -3.93338E+3   1.44228E+4
  -3.68032E+3   1.38897E+4
  -3.38545E+3   1.38269E+4
  -3.30758E+3   1.31741E+4
  -3.47363E+3   1.29165E+4
  -3.49306E+3   1.24491E+4
  -3.28614E+3   1.21588E+4
  -3.27360E+3   1.19938E+4
  -3.06138E+3   1.14411E+4
  -2.98060E+3   1.12281E+4
  -2.85732E+3   1.07353E+4
  -2.66711E+3   1.09646E+4
  -2.71609E+3   1.06241E+4
  -2.60886E+3   9.98719E+3
  -2.58231E+3   1.00059E+4
  -2.32222E+3   9.74234E+3
  -2.10942E+3   9.45713E+3
  -2.19449E+3   9.24538E+3
  -2.04284E+3   8.91711E+3
  -1.85901E+3   9.02921E+3
