 LCModel (Version 6.3-1N) Copyright: S.W. Provencher.          Ref.: Magn. Reson. Med. 30:672-679 (1993).                
 Slice_N1@17_10  28-Feb-2025 11:39:09
 27 lines in following concentration table = NCONC+1
    Conc.  %SD /Cr+PCr  Metabolite                                         
 1.69E-04  11% 1.1E-04 Mac                                                 
    7.838  35%   5.311 Cr                                                  
    3.968  68%   2.689 PCr                                                 
    7.480  18%   5.068 Ins                                                 
   12.407  10%   8.408 NAA                                                 
    8.061  17%   5.462 Tau                                                 
    1.859  27%   1.260 PCho                                                
    0.000 999%   0.000 GPC                                                 
   11.441  13%   7.753 Glu                                                 
    3.096  37%   2.098 Gln                                                 
    0.000 999%   0.000 Ala                                                 
    1.854 101%   1.256 Asc                                                 
    3.815  42%   2.585 Asp                                                 
    0.219 377%   0.149 GABA                                                
    0.522 208%   0.354 Glc                                                 
    1.171  57%   0.794 GSH                                                 
   10.583  11%   7.172 Lac                                                 
    2.107  48%   1.428 NAAG                                                
    3.157  63%   2.139 PE                                                  
    1.859  27%   1.260 GPC+PCho                                            
   14.514   8%   9.835 NAA+NAAG                                            
   14.537  13%   9.851 Glu+Gln                                             
   11.806   9%   8.000 Cr+PCr                                              
   14.514   8%   9.835 NAA+NAAG                                            
   11.806   9%   8.000 Cr+PCr                                              
   14.537  13%   9.851 Glu+Gln                                             
   6 lines in following misc. output table
  FWHM = 0.049 ppm    S/N =   3                                            
  Data shift =-0.008 ppm                                                   
  Ph: 175 deg       0.0 deg/ppm                                            
  alphaB,S = 8.6E-02,   3.5E+01                                            
   19 spline knots.   Ns = 6(1)                                            
  ( 5) 2 infls.   ( 2) 1 extrs.                                            
  480 points on ppm-axis = NY
      4.100000     4.091866     4.083733     4.075600     4.067466     4.059333     4.051199     4.043066     4.034933     4.026799
      4.018666     4.010532     4.002399     3.994265     3.986132     3.977998     3.969864     3.961731     3.953597     3.945463
      3.937330     3.929196     3.921062     3.912929     3.904795     3.896662     3.888528     3.880394     3.872261     3.864127
      3.855993     3.847860     3.839726     3.831592     3.823459     3.815325     3.807191     3.799058     3.790924     3.782790
      3.774657     3.766523     3.758389     3.750256     3.742122     3.733989     3.725855     3.717721     3.709588     3.701454
      3.693320     3.685187     3.677053     3.668919     3.660786     3.652652     3.644518     3.636385     3.628251     3.620117
      3.611984     3.603850     3.595716     3.587583     3.579449     3.571316     3.563182     3.555048     3.546915     3.538781
      3.530647     3.522514     3.514380     3.506246     3.498113     3.489979     3.481845     3.473712     3.465578     3.457444
      3.449311     3.441177     3.433043     3.424910     3.416776     3.408643     3.400509     3.392375     3.384242     3.376108
      3.367974     3.359841     3.351707     3.343573     3.335440     3.327306     3.319172     3.311039     3.302905     3.294771
      3.286638     3.278504     3.270370     3.262237     3.254103     3.245970     3.237836     3.229702     3.221569     3.213435
      3.205301     3.197168     3.189034     3.180900     3.172767     3.164633     3.156499     3.148366     3.140232     3.132098
      3.123965     3.115831     3.107697     3.099564     3.091430     3.083297     3.075163     3.067029     3.058896     3.050762
      3.042628     3.034495     3.026361     3.018227     3.010094     3.001960     2.993826     2.985693     2.977559     2.969425
      2.961292     2.953158     2.945024     2.936891     2.928757     2.920624     2.912490     2.904356     2.896223     2.888089
      2.879955     2.871822     2.863688     2.855554     2.847421     2.839287     2.831153     2.823020     2.814886     2.806752
      2.798619     2.790485     2.782351     2.774218     2.766084     2.757951     2.749817     2.741683     2.733550     2.725416
      2.717282     2.709149     2.701015     2.692881     2.684748     2.676614     2.668480     2.660347     2.652213     2.644079
      2.635946     2.627812     2.619678     2.611545     2.603411     2.595278     2.587144     2.579010     2.570877     2.562743
      2.554609     2.546476     2.538342     2.530208     2.522075     2.513941     2.505807     2.497674     2.489540     2.481406
      2.473273     2.465139     2.457006     2.448872     2.440738     2.432605     2.424471     2.416337     2.408204     2.400070
      2.391936     2.383803     2.375669     2.367535     2.359402     2.351268     2.343134     2.335001     2.326867     2.318733
      2.310600     2.302466     2.294333     2.286199     2.278065     2.269932     2.261798     2.253664     2.245531     2.237397
      2.229263     2.221130     2.212996     2.204862     2.196729     2.188595     2.180461     2.172328     2.164194     2.156060
      2.147927     2.139793     2.131660     2.123526     2.115392     2.107259     2.099125     2.090991     2.082858     2.074724
      2.066590     2.058457     2.050323     2.042189     2.034056     2.025922     2.017788     2.009655     2.001521     1.993387
      1.985254     1.977120     1.968987     1.960853     1.952719     1.944586     1.936452     1.928318     1.920185     1.912051
      1.903917     1.895784     1.887650     1.879516     1.871383     1.863249     1.855115     1.846982     1.838848     1.830714
      1.822581     1.814447     1.806314     1.798180     1.790046     1.781913     1.773779     1.765645     1.757512     1.749378
      1.741244     1.733111     1.724977     1.716843     1.708710     1.700576     1.692442     1.684309     1.676175     1.668041
      1.659908     1.651774     1.643641     1.635507     1.627373     1.619240     1.611106     1.602972     1.594839     1.586705
      1.578571     1.570438     1.562304     1.554170     1.546037     1.537903     1.529769     1.521636     1.513502     1.505368
      1.497235     1.489101     1.480968     1.472834     1.464700     1.456567     1.448433     1.440299     1.432166     1.424032
      1.415898     1.407765     1.399631     1.391497     1.383364     1.375230     1.367096     1.358963     1.350829     1.342695
      1.334562     1.326428     1.318295     1.310161     1.302027     1.293894     1.285760     1.277626     1.269493     1.261359
      1.253225     1.245092     1.236958     1.228824     1.220691     1.212557     1.204423     1.196290     1.188156     1.180022
      1.171889     1.163755     1.155622     1.147488     1.139354     1.131221     1.123087     1.114953     1.106820     1.098686
      1.090552     1.082419     1.074285     1.066151     1.058018     1.049884     1.041750     1.033617     1.025483     1.017349
      1.009216     1.001082     0.992949     0.984815     0.976681     0.968548     0.960414     0.952280     0.944147     0.936013
      0.927879     0.919746     0.911612     0.903478     0.895345     0.887211     0.879077     0.870944     0.862810     0.854676
      0.846543     0.838409     0.830276     0.822142     0.814008     0.805875     0.797741     0.789607     0.781474     0.773340
      0.765206     0.757073     0.748939     0.740805     0.732672     0.724538     0.716404     0.708271     0.700137     0.692003
      0.683870     0.675736     0.667603     0.659469     0.651335     0.643202     0.635068     0.626934     0.618801     0.610667
      0.602533     0.594400     0.586266     0.578132     0.569999     0.561865     0.553731     0.545598     0.537464     0.529330
      0.521197     0.513063     0.504930     0.496796     0.488662     0.480529     0.472395     0.464261     0.456128     0.447994
      0.439861     0.431727     0.423593     0.415460     0.407326     0.399192     0.391059     0.382925     0.374792     0.366658
      0.358524     0.350391     0.342257     0.334124     0.325990     0.317856     0.309723     0.301589     0.293455     0.285322
      0.277188     0.269055     0.260921     0.252787     0.244654     0.236520     0.228386     0.220253     0.212119     0.203986
 NY phased data points follow
  -5.72560E+01 -6.85404E+01 -7.61360E+01 -7.28986E+01 -8.28283E+01 -9.00783E+01 -7.93796E+01 -7.98523E+01 -8.15908E+01 -7.47621E+01
  -7.10887E+01 -7.61682E+01 -8.66496E+01 -9.41260E+01 -9.35872E+01 -9.87953E+01 -1.11150E+02 -1.19730E+02 -1.22846E+02 -1.12465E+02
  -1.12297E+02 -1.07674E+02 -1.19744E+02 -1.12308E+02 -7.68066E+01 -6.31638E+01 -3.29866E+01 -3.01232E+01 -2.32096E+01 -1.72510E+01
  -2.54342E+01 -1.84653E+01 -2.58877E+01 -2.84336E+01 -2.55955E+01 -1.69297E+01 -2.72732E+01 -3.60763E+01 -4.49723E+01 -6.89379E+01
  -6.76566E+01 -6.08491E+01 -8.19135E+01 -8.36268E+01 -7.51597E+01 -6.85462E+01 -2.62447E+01 -1.22155E+01  3.66035E+00 -1.34488E+00
  -6.96130E+00  8.70873E+00 -1.22194E+00  2.91355E+00 -9.50052E+00 -1.75675E+01 -3.82245E+01 -3.05106E+01 -3.63702E+01 -4.98687E+01
  -3.02649E+01 -4.79438E+01 -3.38588E+01 -2.68421E+01 -3.47549E+00 -4.94411E+00 -1.44224E+01 -1.25302E+00 -3.56609E+01 -3.79867E+01
  -4.88863E+01 -5.51073E+01 -4.29700E+01 -3.27671E+01 -2.35100E+01 -1.41710E+01  3.08777E+00  7.35099E+00  5.63590E+00  6.77770E+00
   1.69325E+01  2.22521E+00 -1.00479E+00 -1.37564E+01 -3.53339E+01 -2.92158E+01 -2.93153E+01 -2.79746E+01 -2.99336E+01 -1.45446E+01
   4.70967E+00  1.49638E+01  2.68283E+01  2.94372E+01  3.22410E+01  4.47251E+01  3.64425E+01  2.51232E+01  3.20806E+01  2.65756E+01
   1.46604E+01  5.56052E+00  6.36715E+00 -1.26962E+01 -2.08588E+01 -2.40150E+01 -5.16239E+01 -5.52498E+01 -6.33902E+01 -1.00425E+02
  -1.22023E+02 -1.29150E+02 -1.35928E+02 -1.18240E+02 -1.37669E+02 -1.18394E+02 -6.29347E+01 -6.44353E+01 -4.50024E+01 -3.55201E+01
  -2.27044E+01 -1.46702E+01 -1.57831E+01 -1.32168E+01 -1.35602E+01  6.15559E+00 -2.02925E+00  1.24921E+01  3.97132E+01  4.73031E+01
   5.63871E+01  4.94832E+01  2.79229E+01 -1.58956E+01 -5.59587E+01 -8.50112E+01 -1.33349E+02 -1.53615E+02 -1.31691E+02 -1.10424E+02
  -9.89401E+01 -1.09943E+02 -1.00114E+02 -9.56399E+01 -1.01571E+02 -9.31217E+01 -1.02044E+02 -8.64137E+01 -7.44558E+01 -7.84988E+01
  -7.27254E+01 -6.78638E+01 -6.92040E+01 -6.49582E+01 -6.50877E+01 -8.29142E+01 -6.95402E+01 -4.36884E+01 -4.78390E+01 -5.57928E+01
  -5.08057E+01 -5.28171E+01 -5.14389E+01 -4.70574E+01 -3.76493E+01 -3.59041E+01 -4.52997E+01 -4.67393E+01 -4.65311E+01 -3.35885E+01
  -4.03248E+01 -1.71691E+01  2.98251E+00 -2.21494E+01 -1.50414E+01 -1.34668E+01 -1.07597E+01 -6.98013E-01 -1.42826E+01 -3.29735E+01
  -4.35516E+01 -5.59719E+01 -6.87986E+01 -8.10231E+01 -7.19128E+01 -6.98839E+01 -7.55361E+01 -5.23833E+01 -6.74669E+01 -5.91692E+01
  -5.14394E+01 -7.39147E+01 -5.77439E+01 -3.80184E+01 -4.10505E+01 -4.82466E+01 -2.38197E+01 -3.72274E+01 -3.99458E+01 -3.14836E+01
  -4.68332E+01 -3.69971E+01 -3.93903E+01 -3.71082E+01 -4.29990E+01 -3.98121E+01 -4.25563E+01 -4.56487E+01 -5.00767E+01 -6.48001E+01
  -5.88098E+01 -6.88965E+01 -7.28704E+01 -7.44806E+01 -5.37550E+01 -3.82556E+01 -1.94959E+01  3.16172E+00 -1.17891E+01  4.57627E-01
  -6.01596E+00 -2.49441E+01 -2.05851E+01 -2.45824E+01 -3.03642E+01 -1.71521E+01 -1.30628E+01 -2.36290E+01 -2.02125E+01 -1.75993E+01
  -1.48448E+01 -3.00294E+01 -3.43886E+01 -3.86340E+01 -5.83464E+01 -6.81430E+01 -7.67037E+01 -7.68498E+01 -7.78590E+01 -7.77268E+01
  -8.20624E+01 -7.30808E+01 -5.89479E+01 -6.28023E+01 -6.96809E+01 -5.84898E+01 -5.69467E+01 -6.64560E+01 -5.16226E+01 -6.96118E+01
  -8.62777E+01 -9.01080E+01 -9.41861E+01 -8.65827E+01 -8.97142E+01 -8.50780E+01 -7.60227E+01 -3.98332E+01 -3.03908E+00  6.10571E+01
   1.21806E+02  1.36731E+02  1.60972E+02  1.22919E+02  9.34160E+01  9.57807E+01  5.95682E+01  6.27626E+01  6.93524E+01  4.42983E+01
   5.08589E+01  5.66166E+01  4.67324E+01  4.94517E+01  4.49980E+01  4.50451E+01  3.25350E+01  3.53599E+01  5.06177E+01  3.03994E+01
   3.31027E+01  3.07624E+01  2.29246E+01  3.05678E+01  1.88949E+01  1.48364E+01  7.26690E+00 -5.32889E+00  1.39994E-01  1.25104E+00
  -9.16502E+00 -5.65838E+00 -2.09873E-01 -1.23532E+01 -3.04378E+01 -3.88499E+01 -3.88095E+01 -5.13391E+01 -5.27950E+01 -4.78911E+01
  -5.83445E+01 -5.43963E+01 -4.76875E+01 -4.95530E+01 -4.72704E+01 -3.43553E+01 -2.45512E+01 -3.29588E+01 -2.06085E+01 -2.28044E+00
  -8.92823E+00  1.49401E-01  1.97703E+01  2.57592E+01  2.45475E+01  2.55302E+01  3.93088E+01  3.47330E+01  3.08555E+01  5.22260E+01
   4.41638E+01  4.20104E+01  3.98775E+01  2.41868E+01  3.62811E+01  2.72624E+01  2.45138E+01  3.85448E+01  5.55730E+01  6.93591E+01
   8.19324E+01  1.15173E+02  1.07478E+02  1.22078E+02  1.56988E+02  1.52813E+02  1.46370E+02  1.25946E+02  1.30223E+02  1.35112E+02
   1.10965E+02  9.39954E+01  6.49498E+01  4.53355E+01  4.17191E+01  1.70944E+01  2.15534E+01  3.52420E+01  1.69294E+01  2.28291E+01
   2.56522E+01  1.65688E+01  2.22420E+01  3.15028E+01  2.44668E+01  1.87340E+01  1.90908E+01  6.36856E+00  1.49698E+01  8.58270E+00
  -5.10237E+00  7.75180E+00  1.32170E+01  4.65689E+00  1.20861E+01  2.03712E+01  1.21904E+01  2.56591E+01  1.80970E+01  2.36004E+01
   3.40515E+01  2.04218E+01  3.16370E+01  3.11454E+01  3.27478E+01  2.23967E+01  3.74364E+01  5.30472E+01  3.64203E+01  5.92488E+01
   6.21348E+01  7.05848E+01  7.51646E+01  7.22937E+01  1.02352E+02  9.28120E+01  8.21154E+01  9.16131E+01  8.72472E+01  8.96572E+01
   9.67553E+01  8.07702E+01  7.01332E+01  6.42866E+01  3.93006E+01  3.54644E+01  1.77986E+01 -9.15494E-01  6.32562E+00 -2.09966E+00
  -1.22424E+01 -1.60706E+01 -1.61523E+01 -2.57324E+01 -4.09418E+01 -4.67596E+01 -5.54184E+01 -5.99477E+01 -4.82377E+01 -5.12883E+01
  -5.60591E+01 -5.02635E+01 -5.22246E+01 -4.96000E+01 -5.87821E+01 -4.32326E+01 -3.73988E+01 -5.09148E+01 -5.86535E+01 -6.13508E+01
  -3.10929E+01 -4.89040E+01 -4.11492E+01 -2.34904E+01 -4.12732E+01 -3.43672E+01 -4.20483E+01 -3.79761E+01 -4.91794E+01 -4.19965E+01
  -4.45466E+01 -5.58999E+01 -3.36425E+01 -3.96796E+01 -3.72781E+01 -4.66807E+01 -4.13989E+01 -2.83536E+01 -3.52353E+01 -4.20311E+01
  -4.25883E+01 -2.55198E+01 -3.56864E+01 -3.23227E+01 -3.73725E+01 -4.70057E+01 -2.93366E+01 -3.35491E+01 -2.33896E+01 -2.74874E+01
  -3.77958E+01 -2.78519E+01 -3.01517E+01 -2.87638E+01 -4.17390E+01 -2.95874E+01 -2.15574E+01 -3.28159E+01 -1.87579E+01 -3.46057E+01
  -3.84386E+01 -3.31022E+01 -2.93476E+01 -2.43653E+01 -2.48987E+01 -1.76573E+01 -3.27171E+01 -3.16651E+01 -3.62909E+01 -3.39947E+01
  -2.90076E+01 -3.29856E+01 -2.65669E+01 -3.34573E+01 -2.36338E+01 -2.46592E+01 -3.06854E+01 -2.42647E+01 -2.82560E+01 -4.07718E+01
 NY points of the fit to the data follow
  -9.81800E+01 -9.33538E+01 -8.87673E+01 -8.49026E+01 -8.13643E+01 -7.78753E+01 -7.42648E+01 -7.14222E+01 -7.03633E+01 -7.14304E+01
  -7.58270E+01 -8.22239E+01 -8.82103E+01 -9.19674E+01 -9.40725E+01 -9.54769E+01 -9.66310E+01 -9.90803E+01 -1.02784E+02 -1.07569E+02
  -1.12216E+02 -1.14754E+02 -1.11493E+02 -9.95822E+01 -7.94860E+01 -5.53581E+01 -3.25343E+01 -1.56021E+01 -6.44948E+00 -5.32902E+00
  -9.79070E+00 -1.21159E+01 -1.42892E+01 -1.72649E+01 -2.10291E+01 -2.55790E+01 -3.08900E+01 -3.75655E+01 -4.56988E+01 -5.50733E+01
  -6.41828E+01 -7.11184E+01 -7.39144E+01 -7.13386E+01 -6.31640E+01 -5.07817E+01 -3.68839E+01 -2.44424E+01 -1.49362E+01 -8.40994E+00
  -6.15152E+00 -6.85433E+00 -9.96067E+00 -1.47075E+01 -2.10264E+01 -2.80893E+01 -3.52964E+01 -4.17498E+01 -4.62564E+01 -4.74980E+01
  -4.53682E+01 -4.07700E+01 -3.45241E+01 -2.72512E+01 -1.97287E+01 -1.46318E+01 -1.33661E+01 -1.48957E+01 -2.08984E+01 -2.99764E+01
  -3.73444E+01 -4.12227E+01 -4.04397E+01 -3.43432E+01 -2.41871E+01 -1.35631E+01 -5.38801E+00  8.49060E-01  4.83340E+00  4.21066E+00
  -7.11499E-01 -8.52361E+00 -1.85891E+01 -2.94327E+01 -3.87029E+01 -4.38472E+01 -4.32442E+01 -3.70044E+01 -2.68794E+01 -1.52202E+01
  -4.98801E+00  3.13632E+00  9.24653E+00  1.37429E+01  1.79849E+01  2.21796E+01  2.61820E+01  2.94573E+01  3.18109E+01  3.25979E+01
   3.12853E+01  2.71405E+01  2.00209E+01  1.00603E+01 -3.55288E+00 -1.97074E+01 -3.64891E+01 -5.20631E+01 -6.79333E+01 -8.60471E+01
  -1.03890E+02 -1.17487E+02 -1.25488E+02 -1.23992E+02 -1.12044E+02 -9.26886E+01 -7.44684E+01 -6.38889E+01 -5.54084E+01 -4.74665E+01
  -3.96903E+01 -3.18588E+01 -2.37644E+01 -1.51596E+01 -5.60805E+00  5.82955E+00  1.91642E+01  3.16097E+01  4.26815E+01  5.20533E+01
   5.68912E+01  5.01616E+01  2.69672E+01 -1.05086E+01 -5.46406E+01 -9.63676E+01 -1.25907E+02 -1.34873E+02 -1.23888E+02 -1.08775E+02
  -1.02535E+02 -9.85575E+01 -9.55139E+01 -9.30871E+01 -9.09999E+01 -8.88826E+01 -8.65317E+01 -8.40402E+01 -8.15249E+01 -7.90684E+01
  -7.66159E+01 -7.41782E+01 -7.18295E+01 -6.93853E+01 -6.68147E+01 -6.41604E+01 -6.17793E+01 -5.99498E+01 -5.86055E+01 -5.74615E+01
  -5.63571E+01 -5.53764E+01 -5.47232E+01 -5.46780E+01 -5.53730E+01 -5.63302E+01 -5.65105E+01 -5.50519E+01 -5.17013E+01 -4.68270E+01
  -4.05797E+01 -3.33342E+01 -2.64312E+01 -2.13316E+01 -1.85101E+01 -1.78598E+01 -1.91740E+01 -2.19452E+01 -2.54634E+01 -3.03079E+01
  -3.77723E+01 -4.70897E+01 -5.53658E+01 -6.05811E+01 -6.28804E+01 -6.38110E+01 -6.45452E+01 -6.47549E+01 -6.42763E+01 -6.32294E+01
  -6.16304E+01 -5.91153E+01 -5.52575E+01 -5.00064E+01 -4.43234E+01 -3.89272E+01 -3.39713E+01 -2.99356E+01 -2.76719E+01 -2.74742E+01
  -2.77778E+01 -2.77542E+01 -2.91543E+01 -3.14527E+01 -3.36818E+01 -3.64905E+01 -4.03020E+01 -4.58728E+01 -5.17058E+01 -5.67523E+01
  -6.06000E+01 -6.24263E+01 -6.10464E+01 -5.54085E+01 -4.52181E+01 -3.11170E+01 -1.48501E+01  8.19687E-01  1.30308E+01  1.96785E+01
   2.03848E+01  1.58271E+01  8.09155E+00  7.41081E-01 -6.94383E+00 -1.37442E+01 -1.97775E+01 -2.65792E+01 -3.40176E+01 -4.18049E+01
  -4.94857E+01 -5.67763E+01 -6.33455E+01 -6.88978E+01 -7.31856E+01 -7.62032E+01 -7.79210E+01 -7.85900E+01 -7.84842E+01 -7.77689E+01
  -7.65101E+01 -7.48756E+01 -7.25185E+01 -6.95991E+01 -6.66061E+01 -6.37966E+01 -6.23040E+01 -6.27622E+01 -6.52973E+01 -7.02716E+01
  -7.96789E+01 -8.96964E+01 -9.75574E+01 -1.02827E+02 -1.05393E+02 -1.00821E+02 -8.24197E+01 -4.88162E+01 -6.82714E+00  3.63376E+01
   7.44028E+01  9.71160E+01  9.60214E+01  7.91102E+01  6.82811E+01  6.17822E+01  5.64261E+01  5.17706E+01  4.76968E+01  4.42272E+01
   4.13448E+01  3.90371E+01  3.72073E+01  3.57438E+01  3.45055E+01  3.34249E+01  3.23885E+01  3.13115E+01  3.01056E+01  2.87923E+01
   2.73157E+01  2.56659E+01  2.39330E+01  2.21101E+01  2.02471E+01  1.83055E+01  1.62772E+01  1.41628E+01  1.20085E+01  9.85111E+00
   7.76725E+00  5.91659E+00  4.46115E+00  3.56812E+00  3.33998E+00  3.79115E+00  4.88170E+00  6.48027E+00  8.39667E+00  1.05089E+01
   1.27352E+01  1.50374E+01  1.73917E+01  1.97829E+01  2.21871E+01  2.46173E+01  2.71152E+01  2.96704E+01  3.22451E+01  3.47947E+01
   3.72610E+01  3.95825E+01  4.17232E+01  4.36875E+01  4.54334E+01  4.68984E+01  4.80464E+01  4.88620E+01  4.93918E+01  4.96393E+01
   4.95708E+01  4.91921E+01  4.85032E+01  4.74118E+01  4.58801E+01  4.39722E+01  4.18300E+01  3.96844E+01  3.79396E+01  3.70155E+01
   3.73192E+01  3.91414E+01  4.26180E+01  4.78539E+01  5.49889E+01  6.35753E+01  7.21711E+01  8.02024E+01  8.56349E+01  8.67041E+01
   8.07597E+01  6.63453E+01  4.37663E+01  1.62351E+01 -1.05937E+01 -3.00004E+01 -3.73204E+01 -3.25958E+01 -2.15746E+01 -9.68797E+00
   4.64104E-01  4.16036E+00  6.10810E+00  7.40027E+00  8.49375E+00  9.70587E+00  1.12536E+01  1.32172E+01  1.55220E+01  1.80263E+01
   2.06107E+01  2.32041E+01  2.56969E+01  2.80425E+01  3.02128E+01  3.21981E+01  3.40424E+01  3.57781E+01  3.74605E+01  3.91360E+01
   4.08321E+01  4.26088E+01  4.45133E+01  4.65925E+01  4.89054E+01  5.14854E+01  5.43415E+01  5.74543E+01  6.07473E+01  6.41478E+01
   6.75454E+01  7.06917E+01  7.32420E+01  7.48973E+01  7.53051E+01  7.40999E+01  7.11458E+01  6.66013E+01  6.08569E+01  5.44294E+01
   4.79000E+01  4.16857E+01  3.59356E+01  3.05227E+01  2.51671E+01  1.96843E+01  1.40373E+01  8.33335E+00  2.77972E+00 -2.31276E+00
  -6.73592E+00 -1.04336E+01 -1.34577E+01 -1.58812E+01 -1.78766E+01 -1.95985E+01 -2.11093E+01 -2.24839E+01 -2.37553E+01 -2.49355E+01
  -2.59984E+01 -2.69436E+01 -2.77755E+01 -2.85153E+01 -2.92104E+01 -2.98972E+01 -3.05585E+01 -3.11626E+01 -3.17116E+01 -3.22405E+01
  -3.27280E+01 -3.31569E+01 -3.35588E+01 -3.39803E+01 -3.43805E+01 -3.47019E+01 -3.49771E+01 -3.52326E+01 -3.54657E+01 -3.56751E+01
  -3.58769E+01 -3.60958E+01 -3.63130E+01 -3.64823E+01 -3.65718E+01 -3.66031E+01 -3.65910E+01 -3.65703E+01 -3.65621E+01 -3.65699E+01
  -3.65982E+01 -3.66444E+01 -3.67055E+01 -3.67434E+01 -3.67610E+01 -3.67424E+01 -3.66807E+01 -3.65742E+01 -3.64580E+01 -3.63588E+01
  -3.62594E+01 -3.61415E+01 -3.59937E+01 -3.58219E+01 -3.56293E+01 -3.54324E+01 -3.52654E+01 -3.51185E+01 -3.49771E+01 -3.48497E+01
  -3.47293E+01 -3.45965E+01 -3.44516E+01 -3.42745E+01 -3.40523E+01 -3.37807E+01 -3.34823E+01 -3.32007E+01 -3.29733E+01 -3.27927E+01
  -3.26542E+01 -3.25340E+01 -3.23851E+01 -3.21850E+01 -3.19306E+01 -3.16487E+01 -3.13481E+01 -3.10212E+01 -3.06217E+01 -3.01219E+01
 NY background values follow
    -7.022E+01   -6.979E+01   -6.936E+01   -6.892E+01   -6.849E+01   -6.805E+01   -6.760E+01   -6.716E+01   -6.671E+01   -6.626E+01
    -6.580E+01   -6.534E+01   -6.488E+01   -6.441E+01   -6.394E+01   -6.347E+01   -6.299E+01   -6.251E+01   -6.202E+01   -6.153E+01
    -6.103E+01   -6.053E+01   -6.002E+01   -5.951E+01   -5.900E+01   -5.847E+01   -5.795E+01   -5.741E+01   -5.687E+01   -5.633E+01
    -5.578E+01   -5.522E+01   -5.466E+01   -5.409E+01   -5.352E+01   -5.295E+01   -5.237E+01   -5.179E+01   -5.121E+01   -5.063E+01
    -5.005E+01   -4.947E+01   -4.889E+01   -4.831E+01   -4.774E+01   -4.717E+01   -4.660E+01   -4.604E+01   -4.549E+01   -4.494E+01
    -4.439E+01   -4.386E+01   -4.333E+01   -4.282E+01   -4.231E+01   -4.181E+01   -4.133E+01   -4.085E+01   -4.039E+01   -3.994E+01
    -3.951E+01   -3.908E+01   -3.868E+01   -3.829E+01   -3.791E+01   -3.754E+01   -3.719E+01   -3.686E+01   -3.653E+01   -3.622E+01
    -3.593E+01   -3.564E+01   -3.537E+01   -3.512E+01   -3.487E+01   -3.464E+01   -3.442E+01   -3.421E+01   -3.402E+01   -3.384E+01
    -3.367E+01   -3.351E+01   -3.336E+01   -3.323E+01   -3.311E+01   -3.299E+01   -3.289E+01   -3.281E+01   -3.273E+01   -3.266E+01
    -3.261E+01   -3.256E+01   -3.253E+01   -3.250E+01   -3.249E+01   -3.248E+01   -3.248E+01   -3.249E+01   -3.250E+01   -3.252E+01
    -3.254E+01   -3.257E+01   -3.260E+01   -3.264E+01   -3.268E+01   -3.272E+01   -3.276E+01   -3.280E+01   -3.284E+01   -3.289E+01
    -3.293E+01   -3.297E+01   -3.301E+01   -3.304E+01   -3.307E+01   -3.310E+01   -3.312E+01   -3.314E+01   -3.315E+01   -3.316E+01
    -3.315E+01   -3.314E+01   -3.313E+01   -3.310E+01   -3.307E+01   -3.303E+01   -3.299E+01   -3.294E+01   -3.289E+01   -3.283E+01
    -3.276E+01   -3.270E+01   -3.262E+01   -3.255E+01   -3.247E+01   -3.238E+01   -3.230E+01   -3.221E+01   -3.212E+01   -3.203E+01
    -3.193E+01   -3.184E+01   -3.174E+01   -3.165E+01   -3.155E+01   -3.145E+01   -3.135E+01   -3.126E+01   -3.116E+01   -3.107E+01
    -3.098E+01   -3.089E+01   -3.080E+01   -3.071E+01   -3.063E+01   -3.054E+01   -3.046E+01   -3.038E+01   -3.031E+01   -3.023E+01
    -3.016E+01   -3.009E+01   -3.002E+01   -2.995E+01   -2.989E+01   -2.983E+01   -2.977E+01   -2.971E+01   -2.966E+01   -2.961E+01
    -2.956E+01   -2.951E+01   -2.947E+01   -2.943E+01   -2.939E+01   -2.935E+01   -2.932E+01   -2.929E+01   -2.926E+01   -2.923E+01
    -2.921E+01   -2.919E+01   -2.918E+01   -2.916E+01   -2.915E+01   -2.913E+01   -2.912E+01   -2.911E+01   -2.909E+01   -2.908E+01
    -2.906E+01   -2.904E+01   -2.902E+01   -2.899E+01   -2.896E+01   -2.893E+01   -2.889E+01   -2.884E+01   -2.879E+01   -2.874E+01
    -2.868E+01   -2.861E+01   -2.853E+01   -2.844E+01   -2.835E+01   -2.824E+01   -2.813E+01   -2.801E+01   -2.787E+01   -2.773E+01
    -2.757E+01   -2.740E+01   -2.722E+01   -2.703E+01   -2.683E+01   -2.663E+01   -2.642E+01   -2.620E+01   -2.598E+01   -2.575E+01
    -2.552E+01   -2.529E+01   -2.506E+01   -2.483E+01   -2.460E+01   -2.437E+01   -2.415E+01   -2.393E+01   -2.371E+01   -2.351E+01
    -2.331E+01   -2.311E+01   -2.293E+01   -2.276E+01   -2.260E+01   -2.245E+01   -2.231E+01   -2.219E+01   -2.208E+01   -2.199E+01
    -2.192E+01   -2.186E+01   -2.182E+01   -2.180E+01   -2.180E+01   -2.181E+01   -2.184E+01   -2.188E+01   -2.194E+01   -2.202E+01
    -2.211E+01   -2.222E+01   -2.234E+01   -2.248E+01   -2.263E+01   -2.280E+01   -2.298E+01   -2.317E+01   -2.338E+01   -2.360E+01
    -2.383E+01   -2.408E+01   -2.434E+01   -2.461E+01   -2.489E+01   -2.519E+01   -2.550E+01   -2.581E+01   -2.615E+01   -2.649E+01
    -2.684E+01   -2.720E+01   -2.757E+01   -2.794E+01   -2.831E+01   -2.867E+01   -2.903E+01   -2.938E+01   -2.972E+01   -3.005E+01
    -3.035E+01   -3.063E+01   -3.089E+01   -3.113E+01   -3.133E+01   -3.150E+01   -3.163E+01   -3.172E+01   -3.177E+01   -3.177E+01
    -3.173E+01   -3.163E+01   -3.148E+01   -3.127E+01   -3.100E+01   -3.067E+01   -3.027E+01   -2.980E+01   -2.926E+01   -2.864E+01
    -2.794E+01   -2.717E+01   -2.632E+01   -2.540E+01   -2.442E+01   -2.338E+01   -2.228E+01   -2.113E+01   -1.993E+01   -1.869E+01
    -1.740E+01   -1.608E+01   -1.473E+01   -1.336E+01   -1.196E+01   -1.054E+01   -9.108E+00   -7.665E+00   -6.217E+00   -4.766E+00
    -3.317E+00   -1.876E+00   -4.445E-01    9.718E-01    2.369E+00    3.743E+00    5.089E+00    6.403E+00    7.682E+00    8.920E+00
     1.011E+01    1.126E+01    1.237E+01    1.342E+01    1.443E+01    1.540E+01    1.632E+01    1.719E+01    1.801E+01    1.879E+01
     1.952E+01    2.021E+01    2.084E+01    2.143E+01    2.198E+01    2.247E+01    2.292E+01    2.332E+01    2.367E+01    2.397E+01
     2.423E+01    2.444E+01    2.459E+01    2.470E+01    2.476E+01    2.478E+01    2.474E+01    2.465E+01    2.452E+01    2.434E+01
     2.410E+01    2.382E+01    2.349E+01    2.312E+01    2.270E+01    2.224E+01    2.174E+01    2.119E+01    2.061E+01    2.000E+01
     1.935E+01    1.866E+01    1.795E+01    1.720E+01    1.642E+01    1.562E+01    1.479E+01    1.393E+01    1.305E+01    1.215E+01
     1.123E+01    1.029E+01    9.337E+00    8.364E+00    7.378E+00    6.378E+00    5.367E+00    4.346E+00    3.317E+00    2.281E+00
     1.239E+00    1.935E-01   -8.552E-01   -1.906E+00   -2.956E+00   -4.006E+00   -5.054E+00   -6.099E+00   -7.139E+00   -8.174E+00
    -9.201E+00   -1.022E+01   -1.123E+01   -1.223E+01   -1.322E+01   -1.419E+01   -1.515E+01   -1.609E+01   -1.702E+01   -1.793E+01
    -1.882E+01   -1.969E+01   -2.053E+01   -2.136E+01   -2.216E+01   -2.293E+01   -2.368E+01   -2.440E+01   -2.509E+01   -2.574E+01
    -2.637E+01   -2.697E+01   -2.753E+01   -2.807E+01   -2.858E+01   -2.906E+01   -2.951E+01   -2.994E+01   -3.034E+01   -3.071E+01
    -3.107E+01   -3.140E+01   -3.170E+01   -3.199E+01   -3.226E+01   -3.250E+01   -3.273E+01   -3.294E+01   -3.314E+01   -3.331E+01
    -3.348E+01   -3.362E+01   -3.376E+01   -3.388E+01   -3.399E+01   -3.408E+01   -3.417E+01   -3.425E+01   -3.432E+01   -3.438E+01
    -3.444E+01   -3.448E+01   -3.453E+01   -3.456E+01   -3.459E+01   -3.462E+01   -3.464E+01   -3.465E+01   -3.466E+01   -3.467E+01
    -3.467E+01   -3.467E+01   -3.466E+01   -3.466E+01   -3.465E+01   -3.463E+01   -3.462E+01   -3.460E+01   -3.458E+01   -3.456E+01
    -3.454E+01   -3.452E+01   -3.450E+01   -3.448E+01   -3.446E+01   -3.444E+01   -3.442E+01   -3.440E+01   -3.439E+01   -3.437E+01
 Mac      Conc. = 1.69E-04
  -8.26960E+01 -8.26307E+01 -8.26043E+01 -8.26607E+01 -8.28459E+01 -8.31517E+01 -8.35060E+01 -8.38269E+01 -8.40406E+01 -8.41232E+01
  -8.40551E+01 -8.38626E+01 -8.36115E+01 -8.32988E+01 -8.27824E+01 -8.18609E+01 -8.03941E+01 -7.84007E+01 -7.59593E+01 -7.33403E+01
  -7.08867E+01 -6.88524E+01 -6.72004E+01 -6.57019E+01 -6.42946E+01 -6.29432E+01 -6.15256E+01 -6.00501E+01 -5.86393E+01 -5.73637E+01
  -5.62496E+01 -5.52762E+01 -5.44275E+01 -5.36062E+01 -5.27065E+01 -5.16508E+01 -5.04286E+01 -4.90956E+01 -4.77661E+01 -4.65746E+01
  -4.55716E+01 -4.47143E+01 -4.38935E+01 -4.30405E+01 -4.22188E+01 -4.15830E+01 -4.12345E+01 -4.11470E+01 -4.12287E+01 -4.13328E+01
  -4.13479E+01 -4.12419E+01 -4.09690E+01 -4.05017E+01 -3.98217E+01 -3.89767E+01 -3.79840E+01 -3.68967E+01 -3.58046E+01 -3.48052E+01
  -3.40093E+01 -3.34767E+01 -3.31675E+01 -3.30179E+01 -3.29686E+01 -3.28841E+01 -3.26315E+01 -3.21502E+01 -3.14063E+01 -3.04151E+01
  -2.92953E+01 -2.81385E+01 -2.70873E+01 -2.62927E+01 -2.58770E+01 -2.57791E+01 -2.58479E+01 -2.59773E+01 -2.61032E+01 -2.61561E+01
  -2.60688E+01 -2.58424E+01 -2.54736E+01 -2.50050E+01 -2.44653E+01 -2.39041E+01 -2.33898E+01 -2.29740E+01 -2.26619E+01 -2.24651E+01
  -2.24285E+01 -2.25704E+01 -2.29475E+01 -2.35689E+01 -2.44734E+01 -2.56124E+01 -2.69217E+01 -2.83305E+01 -2.97955E+01 -3.13418E+01
  -3.30693E+01 -3.50476E+01 -3.73510E+01 -3.99948E+01 -4.28290E+01 -4.55528E+01 -4.78504E+01 -4.94414E+01 -5.01100E+01 -4.98217E+01
