 
 $NMID
 ID=''
 FMTDAT='(2E13.5)'
 TRAMP=   1.00000E+0
 VOLUME=   1.00000E+0
 $END
  -2.10279E+4  -3.75100E+3
  -4.13656E+4   9.13886E+3
  -7.86051E+3   4.52567E+4
   3.54050E+4   2.92020E+4
   3.31256E+4  -2.02977E+4
   3.74099E+2  -3.87864E+4
  -2.60242E+4  -1.51221E+4
  -2.59115E+4   1.85308E+4
   5.07988E+2   3.00154E+4
   2.30889E+4   9.00083E+3
   1.71028E+4  -1.77579E+4
  -4.98914E+3  -2.09555E+4
  -1.93643E+4  -4.21081E+3
  -1.29511E+4   1.01649E+4
   7.11872E+3   1.15740E+4
   1.66221E+4   2.06638E+3
   4.25387E+3  -8.44490E+3
  -7.12683E+3  -9.60839E+3
  -6.65792E+3  -7.65752E+1
  -1.56263E+3   8.03056E+3
   3.45344E+3   5.40163E+3
   5.87179E+3  -2.21196E+3
   1.28132E+3  -3.70483E+3
  -3.89368E+3  -1.59927E+3
  -2.99608E+3   4.04124E+2
   1.12125E+3   3.25428E+3
   1.51258E+3   3.03240E+3
   3.62369E+2  -1.62402E+3
  -2.89274E+2  -3.18637E+3
  -1.59940E+2  -1.28748E+1
  -5.64715E+2   1.99881E+3
  -6.62974E+2   6.52841E+2
   4.95931E+2  -1.24019E+3
   1.60231E+3  -1.75000E+3
   1.74317E+3   5.28282E+1
   2.27728E+2   2.20319E+3
  -1.16900E+3   9.82968E+2
  -6.57611E+2  -8.30011E+2
   7.44731E+2  -2.72466E+2
   4.82736E+1   1.82106E+2
   2.72863E+1  -8.49564E+2
   1.30533E+3  -7.23572E+2
   7.72204E+2   6.33369E+2
  -3.14852E+2   1.02314E+3
  -3.72658E+2   6.28028E+2
  -3.24564E+2   4.99425E+2
  -1.18443E+3   1.22490E+0
  -5.83815E+2  -2.06601E+3
   6.14377E+2  -1.72790E+3
   5.94942E+2   2.89689E+2
   3.47486E+2   5.91295E+2
   4.81227E+2   8.59143E+1
   6.84981E+2  -7.27129E+1
  -3.58263E+2   4.11736E+1
  -1.40805E+3  -2.04455E+2
  -1.00097E+3  -2.10425E+2
   3.46137E+2  -1.16000E+2
   1.12378E+3   3.20980E+1
   7.46826E+2   3.38085E+2
  -3.57943E+2   4.05874E+2
  -1.20252E+3   3.46421E+2
  -9.20614E+2   9.44944E+2
  -1.13536E+3   3.93855E+2
  -6.73340E+2  -1.23921E+3
   3.87835E+2  -1.89190E+3
   4.83734E+2  -6.89838E+2
   4.87138E+2   4.18362E+2
   6.59888E+2   1.04420E+3
   2.88529E+2   9.82290E+2
  -7.82971E+1   1.51737E+2
  -8.28784E+1  -3.20260E+2
   3.96305E+2   3.93690E+2
  -1.85731E+2   1.07166E+3
  -9.92033E+2   4.05392E+2
   5.29449E+0  -5.00208E+2
   3.45290E+2  -1.99690E+2
   2.10998E+1   2.78658E+2
  -9.05825E+2  -1.01011E+2
  -1.95695E+2  -2.51709E+2
   5.07298E+2  -2.08728E+2
   6.73991E+2  -6.63689E+1
   4.08081E+2   4.29639E+1
   2.62640E+2   2.42691E+0
   2.45336E+2  -1.14854E+2
   4.33716E+2  -1.43960E+1
   2.59057E+2   5.58142E+2
   1.17612E+2   7.29438E+2
  -1.21605E+2   3.00593E+2
   3.68014E+2  -2.80193E+2
   1.82662E+1  -1.00411E+2
  -2.17039E+2   4.66643E+2
  -7.49136E+2  -1.57971E+2
  -4.41792E+2  -6.18862E+2
   3.82655E+2  -5.49869E+2
   7.65444E+2  -1.73549E+2
   4.48986E+2   2.49181E+2
  -2.69714E+2  -1.10147E+1
  -8.96008E+0  -4.67095E+1
   2.14945E+2   2.19218E+2
  -1.63742E+1   6.19968E+2
  -6.27920E+2   1.87809E+2
  -5.44434E+2  -7.60468E+2
   5.55426E+1  -3.28119E+2
   3.63893E+2   3.00162E+2
   4.47353E+2   5.13685E+2
  -2.20607E+2   4.59392E+2
  -7.33328E+2  -5.09929E+2
  -1.00550E+2  -8.98386E+2
   7.91471E+2  -2.20009E+2
   3.99644E+2   9.95232E+2
  -3.91347E+2   8.95296E+2
  -6.88760E+2   2.50592E+2
  -2.74383E+2  -3.77756E+2
  -2.96848E+2  -1.04050E+1
  -4.55627E+2   4.06088E+2
  -2.03470E+2   1.49743E+1
   2.29920E+2  -1.01093E+3
   5.68334E+2  -3.40373E+2
   6.41998E+2   4.36524E+2
   2.42703E+2   7.81344E+2
  -3.92984E+2   6.36272E+2
  -4.22563E+2   2.90123E+2
  -3.90098E+2   1.59114E+2
  -3.65010E+2  -2.58383E+2
  -2.38122E+2  -2.63565E+2
   2.26631E+2  -5.02270E+1
   3.09959E+2   3.39000E+2
   1.05329E+2   4.26668E+2
  -1.19941E+2   1.91535E+2
  -3.13157E+2   4.13422E+1
  -4.52167E+2  -4.79585E+2
   2.53290E+2  -4.14002E+2
   2.40181E+2   2.09807E+2
  -1.26045E+2   2.41268E+2
  -4.61752E+1  -9.14657E+1
   2.30521E+2  -3.65883E+1
   4.29550E+1   3.06406E+2
  -2.16510E+2   3.74793E+2
  -3.68699E+2  -9.66002E+1
  -1.27750E+1  -2.80806E+2
   3.92556E+2  -4.86900E+2
   4.09126E+2   3.12115E+2
  -1.24678E+2   3.34117E+2
  -3.87592E+2   8.56556E+0
  -4.52765E+2  -4.53845E+2
   3.43155E+2  -3.91750E+2
   3.37721E+2  -3.84044E+2
   3.75796E+1  -2.54370E+2
   2.94979E+2  -3.63051E+2
   3.44471E+2  -2.51514E+2
   4.05446E+2   1.37239E+2
   9.57867E+1   4.87389E+2
  -2.48840E+2   3.09531E+2
  -3.23987E+2  -1.04588E+2
  -6.43131E+1  -1.54316E+2
  -1.93126E+2  -1.52689E+2
  -2.72335E+2   3.25299E+1
  -7.91440E+1   1.42243E+2
   5.61513E+1  -1.15170E+2
   1.53683E+2  -2.38563E+2
  -8.91604E+1  -2.40385E+2
  -5.71992E+1  -9.97601E+1
   3.94960E+1  -2.45219E+2
   2.95679E+2  -5.78045E+1
   1.04482E+2   1.10974E+2
   2.76219E+1   3.30525E+2
  -2.71485E+2   4.04176E+1
   2.24849E+1  -3.52156E+2
  -1.37575E+2  -5.09111E+1
  -1.23490E+1   3.01791E+2
  -1.89488E+2   9.45558E+1
  -8.51640E+1  -2.02418E+2
  -5.43082E+0  -3.20899E+2
   1.83522E+2   2.16450E+2
   5.42731E+1   1.32823E+2
  -2.34247E+2  -1.81284E+2
  -1.61591E+1  -3.51419E+2
   2.94951E+2  -3.51880E+2
   4.94051E+2   1.06181E+2
  -1.70253E+2   1.43539E+2
  -2.16604E+2   3.06832E+1
  -4.57962E+1  -4.20467E+2
   7.97616E+1  -3.31188E+2
   2.71801E+2  -1.37057E+2
   2.64785E+2  -1.76791E+1
   1.86775E+2  -1.78523E+2
   3.14731E+2  -3.20018E+2
   1.06570E+0   2.65581E+2
  -8.58837E+1   2.26549E+2
  -5.63258E+2   1.45011E+2
  -4.07528E+2  -2.58864E+2
   8.08588E+1  -6.14744E+2
   4.71027E+2  -3.45162E+2
   1.26231E+2   5.96239E+1
  -9.66839E+1  -5.14200E+1
   5.13198E+1  -6.99553E+1
  -5.38331E+0  -8.58264E+1
  -5.68899E+1   6.67353E+1
  -9.58195E+1  -1.87137E+2
   1.52634E+2  -4.30830E+2
   2.02413E+2  -3.65541E+2
   2.80428E+2   7.10529E+0
   7.07783E+1   2.97484E+2
  -5.54292E+1   9.53606E+1
  -2.31877E+2  -3.39857E+1
   1.84852E+2  -2.29819E+2
  -9.02174E+1  -1.74608E+2
   1.72993E+2  -9.01937E+1
  -1.68266E+2   8.20030E+0
   1.24475E+1   3.14491E+1
   2.00809E+2   1.74159E+1
  -3.56694E+1  -6.81335E+1
  -4.12495E+2   2.42092E+1
  -4.88847E+2  -4.04384E+2
  -1.07679E+1  -3.87052E+2
   3.49100E+2  -4.17778E+2
   2.18607E+2   1.03038E+1
   8.24806E+1   1.34395E+2
   5.25093E+1  -4.48880E+2
  -1.60659E+1   1.59923E+2
  -2.49311E+2   2.73930E+1
  -1.41763E+2   1.45711E+2
  -2.35096E+2  -2.01074E+2
  -4.96217E+1  -3.73990E+2
   1.91225E+2  -5.40205E+2
   1.44073E+2   3.42334E+1
  -1.68640E+1  -1.64040E+2
  -5.07721E+2  -4.33071E+1
   1.89913E+1  -1.20201E+2
   8.93236E+1   2.44656E+1
  -2.22251E+2   5.38507E+1
  -1.19734E+2  -4.03546E+1
  -1.00177E+2  -7.24940E+1
   1.60984E+2  -1.58157E+2
   6.20122E+1   1.30078E+2
   1.58277E+1   4.95214E+1
  -9.12701E+0  -1.40292E+2
   3.03210E+1   9.70803E+1
   2.63088E+2  -1.23731E+2
   7.99385E+1  -3.81842E+1
  -1.85393E+2   1.21888E+2
  -1.68572E+2  -1.12916E+2
  -8.99569E+1  -2.92181E+2
  -5.03117E+1  -1.29644E+1
   2.63879E+1   1.66523E+2
   1.74818E+1  -1.82444E+2
   3.27088E+1  -1.02433E+2
   1.67612E+2  -1.92529E+1
  -5.49319E+1   3.41021E+1
  -1.48925E+2   1.31207E+2
  -1.37707E+2  -7.67314E+1
   7.64811E+1  -4.90222E+2
   1.09541E+2  -1.46757E+2
   8.69927E+1   9.05129E+1
  -1.23746E+2   6.38672E+1
  -1.49985E+2  -1.43351E+2
  -6.25143E+1  -2.51784E+2
   2.21158E+1  -2.18392E+1
   1.81562E+1  -2.93401E+2
  -1.75725E+2  -1.16997E+2
  -5.96264E+1  -2.06841E+2
   1.99174E+2  -9.74321E+1
   1.08576E+2   1.91966E+1
  -2.31255E+2  -6.72906E+1
  -2.25676E+1  -1.29691E+2
  -8.11123E+1  -6.56635E+1
  -1.26195E+2  -2.35546E+2
   1.39388E+2  -1.90901E+1
   5.79060E+1   4.34931E+1
   1.89358E+1   3.65092E+0
   3.81809E+1   1.52944E+2
  -1.00499E+2   1.44061E+2
   2.83223E+1   1.47535E+2
  -2.47929E+1   1.14260E+2
  -3.09674E+2  -3.93175E+2
  -8.99216E+1  -2.10939E+2
   1.60968E+2  -5.50423E+1
   1.63111E+2   3.50460E+2
  -8.58406E+1   3.64417E+1
  -2.87658E+2   2.09865E+2
   1.04995E+2   3.41859E+2
  -3.14528E+1  -1.72625E+1
   1.05443E+2   1.65658E+2
  -1.80166E+2  -1.50229E+2
   1.20914E+2   8.59598E+1
   1.42440E+2  -2.20297E+2
  -5.94223E+1   2.48956E+2
  -5.28710E+1  -2.66746E+1
  -2.39882E+2   1.31890E+2
  -1.37244E+2  -7.46206E+0
  -3.01795E+1   1.95110E+2
   1.51278E+2   1.46583E+2
   2.65131E+1   1.31721E+0
   1.20878E+2   4.22062E+1
   5.42735E+1  -4.02618E+1
  -1.40120E+2   6.55378E+0
  -1.28749E+2   2.70144E+2
  -3.30197E+2  -5.89903E+1
   3.24249E+1   1.72492E+2
   2.74485E+0  -5.02923E+1
   1.64705E+1   6.12016E+1
  -1.12454E+2   3.28189E+1
  -9.84275E+1  -4.79011E+1
   1.23979E+2  -1.77844E+1
   1.96113E+2   8.05678E+1
   7.76428E+1   1.33284E+2
  -1.11167E+2   1.10535E+2
   4.75429E+1  -4.65204E+0
  -4.25055E+1   2.86378E+2
  -8.48928E+1   1.79213E+2
  -6.49012E+1   7.94096E+1
  -7.44783E+1  -5.86193E+1
   2.80041E+1   3.58880E+1
   6.42980E+1   1.25308E+0
  -6.44298E+1   8.21681E+1
  -8.69475E+1   3.87872E+1
   6.33125E+1  -4.77645E+1
  -2.54238E+1  -8.88118E+1
  -4.41032E+1  -3.83327E+1
   1.07832E+2   2.60928E+1
  -8.25682E+1  -6.49506E+0
   3.67264E+2   4.54060E+1
   6.10305E+1  -4.06825E+1
  -1.07221E+1   4.38973E+1
  -1.19633E+2   3.63641E+1
  -2.85676E+2  -1.97746E+1
  -8.85604E+1  -6.42513E+1
   3.43945E+1  -5.92108E+1
  -8.00751E+1  -1.13883E+2
  -8.40475E+1  -2.91620E+1
  -5.33094E+0  -1.16099E+2
  -5.82748E+1   9.52385E+1
  -2.15100E+2  -1.11208E+2
  -7.59174E+0  -4.71798E+1
  -6.67973E+0   1.14194E+1
  -1.01592E+2  -1.40915E+2
   1.57915E+2  -3.62902E+1
   5.22147E+1   2.78278E+2
   2.74316E+1   8.84992E+1
   1.35114E+2   1.95781E+2
   7.29394E+1  -1.06024E+2
  -2.78379E+2   1.41326E+2
  -2.69740E+2   1.19209E+2
   1.38179E+2   2.37277E+1
   3.57905E+1  -1.71909E+2
  -8.29852E+1  -7.63562E+1
   1.61653E+2   2.68995E+2
  -3.09755E+1   1.02023E+1
  -2.25052E+2   6.47695E+1
  -7.13704E+1   1.36763E+2
  -8.98880E+1  -3.05428E+1
   9.41233E+1   2.40138E+1
  -9.06189E+1   2.43199E+1
  -2.07007E+1  -2.18065E+1
   2.90459E+1   3.19985E+2
   1.60686E+2   4.88128E+1
  -1.29504E+2   1.56620E+2
  -2.35045E+2   1.88661E+1
  -2.66490E+2  -1.53150E+2
   4.18288E-1  -3.90265E+1
   7.79375E+1  -2.94688E+1
   4.03739E+1  -5.77174E+1
   1.91796E+1   1.80230E+1
  -2.92458E+2  -2.90351E+1
  -3.69199E+2   2.00251E+0
   2.03431E+1   1.21424E+2
  -1.14732E+2  -5.32771E+1
