 
 $NMID
 ID=''
 FMTDAT='(2E13.5)'
 TRAMP=   1.00000E+0
 VOLUME=   1.00000E+0
 $END
   5.23414E+5  -1.56008E+5
   1.44808E+6   1.31467E+5
   1.43913E+6  -3.54922E+4
   1.36230E+6   1.27337E+2
   1.40134E+6   5.58947E+3
   1.37438E+6  -4.75807E+4
   1.34943E+6  -4.39128E+4
   1.37438E+6  -5.86994E+4
   1.34283E+6  -8.96459E+4
   1.32075E+6  -6.67856E+4
   1.33487E+6  -7.19500E+4
   1.30830E+6  -9.50395E+4
   1.29070E+6  -8.64548E+4
   1.29557E+6  -9.08329E+4
   1.26856E+6  -9.88550E+4
   1.25237E+6  -9.17636E+4
   1.25850E+6  -1.02984E+5
   1.23814E+6  -1.10788E+5
   1.22333E+6  -1.03949E+5
   1.22141E+6  -1.21100E+5
   1.20106E+6  -1.30954E+5
   1.18804E+6  -1.23738E+5
   1.18559E+6  -1.31837E+5
   1.16822E+6  -1.41400E+5
   1.15226E+6  -1.36131E+5
   1.14371E+6  -1.45349E+5
   1.13114E+6  -1.48988E+5
   1.11911E+6  -1.44337E+5
   1.10610E+6  -1.47036E+5
   1.09083E+6  -1.51785E+5
   1.08320E+6  -1.50754E+5
   1.07030E+6  -1.57247E+5
   1.05322E+6  -1.59391E+5
   1.04410E+6  -1.58834E+5
   1.03243E+6  -1.67850E+5
   1.01528E+6  -1.75857E+5
   1.00655E+6  -1.76373E+5
   9.97531E+5  -1.79514E+5
   9.79940E+5  -1.82707E+5
   9.66766E+5  -1.83610E+5
   9.56716E+5  -1.84458E+5
   9.42728E+5  -1.86101E+5
   9.27354E+5  -1.87605E+5
   9.16059E+5  -1.87929E+5
   9.05035E+5  -1.87262E+5
   8.93581E+5  -1.87690E+5
   8.80016E+5  -1.86427E+5
   8.67372E+5  -1.82897E+5
   8.54555E+5  -1.83160E+5
   8.41782E+5  -1.84461E+5
   8.29351E+5  -1.83066E+5
   8.17938E+5  -1.82167E+5
   8.06100E+5  -1.82714E+5
   7.94207E+5  -1.81412E+5
   7.82419E+5  -1.79655E+5
   7.70669E+5  -1.77770E+5
   7.58280E+5  -1.74902E+5
   7.45640E+5  -1.72538E+5
   7.33222E+5  -1.70990E+5
   7.22180E+5  -1.69152E+5
   7.11164E+5  -1.66615E+5
   6.99338E+5  -1.63677E+5
   6.88146E+5  -1.60903E+5
   6.76777E+5  -1.57346E+5
   6.64165E+5  -1.54235E+5
   6.51331E+5  -1.52154E+5
   6.39164E+5  -1.49827E+5
   6.28043E+5  -1.47184E+5
   6.17678E+5  -1.44387E+5
   6.07276E+5  -1.40265E+5
   5.95626E+5  -1.36240E+5
   5.84097E+5  -1.32607E+5
   5.73922E+5  -1.29745E+5
   5.63590E+5  -1.25957E+5
   5.52455E+5  -1.21034E+5
   5.41677E+5  -1.17279E+5
   5.31319E+5  -1.14116E+5
   5.20734E+5  -1.10339E+5
   5.10770E+5  -1.05907E+5
   5.00481E+5  -1.01829E+5
   4.90004E+5  -9.84485E+4
   4.79621E+5  -9.43618E+4
   4.70041E+5  -9.02588E+4
   4.60910E+5  -8.55741E+4
   4.50551E+5  -8.10149E+4
   4.41190E+5  -7.67346E+4
   4.32234E+5  -7.26186E+4
   4.23401E+5  -6.83589E+4
   4.14137E+5  -6.34493E+4
   4.05165E+5  -5.95776E+4
   3.96795E+5  -5.58043E+4
   3.88360E+5  -5.22513E+4
   3.79567E+5  -4.81534E+4
   3.71016E+5  -4.39915E+4
   3.62390E+5  -4.09978E+4
   3.53821E+5  -3.83028E+4
   3.46264E+5  -3.51052E+4
   3.38543E+5  -3.16530E+4
   3.30636E+5  -2.87084E+4
   3.22908E+5  -2.56246E+4
   3.15936E+5  -2.23162E+4
   3.08869E+5  -1.85115E+4
   3.01294E+5  -1.51094E+4
   2.93390E+5  -1.23134E+4
   2.86672E+5  -9.64312E+3
   2.80150E+5  -6.79484E+3
   2.73554E+5  -3.94180E+3
   2.66797E+5  -7.04093E+2
   2.59642E+5   1.80013E+3
   2.52777E+5   3.92336E+3
   2.46940E+5   6.25298E+3
   2.41297E+5   9.01805E+3
   2.35074E+5   1.17821E+4
   2.28990E+5   1.41585E+4
   2.23106E+5   1.64367E+4
   2.17410E+5   1.92961E+4
   2.11470E+5   2.20168E+4
   2.05695E+5   2.43324E+4
   1.99616E+5   2.63652E+4
   1.94233E+5   2.79140E+4
   1.89598E+5   2.99558E+4
   1.84728E+5   3.25335E+4
   1.79550E+5   3.46944E+4
   1.74454E+5   3.65663E+4
   1.69497E+5   3.83339E+4
   1.64473E+5   4.02417E+4
   1.59779E+5   4.22271E+4
   1.54809E+5   4.41236E+4
   1.50240E+5   4.56872E+4
   1.46007E+5   4.74699E+4
   1.41501E+5   5.01607E+4
   1.36874E+5   5.18650E+4
   1.32422E+5   5.32966E+4
   1.28352E+5   5.48902E+4
   1.24441E+5   5.67418E+4
   1.19948E+5   5.82733E+4
   1.16128E+5   5.92606E+4
   1.12308E+5   6.06748E+4
   1.08631E+5   6.23847E+4
   1.04910E+5   6.38063E+4
   1.01093E+5   6.46419E+4
   9.73550E+4   6.57770E+4
   9.40366E+4   6.68450E+4
   9.10039E+4   6.77727E+4
   8.77976E+4   6.88622E+4
   8.42550E+4   7.01679E+4
   8.08933E+4   7.10478E+4
   7.78732E+4   7.17813E+4
   7.46851E+4   7.27675E+4
   7.19338E+4   7.36896E+4
   6.89795E+4   7.44667E+4
   6.65206E+4   7.48814E+4
   6.37731E+4   7.54681E+4
   6.12568E+4   7.62472E+4
   5.85496E+4   7.65991E+4
   5.60786E+4   7.70907E+4
   5.38661E+4   7.75568E+4
   5.16510E+4   7.78577E+4
   4.94371E+4   7.82329E+4
   4.71817E+4   7.84812E+4
   4.48239E+4   7.87421E+4
   4.29200E+4   7.88975E+4
   4.10709E+4   7.89632E+4
   3.92800E+4   7.91220E+4
   3.71257E+4   7.88465E+4
   3.55161E+4   7.90265E+4
   3.36233E+4   7.91981E+4
   3.20387E+4   7.93122E+4
   3.05003E+4   7.94969E+4
   2.88809E+4   7.92494E+4
   2.74524E+4   7.90894E+4
   2.60557E+4   7.88673E+4
   2.45208E+4   7.86393E+4
   2.29663E+4   7.84522E+4
   2.17237E+4   7.80880E+4
   2.02645E+4   7.78085E+4
   1.91513E+4   7.74871E+4
   1.74777E+4   7.73670E+4
   1.61276E+4   7.68677E+4
   1.48554E+4   7.62702E+4
   1.36562E+4   7.58978E+4
   1.27827E+4   7.55722E+4
   1.14373E+4   7.50499E+4
   1.02151E+4   7.45305E+4
   8.89869E+3   7.37342E+4
   8.05906E+3   7.32972E+4
   6.73320E+3   7.28737E+4
   5.55385E+3   7.19925E+4
   4.76150E+3   7.14099E+4
   3.57351E+3   7.11230E+4
   2.56159E+3   7.05370E+4
   1.25575E+3   6.98032E+4
   2.67125E+2   6.91148E+4
  -8.38302E+2   6.83739E+4
  -1.64527E+3   6.74271E+4
  -2.63339E+3   6.68346E+4
  -3.77195E+3   6.61146E+4
  -4.84389E+3   6.53243E+4
  -5.77079E+3   6.46458E+4
  -6.97162E+3   6.41100E+4
  -8.17902E+3   6.30109E+4
  -8.93888E+3   6.22088E+4
  -9.94485E+3   6.11703E+4
  -1.08570E+4   6.08273E+4
  -1.15876E+4   5.98167E+4
  -1.26640E+4   5.92341E+4
  -1.37516E+4   5.84519E+4
  -1.44551E+4   5.77181E+4
  -1.50978E+4   5.69888E+4
  -1.62399E+4   5.61092E+4
  -1.70086E+4   5.50764E+4
  -1.77670E+4   5.45598E+4
  -1.84232E+4   5.37231E+4
  -1.94687E+4   5.28048E+4
  -2.00519E+4   5.21781E+4
  -2.09369E+4   5.11670E+4
  -2.17276E+4   5.02023E+4
  -2.21477E+4   4.93493E+4
  -2.26595E+4   4.85782E+4
  -2.31107E+4   4.79755E+4
  -2.39345E+4   4.71453E+4
  -2.42908E+4   4.60271E+4
  -2.48132E+4   4.54249E+4
  -2.51725E+4   4.45341E+4
  -2.60920E+4   4.35240E+4
  -2.60961E+4   4.29032E+4
  -2.66734E+4   4.20995E+4
  -2.71530E+4   4.14601E+4
  -2.76439E+4   4.05299E+4
  -2.79619E+4   3.98752E+4
  -2.84222E+4   3.90410E+4
  -2.87348E+4   3.82965E+4
  -2.89830E+4   3.77498E+4
  -2.92691E+4   3.70455E+4
  -2.95828E+4   3.61291E+4
  -2.94788E+4   3.52156E+4
  -2.99390E+4   3.49268E+4
  -2.99012E+4   3.44320E+4
  -3.00853E+4   3.32081E+4
  -3.01784E+4   3.25042E+4
  -3.06522E+4   3.19008E+4
  -3.05327E+4   3.14637E+4
  -3.07131E+4   3.07037E+4
  -3.08840E+4   3.01246E+4
  -3.08547E+4   2.90784E+4
  -3.10065E+4   2.88801E+4
  -3.09731E+4   2.78446E+4
  -3.11462E+4   2.74114E+4
  -3.09191E+4   2.67391E+4
  -3.10177E+4   2.60411E+4
  -3.08180E+4   2.54490E+4
  -3.09569E+4   2.49720E+4
  -3.09270E+4   2.43154E+4
  -3.08738E+4   2.36091E+4
  -3.05800E+4   2.30185E+4
  -3.07437E+4   2.25191E+4
  -3.06192E+4   2.16682E+4
  -3.04663E+4   2.14032E+4
  -3.05602E+4   2.07853E+4
  -3.02089E+4   1.99907E+4
  -3.03973E+4   1.93506E+4
  -3.02245E+4   1.88957E+4
  -3.00857E+4   1.83621E+4
  -3.00701E+4   1.75178E+4
  -2.97996E+4   1.71223E+4
  -2.95087E+4   1.67085E+4
  -2.97055E+4   1.59047E+4
  -2.95869E+4   1.54297E+4
  -2.93696E+4   1.49289E+4
  -2.92346E+4   1.42956E+4
  -2.89523E+4   1.39732E+4
  -2.89735E+4   1.35940E+4
  -2.84877E+4   1.28804E+4
  -2.84400E+4   1.21618E+4
  -2.84571E+4   1.18422E+4
  -2.82924E+4   1.14554E+4
  -2.80459E+4   1.11054E+4
  -2.75417E+4   1.04233E+4
  -2.74061E+4   9.89610E+3
  -2.73869E+4   9.57581E+3
  -2.67829E+4   8.99568E+3
  -2.66862E+4   8.65857E+3
  -2.64570E+4   8.36047E+3
  -2.62588E+4   7.94406E+3
  -2.60652E+4   7.19687E+3
  -2.59094E+4   7.03547E+3
  -2.55998E+4   6.51193E+3
  -2.52436E+4   6.42741E+3
  -2.49593E+4   6.18998E+3
  -2.45894E+4   5.89738E+3
  -2.44297E+4   5.28989E+3
  -2.39946E+4   5.27843E+3
  -2.38819E+4   4.83951E+3
  -2.32791E+4   4.63116E+3
  -2.31613E+4   4.39836E+3
  -2.25754E+4   4.19610E+3
  -2.24523E+4   3.82374E+3
  -2.17972E+4   3.75792E+3
  -2.17052E+4   3.46890E+3
  -2.14074E+4   3.35613E+3
  -2.10522E+4   3.06971E+3
  -2.04103E+4   3.08026E+3
  -2.03323E+4   2.77356E+3
  -1.99618E+4   2.28588E+3
  -1.93948E+4   2.15329E+3
  -1.91587E+4   2.08512E+3
  -1.85495E+4   1.90574E+3
  -1.79637E+4   1.72681E+3
  -1.75458E+4   1.53724E+3
  -1.74608E+4   1.52222E+3
  -1.69658E+4   1.44028E+3
  -1.63855E+4   1.53771E+3
  -1.60578E+4   1.17679E+3
  -1.57157E+4   1.18149E+3
  -1.52087E+4   1.14634E+3
  -1.47666E+4   7.98341E+2
  -1.42914E+4   6.06727E+2
  -1.39914E+4   7.16607E+2
  -1.33712E+4   5.06474E+2
  -1.29629E+4   3.88515E+2
  -1.27112E+4   1.05404E+2
  -1.23640E+4   3.20276E+2
  -1.19616E+4   3.51365E+2
  -1.15213E+4  -8.76675E+1
  -1.08085E+4   8.02246E+0
  -1.01905E+4   1.33957E+2
  -1.02530E+4   1.00340E+2
  -9.63957E+3  -3.63139E+2
  -9.24559E+3  -2.60666E+2
  -8.85542E+3  -2.35863E+2
  -8.57379E+3  -2.30085E+2
  -8.17300E+3  -2.66684E+2
  -7.83946E+3  -2.52691E+2
  -7.27072E+3  -2.92964E+2
  -6.80232E+3  -4.41189E+2
  -6.49743E+3  -4.06899E+2
  -6.24942E+3  -5.87872E+2
  -6.00819E+3  -8.18039E+2
  -5.51590E+3  -5.12641E+2
  -5.18953E+3  -8.57483E+2
  -4.83969E+3  -3.58662E+2
  -4.60621E+3  -6.49897E+2
  -4.19389E+3  -6.29189E+2
  -3.98936E+3  -9.48556E+2
  -3.53215E+3  -6.88584E+2
  -3.35156E+3  -6.41747E+2
  -2.59580E+3  -5.77094E+2
  -2.63661E+3  -8.32059E+2
  -2.44800E+3  -6.83081E+2
  -2.33110E+3  -7.99318E+2
  -1.89764E+3  -4.83860E+2
  -1.60049E+3  -4.79652E+2
  -1.24323E+3  -7.75413E+2
  -9.33611E+2  -5.94685E+2
  -7.51394E+2  -5.33352E+2
  -7.75516E+2  -4.91485E+2
  -4.63189E+2  -3.97511E+2
  -2.15709E+1  -5.18201E+2
   1.08377E+2  -5.17802E+2
   9.94107E+1  -4.34041E+2
   3.41932E+2  -4.05014E+2
   6.87018E+2  -6.12764E+2
   8.97236E+2  -2.87552E+2
   1.11767E+3  -2.63866E+2
   1.20717E+3  -1.14203E+2
   1.40580E+3  -3.12183E+2
   1.61909E+3  -2.26927E+2
