 
 $NMID
 ID=''
 FMTDAT='(2E13.5)'
 TRAMP=   1.00000E+0
 VOLUME=   1.00000E+0
 $END
  -5.03561E+3  -2.64867E+4
  -1.73620E+4  -2.10204E+4
  -2.19785E+4   1.42844E+4
   2.40152E+4   2.11310E+4
   2.10920E+4  -1.68625E+4
  -2.31963E+4  -1.63594E+4
  -1.17740E+4   1.49140E+4
   2.00833E+4   5.87796E+3
   4.83509E+3  -1.26082E+4
  -1.13974E+4   2.14970E+3
   1.53719E+3   1.18084E+4
   6.81433E+3  -1.00481E+3
  -1.24991E+3  -5.24687E+3
  -5.25885E+3   3.34377E+3
  -2.91211E+3   5.14542E+3
   2.22577E+3  -2.10000E+3
   2.66547E+3  -4.26437E+3
  -1.84408E+3   2.00796E+3
  -7.03869E+2   2.97810E+3
   2.49345E+3  -1.28271E+3
   2.01400E+2  -8.52140E+2
  -3.05964E+2   9.04768E+1
   1.04803E+3  -2.03090E+3
  -2.21439E+2   7.65572E+2
  -1.46695E+3   1.54314E+3
   9.28796E+1  -2.38909E+3
   2.08756E+3  -3.10343E+2
   1.17269E+3   3.56465E+3
  -1.23384E+3   7.44235E+1
  -5.12943E+2  -1.60824E+3
   2.11537E+3   1.29678E+3
   1.42511E+3   1.33210E+3
  -1.50498E+3   9.52573E+1
  -1.86963E+3   7.18814E+2
  -9.94355E+2  -1.01978E+3
  -2.33003E+1  -2.89119E+3
   1.65139E+3  -1.35015E+2
   1.67717E+3   2.32638E+3
   8.62712E+1   1.96477E+2
  -2.94099E+2  -7.05502E+2
  -1.53738E+2   1.11137E+3
  -7.15136E+2   7.14746E+2
  -4.39356E+2  -1.42287E+3
   4.83032E+2  -1.54075E+3
   1.15027E+3  -9.55244E+2
   1.88519E+3  -5.11122E+2
   1.53081E+3   1.14837E+3
  -7.61673E+2   2.41067E+3
  -2.13834E+3   7.30413E+2
  -8.30391E+2  -8.40618E+2
  -2.04166E+2  -8.76849E+2
  -5.37518E+2  -7.52240E+2
  -1.21673E+2  -7.98918E+2
   1.29907E+3  -5.57667E+2
   1.22340E+3  -2.14443E+2
   1.10627E+2   5.83513E+1
  -3.03978E+2   9.92647E+2
  -9.28503E+2  -9.13898E+2
  -7.69756E+2  -1.76709E+3
  -1.15606E+2  -1.31295E+3
   7.71693E+2  -6.41880E+2
   1.21031E+3  -5.58170E+2
   1.03844E+3   2.98803E+2
   1.87402E+2   2.24985E+3
  -1.12433E+3   1.69035E+3
  -1.73098E+3   8.04535E+1
  -1.58097E+3  -7.55873E+2
  -1.10884E+3  -1.51823E+3
   3.75957E+2  -1.80045E+3
   8.56951E+2  -4.18853E+2
  -6.01748E+2   5.50354E+2
  -1.08791E+3  -5.20179E+2
   3.37919E+2  -1.77810E+3
   1.14838E+3  -2.79060E+2
   1.59412E+2   9.92240E+2
  -6.08176E+2   1.38699E+2
  -3.35509E+1  -3.42112E+2
   8.05513E+2  -2.38967E+2
   1.59752E+2   9.13018E+2
  -6.63378E+2   4.48362E+2
  -6.85963E+2   4.66751E+1
  -2.55803E+2  -3.72817E+2
  -1.75535E+2  -9.75515E+1
  -2.21652E+2   1.00252E+2
  -6.42489E+2  -3.03175E+2
  -3.58026E+2  -1.03417E+3
  -4.74193E+1  -4.96981E+2
   3.12479E+2   6.82650E+1
   1.88421E+2  -1.24678E+2
  -6.67047E+1  -4.51504E+2
   2.52762E+2  -3.57142E+2
   8.34271E+2   1.08021E+2
   7.55748E+2   7.40704E+2
  -6.48724E+2   1.17174E+3
  -1.35000E+3   8.11281E+2
  -7.37578E+2  -9.41168E+2
   1.71941E+2  -1.15714E+3
   2.28477E+2   3.44604E+2
  -6.26582E+2   2.94627E+2
  -6.81502E+1  -1.23413E+3
   1.19140E+3  -1.00598E+3
   1.15286E+3   7.82303E+2
  -2.89749E+2   9.69997E+2
  -1.26866E+3  -2.35307E+2
  -5.30518E+2  -8.38708E+2
   8.05271E+2  -2.28119E+2
   8.85978E+2  -9.45219E+1
  -2.76513E+2   5.02790E+2
  -1.15482E+3   4.46588E+2
  -7.71145E+2  -7.51380E+2
   4.63265E+1  -1.36936E+3
   8.96543E+2  -5.70361E+2
   6.75515E+2   2.29659E+2
   1.38888E+2   3.21510E+2
  -5.50208E+1  -3.00216E+2
   4.29506E+2   3.22314E+2
   1.55885E+2   1.23562E+3
  -9.10600E+2   7.05163E+2
  -1.43809E+3  -4.66167E+2
  -6.75129E+2  -1.15098E+3
   5.90739E+2  -5.13066E+2
   2.41514E+2  -3.83919E+2
   4.14615E+2  -2.21550E+2
   3.83873E+2   1.91041E+2
   1.68472E+2   5.66932E+2
  -5.08910E+2   4.98457E+2
  -7.69211E+2  -1.00825E+2
  -3.52932E+1  -4.74983E+2
   2.60817E+2  -3.42630E+2
   5.29164E+2   1.58440E+2
   3.78529E+2   5.42228E+2
  -1.86402E+2   7.16201E+2
  -3.74560E+2   2.22073E+2
   1.95850E+2  -1.93778E+2
   1.08625E+2   3.47934E+1
  -3.92803E+2  -1.67635E+2
  -2.21859E+2  -2.18640E+2
   9.07892E+1  -6.80829E+1
   4.49360E+2   7.86273E+0
   4.24391E+2   6.60236E+2
  -5.10310E+2   3.97310E+2
  -2.99074E+2  -3.88610E+2
  -1.41620E+1  -1.05709E+3
   7.59169E+2  -5.53603E+2
   1.11724E+3   7.95278E+2
   3.13074E+2   8.78180E+2
  -4.64440E+2   3.89603E+2
  -2.68761E+2  -5.79617E+1
  -9.72812E-1   3.61056E+2
  -3.90121E+2  -6.70081E+0
  -6.14769E+2  -2.07156E+2
  -2.52678E+2  -7.33157E+2
   2.81213E+2  -5.78103E+2
   7.04504E+2   4.44800E+1
  -5.40098E+1   4.42824E+2
   1.31615E+2  -9.66058E+0
   5.68185E+1  -1.40431E+2
   1.71731E+2  -2.66556E+2
   1.29992E+2   2.80644E+1
   2.98498E+2  -7.83289E+1
   2.63156E+2   2.34042E+2
   2.46299E+2   1.76992E+2
  -2.80159E+2   3.50041E+2
  -3.60788E+2   3.44770E+2
  -4.70318E+2   1.20680E+1
  -4.66599E+2  -6.24598E+2
   1.11481E+2  -6.10738E+2
   5.74065E+2   3.15696E+2
   5.87231E+1   4.26365E+2
  -3.18280E+2  -1.06278E+2
  -1.17317E+2  -2.20090E+2
   2.21647E+2   1.29761E+2
   2.14312E+2   5.33977E+2
  -9.86027E+1   1.01868E+2
  -1.37966E+2  -3.33096E+2
   1.86937E+2  -1.21140E+2
   1.77109E+2   3.72874E+2
  -2.33340E+2   4.79538E+2
  -4.88489E+2  -1.11925E+2
   8.80971E+1  -3.88885E+2
   3.16110E+2  -1.42538E+2
   4.96117E+2   5.64253E+2
  -2.40132E+1   3.68014E+2
  -2.44898E+2   4.88422E+2
  -3.59215E+2   1.10434E+2
   6.93160E+0   9.49531E+1
  -2.56552E+2   3.79020E+1
  -2.50144E+2  -3.12089E+2
  -1.09344E+2  -4.90007E+2
   4.89473E+2  -5.47686E+2
   9.34299E+2   1.14807E+2
   5.12229E+2   8.07241E+2
  -2.45424E+2   7.23683E+2
  -3.97269E+2   8.15630E+1
  -1.59374E+2  -2.83860E+2
   7.09514E+1  -1.67600E+2
   2.55440E+2   3.49921E+1
   2.93244E+2  -2.23288E+2
   5.44168E+1   1.49235E+2
   5.13182E+2   5.07703E+2
  -1.25531E+2   4.21224E+2
  -3.32099E+2   2.02996E+2
  -4.90747E+2  -3.53584E+2
   1.65085E+2  -4.29761E+2
   6.97342E+2  -6.21684E+1
   1.96104E+2   3.33428E+2
  -2.56765E+1   3.23709E+2
  -1.29907E+2  -2.76531E+2
   1.44217E+2  -1.54893E+2
   2.47998E+2   3.56985E+2
  -2.45636E+2   4.10051E+1
  -1.65964E+2  -3.77043E+2
   1.94173E+2  -2.37927E+2
   7.34376E+2   1.22453E+2
   3.35025E+2   6.45991E+2
  -4.10096E+2   4.46772E+2
  -5.90770E+2   2.91659E+2
  -2.06828E+2  -9.57295E+1
   5.43572E+1  -8.88735E+1
   7.15803E+1   1.41728E+2
   1.23445E+2  -1.56803E+2
  -1.15687E+2  -3.56803E+2
   4.30312E+2   1.46317E+1
   4.45991E+2   4.11932E+2
  -1.06978E+2   6.99608E+2
  -4.99387E+2   2.41317E+1
  -1.30666E+2  -4.07343E+2
   4.79721E+2  -7.28315E+1
   3.13720E+2   3.81181E+2
  -3.27211E+0   4.01674E+2
  -3.18060E+2   9.01874E+1
  -1.67988E+2  -1.08380E+1
   5.76086E+1  -9.16394E+0
   3.29463E+1   2.38320E+2
  -2.84263E+2   1.16717E+2
  -1.30916E+2  -9.88310E+1
   1.64169E+2   9.72910E+1
   3.53923E+1   6.48782E+1
   1.07191E+2   3.24311E+2
  -4.31562E+2   8.08289E+1
  -1.68782E+1  -3.54768E+2
   2.37872E+2  -3.47649E+1
   2.66881E+2   2.72580E+2
   6.25619E+1   4.97335E+2
  -3.67258E+2   1.00034E+2
  -6.18262E+0  -2.52373E+2
   1.63562E+2   2.70964E+2
   1.02817E+2   2.93635E+2
  -3.30713E+2   1.96185E+2
  -1.40519E+2  -3.32897E+2
   2.38250E+2  -1.19247E+2
   4.32444E+2   4.34635E+2
  -1.42684E+2   4.79447E+2
  -4.14896E+2   2.67986E+2
  -2.60931E+2  -1.36184E+2
   2.91609E+0  -3.28393E+2
   2.86313E+2   1.75439E+2
   6.24905E+1   1.40821E+2
   7.95184E+1   8.96915E+1
   9.31351E+1   1.24358E+2
   3.15388E+2   3.87490E+2
  -3.15206E+2   4.73911E+2
  -4.67080E+2   4.75090E+2
  -3.07152E+2  -3.09867E+2
   6.59064E+1  -3.70249E+2
   4.77432E+2  -9.67228E+1
   2.44562E+2   3.59631E+2
  -3.59661E+2   3.87706E+2
  -1.94313E+2  -4.41175E+1
  -1.29118E+2  -1.35277E+1
   3.00908E+1  -1.29823E+2
  -2.65461E+2   1.12917E+1
  -1.82865E+2  -7.05788E+1
   3.10659E+2  -2.27308E+2
   2.57855E+2   1.00067E+2
   3.49087E+1   4.20298E+2
  -4.54392E+2   4.63113E+2
  -3.61201E+2  -1.42039E+2
  -1.68515E+2  -1.51549E+2
   2.45313E+2  -3.28595E+1
   2.64482E+1   3.30802E+2
   8.32588E+1   1.84742E+2
  -9.13547E+1  -9.29577E+1
   5.53889E+1   2.25415E+2
  -1.37955E+1   2.62393E+2
  -2.91768E+2   5.33651E+2
  -4.42591E+2  -1.22771E+2
   5.76070E+1  -1.16489E+2
   2.51558E+2  -2.76381E+2
   5.23622E+2   9.85461E+1
   2.11549E+2   3.87300E+2
  -1.52745E+2   1.34198E+2
  -2.00826E+1   1.02136E+2
  -1.50924E+1   1.05545E+2
  -1.59819E+2   3.43651E+1
  -2.85093E+2  -6.07063E+1
   6.92336E+1  -8.93843E+1
   3.41963E+2   6.76958E+1
   1.02843E+2   7.97021E+1
  -1.33771E+1   2.35262E+2
  -2.52747E+2  -1.99119E+2
   1.54625E+2  -1.18899E+2
   3.85121E+2  -7.68201E+1
  -5.63149E+1   2.60472E+2
  -2.73193E+2   2.68349E+2
  -3.09649E+2  -1.15855E+2
   1.49294E+2  -7.82271E+1
   1.02432E+2  -1.27208E+2
   9.65459E+1   1.64629E+1
  -2.46477E+2   5.92062E+0
   7.78806E+1  -2.55788E+2
   2.16278E+2  -1.37499E+2
   1.13323E+2   1.17257E+2
   1.08617E+2   4.49320E+2
  -2.46506E+2   5.15201E+1
  -2.60213E+2  -2.48183E+1
   2.14183E+2   5.85221E+0
  -9.22574E+1   3.33358E+2
  -2.55284E+2   4.36149E+1
   2.22716E+2   6.22533E+1
   7.46009E+1   1.35872E+2
   1.04881E+2   1.18674E+2
  -1.21524E+2   8.95905E+1
  -3.09415E+2   9.75127E+1
   2.03565E+1  -2.55096E+2
   2.76441E+2   4.96106E+1
   2.05856E+2   9.37395E+1
  -1.46352E+2   5.55932E+2
  -2.24650E+2   1.72492E+2
  -2.20800E+2   1.70032E+2
  -1.55247E+1  -4.10230E+1
   6.53350E+1   9.46551E-1
  -5.09228E+1  -3.99114E+1
  -1.39026E+2  -3.15499E+2
   2.28333E+2  -4.40911E+1
   1.81060E+2   2.92875E+2
   2.20396E+1   5.22791E+2
  -4.05400E+2   3.88838E+2
  -2.87573E+2  -1.79678E+2
   4.78822E+1  -5.30209E+2
   2.15500E+2  -5.75771E+1
   6.71446E+1   2.79060E+2
  -1.12281E+2  -3.51235E+1
  -1.10480E+2   6.35473E+1
   8.93985E+1   5.91317E+1
   3.64338E+1   5.77697E+1
  -2.22791E+2  -2.09880E+2
  -3.19034E+1  -2.80615E+2
   1.26546E+2   6.87831E+1
   3.53182E+2   8.74590E+0
   5.56400E+1   2.53534E+2
  -2.89827E+2   1.56116E+2
  -2.72275E+2   1.57565E+2
   1.18809E+2  -6.39820E+0
  -7.90996E+1  -8.19287E+1
  -4.55951E+1   2.64242E+1
  -2.54076E+2  -2.23784E+2
  -3.19237E+1  -8.37467E+1
   1.51686E+2  -1.26826E+2
   9.65565E+1   2.43315E+2
  -8.00435E+1   4.14294E+1
  -4.26778E+2   4.36858E+1
  -7.24927E+1  -2.47822E+2
   2.75294E+2  -8.38962E+1
   1.24692E+2   4.58621E+1
   1.42045E+2   1.41879E+2
  -2.92774E+0  -1.14496E+1
