 LCModel (Version 6.3-1N) Copyright: S.W. Provencher.          Ref.: Magn. Reson. Med. 30:672-679 (1993).                
 Slice_N1@12_19  28-Feb-2025 11:38:51
 27 lines in following concentration table = NCONC+1
    Conc.  %SD /Cr+PCr  Metabolite                                         
 1.23E-04  14% 1.1E-04 Mac                                                 
    5.271  35%   4.926 Cr                                                  
    3.289  52%   3.074 PCr                                                 
    5.504  23%   5.144 Ins                                                 
    8.285  13%   7.743 NAA                                                 
    8.266  16%   7.726 Tau                                                 
    0.913 163%   0.853 PCho                                                
    1.523  92%   1.424 GPC                                                 
    9.133  16%   8.536 Glu                                                 
    3.383  34%   3.162 Gln                                                 
    0.000 999%   0.000 Ala                                                 
    2.673  68%   2.498 Asc                                                 
    1.814  75%   1.695 Asp                                                 
    0.998  73%   0.932 GABA                                                
    0.567 164%   0.530 Glc                                                 
    1.590  44%   1.486 GSH                                                 
    2.936  34%   2.744 Lac                                                 
    0.694 118%   0.648 NAAG                                                
    1.521 108%   1.421 PE                                                  
    2.436  19%   2.277 GPC+PCho                                            
    8.979  12%   8.392 NAA+NAAG                                            
   12.515  15%  11.697 Glu+Gln                                             
    8.560  12%   8.000 Cr+PCr                                              
    8.979  12%   8.392 NAA+NAAG                                            
    8.560  12%   8.000 Cr+PCr                                              
   12.515  15%  11.697 Glu+Gln                                             
   6 lines in following misc. output table
  FWHM = 0.024 ppm    S/N =   2                                            
  Data shift = 0.033 ppm                                                   
  Ph:-116 deg       0.0 deg/ppm                                            
  alphaB,S = 1.7E-01,   4.0E-01                                            
   19 spline knots.   Ns = 5(1)                                            
   2 inflections.     1 extrema                                            
  480 points on ppm-axis = NY
      4.100000     4.091866     4.083733     4.075600     4.067466     4.059333     4.051199     4.043066     4.034933     4.026799
      4.018666     4.010532     4.002399     3.994265     3.986132     3.977998     3.969864     3.961731     3.953597     3.945463
      3.937330     3.929196     3.921062     3.912929     3.904795     3.896662     3.888528     3.880394     3.872261     3.864127
      3.855993     3.847860     3.839726     3.831592     3.823459     3.815325     3.807191     3.799058     3.790924     3.782790
      3.774657     3.766523     3.758389     3.750256     3.742122     3.733989     3.725855     3.717721     3.709588     3.701454
      3.693320     3.685187     3.677053     3.668919     3.660786     3.652652     3.644518     3.636385     3.628251     3.620117
      3.611984     3.603850     3.595716     3.587583     3.579449     3.571316     3.563182     3.555048     3.546915     3.538781
      3.530647     3.522514     3.514380     3.506246     3.498113     3.489979     3.481845     3.473712     3.465578     3.457444
      3.449311     3.441177     3.433043     3.424910     3.416776     3.408643     3.400509     3.392375     3.384242     3.376108
      3.367974     3.359841     3.351707     3.343573     3.335440     3.327306     3.319172     3.311039     3.302905     3.294771
      3.286638     3.278504     3.270370     3.262237     3.254103     3.245970     3.237836     3.229702     3.221569     3.213435
      3.205301     3.197168     3.189034     3.180900     3.172767     3.164633     3.156499     3.148366     3.140232     3.132098
      3.123965     3.115831     3.107697     3.099564     3.091430     3.083297     3.075163     3.067029     3.058896     3.050762
      3.042628     3.034495     3.026361     3.018227     3.010094     3.001960     2.993826     2.985693     2.977559     2.969425
      2.961292     2.953158     2.945024     2.936891     2.928757     2.920624     2.912490     2.904356     2.896223     2.888089
      2.879955     2.871822     2.863688     2.855554     2.847421     2.839287     2.831153     2.823020     2.814886     2.806752
      2.798619     2.790485     2.782351     2.774218     2.766084     2.757951     2.749817     2.741683     2.733550     2.725416
      2.717282     2.709149     2.701015     2.692881     2.684748     2.676614     2.668480     2.660347     2.652213     2.644079
      2.635946     2.627812     2.619678     2.611545     2.603411     2.595278     2.587144     2.579010     2.570877     2.562743
      2.554609     2.546476     2.538342     2.530208     2.522075     2.513941     2.505807     2.497674     2.489540     2.481406
      2.473273     2.465139     2.457006     2.448872     2.440738     2.432605     2.424471     2.416337     2.408204     2.400070
      2.391936     2.383803     2.375669     2.367535     2.359402     2.351268     2.343134     2.335001     2.326867     2.318733
      2.310600     2.302466     2.294333     2.286199     2.278065     2.269932     2.261798     2.253664     2.245531     2.237397
      2.229263     2.221130     2.212996     2.204862     2.196729     2.188595     2.180461     2.172328     2.164194     2.156060
      2.147927     2.139793     2.131660     2.123526     2.115392     2.107259     2.099125     2.090991     2.082858     2.074724
      2.066590     2.058457     2.050323     2.042189     2.034056     2.025922     2.017788     2.009655     2.001521     1.993387
      1.985254     1.977120     1.968987     1.960853     1.952719     1.944586     1.936452     1.928318     1.920185     1.912051
      1.903917     1.895784     1.887650     1.879516     1.871383     1.863249     1.855115     1.846982     1.838848     1.830714
      1.822581     1.814447     1.806314     1.798180     1.790046     1.781913     1.773779     1.765645     1.757512     1.749378
      1.741244     1.733111     1.724977     1.716843     1.708710     1.700576     1.692442     1.684309     1.676175     1.668041
      1.659908     1.651774     1.643641     1.635507     1.627373     1.619240     1.611106     1.602972     1.594839     1.586705
      1.578571     1.570438     1.562304     1.554170     1.546037     1.537903     1.529769     1.521636     1.513502     1.505368
      1.497235     1.489101     1.480968     1.472834     1.464700     1.456567     1.448433     1.440299     1.432166     1.424032
      1.415898     1.407765     1.399631     1.391497     1.383364     1.375230     1.367096     1.358963     1.350829     1.342695
      1.334562     1.326428     1.318295     1.310161     1.302027     1.293894     1.285760     1.277626     1.269493     1.261359
      1.253225     1.245092     1.236958     1.228824     1.220691     1.212557     1.204423     1.196290     1.188156     1.180022
      1.171889     1.163755     1.155622     1.147488     1.139354     1.131221     1.123087     1.114953     1.106820     1.098686
      1.090552     1.082419     1.074285     1.066151     1.058018     1.049884     1.041750     1.033617     1.025483     1.017349
      1.009216     1.001082     0.992949     0.984815     0.976681     0.968548     0.960414     0.952280     0.944147     0.936013
      0.927879     0.919746     0.911612     0.903478     0.895345     0.887211     0.879077     0.870944     0.862810     0.854676
      0.846543     0.838409     0.830276     0.822142     0.814008     0.805875     0.797741     0.789607     0.781474     0.773340
      0.765206     0.757073     0.748939     0.740805     0.732672     0.724538     0.716404     0.708271     0.700137     0.692003
      0.683870     0.675736     0.667603     0.659469     0.651335     0.643202     0.635068     0.626934     0.618801     0.610667
      0.602533     0.594400     0.586266     0.578132     0.569999     0.561865     0.553731     0.545598     0.537464     0.529330
      0.521197     0.513063     0.504930     0.496796     0.488662     0.480529     0.472395     0.464261     0.456128     0.447994
      0.439861     0.431727     0.423593     0.415460     0.407326     0.399192     0.391059     0.382925     0.374792     0.366658
      0.358524     0.350391     0.342257     0.334124     0.325990     0.317856     0.309723     0.301589     0.293455     0.285322
      0.277188     0.269055     0.260921     0.252787     0.244654     0.236520     0.228386     0.220253     0.212119     0.203986
 NY phased data points follow
   5.13168E+01  5.22123E+01  4.00891E+01  3.50931E+01  3.35079E+01  4.43645E+01  4.72862E+01  3.94418E+01  3.45717E+01  4.54189E+01
   4.05453E+01  1.00721E+01  1.83695E+01  2.20549E+01  3.05956E+01  2.74243E+01  7.01606E+00  2.39067E+01  1.51376E+01 -9.37761E+00
  -2.12248E+01 -1.31831E+01 -8.57460E+00 -3.70529E+00  1.74320E+01  4.83830E+01  7.15251E+01  5.84269E+01  6.88743E+01  6.46901E+01
   5.10586E+01  5.38709E+01  5.99263E+01  5.33476E+01  5.00801E+01  7.49614E+01  6.10366E+01  6.44046E+01  3.69976E+01  4.35089E+00
   1.70888E+01  3.97159E-01 -2.02096E+00  9.16239E-01  2.04208E+01  2.84819E+01  4.39049E+01  7.52978E+01  9.26411E+01  9.23808E+01
   7.42419E+01  8.28797E+01  7.09570E+01  6.92292E+01  5.56509E+01  3.50781E+01  5.21176E+01  4.25897E+01  4.18027E+01  4.07089E+01
   3.92242E+01  4.67021E+01  3.83869E+01  5.49152E+01  7.77178E+01  7.29777E+01  8.95343E+01  9.11479E+01  4.70700E+01  3.32519E+01
   3.49611E+01  3.02987E+01  3.99309E+01  5.01098E+01  6.45619E+01  8.46435E+01  8.88059E+01  8.19427E+01  7.88811E+01  8.37364E+01
   8.33743E+01  8.31719E+01  6.94320E+01  3.22340E+01  2.73765E+01  2.06577E+01  2.64768E+01  4.85299E+01  4.99721E+01  7.03504E+01
   8.15853E+01  9.16897E+01  9.39756E+01  9.08693E+01  1.03995E+02  9.74876E+01  1.08807E+02  1.30594E+02  1.11333E+02  1.02159E+02
   1.14531E+02  1.06071E+02  9.25291E+01  8.52763E+01  7.98044E+01  5.73197E+01  4.17369E+01  3.67598E+01  2.57097E+01 -1.05809E+01
  -8.62208E+01 -1.10762E+02 -8.96235E+01 -6.19532E+01 -3.78911E+01 -2.40880E+01  2.68166E+00  6.60157E+00  1.29828E+01  1.93623E+01
   1.92636E+01  5.13131E+01  4.57164E+01  2.84895E+01  4.81512E+01  5.29951E+01  6.62116E+01  7.43392E+01  7.49378E+01  1.07296E+02
   1.60556E+02  1.52338E+02  8.37146E+01  2.97915E+01 -2.79040E+01 -3.20752E+01 -2.13787E+01 -1.98433E+01 -1.40571E+01 -3.46576E+01
  -2.68814E+01 -2.24754E+01 -2.51842E+01 -3.26202E+01 -2.55810E+01 -2.62975E+01 -3.05963E+01 -1.90868E+01 -1.67320E+01 -1.19238E+01
  -1.79614E+01  5.10179E-01 -2.08319E+01 -1.41498E+01  2.32490E+00 -2.16717E+01  1.22662E+01  2.27413E+00 -9.67284E+00  7.77470E+00
   1.38545E+01  3.15374E+00 -1.15424E+01  2.07785E+00  6.18100E+00  8.69223E+00  3.30734E+00 -3.26178E+00  9.35500E+00  1.17619E+01
   3.64878E+00  2.53561E+01  4.19632E+01  4.60888E+01  4.16847E+01  2.80288E+01  3.60455E+01  4.68200E+01  3.80337E+01  2.14881E+01
   2.81855E+01 -1.12817E+00 -7.07015E+00  1.77823E+01 -1.29415E+01 -2.96905E+01 -5.57361E+00  3.63984E+00 -1.00215E+01  4.58448E+00
   2.28972E+00 -6.26217E+00 -2.56270E+00  1.63787E+01  3.06944E+01  2.02291E+01  1.25989E+01  2.83500E-01  2.53575E+01  1.50429E+01
   1.22063E+01  2.50366E+01  2.85614E+01  5.01404E+01  3.57507E+01  3.73950E+01  3.07603E+01  4.44849E+00 -2.45772E+01 -1.96106E+01
  -2.24106E+01 -3.10361E+01 -5.96589E+00 -8.56553E+00 -5.43560E-01  2.91654E+01  5.56599E+01  4.67795E+01  5.54234E+01  4.69267E+01
   3.44118E+01  3.03356E+01  1.51858E+00  2.38045E+01  2.25603E+01  2.64954E+01  2.47490E+01  1.75592E+01  3.85203E+01  4.28636E+01
   4.86097E+01  3.41414E+01  3.37878E+01  4.27550E+01  2.30298E+01 -1.53777E-01 -2.71003E+00 -1.99259E+01 -2.04139E+01 -1.87364E+01
  -3.97882E+01 -2.38553E+01 -8.79889E+00 -4.74900E+00  4.84427E-01  1.40647E+01  1.86650E+01  2.70694E+01  2.49264E+01 -8.98689E-01
  -5.05328E+00 -7.78679E+00 -1.05871E+01 -6.34144E+00 -6.62836E+00 -3.99054E+01 -6.60465E+01 -1.32676E+01  8.32981E+01  1.09734E+02
   1.27884E+02  1.60297E+02  1.31453E+02  1.27810E+02  1.05342E+02  8.23011E+01  9.39682E+01  7.96011E+01  8.44598E+01  9.61674E+01
   8.77862E+01  8.59117E+01  8.34470E+01  9.21511E+01  9.50430E+01  7.46347E+01  9.25999E+01  8.50997E+01  8.17757E+01  8.74022E+01
   7.84915E+01  1.00017E+02  8.36476E+01  7.74334E+01  6.53192E+01  5.34152E+01  6.11559E+01  6.76760E+01  6.51464E+01  5.00134E+01
   6.09939E+01  4.25213E+01  2.59284E+01  2.83776E+01  2.66560E+01  1.93434E+01  2.97446E+01  2.67277E+01  1.35537E+00 -3.09933E+00
  -8.25844E+00  8.62013E+00  1.79905E+00  1.06619E+01  2.02633E+01  2.46580E+00  6.78935E+00  6.45025E+00  6.45214E+00 -4.23225E+00
  -1.13118E+01 -2.28060E+01 -7.05472E+00 -5.44301E-01 -1.71861E+01 -1.29528E+01 -1.74038E+01  5.54654E+00  2.33044E+01  1.81016E+01
   2.85328E+01  5.20410E+01  6.63026E+01  7.69772E+01  8.40588E+01  1.01743E+02  1.23672E+02  1.16343E+02  1.29050E+02  1.42248E+02
   1.31462E+02  1.06022E+02  8.82023E+01  9.66640E+01  1.01153E+02  1.03280E+02  9.48279E+01  8.31472E+01  1.08441E+02  1.22388E+02
   9.69548E+01  9.80741E+01  1.00894E+02  8.94810E+01  7.27570E+01  6.93501E+01  8.11834E+01  7.53390E+01  8.16908E+01  6.89934E+01
   6.42773E+01  6.59901E+01  4.93678E+01  5.40382E+01  5.43272E+01  6.30578E+01  4.83228E+01  2.00984E+01  1.22463E+01  2.12695E+00
   1.87298E+01  2.56605E+01  1.97485E+01  2.88623E+01  3.00591E+01  3.44711E+01  4.82413E+01  4.85681E+01  3.12034E+01  4.44205E+01
   5.94115E+01  5.26094E+01  6.91929E+01  7.47496E+01  6.28980E+01  5.49950E+01  5.60722E+01  7.24509E+01  7.39790E+01  5.73999E+01
   7.71141E+01  9.43545E+01  8.30328E+01  9.14713E+01  9.97149E+01  1.15825E+02  1.10204E+02  1.08156E+02  1.18290E+02  1.09353E+02
   1.23411E+02  1.13382E+02  9.84151E+01  8.74912E+01  7.72697E+01  8.03970E+01  7.35651E+01  6.80854E+01  5.90410E+01  5.99470E+01
   4.51101E+01  2.92922E+01  2.38202E+01  1.08311E+01  2.85027E+01  2.41800E+01  4.59702E+00  1.87313E+01 -2.52299E+00 -3.01970E+00
   8.97447E+00 -5.34842E+00  1.89859E+01  6.81996E+00  8.71011E+00  1.54807E+01 -3.92137E+00  1.63402E+01  9.56169E+00  3.69320E+00
   7.60697E+00 -8.20148E-01 -2.02392E+00  6.42029E+00 -7.11250E+00 -2.04169E+01 -4.26443E+00 -2.08361E+00 -4.81340E-02 -4.36321E+00
   3.54897E+00  6.22573E+00 -1.19021E+00  9.58810E+00  1.30803E+01  6.83002E+00 -6.39809E+00 -3.91526E+00  1.06919E+00  2.01750E+00
   1.32218E+01  1.52477E+01 -2.94014E+00 -7.67686E+00  3.53193E+00  8.39166E+00  3.98525E+00  3.80497E+00  1.73754E+01  1.26259E+01
   7.01984E+00 -6.19327E-01 -6.37726E+00  3.23309E+00  1.04824E+01  1.88537E+00 -9.67128E+00 -6.77510E+00  3.79278E+00  1.11832E+01
  -3.53944E-01  1.25105E+01 -7.74280E+00 -6.45857E+00  2.34274E+01 -8.97683E+00  1.07513E+01  8.81113E+00  5.94583E+00  2.57235E+01
  -1.95376E+00  8.39433E+00  1.30766E+01 -6.10240E-01  2.82072E+00 -4.12077E+00 -9.28176E+00 -3.08336E+00 -1.03723E+01 -5.48964E+00
 NY points of the fit to the data follow
   3.13182E+01  3.06831E+01  2.95117E+01  2.48975E+01  2.33184E+01  3.07756E+01  4.17206E+01  4.61518E+01  4.43204E+01  3.90034E+01
   3.28698E+01  2.80370E+01  2.55180E+01  2.46790E+01  2.40119E+01  2.39815E+01  2.08200E+01  2.34616E+01  1.30817E+01 -6.11405E+00
  -1.09338E+01 -1.31115E+01 -1.16117E+01  2.54950E+00  3.71619E+01  6.17177E+01  7.16510E+01  7.93438E+01  8.07240E+01  7.99399E+01
   7.88811E+01  7.73908E+01  7.57987E+01  7.36244E+01  7.04948E+01  6.80883E+01  6.17379E+01  5.64544E+01  4.50990E+01  2.51417E+01
   5.51880E+00 -2.75081E+00  2.27926E+00  9.22834E+00  2.25181E+01  3.77026E+01  5.23656E+01  6.32604E+01  7.00516E+01  7.34116E+01
   7.33952E+01  7.17325E+01  6.56794E+01  5.87329E+01  4.85956E+01  3.91891E+01  4.17962E+01  4.21171E+01  3.39207E+01  3.14948E+01
   3.77709E+01  4.24331E+01  4.44862E+01  5.58184E+01  6.70401E+01  7.12403E+01  7.68602E+01  7.58057E+01  6.00236E+01  4.27850E+01
   3.81777E+01  4.12701E+01  4.24634E+01  4.79996E+01  5.96201E+01  6.97312E+01  7.81229E+01  8.19898E+01  8.94353E+01  8.61863E+01
   8.46657E+01  7.02159E+01  5.19423E+01  2.91048E+01  1.33163E+01  9.60148E+00  1.54417E+01  3.16076E+01  4.58874E+01  5.70378E+01
   6.52487E+01  7.10571E+01  7.60697E+01  8.08177E+01  8.57521E+01  8.90895E+01  9.49355E+01  1.01619E+02  1.04784E+02  1.05617E+02
   1.17533E+02  1.14444E+02  1.11347E+02  9.58451E+01  8.63795E+01  6.02414E+01  4.59506E+01  5.98554E+01  4.52686E+01 -1.16446E+01
  -7.62240E+01 -9.20109E+01 -7.79129E+01 -5.72129E+01 -3.37621E+01 -1.82901E+01 -8.29527E+00 -1.25919E-01  6.84423E+00  1.32041E+01
   1.93247E+01  2.54189E+01  3.20146E+01  3.88910E+01  4.63232E+01  5.44541E+01  6.37917E+01  8.24820E+01  8.77636E+01  1.07260E+02
   1.48075E+02  1.55755E+02  9.56133E+01  1.61210E+01 -2.44842E+01 -3.81812E+01 -3.75395E+01 -2.83768E+01 -2.26827E+01 -1.90594E+01
  -1.65629E+01 -1.58909E+01 -1.58661E+01 -1.56563E+01 -1.53092E+01 -1.50395E+01 -1.35735E+01 -1.17858E+01 -1.00695E+01 -8.70545E+00
  -7.64909E+00 -6.36960E+00 -5.04558E+00 -3.45455E+00 -1.61766E+00  6.29156E-01  2.14479E+00  2.71763E+00  2.25172E+00  2.33751E+00
   4.51406E+00  7.06184E+00  7.37077E+00  5.34127E+00  3.63122E+00  2.89057E+00  2.44847E+00  2.50060E+00  3.54939E+00  4.66556E+00
   8.67891E+00  1.84362E+01  2.74866E+01  2.89414E+01  2.47195E+01  2.28498E+01  2.90697E+01  3.50688E+01  3.38313E+01  2.47178E+01
   1.54717E+01  8.49892E+00  3.53135E+00  1.09088E+00  1.02860E-01 -6.22563E-01 -1.00088E+00 -7.81956E-01 -1.46872E+00 -1.56633E+00
   9.23210E-01  9.53563E-01  6.77379E-01  6.36960E+00  1.38536E+01  1.67022E+01  1.60184E+01  1.84384E+01  2.24515E+01  2.31152E+01
   2.19701E+01  2.14589E+01  2.62972E+01  2.96011E+01  2.94978E+01  2.71504E+01  2.30311E+01  1.65673E+01  8.40040E+00  3.74567E+00
  -4.68384E+00 -1.07439E+01 -8.07600E+00 -6.55719E+00  8.47770E+00  2.61709E+01  4.75663E+01  6.04455E+01  6.88669E+01  6.89375E+01
   5.93527E+01  5.26396E+01  4.80696E+01  4.58777E+01  4.54506E+01  4.33182E+01  4.02970E+01  3.54378E+01  2.88716E+01  2.25484E+01
   1.55988E+01  8.75851E+00  2.49241E+00 -4.05156E+00 -1.08443E+01 -1.55210E+01 -2.14394E+01 -2.52779E+01 -2.56553E+01 -2.60085E+01
  -2.24585E+01 -1.88745E+01 -1.12003E+01 -4.98783E+00  2.47620E+00  7.69552E+00  1.21475E+01  1.16974E+01  1.03700E+01  7.05009E+00
   6.72619E+00  2.47530E+00 -1.31712E+01 -6.40578E+00 -1.64276E+01 -5.51516E+01 -7.43211E+01 -2.36623E+01  5.27823E+01  9.40536E+01
   1.10698E+02  1.10166E+02  1.00801E+02  9.38894E+01  8.95428E+01  8.53987E+01  8.21999E+01  7.84156E+01  7.52808E+01  7.27893E+01
   7.06428E+01  6.97182E+01  6.91466E+01  6.96821E+01  6.97993E+01  7.04547E+01  7.08924E+01  7.08832E+01  7.06704E+01  6.98406E+01
   6.88543E+01  6.79222E+01  6.68837E+01  6.58033E+01  6.46668E+01  6.35031E+01  6.23658E+01  6.10268E+01  5.95230E+01  5.77759E+01
   5.60670E+01  5.42438E+01  5.25581E+01  5.12406E+01  5.05098E+01  5.04891E+01  5.11100E+01  5.19711E+01  5.29400E+01  5.40553E+01
   5.53042E+01  5.65190E+01  5.76867E+01  5.88562E+01  5.98816E+01  6.09393E+01  6.21229E+01  6.34893E+01  6.48327E+01  6.60003E+01
   6.69950E+01  6.79859E+01  6.89867E+01  6.97540E+01  7.03401E+01  7.08462E+01  7.09888E+01  7.06784E+01  7.02334E+01  6.96070E+01
   6.88618E+01  6.77830E+01  6.65508E+01  6.51339E+01  6.34439E+01  6.10013E+01  5.76988E+01  5.41665E+01  5.06805E+01  4.76960E+01
   4.53718E+01  4.41129E+01  4.40309E+01  4.53060E+01  4.77312E+01  5.07662E+01  5.48881E+01  5.93835E+01  6.11807E+01  6.99101E+01
   7.02021E+01  6.73403E+01  5.57652E+01  4.34449E+01  3.06240E+01  2.52554E+01  2.94822E+01  3.35287E+01  3.79622E+01  4.05692E+01
   4.14445E+01  4.12361E+01  4.02350E+01  3.90252E+01  3.80771E+01  3.75670E+01  3.76091E+01  3.81441E+01  3.91600E+01  4.03675E+01
   4.18912E+01  4.35196E+01  4.51856E+01  4.67531E+01  4.81721E+01  4.94976E+01  5.07220E+01  5.20180E+01  5.33293E+01  5.45045E+01
   5.57983E+01  5.69900E+01  5.84032E+01  5.99994E+01  6.18367E+01  6.36787E+01  6.58640E+01  6.84672E+01  7.11915E+01  7.39913E+01
   7.71037E+01  8.04435E+01  8.38890E+01  8.68389E+01  8.91235E+01  9.00023E+01  8.92107E+01  8.63230E+01  8.19376E+01  7.71720E+01
   7.26019E+01  6.85584E+01  6.50192E+01  6.21140E+01  5.89732E+01  5.53477E+01  5.12692E+01  4.70518E+01  4.26413E+01  3.87200E+01
   3.54630E+01  3.28916E+01  3.06798E+01  2.89800E+01  2.76690E+01  2.65819E+01  2.56239E+01  2.46705E+01  2.37606E+01  2.28922E+01
   2.22956E+01  2.17904E+01  2.12389E+01  2.06478E+01  2.02672E+01  1.99406E+01  1.93314E+01  1.87718E+01  1.84066E+01  1.81535E+01
   1.76785E+01  1.72071E+01  1.68142E+01  1.64277E+01  1.59943E+01  1.55002E+01  1.51128E+01  1.48185E+01  1.46062E+01  1.42089E+01
   1.38238E+01  1.32981E+01  1.28015E+01  1.23677E+01  1.20453E+01  1.17593E+01  1.14386E+01  1.11706E+01  1.07647E+01  1.04340E+01
   1.00622E+01  9.70932E+00  9.28141E+00  8.75445E+00  8.29447E+00  7.93016E+00  7.59093E+00  7.26058E+00  6.93943E+00  6.57190E+00
   6.04815E+00  5.69309E+00  5.33809E+00  5.06827E+00  4.71253E+00  4.44073E+00  4.00034E+00  3.64998E+00  3.31642E+00  2.95580E+00
   2.48400E+00  1.97738E+00  1.51266E+00  1.05696E+00  6.05173E-01  3.01364E-01  6.56318E-02 -1.17097E-01 -4.85297E-01 -1.01038E+00
  -1.67740E+00 -2.25517E+00 -2.70059E+00 -3.15572E+00 -3.63524E+00 -4.01013E+00 -4.53182E+00 -5.12376E+00 -5.71849E+00 -6.15389E+00
 NY background values follow
     5.035E+01    5.027E+01    5.019E+01    5.011E+01    5.004E+01    4.996E+01    4.988E+01    4.980E+01    4.973E+01    4.965E+01
     4.958E+01    4.950E+01    4.942E+01    4.935E+01    4.928E+01    4.920E+01    4.913E+01    4.906E+01    4.899E+01    4.892E+01
     4.885E+01    4.878E+01    4.871E+01    4.865E+01    4.858E+01    4.852E+01    4.846E+01    4.839E+01    4.833E+01    4.827E+01
     4.822E+01    4.816E+01    4.810E+01    4.805E+01    4.799E+01    4.794E+01    4.789E+01    4.784E+01    4.779E+01    4.774E+01
     4.769E+01    4.764E+01    4.759E+01    4.754E+01    4.749E+01    4.744E+01    4.739E+01    4.734E+01    4.728E+01    4.723E+01
     4.718E+01    4.713E+01    4.707E+01    4.701E+01    4.696E+01    4.690E+01    4.684E+01    4.678E+01    4.672E+01    4.665E+01
     4.658E+01    4.652E+01    4.644E+01    4.637E+01    4.630E+01    4.622E+01    4.614E+01    4.606E+01    4.598E+01    4.589E+01
     4.581E+01    4.572E+01    4.563E+01    4.553E+01    4.544E+01    4.534E+01    4.524E+01    4.513E+01    4.503E+01    4.492E+01
     4.481E+01    4.470E+01    4.459E+01    4.447E+01    4.435E+01    4.423E+01    4.411E+01    4.398E+01    4.385E+01    4.372E+01
     4.358E+01    4.345E+01    4.331E+01    4.317E+01    4.302E+01    4.288E+01    4.273E+01    4.258E+01    4.243E+01    4.228E+01
     4.212E+01    4.196E+01    4.181E+01    4.165E+01    4.149E+01    4.133E+01    4.116E+01    4.100E+01    4.084E+01    4.067E+01
     4.050E+01    4.034E+01    4.017E+01    4.000E+01    3.984E+01    3.967E+01    3.950E+01    3.934E+01    3.917E+01    3.900E+01
     3.883E+01    3.867E+01    3.850E+01    3.834E+01    3.817E+01    3.801E+01    3.785E+01    3.768E+01    3.752E+01    3.736E+01
     3.720E+01    3.704E+01    3.689E+01    3.673E+01    3.658E+01    3.642E+01    3.627E+01    3.612E+01    3.597E+01    3.582E+01
     3.568E+01    3.553E+01    3.539E+01    3.525E+01    3.511E+01    3.497E+01    3.484E+01    3.470E+01    3.457E+01    3.444E+01
     3.432E+01    3.419E+01    3.407E+01    3.395E+01    3.383E+01    3.371E+01    3.360E+01    3.349E+01    3.338E+01    3.327E+01
     3.317E+01    3.306E+01    3.296E+01    3.286E+01    3.277E+01    3.267E+01    3.258E+01    3.249E+01    3.240E+01    3.231E+01
     3.223E+01    3.214E+01    3.206E+01    3.198E+01    3.191E+01    3.183E+01    3.176E+01    3.168E+01    3.161E+01    3.155E+01
     3.148E+01    3.141E+01    3.135E+01    3.129E+01    3.123E+01    3.117E+01    3.112E+01    3.107E+01    3.101E+01    3.096E+01
     3.092E+01    3.087E+01    3.083E+01    3.079E+01    3.075E+01    3.071E+01    3.068E+01    3.065E+01    3.062E+01    3.059E+01
     3.056E+01    3.054E+01    3.052E+01    3.050E+01    3.049E+01    3.047E+01    3.046E+01    3.046E+01    3.045E+01    3.045E+01
     3.045E+01    3.045E+01    3.046E+01    3.046E+01    3.047E+01    3.048E+01    3.050E+01    3.051E+01    3.053E+01    3.055E+01
     3.057E+01    3.059E+01    3.062E+01    3.064E+01    3.067E+01    3.069E+01    3.072E+01    3.075E+01    3.078E+01    3.081E+01
     3.083E+01    3.086E+01    3.089E+01    3.092E+01    3.095E+01    3.098E+01    3.101E+01    3.104E+01    3.106E+01    3.109E+01
     3.112E+01    3.114E+01    3.116E+01    3.119E+01    3.121E+01    3.123E+01    3.125E+01    3.126E+01    3.128E+01    3.130E+01
     3.131E+01    3.132E+01    3.134E+01    3.135E+01    3.136E+01    3.137E+01    3.137E+01    3.138E+01    3.138E+01    3.139E+01
     3.139E+01    3.139E+01    3.139E+01    3.139E+01    3.138E+01    3.138E+01    3.137E+01    3.136E+01    3.135E+01    3.134E+01
     3.133E+01    3.131E+01    3.130E+01    3.128E+01    3.127E+01    3.125E+01    3.124E+01    3.122E+01    3.121E+01    3.120E+01
     3.119E+01    3.119E+01    3.119E+01    3.119E+01    3.120E+01    3.121E+01    3.122E+01    3.125E+01    3.127E+01    3.131E+01
     3.135E+01    3.140E+01    3.145E+01    3.151E+01    3.159E+01    3.167E+01    3.175E+01    3.185E+01    3.196E+01    3.208E+01
     3.221E+01    3.235E+01    3.251E+01    3.267E+01    3.284E+01    3.302E+01    3.320E+01    3.340E+01    3.360E+01    3.380E+01
     3.401E+01    3.423E+01    3.445E+01    3.468E+01    3.490E+01    3.514E+01    3.537E+01    3.560E+01    3.584E+01    3.607E+01
     3.631E+01    3.655E+01    3.678E+01    3.701E+01    3.724E+01    3.747E+01    3.769E+01    3.791E+01    3.812E+01    3.833E+01
     3.853E+01    3.873E+01    3.892E+01    3.910E+01    3.928E+01    3.945E+01    3.961E+01    3.976E+01    3.991E+01    4.005E+01
     4.019E+01    4.031E+01    4.043E+01    4.054E+01    4.064E+01    4.073E+01    4.082E+01    4.089E+01    4.096E+01    4.102E+01
     4.107E+01    4.111E+01    4.114E+01    4.116E+01    4.117E+01    4.117E+01    4.116E+01    4.114E+01    4.112E+01    4.108E+01
     4.103E+01    4.097E+01    4.090E+01    4.081E+01    4.072E+01    4.062E+01    4.051E+01    4.039E+01    4.026E+01    4.011E+01
     3.996E+01    3.980E+01    3.963E+01    3.945E+01    3.926E+01    3.907E+01    3.886E+01    3.864E+01    3.842E+01    3.818E+01
     3.794E+01    3.769E+01    3.743E+01    3.716E+01    3.689E+01    3.660E+01    3.631E+01    3.601E+01    3.570E+01    3.538E+01
     3.506E+01    3.473E+01    3.439E+01    3.404E+01    3.369E+01    3.333E+01    3.297E+01    3.260E+01    3.222E+01    3.184E+01
     3.146E+01    3.106E+01    3.067E+01    3.027E+01    2.987E+01    2.946E+01    2.905E+01    2.864E+01    2.823E+01    2.781E+01
     2.739E+01    2.697E+01    2.655E+01    2.612E+01    2.570E+01    2.527E+01    2.485E+01    2.442E+01    2.400E+01    2.357E+01
     2.315E+01    2.273E+01    2.230E+01    2.188E+01    2.146E+01    2.104E+01    2.063E+01    2.021E+01    1.979E+01    1.938E+01
     1.896E+01    1.855E+01    1.814E+01    1.773E+01    1.732E+01    1.691E+01    1.650E+01    1.610E+01    1.569E+01    1.529E+01
     1.489E+01    1.449E+01    1.409E+01    1.369E+01    1.329E+01    1.290E+01    1.250E+01    1.211E+01    1.172E+01    1.133E+01
     1.094E+01    1.056E+01    1.017E+01    9.787E+00    9.405E+00    9.023E+00    8.643E+00    8.264E+00    7.885E+00    7.508E+00
     7.131E+00    6.756E+00    6.381E+00    6.006E+00    5.633E+00    5.259E+00    4.887E+00    4.514E+00    4.142E+00    3.770E+00
     3.399E+00    3.027E+00    2.656E+00    2.284E+00    1.913E+00    1.541E+00    1.169E+00    7.970E-01    4.246E-01    5.150E-02
 Mac      Conc. = 1.23E-04
   4.18165E+01  4.15846E+01  4.13710E+01  4.10497E+01  4.05249E+01  3.97579E+01  3.88413E+01  3.79620E+01  3.73213E+01  3.69318E+01
   3.66806E+01  3.64283E+01  3.61259E+01  3.56375E+01  3.45115E+01  3.38181E+01  3.45026E+01  3.61490E+01  3.77722E+01  3.92862E+01
   4.09449E+01  4.20733E+01  4.27285E+01  4.31995E+01  4.36375E+01  4.41232E+01  4.48151E+01  4.57048E+01  4.64402E+01  4.69837E+01
   4.74057E+01  4.77459E+01  4.78488E+01  4.77165E+01  4.75402E+01  4.76870E+01  4.84939E+01  4.95508E+01  5.01965E+01  5.03404E+01
   5.02113E+01  5.03112E+01  5.06858E+01  5.12865E+01  5.16960E+01  5.17789E+01  5.16528E+01  5.11914E+01  5.06005E+01  4.99912E+01
   4.94391E+01  4.89689E+01  4.86578E+01  4.84568E+01  4.82368E+01  4.83846E+01  4.88679E+01  4.92771E+01  4.97253E+01  5.02856E+01
   5.07991E+01  5.09774E+01  5.08293E+01  5.04250E+01  4.98663E+01  4.95473E+01  4.93499E+01  4.90176E+01  4.88304E+01  4.93232E+01
   5.02352E+01  5.12581E+01  5.19368E+01  5.23530E+01  5.24110E+01  5.22038E+01  5.17981E+01  5.12940E+01  5.09817E+01  5.06838E+01
   5.03738E+01  5.02309E+01  5.03419E+01  5.05451E+01  5.07373E+01  5.10172E+01  5.12640E+01  5.14387E+01  5.15630E+01  5.17237E+01
   5.17180E+01  5.17329E+01  5.16166E+01  5.12317E+01  5.04392E+01  4.94497E+01  4.82281E+01  4.69940E+01  4.60049E+01  4.51178E+01
   4.41210E+01  4.27805E+01  4.12546E+01  3.92831E+01  3.66564E+01  3.35103E+01  3.05611E+01  2.86624E+01  2.78594E+01  2.79089E+01
