 LCModel (Version 6.3-1N) Copyright: S.W. Provencher.          Ref.: Magn. Reson. Med. 30:672-679 (1993).                
 Slice_N1@19_17  28-Feb-2025 11:41:36
 27 lines in following concentration table = NCONC+1
    Conc.  %SD /Cr+PCr  Metabolite                                         
 2.14E-04   8% 2.0E-04 Mac                                                 
    3.950  55%   3.690 Cr                                                  
    4.614  46%   4.310 PCr                                                 
    5.405  23%   5.049 Ins                                                 
    8.486  13%   7.927 NAA                                                 
    5.278  24%   4.931 Tau                                                 
    1.989  17%   1.858 PCho                                                
    0.000 999%   0.000 GPC                                                 
    8.225  17%   7.683 Glu                                                 
    1.862  58%   1.739 Gln                                                 
    0.000 999%   0.000 Ala                                                 
    1.968  86%   1.839 Asc                                                 
    1.795  76%   1.677 Asp                                                 
    0.260 278%   0.243 GABA                                                
    0.648 139%   0.605 Glc                                                 
    1.615  38%   1.509 GSH                                                 
    4.025  25%   3.760 Lac                                                 
    1.997  45%   1.866 NAAG                                                
    0.000 999%   0.000 PE                                                  
    1.989  17%   1.858 GPC+PCho                                            
   10.483  11%   9.793 NAA+NAAG                                            
   10.086  18%   9.422 Glu+Gln                                             
    8.564  12%   8.000 Cr+PCr                                              
   10.483  11%   9.793 NAA+NAAG                                            
    8.564  12%   8.000 Cr+PCr                                              
   10.086  18%   9.422 Glu+Gln                                             
   6 lines in following misc. output table
  FWHM = 0.033 ppm    S/N =   2                                            
  Data shift = 0.016 ppm                                                   
  Ph: -87 deg       0.0 deg/ppm                                            
  alphaB,S = 9.1E-02,   1.8E+01                                            
   19 spline knots.   Ns = 5(1)                                            
  ( 4) 2 infls.   ( 3) 1 extrs.                                            
  480 points on ppm-axis = NY
      4.100000     4.091866     4.083733     4.075600     4.067466     4.059333     4.051199     4.043066     4.034933     4.026799
      4.018666     4.010532     4.002399     3.994265     3.986132     3.977998     3.969864     3.961731     3.953597     3.945463
      3.937330     3.929196     3.921062     3.912929     3.904795     3.896662     3.888528     3.880394     3.872261     3.864127
      3.855993     3.847860     3.839726     3.831592     3.823459     3.815325     3.807191     3.799058     3.790924     3.782790
      3.774657     3.766523     3.758389     3.750256     3.742122     3.733989     3.725855     3.717721     3.709588     3.701454
      3.693320     3.685187     3.677053     3.668919     3.660786     3.652652     3.644518     3.636385     3.628251     3.620117
      3.611984     3.603850     3.595716     3.587583     3.579449     3.571316     3.563182     3.555048     3.546915     3.538781
      3.530647     3.522514     3.514380     3.506246     3.498113     3.489979     3.481845     3.473712     3.465578     3.457444
      3.449311     3.441177     3.433043     3.424910     3.416776     3.408643     3.400509     3.392375     3.384242     3.376108
      3.367974     3.359841     3.351707     3.343573     3.335440     3.327306     3.319172     3.311039     3.302905     3.294771
      3.286638     3.278504     3.270370     3.262237     3.254103     3.245970     3.237836     3.229702     3.221569     3.213435
      3.205301     3.197168     3.189034     3.180900     3.172767     3.164633     3.156499     3.148366     3.140232     3.132098
      3.123965     3.115831     3.107697     3.099564     3.091430     3.083297     3.075163     3.067029     3.058896     3.050762
      3.042628     3.034495     3.026361     3.018227     3.010094     3.001960     2.993826     2.985693     2.977559     2.969425
      2.961292     2.953158     2.945024     2.936891     2.928757     2.920624     2.912490     2.904356     2.896223     2.888089
      2.879955     2.871822     2.863688     2.855554     2.847421     2.839287     2.831153     2.823020     2.814886     2.806752
      2.798619     2.790485     2.782351     2.774218     2.766084     2.757951     2.749817     2.741683     2.733550     2.725416
      2.717282     2.709149     2.701015     2.692881     2.684748     2.676614     2.668480     2.660347     2.652213     2.644079
      2.635946     2.627812     2.619678     2.611545     2.603411     2.595278     2.587144     2.579010     2.570877     2.562743
      2.554609     2.546476     2.538342     2.530208     2.522075     2.513941     2.505807     2.497674     2.489540     2.481406
      2.473273     2.465139     2.457006     2.448872     2.440738     2.432605     2.424471     2.416337     2.408204     2.400070
      2.391936     2.383803     2.375669     2.367535     2.359402     2.351268     2.343134     2.335001     2.326867     2.318733
      2.310600     2.302466     2.294333     2.286199     2.278065     2.269932     2.261798     2.253664     2.245531     2.237397
      2.229263     2.221130     2.212996     2.204862     2.196729     2.188595     2.180461     2.172328     2.164194     2.156060
      2.147927     2.139793     2.131660     2.123526     2.115392     2.107259     2.099125     2.090991     2.082858     2.074724
      2.066590     2.058457     2.050323     2.042189     2.034056     2.025922     2.017788     2.009655     2.001521     1.993387
      1.985254     1.977120     1.968987     1.960853     1.952719     1.944586     1.936452     1.928318     1.920185     1.912051
      1.903917     1.895784     1.887650     1.879516     1.871383     1.863249     1.855115     1.846982     1.838848     1.830714
      1.822581     1.814447     1.806314     1.798180     1.790046     1.781913     1.773779     1.765645     1.757512     1.749378
      1.741244     1.733111     1.724977     1.716843     1.708710     1.700576     1.692442     1.684309     1.676175     1.668041
      1.659908     1.651774     1.643641     1.635507     1.627373     1.619240     1.611106     1.602972     1.594839     1.586705
      1.578571     1.570438     1.562304     1.554170     1.546037     1.537903     1.529769     1.521636     1.513502     1.505368
      1.497235     1.489101     1.480968     1.472834     1.464700     1.456567     1.448433     1.440299     1.432166     1.424032
      1.415898     1.407765     1.399631     1.391497     1.383364     1.375230     1.367096     1.358963     1.350829     1.342695
      1.334562     1.326428     1.318295     1.310161     1.302027     1.293894     1.285760     1.277626     1.269493     1.261359
      1.253225     1.245092     1.236958     1.228824     1.220691     1.212557     1.204423     1.196290     1.188156     1.180022
      1.171889     1.163755     1.155622     1.147488     1.139354     1.131221     1.123087     1.114953     1.106820     1.098686
      1.090552     1.082419     1.074285     1.066151     1.058018     1.049884     1.041750     1.033617     1.025483     1.017349
      1.009216     1.001082     0.992949     0.984815     0.976681     0.968548     0.960414     0.952280     0.944147     0.936013
      0.927879     0.919746     0.911612     0.903478     0.895345     0.887211     0.879077     0.870944     0.862810     0.854676
      0.846543     0.838409     0.830276     0.822142     0.814008     0.805875     0.797741     0.789607     0.781474     0.773340
      0.765206     0.757073     0.748939     0.740805     0.732672     0.724538     0.716404     0.708271     0.700137     0.692003
      0.683870     0.675736     0.667603     0.659469     0.651335     0.643202     0.635068     0.626934     0.618801     0.610667
      0.602533     0.594400     0.586266     0.578132     0.569999     0.561865     0.553731     0.545598     0.537464     0.529330
      0.521197     0.513063     0.504930     0.496796     0.488662     0.480529     0.472395     0.464261     0.456128     0.447994
      0.439861     0.431727     0.423593     0.415460     0.407326     0.399192     0.391059     0.382925     0.374792     0.366658
      0.358524     0.350391     0.342257     0.334124     0.325990     0.317856     0.309723     0.301589     0.293455     0.285322
      0.277188     0.269055     0.260921     0.252787     0.244654     0.236520     0.228386     0.220253     0.212119     0.203986
 NY phased data points follow
  -7.66145E+00 -2.32791E+01 -1.81448E+01 -1.14572E+01 -1.08731E+01 -2.14485E+01 -2.45397E+01 -1.32743E+01 -1.27226E+01 -1.46342E+01
  -1.79459E+01 -3.23251E+01 -4.46892E+01 -4.29751E+01 -3.66207E+01 -4.02366E+01 -4.49470E+01 -5.27906E+01 -6.00104E+01 -6.79681E+01
  -8.35889E+01 -8.63652E+01 -6.83226E+01 -5.49736E+01 -4.24867E+01 -1.37753E+01 -3.82167E+00 -4.14684E+00  9.02269E-01  1.41457E+01
   1.18693E+01 -9.42531E+00 -4.38307E+00 -3.44013E+00  7.08861E-01  2.91264E-01  3.62547E+00  7.99840E+00 -2.55832E+01 -2.74431E+01
  -2.92678E+01 -4.52771E+01 -4.16246E+01 -4.78594E+01 -3.79510E+01 -2.82403E+01 -9.64638E+00  1.28897E+01  7.07585E+00  2.47975E+01
   3.28098E+01  2.84229E+01  3.64451E+01  2.02450E+01  5.04035E+00  7.58256E+00  6.93305E+00 -1.02067E+01 -4.39827E+00 -6.97915E+00
  -1.51081E+01  6.91079E+00  3.16236E+00  1.23648E+01  3.20117E+01  3.47271E+01  3.18589E+01  2.59786E+01  1.46875E+01 -7.69398E+00
  -2.48760E+01 -2.50673E+01 -4.98846E+00 -3.45781E+00  4.35078E+00  1.35783E+01  2.45468E+01  4.70926E+01  3.24044E+01  2.74025E+01
   3.74843E+01  3.07309E+01  2.42641E+01  2.54400E+01  1.40462E+01  6.71898E+00  4.18311E+00  5.36809E+00  2.29246E+01  2.43587E+01
   3.25490E+01  3.96338E+01  5.54960E+01  6.92613E+01  5.14583E+01  5.94602E+01  7.26489E+01  8.04151E+01  8.83617E+01  7.27174E+01
   6.46688E+01  6.02903E+01  5.68022E+01  5.03230E+01  3.52264E+01  3.65147E+01  1.65856E+01  5.19017E+00 -2.85937E+00 -3.32005E+01
  -5.91159E+01 -1.09528E+02 -1.16086E+02 -7.58215E+01 -5.52597E+01 -5.33106E+01 -3.99724E+01 -2.39279E+01 -1.64085E+01 -7.31929E+00
  -1.10890E+01  9.03924E+00  1.66772E+01  2.07787E+01  3.01699E+01  3.16030E+01  5.20709E+01  5.91364E+01  7.66088E+01  9.19347E+01
   1.00878E+02  1.16607E+02  1.12014E+02  4.96156E+01 -2.64487E+01 -4.39584E+01 -4.57849E+01 -4.90967E+01 -4.98594E+01 -4.53867E+01
  -4.27480E+01 -4.59507E+01 -4.67001E+01 -4.61789E+01 -5.41401E+01 -5.86399E+01 -5.47489E+01 -5.90843E+01 -5.52307E+01 -5.68428E+01
  -5.24792E+01 -4.91829E+01 -4.68502E+01 -3.98898E+01 -4.29053E+01 -4.01851E+01 -4.01825E+01 -2.85581E+01 -1.91798E+01 -2.91934E+01
  -2.93170E+01 -1.25752E+01 -1.74228E+01 -1.97806E+01 -1.96102E+01 -2.98231E+01 -1.90170E+01 -2.11272E+01 -1.15505E+01 -1.57681E+01
  -2.29365E+01 -7.36352E+00 -4.09231E+00  1.04795E+01  8.72079E+00  3.70936E+00  1.06558E+00  1.58022E+00  5.11818E+00 -2.91869E+00
  -8.36447E+00 -1.12840E+01 -9.43689E+00 -2.75986E+01 -4.29614E+01 -4.11488E+01 -3.92163E+01 -4.12327E+01 -4.32630E+01 -3.12471E+01
  -2.36416E+01 -2.96502E+01 -3.25884E+01 -2.48906E+01 -2.80919E+01 -3.02347E+01 -2.56103E+01 -2.48353E+01 -1.55186E+01 -1.90336E+01
  -1.73275E+01 -1.16027E+01 -2.38067E+01 -7.96126E+00 -7.68979E+00 -3.21526E+01 -1.51117E+01 -1.94087E+01 -4.84578E+01 -5.32405E+01
  -6.15837E+01 -6.79793E+01 -6.63736E+01 -6.12261E+01 -4.02899E+01 -3.11930E+01 -2.70935E+01  3.39575E+00  4.31815E+00 -4.02153E+00
   6.43623E+00 -1.30030E+01 -2.09090E+01 -1.43888E+01 -2.49665E+01 -2.37448E+01 -8.71690E+00 -1.57915E+01 -2.52515E+01 -7.65536E+00
  -1.16345E+01 -2.42745E+01 -1.22587E+01 -1.57594E+01 -2.89722E+01 -2.98362E+01 -4.51739E+01 -4.89561E+01 -4.35641E+01 -5.56394E+01
  -5.96181E+01 -6.45289E+01 -4.36867E+01 -3.86932E+01 -5.01319E+01 -3.31301E+01 -3.96863E+01 -2.92204E+01 -2.41499E+01 -5.08926E+01
  -6.96853E+01 -7.14251E+01 -6.85896E+01 -7.37906E+01 -7.70262E+01 -9.05650E+01 -8.13326E+01 -7.57851E+01 -2.50018E+01  7.96416E+01
   1.07974E+02  1.01356E+02  1.01773E+02  8.97784E+01  7.74521E+01  7.30042E+01  6.40605E+01  6.06707E+01  5.29930E+01  5.03282E+01
   5.73931E+01  5.52637E+01  6.19496E+01  5.48613E+01  5.69916E+01  4.12507E+01  3.92199E+01  5.83897E+01  4.51141E+01  5.30705E+01
   4.61382E+01  3.69636E+01  3.48733E+01  3.24476E+01  3.37960E+01  1.81293E+01  1.95474E+01  2.62499E+01  1.96732E+01  1.20951E+01
   3.92786E+00 -6.82453E+00 -1.32885E+01 -2.54394E+01 -2.09950E+01 -2.43116E+01 -4.06804E+01 -4.54732E+01 -5.38387E+01 -5.61496E+01
  -6.54657E+01 -6.13468E+01 -5.98245E+01 -5.97331E+01 -7.17322E+01 -8.70795E+01 -7.96287E+01 -9.43039E+01 -9.79042E+01 -9.24722E+01
  -8.49186E+01 -7.88581E+01 -7.43538E+01 -5.00872E+01 -3.63085E+01 -4.82144E+01 -4.28254E+01 -2.58070E+01 -3.07757E+01 -2.45255E+01
  -1.78869E+01 -1.39201E+01 -1.58483E+01 -5.16641E+00  1.43024E+00 -2.57383E+00  1.35550E+01  2.57571E+01  3.81502E+01  3.89165E+01
   6.65911E+01  6.82884E+01  4.23108E+01  4.46595E+01  3.87740E+01  4.55865E+01  4.64618E+01  4.53131E+01  5.34354E+01  6.24994E+01
   5.86611E+01  5.91707E+01  5.32100E+01  4.05494E+01  4.56088E+01  3.74085E+01  3.89812E+01  3.49428E+01  2.72502E+01  1.29097E+01
   4.37510E+00  5.33680E+00 -2.29272E+00  9.87988E+00  2.14781E+00 -1.44953E+01 -6.00498E+00  3.55202E+00 -9.71455E+00 -9.26885E+00
   9.01799E+00  1.17821E+01  9.29044E+00  1.26087E+01  1.97040E+01  2.62527E+01  3.81952E+01  3.83051E+01  3.91966E+01  4.58557E+01
   5.25896E+01  4.49754E+01  4.75552E+01  6.33239E+01  6.16100E+01  7.13888E+01  6.68900E+01  6.98460E+01  7.47402E+01  7.27755E+01
   7.63348E+01  7.73201E+01  9.33745E+01  1.01310E+02  1.17403E+02  1.20379E+02  1.12179E+02  1.25046E+02  1.37347E+02  1.32004E+02
   1.34136E+02  1.29281E+02  9.87545E+01  9.97029E+01  9.75775E+01  8.70136E+01  7.87962E+01  7.42125E+01  7.84604E+01  6.48042E+01
   5.69857E+01  3.63510E+01  2.79492E+01  2.60100E+01  1.46506E+01  1.31822E+01 -1.18998E+01 -1.51861E+01  8.59497E-01  3.50279E+00
  -3.71781E+00 -7.56821E+00  2.30880E+00 -7.40179E+00 -1.93862E+01 -2.16991E+01 -1.03236E+01 -1.37774E+01 -1.91771E+01 -8.92115E+00
  -1.47494E+01 -6.27069E+00 -5.76374E+00 -5.54302E+00 -2.04507E+01 -2.10865E+01 -7.41775E+00 -2.26011E+01 -1.14444E+01 -1.80284E+01
  -1.40393E+01 -9.40252E+00 -6.66274E+00 -3.54401E+00 -2.16402E+01 -1.25834E+01 -1.92565E+01 -1.16211E+01 -2.44326E+00 -4.46673E+00
  -1.22106E+01 -1.63090E+01 -8.67436E+00 -1.80180E+01 -2.31269E+01 -2.88052E+01 -8.14612E+00 -5.53856E+00 -1.70721E+01 -1.39464E+01
  -1.32292E+01 -1.48642E+01 -1.85049E+01 -1.83951E+01 -2.95325E+01 -2.17477E+01 -2.50135E+01 -2.71993E+01 -2.39853E+01 -2.08236E+01
  -8.01259E+00 -1.45969E+01 -9.72170E+00 -1.42000E+01 -2.50234E+01 -8.74176E+00 -7.98032E+00 -2.61679E+01 -1.42272E+01 -1.35354E+01
  -1.42066E+01 -1.88892E+01 -2.50430E+01 -2.81739E+00 -9.17399E+00 -2.08511E+00 -5.99812E+00 -1.66021E+01 -1.03505E+01 -1.26677E+01
 NY points of the fit to the data follow
  -3.58523E+01 -3.70442E+01 -3.82603E+01 -3.86961E+01 -3.71849E+01 -3.24716E+01 -2.48212E+01 -1.75371E+01 -1.49751E+01 -1.75745E+01
  -2.21080E+01 -2.62739E+01 -2.91078E+01 -3.06962E+01 -3.17730E+01 -3.31889E+01 -3.76881E+01 -4.55429E+01 -5.54966E+01 -6.72301E+01
  -7.74951E+01 -8.05183E+01 -7.15543E+01 -5.35331E+01 -3.34100E+01 -1.32992E+01  3.39326E+00  1.12069E+01  1.37668E+01  1.52097E+01
   1.56150E+01  1.54849E+01  1.45953E+01  1.32363E+01  1.15430E+01  9.69469E+00  6.70140E+00  1.73498E+00 -5.63446E+00 -1.58926E+01
  -2.80574E+01 -3.87947E+01 -4.31581E+01 -3.97530E+01 -3.17626E+01 -2.12825E+01 -8.73383E+00  3.40752E+00  1.32533E+01  2.00431E+01
   2.38989E+01  2.51496E+01  2.35234E+01  1.96027E+01  1.34966E+01  5.10290E+00 -3.05276E+00 -8.30919E+00 -1.09633E+01 -1.22021E+01
  -1.14419E+01 -7.17878E+00 -8.94663E-01  5.88807E+00  1.49997E+01  2.39493E+01  2.77866E+01  2.62534E+01  1.93684E+01  7.84334E+00
  -3.23513E+00 -7.85581E+00 -5.50960E+00 -2.17911E-01  7.07262E+00  1.69664E+01  2.67410E+01  3.38491E+01  3.89967E+01  4.15142E+01
   4.08266E+01  3.58705E+01  2.65781E+01  1.49140E+01  4.00677E+00 -2.45525E+00 -2.28504E+00  3.38800E+00  1.21266E+01  2.14601E+01
   2.88110E+01  3.48656E+01  3.97962E+01  4.41321E+01  4.83945E+01  5.22885E+01  5.56312E+01  5.88126E+01  6.16007E+01  6.30984E+01
   6.42203E+01  6.43780E+01  6.16936E+01  5.41229E+01  4.66816E+01  4.01131E+01  3.17618E+01  2.13964E+01  5.98560E+00 -2.25666E+01
  -6.14540E+01 -8.88644E+01 -9.03825E+01 -7.63004E+01 -6.11698E+01 -4.64685E+01 -3.49665E+01 -2.59903E+01 -1.84334E+01 -1.17529E+01
  -5.63471E+00  1.95503E-01  6.07668E+00  1.23388E+01  1.93849E+01  2.72634E+01  3.59295E+01  5.03776E+01  7.10363E+01  9.28561E+01
   1.10547E+02  1.15967E+02  9.62111E+01  4.57254E+01 -1.43411E+01 -5.21056E+01 -6.35470E+01 -6.38300E+01 -5.91650E+01 -5.39381E+01
  -5.06939E+01 -4.92156E+01 -4.88895E+01 -4.91893E+01 -4.95443E+01 -4.95769E+01 -4.91651E+01 -4.79475E+01 -4.60145E+01 -4.38888E+01
  -4.17703E+01 -3.97640E+01 -3.78262E+01 -3.59376E+01 -3.40492E+01 -3.20662E+01 -3.02236E+01 -2.87791E+01 -2.77621E+01 -2.69009E+01
  -2.58162E+01 -2.45232E+01 -2.35277E+01 -2.33713E+01 -2.39268E+01 -2.43521E+01 -2.42988E+01 -2.40989E+01 -2.36975E+01 -2.24080E+01
  -1.92713E+01 -1.37684E+01 -7.07992E+00 -2.30387E+00 -1.57468E+00 -3.14655E+00 -2.83277E+00 -1.35011E-01  7.06185E-01 -3.59974E+00
  -1.17437E+01 -1.99627E+01 -2.60224E+01 -3.03250E+01 -3.34287E+01 -3.53501E+01 -3.65354E+01 -3.68514E+01 -3.64233E+01 -3.57552E+01
  -3.43001E+01 -3.17759E+01 -2.87729E+01 -2.53635E+01 -2.11460E+01 -1.62129E+01 -1.29821E+01 -1.22242E+01 -1.09939E+01 -9.14081E+00
  -8.66559E+00 -9.35986E+00 -1.01353E+01 -1.04290E+01 -1.16675E+01 -1.56402E+01 -2.10237E+01 -2.64731E+01 -3.22512E+01 -3.79846E+01
  -4.31918E+01 -4.78203E+01 -5.00064E+01 -4.84759E+01 -4.15798E+01 -2.90668E+01 -1.28782E+01  3.60459E+00  1.53101E+01  1.98618E+01
   1.89885E+01  1.38549E+01  7.46087E+00  3.65223E+00  1.44653E+00  1.59275E-01 -1.39512E+00 -4.11609E+00 -8.53478E+00 -1.46122E+01
  -2.20244E+01 -3.05055E+01 -3.92656E+01 -4.77353E+01 -5.54273E+01 -6.18706E+01 -6.65205E+01 -6.89566E+01 -6.92364E+01 -6.76138E+01
  -6.41532E+01 -6.03639E+01 -5.67555E+01 -5.28362E+01 -4.92929E+01 -4.66823E+01 -4.49095E+01 -4.47025E+01 -4.70411E+01 -5.22289E+01
  -5.84893E+01 -6.28141E+01 -7.07412E+01 -8.09928E+01 -8.78005E+01 -9.12463E+01 -9.10694E+01 -7.38940E+01 -2.67410E+01  3.20062E+01
   6.79975E+01  7.77656E+01  7.68861E+01  6.98240E+01  6.21893E+01  5.58579E+01  5.04855E+01  4.55802E+01  4.10304E+01  3.69986E+01
   3.36414E+01  3.11030E+01  2.93241E+01  2.81146E+01  2.72036E+01  2.64003E+01  2.55232E+01  2.45052E+01  2.32894E+01  2.19435E+01
   2.04211E+01  1.86014E+01  1.65436E+01  1.43605E+01  1.21915E+01  1.00289E+01  7.80782E+00  5.52200E+00  3.20317E+00  7.27287E-01
  -2.01541E+00 -5.04835E+00 -8.29954E+00 -1.15859E+01 -1.46954E+01 -1.72793E+01 -1.89441E+01 -1.95356E+01 -1.91488E+01 -1.79975E+01
  -1.63661E+01 -1.44323E+01 -1.22569E+01 -9.93345E+00 -7.61932E+00 -5.37856E+00 -3.20668E+00 -1.03921E+00  1.22944E+00  3.65539E+00
   6.18043E+00  8.64427E+00  1.09353E+01  1.30985E+01  1.51823E+01  1.71419E+01  1.88063E+01  2.00868E+01  2.09901E+01  2.14318E+01
   2.13841E+01  2.09979E+01  2.03725E+01  1.94299E+01  1.81655E+01  1.65421E+01  1.43087E+01  1.11565E+01  6.96769E+00  1.98017E+00
  -3.16598E+00 -7.80978E+00 -1.14174E+01 -1.35060E+01 -1.36594E+01 -1.17176E+01 -7.87357E+00 -2.04131E+00  5.61522E+00  1.37718E+01
   2.19194E+01  2.76247E+01  2.77974E+01  2.05767E+01  7.84291E+00 -5.03622E+00 -1.38067E+01 -1.61153E+01 -1.16023E+01 -4.54071E+00
   1.20877E+00  5.63174E+00  8.01584E+00  8.81289E+00  8.44059E+00  7.39351E+00  6.33317E+00  5.87331E+00  6.28213E+00  7.55502E+00
   9.64899E+00  1.24140E+01  1.56346E+01  1.91643E+01  2.27893E+01  2.63645E+01  2.98085E+01  3.30411E+01  3.61029E+01  3.90650E+01
   4.19729E+01  4.48377E+01  4.76679E+01  5.05097E+01  5.34275E+01  5.65418E+01  6.00088E+01  6.38345E+01  6.79279E+01  7.23922E+01
   7.73186E+01  8.25813E+01  8.81294E+01  9.40696E+01  1.00202E+02  1.05923E+02  1.10477E+02  1.13024E+02  1.12824E+02  1.09565E+02
   1.03657E+02  9.61665E+01  8.84182E+01  8.12609E+01  7.49109E+01  6.92384E+01  6.37836E+01  5.79581E+01  5.14339E+01  4.44316E+01
   3.73522E+01  3.06170E+01  2.46894E+01  1.98495E+01  1.59944E+01  1.29759E+01  1.06880E+01  8.93328E+00  7.47483E+00  6.13997E+00
   4.89034E+00  3.74094E+00  2.76580E+00  2.01875E+00  1.43166E+00  8.69870E-01  3.27409E-01 -1.58402E-01 -6.57007E-01 -1.22955E+00
  -1.74795E+00 -2.09872E+00 -2.41003E+00 -2.85349E+00 -3.35438E+00 -3.79505E+00 -4.22895E+00 -4.69978E+00 -5.15082E+00 -5.48872E+00
  -5.73236E+00 -6.03320E+00 -6.45597E+00 -6.96920E+00 -7.50352E+00 -7.99361E+00 -8.37419E+00 -8.66864E+00 -8.91519E+00 -9.13379E+00
  -9.36070E+00 -9.63845E+00 -9.97276E+00 -1.03378E+01 -1.07767E+01 -1.12894E+01 -1.17755E+01 -1.21332E+01 -1.24047E+01 -1.26558E+01
  -1.29208E+01 -1.32228E+01 -1.35577E+01 -1.38795E+01 -1.41052E+01 -1.42559E+01 -1.44148E+01 -1.45800E+01 -1.47491E+01 -1.49464E+01
  -1.51518E+01 -1.53667E+01 -1.56398E+01 -1.59739E+01 -1.63346E+01 -1.66286E+01 -1.68115E+01 -1.68825E+01 -1.68571E+01 -1.68059E+01
  -1.68553E+01 -1.70671E+01 -1.74139E+01 -1.77817E+01 -1.80525E+01 -1.82283E+01 -1.83788E+01 -1.85261E+01 -1.86612E+01 -1.88258E+01
 NY background values follow
    -1.157E+01   -1.156E+01   -1.155E+01   -1.154E+01   -1.153E+01   -1.152E+01   -1.151E+01   -1.149E+01   -1.147E+01   -1.145E+01
    -1.142E+01   -1.139E+01   -1.136E+01   -1.132E+01   -1.128E+01   -1.123E+01   -1.117E+01   -1.111E+01   -1.105E+01   -1.097E+01
    -1.089E+01   -1.081E+01   -1.071E+01   -1.061E+01   -1.049E+01   -1.037E+01   -1.024E+01   -1.010E+01   -9.951E+00   -9.790E+00
    -9.619E+00   -9.436E+00   -9.242E+00   -9.038E+00   -8.824E+00   -8.601E+00   -8.368E+00   -8.126E+00   -7.875E+00   -7.617E+00
    -7.350E+00   -7.076E+00   -6.794E+00   -6.506E+00   -6.212E+00   -5.911E+00   -5.605E+00   -5.293E+00   -4.977E+00   -4.656E+00
    -4.330E+00   -4.001E+00   -3.668E+00   -3.332E+00   -2.993E+00   -2.652E+00   -2.309E+00   -1.964E+00   -1.618E+00   -1.270E+00
    -9.224E-01   -5.743E-01   -2.261E-01    1.217E-01    4.690E-01    8.154E-01    1.161E+00    1.505E+00    1.847E+00    2.187E+00
     2.525E+00    2.860E+00    3.193E+00    3.522E+00    3.849E+00    4.171E+00    4.490E+00    4.804E+00    5.114E+00    5.419E+00
     5.720E+00    6.014E+00    6.304E+00    6.587E+00    6.864E+00    7.135E+00    7.399E+00    7.656E+00    7.906E+00    8.149E+00
     8.383E+00    8.610E+00    8.828E+00    9.038E+00    9.241E+00    9.435E+00    9.621E+00    9.799E+00    9.969E+00    1.013E+01
     1.028E+01    1.043E+01    1.057E+01    1.070E+01    1.082E+01    1.093E+01    1.103E+01    1.113E+01    1.122E+01    1.130E+01
     1.137E+01    1.143E+01    1.149E+01    1.154E+01    1.157E+01    1.160E+01    1.163E+01    1.164E+01    1.165E+01    1.164E+01
     1.163E+01    1.161E+01    1.158E+01    1.155E+01    1.150E+01    1.145E+01    1.139E+01    1.132E+01    1.125E+01    1.117E+01
     1.108E+01    1.098E+01    1.088E+01    1.077E+01    1.065E+01    1.052E+01    1.039E+01    1.025E+01    1.011E+01    9.960E+00
     9.804E+00    9.641E+00    9.473E+00    9.298E+00    9.118E+00    8.932E+00    8.741E+00    8.544E+00    8.342E+00    8.135E+00
     7.923E+00    7.706E+00    7.484E+00    7.257E+00    7.026E+00    6.790E+00    6.550E+00    6.307E+00    6.059E+00    5.807E+00
     5.551E+00    5.292E+00    5.030E+00    4.764E+00    4.495E+00    4.223E+00    3.948E+00    3.670E+00    3.389E+00    3.107E+00
     2.821E+00    2.534E+00    2.244E+00    1.953E+00    1.660E+00    1.365E+00    1.068E+00    7.701E-01    4.709E-01    1.705E-01
    -1.308E-01   -4.329E-01   -7.355E-01   -1.038E+00   -1.341E+00   -1.643E+00   -1.944E+00   -2.243E+00   -2.541E+00   -2.838E+00
    -3.131E+00   -3.423E+00   -3.711E+00   -3.996E+00   -4.277E+00   -4.555E+00   -4.828E+00   -5.096E+00   -5.360E+00   -5.618E+00
    -5.870E+00   -6.116E+00   -6.356E+00   -6.590E+00   -6.816E+00   -7.035E+00   -7.246E+00   -7.449E+00   -7.644E+00   -7.829E+00
    -8.006E+00   -8.174E+00   -8.334E+00   -8.486E+00   -8.632E+00   -8.771E+00   -8.906E+00   -9.036E+00   -9.162E+00   -9.286E+00
    -9.408E+00   -9.528E+00   -9.647E+00   -9.767E+00   -9.888E+00   -1.001E+01   -1.013E+01   -1.026E+01   -1.039E+01   -1.053E+01
    -1.067E+01   -1.082E+01   -1.098E+01   -1.114E+01   -1.131E+01   -1.149E+01   -1.168E+01   -1.189E+01   -1.210E+01   -1.233E+01
    -1.256E+01   -1.282E+01   -1.308E+01   -1.336E+01   -1.366E+01   -1.397E+01   -1.429E+01   -1.462E+01   -1.498E+01   -1.534E+01
    -1.572E+01   -1.612E+01   -1.653E+01   -1.696E+01   -1.740E+01   -1.785E+01   -1.833E+01   -1.882E+01   -1.932E+01   -1.984E+01
    -2.038E+01   -2.093E+01   -2.150E+01   -2.209E+01   -2.269E+01   -2.332E+01   -2.395E+01   -2.461E+01   -2.528E+01   -2.597E+01
    -2.668E+01   -2.741E+01   -2.814E+01   -2.889E+01   -2.965E+01   -3.041E+01   -3.117E+01   -3.193E+01   -3.269E+01   -3.344E+01
    -3.419E+01   -3.492E+01   -3.563E+01   -3.633E+01   -3.700E+01   -3.765E+01   -3.828E+01   -3.887E+01   -3.944E+01   -3.996E+01
    -4.045E+01   -4.090E+01   -4.131E+01   -4.166E+01   -4.197E+01   -4.223E+01   -4.243E+01   -4.257E+01   -4.265E+01   -4.267E+01
    -4.262E+01   -4.251E+01   -4.233E+01   -4.208E+01   -4.178E+01   -4.142E+01   -4.100E+01   -4.052E+01   -4.000E+01   -3.942E+01
    -3.879E+01   -3.811E+01   -3.739E+01   -3.663E+01   -3.582E+01   -3.498E+01   -3.410E+01   -3.318E+01   -3.223E+01   -3.124E+01
    -3.023E+01   -2.919E+01   -2.812E+01   -2.703E+01   -2.591E+01   -2.478E+01   -2.363E+01   -2.246E+01   -2.128E+01   -2.008E+01
    -1.887E+01   -1.766E+01   -1.643E+01   -1.521E+01   -1.397E+01   -1.274E+01   -1.150E+01   -1.026E+01   -9.023E+00   -7.789E+00
    -6.559E+00   -5.336E+00   -4.120E+00   -2.913E+00   -1.716E+00   -5.307E-01    6.410E-01    1.798E+00    2.938E+00    4.061E+00
     5.165E+00    6.248E+00    7.308E+00    8.345E+00    9.356E+00    1.034E+01    1.130E+01    1.222E+01    1.312E+01    1.398E+01
     1.481E+01    1.561E+01    1.637E+01    1.709E+01    1.779E+01    1.844E+01    1.907E+01    1.966E+01    2.022E+01    2.074E+01
     2.123E+01    2.169E+01    2.211E+01    2.250E+01    2.286E+01    2.319E+01    2.348E+01    2.374E+01    2.397E+01    2.416E+01
     2.433E+01    2.446E+01    2.456E+01    2.462E+01    2.466E+01    2.466E+01    2.464E+01    2.458E+01    2.449E+01    2.437E+01
     2.422E+01    2.404E+01    2.383E+01    2.359E+01    2.332E+01    2.303E+01    2.272E+01    2.238E+01    2.201E+01    2.163E+01
     2.122E+01    2.080E+01    2.036E+01    1.989E+01    1.942E+01    1.892E+01    1.842E+01    1.790E+01    1.736E+01    1.682E+01
     1.626E+01    1.570E+01    1.513E+01    1.455E+01    1.396E+01    1.337E+01    1.278E+01    1.218E+01    1.158E+01    1.098E+01
     1.038E+01    9.778E+00    9.178E+00    8.580E+00    7.983E+00    7.387E+00    6.792E+00    6.200E+00    5.609E+00    5.021E+00
     4.436E+00    3.853E+00    3.273E+00    2.696E+00    2.123E+00    1.553E+00    9.878E-01    4.262E-01   -1.310E-01   -6.836E-01
    -1.231E+00   -1.774E+00   -2.312E+00   -2.844E+00   -3.370E+00   -3.890E+00   -4.404E+00   -4.912E+00   -5.413E+00   -5.907E+00
    -6.395E+00   -6.875E+00   -7.349E+00   -7.816E+00   -8.277E+00   -8.733E+00   -9.183E+00   -9.627E+00   -1.007E+01   -1.050E+01
    -1.093E+01   -1.136E+01   -1.178E+01   -1.220E+01   -1.261E+01   -1.303E+01   -1.344E+01   -1.384E+01   -1.425E+01   -1.465E+01
    -1.505E+01   -1.545E+01   -1.585E+01   -1.624E+01   -1.664E+01   -1.703E+01   -1.743E+01   -1.782E+01   -1.822E+01   -1.861E+01
 Mac      Conc. = 2.14E-04
  -2.61758E+01 -2.66235E+01 -2.69625E+01 -2.71712E+01 -2.73625E+01 -2.77038E+01 -2.83410E+01 -2.92926E+01 -3.04718E+01 -3.16916E+01
  -3.27042E+01 -3.33459E+01 -3.36394E+01 -3.38801E+01 -3.43342E+01 -3.50665E+01 -3.60079E+01 -3.66938E+01 -3.62744E+01 -3.43295E+01
  -3.13347E+01 -2.82372E+01 -2.54061E+01 -2.29014E+01 -2.10065E+01 -1.96950E+01 -1.85568E+01 -1.73204E+01 -1.59276E+01 -1.43862E+01
  -1.27993E+01 -1.13427E+01 -1.01860E+01 -9.36089E+00 -8.86619E+00 -8.61909E+00 -8.37379E+00 -7.77112E+00 -6.58175E+00 -4.96489E+00
  -3.42638E+00 -2.40681E+00 -1.85990E+00 -1.33805E+00 -5.13465E-01  5.91427E-01  1.69385E+00  2.44840E+00  2.70862E+00  2.55655E+00
   2.10155E+00  1.47303E+00  8.60288E-01  3.92610E-01  1.14968E-01  7.43943E-03  1.35736E-01  5.97965E-01  1.49148E+00  2.73288E+00
   4.08148E+00  5.38798E+00  6.61628E+00  7.54589E+00  7.97851E+00  7.99238E+00  7.74280E+00  7.40984E+00  7.21770E+00  7.25173E+00
   7.57869E+00  8.47307E+00  1.00377E+01  1.19780E+01  1.37601E+01  1.51004E+01  1.59635E+01  1.63681E+01  1.63834E+01  1.61691E+01
   1.59007E+01  1.56815E+01  1.55988E+01  1.56716E+01  1.60261E+01  1.66772E+01  1.74848E+01  1.83285E+01  1.91599E+01  1.99136E+01
   2.05830E+01  2.11956E+01  2.17335E+01  2.21546E+01  2.23267E+01  2.21449E+01  2.14623E+01  2.02937E+01  1.88143E+01  1.72250E+01
   1.57199E+01  1.44160E+01  1.31481E+01  1.15443E+01  9.34450E+00  6.41416E+00  2.62764E+00 -1.81777E+00 -6.25090E+00 -9.74054E+00
