 
 $NMID
 ID=''
 FMTDAT='(2E13.5)'
 TRAMP=   1.00000E+0
 VOLUME=   1.00000E+0
 $END
  -4.89014E+3   2.45822E+3
   8.52860E+3   6.74503E+3
   8.75203E+3  -1.30197E+4
  -8.81505E+3  -2.37377E+3
   8.40081E+2   1.52334E+4
   6.95637E+3  -2.06224E+3
  -7.54945E+3  -7.87827E+3
  -2.93873E+3   7.11048E+3
   7.37471E+3  -5.53161E+2
  -9.78517E+2  -7.40914E+3
  -2.76060E+3   4.93097E+3
   3.50716E+3   2.65075E+3
  -7.98477E+2  -5.71171E+3
  -1.18575E+3   1.75086E+3
   1.42676E+3   2.99244E+3
  -3.01132E+3  -4.01325E+3
  -1.22966E+3  -8.85344E+2
   4.25802E+3   2.02607E+3
   1.52255E+2  -5.49350E+2
  -1.96194E+3  -4.95885E+1
   8.04270E+2   6.71809E+2
  -7.38338E+2  -1.58320E+3
  -8.84154E+1  -1.72576E+2
   1.96952E+3   1.67056E+3
  -1.12823E+3   3.60102E+0
  -1.66936E+3  -1.99896E+3
   2.97302E+3  -9.22057E+2
   1.13603E+3   2.04229E+3
  -2.57879E+3   1.85073E+3
  -9.10699E+1  -1.49149E+3
   2.23552E+3  -1.30943E+3
   1.90121E+2   1.98176E+3
  -1.51652E+3   2.06658E+3
  -1.59664E+3   6.06689E+1
  -1.11048E+3  -1.28971E+3
   3.35560E+2  -1.63040E+3
   1.46843E+3  -4.92704E+2
   3.89460E+2   6.82058E+2
  -7.71327E+1   1.57475E+2
   3.03002E+2   1.94179E+2
  -3.77186E+2   1.08612E+3
  -9.17207E+2   1.08351E+1
   8.46094E+1  -1.32834E+3
   3.94928E+2  -2.96597E+2
  -2.15071E+2   2.06275E+2
   8.72767E+2  -8.43481E+2
   1.95479E+3   4.00095E+2
   1.50914E+2   2.63622E+3
  -1.78218E+3   1.24427E+3
  -1.00341E+3  -1.17868E+3
   2.13068E+2  -8.41217E+2
  -4.28304E+1   8.50066E+1
  -4.36148E+2  -7.07897E+2
   3.76588E+2  -8.46496E+2
   1.09057E+3   1.86895E+2
   6.30010E+2   4.58126E+2
  -7.41942E+2   2.68772E+2
  -7.90671E+2  -3.07282E+2
   1.82508E+2  -1.02077E+3
   4.49444E+2  -4.84530E+2
   5.30206E+2   3.65804E+2
   5.43092E+2   1.76858E+2
   1.06902E+3   2.17863E+2
   7.04132E+1   1.41286E+3
  -8.28049E+2   1.36696E+3
  -1.13904E+3  -3.47831E+2
  -7.24609E+2  -1.12073E+3
  -3.31904E+1  -8.96726E+2
   6.31847E+1  -3.15383E+2
   2.53231E+2   2.19445E+2
  -2.42261E+2  -3.14661E+1
   7.73511E+1  -5.63297E+2
   5.29705E+2  -5.06319E+2
   2.73169E+2   4.31949E+2
   5.45474E+1   2.21786E+2
  -2.45000E+1   1.85728E+2
  -2.66790E+1   9.43717E+1
   1.78190E+2   2.81877E+2
  -4.90625E+2   3.76045E+2
  -4.79491E+2   1.42071E+2
  -4.35717E+2  -1.60324E+2
  -2.84989E+2  -3.04034E+2
   2.46184E+1  -2.11015E+2
  -1.51034E+2  -1.54206E+2
  -4.46933E+2  -2.00227E+2
   3.32384E+1  -4.69515E+2
   2.95133E+2  -1.03766E+2
   1.21326E+2   7.39274E+1
  -1.30608E+2   8.75467E+1
  -3.80067E+1   1.79429E+1
   4.56654E+2  -2.14086E+1
   2.78605E+2   6.04666E+2
   5.66906E+1   6.17848E+2
  -6.81008E+2   1.33067E+2
  -2.89323E+2  -4.76513E+2
  -8.56497E+1  -3.19548E+2
   7.95056E+1  -6.69481E+1
  -2.07406E+2   1.30694E+2
   1.28796E+2  -3.52971E+2
   2.31375E+2  -1.25295E+0
   1.67852E+2   6.62272E+2
   3.67507E+1   4.01537E+2
  -3.06615E+2  -2.38550E+1
  -3.02832E+2  -4.07467E+2
  -3.98483E+1  -4.08298E+2
   2.78673E+2  -2.42713E+2
   2.63469E+2   3.61840E+2
  -5.73609E+2   1.77847E+2
  -4.36030E+2  -5.76673E+2
   2.93688E+2  -7.08867E+2
   5.05101E+2   1.44815E+1
   2.74801E+2   2.78023E+2
  -8.39940E+1   1.73686E+2
  -1.52301E+2   6.36992E+1
   1.24413E+2   1.88087E+2
  -3.27355E+1   2.50358E+2
  -4.65701E+2   2.60063E+2
  -4.18285E+2  -6.69027E+1
  -8.27868E+1  -4.78873E+2
   3.26364E+2  -2.49520E+2
   3.46603E+2   1.08935E+2
  -3.69782E+1   2.63735E+2
   2.01864E+1  -6.49349E+1
  -8.73724E+1   4.39568E+2
  -1.51559E+2   1.21266E+2
  -4.70305E+1   1.43307E+2
  -1.37814E+2  -3.43210E+2
   5.84648E+0  -3.18351E+2
  -7.18718E+0   2.26535E+2
  -2.41358E+2   3.86740E+2
  -2.60003E+2   2.76878E+2
  -3.11309E+2  -2.41424E+2
   9.04999E+1  -1.27635E+2
   1.13498E+2  -1.04551E+2
  -1.53372E+2  -2.94908E+0
   2.94725E+1  -1.92059E+2
   1.39750E+2   1.29041E+2
   1.93880E+2   2.18022E+2
  -1.83844E+0   2.06623E+2
  -3.93957E+2   5.50179E+1
  -2.02498E+2  -3.80844E+2
   1.13815E+2  -2.25307E+2
   3.39256E+2   4.31631E+0
   1.21348E+2   5.25067E+2
  -7.66931E+1   4.28952E+2
  -5.35857E+2  -6.03555E+1
  -2.26931E+2  -1.81904E+2
   1.56261E+2  -3.68843E+1
   9.13758E+0  -5.81554E+1
   1.43529E+2   1.06354E+2
  -1.61849E+2  -3.64037E+2
   2.71657E+2  -2.62724E+2
   4.25464E+2   4.52327E+2
   3.63176E-1   4.51442E+2
  -1.60655E+2  -4.56717E+1
   5.86523E+1  -2.70231E+1
   1.07275E+2  -7.99077E+1
  -3.86935E+1   2.12460E+2
  -1.26649E+2   1.76244E+1
  -3.30285E+2   6.90781E+1
   1.24699E+2  -3.04381E+1
  -9.92579E+1   3.74860E+2
  -1.08771E+2  -1.05649E+2
  -1.56447E+1  -2.29435E+2
   2.89138E+2  -4.48629E+1
   7.75447E+1   2.73431E+1
   6.71866E+1  -1.01460E+2
  -1.15233E+2  -6.34412E+1
  -1.39626E+2   2.96643E+1
  -9.85416E+1   1.92381E+2
  -8.05986E+1   6.55762E+1
  -2.62823E+2   6.24948E+0
  -7.35917E+1   7.78852E+1
  -3.23030E+1  -4.90869E+1
   1.00729E+2   1.58507E+2
   2.56183E+2   7.85818E+1
  -8.69228E+0   2.48630E+1
  -1.82932E+2  -1.94681E+2
   2.69106E+2  -2.48895E+2
   1.81580E+2   1.10764E+2
   1.17676E+2   2.20369E+2
  -2.46666E+2   1.62490E+2
  -5.88516E+1  -7.76254E+1
   5.22330E+1  -1.63606E+2
   1.32551E+2   5.27183E+1
   3.59261E+2   2.02462E+2
   1.20669E+2   4.77640E+1
   3.74040E+2  -2.38647E+2
   1.88189E+2   8.93549E+1
  -1.25614E+2   2.57853E+2
  -9.48797E+1   9.24728E+1
  -3.37233E+2  -3.85651E+2
   3.58006E+1  -3.76316E+2
   3.59786E+2   8.96243E+1
   1.07181E+2   1.68159E+2
  -7.34106E-1   8.78724E+0
   1.93737E+0  -7.73306E+1
   7.62057E+1   2.13071E+2
  -6.40588E+1   8.71847E+1
  -8.84228E+1  -2.05839E+2
   1.14500E+1  -4.43086E+2
   6.16667E+1  -6.60238E+1
   1.13865E+2   1.24071E+2
  -1.23945E+2  -1.23386E+2
  -2.26424E+2  -9.40872E+1
   3.99804E+1  -1.05141E+2
   5.17465E+1  -9.40932E+1
   1.06900E+2  -2.45545E+1
   9.73118E+0  -1.58504E+2
   3.84400E+1  -3.08761E+1
  -1.10623E+2   4.90378E+1
  -1.30916E+2   2.64865E+2
  -1.81975E+2   8.93774E+1
  -4.54204E+2   1.32412E+2
  -6.70009E+1   7.11152E+1
   9.94869E+1  -2.62783E+2
  -1.09478E+2  -1.53394E+2
   2.08966E+2   9.53922E+1
   3.27711E+1   2.71482E+2
  -8.08191E+1  -9.61775E+1
  -2.40726E+2  -2.71497E+1
   6.86424E+1   1.07644E+2
  -7.62007E+0   2.81165E+2
  -2.54715E+2   3.75943E+1
  -1.88061E+2  -2.05860E+2
  -1.48981E+2  -2.12025E+2
  -2.37061E+0   3.12754E+2
  -1.62927E+2   1.78256E+2
  -2.05651E+2   1.59651E+2
   7.18706E+1  -3.03120E+1
  -1.69127E+2  -1.19285E+2
   1.02001E+1   5.77401E+1
  -2.02713E+2   1.17762E+2
  -1.97794E+2   1.26650E+2
  -2.75144E+1  -4.58058E+1
  -7.91118E+1   6.91639E+1
   7.17717E+0  -7.85201E-1
  -1.61932E+2  -4.15110E+1
   1.77396E+2   1.83187E+2
  -4.00477E+1   1.43945E+2
   2.23312E+2  -1.05209E+2
  -1.78305E+2  -3.58246E+1
   6.30229E+1   1.99294E+1
  -1.36634E+2  -4.96752E+1
   2.21031E+1  -7.31350E+1
  -1.67209E+2  -1.30256E+2
  -1.10685E+2  -1.29953E+2
   2.44990E+1  -3.27651E+1
  -9.63565E+1   1.59248E+2
   1.02232E+1   6.82218E+1
  -1.44859E+2   1.81911E+2
  -1.03979E+2   7.82761E+1
  -2.31100E+2  -2.02417E+1
   4.59491E+1  -1.28895E+1
   1.70394E+2   3.64569E+1
   5.75398E+1   2.26999E+2
   6.81326E+1  -1.08875E+2
  -1.44021E+1   7.54328E+1
   1.57041E+2   1.00288E+2
   9.49309E+0  -1.76139E+1
   5.03788E+1  -7.70074E+1
   1.10515E+2  -3.96468E+2
   1.28677E+2   1.57410E+2
   3.83488E+2   2.47206E+1
  -9.62397E+1   6.11971E+1
  -8.87822E+1  -1.47166E+2
  -3.67641E+1  -1.58226E+2
  -3.29275E+1  -3.10876E+0
  -3.28116E+1  -3.54023E+1
  -5.91136E+1   1.36599E+2
   3.93730E+1   9.12429E+1
  -1.55029E+2   9.67923E-1
  -1.24276E+2   1.05178E+2
   1.45850E+2  -2.62865E+2
  -1.78906E+2  -1.74123E+2
  -2.11142E+2  -9.11217E+1
   2.43537E+0  -1.94339E+0
   3.48525E+1  -1.53173E+1
  -9.56155E+1   4.60665E+1
   1.06007E+1   1.32211E+2
   3.19609E+1  -7.85912E+1
   9.81121E+1   7.68951E+1
   5.22332E+1   5.44105E+1
   1.45442E+2   4.67088E+1
   7.59007E+1  -2.61585E+1
   2.40362E+2  -2.39611E+2
  -7.35323E+0   8.02889E+1
   1.94173E+2  -1.04559E+2
  -7.56626E+1  -1.22557E+2
  -1.30144E+2  -1.90910E+2
   8.73101E+1  -1.36657E+2
   3.43397E+1   1.07070E+2
  -8.43530E+1  -8.46105E+1
   1.12042E+2  -1.59078E+2
  -1.90297E+1   1.53565E+2
   2.03857E+2  -1.16508E+2
  -2.98214E+1  -5.29704E+1
   5.42496E+1  -2.07964E+2
   2.43907E+1  -2.15437E+2
  -1.24715E+2   1.18203E+2
   1.36367E+2  -1.63778E+2
  -5.14062E+1  -1.91909E+1
  -1.17471E+2   2.78064E+1
  -2.37202E+2  -5.54591E+1
  -3.61694E+1   1.64188E+2
   2.59769E+2  -5.11230E+1
  -1.84108E+2   2.03853E+2
  -1.07708E+1   5.00034E+1
  -5.88724E+1   6.13376E+1
  -1.89495E+2   1.16241E+2
  -1.12333E+1   2.01546E+2
  -1.10831E+2  -9.22553E+1
   2.66654E+1   1.03113E+1
  -1.04502E+2   8.66024E+1
   5.61694E+1   8.94102E+1
  -2.47725E+1  -1.41583E+2
   1.72265E+2  -1.41846E+2
   1.15321E+0  -2.20924E+2
   2.02149E+2  -1.25092E+2
   2.44413E+1   1.61441E+2
  -4.93020E+1  -8.57806E+1
   1.53930E+1   5.19441E+1
  -1.12218E+2   4.72336E+1
  -4.16416E+1   3.12417E+1
  -9.79480E+0   1.36220E+2
  -4.61135E+1  -9.81452E+1
  -1.36549E+2  -6.86871E+1
  -1.03399E+2  -2.14813E+2
   1.45889E+2  -1.15996E+2
   3.81742E+1   2.39204E+2
   1.84191E+2   3.94518E+1
   3.80816E+1  -3.44148E+1
   4.68933E+1  -5.68298E+1
  -1.40394E+2   6.17689E+1
   1.85064E+2  -1.72669E+1
  -1.06328E+2  -1.39850E+2
  -1.21523E+2  -7.32753E+1
   2.03795E+2  -1.52809E+2
   1.97339E+2  -8.75471E+1
  -1.15109E+2   1.46238E+2
  -7.86289E+1  -1.98693E+2
  -6.43182E+1  -1.18867E+1
   3.17084E+2  -1.18109E+2
   6.50014E+1   7.33186E+1
  -2.75502E+2  -1.47353E+2
  -2.73989E+1  -3.77258E+0
   4.53635E+1  -1.42452E+2
  -1.68232E+2   4.28453E+1
  -1.05958E+2  -3.43888E+1
  -1.90073E+2   1.35427E+2
  -2.84087E+1   1.04637E+2
   1.82498E+1   1.18171E+2
   2.24606E+2  -6.20548E+1
   1.68352E+1   2.33505E+1
   2.02631E+2   1.49895E+1
   3.52904E+1   1.90357E+2
   4.35405E+1  -2.24601E+2
  -9.95849E+1  -1.54710E+2
  -1.57428E+1   5.46301E+1
  -1.04730E+2  -1.63668E+2
  -3.25537E+1  -7.84001E+1
   3.73437E+1  -8.38321E+1
  -1.49090E+2  -1.01393E+2
   4.19283E+1   8.33071E+1
  -1.04716E+1  -3.87426E+1
   6.30356E+1   1.92747E+2
   1.81000E+2  -1.74745E+1
