 
 $NMID
 ID=''
 FMTDAT='(2E13.5)'
 TRAMP=   1.00000E+0
 VOLUME=   1.00000E+0
 $END
   5.67760E+5  -2.08090E+5
   1.60402E+6   7.42050E+4
   1.55448E+6  -8.25140E+4
   1.45045E+6  -1.05325E+4
   1.49482E+6  -8.28033E+3
   1.44561E+6  -9.26637E+4
   1.38194E+6  -8.41555E+4
   1.39255E+6  -7.81489E+4
   1.34761E+6  -1.05042E+5
   1.29735E+6  -7.94764E+4
   1.29085E+6  -7.47656E+4
   1.24756E+6  -9.02541E+4
   1.20827E+6  -7.22239E+4
   1.19838E+6  -6.61429E+4
   1.15902E+6  -6.49375E+4
   1.12363E+6  -4.37005E+4
   1.11231E+6  -4.28035E+4
   1.07877E+6  -4.96819E+4
   1.04578E+6  -3.75803E+4
   1.02552E+6  -4.22278E+4
   9.88821E+5  -4.50552E+4
   9.57194E+5  -3.24852E+4
   9.33741E+5  -3.07509E+4
   8.97031E+5  -2.99372E+4
   8.63094E+5  -1.76307E+4
   8.35556E+5  -1.69570E+4
   8.02915E+5  -1.22672E+4
   7.74514E+5   1.83747E+3
   7.46392E+5   6.53201E+3
   7.14657E+5   6.76415E+3
   6.90814E+5   1.28687E+4
   6.67172E+5   1.30588E+4
   6.38247E+5   1.39718E+4
   6.15177E+5   1.68777E+4
   5.93121E+5   1.57937E+4
   5.67752E+5   1.56284E+4
   5.47072E+5   1.79851E+4
   5.26092E+5   1.93794E+4
   5.01198E+5   2.39795E+4
   4.79543E+5   2.96107E+4
   4.58228E+5   3.32018E+4
   4.35252E+5   3.79090E+4
   4.14586E+5   4.22128E+4
   3.94843E+5   4.48299E+4
   3.73869E+5   4.84487E+4
   3.56137E+5   5.18932E+4
   3.38644E+5   5.37566E+4
   3.20846E+5   5.63834E+4
   3.03793E+5   5.82241E+4
   2.88221E+5   5.89606E+4
   2.73082E+5   6.10584E+4
   2.59261E+5   6.38699E+4
   2.44897E+5   6.57850E+4
   2.31691E+5   6.84330E+4
   2.18471E+5   7.17597E+4
   2.04903E+5   7.43300E+4
   1.91850E+5   7.73053E+4
   1.79158E+5   7.97443E+4
   1.67018E+5   8.22563E+4
   1.55198E+5   8.44397E+4
   1.44028E+5   8.56232E+4
   1.32844E+5   8.74206E+4
   1.22380E+5   8.92904E+4
   1.12491E+5   9.08410E+4
   1.02766E+5   9.19288E+4
   9.36983E+4   9.27311E+4
   8.50687E+4   9.36184E+4
   7.67011E+4   9.50439E+4
   6.88522E+4   9.61416E+4
   6.15921E+4   9.77783E+4
   5.39398E+4   9.93721E+4
   4.66879E+4   1.00307E+5
   4.02588E+4   1.01018E+5
   3.34867E+4   1.02236E+5
   2.68384E+4   1.03683E+5
   2.00652E+4   1.04408E+5
   1.43776E+4   1.05087E+5
   8.48023E+3   1.06055E+5
   2.62677E+3   1.06534E+5
  -2.99336E+3   1.06990E+5
  -8.21135E+3   1.07357E+5
  -1.31460E+4   1.07893E+5
  -1.77303E+4   1.08437E+5
  -2.18288E+4   1.08748E+5
  -2.61646E+4   1.09200E+5
  -3.03173E+4   1.09418E+5
  -3.38480E+4   1.10049E+5
  -3.75725E+4   1.10540E+5
  -4.12968E+4   1.10256E+5
  -4.40277E+4   1.10468E+5
  -4.69557E+4   1.10788E+5
  -4.97108E+4   1.10984E+5
  -5.24352E+4   1.11479E+5
  -5.49343E+4   1.11492E+5
  -5.71913E+4   1.11492E+5
  -5.90628E+4   1.11560E+5
  -6.07981E+4   1.11913E+5
  -6.24345E+4   1.12155E+5
  -6.43430E+4   1.11657E+5
  -6.54056E+4   1.11655E+5
  -6.67149E+4   1.11892E+5
  -6.78832E+4   1.12079E+5
  -6.91497E+4   1.11650E+5
  -6.97936E+4   1.11283E+5
  -7.02440E+4   1.10993E+5
  -7.08214E+4   1.10811E+5
  -7.15131E+4   1.10638E+5
  -7.21026E+4   1.10200E+5
  -7.23014E+4   1.09736E+5
  -7.20781E+4   1.09106E+5
  -7.25969E+4   1.08781E+5
  -7.27327E+4   1.08440E+5
  -7.31006E+4   1.08179E+5
  -7.29825E+4   1.07291E+5
  -7.27710E+4   1.06814E+5
  -7.29928E+4   1.06015E+5
  -7.28382E+4   1.05625E+5
  -7.26521E+4   1.04688E+5
  -7.20501E+4   1.03858E+5
  -7.18463E+4   1.03165E+5
  -7.13065E+4   1.02505E+5
  -7.14050E+4   1.01973E+5
  -7.06998E+4   1.00950E+5
  -7.06353E+4   1.00227E+5
  -7.02308E+4   9.93527E+4
  -7.02014E+4   9.80262E+4
  -6.94422E+4   9.67746E+4
  -6.90686E+4   9.58735E+4
  -6.88552E+4   9.49005E+4
  -6.82009E+4   9.38465E+4
  -6.81998E+4   9.25751E+4
  -6.77680E+4   9.09049E+4
  -6.78193E+4   8.98101E+4
  -6.75462E+4   8.83649E+4
  -6.70647E+4   8.70687E+4
  -6.68775E+4   8.57993E+4
  -6.70537E+4   8.46447E+4
  -6.67573E+4   8.33355E+4
  -6.67929E+4   8.22123E+4
  -6.70831E+4   8.08522E+4
  -6.69057E+4   7.94277E+4
  -6.70868E+4   7.76969E+4
  -6.67650E+4   7.63788E+4
  -6.66275E+4   7.50501E+4
  -6.70139E+4   7.37613E+4
  -6.70528E+4   7.24345E+4
  -6.69087E+4   7.08856E+4
  -6.70026E+4   6.91954E+4
  -6.70594E+4   6.78476E+4
  -6.70402E+4   6.65379E+4
  -6.72154E+4   6.52441E+4
  -6.73251E+4   6.38394E+4
  -6.70224E+4   6.25114E+4
  -6.74179E+4   6.10669E+4
  -6.77911E+4   6.01495E+4
  -6.81246E+4   5.87800E+4
  -6.80256E+4   5.72814E+4
  -6.81863E+4   5.59003E+4
  -6.84227E+4   5.47227E+4
  -6.87463E+4   5.32198E+4
  -6.89350E+4   5.19220E+4
  -6.90158E+4   5.03349E+4
  -6.92489E+4   4.90195E+4
  -6.92052E+4   4.75966E+4
  -6.92985E+4   4.63978E+4
  -6.96676E+4   4.48962E+4
  -6.96941E+4   4.38720E+4
  -6.99393E+4   4.27997E+4
  -7.01281E+4   4.14326E+4
  -7.00185E+4   3.99401E+4
  -7.01945E+4   3.87088E+4
  -7.01925E+4   3.75090E+4
  -7.03121E+4   3.63028E+4
  -7.04540E+4   3.50896E+4
  -7.02242E+4   3.37935E+4
  -7.04789E+4   3.24779E+4
  -7.03440E+4   3.08301E+4
  -7.05365E+4   2.96950E+4
  -7.06005E+4   2.82512E+4
  -7.02025E+4   2.69848E+4
  -7.02783E+4   2.54476E+4
  -7.00405E+4   2.41801E+4
  -7.00477E+4   2.30586E+4
  -7.02243E+4   2.11793E+4
  -6.98627E+4   1.98375E+4
  -6.97123E+4   1.85879E+4
  -6.93249E+4   1.72370E+4
  -6.91650E+4   1.57370E+4
  -6.93422E+4   1.46049E+4
  -6.90341E+4   1.31800E+4
  -6.88757E+4   1.18236E+4
  -6.85871E+4   1.04295E+4
  -6.84772E+4   8.93096E+3
  -6.79711E+4   7.27675E+3
  -6.76772E+4   6.03320E+3
  -6.74736E+4   4.45931E+3
  -6.69022E+4   2.85031E+3
  -6.65960E+4   1.55116E+3
  -6.61650E+4   1.51044E+2
  -6.61126E+4  -1.49427E+3
  -6.54434E+4  -3.06622E+3
  -6.50547E+4  -4.35355E+3
  -6.44632E+4  -5.99558E+3
  -6.39617E+4  -7.25317E+3
  -6.34699E+4  -8.57637E+3
  -6.30126E+4  -1.02218E+4
  -6.25254E+4  -1.12528E+4
  -6.20152E+4  -1.29475E+4
  -6.15441E+4  -1.42262E+4
  -6.09609E+4  -1.54719E+4
  -5.99301E+4  -1.70925E+4
  -5.94849E+4  -1.81151E+4
  -5.87352E+4  -1.93326E+4
  -5.82894E+4  -2.07146E+4
  -5.74966E+4  -2.19794E+4
  -5.69952E+4  -2.32179E+4
  -5.60525E+4  -2.42904E+4
  -5.53605E+4  -2.53781E+4
  -5.43396E+4  -2.65110E+4
  -5.34895E+4  -2.76160E+4
  -5.29019E+4  -2.87016E+4
  -5.20978E+4  -2.97738E+4
  -5.12867E+4  -3.07008E+4
  -5.07940E+4  -3.17670E+4
  -4.97382E+4  -3.28222E+4
  -4.86612E+4  -3.36411E+4
  -4.78895E+4  -3.46087E+4
  -4.72641E+4  -3.54640E+4
  -4.64846E+4  -3.60693E+4
  -4.54425E+4  -3.69770E+4
  -4.45135E+4  -3.76327E+4
  -4.37303E+4  -3.83227E+4
  -4.29301E+4  -3.90550E+4
  -4.20054E+4  -3.98263E+4
  -4.12059E+4  -4.05280E+4
  -3.99728E+4  -4.10195E+4
  -3.93492E+4  -4.17273E+4
  -3.84059E+4  -4.22233E+4
  -3.76392E+4  -4.26079E+4
  -3.67639E+4  -4.31391E+4
  -3.61503E+4  -4.35954E+4
  -3.53256E+4  -4.39810E+4
  -3.45669E+4  -4.44659E+4
  -3.36353E+4  -4.51255E+4
  -3.27796E+4  -4.54367E+4
  -3.19860E+4  -4.56558E+4
  -3.10458E+4  -4.59372E+4
  -3.03620E+4  -4.62187E+4
  -2.96009E+4  -4.66904E+4
  -2.88419E+4  -4.66156E+4
  -2.80010E+4  -4.68642E+4
  -2.71216E+4  -4.73291E+4
  -2.62301E+4  -4.73407E+4
  -2.57065E+4  -4.76535E+4
  -2.44044E+4  -4.80909E+4
  -2.36066E+4  -4.79021E+4
  -2.29415E+4  -4.80555E+4
  -2.19208E+4  -4.79014E+4
  -2.12027E+4  -4.80371E+4
  -2.04622E+4  -4.83897E+4
  -1.94016E+4  -4.82370E+4
  -1.85033E+4  -4.83237E+4
  -1.78433E+4  -4.81764E+4
  -1.67771E+4  -4.81678E+4
  -1.57281E+4  -4.79526E+4
  -1.50500E+4  -4.79875E+4
  -1.42027E+4  -4.80863E+4
  -1.32882E+4  -4.76679E+4
  -1.22305E+4  -4.75889E+4
  -1.13477E+4  -4.75777E+4
  -1.06888E+4  -4.74359E+4
  -9.79736E+3  -4.72358E+4
  -9.12308E+3  -4.73261E+4
  -8.24722E+3  -4.69164E+4
  -7.18984E+3  -4.66106E+4
  -6.28720E+3  -4.64098E+4
  -5.53857E+3  -4.62643E+4
  -4.61130E+3  -4.59656E+4
  -3.79576E+3  -4.55950E+4
  -2.76115E+3  -4.51505E+4
  -2.10325E+3  -4.50053E+4
  -9.53006E+2  -4.47193E+4
  -3.79548E+2  -4.42324E+4
   6.30824E+2  -4.44354E+4
   1.26395E+3  -4.37533E+4
   2.06979E+3  -4.32844E+4
   2.72898E+3  -4.30704E+4
   3.62219E+3  -4.27765E+4
   4.38515E+3  -4.23752E+4
   4.96875E+3  -4.20523E+4
   5.95272E+3  -4.14836E+4
   6.53692E+3  -4.12898E+4
   7.21312E+3  -4.07806E+4
   7.98118E+3  -4.03459E+4
   8.60120E+3  -4.00423E+4
   9.30197E+3  -3.95733E+4
   9.99414E+3  -3.92546E+4
   1.05386E+4  -3.88570E+4
   1.12350E+4  -3.83684E+4
   1.17330E+4  -3.79487E+4
   1.21882E+4  -3.74575E+4
   1.27502E+4  -3.71027E+4
   1.35053E+4  -3.68479E+4
   1.38645E+4  -3.62362E+4
   1.43265E+4  -3.56801E+4
   1.49725E+4  -3.54506E+4
   1.55315E+4  -3.46637E+4
   1.58137E+4  -3.41714E+4
   1.63538E+4  -3.38266E+4
   1.68472E+4  -3.33669E+4
   1.72502E+4  -3.28612E+4
   1.75129E+4  -3.25378E+4
   1.78612E+4  -3.19102E+4
   1.84384E+4  -3.13352E+4
   1.88130E+4  -3.05216E+4
   1.91393E+4  -3.02296E+4
   1.93286E+4  -2.96294E+4
   1.98224E+4  -2.91194E+4
   2.01577E+4  -2.86120E+4
   2.03490E+4  -2.82709E+4
   2.06609E+4  -2.74297E+4
   2.09948E+4  -2.72733E+4
   2.11782E+4  -2.64307E+4
   2.13737E+4  -2.61153E+4
   2.16436E+4  -2.54315E+4
   2.18351E+4  -2.51121E+4
   2.19196E+4  -2.42160E+4
   2.22987E+4  -2.37977E+4
   2.26460E+4  -2.31106E+4
   2.25384E+4  -2.25585E+4
   2.27487E+4  -2.20948E+4
   2.27563E+4  -2.14538E+4
   2.28974E+4  -2.10120E+4
   2.31062E+4  -2.05751E+4
   2.35389E+4  -2.00153E+4
   2.34982E+4  -1.90913E+4
   2.38143E+4  -1.88040E+4
   2.37126E+4  -1.81372E+4
   2.38422E+4  -1.75596E+4
   2.42065E+4  -1.71732E+4
   2.38261E+4  -1.67383E+4
   2.40733E+4  -1.59064E+4
   2.41356E+4  -1.53401E+4
   2.43700E+4  -1.49914E+4
   2.40420E+4  -1.41232E+4
   2.40296E+4  -1.40747E+4
   2.42336E+4  -1.34550E+4
   2.42246E+4  -1.28014E+4
   2.42920E+4  -1.23089E+4
   2.43519E+4  -1.17989E+4
   2.42342E+4  -1.13349E+4
   2.41015E+4  -1.08115E+4
   2.39544E+4  -1.05041E+4
   2.41783E+4  -9.81972E+3
   2.39286E+4  -9.57619E+3
   2.38085E+4  -9.03371E+3
   2.38530E+4  -8.77446E+3
   2.38784E+4  -8.09105E+3
   2.35906E+4  -7.65059E+3
   2.34396E+4  -7.15558E+3
   2.33851E+4  -6.80546E+3
   2.33624E+4  -6.09461E+3
   2.31080E+4  -5.98127E+3
   2.28586E+4  -5.55619E+3
   2.29042E+4  -5.10557E+3
   2.27668E+4  -4.69928E+3
   2.27799E+4  -4.53966E+3
