 
 $NMID
 ID=''
 FMTDAT='(2E13.5)'
 TRAMP=   1.00000E+0
 VOLUME=   1.00000E+0
 $END
   6.87352E+3   1.99878E+4
   3.14558E+4   1.97386E+4
   2.52014E+4  -3.07024E+4
  -2.44927E+4  -3.18196E+4
  -3.21246E+4   2.19649E+4
   1.08485E+4   3.13736E+4
   2.55037E+4  -9.17551E+3
  -9.37341E+2  -2.44825E+4
  -1.66234E+4  -3.08379E+3
  -4.67884E+3   1.57727E+4
   1.00414E+4   1.06433E+4
   7.72882E+3  -6.60424E+3
  -3.44158E+3  -8.77993E+3
  -5.56926E+3   4.75242E+3
  -1.58766E+3   7.40467E+3
   5.28369E+2  -2.44638E+3
   1.77311E+3  -3.17792E+3
   1.49473E+3   1.83907E+3
  -1.15851E+3   8.67915E+2
  -1.03699E+3  -1.69564E+3
  -8.28255E+1   1.85276E+2
  -8.94675E+2   1.42083E+3
   9.35554E+2  -5.17386E+2
   1.86043E+3  -1.80871E+3
  -2.11614E+3  -3.53096E+2
  -2.73305E+3   1.32789E+2
   2.09916E+3  -3.10774E+2
   3.31442E+3   8.72448E+2
  -8.36832E+2   4.91743E+2
  -2.81092E+3  -1.37793E+3
  -4.91009E+2  -7.64279E+2
   2.17908E+3   1.58371E+3
   1.75507E+3   1.12958E+3
  -1.70192E+3  -1.85730E+2
  -3.35457E+3  -5.79642E+2
  -8.99231E+2  -6.07150E+2
   2.11154E+3  -2.37340E+2
   1.24792E+3  -2.20494E+1
  -9.41234E+2  -6.36024E+2
  -8.70618E+2   6.78124E+1
   2.91151E+2   1.69434E+3
   1.81753E+2   5.92467E+2
  -1.09203E+3  -1.36761E+3
  -1.22049E+3  -6.55507E+2
  -3.19193E+2   1.03698E+2
   1.22599E+3  -1.00023E+3
   1.83077E+3  -7.44495E+2
   6.35732E+2   1.66213E+3
  -1.20169E+3   2.00029E+3
  -7.12764E+2  -1.50519E+2
   2.82777E+2  -9.75782E+2
  -6.34819E+2   3.77009E+2
  -9.13786E+2   7.22224E+1
   2.87032E+2  -6.70928E+2
   9.00443E+2  -8.31240E+2
   3.58672E+1   4.62114E+0
  -6.34225E+2   8.16571E+2
  -8.25462E+1   6.50411E+2
  -4.82992E+1  -1.81273E+2
  -5.93822E+2  -1.03995E+3
  -5.99015E+2  -8.48663E+2
   5.26722E+2  -4.05500E+2
   1.33448E+3  -8.63009E+1
   1.17101E+3   3.04103E+2
   2.42900E+2   6.12681E+2
  -2.46070E+2   1.01780E+3
  -6.45017E+2   6.09832E+2
  -1.04313E+3  -1.68221E+2
  -3.91200E+2  -1.17865E+3
   5.82911E+2  -8.97276E+2
   3.62103E+2   6.62804E+2
  -7.19872E+2   7.33195E+1
  -4.42528E+2  -1.29031E+3
   3.60824E+2  -1.23371E+3
   5.62984E+2   1.84787E+2
   2.09889E+1   4.73156E+2
  -1.13154E+2  -4.37634E+2
   3.90518E+2  -7.54008E+2
   1.93689E+2  -1.30692E+2
   9.55886E+1   6.08365E+2
   1.35545E+2   2.21106E+2
   1.05008E+2  -3.01091E+2
  -3.57618E+2  -4.26237E+2
  -2.01304E+2   1.78611E+2
  -3.58757E+1   2.49015E+2
  -3.07232E+2  -5.69775E+2
  -3.38901E+2  -8.51137E+2
  -1.64150E+2  -3.87474E+2
   6.15282E+1  -7.27858E+1
  -1.00139E+2  -1.67537E+1
   3.38739E+1  -5.87457E+2
   1.47269E+2  -6.69834E+2
   5.37595E+2  -3.81867E+2
   6.41367E+2   3.50748E+2
   2.16209E+2   7.62287E+2
  -6.00810E+2   1.15134E+2
  -5.93030E+2  -4.13971E+2
   1.40367E+2  -2.23156E+2
  -1.49461E+2   3.87569E+2
  -6.82263E+2  -1.58898E+2
  -2.44486E+2  -9.23189E+2
   5.30287E+2  -6.89912E+2
   5.78213E+2   3.55953E+2
  -2.72084E+2   7.35131E+2
  -6.39425E+2   2.14478E+2
  -4.07640E+2  -6.76331E+2
   1.94890E+2  -3.01777E+2
   5.14307E+2   4.32404E+2
   8.80788E+1   7.49013E+2
  -5.38854E+2   7.32119E+1
  -7.59757E+2  -2.57488E+2
  -1.04564E+2  -4.73435E+2
   1.22520E+2  -1.34701E+2
   2.81367E+2   3.26751E+0
   9.13718E+1  -2.15313E+1
  -8.07733E+1  -1.63781E+2
   6.51520E+2   1.10069E+2
   3.47463E+2   6.11072E+2
  -4.49207E+2   6.93927E+2
  -6.04520E+2   4.07214E+1
  -2.51142E+1  -2.04060E+2
  -1.13777E+2  -3.31362E+2
  -2.71211E+2  -1.73407E+2
  -1.96790E+2  -1.35296E+2
   2.73211E+2   2.56032E+0
   8.28445E+1   1.99332E+2
  -4.59571E+1   1.34306E+2
  -1.04450E+2   3.91100E+2
  -9.66967E+1   1.03614E+2
   1.29645E+2  -9.87039E+1
   3.91436E+2  -1.25427E+2
   3.41849E+2   2.84208E+2
   2.75105E+2   2.26189E+2
  -1.41370E+2   9.72610E+1
   1.06286E+2   2.06987E+2
   2.23286E+2   3.89610E+2
  -7.21421E+1   1.48478E+2
  -1.38285E+2  -5.06310E+0
   3.10827E+2  -1.28025E+2
   2.59597E+2   6.84464E+1
   2.88663E+2   3.86465E+2
   2.73008E+1   6.11287E+2
  -2.49244E+2   2.08466E+1
   4.99950E+1  -3.54331E+2
   3.65120E+2  -2.91028E+2
   3.45430E+2   4.25875E+1
   5.99541E+0   3.05490E+2
   2.99681E+2   1.90025E+2
   3.13118E+2  -1.57266E+2
   6.29672E+1  -1.07534E+2
  -1.54796E+2   4.55000E+2
  -2.49397E+2   3.18151E+2
  -2.14778E+2  -3.97730E+2
   2.48242E+2  -1.77620E+2
   2.78348E+2  -2.52388E+2
   1.15551E+2   3.22277E+2
   1.41716E+2  -5.58030E+1
   1.86791E+2  -1.02188E+2
   4.21657E+2  -1.43406E+2
  -2.15929E+2  -2.50242E+2
   1.68526E+2   7.31342E+0
   1.03603E+2  -7.04827E+1
   1.26468E+2  -1.23531E+1
   2.14758E+2   1.39876E+2
   1.05799E+2   2.16458E+2
  -1.04672E+1   2.62162E+2
  -1.68350E+2  -4.16530E+1
  -8.54242E+1  -2.38245E+2
   2.27971E+2  -1.22899E+2
   2.30394E+2   1.15691E+1
  -1.76939E+2   8.35334E+1
   1.24859E+2  -1.43839E+2
   4.48357E+1  -1.64738E+2
   8.35416E+1  -3.50508E+2
  -4.66370E+1   1.56320E+2
   6.72029E+0   1.45519E+2
  -9.41029E-1  -2.08801E+2
   1.02689E+2  -2.72572E+2
   2.22353E+2  -1.89177E+2
  -1.26736E+2  -6.48324E+0
   5.70015E+0  -3.82622E+2
   3.76253E+1  -1.11581E+2
   2.25174E+2  -1.67005E+2
   5.82212E+0   8.61493E+1
  -2.00520E+2  -1.11647E+2
   1.76779E+1   1.21427E+1
   1.85934E+2  -8.50526E+1
   1.94697E+1   1.61605E+2
   7.99791E+1   2.32676E+2
  -1.78174E+2  -2.01465E+2
  -1.62491E+1  -2.89100E+2
   1.18016E+2  -2.32815E+2
   1.22042E+2  -2.82607E+2
   1.26628E+2   2.13260E+2
   2.14051E+2  -1.27880E+2
  -1.99801E+2   4.84751E+0
   2.67127E+2   9.22778E+1
  -1.31938E+2  -5.88398E+1
  -2.39636E+2  -1.79989E+1
  -2.78427E+1   5.88064E+0
   8.81204E+1   1.06181E+2
   1.68529E+2  -4.28641E+1
  -2.29749E+2  -3.64834E+1
  -5.27437E+1  -6.77080E+1
  -1.75121E+1  -7.56824E+1
  -3.55204E+2  -6.52492E+1
   9.80353E+1  -2.92222E+1
   1.21892E+2   1.74470E+2
   1.63239E+2  -6.08968E+1
  -2.82681E+1   1.66137E+2
  -2.39687E+0  -1.98387E+2
   3.96233E+1  -5.29587E+1
   9.89615E+0  -9.22631E+1
   9.34801E+0  -6.53359E+1
  -3.72378E+1  -9.96243E+1
  -2.10319E+1  -8.03493E+0
   1.98124E+2  -1.23611E+2
   1.01988E+2   6.75791E+1
  -5.34986E+1  -1.20517E+2
   1.82529E+2  -1.14043E+2
   1.09082E+2  -1.43581E+2
  -1.81016E+1  -1.24998E+2
   8.88231E+1   4.76057E+1
  -8.65056E+1  -6.49899E+1
   1.56434E+2  -4.31352E+1
   8.70884E+1  -1.20335E+2
   1.32439E+2  -1.46038E+2
  -1.68620E+2  -2.20429E+2
  -1.22979E+2  -1.87181E+2
   3.23272E+1   4.87467E+1
   4.01155E+1   1.19722E+2
  -6.59354E+1   2.67810E+1
  -1.43283E+1  -5.94579E+1
   2.17439E-1  -1.66335E+2
   1.22057E+2  -2.91563E+2
   6.86034E+1   1.72925E+2
  -1.39345E+2  -5.68069E+1
   7.43039E+1   4.15978E+1
   8.68910E+1  -6.73422E+1
   7.55865E+0  -1.19885E+2
  -1.51531E+1  -2.40135E+2
   1.19686E+1  -1.33525E+2
  -2.00656E+2  -6.37678E+1
   2.56245E+1  -3.00316E+2
  -8.72652E+1  -1.83113E+2
  -1.31588E+2   1.62058E+0
  -7.99638E+1  -1.77867E+2
   1.07777E+2  -1.77156E+2
  -5.46743E+0  -1.53847E+2
  -2.32398E+1  -5.36752E+1
  -1.74474E+2  -2.31057E+2
  -2.12879E+2  -9.54856E+1
  -1.18470E+2   8.13915E+1
   9.75745E+1  -1.90131E+2
   9.37109E+1  -1.35044E+2
  -5.63742E+1   3.53313E+1
  -1.37354E+2  -1.77875E+2
   3.51677E+1  -1.42927E+2
   1.57496E+2  -3.04215E+1
  -2.83065E+2   7.26710E+1
  -9.26133E+0   1.18751E+1
   1.13969E+1  -2.56897E+1
   8.22263E+0  -2.51094E+1
   2.61318E+1  -8.78566E+1
  -1.83498E+1  -2.31639E+1
  -1.43689E+2   1.20594E+2
  -2.05865E+2   2.11042E-1
  -1.37284E+2   7.19073E+1
  -6.06450E+0   8.91558E+1
  -1.55346E+2  -6.56425E+1
  -4.96820E+1  -1.48061E+2
   3.68623E+1  -1.68504E+2
  -6.48189E+1  -1.93243E+2
  -1.57809E+2   7.19085E+0
   4.61238E+1  -1.13012E+1
  -2.63395E+2  -1.59834E+2
  -1.35586E+1  -1.04809E+2
  -1.13441E+2  -1.30560E+2
   3.38144E+1   1.38355E+2
  -6.55270E+1   1.13504E+2
  -1.21303E+2   7.16133E+1
  -2.43868E+2  -1.31272E+2
  -8.14362E+1  -8.13961E+1
   2.60428E+0   1.39567E+2
  -8.05634E+1   1.35840E+2
  -2.35752E+2  -7.87103E+1
  -2.26699E+2   1.18440E+2
   1.66322E+2   1.54247E+2
  -2.91092E+1   1.46446E+2
   1.68356E+2   1.71795E+1
  -1.22417E+2   1.34572E+2
   7.94935E+0  -1.12418E+2
  -1.36041E+1  -9.22339E+1
  -4.65312E+1  -1.82410E+1
  -1.60517E+2   3.29826E+1
   5.49942E+1   2.90588E+1
  -5.81797E+1   2.44520E+1
  -2.24147E+2  -1.89488E+1
  -1.09403E+2  -1.66329E+1
  -1.27230E+2  -1.03012E+2
  -2.22200E+2  -2.73724E+2
   2.92526E+2   2.03454E+2
   1.01116E+2   1.77831E+1
  -9.16342E+1   1.74493E+1
  -1.56859E+2   4.33449E+1
   1.04771E+2  -7.20266E+1
  -5.72607E+1   1.31935E+2
   9.87547E+1  -3.11401E+1
   1.41243E+2   2.82866E+0
  -2.93081E+2  -1.09946E+2
  -4.85290E+1   7.67685E+1
   5.84455E+1   1.25399E+2
  -7.13036E+1  -6.87587E+1
  -1.14565E+2  -2.62852E+1
  -7.67386E+1  -1.46328E+2
  -6.66922E+1  -6.37075E+1
  -2.43761E+2  -1.54459E+2
  -1.44422E+2   1.16869E+2
  -1.61938E+0  -2.24384E+2
  -1.98805E+2  -1.13938E+2
  -1.98987E+2  -2.85510E+0
   2.18471E+1   1.12556E+2
   1.05242E+2  -2.31451E+2
  -1.99524E+2  -4.16861E+1
  -1.05613E+1  -1.74272E+2
  -5.90486E+1   1.76188E+2
  -1.98682E+2   3.77657E+1
  -3.50412E+1   5.84773E+1
  -1.87427E+2  -6.76334E+1
  -2.27029E+2  -1.63069E+2
  -4.35082E+0   1.31473E+1
  -3.73651E+2   3.22279E+0
  -1.81640E+0  -3.22873E+1
  -9.27292E+1  -2.96650E+2
   1.21123E+2   7.11719E+1
   1.08877E+2   2.72336E+2
  -6.90544E+1   5.54634E+1
  -2.09626E+2   2.89018E+1
  -1.25431E+2  -6.70393E+1
   1.33481E+2  -2.13356E+1
  -5.29582E+1  -1.98182E+2
  -8.35809E+1  -1.38139E+2
  -8.32988E+1  -1.39800E+2
   3.41730E+1  -3.69800E+1
  -3.80035E+1  -1.33736E+2
  -1.70455E+2   7.75803E+1
   1.21664E+2  -1.47415E+2
   9.35824E+1  -1.69813E+2
  -3.07705E+1  -5.93398E+1
   2.43020E+2  -1.46515E+2
  -2.29264E+2   2.29513E+2
  -1.28304E+1   1.30409E+2
  -1.25736E+2  -6.81036E+1
   9.03722E+1   1.29002E+2
   1.07457E+2  -5.81441E+1
  -2.93715E+1  -8.33324E+1
   1.43575E+2  -1.82817E+1
   2.99302E+0   1.96631E+2
  -1.46564E+1  -4.02871E+1
  -5.01776E+1   9.44168E+1
  -8.12922E+1   3.48130E+2
  -4.80571E+1  -2.62440E+2
  -6.91500E+1  -1.07218E+2
   1.49789E+2  -1.51876E+2
   2.43196E+2   1.45996E+2
   7.33196E+1  -1.12958E+2
  -4.96528E+1  -3.41472E+2
