 LCModel (Version 6.3-1N) Copyright: S.W. Provencher.          Ref.: Magn. Reson. Med. 30:672-679 (1993).                
 Slice_N1@8_17  28-Feb-2025 11:44:47
 27 lines in following concentration table = NCONC+1
    Conc.  %SD /Cr+PCr  Metabolite                                         
 3.10E-04   5% 2.7E-04 Mac                                                 
    9.331  13%   8.000 Cr                                                  
    0.000 999%   0.000 PCr                                                 
    9.199  17%   7.886 Ins                                                 
    8.721  17%   7.477 NAA                                                 
    8.919  21%   7.647 Tau                                                 
    0.000 999%   0.000 PCho                                                
    2.863  17%   2.455 GPC                                                 
   11.004  14%   9.434 Glu                                                 
   10.665  14%   9.144 Gln                                                 
    9.692  12%   8.309 Ala                                                 
    3.638  65%   3.119 Asc                                                 
    5.138  32%   4.405 Asp                                                 
    2.197  43%   1.883 GABA                                                
    0.736 160%   0.631 Glc                                                 
    2.234  46%   1.915 GSH                                                 
    1.806  64%   1.549 Lac                                                 
    5.520  21%   4.733 NAAG                                                
    1.238 153%   1.061 PE                                                  
    2.863  17%   2.455 GPC+PCho                                            
   14.241   8%  12.210 NAA+NAAG                                            
   21.669  10%  18.578 Glu+Gln                                             
    9.331  13%   8.000 Cr+PCr                                              
   14.241   8%  12.210 NAA+NAAG                                            
    9.331  13%   8.000 Cr+PCr                                              
   21.669  10%  18.578 Glu+Gln                                             
   6 lines in following misc. output table
  FWHM = 0.081 ppm    S/N =   3                                            
  Data shift = 0.008 ppm                                                   
  Ph:-150 deg       0.0 deg/ppm                                            
  alphaB,S = 5.7E-01,   2.3E+02                                            
   19 spline knots.   Ns =11(1)                                            
  (12) 3 infls.   (11) 1 extrs.                                            
  480 points on ppm-axis = NY
      4.100000     4.091866     4.083733     4.075600     4.067466     4.059333     4.051199     4.043066     4.034933     4.026799
      4.018666     4.010532     4.002399     3.994265     3.986132     3.977998     3.969864     3.961731     3.953597     3.945463
      3.937330     3.929196     3.921062     3.912929     3.904795     3.896662     3.888528     3.880394     3.872261     3.864127
      3.855993     3.847860     3.839726     3.831592     3.823459     3.815325     3.807191     3.799058     3.790924     3.782790
      3.774657     3.766523     3.758389     3.750256     3.742122     3.733989     3.725855     3.717721     3.709588     3.701454
      3.693320     3.685187     3.677053     3.668919     3.660786     3.652652     3.644518     3.636385     3.628251     3.620117
      3.611984     3.603850     3.595716     3.587583     3.579449     3.571316     3.563182     3.555048     3.546915     3.538781
      3.530647     3.522514     3.514380     3.506246     3.498113     3.489979     3.481845     3.473712     3.465578     3.457444
      3.449311     3.441177     3.433043     3.424910     3.416776     3.408643     3.400509     3.392375     3.384242     3.376108
      3.367974     3.359841     3.351707     3.343573     3.335440     3.327306     3.319172     3.311039     3.302905     3.294771
      3.286638     3.278504     3.270370     3.262237     3.254103     3.245970     3.237836     3.229702     3.221569     3.213435
      3.205301     3.197168     3.189034     3.180900     3.172767     3.164633     3.156499     3.148366     3.140232     3.132098
      3.123965     3.115831     3.107697     3.099564     3.091430     3.083297     3.075163     3.067029     3.058896     3.050762
      3.042628     3.034495     3.026361     3.018227     3.010094     3.001960     2.993826     2.985693     2.977559     2.969425
      2.961292     2.953158     2.945024     2.936891     2.928757     2.920624     2.912490     2.904356     2.896223     2.888089
      2.879955     2.871822     2.863688     2.855554     2.847421     2.839287     2.831153     2.823020     2.814886     2.806752
      2.798619     2.790485     2.782351     2.774218     2.766084     2.757951     2.749817     2.741683     2.733550     2.725416
      2.717282     2.709149     2.701015     2.692881     2.684748     2.676614     2.668480     2.660347     2.652213     2.644079
      2.635946     2.627812     2.619678     2.611545     2.603411     2.595278     2.587144     2.579010     2.570877     2.562743
      2.554609     2.546476     2.538342     2.530208     2.522075     2.513941     2.505807     2.497674     2.489540     2.481406
      2.473273     2.465139     2.457006     2.448872     2.440738     2.432605     2.424471     2.416337     2.408204     2.400070
      2.391936     2.383803     2.375669     2.367535     2.359402     2.351268     2.343134     2.335001     2.326867     2.318733
      2.310600     2.302466     2.294333     2.286199     2.278065     2.269932     2.261798     2.253664     2.245531     2.237397
      2.229263     2.221130     2.212996     2.204862     2.196729     2.188595     2.180461     2.172328     2.164194     2.156060
      2.147927     2.139793     2.131660     2.123526     2.115392     2.107259     2.099125     2.090991     2.082858     2.074724
      2.066590     2.058457     2.050323     2.042189     2.034056     2.025922     2.017788     2.009655     2.001521     1.993387
      1.985254     1.977120     1.968987     1.960853     1.952719     1.944586     1.936452     1.928318     1.920185     1.912051
      1.903917     1.895784     1.887650     1.879516     1.871383     1.863249     1.855115     1.846982     1.838848     1.830714
      1.822581     1.814447     1.806314     1.798180     1.790046     1.781913     1.773779     1.765645     1.757512     1.749378
      1.741244     1.733111     1.724977     1.716843     1.708710     1.700576     1.692442     1.684309     1.676175     1.668041
      1.659908     1.651774     1.643641     1.635507     1.627373     1.619240     1.611106     1.602972     1.594839     1.586705
      1.578571     1.570438     1.562304     1.554170     1.546037     1.537903     1.529769     1.521636     1.513502     1.505368
      1.497235     1.489101     1.480968     1.472834     1.464700     1.456567     1.448433     1.440299     1.432166     1.424032
      1.415898     1.407765     1.399631     1.391497     1.383364     1.375230     1.367096     1.358963     1.350829     1.342695
      1.334562     1.326428     1.318295     1.310161     1.302027     1.293894     1.285760     1.277626     1.269493     1.261359
      1.253225     1.245092     1.236958     1.228824     1.220691     1.212557     1.204423     1.196290     1.188156     1.180022
      1.171889     1.163755     1.155622     1.147488     1.139354     1.131221     1.123087     1.114953     1.106820     1.098686
      1.090552     1.082419     1.074285     1.066151     1.058018     1.049884     1.041750     1.033617     1.025483     1.017349
      1.009216     1.001082     0.992949     0.984815     0.976681     0.968548     0.960414     0.952280     0.944147     0.936013
      0.927879     0.919746     0.911612     0.903478     0.895345     0.887211     0.879077     0.870944     0.862810     0.854676
      0.846543     0.838409     0.830276     0.822142     0.814008     0.805875     0.797741     0.789607     0.781474     0.773340
      0.765206     0.757073     0.748939     0.740805     0.732672     0.724538     0.716404     0.708271     0.700137     0.692003
      0.683870     0.675736     0.667603     0.659469     0.651335     0.643202     0.635068     0.626934     0.618801     0.610667
      0.602533     0.594400     0.586266     0.578132     0.569999     0.561865     0.553731     0.545598     0.537464     0.529330
      0.521197     0.513063     0.504930     0.496796     0.488662     0.480529     0.472395     0.464261     0.456128     0.447994
      0.439861     0.431727     0.423593     0.415460     0.407326     0.399192     0.391059     0.382925     0.374792     0.366658
      0.358524     0.350391     0.342257     0.334124     0.325990     0.317856     0.309723     0.301589     0.293455     0.285322
      0.277188     0.269055     0.260921     0.252787     0.244654     0.236520     0.228386     0.220253     0.212119     0.203986
 NY phased data points follow
  -9.07170E+01 -9.68120E+01 -8.87942E+01 -1.18217E+02 -1.05326E+02 -1.31450E+02 -1.22958E+02 -1.06276E+02 -1.50460E+02 -1.39728E+02
  -1.23530E+02 -1.21317E+02 -1.37438E+02 -1.49274E+02 -1.42132E+02 -1.41368E+02 -1.50037E+02 -1.47524E+02 -1.49860E+02 -1.39956E+02
  -1.22669E+02 -1.27533E+02 -1.07926E+02 -1.10869E+02 -1.14074E+02 -9.59273E+01 -9.78713E+01 -8.69232E+01 -5.97744E+01 -8.59557E+01
  -1.07068E+02 -8.92199E+01 -1.08971E+02 -1.01778E+02 -1.04344E+02 -1.12587E+02 -1.21612E+02 -1.47124E+02 -1.37106E+02 -1.39091E+02
  -1.22465E+02 -1.20651E+02 -1.19158E+02 -9.09996E+01 -8.74715E+01 -6.80252E+01 -4.94432E+01 -6.42411E+01 -5.17794E+01 -4.41138E+01
  -7.32773E+01 -6.20765E+01 -8.30780E+01 -7.80868E+01 -5.83417E+01 -8.72448E+01 -6.71317E+01 -8.06488E+01 -8.16313E+01 -6.80887E+01
  -7.14531E+01 -4.75860E+01 -4.77446E+01 -5.87432E+01 -5.45571E+01 -5.13040E+01 -6.53489E+01 -6.03312E+01 -8.37318E+01 -9.57297E+01
  -5.54206E+01 -6.29784E+01 -8.05592E+01 -4.62201E+01 -4.16353E+01 -4.38928E+01 -1.86121E+01 -5.84483E+01 -4.76539E+01 -3.71641E+01
  -5.63706E+01 -5.36541E+01 -7.45720E+01 -5.04116E+01 -5.49758E+01 -3.63285E+01 -2.80548E+01 -2.41568E+01 -6.63770E+00 -2.24039E+01
   2.19258E+01  1.27931E+01  9.51624E+00  2.90053E+01  2.15259E+01  2.20915E+01 -9.30910E+00 -2.34810E+01 -1.64865E+01 -2.31140E+01
  -1.76859E+01 -2.42161E+01 -7.85229E+01 -7.20068E+01 -7.81691E+01 -1.20715E+02 -1.23267E+02 -1.46083E+02 -1.59204E+02 -1.54057E+02
  -1.53406E+02 -1.49458E+02 -1.11323E+02 -1.13184E+02 -1.20886E+02 -9.50213E+01 -9.64998E+01 -8.15767E+01 -7.02104E+01 -6.30663E+01
  -5.94560E+01 -5.32381E+01 -4.12799E+01 -1.87026E+01 -2.17927E+01 -3.83273E+01 -1.33211E+01 -2.02903E+01 -4.38693E+01 -4.14016E+01
  -4.48320E+01 -8.20863E+01 -9.09402E+01 -9.17311E+01 -1.17130E+02 -1.22762E+02 -1.14014E+02 -1.15223E+02 -1.32757E+02 -1.18058E+02
  -1.23164E+02 -1.21167E+02 -1.14725E+02 -1.27104E+02 -1.25541E+02 -1.30161E+02 -1.11997E+02 -1.25525E+02 -1.15255E+02 -1.01131E+02
  -1.18749E+02 -1.06915E+02 -1.12607E+02 -9.68032E+01 -9.57312E+01 -1.06315E+02 -7.80025E+01 -7.78754E+01 -8.95245E+01 -9.47138E+01
  -8.69372E+01 -6.83019E+01 -8.39744E+01 -8.88827E+01 -8.46843E+01 -8.63496E+01 -7.50468E+01 -7.20727E+01 -7.28486E+01 -7.78765E+01
  -6.29646E+01 -6.59378E+01 -6.76980E+01 -5.09221E+01 -7.39505E+01 -8.62011E+01 -8.08187E+01 -7.65595E+01 -7.74737E+01 -8.47788E+01
  -1.03365E+02 -1.09859E+02 -9.66894E+01 -1.02492E+02 -1.11929E+02 -1.20120E+02 -1.20522E+02 -1.07938E+02 -8.99087E+01 -9.67105E+01
  -9.22672E+01 -9.13126E+01 -1.21831E+02 -9.19886E+01 -7.12816E+01 -8.18598E+01 -8.55752E+01 -8.79570E+01 -6.20770E+01 -6.03195E+01
  -7.25175E+01 -5.87332E+01 -4.45588E+01 -6.76241E+01 -7.52591E+01 -5.92986E+01 -6.03191E+01 -5.30991E+01 -8.14323E+01 -7.34673E+01
  -4.32557E+01 -5.98020E+01 -3.92035E+01 -2.42799E+01 -2.31537E+01 -1.73171E+01 -1.01086E+01 -1.73975E+01 -3.24902E+01 -2.46633E+01
  -5.22179E+01 -6.46434E+01 -7.46306E+01 -8.74771E+01 -6.22629E+01 -8.28945E+01 -9.18894E+01 -7.71012E+01 -8.33359E+01 -8.07442E+01
  -1.08495E+02 -1.29233E+02 -1.19632E+02 -1.14580E+02 -1.22034E+02 -1.35504E+02 -1.13365E+02 -1.14131E+02 -1.31710E+02 -1.26225E+02
  -1.28296E+02 -1.05183E+02 -8.78681E+01 -8.86050E+01 -8.97638E+01 -8.65719E+01 -7.36849E+01 -8.52002E+01 -1.01806E+02 -1.02289E+02
  -8.32602E+01 -6.37443E+01 -6.94172E+01 -5.87770E+01 -4.75494E+01 -3.58195E+01  5.21255E+00  3.19138E+01  6.70101E+01  6.53288E+01
   4.37564E+01  6.43964E+01  6.09935E+01  6.37987E+01  5.18121E+01  2.41440E+01  1.16894E+01  3.76932E+00  2.03534E+01  1.35445E+01
   8.71684E+00  1.45775E+01 -1.11646E+01  4.32351E+00  3.15049E+01  2.32763E+01  1.63689E+01 -1.49131E+00  1.95152E+01  7.08570E+00
  -1.00899E+01  2.42021E+01  1.06926E+01  1.33823E+01  5.65017E+00  8.70315E+00  2.30458E+01  1.34739E+01  1.57178E+01  9.96986E+00
   1.21118E+01  5.33745E+00  1.20144E+01  1.07927E+01  9.45174E+00  1.18762E+00  2.37912E+00  2.32864E+01  2.18633E+01  5.10594E+01
   6.43115E+01  5.27948E+01  7.58971E+01  1.09416E+02  1.02647E+02  1.08158E+02  9.05938E+01  8.35219E+01  1.18666E+02  9.35645E+01
   8.33008E+01  6.53623E+01  7.17221E+01  7.52753E+01  3.54993E+01  3.08788E+01  3.32024E+01  2.68838E+01  5.49621E+00 -2.58676E+00
  -2.53811E+01 -2.57713E+01 -1.38605E+01 -1.91914E+01 -1.84115E+01 -1.73394E+01 -1.85352E+01 -3.95809E+01 -4.07175E+01 -4.80844E+01
  -5.12220E+01 -5.50356E+01 -7.06252E+01 -7.47681E+01 -6.45185E+01 -7.07828E+01 -6.13096E+01 -4.14928E+01 -6.68218E+01 -5.41422E+01
  -6.72145E+01 -4.16692E+01 -1.25915E+01 -3.48169E+01 -2.35154E+01 -3.45648E+01 -1.45105E+01 -1.84100E+01 -1.60376E+01 -2.18098E+01
  -3.39827E+01 -1.55649E+00 -1.27332E+01 -2.65389E+01 -2.63364E+01 -2.30170E+01 -5.91794E+01 -5.63035E+01 -3.03741E+01 -4.09395E+01
  -3.86806E+01 -4.36392E+01 -2.63779E+01 -3.09659E+01 -2.58466E+01 -2.10981E+01 -3.61365E+01 -2.02067E+01 -9.93060E+00  2.90039E+00
   2.39642E+00 -8.45277E+00 -1.99529E+00  2.36919E+01  1.72996E+01  7.51203E+00  3.43154E+01  2.60350E+01  3.37156E+01  6.19054E+01
   5.98551E+01  6.31360E+01  8.61796E+01  8.37804E+01  6.79668E+01  8.12746E+01  7.75687E+01  7.72002E+01  7.39158E+01  5.34823E+01
   3.91607E+01  4.08558E+01  3.96610E+01  2.95457E+00  5.81425E+00  8.82163E+00  2.34927E+00  1.89237E+00 -1.71825E+01 -1.58865E+01
  -2.54583E+01 -3.68788E+01 -5.08647E+01 -4.73732E+01 -4.80147E+01 -5.74512E+01 -3.77432E+01 -4.67041E+01 -5.61757E+01 -5.90938E+01
  -7.85344E+01 -5.94725E+01 -4.86276E+01 -7.03701E+01 -5.21273E+01 -6.25442E+01 -7.17310E+01 -6.65829E+01 -8.25609E+01 -4.97748E+01
  -5.11400E+01 -7.09816E+01 -4.49923E+01 -4.87247E+01 -7.11102E+01 -3.96683E+01 -4.17917E+01 -5.54061E+01 -4.45049E+01 -5.99524E+01
  -5.03306E+01 -4.80513E+01 -4.01148E+01 -5.72902E+01 -5.39245E+01 -5.77601E+01 -7.60332E+01 -4.77006E+01 -5.72424E+01 -4.15236E+01
  -6.28229E+01 -8.13147E+01 -5.67089E+01 -5.15445E+01 -5.84998E+01 -5.67354E+01 -5.05938E+01 -5.64883E+01 -4.66948E+01 -7.15281E+01
  -4.91775E+01 -5.23411E+01 -4.95960E+01 -4.79733E+01 -8.48647E+01 -4.97611E+01 -5.36585E+01 -4.40302E+01 -5.69184E+01 -5.34572E+01
  -4.11625E+01 -6.34262E+01 -7.32034E+01 -7.60035E+01 -3.46756E+01 -5.80169E+01 -6.15934E+01 -4.25504E+01 -4.04206E+01 -4.11331E+01
  -4.38745E+01 -4.13378E+01 -4.93580E+01 -3.52786E+01 -5.54458E+01 -5.54221E+01 -4.80322E+01 -4.66520E+01 -3.31115E+01 -3.10848E+01
 NY points of the fit to the data follow
  -1.19983E+02 -1.20127E+02 -1.20034E+02 -1.19753E+02 -1.19368E+02 -1.19004E+02 -1.18822E+02 -1.18967E+02 -1.19512E+02 -1.20542E+02
  -1.22192E+02 -1.24983E+02 -1.29159E+02 -1.33704E+02 -1.37758E+02 -1.40762E+02 -1.42444E+02 -1.42679E+02 -1.41180E+02 -1.37444E+02
  -1.31252E+02 -1.22871E+02 -1.12958E+02 -1.02444E+02 -9.23905E+01 -8.36894E+01 -7.70246E+01 -7.30116E+01 -7.19122E+01 -7.39652E+01
  -7.89800E+01 -8.59453E+01 -9.38925E+01 -1.01928E+02 -1.09581E+02 -1.16612E+02 -1.22339E+02 -1.25468E+02 -1.25548E+02 -1.22524E+02
  -1.16699E+02 -1.08822E+02 -9.99653E+01 -9.12267E+01 -8.34495E+01 -7.72300E+01 -7.28428E+01 -7.02257E+01 -6.93710E+01 -6.98752E+01
  -7.09212E+01 -7.22072E+01 -7.35360E+01 -7.48313E+01 -7.58626E+01 -7.61927E+01 -7.56815E+01 -7.41802E+01 -7.19933E+01 -6.96805E+01
  -6.75097E+01 -6.56376E+01 -6.43559E+01 -6.37371E+01 -6.37019E+01 -6.41366E+01 -6.47972E+01 -6.52118E+01 -6.47788E+01 -6.30442E+01
  -5.99579E+01 -5.57337E+01 -5.14386E+01 -4.76708E+01 -4.50236E+01 -4.41396E+01 -4.50707E+01 -4.74250E+01 -5.06095E+01 -5.38693E+01
  -5.64096E+01 -5.76117E+01 -5.72711E+01 -5.53477E+01 -5.17493E+01 -4.67926E+01 -4.10396E+01 -3.48314E+01 -2.84925E+01 -2.24052E+01
  -1.66057E+01 -1.10523E+01 -6.10257E+00 -1.73926E+00  1.44000E+00  3.26032E+00  3.49518E+00  2.51245E+00 -1.41710E+00 -9.15674E+00
  -2.05803E+01 -3.49729E+01 -5.12486E+01 -6.83096E+01 -8.51920E+01 -1.00975E+02 -1.14754E+02 -1.25709E+02 -1.33188E+02 -1.36882E+02
  -1.36972E+02 -1.34014E+02 -1.28743E+02 -1.21798E+02 -1.13543E+02 -1.04633E+02 -9.59605E+01 -8.77670E+01 -8.00762E+01 -7.18331E+01
  -6.14520E+01 -4.89973E+01 -3.76284E+01 -2.87557E+01 -2.29660E+01 -2.05491E+01 -2.15334E+01 -2.59432E+01 -3.36680E+01 -4.42850E+01
  -5.69969E+01 -7.07039E+01 -8.41329E+01 -9.61661E+01 -1.06132E+02 -1.13740E+02 -1.19003E+02 -1.22146E+02 -1.23667E+02 -1.24395E+02
  -1.25172E+02 -1.26403E+02 -1.27820E+02 -1.28559E+02 -1.27678E+02 -1.25544E+02 -1.23180E+02 -1.20705E+02 -1.18199E+02 -1.15717E+02
  -1.13152E+02 -1.10482E+02 -1.07803E+02 -1.05251E+02 -1.02943E+02 -1.00897E+02 -9.91015E+01 -9.75699E+01 -9.63722E+01 -9.54923E+01
  -9.47323E+01 -9.36919E+01 -9.21678E+01 -9.02221E+01 -8.79602E+01 -8.55488E+01 -8.29273E+01 -8.00149E+01 -7.69970E+01 -7.42111E+01
  -7.20768E+01 -7.09603E+01 -7.09759E+01 -7.19901E+01 -7.37799E+01 -7.62040E+01 -7.91924E+01 -8.25776E+01 -8.60890E+01 -8.94649E+01
  -9.24461E+01 -9.50443E+01 -9.73400E+01 -9.91622E+01 -1.00194E+02 -1.00276E+02 -9.96626E+01 -9.85864E+01 -9.72150E+01 -9.56783E+01
  -9.39108E+01 -9.19456E+01 -8.97090E+01 -8.70810E+01 -8.40237E+01 -8.05245E+01 -7.65693E+01 -7.23338E+01 -6.80653E+01 -6.40999E+01
  -6.08373E+01 -5.86515E+01 -5.76760E+01 -5.80530E+01 -5.95498E+01 -6.15832E+01 -6.37204E+01 -6.50920E+01 -6.51792E+01 -6.38374E+01
  -6.10294E+01 -5.68660E+01 -5.17481E+01 -4.62424E+01 -4.10473E+01 -3.67356E+01 -3.36445E+01 -3.20463E+01 -3.20404E+01 -3.35266E+01
  -3.63832E+01 -4.06166E+01 -4.61112E+01 -5.28310E+01 -6.07804E+01 -6.96635E+01 -7.92290E+01 -8.92434E+01 -9.91559E+01 -1.08375E+02
  -1.16745E+02 -1.23556E+02 -1.28728E+02 -1.32085E+02 -1.33512E+02 -1.33129E+02 -1.30994E+02 -1.27345E+02 -1.22590E+02 -1.17060E+02
  -1.11393E+02 -1.06306E+02 -1.02489E+02 -9.93087E+01 -9.65224E+01 -9.45473E+01 -9.40417E+01 -9.35462E+01 -9.16073E+01 -8.70546E+01
  -7.94766E+01 -6.89645E+01 -5.59482E+01 -4.11437E+01 -2.54354E+01 -9.60723E+00  5.27046E+00  1.83503E+01  2.87953E+01  3.62360E+01
   4.08579E+01  4.31355E+01  4.36778E+01  4.29755E+01  4.13941E+01  3.94336E+01  3.77654E+01  3.73345E+01  3.76600E+01  3.77425E+01
   3.71407E+01  3.68705E+01  3.69713E+01  3.72621E+01  3.75530E+01  3.76926E+01  3.75705E+01  3.71154E+01  3.63147E+01  3.51633E+01
   3.36652E+01  3.18408E+01  2.97105E+01  2.73493E+01  2.48256E+01  2.22483E+01  1.97429E+01  1.74128E+01  1.54153E+01  1.38610E+01
   1.28426E+01  1.24056E+01  1.25479E+01  1.32386E+01  1.44168E+01  1.60121E+01  1.79532E+01  2.01820E+01  2.26406E+01  2.52927E+01
   2.81197E+01  3.11100E+01  3.42539E+01  3.75304E+01  4.09115E+01  4.43552E+01  4.78303E+01  5.13373E+01  5.49076E+01  5.86037E+01
   6.23410E+01  6.50303E+01  6.61631E+01  6.47288E+01  6.01323E+01  5.24053E+01  4.18417E+01  2.89010E+01  1.42189E+01 -1.38353E+00
  -1.69324E+01 -3.13373E+01 -4.36381E+01 -5.31896E+01 -5.97384E+01 -6.34490E+01 -6.47783E+01 -6.43329E+01 -6.27458E+01 -6.05328E+01
  -5.81038E+01 -5.55974E+01 -5.28628E+01 -4.97310E+01 -4.62147E+01 -4.28270E+01 -3.95747E+01 -3.70266E+01 -3.52414E+01 -3.40273E+01
  -3.32618E+01 -3.28645E+01 -3.27772E+01 -3.29670E+01 -3.34216E+01 -3.41193E+01 -3.50278E+01 -3.60939E+01 -3.72469E+01 -3.84026E+01
  -3.94391E+01 -4.02114E+01 -4.05327E+01 -4.02494E+01 -3.93540E+01 -3.78754E+01 -3.59146E+01 -3.36462E+01 -3.11409E+01 -2.84574E+01
  -2.56336E+01 -2.26899E+01 -1.96046E+01 -1.63669E+01 -1.29633E+01 -9.36529E+00 -5.52542E+00 -1.40742E+00  3.03539E+00  7.85830E+00
   1.31087E+01  1.88248E+01  2.50166E+01  3.16374E+01  3.85836E+01  4.56343E+01  5.24953E+01  5.88201E+01  6.42776E+01  6.85805E+01
   7.15051E+01  7.29229E+01  7.28010E+01  7.11861E+01  6.81993E+01  6.40285E+01  5.88857E+01  5.29779E+01  4.65051E+01  3.96457E+01
   3.25197E+01  2.52153E+01  1.78149E+01  1.04204E+01  3.15209E+00 -3.84131E+00 -1.04014E+01 -1.63902E+01 -2.17093E+01 -2.63367E+01
  -3.03094E+01 -3.37112E+01 -3.66247E+01 -3.91292E+01 -4.12870E+01 -4.31371E+01 -4.46982E+01 -4.59843E+01 -4.70244E+01 -4.78506E+01
  -4.85087E+01 -4.90300E+01 -4.94450E+01 -4.97785E+01 -5.00610E+01 -5.02996E+01 -5.04958E+01 -5.06467E+01 -5.07578E+01 -5.08400E+01
  -5.09022E+01 -5.09583E+01 -5.10046E+01 -5.10417E+01 -5.10699E+01 -5.10909E+01 -5.11015E+01 -5.11011E+01 -5.10939E+01 -5.10799E+01
  -5.10558E+01 -5.10185E+01 -5.09829E+01 -5.09549E+01 -5.09323E+01 -5.09179E+01 -5.09163E+01 -5.09313E+01 -5.09685E+01 -5.10196E+01
  -5.10749E+01 -5.11246E+01 -5.11653E+01 -5.11951E+01 -5.12200E+01 -5.12451E+01 -5.12701E+01 -5.12930E+01 -5.13169E+01 -5.13487E+01
  -5.13953E+01 -5.14623E+01 -5.15535E+01 -5.16679E+01 -5.18075E+01 -5.19621E+01 -5.21318E+01 -5.23111E+01 -5.25039E+01 -5.27148E+01
  -5.29422E+01 -5.31897E+01 -5.34707E+01 -5.37898E+01 -5.41519E+01 -5.45664E+01 -5.50455E+01 -5.55847E+01 -5.61870E+01 -5.68366E+01
  -5.75206E+01 -5.82201E+01 -5.89305E+01 -5.96477E+01 -6.03685E+01 -6.10978E+01 -6.18532E+01 -6.26465E+01 -6.34821E+01 -6.43613E+01
 NY background values follow
    -8.577E+01   -8.552E+01   -8.528E+01   -8.503E+01   -8.478E+01   -8.453E+01   -8.429E+01   -8.404E+01   -8.379E+01   -8.354E+01
    -8.330E+01   -8.305E+01   -8.280E+01   -8.255E+01   -8.231E+01   -8.206E+01   -8.181E+01   -8.156E+01   -8.131E+01   -8.106E+01
    -8.082E+01   -8.057E+01   -8.032E+01   -8.007E+01   -7.982E+01   -7.957E+01   -7.932E+01   -7.908E+01   -7.883E+01   -7.858E+01
    -7.833E+01   -7.808E+01   -7.783E+01   -7.758E+01   -7.733E+01   -7.708E+01   -7.683E+01   -7.658E+01   -7.633E+01   -7.608E+01
    -7.583E+01   -7.558E+01   -7.533E+01   -7.508E+01   -7.483E+01   -7.459E+01   -7.434E+01   -7.409E+01   -7.384E+01   -7.359E+01
    -7.334E+01   -7.309E+01   -7.285E+01   -7.260E+01   -7.235E+01   -7.211E+01   -7.186E+01   -7.161E+01   -7.137E+01   -7.112E+01
    -7.088E+01   -7.063E+01   -7.039E+01   -7.015E+01   -6.990E+01   -6.966E+01   -6.942E+01   -6.918E+01   -6.894E+01   -6.870E+01
    -6.846E+01   -6.822E+01   -6.798E+01   -6.774E+01   -6.750E+01   -6.726E+01   -6.703E+01   -6.679E+01   -6.656E+01   -6.632E+01
    -6.609E+01   -6.585E+01   -6.562E+01   -6.539E+01   -6.516E+01   -6.493E+01   -6.469E+01   -6.447E+01   -6.424E+01   -6.401E+01
    -6.378E+01   -6.355E+01   -6.333E+01   -6.310E+01   -6.288E+01   -6.265E+01   -6.243E+01   -6.221E+01   -6.199E+01   -6.177E+01
    -6.155E+01   -6.133E+01   -6.111E+01   -6.089E+01   -6.067E+01   -6.046E+01   -6.024E+01   -6.003E+01   -5.981E+01   -5.960E+01
    -5.939E+01   -5.918E+01   -5.897E+01   -5.876E+01   -5.855E+01   -5.834E+01   -5.813E+01   -5.792E+01   -5.772E+01   -5.751E+01
    -5.731E+01   -5.710E+01   -5.690E+01   -5.670E+01   -5.650E+01   -5.630E+01   -5.610E+01   -5.590E+01   -5.570E+01   -5.550E+01
    -5.531E+01   -5.511E+01   -5.492E+01   -5.472E+01   -5.453E+01   -5.434E+01   -5.415E+01   -5.396E+01   -5.377E+01   -5.358E+01
    -5.339E+01   -5.321E+01   -5.302E+01   -5.284E+01   -5.266E+01   -5.248E+01   -5.229E+01   -5.212E+01   -5.194E+01   -5.176E+01
    -5.158E+01   -5.141E+01   -5.123E+01   -5.106E+01   -5.089E+01   -5.072E+01   -5.055E+01   -5.038E+01   -5.021E+01   -5.005E+01
    -4.988E+01   -4.972E+01   -4.955E+01   -4.939E+01   -4.923E+01   -4.907E+01   -4.891E+01   -4.875E+01   -4.860E+01   -4.844E+01
    -4.828E+01   -4.813E+01   -4.798E+01   -4.782E+01   -4.767E+01   -4.752E+01   -4.737E+01   -4.722E+01   -4.708E+01   -4.693E+01
    -4.678E+01   -4.664E+01   -4.649E+01   -4.635E+01   -4.621E+01   -4.607E+01   -4.593E+01   -4.579E+01   -4.565E+01   -4.551E+01
    -4.537E+01   -4.524E+01   -4.510E+01   -4.497E+01   -4.483E+01   -4.470E+01   -4.457E+01   -4.443E+01   -4.430E+01   -4.417E+01
    -4.405E+01   -4.392E+01   -4.379E+01   -4.366E+01   -4.354E+01   -4.341E+01   -4.329E+01   -4.317E+01   -4.304E+01   -4.292E+01
    -4.280E+01   -4.268E+01   -4.256E+01   -4.244E+01   -4.232E+01   -4.221E+01   -4.209E+01   -4.197E+01   -4.186E+01   -4.175E+01
    -4.163E+01   -4.152E+01   -4.141E+01   -4.130E+01   -4.119E+01   -4.108E+01   -4.097E+01   -4.086E+01   -4.075E+01   -4.064E+01
    -4.054E+01   -4.043E+01   -4.033E+01   -4.023E+01   -4.012E+01   -4.002E+01   -3.992E+01   -3.982E+01   -3.972E+01   -3.962E+01
    -3.952E+01   -3.942E+01   -3.932E+01   -3.923E+01   -3.913E+01   -3.904E+01   -3.894E+01   -3.885E+01   -3.875E+01   -3.866E+01
    -3.857E+01   -3.848E+01   -3.839E+01   -3.829E+01   -3.820E+01   -3.811E+01   -3.802E+01   -3.794E+01   -3.785E+01   -3.776E+01
    -3.767E+01   -3.758E+01   -3.750E+01   -3.741E+01   -3.732E+01   -3.724E+01   -3.715E+01   -3.707E+01   -3.698E+01   -3.690E+01
    -3.681E+01   -3.673E+01   -3.664E+01   -3.656E+01   -3.647E+01   -3.639E+01   -3.631E+01   -3.622E+01   -3.614E+01   -3.606E+01
    -3.598E+01   -3.590E+01   -3.582E+01   -3.574E+01   -3.566E+01   -3.558E+01   -3.550E+01   -3.543E+01   -3.535E+01   -3.527E+01
    -3.520E+01   -3.513E+01   -3.505E+01   -3.498E+01   -3.491E+01   -3.484E+01   -3.477E+01   -3.470E+01   -3.464E+01   -3.457E+01
    -3.451E+01   -3.444E+01   -3.438E+01   -3.432E+01   -3.426E+01   -3.420E+01   -3.414E+01   -3.408E+01   -3.403E+01   -3.397E+01
    -3.392E+01   -3.387E+01   -3.382E+01   -3.377E+01   -3.372E+01   -3.367E+01   -3.362E+01   -3.357E+01   -3.353E+01   -3.349E+01
    -3.344E+01   -3.340E+01   -3.336E+01   -3.332E+01   -3.328E+01   -3.324E+01   -3.320E+01   -3.317E+01   -3.313E+01   -3.310E+01
    -3.306E+01   -3.303E+01   -3.300E+01   -3.297E+01   -3.294E+01   -3.291E+01   -3.288E+01   -3.285E+01   -3.282E+01   -3.279E+01
    -3.277E+01   -3.274E+01   -3.272E+01   -3.269E+01   -3.267E+01   -3.264E+01   -3.262E+01   -3.259E+01   -3.257E+01   -3.255E+01
    -3.252E+01   -3.250E+01   -3.248E+01   -3.246E+01   -3.243E+01   -3.241E+01   -3.239E+01   -3.236E+01   -3.234E+01   -3.232E+01
    -3.229E+01   -3.227E+01   -3.224E+01   -3.222E+01   -3.219E+01   -3.217E+01   -3.214E+01   -3.212E+01   -3.209E+01   -3.206E+01
    -3.204E+01   -3.201E+01   -3.198E+01   -3.195E+01   -3.192E+01   -3.189E+01   -3.186E+01   -3.183E+01   -3.180E+01   -3.177E+01
    -3.174E+01   -3.171E+01   -3.168E+01   -3.165E+01   -3.161E+01   -3.158E+01   -3.154E+01   -3.151E+01   -3.147E+01   -3.144E+01
    -3.140E+01   -3.136E+01   -3.133E+01   -3.129E+01   -3.125E+01   -3.121E+01   -3.117E+01   -3.113E+01   -3.109E+01   -3.104E+01
    -3.100E+01   -3.096E+01   -3.091E+01   -3.087E+01   -3.082E+01   -3.078E+01   -3.073E+01   -3.068E+01   -3.063E+01   -3.058E+01
    -3.053E+01   -3.048E+01   -3.043E+01   -3.038E+01   -3.032E+01   -3.027E+01   -3.021E+01   -3.016E+01   -3.010E+01   -3.004E+01
    -2.999E+01   -2.993E+01   -2.987E+01   -2.980E+01   -2.974E+01   -2.968E+01   -2.962E+01   -2.955E+01   -2.949E+01   -2.942E+01
    -2.936E+01   -2.929E+01   -2.922E+01   -2.915E+01   -2.908E+01   -2.901E+01   -2.894E+01   -2.887E+01   -2.880E+01   -2.872E+01
    -2.865E+01   -2.857E+01   -2.850E+01   -2.842E+01   -2.835E+01   -2.827E+01   -2.819E+01   -2.812E+01   -2.804E+01   -2.796E+01
    -2.788E+01   -2.780E+01   -2.772E+01   -2.763E+01   -2.755E+01   -2.747E+01   -2.739E+01   -2.730E+01   -2.722E+01   -2.714E+01
    -2.705E+01   -2.697E+01   -2.688E+01   -2.680E+01   -2.671E+01   -2.662E+01   -2.654E+01   -2.645E+01   -2.637E+01   -2.628E+01
    -2.619E+01   -2.610E+01   -2.602E+01   -2.593E+01   -2.584E+01   -2.576E+01   -2.567E+01   -2.558E+01   -2.549E+01   -2.541E+01
 Mac      Conc. = 3.10E-04
  -1.09367E+02 -1.10247E+02 -1.11181E+02 -1.12184E+02 -1.13220E+02 -1.14197E+02 -1.15033E+02 -1.15650E+02 -1.15966E+02 -1.15925E+02
  -1.15500E+02 -1.14682E+02 -1.13479E+02 -1.11922E+02 -1.10064E+02 -1.07970E+02 -1.05717E+02 -1.03394E+02 -1.01081E+02 -9.88328E+01
  -9.66884E+01 -9.46590E+01 -9.27461E+01 -9.09298E+01 -8.91790E+01 -8.74719E+01 -8.58204E+01 -8.42637E+01 -8.28076E+01 -8.14281E+01
  -8.01119E+01 -7.88130E+01 -7.74889E+01 -7.61310E+01 -7.47659E+01 -7.34374E+01 -7.21919E+01 -7.10775E+01 -7.01190E+01 -6.93368E+01
  -6.87437E+01 -6.83418E+01 -6.81185E+01 -6.80398E+01 -6.80614E+01 -6.81415E+01 -6.82477E+01 -6.83191E+01 -6.82723E+01 -6.80477E+01
  -6.76267E+01 -6.70485E+01 -6.63709E+01 -6.56511E+01 -6.49366E+01 -6.42692E+01 -6.36964E+01 -6.32322E+01 -6.28473E+01 -6.24902E+01
  -6.21094E+01 -6.16434E+01 -6.10494E+01 -6.03021E+01 -5.94053E+01 -5.83925E+01 -5.73160E+01 -5.62376E+01 -5.52227E+01 -5.43377E+01
  -5.36188E+01 -5.30571E+01 -5.26151E+01 -5.22521E+01 -5.19083E+01 -5.15354E+01 -5.10874E+01 -5.05274E+01 -4.98478E+01 -4.90734E+01
  -4.82413E+01 -4.73817E+01 -4.65301E+01 -4.57330E+01 -4.50457E+01 -4.45153E+01 -4.41871E+01 -4.40779E+01 -4.42111E+01 -4.46022E+01
  -4.52545E+01 -4.61793E+01 -4.73975E+01 -4.89608E+01 -5.09161E+01 -5.32852E+01 -5.60499E+01 -5.91458E+01 -6.24734E+01 -6.59036E+01
  -6.92840E+01 -7.24519E+01 -7.52455E+01 -7.75145E+01 -7.91356E+01 -8.00442E+01 -8.02527E+01 -7.98240E+01 -7.88662E+01 -7.74867E+01
