 LCModel (Version 6.3-1N) Copyright: S.W. Provencher.          Ref.: Magn. Reson. Med. 30:672-679 (1993).                
 Slice_N1@17_14  28-Feb-2025 11:37:56
 27 lines in following concentration table = NCONC+1
    Conc.  %SD /Cr+PCr  Metabolite                                         
 2.86E-04   5% 3.1E-04 Mac                                                 
    3.363  28%   3.593 Cr                                                  
    4.125  22%   4.407 PCr                                                 
    7.713  13%   8.240 Ins                                                 
    9.734   8%  10.399 NAA                                                 
    7.375  13%   7.879 Tau                                                 
    0.876  92%   0.936 PCho                                                
    0.589 134%   0.629 GPC                                                 
   11.246  10%  12.016 Glu                                                 
    2.760  29%   2.949 Gln                                                 
    0.000 999%   0.000 Ala                                                 
    2.210  56%   2.361 Asc                                                 
    1.413  67%   1.509 Asp                                                 
    0.646  80%   0.690 GABA                                                
    0.406 160%   0.434 Glc                                                 
    1.154  40%   1.233 GSH                                                 
    1.141  60%   1.219 Lac                                                 
    1.463  37%   1.563 NAAG                                                
    1.772  62%   1.893 PE                                                  
    1.465  19%   1.566 GPC+PCho                                            
   11.196   8%  11.962 NAA+NAAG                                            
   14.007  10%  14.965 Glu+Gln                                             
    7.488  10%   8.000 Cr+PCr                                              
   11.196   8%  11.962 NAA+NAAG                                            
    7.488  10%   8.000 Cr+PCr                                              
   14.007  10%  14.965 Glu+Gln                                             
   6 lines in following misc. output table
  FWHM = 0.016 ppm    S/N =   4                                            
  Data shift = 0.024 ppm                                                   
  Ph:-141 deg       0.0 deg/ppm                                            
  alphaB,S = 1.7E-01,   4.0E-01                                            
   19 spline knots.   Ns = 5(1)                                            
   2 inflections.     1 extrema                                            
  480 points on ppm-axis = NY
      4.100000     4.091866     4.083733     4.075600     4.067466     4.059333     4.051199     4.043066     4.034933     4.026799
      4.018666     4.010532     4.002399     3.994265     3.986132     3.977998     3.969864     3.961731     3.953597     3.945463
      3.937330     3.929196     3.921062     3.912929     3.904795     3.896662     3.888528     3.880394     3.872261     3.864127
      3.855993     3.847860     3.839726     3.831592     3.823459     3.815325     3.807191     3.799058     3.790924     3.782790
      3.774657     3.766523     3.758389     3.750256     3.742122     3.733989     3.725855     3.717721     3.709588     3.701454
      3.693320     3.685187     3.677053     3.668919     3.660786     3.652652     3.644518     3.636385     3.628251     3.620117
      3.611984     3.603850     3.595716     3.587583     3.579449     3.571316     3.563182     3.555048     3.546915     3.538781
      3.530647     3.522514     3.514380     3.506246     3.498113     3.489979     3.481845     3.473712     3.465578     3.457444
      3.449311     3.441177     3.433043     3.424910     3.416776     3.408643     3.400509     3.392375     3.384242     3.376108
      3.367974     3.359841     3.351707     3.343573     3.335440     3.327306     3.319172     3.311039     3.302905     3.294771
      3.286638     3.278504     3.270370     3.262237     3.254103     3.245970     3.237836     3.229702     3.221569     3.213435
      3.205301     3.197168     3.189034     3.180900     3.172767     3.164633     3.156499     3.148366     3.140232     3.132098
      3.123965     3.115831     3.107697     3.099564     3.091430     3.083297     3.075163     3.067029     3.058896     3.050762
      3.042628     3.034495     3.026361     3.018227     3.010094     3.001960     2.993826     2.985693     2.977559     2.969425
      2.961292     2.953158     2.945024     2.936891     2.928757     2.920624     2.912490     2.904356     2.896223     2.888089
      2.879955     2.871822     2.863688     2.855554     2.847421     2.839287     2.831153     2.823020     2.814886     2.806752
      2.798619     2.790485     2.782351     2.774218     2.766084     2.757951     2.749817     2.741683     2.733550     2.725416
      2.717282     2.709149     2.701015     2.692881     2.684748     2.676614     2.668480     2.660347     2.652213     2.644079
      2.635946     2.627812     2.619678     2.611545     2.603411     2.595278     2.587144     2.579010     2.570877     2.562743
      2.554609     2.546476     2.538342     2.530208     2.522075     2.513941     2.505807     2.497674     2.489540     2.481406
      2.473273     2.465139     2.457006     2.448872     2.440738     2.432605     2.424471     2.416337     2.408204     2.400070
      2.391936     2.383803     2.375669     2.367535     2.359402     2.351268     2.343134     2.335001     2.326867     2.318733
      2.310600     2.302466     2.294333     2.286199     2.278065     2.269932     2.261798     2.253664     2.245531     2.237397
      2.229263     2.221130     2.212996     2.204862     2.196729     2.188595     2.180461     2.172328     2.164194     2.156060
      2.147927     2.139793     2.131660     2.123526     2.115392     2.107259     2.099125     2.090991     2.082858     2.074724
      2.066590     2.058457     2.050323     2.042189     2.034056     2.025922     2.017788     2.009655     2.001521     1.993387
      1.985254     1.977120     1.968987     1.960853     1.952719     1.944586     1.936452     1.928318     1.920185     1.912051
      1.903917     1.895784     1.887650     1.879516     1.871383     1.863249     1.855115     1.846982     1.838848     1.830714
      1.822581     1.814447     1.806314     1.798180     1.790046     1.781913     1.773779     1.765645     1.757512     1.749378
      1.741244     1.733111     1.724977     1.716843     1.708710     1.700576     1.692442     1.684309     1.676175     1.668041
      1.659908     1.651774     1.643641     1.635507     1.627373     1.619240     1.611106     1.602972     1.594839     1.586705
      1.578571     1.570438     1.562304     1.554170     1.546037     1.537903     1.529769     1.521636     1.513502     1.505368
      1.497235     1.489101     1.480968     1.472834     1.464700     1.456567     1.448433     1.440299     1.432166     1.424032
      1.415898     1.407765     1.399631     1.391497     1.383364     1.375230     1.367096     1.358963     1.350829     1.342695
      1.334562     1.326428     1.318295     1.310161     1.302027     1.293894     1.285760     1.277626     1.269493     1.261359
      1.253225     1.245092     1.236958     1.228824     1.220691     1.212557     1.204423     1.196290     1.188156     1.180022
      1.171889     1.163755     1.155622     1.147488     1.139354     1.131221     1.123087     1.114953     1.106820     1.098686
      1.090552     1.082419     1.074285     1.066151     1.058018     1.049884     1.041750     1.033617     1.025483     1.017349
      1.009216     1.001082     0.992949     0.984815     0.976681     0.968548     0.960414     0.952280     0.944147     0.936013
      0.927879     0.919746     0.911612     0.903478     0.895345     0.887211     0.879077     0.870944     0.862810     0.854676
      0.846543     0.838409     0.830276     0.822142     0.814008     0.805875     0.797741     0.789607     0.781474     0.773340
      0.765206     0.757073     0.748939     0.740805     0.732672     0.724538     0.716404     0.708271     0.700137     0.692003
      0.683870     0.675736     0.667603     0.659469     0.651335     0.643202     0.635068     0.626934     0.618801     0.610667
      0.602533     0.594400     0.586266     0.578132     0.569999     0.561865     0.553731     0.545598     0.537464     0.529330
      0.521197     0.513063     0.504930     0.496796     0.488662     0.480529     0.472395     0.464261     0.456128     0.447994
      0.439861     0.431727     0.423593     0.415460     0.407326     0.399192     0.391059     0.382925     0.374792     0.366658
      0.358524     0.350391     0.342257     0.334124     0.325990     0.317856     0.309723     0.301589     0.293455     0.285322
      0.277188     0.269055     0.260921     0.252787     0.244654     0.236520     0.228386     0.220253     0.212119     0.203986
 NY phased data points follow
  -6.09058E+01 -8.20014E+01 -7.15018E+01 -6.93739E+01 -7.73856E+01 -6.62469E+01 -6.15444E+01 -5.00887E+01 -6.94654E+01 -7.83868E+01
  -7.59333E+01 -7.39691E+01 -7.95639E+01 -9.51042E+01 -7.90704E+01 -9.33472E+01 -8.66532E+01 -8.86452E+01 -1.05201E+02 -1.04479E+02
  -1.59437E+02 -1.31198E+02 -7.71107E+01 -9.37211E+01 -4.89553E+01  2.68502E+00 -2.24458E+01 -4.79977E+01 -2.85459E+01 -2.05288E+01
  -3.37747E+01 -3.24991E+01 -2.29550E+01 -2.79073E+01 -3.95412E+01 -2.71882E+01 -1.95634E+01 -3.39867E+01 -5.12151E+01 -7.83283E+01
  -8.87532E+01 -9.84424E+01 -1.13467E+02 -8.23110E+01 -6.11471E+01 -5.05445E+01 -2.18480E+01 -3.10264E+00  2.25843E+01  1.59793E+01
   6.66089E+00  1.70366E+01  7.37655E+00  5.66443E-01 -2.14836E+01 -3.80145E+01 -3.84873E+01 -3.95525E+01 -5.75063E+01 -7.95352E+01
  -4.78880E+01 -2.52816E+01 -4.02293E+01 -2.64945E+01  8.81267E+00  2.50145E+01  1.50490E+01 -2.53949E+00 -1.64274E+01 -7.98766E+01
  -1.02306E+02 -4.95892E+01 -6.42647E+01 -6.38163E+01 -2.04875E+01  1.92897E+01  1.99451E+01  1.64123E+01  4.33795E+01  1.21821E+01
   1.53005E+01  2.28783E+01  6.05588E+00 -2.90121E+00 -3.37998E+01 -4.85881E+01 -5.11048E+01 -3.26205E+01 -1.07652E+01  1.15428E+01
   2.07515E+01  3.38504E+01  3.94197E+01  3.43999E+01  4.21913E+01  4.42759E+01  6.15347E+01  6.47277E+01  6.06319E+01  4.90625E+01
   4.97253E+01  4.88373E+01  3.59057E+01  1.44083E+01 -1.31550E+01 -1.97307E+01 -5.65757E+01 -5.84631E+01 -6.45754E+01 -9.22770E+01
  -1.38837E+02 -1.94132E+02 -1.54543E+02 -1.35851E+02 -1.19755E+02 -8.55564E+01 -7.20618E+01 -6.61542E+01 -7.09678E+01 -4.56239E+01
  -4.77233E+01 -3.37297E+01 -9.29551E+00 -1.73098E+01 -6.71615E+00 -1.70871E+00  6.54754E+00  2.17358E+01  4.88536E+01  6.75095E+01
   9.84842E+01  1.39088E+02  5.65210E+01 -7.78872E+01 -1.23211E+02 -1.09482E+02 -1.11726E+02 -1.15872E+02 -1.07961E+02 -1.01472E+02
  -9.21688E+01 -9.47646E+01 -9.56881E+01 -1.11981E+02 -9.60439E+01 -8.73681E+01 -9.99938E+01 -8.00167E+01 -8.52598E+01 -8.29683E+01
  -9.10575E+01 -8.62358E+01 -7.88794E+01 -7.87067E+01 -6.63483E+01 -7.13970E+01 -5.42036E+01 -6.38446E+01 -7.34474E+01 -6.54988E+01
  -5.55879E+01 -5.95707E+01 -6.17372E+01 -4.02635E+01 -4.80305E+01 -4.99615E+01 -5.18750E+01 -5.04951E+01 -4.99088E+01 -3.50518E+01
  -2.37149E+01 -3.45808E+01 -1.31248E+01 -6.10821E+00 -2.10546E+01 -2.57211E+01 -1.60859E+01 -4.32359E+00  3.25303E+00 -2.29387E+01
  -5.45784E+01 -5.70459E+01 -7.11330E+01 -7.72086E+01 -6.88593E+01 -6.77874E+01 -6.86814E+01 -6.24555E+01 -6.79393E+01 -6.02214E+01
  -4.97277E+01 -6.22883E+01 -6.12979E+01 -4.30917E+01 -3.02615E+01 -3.93703E+01 -4.53456E+01 -4.21266E+01 -3.06241E+01 -2.72301E+01
  -4.60557E+01 -4.77566E+01 -3.29456E+01 -3.66156E+01 -3.53122E+01 -4.86201E+01 -5.54024E+01 -4.61347E+01 -7.74348E+01 -7.40095E+01
  -8.84320E+01 -9.12411E+01 -7.21441E+01 -6.91248E+01 -3.12260E+01 -2.27459E+01  2.65121E+01  3.63174E+01  2.54998E+01  3.73546E+01
  -1.50529E+01 -2.29135E+01 -1.33580E+01 -1.85422E+01 -2.45867E+01 -1.31021E+01 -5.92075E+00 -1.78792E+01 -5.55277E+00 -7.31461E+00
  -1.40578E+01 -1.24510E+01 -3.69261E+01 -4.46707E+01 -3.35940E+01 -7.01947E+01 -8.86208E+01 -8.54306E+01 -9.85160E+01 -1.08189E+02
  -1.04024E+02 -9.31315E+01 -8.70341E+01 -7.15814E+01 -6.73570E+01 -5.17008E+01 -3.84718E+01 -3.94932E+01 -5.02894E+01 -6.47239E+01
  -7.95272E+01 -8.25905E+01 -7.31568E+01 -8.43800E+01 -7.70587E+01 -1.14034E+02 -1.68501E+02 -1.17054E+02  6.77386E+01  1.90497E+02
   1.51021E+02  1.37158E+02  1.23355E+02  1.06315E+02  8.87578E+01  7.01003E+01  7.31734E+01  5.95207E+01  6.24141E+01  4.92316E+01
   4.87693E+01  5.07103E+01  5.01659E+01  6.27259E+01  5.50099E+01  5.86261E+01  5.27010E+01  4.91616E+01  5.48661E+01  4.26198E+01
   4.69792E+01  4.56705E+01  3.05001E+01  3.90535E+01  2.81316E+01  2.13239E+01  3.42882E+01  2.11712E+01  1.55026E+01  1.44642E+01
   1.11932E+01  1.07705E+01 -1.05104E+00 -1.58366E+00  2.85867E-01 -1.66178E+01 -2.47013E+01 -2.71906E+01 -4.34251E+01 -5.00896E+01
  -5.07639E+01 -4.88325E+01 -3.11985E+01 -4.15660E+01 -4.92537E+01 -3.93767E+01 -5.34664E+01 -4.04639E+01 -3.37689E+01 -1.85770E+01
  -3.66623E+00 -1.14329E+01  1.19129E+01  3.22553E+00  1.71860E+01  3.53459E+01  3.30946E+01  5.55079E+01  5.16021E+01  5.02957E+01
   7.08666E+01  1.02383E+02  9.42130E+01  8.45484E+01  7.50512E+01  5.28278E+01  6.13080E+01  4.59223E+01  4.76087E+01  4.85064E+01
   4.77007E+01  3.89292E+01  2.99246E+00  6.26753E+00 -1.03527E+00 -1.77858E+00  1.62048E-01  5.31376E+00  2.12731E+01  1.14620E+01
   2.10841E+01  2.27758E+01  1.84280E+01  1.73330E+01  1.59526E+01  1.92074E+01  2.52652E+01  3.34995E+01  2.23165E+01  3.14582E+01
   2.77745E+01  1.72514E+01  1.60453E+01  1.17771E+01  2.42064E+01  8.10116E+00  6.49708E+00  2.06203E+00 -2.39012E+01 -1.86354E+01
  -1.41225E+01 -6.41751E+00 -9.59361E-01 -1.37650E+01 -2.07136E+01 -7.12088E+00  1.34079E+01  1.92395E+01  1.82138E+01  1.40863E+01
   1.38526E+01  1.70578E+01  9.94440E+00  1.82539E+01  1.55734E+01  1.48919E+01  3.28409E+01  3.10721E+01  4.86602E+01  4.27247E+01
   3.84375E+01  5.97561E+01  6.78774E+01  7.96148E+01  7.74141E+01  9.21647E+01  9.52316E+01  1.17071E+02  1.28915E+02  1.09542E+02
   1.25619E+02  1.00372E+02  8.19051E+01  6.51882E+01  4.26931E+01  5.61071E+01  3.67259E+01  2.87583E+01  3.48892E+01  2.14433E+01
   1.53604E+01 -1.15048E+01 -3.17631E+01 -2.67114E+01 -4.20538E+01 -3.69344E+01 -3.86635E+01 -4.96485E+01 -3.43721E+01 -4.00201E+01
  -4.07010E+01 -4.71675E+01 -4.64007E+01 -3.40127E+01 -3.86978E+01 -3.44498E+01 -3.06314E+01 -3.53274E+01 -4.52205E+01 -3.03724E+01
  -2.72633E+01 -4.18684E+01 -3.46998E+01 -2.80136E+01 -2.10162E+01 -3.58595E+01 -4.17690E+01 -2.81358E+01 -2.68952E+01 -3.38327E+01
  -4.92999E+01 -4.37441E+01 -3.72112E+01 -4.36125E+01 -4.10213E+01 -3.40298E+01 -3.28759E+01 -3.94728E+01 -4.31300E+01 -4.16231E+01
  -4.26973E+01 -4.71340E+01 -3.40560E+01 -2.46153E+01 -3.11401E+01 -3.78849E+01 -3.86052E+01 -3.36775E+01 -4.06495E+01 -3.78640E+01
  -3.39321E+01 -3.97979E+01 -3.60522E+01 -1.65900E+01 -1.42101E+01 -4.34250E+01 -3.69251E+01 -2.43052E+01 -3.45362E+01 -3.25188E+01
  -3.47136E+01 -3.04060E+01 -2.57351E+01 -3.22921E+01 -2.67220E+01 -2.84731E+01 -2.39211E+01 -1.33213E+01 -3.24987E+01 -2.35171E+01
  -1.83776E+01 -3.49291E+01 -1.66821E+01 -2.27383E+01 -2.73549E+01 -2.18521E+01 -3.08006E+01 -2.32132E+01 -2.64256E+01 -1.86145E+01
 NY points of the fit to the data follow
  -7.71531E+01 -8.51975E+01 -9.36775E+01 -1.02284E+02 -1.05870E+02 -8.64153E+01 -5.30954E+01 -4.16101E+01 -5.25520E+01 -6.36076E+01
  -7.34632E+01 -8.24071E+01 -8.61595E+01 -8.57339E+01 -8.29637E+01 -7.96267E+01 -8.21534E+01 -8.89901E+01 -9.68105E+01 -1.13085E+02
  -1.34433E+02 -1.24389E+02 -8.44482E+01 -7.18044E+01 -5.43283E+01 -1.03260E+01 -1.28948E+01 -1.93507E+01 -1.13399E+01 -1.40508E+01
  -1.34653E+01 -1.39406E+01 -1.46038E+01 -1.46812E+01 -1.55313E+01 -1.64896E+01 -1.96710E+01 -2.56306E+01 -3.58373E+01 -5.41929E+01
  -8.45306E+01 -1.07249E+02 -1.01885E+02 -8.42595E+01 -6.71798E+01 -4.12507E+01 -1.60068E+01 -2.31329E+00  2.33280E-01  6.44388E+00
   6.43459E+00  3.49812E+00 -7.64979E-02 -4.57753E+00 -1.44754E+01 -3.23805E+01 -4.34297E+01 -4.30592E+01 -5.50549E+01 -7.56223E+01
  -6.11470E+01 -4.00404E+01 -4.69333E+01 -2.68317E+01  9.12061E+00  1.29755E+01  1.26807E+01  9.74800E+00 -1.95913E+01 -6.41306E+01
  -7.88297E+01 -5.74499E+01 -5.20408E+01 -5.07125E+01 -2.06397E+01  1.57490E+00  9.37444E+00  1.75313E+01  2.44044E+01  2.82291E+01
   2.71148E+01  1.63545E+01 -4.79994E+00 -3.16595E+01 -5.88545E+01 -6.64500E+01 -5.65059E+01 -4.35377E+01 -1.71391E+01 -3.14611E+00
   3.33395E+00  1.12472E+01  1.50709E+01  1.95378E+01  2.55879E+01  3.04266E+01  3.45814E+01  4.01481E+01  4.26539E+01  3.67075E+01
   3.93377E+01  4.92923E+01  3.95002E+01  1.49394E+01  3.85028E+00 -1.44169E+01 -4.37976E+01 -4.54961E+01 -4.11285E+01 -7.56473E+01
  -1.41767E+02 -1.90039E+02 -1.52466E+02 -1.17189E+02 -1.06039E+02 -7.94811E+01 -7.03782E+01 -6.32624E+01 -5.64186E+01 -4.99011E+01
  -4.40541E+01 -3.85832E+01 -3.25962E+01 -2.62351E+01 -1.83779E+01 -9.66079E+00  3.97408E-03  2.51895E+01  5.60335E+01  8.07558E+01
   1.09807E+02  1.31533E+02  6.58112E+01 -7.81429E+01 -1.34503E+02 -1.09378E+02 -1.16085E+02 -1.03827E+02 -8.90803E+01 -8.79526E+01
  -8.80681E+01 -8.87795E+01 -8.95114E+01 -8.97542E+01 -8.97492E+01 -9.02294E+01 -8.96087E+01 -8.62354E+01 -8.30789E+01 -7.98480E+01
  -7.65950E+01 -7.39242E+01 -7.13371E+01 -6.99486E+01 -6.78953E+01 -6.48258E+01 -6.22876E+01 -6.14478E+01 -6.10386E+01 -5.96593E+01
  -5.72372E+01 -5.48632E+01 -5.46220E+01 -5.65624E+01 -5.76192E+01 -5.62818E+01 -5.49546E+01 -5.44552E+01 -5.55402E+01 -5.63592E+01
  -5.21383E+01 -3.95876E+01 -2.26944E+01 -1.76798E+01 -3.07561E+01 -3.95768E+01 -2.75086E+01 -1.11342E+01 -1.08934E+01 -2.81085E+01
  -4.69640E+01 -5.37736E+01 -5.72864E+01 -6.25614E+01 -6.30263E+01 -6.40600E+01 -6.44875E+01 -6.36845E+01 -6.22755E+01 -6.23708E+01
  -6.08695E+01 -5.71745E+01 -5.59516E+01 -5.55126E+01 -4.42367E+01 -3.21930E+01 -3.95207E+01 -4.25590E+01 -3.06937E+01 -2.93090E+01
  -3.20948E+01 -3.49789E+01 -3.13043E+01 -2.14936E+01 -2.70552E+01 -3.67138E+01 -4.21710E+01 -4.96825E+01 -6.01596E+01 -7.11688E+01
  -8.21617E+01 -9.00711E+01 -8.81774E+01 -7.40908E+01 -5.36427E+01 -1.79933E+01  2.88843E+01  3.87254E+01  3.51661E+01  3.97829E+01
   7.65403E+00 -7.48018E+00 -6.72387E+00 -9.66148E+00 -3.57654E+00 -8.23281E-01 -7.76213E-01 -2.60920E+00 -1.08019E+01 -1.98381E+01
  -3.01665E+01 -4.27221E+01 -5.48503E+01 -6.49335E+01 -7.57654E+01 -8.68105E+01 -9.32549E+01 -9.80664E+01 -1.01834E+02 -9.88014E+01
  -9.49301E+01 -9.23793E+01 -8.31421E+01 -7.20322E+01 -6.42362E+01 -5.31345E+01 -5.03833E+01 -5.16812E+01 -5.40085E+01 -6.43010E+01
  -6.34166E+01 -6.24601E+01 -7.97649E+01 -9.13242E+01 -8.90495E+01 -1.12263E+02 -1.77506E+02 -1.34558E+02  5.68340E+01  1.47534E+02
   1.16100E+02  1.22247E+02  1.02828E+02  7.81600E+01  7.06545E+01  6.67235E+01  6.24760E+01  5.75865E+01  5.31622E+01  4.97595E+01
   4.71212E+01  4.62205E+01  4.66917E+01  4.77316E+01  4.86635E+01  4.91031E+01  4.96440E+01  4.78859E+01  4.71734E+01  4.64487E+01
   4.48236E+01  4.31059E+01  4.04195E+01  3.85622E+01  3.70450E+01  3.52674E+01  3.28268E+01  3.10006E+01  2.90819E+01  2.64745E+01
   2.35004E+01  1.94666E+01  1.49842E+01  1.08112E+01  5.94831E+00  2.28298E+00  8.09299E-01  8.70980E-01  3.07263E+00  6.09340E+00
   8.90873E+00  1.15795E+01  1.50918E+01  1.84369E+01  2.11060E+01  2.35846E+01  2.59250E+01  2.79805E+01  3.04222E+01  3.37035E+01
   3.71037E+01  3.96563E+01  4.16913E+01  4.35171E+01  4.56932E+01  4.78905E+01  4.86263E+01  4.92911E+01  4.98585E+01  4.86109E+01
   4.63128E+01  4.45755E+01  4.24866E+01  3.93919E+01  3.63820E+01  3.31542E+01  2.87685E+01  2.29505E+01  1.35863E+01  2.27992E+00
  -7.88465E+00 -1.72844E+01 -2.51911E+01 -3.03415E+01 -3.18313E+01 -2.99204E+01 -2.42334E+01 -1.64180E+01 -9.90392E+00 -3.38908E+00
   1.02954E+00  9.39490E-01 -4.69637E+00 -8.80937E+00 -9.52660E+00 -1.03611E+01 -3.59619E+00  4.38758E+00  4.71126E+00  8.68875E+00
   9.52971E+00  8.73741E+00  6.35606E+00  2.97456E+00 -2.38551E+00 -9.01722E+00 -1.35866E+01 -1.59512E+01 -1.70844E+01 -1.63863E+01
  -1.39619E+01 -1.12050E+01 -7.47215E+00 -3.49878E+00  5.92766E-01  4.66829E+00  7.74397E+00  1.07164E+01  1.36401E+01  1.61692E+01
   1.96342E+01  2.23842E+01  2.49765E+01  2.78781E+01  3.07501E+01  3.43106E+01  3.88948E+01  4.35003E+01  4.79350E+01  5.41218E+01
   6.15138E+01  6.78301E+01  7.53375E+01  8.45450E+01  9.46244E+01  1.03846E+02  1.11621E+02  1.15551E+02  1.14075E+02  1.06582E+02
   9.36220E+01  7.95435E+01  6.79116E+01  5.84884E+01  5.10647E+01  4.52843E+01  4.04308E+01  3.27337E+01  2.27166E+01  1.26059E+01
   2.31206E+00 -7.63495E+00 -1.49921E+01 -1.96637E+01 -2.36758E+01 -2.66450E+01 -2.83001E+01 -2.91120E+01 -3.03630E+01 -3.14117E+01
  -3.27578E+01 -3.37309E+01 -3.43833E+01 -3.41323E+01 -3.40483E+01 -3.45658E+01 -3.47352E+01 -3.40904E+01 -3.41534E+01 -3.51247E+01
  -3.51420E+01 -3.40166E+01 -3.38238E+01 -3.46282E+01 -3.44935E+01 -3.40545E+01 -3.42203E+01 -3.45816E+01 -3.46842E+01 -3.40836E+01
  -3.33775E+01 -3.31110E+01 -3.32827E+01 -3.35803E+01 -3.39071E+01 -3.40556E+01 -3.38771E+01 -3.32787E+01 -3.29364E+01 -3.27013E+01
  -3.22687E+01 -3.24378E+01 -3.21549E+01 -3.19402E+01 -3.20696E+01 -3.24876E+01 -3.26148E+01 -3.25300E+01 -3.21555E+01 -3.16903E+01
  -3.17632E+01 -3.13728E+01 -3.15891E+01 -3.19376E+01 -3.13566E+01 -3.09141E+01 -3.07814E+01 -3.03767E+01 -3.02052E+01 -3.01588E+01
  -2.99224E+01 -2.94806E+01 -2.95035E+01 -2.98729E+01 -3.02082E+01 -2.99285E+01 -3.01256E+01 -2.97385E+01 -2.89201E+01 -2.79691E+01
  -2.74831E+01 -2.77150E+01 -2.83696E+01 -2.88289E+01 -2.87451E+01 -2.82137E+01 -2.82376E+01 -2.79136E+01 -2.75514E+01 -2.77304E+01
 NY background values follow
    -4.761E+01   -4.734E+01   -4.707E+01   -4.680E+01   -4.653E+01   -4.626E+01   -4.599E+01   -4.572E+01   -4.545E+01   -4.518E+01
    -4.491E+01   -4.464E+01   -4.436E+01   -4.409E+01   -4.381E+01   -4.354E+01   -4.326E+01   -4.298E+01   -4.270E+01   -4.242E+01
    -4.214E+01   -4.186E+01   -4.157E+01   -4.129E+01   -4.100E+01   -4.071E+01   -4.042E+01   -4.013E+01   -3.984E+01   -3.954E+01
    -3.924E+01   -3.894E+01   -3.864E+01   -3.834E+01   -3.804E+01   -3.773E+01   -3.742E+01   -3.712E+01   -3.681E+01   -3.650E+01
    -3.619E+01   -3.588E+01   -3.557E+01   -3.526E+01   -3.495E+01   -3.464E+01   -3.433E+01   -3.402E+01   -3.371E+01   -3.340E+01
    -3.309E+01   -3.279E+01   -3.248E+01   -3.218E+01   -3.187E+01   -3.157E+01   -3.127E+01   -3.097E+01   -3.068E+01   -3.039E+01
    -3.009E+01   -2.981E+01   -2.952E+01   -2.924E+01   -2.895E+01   -2.868E+01   -2.840E+01   -2.813E+01   -2.786E+01   -2.760E+01
    -2.733E+01   -2.707E+01   -2.682E+01   -2.657E+01   -2.632E+01   -2.608E+01   -2.584E+01   -2.560E+01   -2.537E+01   -2.514E+01
    -2.492E+01   -2.470E+01   -2.449E+01   -2.428E+01   -2.408E+01   -2.388E+01   -2.368E+01   -2.350E+01   -2.331E+01   -2.314E+01
    -2.296E+01   -2.280E+01   -2.263E+01   -2.248E+01   -2.233E+01   -2.218E+01   -2.204E+01   -2.190E+01   -2.177E+01   -2.165E+01
    -2.152E+01   -2.140E+01   -2.129E+01   -2.118E+01   -2.107E+01   -2.097E+01   -2.087E+01   -2.078E+01   -2.068E+01   -2.059E+01
    -2.051E+01   -2.043E+01   -2.035E+01   -2.027E+01   -2.019E+01   -2.012E+01   -2.005E+01   -1.999E+01   -1.992E+01   -1.986E+01
    -1.980E+01   -1.974E+01   -1.968E+01   -1.962E+01   -1.957E+01   -1.951E+01   -1.946E+01   -1.941E+01   -1.936E+01   -1.932E+01
    -1.927E+01   -1.923E+01   -1.918E+01   -1.914E+01   -1.910E+01   -1.906E+01   -1.902E+01   -1.899E+01   -1.895E+01   -1.892E+01
    -1.888E+01   -1.885E+01   -1.882E+01   -1.879E+01   -1.876E+01   -1.873E+01   -1.870E+01   -1.867E+01   -1.865E+01   -1.862E+01
    -1.860E+01   -1.857E+01   -1.855E+01   -1.852E+01   -1.850E+01   -1.848E+01   -1.846E+01   -1.844E+01   -1.842E+01   -1.840E+01
    -1.838E+01   -1.837E+01   -1.835E+01   -1.834E+01   -1.832E+01   -1.831E+01   -1.830E+01   -1.829E+01   -1.828E+01   -1.827E+01
    -1.826E+01   -1.826E+01   -1.825E+01   -1.825E+01   -1.825E+01   -1.825E+01   -1.825E+01   -1.825E+01   -1.825E+01   -1.826E+01
    -1.827E+01   -1.827E+01   -1.828E+01   -1.829E+01   -1.830E+01   -1.832E+01   -1.833E+01   -1.835E+01   -1.836E+01   -1.838E+01
    -1.840E+01   -1.841E+01   -1.843E+01   -1.845E+01   -1.847E+01   -1.850E+01   -1.852E+01   -1.854E+01   -1.856E+01   -1.859E+01
    -1.861E+01   -1.863E+01   -1.866E+01   -1.868E+01   -1.870E+01   -1.873E+01   -1.875E+01   -1.877E+01   -1.880E+01   -1.882E+01
    -1.884E+01   -1.886E+01   -1.889E+01   -1.891E+01   -1.893E+01   -1.895E+01   -1.897E+01   -1.899E+01   -1.902E+01   -1.904E+01
    -1.906E+01   -1.908E+01   -1.910E+01   -1.913E+01   -1.915E+01   -1.918E+01   -1.920E+01   -1.923E+01   -1.925E+01   -1.928E+01
    -1.931E+01   -1.933E+01   -1.936E+01   -1.939E+01   -1.943E+01   -1.946E+01   -1.949E+01   -1.953E+01   -1.957E+01   -1.960E+01
    -1.964E+01   -1.968E+01   -1.973E+01   -1.977E+01   -1.982E+01   -1.986E+01   -1.991E+01   -1.996E+01   -2.000E+01   -2.005E+01
    -2.010E+01   -2.015E+01   -2.021E+01   -2.026E+01   -2.031E+01   -2.036E+01   -2.041E+01   -2.046E+01   -2.052E+01   -2.057E+01
    -2.062E+01   -2.067E+01   -2.072E+01   -2.077E+01   -2.082E+01   -2.087E+01   -2.091E+01   -2.096E+01   -2.100E+01   -2.105E+01
    -2.109E+01   -2.113E+01   -2.117E+01   -2.121E+01   -2.124E+01   -2.128E+01   -2.130E+01   -2.133E+01   -2.135E+01   -2.137E+01
    -2.138E+01   -2.139E+01   -2.139E+01   -2.139E+01   -2.138E+01   -2.137E+01   -2.134E+01   -2.132E+01   -2.128E+01   -2.124E+01
    -2.119E+01   -2.113E+01   -2.106E+01   -2.098E+01   -2.090E+01   -2.080E+01   -2.069E+01   -2.058E+01   -2.045E+01   -2.031E+01
    -2.016E+01   -2.000E+01   -1.983E+01   -1.965E+01   -1.946E+01   -1.926E+01   -1.906E+01   -1.884E+01   -1.862E+01   -1.840E+01
    -1.817E+01   -1.793E+01   -1.769E+01   -1.745E+01   -1.720E+01   -1.695E+01   -1.670E+01   -1.645E+01   -1.620E+01   -1.595E+01
    -1.570E+01   -1.545E+01   -1.520E+01   -1.496E+01   -1.471E+01   -1.448E+01   -1.425E+01   -1.402E+01   -1.380E+01   -1.358E+01
    -1.338E+01   -1.318E+01   -1.298E+01   -1.280E+01   -1.262E+01   -1.245E+01   -1.229E+01   -1.213E+01   -1.199E+01   -1.185E+01
    -1.171E+01   -1.159E+01   -1.147E+01   -1.136E+01   -1.126E+01   -1.116E+01   -1.107E+01   -1.099E+01   -1.092E+01   -1.085E+01
    -1.079E+01   -1.074E+01   -1.070E+01   -1.066E+01   -1.064E+01   -1.062E+01   -1.060E+01   -1.060E+01   -1.060E+01   -1.061E+01
    -1.062E+01   -1.065E+01   -1.068E+01   -1.072E+01   -1.076E+01   -1.081E+01   -1.087E+01   -1.093E+01   -1.100E+01   -1.108E+01
    -1.116E+01   -1.124E+01   -1.133E+01   -1.143E+01   -1.153E+01   -1.163E+01   -1.174E+01   -1.185E+01   -1.197E+01   -1.209E+01
    -1.221E+01   -1.234E+01   -1.246E+01   -1.259E+01   -1.273E+01   -1.286E+01   -1.300E+01   -1.314E+01   -1.328E+01   -1.342E+01
    -1.356E+01   -1.370E+01   -1.385E+01   -1.399E+01   -1.414E+01   -1.428E+01   -1.443E+01   -1.458E+01   -1.472E+01   -1.487E+01
    -1.502E+01   -1.517E+01   -1.531E+01   -1.546E+01   -1.561E+01   -1.576E+01   -1.590E+01   -1.605E+01   -1.620E+01   -1.634E+01
    -1.649E+01   -1.663E+01   -1.678E+01   -1.692E+01   -1.706E+01   -1.720E+01   -1.734E+01   -1.748E+01   -1.762E+01   -1.775E+01
    -1.789E+01   -1.802E+01   -1.815E+01   -1.828E+01   -1.841E+01   -1.854E+01   -1.866E+01   -1.879E+01   -1.891E+01   -1.903E+01
    -1.915E+01   -1.927E+01   -1.939E+01   -1.951E+01   -1.962E+01   -1.973E+01   -1.984E+01   -1.995E+01   -2.006E+01   -2.017E+01
    -2.027E+01   -2.038E+01   -2.048E+01   -2.058E+01   -2.068E+01   -2.078E+01   -2.087E+01   -2.097E+01   -2.106E+01   -2.115E+01
    -2.124E+01   -2.133E+01   -2.142E+01   -2.150E+01   -2.159E+01   -2.167E+01   -2.175E+01   -2.184E+01   -2.192E+01   -2.199E+01
    -2.207E+01   -2.215E+01   -2.223E+01   -2.230E+01   -2.238E+01   -2.245E+01   -2.252E+01   -2.260E+01   -2.267E+01   -2.274E+01
    -2.282E+01   -2.289E+01   -2.296E+01   -2.303E+01   -2.310E+01   -2.317E+01   -2.325E+01   -2.332E+01   -2.339E+01   -2.346E+01
 Mac      Conc. = 2.86E-04
  -6.72558E+01 -6.79883E+01 -6.78187E+01 -6.73870E+01 -6.72712E+01 -6.72166E+01 -6.79338E+01 -6.93957E+01 -7.16673E+01 -7.36801E+01
  -7.50136E+01 -7.50855E+01 -7.43833E+01 -7.40893E+01 -7.44309E+01 -7.57052E+01 -7.87749E+01 -8.18565E+01 -8.08947E+01 -7.41084E+01
  -6.73006E+01 -6.38974E+01 -5.91661E+01 -5.43385E+01 -5.32965E+01 -5.27332E+01 -5.14086E+01 -4.97741E+01 -4.78918E+01 -4.52428E+01
  -4.21138E+01 -4.03724E+01 -3.91391E+01 -3.79039E+01 -3.73856E+01 -3.81170E+01 -3.88162E+01 -3.83095E+01 -3.56514E+01 -3.13778E+01
  -2.86281E+01 -2.85474E+01 -2.95391E+01 -2.91578E+01 -2.75633E+01 -2.52447E+01 -2.29390E+01 -2.23880E+01 -2.25900E+01 -2.31679E+01
  -2.47602E+01 -2.63279E+01 -2.73788E+01 -2.79567E+01 -2.88660E+01 -2.89836E+01 -2.88809E+01 -2.87375E+01 -2.67570E+01 -2.43949E+01
  -2.30363E+01 -2.13077E+01 -1.86511E+01 -1.74864E+01 -1.80327E+01 -1.86727E+01 -2.00216E+01 -2.11606E+01 -2.11573E+01 -2.17027E+01
  -2.23698E+01 -2.12133E+01 -1.73432E+01 -1.32218E+01 -1.09196E+01 -9.34492E+00 -8.52034E+00 -9.14466E+00 -9.87237E+00 -1.10369E+01
  -1.21403E+01 -1.20534E+01 -1.26499E+01 -1.29311E+01 -1.21554E+01 -1.07511E+01 -9.62299E+00 -8.74955E+00 -7.50462E+00 -6.47373E+00
  -5.95076E+00 -5.16299E+00 -4.12301E+00 -3.76668E+00 -3.23984E+00 -3.21647E+00 -4.85746E+00 -7.41506E+00 -1.00602E+01 -1.28822E+01
  -1.49975E+01 -1.57861E+01 -1.68232E+01 -1.89917E+01 -2.19172E+01 -2.58751E+01 -3.24301E+01 -4.10567E+01 -4.99258E+01 -5.52084E+01
