 
 $NMID
 ID=''
 FMTDAT='(2E13.5)'
 TRAMP=   1.00000E+0
 VOLUME=   1.00000E+0
 $END
   5.38665E+5  -1.54021E+5
   1.44627E+6   1.11150E+5
   1.41296E+6  -5.90334E+4
   1.35393E+6  -5.60421E+3
   1.41872E+6  -2.83747E+4
   1.36576E+6  -1.12089E+5
   1.32307E+6  -9.06506E+4
   1.37555E+6  -1.02844E+5
   1.34980E+6  -1.70433E+5
   1.30537E+6  -1.65162E+5
   1.31912E+6  -1.66147E+5
   1.30305E+6  -1.99399E+5
   1.28150E+6  -2.08376E+5
   1.28074E+6  -2.27051E+5
   1.25313E+6  -2.45079E+5
   1.23693E+6  -2.43954E+5
   1.24312E+6  -2.67465E+5
   1.21651E+6  -2.89041E+5
   1.19810E+6  -2.83845E+5
   1.20041E+6  -3.03313E+5
   1.17899E+6  -3.26110E+5
   1.15670E+6  -3.26827E+5
   1.15344E+6  -3.37399E+5
   1.13961E+6  -3.54351E+5
   1.11938E+6  -3.58147E+5
   1.10351E+6  -3.72332E+5
   1.09033E+6  -3.82265E+5
   1.07935E+6  -3.85664E+5
   1.06169E+6  -3.94162E+5
   1.03952E+6  -4.03310E+5
   1.03199E+6  -4.07898E+5
   1.01875E+6  -4.19619E+5
   9.95939E+5  -4.23800E+5
   9.82281E+5  -4.24436E+5
   9.70495E+5  -4.37127E+5
   9.49791E+5  -4.48741E+5
   9.35152E+5  -4.50052E+5
   9.23659E+5  -4.53878E+5
   9.04970E+5  -4.60641E+5
   8.87631E+5  -4.64159E+5
   8.73134E+5  -4.65283E+5
   8.56786E+5  -4.68375E+5
   8.38726E+5  -4.73009E+5
   8.22901E+5  -4.74917E+5
   8.08007E+5  -4.73281E+5
   7.94065E+5  -4.75943E+5
   7.78408E+5  -4.77767E+5
   7.63023E+5  -4.73192E+5
   7.48341E+5  -4.70087E+5
   7.32595E+5  -4.71975E+5
   7.16474E+5  -4.71431E+5
   7.02556E+5  -4.68092E+5
   6.89122E+5  -4.66600E+5
   6.74576E+5  -4.65528E+5
   6.59555E+5  -4.62952E+5
   6.46389E+5  -4.58553E+5
   6.32950E+5  -4.53785E+5
   6.17639E+5  -4.50215E+5
   6.01904E+5  -4.46803E+5
   5.89552E+5  -4.42714E+5
   5.77470E+5  -4.37977E+5
   5.63144E+5  -4.33650E+5
   5.49668E+5  -4.29038E+5
   5.38032E+5  -4.22311E+5
   5.25271E+5  -4.15387E+5
   5.10742E+5  -4.10545E+5
   4.96410E+5  -4.05572E+5
   4.84580E+5  -3.99146E+5
   4.74227E+5  -3.93070E+5
   4.62289E+5  -3.86929E+5
   4.49762E+5  -3.80014E+5
   4.38454E+5  -3.72337E+5
   4.27766E+5  -3.66125E+5
   4.16224E+5  -3.60087E+5
   4.04813E+5  -3.51936E+5
   3.94650E+5  -3.44267E+5
   3.84605E+5  -3.37706E+5
   3.73480E+5  -3.31007E+5
   3.63040E+5  -3.22915E+5
   3.54073E+5  -3.14677E+5
   3.44519E+5  -3.07795E+5
   3.33961E+5  -3.00492E+5
   3.24296E+5  -2.92809E+5
   3.16761E+5  -2.84784E+5
   3.07822E+5  -2.77056E+5
   2.98496E+5  -2.69435E+5
   2.90180E+5  -2.62009E+5
   2.82807E+5  -2.54678E+5
   2.74787E+5  -2.47088E+5
   2.66180E+5  -2.39492E+5
   2.58471E+5  -2.31965E+5
   2.51371E+5  -2.25549E+5
   2.43935E+5  -2.18642E+5
   2.36443E+5  -2.10931E+5
   2.29085E+5  -2.03844E+5
   2.22052E+5  -1.98031E+5
   2.15464E+5  -1.91589E+5
   2.08630E+5  -1.85213E+5
   2.02376E+5  -1.78775E+5
   1.96222E+5  -1.72797E+5
   1.90292E+5  -1.66457E+5
   1.84532E+5  -1.59770E+5
   1.78970E+5  -1.53456E+5
   1.73128E+5  -1.47560E+5
   1.67404E+5  -1.41638E+5
   1.61853E+5  -1.36184E+5
   1.57193E+5  -1.30795E+5
   1.52439E+5  -1.24997E+5
   1.46860E+5  -1.19103E+5
   1.41073E+5  -1.14097E+5
   1.36863E+5  -1.09472E+5
   1.32894E+5  -1.04530E+5
   1.28364E+5  -9.89921E+4
   1.24022E+5  -9.42357E+4
   1.19709E+5  -8.94903E+4
   1.16037E+5  -8.44873E+4
   1.11803E+5  -7.98239E+4
   1.07543E+5  -7.49763E+4
   1.03318E+5  -7.04837E+4
   9.95939E+4  -6.67161E+4
   9.63541E+4  -6.27838E+4
   9.25217E+4  -5.83522E+4
   8.91418E+4  -5.42462E+4
   8.57793E+4  -5.03657E+4
   8.24327E+4  -4.67200E+4
   7.86240E+4  -4.27687E+4
   7.55502E+4  -3.88706E+4
   7.22874E+4  -3.54679E+4
   6.91340E+4  -3.20120E+4
   6.60997E+4  -2.82924E+4
   6.33032E+4  -2.44844E+4
   6.05665E+4  -2.11823E+4
   5.73759E+4  -1.79446E+4
   5.43875E+4  -1.44282E+4
   5.18754E+4  -1.12970E+4
   4.93461E+4  -8.00703E+3
   4.64840E+4  -5.18419E+3
   4.37035E+4  -2.18299E+3
   4.13400E+4   9.38234E+2
   3.91293E+4   3.55908E+3
   3.66291E+4   6.42735E+3
   3.39955E+4   9.14936E+3
   3.15661E+4   1.16437E+4
   2.94743E+4   1.40577E+4
   2.75644E+4   1.68778E+4
   2.52846E+4   1.94616E+4
   2.30669E+4   2.19109E+4
   2.12089E+4   2.42531E+4
   1.91455E+4   2.65903E+4
   1.71876E+4   2.87623E+4
   1.51696E+4   3.11229E+4
   1.36597E+4   3.32195E+4
   1.19878E+4   3.50177E+4
   1.02098E+4   3.72540E+4
   8.41427E+3   3.90638E+4
   6.71270E+3   4.09614E+4
   5.51568E+3   4.28818E+4
   4.16202E+3   4.45692E+4
   2.68580E+3   4.63057E+4
   1.33593E+3   4.78226E+4
  -2.28148E+2   4.93366E+4
  -1.26821E+3   5.08386E+4
  -2.60018E+3   5.22537E+4
  -3.56548E+3   5.35457E+4
  -4.76138E+3   5.45563E+4
  -5.69605E+3   5.60272E+4
  -6.88623E+3   5.71678E+4
  -7.86305E+3   5.84282E+4
  -8.58937E+3   5.96351E+4
  -9.65203E+3   6.06636E+4
  -1.02728E+4   6.14231E+4
  -1.12249E+4   6.20818E+4
  -1.17626E+4   6.30240E+4
  -1.27804E+4   6.39527E+4
  -1.34293E+4   6.45903E+4
  -1.42517E+4   6.52273E+4
  -1.48772E+4   6.57373E+4
  -1.56711E+4   6.65300E+4
  -1.65153E+4   6.66168E+4
  -1.72609E+4   6.69100E+4
  -1.77351E+4   6.72711E+4
  -1.84857E+4   6.76615E+4
  -1.90506E+4   6.78209E+4
  -1.98396E+4   6.80329E+4
  -2.05283E+4   6.78117E+4
  -2.13213E+4   6.79742E+4
  -2.19901E+4   6.80199E+4
  -2.28051E+4   6.81089E+4
  -2.31716E+4   6.80397E+4
  -2.40531E+4   6.80386E+4
  -2.47230E+4   6.81646E+4
  -2.53215E+4   6.78012E+4
  -2.61151E+4   6.76271E+4
  -2.68866E+4   6.71981E+4
  -2.73210E+4   6.69236E+4
  -2.83163E+4   6.67390E+4
  -2.91335E+4   6.64081E+4
  -2.99370E+4   6.57401E+4
  -3.07330E+4   6.56009E+4
  -3.15326E+4   6.52352E+4
  -3.26593E+4   6.45986E+4
  -3.32690E+4   6.39301E+4
  -3.41426E+4   6.33680E+4
  -3.48916E+4   6.33066E+4
  -3.58640E+4   6.26741E+4
  -3.65988E+4   6.21008E+4
  -3.74867E+4   6.16491E+4
  -3.81300E+4   6.09750E+4
  -3.87811E+4   6.04535E+4
  -3.99681E+4   5.96778E+4
  -4.06193E+4   5.89461E+4
  -4.11763E+4   5.86346E+4
  -4.18658E+4   5.78234E+4
  -4.28756E+4   5.71835E+4
  -4.37943E+4   5.67835E+4
  -4.45546E+4   5.59651E+4
  -4.51983E+4   5.49512E+4
  -4.56628E+4   5.45119E+4
  -4.63319E+4   5.37314E+4
  -4.68179E+4   5.32754E+4
  -4.75423E+4   5.26086E+4
  -4.80090E+4   5.20140E+4
  -4.86433E+4   5.14378E+4
  -4.89886E+4   5.04973E+4
  -4.97993E+4   4.97527E+4
  -4.98534E+4   4.92459E+4
  -5.05416E+4   4.86134E+4
  -5.09935E+4   4.78000E+4
  -5.16723E+4   4.72509E+4
  -5.19798E+4   4.64626E+4
  -5.24592E+4   4.57344E+4
  -5.26821E+4   4.51832E+4
  -5.31301E+4   4.47574E+4
  -5.35884E+4   4.41055E+4
  -5.37439E+4   4.32450E+4
  -5.38242E+4   4.26625E+4
  -5.42032E+4   4.24023E+4
  -5.44509E+4   4.16954E+4
  -5.44506E+4   4.06240E+4
  -5.46592E+4   4.00435E+4
  -5.49046E+4   3.95719E+4
  -5.49174E+4   3.91810E+4
  -5.52257E+4   3.83274E+4
  -5.53314E+4   3.77765E+4
  -5.52321E+4   3.69456E+4
  -5.54368E+4   3.66981E+4
  -5.55159E+4   3.58961E+4
  -5.56585E+4   3.51619E+4
  -5.54029E+4   3.45809E+4
  -5.54800E+4   3.39444E+4
  -5.55299E+4   3.35189E+4
  -5.54091E+4   3.29494E+4
  -5.54059E+4   3.21225E+4
  -5.53532E+4   3.16670E+4
  -5.49625E+4   3.07713E+4
  -5.50628E+4   3.04825E+4
  -5.51547E+4   2.96816E+4
  -5.50153E+4   2.90328E+4
  -5.50319E+4   2.84661E+4
  -5.46311E+4   2.76369E+4
  -5.48923E+4   2.68016E+4
  -5.45847E+4   2.64232E+4
  -5.44743E+4   2.55499E+4
  -5.44354E+4   2.48869E+4
  -5.42824E+4   2.46080E+4
  -5.39622E+4   2.38069E+4
  -5.41299E+4   2.32164E+4
  -5.38833E+4   2.23565E+4
  -5.36601E+4   2.18929E+4
  -5.34869E+4   2.09896E+4
  -5.32683E+4   2.07700E+4
  -5.31264E+4   2.02396E+4
  -5.26977E+4   1.93750E+4
  -5.25848E+4   1.87238E+4
  -5.23490E+4   1.83088E+4
  -5.21608E+4   1.74666E+4
  -5.19675E+4   1.72869E+4
  -5.14399E+4   1.62040E+4
  -5.11439E+4   1.56949E+4
  -5.11685E+4   1.52677E+4
  -5.06155E+4   1.47299E+4
  -5.04482E+4   1.41116E+4
  -5.00256E+4   1.36909E+4
  -4.96762E+4   1.30590E+4
  -4.93867E+4   1.22734E+4
  -4.90547E+4   1.19683E+4
  -4.84687E+4   1.15198E+4
  -4.80133E+4   1.11021E+4
  -4.79165E+4   1.09711E+4
  -4.73801E+4   1.01761E+4
  -4.70780E+4   9.72809E+3
  -4.66035E+4   9.52504E+3
  -4.62520E+4   8.89685E+3
  -4.56193E+4   8.65444E+3
  -4.53611E+4   8.24986E+3
  -4.44998E+4   8.02624E+3
  -4.43898E+4   7.38350E+3
  -4.36651E+4   7.04743E+3
  -4.34893E+4   6.79993E+3
  -4.28490E+4   6.38336E+3
  -4.24522E+4   6.03720E+3
  -4.15593E+4   5.94133E+3
  -4.13112E+4   5.63313E+3
  -4.09562E+4   5.12242E+3
  -4.01406E+4   4.69987E+3
  -3.95502E+4   4.61950E+3
  -3.89968E+4   4.25272E+3
  -3.83176E+4   4.01933E+3
  -3.77032E+4   3.68726E+3
  -3.73915E+4   3.57134E+3
  -3.67503E+4   3.44271E+3
  -3.59253E+4   3.24627E+3
  -3.53732E+4   2.95715E+3
  -3.49421E+4   2.67167E+3
  -3.40560E+4   2.46228E+3
  -3.34699E+4   2.28917E+3
  -3.30816E+4   2.08879E+3
  -3.21178E+4   1.92634E+3
  -3.14151E+4   1.64132E+3
  -3.08482E+4   1.46315E+3
  -3.02930E+4   1.26456E+3
  -3.00269E+4   1.32216E+3
  -2.91298E+4   1.11126E+3
  -2.83013E+4   7.82832E+2
  -2.77445E+4   8.91933E+2
  -2.69580E+4   8.26056E+2
  -2.66186E+4   5.70496E+2
  -2.56764E+4   8.79850E+0
  -2.51991E+4   3.59893E+1
  -2.45500E+4   9.73932E+1
  -2.39596E+4  -3.68958E+1
  -2.34329E+4  -2.07393E+1
  -2.27236E+4  -1.85634E+2
  -2.21855E+4  -4.28167E+2
  -2.13993E+4  -3.77634E+2
  -2.09098E+4  -4.75574E+2
  -2.02283E+4  -6.81336E+2
  -1.97152E+4  -9.81630E+2
  -1.89128E+4  -8.41296E+2
  -1.83564E+4  -1.02634E+3
  -1.79051E+4  -1.03092E+3
  -1.74255E+4  -1.19653E+3
  -1.66841E+4  -1.25466E+3
  -1.61523E+4  -1.70445E+3
  -1.53455E+4  -1.39293E+3
  -1.50487E+4  -1.57229E+3
  -1.42363E+4  -1.51545E+3
  -1.37406E+4  -1.75349E+3
  -1.35123E+4  -1.54022E+3
  -1.29954E+4  -1.80251E+3
  -1.22565E+4  -1.77273E+3
  -1.18337E+4  -2.02748E+3
  -1.11760E+4  -2.11294E+3
  -1.05132E+4  -1.89884E+3
  -1.03300E+4  -2.04458E+3
  -9.76907E+3  -1.84097E+3
  -9.45326E+3  -2.00320E+3
  -8.79045E+3  -1.94238E+3
  -8.61366E+3  -2.15305E+3
  -8.22943E+3  -2.14091E+3
  -7.77579E+3  -2.29917E+3
  -7.19845E+3  -2.37039E+3
  -6.58078E+3  -2.13565E+3
  -6.32346E+3  -2.11885E+3
  -5.93427E+3  -1.95686E+3
  -5.75332E+3  -2.30963E+3
  -5.21531E+3  -2.19761E+3
