 LCModel (Version 6.3-1N) Copyright: S.W. Provencher.          Ref.: Magn. Reson. Med. 30:672-679 (1993).                
 Slice_N1@22_13  28-Feb-2025 11:42:19
 27 lines in following concentration table = NCONC+1
    Conc.  %SD /Cr+PCr  Metabolite                                         
 2.45E-04   6% 2.0E-04 Mac                                                 
    9.720  14%   8.000 Cr                                                  
    0.000 999%   0.000 PCr                                                 
    5.402  32%   4.446 Ins                                                 
   11.005  15%   9.058 NAA                                                 
    4.985  48%   4.103 Tau                                                 
    3.810  12%   3.136 PCho                                                
    0.000 999%   0.000 GPC                                                 
   17.864  10%  14.703 Glu                                                 
    3.127  49%   2.574 Gln                                                 
    0.000 999%   0.000 Ala                                                 
    2.114 121%   1.740 Asc                                                 
    2.634  47%   2.168 Asp                                                 
    1.170  62%   0.963 GABA                                                
    1.069  73%   0.880 Glc                                                 
    3.525  26%   2.901 GSH                                                 
   20.127   7%  16.566 Lac                                                 
    1.015 147%   0.835 NAAG                                                
    0.000 999%   0.000 PE                                                  
    3.810  12%   3.136 GPC+PCho                                            
   12.020  10%   9.893 NAA+NAAG                                            
   20.991  11%  17.277 Glu+Gln                                             
    9.720  14%   8.000 Cr+PCr                                              
   12.020  10%   9.893 NAA+NAAG                                            
    9.720  14%   8.000 Cr+PCr                                              
   20.991  11%  17.277 Glu+Gln                                             
   6 lines in following misc. output table
  FWHM = 0.130 ppm    S/N =   2                                            
  Data shift =-0.008 ppm                                                   
  Ph:-125 deg       0.0 deg/ppm                                            
  alphaB,S = 2.2E-01,   1.6E+02                                            
   16 spline knots.   Ns = 7(2)                                            
  (10) 2 infls.   (10) 1 extrs.                                            
  480 points on ppm-axis = NY
      4.100000     4.091866     4.083733     4.075600     4.067466     4.059333     4.051199     4.043066     4.034933     4.026799
      4.018666     4.010532     4.002399     3.994265     3.986132     3.977998     3.969864     3.961731     3.953597     3.945463
      3.937330     3.929196     3.921062     3.912929     3.904795     3.896662     3.888528     3.880394     3.872261     3.864127
      3.855993     3.847860     3.839726     3.831592     3.823459     3.815325     3.807191     3.799058     3.790924     3.782790
      3.774657     3.766523     3.758389     3.750256     3.742122     3.733989     3.725855     3.717721     3.709588     3.701454
      3.693320     3.685187     3.677053     3.668919     3.660786     3.652652     3.644518     3.636385     3.628251     3.620117
      3.611984     3.603850     3.595716     3.587583     3.579449     3.571316     3.563182     3.555048     3.546915     3.538781
      3.530647     3.522514     3.514380     3.506246     3.498113     3.489979     3.481845     3.473712     3.465578     3.457444
      3.449311     3.441177     3.433043     3.424910     3.416776     3.408643     3.400509     3.392375     3.384242     3.376108
      3.367974     3.359841     3.351707     3.343573     3.335440     3.327306     3.319172     3.311039     3.302905     3.294771
      3.286638     3.278504     3.270370     3.262237     3.254103     3.245970     3.237836     3.229702     3.221569     3.213435
      3.205301     3.197168     3.189034     3.180900     3.172767     3.164633     3.156499     3.148366     3.140232     3.132098
      3.123965     3.115831     3.107697     3.099564     3.091430     3.083297     3.075163     3.067029     3.058896     3.050762
      3.042628     3.034495     3.026361     3.018227     3.010094     3.001960     2.993826     2.985693     2.977559     2.969425
      2.961292     2.953158     2.945024     2.936891     2.928757     2.920624     2.912490     2.904356     2.896223     2.888089
      2.879955     2.871822     2.863688     2.855554     2.847421     2.839287     2.831153     2.823020     2.814886     2.806752
      2.798619     2.790485     2.782351     2.774218     2.766084     2.757951     2.749817     2.741683     2.733550     2.725416
      2.717282     2.709149     2.701015     2.692881     2.684748     2.676614     2.668480     2.660347     2.652213     2.644079
      2.635946     2.627812     2.619678     2.611545     2.603411     2.595278     2.587144     2.579010     2.570877     2.562743
      2.554609     2.546476     2.538342     2.530208     2.522075     2.513941     2.505807     2.497674     2.489540     2.481406
      2.473273     2.465139     2.457006     2.448872     2.440738     2.432605     2.424471     2.416337     2.408204     2.400070
      2.391936     2.383803     2.375669     2.367535     2.359402     2.351268     2.343134     2.335001     2.326867     2.318733
      2.310600     2.302466     2.294333     2.286199     2.278065     2.269932     2.261798     2.253664     2.245531     2.237397
      2.229263     2.221130     2.212996     2.204862     2.196729     2.188595     2.180461     2.172328     2.164194     2.156060
      2.147927     2.139793     2.131660     2.123526     2.115392     2.107259     2.099125     2.090991     2.082858     2.074724
      2.066590     2.058457     2.050323     2.042189     2.034056     2.025922     2.017788     2.009655     2.001521     1.993387
      1.985254     1.977120     1.968987     1.960853     1.952719     1.944586     1.936452     1.928318     1.920185     1.912051
      1.903917     1.895784     1.887650     1.879516     1.871383     1.863249     1.855115     1.846982     1.838848     1.830714
      1.822581     1.814447     1.806314     1.798180     1.790046     1.781913     1.773779     1.765645     1.757512     1.749378
      1.741244     1.733111     1.724977     1.716843     1.708710     1.700576     1.692442     1.684309     1.676175     1.668041
      1.659908     1.651774     1.643641     1.635507     1.627373     1.619240     1.611106     1.602972     1.594839     1.586705
      1.578571     1.570438     1.562304     1.554170     1.546037     1.537903     1.529769     1.521636     1.513502     1.505368
      1.497235     1.489101     1.480968     1.472834     1.464700     1.456567     1.448433     1.440299     1.432166     1.424032
      1.415898     1.407765     1.399631     1.391497     1.383364     1.375230     1.367096     1.358963     1.350829     1.342695
      1.334562     1.326428     1.318295     1.310161     1.302027     1.293894     1.285760     1.277626     1.269493     1.261359
      1.253225     1.245092     1.236958     1.228824     1.220691     1.212557     1.204423     1.196290     1.188156     1.180022
      1.171889     1.163755     1.155622     1.147488     1.139354     1.131221     1.123087     1.114953     1.106820     1.098686
      1.090552     1.082419     1.074285     1.066151     1.058018     1.049884     1.041750     1.033617     1.025483     1.017349
      1.009216     1.001082     0.992949     0.984815     0.976681     0.968548     0.960414     0.952280     0.944147     0.936013
      0.927879     0.919746     0.911612     0.903478     0.895345     0.887211     0.879077     0.870944     0.862810     0.854676
      0.846543     0.838409     0.830276     0.822142     0.814008     0.805875     0.797741     0.789607     0.781474     0.773340
      0.765206     0.757073     0.748939     0.740805     0.732672     0.724538     0.716404     0.708271     0.700137     0.692003
      0.683870     0.675736     0.667603     0.659469     0.651335     0.643202     0.635068     0.626934     0.618801     0.610667
      0.602533     0.594400     0.586266     0.578132     0.569999     0.561865     0.553731     0.545598     0.537464     0.529330
      0.521197     0.513063     0.504930     0.496796     0.488662     0.480529     0.472395     0.464261     0.456128     0.447994
      0.439861     0.431727     0.423593     0.415460     0.407326     0.399192     0.391059     0.382925     0.374792     0.366658
      0.358524     0.350391     0.342257     0.334124     0.325990     0.317856     0.309723     0.301589     0.293455     0.285322
      0.277188     0.269055     0.260921     0.252787     0.244654     0.236520     0.228386     0.220253     0.212119     0.203986
 NY phased data points follow
  -5.32091E+01 -6.12084E+01 -5.04474E+01 -4.24132E+01 -4.78377E+01 -6.16091E+01 -5.96846E+01 -4.79391E+01 -4.57103E+01 -6.64039E+01
  -6.21634E+01 -5.45984E+01 -6.66092E+01 -7.52185E+01 -7.58038E+01 -6.63501E+01 -8.32118E+01 -8.79682E+01 -8.50517E+01 -1.01602E+02
  -9.45866E+01 -9.37342E+01 -8.57704E+01 -7.68984E+01 -8.69571E+01 -7.23475E+01 -7.54615E+01 -7.93791E+01 -6.18117E+01 -7.21520E+01
  -7.61591E+01 -7.89085E+01 -9.02182E+01 -9.18829E+01 -1.01124E+02 -1.02241E+02 -9.99448E+01 -9.77848E+01 -9.04053E+01 -1.01787E+02
  -9.67097E+01 -8.15601E+01 -9.23629E+01 -9.06793E+01 -7.52359E+01 -7.10598E+01 -7.72652E+01 -7.35658E+01 -6.41432E+01 -5.15290E+01
  -4.18737E+01 -5.66308E+01 -5.78650E+01 -4.83581E+01 -4.51472E+01 -4.60027E+01 -5.21656E+01 -6.16310E+01 -5.15940E+01 -4.05382E+01
  -5.21967E+01 -3.67839E+01 -4.82619E+01 -6.03277E+01 -5.20743E+01 -6.46849E+01 -5.88482E+01 -5.91802E+01 -5.17797E+01 -5.48465E+01
  -4.80873E+01 -3.67149E+01 -3.53280E+01 -3.02680E+01 -5.44752E+01 -3.70790E+01 -2.93570E+01 -3.24488E+01 -2.02849E+01 -2.54229E+01
  -1.81104E+01 -2.69414E+01 -1.92254E+01 -1.08131E+01 -2.18812E+01 -3.12048E+01 -3.70873E+01 -2.81650E+01 -1.65712E+01 -2.00452E+01
  -1.72983E+01 -1.32557E+01 -3.20719E+01 -9.44416E+00  4.48799E+00  1.05833E+00  1.06024E+01 -6.83190E+00 -4.24347E+00 -5.42743E+00
  -1.05824E+01 -1.30068E+01 -3.32716E+01 -3.79378E+01 -4.32837E+01 -6.84215E+01 -8.48447E+01 -9.19998E+01 -9.07535E+01 -8.65479E+01
  -1.09349E+02 -1.21322E+02 -1.09026E+02 -1.02783E+02 -1.01588E+02 -9.52900E+01 -9.34571E+01 -8.59453E+01 -7.33867E+01 -7.05814E+01
  -5.95560E+01 -4.29766E+01 -2.52002E+01 -3.76194E+01 -3.57439E+01 -2.25573E+01 -2.37591E+01 -1.04690E+01 -2.67740E+01 -3.37472E+01
  -2.93572E+01 -3.58050E+01 -4.95986E+01 -6.46736E+01 -7.40937E+01 -8.52572E+01 -9.14709E+01 -1.10200E+02 -1.11404E+02 -1.04038E+02
  -1.24965E+02 -1.48865E+02 -1.16588E+02 -1.15876E+02 -1.29805E+02 -9.96225E+01 -1.14518E+02 -1.07502E+02 -1.11460E+02 -1.07793E+02
  -1.00157E+02 -1.09362E+02 -8.11124E+01 -1.00284E+02 -9.56827E+01 -7.88251E+01 -7.33711E+01 -7.11155E+01 -8.86949E+01 -6.87720E+01
  -6.31119E+01 -7.96276E+01 -8.09083E+01 -6.20227E+01 -6.79103E+01 -8.18556E+01 -6.04757E+01 -5.16883E+01 -6.28607E+01 -5.92458E+01
  -5.01875E+01 -5.51808E+01 -4.81376E+01 -5.22424E+01 -5.72358E+01 -5.10431E+01 -6.16124E+01 -5.41317E+01 -5.03490E+01 -6.82727E+01
  -6.60357E+01 -6.67453E+01 -7.22303E+01 -7.02745E+01 -7.86977E+01 -7.00928E+01 -6.93667E+01 -7.90237E+01 -8.06201E+01 -8.93358E+01
  -7.76079E+01 -6.97845E+01 -7.00346E+01 -6.51220E+01 -6.62236E+01 -6.20851E+01 -6.31802E+01 -6.48642E+01 -5.74935E+01 -5.56028E+01
  -6.22071E+01 -7.24876E+01 -6.89925E+01 -6.14380E+01 -7.21609E+01 -6.35460E+01 -5.12443E+01 -6.98014E+01 -6.65378E+01 -5.25866E+01
  -7.34086E+01 -7.14979E+01 -4.73047E+01 -5.13240E+01 -4.11004E+01 -3.42442E+01 -3.96672E+01 -2.64604E+01 -3.06733E+01 -2.41204E+01
  -5.12320E+00 -1.69818E+01 -1.95806E+01 -1.82722E+01 -3.36159E+01 -3.63295E+01 -2.67204E+01 -2.37732E+01 -4.18442E+01 -4.94858E+01
  -4.69409E+01 -5.42824E+01 -6.28205E+01 -7.10634E+01 -5.66923E+01 -7.39969E+01 -9.03321E+01 -7.43467E+01 -9.83477E+01 -9.12637E+01
  -8.06181E+01 -9.65296E+01 -7.72886E+01 -7.55537E+01 -8.31100E+01 -7.57045E+01 -7.70015E+01 -8.09698E+01 -7.25667E+01 -6.98980E+01
  -7.33583E+01 -6.61201E+01 -6.42640E+01 -5.59860E+01 -3.60308E+01 -1.98373E+01 -2.10461E+01 -3.83094E+00  2.29323E+01  3.56573E+01
   4.03937E+01  1.96544E+01  5.32571E+01  7.46192E+01  5.06739E+01  5.25551E+01  4.42268E+01  4.96136E+01  3.30240E+01  3.47454E+01
   6.46177E+01  4.00604E+01  2.76491E+01  3.78514E+01  3.46476E+01  3.17834E+01  3.08767E+01  2.75317E+01  2.81323E+01  4.60355E+01
   5.68961E+01  2.87872E+01  1.03867E+01  7.98582E+00  1.28587E+01  1.69245E+01  7.00109E+00  9.05569E+00  9.06903E+00  1.65187E+01
   5.75309E-01 -6.78859E+00 -6.32419E-01 -5.79451E+00 -4.22517E+00 -1.11733E+01  4.88769E+00 -1.38706E+01 -1.04843E+01  8.26083E-01
  -2.06733E+01  3.11601E+00  4.79903E+00 -9.26985E+00  1.66665E+00  2.38948E+01  2.10132E+01  2.64703E+01  3.02447E+01  2.37427E+01
   3.60966E+01  3.28774E+01  5.22061E+01  6.34187E+01  5.84556E+01  6.46068E+01  8.24534E+01  8.61348E+01  8.72026E+01  1.02569E+02
   8.74065E+01  9.36845E+01  1.15595E+02  1.01889E+02  8.80234E+01  9.12737E+01  7.07989E+01  6.78757E+01  6.75909E+01  4.27796E+01
   3.25646E+01  2.62674E+00 -1.54308E+01 -1.49476E+01 -1.32980E+01 -1.60419E+01 -1.30873E+01 -2.15282E+01 -3.18847E+01 -2.87010E+01
  -3.62898E+01 -3.23419E+01 -4.46978E+01 -4.40489E+01 -5.03014E+01 -5.27212E+01 -5.68274E+01 -6.12750E+01 -4.60992E+01 -8.46843E+01
  -7.61086E+01 -5.39499E+01 -6.21128E+01 -6.44813E+01 -7.34878E+01 -6.82612E+01 -6.12458E+01 -5.49166E+01 -6.06539E+01 -5.13154E+01
  -5.05284E+01 -5.46997E+01 -5.59196E+01 -5.38616E+01 -3.87977E+01 -3.27566E+01 -2.47511E+01 -2.81160E+01 -3.43058E+01 -3.79374E+01
  -1.96072E+01 -1.40855E+01 -2.03360E+01 -1.36822E+01 -1.49606E+01 -4.51631E+00 -1.02266E+01 -1.53662E+01  1.29837E+01  3.04358E+01
   1.27663E+01  1.06503E+01  3.05980E+01  5.09463E+01  3.98173E+01  2.76197E+01  4.17957E+01  3.38375E+01  3.70837E+01  3.22788E+01
   3.56908E+01  3.43866E+01  1.69123E+01  7.33392E+00  1.73666E+00  8.37074E+00 -1.80963E+01 -1.79823E+01 -2.05786E+01 -3.27769E+01
  -4.11790E+01 -5.27609E+01 -2.60211E+01 -4.42880E+01 -6.66964E+01 -6.35328E+01 -5.84995E+01 -5.70658E+01 -5.61681E+01 -5.62769E+01
  -6.13929E+01 -4.81735E+01 -7.24394E+01 -7.05890E+01 -5.57694E+01 -7.20119E+01 -4.75717E+01 -4.60869E+01 -5.85218E+01 -4.09490E+01
  -4.21071E+01 -5.77103E+01 -5.64375E+01 -5.42126E+01 -5.56220E+01 -4.40741E+01 -4.06655E+01 -4.81027E+01 -5.02878E+01 -5.12714E+01
  -5.70014E+01 -4.99601E+01 -3.94081E+01 -4.78639E+01 -4.93371E+01 -5.42380E+01 -5.62078E+01 -4.85755E+01 -4.60376E+01 -4.35385E+01
  -4.49584E+01 -3.85950E+01 -4.53329E+01 -4.79741E+01 -5.13978E+01 -5.74857E+01 -5.08215E+01 -5.14783E+01 -3.51921E+01 -4.60523E+01
  -5.03258E+01 -3.59627E+01 -5.47650E+01 -5.80460E+01 -5.49555E+01 -5.43291E+01 -4.14329E+01 -4.38737E+01 -4.97536E+01 -4.54880E+01
  -5.41761E+01 -4.13913E+01 -4.18927E+01 -5.10737E+01 -3.76636E+01 -4.44012E+01 -4.06690E+01 -4.93253E+01 -4.91869E+01 -3.33266E+01
  -3.66806E+01 -5.30825E+01 -5.00594E+01 -3.91029E+01 -5.11318E+01 -3.40682E+01 -3.02513E+01 -3.27284E+01 -3.70596E+01 -4.37551E+01
 NY points of the fit to the data follow
  -8.00808E+01 -7.20420E+01 -7.48557E+01 -6.83982E+01 -7.05393E+01 -6.63389E+01 -6.82229E+01 -6.68329E+01 -6.97649E+01 -7.09500E+01
  -7.35556E+01 -7.64511E+01 -7.79796E+01 -8.17338E+01 -8.18104E+01 -8.56845E+01 -8.40601E+01 -8.75882E+01 -8.39012E+01 -8.68566E+01
  -8.10070E+01 -8.33390E+01 -7.57749E+01 -7.75678E+01 -6.93252E+01 -7.11551E+01 -6.43638E+01 -6.62214E+01 -6.21303E+01 -6.42348E+01
  -6.32801E+01 -6.56250E+01 -6.71974E+01 -6.94827E+01 -7.27610E+01 -7.46468E+01 -7.84424E+01 -7.95915E+01 -8.25606E+01 -8.27405E+01
  -8.39112E+01 -8.31176E+01 -8.22641E+01 -8.05648E+01 -7.78817E+01 -7.59269E+01 -7.17663E+01 -6.99693E+01 -6.54774E+01 -6.39981E+01
  -6.00063E+01 -5.89005E+01 -5.58941E+01 -5.50905E+01 -5.32146E+01 -5.29845E+01 -5.22112E+01 -5.20365E+01 -5.19655E+01 -5.15512E+01
  -5.15182E+01 -5.05744E+01 -5.02570E+01 -4.87971E+01 -4.81722E+01 -4.63352E+01 -4.55571E+01 -4.36272E+01 -4.28671E+01 -4.11845E+01
  -4.07735E+01 -3.93433E+01 -3.94468E+01 -3.79870E+01 -3.85001E+01 -3.67640E+01 -3.76067E+01 -3.54668E+01 -3.66644E+01 -3.39932E+01
  -3.55186E+01 -3.22731E+01 -3.39253E+01 -3.00638E+01 -3.14974E+01 -2.71147E+01 -2.79684E+01 -2.29918E+01 -2.30676E+01 -1.78854E+01
  -1.70207E+01 -1.23522E+01 -1.06700E+01 -6.50052E+00 -3.64767E+00 -2.97622E+00 -1.31648E+00 -4.68805E+00 -4.92375E+00 -1.18739E+01
  -1.39322E+01 -2.36731E+01 -2.72088E+01 -3.89428E+01 -4.36320E+01 -5.62209E+01 -6.15518E+01 -7.33368E+01 -7.83867E+01 -8.77734E+01
  -9.15708E+01 -9.71473E+01 -9.86709E+01 -9.98189E+01 -9.85945E+01 -9.52888E+01 -9.06686E+01 -8.24086E+01 -7.62180E+01 -6.64641E+01
  -6.01094E+01 -5.14464E+01 -4.60814E+01 -3.99001E+01 -3.62850E+01 -3.34297E+01 -3.21699E+01 -3.30468E+01 -3.43155E+01 -3.87444E+01
  -4.20943E+01 -4.93881E+01 -5.41325E+01 -6.32276E+01 -6.84303E+01 -7.78658E+01 -8.27025E+01 -9.11195E+01 -9.49545E+01 -1.01231E+02
  -1.03772E+02 -1.07377E+02 -1.08571E+02 -1.09535E+02 -1.09703E+02 -1.08684E+02 -1.08137E+02 -1.05833E+02 -1.04923E+02 -1.02291E+02
  -1.01207E+02 -9.87301E+01 -9.74883E+01 -9.52420E+01 -9.39617E+01 -9.20032E+01 -9.07588E+01 -8.89511E+01 -8.74639E+01 -8.57885E+01
  -8.41874E+01 -8.26619E+01 -8.09095E+01 -7.91585E+01 -7.71579E+01 -7.53854E+01 -7.32306E+01 -7.16746E+01 -6.95792E+01 -6.83988E+01
  -6.65950E+01 -6.58797E+01 -6.45485E+01 -6.44373E+01 -6.36805E+01 -6.43528E+01 -6.40966E+01 -6.54904E+01 -6.57541E+01 -6.75973E+01
  -6.80378E+01 -6.98699E+01 -7.03614E+01 -7.17699E+01 -7.18873E+01 -7.25760E+01 -7.21485E+01 -7.20994E+01 -7.10025E+01 -7.01796E+01
  -6.86079E+01 -6.73341E+01 -6.55641E+01 -6.43504E+01 -6.27239E+01 -6.21058E+01 -6.10177E+01 -6.14510E+01 -6.13238E+01 -6.29415E+01
  -6.34007E+01 -6.63302E+01 -6.58351E+01 -6.93662E+01 -6.73400E+01 -7.00868E+01 -6.67024E+01 -6.80296E+01 -6.34501E+01 -6.29458E+01
  -5.72173E+01 -5.47057E+01 -4.82520E+01 -4.39107E+01 -3.76612E+01 -3.21415E+01 -2.72512E+01 -2.15637E+01 -1.91304E+01 -1.43944E+01
  -1.51358E+01 -1.24404E+01 -1.63660E+01 -1.65404E+01 -2.29125E+01 -2.60344E+01 -3.37808E+01 -3.92564E+01 -4.71459E+01 -5.39734E+01
  -6.09264E+01 -6.77991E+01 -7.32129E+01 -7.89374E+01 -8.26625E+01 -8.65800E+01 -8.87074E+01 -9.05932E+01 -9.16636E+01 -9.11409E+01
  -9.16787E+01 -8.92802E+01 -9.14939E+01 -8.73353E+01 -8.88394E+01 -8.30760E+01 -8.27248E+01 -7.58938E+01 -7.33891E+01 -6.61112E+01
  -6.13423E+01 -5.41260E+01 -4.67121E+01 -3.99195E+01 -2.96513E+01 -2.36711E+01 -1.11439E+01 -6.36026E+00  7.42349E+00  1.06914E+01
   2.41489E+01  2.57866E+01  3.74661E+01  3.75497E+01  4.63232E+01  4.51309E+01  5.06391E+01  4.85982E+01  5.10422E+01  4.86686E+01
   4.89086E+01  4.66050E+01  4.55853E+01  4.36101E+01  4.22746E+01  4.06660E+01  3.93631E+01  3.79486E+01  3.64944E+01  3.50754E+01
   3.33877E+01  3.18565E+01  2.99853E+01  2.83274E+01  2.63991E+01  2.46744E+01  2.28658E+01  2.11985E+01  1.96860E+01  1.82418E+01
   1.71729E+01  1.61142E+01  1.55961E+01  1.50660E+01  1.51666E+01  1.52421E+01  1.59622E+01  1.66425E+01  1.79217E+01  1.91444E+01
   2.08577E+01  2.25011E+01  2.44956E+01  2.63793E+01  2.84709E+01  3.04091E+01  3.24282E+01  3.42330E+01  3.60369E+01  3.75463E+01
   3.90327E+01  4.01030E+01  4.11378E+01  4.16172E+01  4.20747E+01  4.18603E+01  4.16749E+01  4.07734E+01  4.00037E+01  3.86015E+01
   3.74892E+01  3.59724E+01  3.49410E+01  3.38969E+01  3.36520E+01  3.40765E+01  3.57611E+01  3.54577E+01  3.91544E+01  3.53310E+01
   3.94813E+01  3.17584E+01  3.60253E+01  2.46844E+01  2.89697E+01  1.41065E+01  1.79915E+01 -1.31540E-01  2.64358E+00 -1.75720E+01
  -1.63184E+01 -3.66998E+01 -3.68400E+01 -5.51246E+01 -5.61137E+01 -7.03460E+01 -7.13633E+01 -8.04117E+01 -8.07070E+01 -8.45283E+01
  -8.36045E+01 -8.31052E+01 -8.08692E+01 -7.76001E+01 -7.42972E+01 -6.98884E+01 -6.60111E+01 -6.17190E+01 -5.77479E+01 -5.40456E+01
  -5.02564E+01 -4.68636E+01 -4.31566E+01 -3.97470E+01 -3.59228E+01 -3.23912E+01 -2.83820E+01 -2.46655E+01 -2.04129E+01 -1.64582E+01
  -1.19121E+01 -7.70967E+00 -2.90049E+00  1.40832E+00  6.27253E+00  1.04019E+01  1.50187E+01  1.86545E+01  2.26809E+01  2.55325E+01
   2.86311E+01  3.03974E+01  3.22092E+01  3.26222E+01  3.28562E+01  3.17463E+01  3.03002E+01  2.77097E+01  2.46871E+01  2.08583E+01
   1.65603E+01  1.18877E+01  6.73909E+00  1.67441E+00 -3.84737E+00 -8.87758E+00 -1.43148E+01 -1.89521E+01 -2.39306E+01 -2.79462E+01
  -3.22115E+01 -3.54923E+01 -3.89280E+01 -4.14873E+01 -4.40868E+01 -4.59734E+01 -4.78128E+01 -4.91176E+01 -5.03159E+01 -5.11445E+01
  -5.18488E+01 -5.23239E+01 -5.26902E+01 -5.29163E+01 -5.30670E+01 -5.31238E+01 -5.31501E+01 -5.30945E+01 -5.30536E+01 -5.29310E+01
  -5.28406E+01 -5.26864E+01 -5.25515E+01 -5.23862E+01 -5.22086E+01 -5.20505E+01 -5.18303E+01 -5.16824E+01 -5.14293E+01 -5.12895E+01
  -5.10300E+01 -5.08814E+01 -5.06319E+01 -5.04648E+01 -5.02366E+01 -5.00354E+01 -4.98521E+01 -4.96112E+01 -4.94764E+01 -4.91977E+01
  -4.91068E+01 -4.87921E+01 -4.87417E+01 -4.83939E+01 -4.83784E+01 -4.79948E+01 -4.80180E+01 -4.75991E+01 -4.76647E+01 -4.72139E+01
  -4.73222E+01 -4.68449E+01 -4.69830E+01 -4.64776E+01 -4.66353E+01 -4.61190E+01 -4.62935E+01 -4.57937E+01 -4.59719E+01 -4.55076E+01
  -4.56772E+01 -4.52655E+01 -4.54063E+01 -4.50673E+01 -4.51819E+01 -4.49121E+01 -4.50115E+01 -4.47964E+01 -4.48783E+01 -4.46970E+01
  -4.47562E+01 -4.45864E+01 -4.46168E+01 -4.44349E+01 -4.44310E+01 -4.42210E+01 -4.41530E+01 -4.38824E+01 -4.37112E+01 -4.33485E+01
 NY background values follow
    -6.009E+01   -6.025E+01   -6.041E+01   -6.056E+01   -6.072E+01   -6.087E+01   -6.103E+01   -6.118E+01   -6.134E+01   -6.149E+01
    -6.164E+01   -6.179E+01   -6.194E+01   -6.209E+01   -6.223E+01   -6.238E+01   -6.252E+01   -6.266E+01   -6.279E+01   -6.293E+01
    -6.306E+01   -6.319E+01   -6.331E+01   -6.344E+01   -6.355E+01   -6.367E+01   -6.378E+01   -6.389E+01   -6.399E+01   -6.409E+01
    -6.418E+01   -6.427E+01   -6.436E+01   -6.444E+01   -6.451E+01   -6.458E+01   -6.465E+01   -6.471E+01   -6.476E+01   -6.481E+01
    -6.485E+01   -6.488E+01   -6.492E+01   -6.494E+01   -6.496E+01   -6.497E+01   -6.498E+01   -6.499E+01   -6.499E+01   -6.498E+01
    -6.497E+01   -6.496E+01   -6.493E+01   -6.491E+01   -6.488E+01   -6.484E+01   -6.480E+01   -6.476E+01   -6.471E+01   -6.466E+01
    -6.460E+01   -6.454E+01   -6.448E+01   -6.441E+01   -6.433E+01   -6.425E+01   -6.417E+01   -6.409E+01   -6.400E+01   -6.390E+01
    -6.381E+01   -6.371E+01   -6.360E+01   -6.349E+01   -6.338E+01   -6.327E+01   -6.315E+01   -6.303E+01   -6.290E+01   -6.278E+01
    -6.265E+01   -6.251E+01   -6.237E+01   -6.223E+01   -6.209E+01   -6.194E+01   -6.179E+01   -6.164E+01   -6.148E+01   -6.132E+01
    -6.116E+01   -6.099E+01   -6.082E+01   -6.065E+01   -6.048E+01   -6.030E+01   -6.012E+01   -5.994E+01   -5.975E+01   -5.956E+01
    -5.937E+01   -5.918E+01   -5.898E+01   -5.878E+01   -5.858E+01   -5.838E+01   -5.817E+01   -5.796E+01   -5.775E+01   -5.753E+01
    -5.731E+01   -5.709E+01   -5.687E+01   -5.665E+01   -5.642E+01   -5.619E+01   -5.596E+01   -5.573E+01   -5.549E+01   -5.526E+01
    -5.502E+01   -5.478E+01   -5.454E+01   -5.430E+01   -5.406E+01   -5.381E+01   -5.357E+01   -5.332E+01   -5.308E+01   -5.283E+01
    -5.258E+01   -5.233E+01   -5.209E+01   -5.184E+01   -5.159E+01   -5.134E+01   -5.110E+01   -5.085E+01   -5.060E+01   -5.036E+01
    -5.011E+01   -4.987E+01   -4.962E+01   -4.938E+01   -4.914E+01   -4.889E+01   -4.866E+01   -4.842E+01   -4.818E+01   -4.795E+01
    -4.771E+01   -4.748E+01   -4.725E+01   -4.702E+01   -4.680E+01   -4.657E+01   -4.635E+01   -4.613E+01   -4.591E+01   -4.569E+01
    -4.548E+01   -4.526E+01   -4.505E+01   -4.485E+01   -4.464E+01   -4.444E+01   -4.424E+01   -4.404E+01   -4.384E+01   -4.365E+01
    -4.346E+01   -4.327E+01   -4.308E+01   -4.290E+01   -4.272E+01   -4.254E+01   -4.237E+01   -4.220E+01   -4.203E+01   -4.186E+01
    -4.170E+01   -4.154E+01   -4.139E+01   -4.123E+01   -4.109E+01   -4.094E+01   -4.080E+01   -4.066E+01   -4.052E+01   -4.039E+01
    -4.026E+01   -4.013E+01   -4.001E+01   -3.989E+01   -3.977E+01   -3.965E+01   -3.954E+01   -3.943E+01   -3.933E+01   -3.923E+01
    -3.912E+01   -3.903E+01   -3.893E+01   -3.884E+01   -3.875E+01   -3.867E+01   -3.858E+01   -3.850E+01   -3.842E+01   -3.835E+01
    -3.827E+01   -3.820E+01   -3.813E+01   -3.807E+01   -3.800E+01   -3.794E+01   -3.788E+01   -3.782E+01   -3.777E+01   -3.772E+01
    -3.766E+01   -3.762E+01   -3.757E+01   -3.752E+01   -3.748E+01   -3.744E+01   -3.740E+01   -3.737E+01   -3.733E+01   -3.730E+01
    -3.727E+01   -3.724E+01   -3.721E+01   -3.718E+01   -3.715E+01   -3.713E+01   -3.711E+01   -3.709E+01   -3.707E+01   -3.705E+01
    -3.703E+01   -3.701E+01   -3.699E+01   -3.698E+01   -3.697E+01   -3.695E+01   -3.694E+01   -3.693E+01   -3.692E+01   -3.691E+01
    -3.690E+01   -3.689E+01   -3.688E+01   -3.687E+01   -3.686E+01   -3.685E+01   -3.685E+01   -3.684E+01   -3.683E+01   -3.682E+01
    -3.682E+01   -3.681E+01   -3.680E+01   -3.680E+01   -3.679E+01   -3.678E+01   -3.677E+01   -3.677E+01   -3.676E+01   -3.675E+01
    -3.674E+01   -3.673E+01   -3.672E+01   -3.670E+01   -3.669E+01   -3.668E+01   -3.666E+01   -3.665E+01   -3.663E+01   -3.661E+01
    -3.659E+01   -3.657E+01   -3.655E+01   -3.653E+01   -3.650E+01   -3.648E+01   -3.645E+01   -3.642E+01   -3.639E+01   -3.636E+01
    -3.632E+01   -3.628E+01   -3.625E+01   -3.621E+01   -3.616E+01   -3.612E+01   -3.607E+01   -3.602E+01   -3.597E+01   -3.592E+01
    -3.587E+01   -3.581E+01   -3.576E+01   -3.570E+01   -3.564E+01   -3.559E+01   -3.553E+01   -3.547E+01   -3.541E+01   -3.536E+01
    -3.530E+01   -3.524E+01   -3.519E+01   -3.513E+01   -3.508E+01   -3.503E+01   -3.498E+01   -3.493E+01   -3.489E+01   -3.484E+01
    -3.480E+01   -3.476E+01   -3.473E+01   -3.470E+01   -3.467E+01   -3.464E+01   -3.462E+01   -3.460E+01   -3.458E+01   -3.457E+01
    -3.457E+01   -3.456E+01   -3.457E+01   -3.457E+01   -3.458E+01   -3.460E+01   -3.462E+01   -3.465E+01   -3.467E+01   -3.471E+01
    -3.474E+01   -3.478E+01   -3.482E+01   -3.487E+01   -3.491E+01   -3.496E+01   -3.502E+01   -3.507E+01   -3.513E+01   -3.519E+01
    -3.525E+01   -3.531E+01   -3.537E+01   -3.543E+01   -3.550E+01   -3.557E+01   -3.563E+01   -3.570E+01   -3.577E+01   -3.583E+01
    -3.590E+01   -3.597E+01   -3.603E+01   -3.610E+01   -3.616E+01   -3.623E+01   -3.629E+01   -3.635E+01   -3.641E+01   -3.647E+01
    -3.652E+01   -3.658E+01   -3.663E+01   -3.668E+01   -3.673E+01   -3.678E+01   -3.682E+01   -3.686E+01   -3.691E+01   -3.694E+01
    -3.698E+01   -3.702E+01   -3.705E+01   -3.708E+01   -3.711E+01   -3.714E+01   -3.716E+01   -3.718E+01   -3.721E+01   -3.722E+01
    -3.724E+01   -3.725E+01   -3.727E+01   -3.728E+01   -3.729E+01   -3.729E+01   -3.729E+01   -3.730E+01   -3.730E+01   -3.729E+01
    -3.729E+01   -3.728E+01   -3.727E+01   -3.726E+01   -3.724E+01   -3.723E+01   -3.721E+01   -3.719E+01   -3.716E+01   -3.714E+01
    -3.711E+01   -3.708E+01   -3.704E+01   -3.701E+01   -3.697E+01   -3.693E+01   -3.689E+01   -3.685E+01   -3.681E+01   -3.676E+01
    -3.671E+01   -3.666E+01   -3.661E+01   -3.655E+01   -3.650E+01   -3.644E+01   -3.638E+01   -3.632E+01   -3.626E+01   -3.619E+01
    -3.613E+01   -3.606E+01   -3.599E+01   -3.592E+01   -3.585E+01   -3.578E+01   -3.570E+01   -3.563E+01   -3.555E+01   -3.547E+01
    -3.539E+01   -3.531E+01   -3.523E+01   -3.514E+01   -3.506E+01   -3.497E+01   -3.489E+01   -3.480E+01   -3.471E+01   -3.462E+01
    -3.453E+01   -3.444E+01   -3.435E+01   -3.425E+01   -3.416E+01   -3.406E+01   -3.397E+01   -3.387E+01   -3.377E+01   -3.368E+01
    -3.358E+01   -3.348E+01   -3.338E+01   -3.328E+01   -3.318E+01   -3.308E+01   -3.298E+01   -3.288E+01   -3.277E+01   -3.267E+01
    -3.257E+01   -3.247E+01   -3.236E+01   -3.226E+01   -3.216E+01   -3.205E+01   -3.195E+01   -3.185E+01   -3.174E+01   -3.164E+01
 Mac      Conc. = 2.45E-04
  -7.86469E+01 -7.95598E+01 -8.04010E+01 -8.12986E+01 -8.21285E+01 -8.29244E+01 -8.36220E+01 -8.42181E+01 -8.47008E+01 -8.50299E+01
  -8.52430E+01 -8.52419E+01 -8.51429E+01 -8.47538E+01 -8.43164E+01 -8.35421E+01 -8.27786E+01 -8.16726E+01 -8.06433E+01 -7.93268E+01
  -7.81442E+01 -7.67520E+01 -7.55065E+01 -7.41229E+01 -7.28795E+01 -7.15914E+01 -7.04288E+01 -6.92929E+01 -6.82556E+01 -6.72616E+01
  -6.63540E+01 -6.54735E+01 -6.46825E+01 -6.38922E+01 -6.32113E+01 -6.25197E+01 -6.19505E+01 -6.13771E+01 -6.09293E+01 -6.04894E+01
  -6.01805E+01 -5.98873E+01 -5.97050E+01 -5.95391E+01 -5.94722E+01 -5.93977E+01 -5.93959E+01 -5.93779E+01 -5.94006E+01 -5.94036E+01
  -5.94306E+01 -5.94073E+01 -5.94140E+01 -5.93246E+01 -5.93122E+01 -5.91286E+01 -5.90569E+01 -5.87523E+01 -5.86042E+01 -5.81737E+01
  -5.79646E+01 -5.74301E+01 -5.72001E+01 -5.66051E+01 -5.63749E+01 -5.57512E+01 -5.55285E+01 -5.49024E+01 -5.46807E+01 -5.40548E+01
  -5.38353E+01 -5.32088E+01 -5.29907E+01 -5.23701E+01 -5.21601E+01 -5.15515E+01 -5.13555E+01 -5.07597E+01 -5.05798E+01 -4.99844E+01
  -4.98464E+01 -4.92573E+01 -4.91907E+01 -4.86390E+01 -4.86784E+01 -4.81910E+01 -4.83698E+01 -4.80072E+01 -4.83766E+01 -4.82316E+01
  -4.88797E+01 -4.91045E+01 -5.01459E+01 -5.08458E+01 -5.22929E+01 -5.34646E+01 -5.52336E+01 -5.67719E+01 -5.87139E+01 -6.04726E+01
  -6.24137E+01 -6.42186E+01 -6.59605E+01 -6.76062E+01 -6.89596E+01 -7.02406E+01 -7.10435E+01 -7.17772E+01 -7.19133E+01 -7.19660E+01
