 
 $NMID
 ID=''
 FMTDAT='(2E13.5)'
 TRAMP=   1.00000E+0
 VOLUME=   1.00000E+0
 $END
   2.24346E+3  -2.32309E+4
  -2.06607E+4  -1.97658E+4
  -1.30468E+4   2.17019E+4
   2.18579E+4   1.87828E+4
   3.81667E+3  -2.04915E+4
  -2.06052E+4  -7.55499E+3
   4.65686E+3   1.87265E+4
   1.51697E+4   8.91917E+1
  -7.28778E+3  -9.29399E+3
  -7.74643E+3   6.51580E+3
   4.59804E+3   3.23083E+3
  -4.71774E+2  -5.56092E+3
  -3.70212E+3   4.99383E+1
  -1.03599E+3   6.86172E+2
  -6.18427E+2  -3.28695E+3
   2.06752E+3  -8.20886E+2
   1.53206E+3   1.46550E+3
  -2.75570E+3   9.82284E+2
  -1.73282E+2   6.35051E+2
   2.09539E+3  -5.50583E+2
  -8.10939E+2  -1.28126E+2
   4.37114E+2   7.70557E+2
   2.23944E+3   5.92170E+2
  -1.08108E+3   3.24751E+1
  -8.75829E+2  -8.38512E+2
   2.53987E+3  -7.91218E+1
   6.90525E+2   2.26687E+3
  -2.01490E+3   8.07867E+2
  -6.45079E+2  -2.10846E+3
   1.26048E+3  -3.22366E+2
   5.27199E+1   1.08819E+3
  -1.22658E+3   4.46022E+2
  -6.25587E+2  -6.68603E+2
  -9.07824E+1  -2.17306E+3
   6.94926E+2  -2.46301E+3
   3.06569E+3   5.81251E+2
   1.13286E+3   2.21313E+3
  -1.80998E+3  -7.30301E+1
  -6.59747E+2  -7.03503E+2
   1.33432E+3   1.21345E+1
  -1.11123E+3  -4.87874E+2
  -6.82172E+2  -1.22943E+3
   2.25479E+3  -5.84228E+2
   2.17386E+3   3.23428E+2
   2.05472E+2   8.38204E+2
   4.11422E+2   1.02314E+3
  -7.41508E+2   1.33812E+3
  -1.96675E+3   1.27556E+2
  -6.81915E+2  -1.89628E+3
   7.98366E+2  -1.77250E+3
   6.01401E+2  -3.69696E+2
   7.72599E+2  -9.43169E+1
   1.05419E+3  -2.65101E+2
   5.26455E+2   6.91693E+2
   4.02121E+2   8.39134E+2
  -4.05182E+2   1.35608E+2
  -9.58386E+2  -4.61881E+2
  -1.14655E+2  -7.93969E+2
   1.78867E+3  -7.61096E+2
   1.66495E+3   4.44900E+2
   4.54327E+2   1.36020E+3
   8.30182E+1   9.17143E+2
  -3.21773E+2   9.37808E+2
  -1.36719E+3   8.55180E+2
  -1.64348E+3  -7.00563E+2
  -5.75623E+2  -2.08587E+3
   1.23925E+3  -1.92519E+3
   1.82485E+3  -4.95928E+2
   1.70548E+3   3.99015E+2
  -7.78966E+1   2.76233E+2
  -3.09364E+2  -5.65474E+2
   1.26976E+3  -3.29393E+2
   1.01967E+3   4.06890E+2
  -1.20575E+2   1.01935E+3
  -3.10881E+2   6.95301E+1
   2.41464E+2  -7.87434E+2
  -9.00368E+1  -7.38395E+1
  -5.29743E+2   7.60535E+2
   5.81011E+1   1.97447E+1
  -3.14108E+2  -5.19808E+2
  -3.72243E+2  -1.03753E+3
   2.03502E+2  -8.40032E+2
   6.44953E+2  -3.36859E+2
   8.89869E+1  -2.53963E+1
   7.75147E+1  -3.79225E+2
   9.54982E+2  -9.43808E+2
   9.18393E+2  -2.63757E+2
   1.78005E+2   4.46389E+2
  -2.92254E+2   1.53305E+2
   2.78779E+2  -2.96341E+2
   6.90414E+2   4.16140E+2
  -6.97793E+1   1.03943E+3
  -9.50821E+2   2.96948E+2
  -1.23206E+3  -3.28889E+2
  -4.16081E+2  -9.09466E+2
   5.45249E+2  -9.10489E+2
   6.76433E+2  -1.24909E+2
   5.24679E+1   5.67687E+1
  -2.84596E+2  -3.44795E+2
   4.97630E+2  -1.49386E+2
   6.49412E+2   6.66711E+2
  -5.02550E+2   1.06864E+3
  -1.08993E+3   5.32118E+1
  -5.58023E+2  -8.69882E+2
   5.69400E+2  -5.32542E+2
   7.76859E+2   8.12108E+2
  -5.03019E+2   1.05968E+3
  -9.86663E+2  -1.59071E+2
  -5.99331E+2  -1.24359E+3
   9.43584E+2  -7.71252E+2
   1.08165E+3   4.82162E+2
   5.08271E+2   1.04951E+3
   2.56909E+1   9.20459E+2
  -1.81107E+2   6.06942E+2
   1.82118E+2   2.58638E+2
  -3.28166E+2   4.30167E+2
  -9.66559E+2   2.08859E+2
  -4.89335E+2  -8.51879E+2
   4.63589E+2  -1.45149E+3
   1.28367E+3  -7.19417E+2
   9.48981E+2   2.94001E+2
   1.68791E+2   7.17546E+2
   3.80198E+2   5.62212E+2
  -1.18258E+2   4.79319E+2
  -4.43040E+2   4.00326E+2
  -3.58316E+2  -3.73090E+1
   1.44107E+2  -4.53330E+2
   4.59054E+2  -3.23258E+2
   5.40756E+2   3.48224E+2
   3.67050E+2   5.77478E+2
  -3.90537E+2   6.07264E+2
  -6.40470E+2  -2.17475E+2
   4.29101E+1  -5.23899E+2
   8.05181E+1  -5.66633E+1
   5.58941E+0   7.22947E+1
  -1.46438E+2  -5.36847E+2
   5.61773E+2  -4.52370E+2
   5.67925E+2   1.23697E+2
   8.76421E+0   6.26999E+2
  -4.88292E+2   3.44627E+2
  -7.50633E+2  -2.70420E+2
   2.02357E+2  -8.85486E+2
   8.43114E+2  -2.75897E+2
   4.44996E+2   6.11043E+2
  -4.49400E+2   7.42026E+2
  -8.28953E+2   3.15075E+2
  -3.97233E+2  -2.39823E+2
  -2.36513E+2  -2.53220E+2
  -1.23459E+2  -1.40999E+2
  -2.46341E+2  -3.79626E+2
   2.26632E+2  -4.76680E+2
   3.38606E+2  -4.20227E+2
   8.57763E+2   3.20601E+2
  -4.54515E+1   9.82721E+2
  -6.37246E+2   2.93134E+2
  -1.84649E+2  -1.90572E+2
   1.06311E+2   7.57527E+1
  -4.12168E+1   2.86701E+2
  -4.65422E+2   6.82365E+1
  -2.17390E+1   1.46798E+1
  -1.93888E+2   1.74994E+2
  -3.81515E+2   2.61148E+2
  -5.73915E+2  -6.41867E+1
  -4.73999E+2  -3.31635E+2
  -7.91090E+1  -4.61827E+2
   4.59387E+2  -4.90751E+2
   2.36359E+2   5.31701E+1
  -3.56289E+2   4.10966E+2
  -3.42151E+2   1.61100E+2
  -1.26455E+2   5.45376E+1
   2.16859E+2   3.15497E+2
  -5.85791E+1   3.24194E+2
  -1.63879E+2   4.40474E+2
  -4.65617E+2   2.49272E+1
  -6.11618E+1  -3.85794E+1
   8.49105E+1   2.20491E+2
  -2.13716E+2   5.31391E+2
  -5.92446E+2   4.77955E+1
  -5.54734E+1  -4.20127E+2
   4.02907E+2  -9.02405E+1
   3.39769E+2   6.05205E+2
  -4.55315E+1   5.23608E+2
  -4.85806E+2   1.41040E+2
  -2.19691E+2  -1.14769E+2
  -8.74476E+1  -4.11534E+1
  -1.36293E+2  -1.90923E+2
   4.77485E+1  -2.24309E+2
   1.61834E+2  -4.63193E+2
   2.94128E+2  -2.51241E+2
   5.72832E+2   4.50264E+2
  -1.55986E+0   5.79407E+2
  -4.28992E+2   5.14510E+2
  -4.27543E+2  -1.48066E+2
  -7.40884E+1  -2.53112E+2
   8.06959E+1  -2.39399E+2
   3.68519E+2  -9.36213E+0
  -3.88797E+1   2.16700E+2
   1.01131E+2   1.29739E+2
  -6.61438E+1   1.85678E+2
  -3.25332E+2   2.49101E+2
  -4.33463E+2   9.67648E+1
  -2.78725E+2  -5.48327E+2
   2.67222E+2  -5.28756E+2
   1.02778E+2   1.37072E+2
   3.88365E+2   2.46269E+2
  -4.35493E+2   1.72997E+2
  -4.10686E+2   2.03103E+2
  -1.90825E+2  -2.14784E+2
   1.38680E+2   1.31418E+2
  -6.75073E+0   2.39090E+2
  -4.05250E+2  -5.08140E+1
   1.43395E+2  -4.77562E+1
   2.89476E+2  -6.83469E+1
   1.70227E+1   5.37682E+2
  -7.75754E+2   3.22048E+2
  -3.94780E+2  -4.27827E+1
  -1.60850E+2  -4.06767E+2
   3.39634E+2  -2.24123E+2
   1.08397E+2  -7.03321E+1
   4.31838E+1   1.63540E+2
  -1.68073E+2  -1.77598E+2
   2.10640E+2  -4.60590E+1
   2.18008E+2   5.05552E+2
  -1.50044E+2   5.05538E+2
  -3.11760E+2   6.82649E+1
  -3.41438E+2  -1.65151E+2
   2.47650E+2  -1.54225E+2
   1.95676E+2   2.21897E+2
  -1.13658E+2   5.13381E+2
  -3.36248E+2   3.86230E+1
  -5.14333E+2  -3.34270E+1
  -5.67078E+0  -2.02501E+2
  -4.84195E+1   9.41842E+1
  -3.78424E+1   5.38403E+0
  -2.37973E+2  -1.51812E+2
   4.70475E+1   4.31882E+0
   1.67005E+2   3.74828E+1
  -1.29085E+2   2.21315E+2
  -7.53721E+1   7.49764E+0
  -1.51268E+2   2.36078E+1
   3.11707E+1  -6.40836E+1
   1.16691E+1   3.79851E+2
  -2.76930E+1   3.88394E+2
  -1.19672E+2   2.92392E+2
  -1.91973E+2   3.21912E+1
   6.40127E+1  -1.28253E+2
   1.29871E+2   3.31193E+1
  -1.58944E+2  -2.98023E+1
  -4.02829E+1  -3.24253E+2
  -1.65970E+1  -1.78731E+2
   2.18785E+2   8.30606E+1
   6.51180E+1   2.29192E+2
  -3.10405E+2   7.28557E+1
  -2.64911E+2  -4.14740E+2
   5.95067E+1  -9.09281E+1
   3.34531E+2  -5.50433E+1
   5.35173E+1   3.38626E+2
  -4.32801E+1   2.90086E+2
  -1.54109E+2   7.05125E+1
  -2.80474E+1   1.45099E+1
  -2.88068E+2   2.56227E+2
  -3.63106E+2   1.25805E+2
  -1.05555E+2  -3.56318E+2
   2.09021E+2  -4.63399E+2
   2.56169E+2  -6.73492E+1
  -8.07162E+1   2.94501E+2
  -2.05014E+2   2.88250E+2
  -1.93059E+2  -1.77162E+1
  -7.68276E+1  -1.74885E+2
   9.97270E+1  -1.27257E+2
  -1.95603E+2  -5.22244E+1
  -8.43143E+1   6.78405E+1
  -2.24549E+1  -1.58288E+2
   2.82029E+2   1.35461E+2
   2.80530E+2   3.80340E+2
  -7.67863E+1   3.72986E+2
  -4.66744E+2  -4.70487E+1
   4.84717E+1  -1.67933E+2
   2.05296E+2  -7.81422E+1
   1.20187E+2   1.18388E+2
  -1.95849E+1  -6.77507E+1
  -1.08495E+2   3.70921E+1
   3.71911E+1  -3.77075E+1
  -2.17018E+2   4.73308E+2
  -1.32010E+2   5.80407E+1
  -3.09023E+2  -1.97866E+2
  -1.14190E+2  -1.87088E+2
   3.07226E+2  -3.41243E+2
   3.61410E+2  -5.85926E+1
   1.29934E+2   5.66684E+2
  -3.45166E+2   1.53363E+2
  -7.13527E+1   2.17297E+2
   6.26073E+1  -1.24456E+2
  -6.30375E+1  -1.00890E+2
  -3.28815E+2   1.50113E+1
  -7.21677E+1  -1.16058E+2
   1.17454E+2   8.84580E+1
   1.93024E+2   3.48707E+2
  -4.76217E+1   3.90776E+2
  -4.29992E+2   2.23581E+2
  -2.00250E+2  -1.29205E+2
   1.65347E+2  -1.36986E+2
   8.46185E+1   8.79154E+1
  -3.11872E+2   2.38833E+2
  -1.04073E+2   1.28918E+2
  -2.13657E+2  -1.10425E+2
   7.45275E+1  -8.16257E+1
  -5.11325E+1   1.17927E+2
  -2.13122E+2   1.78909E+2
  -1.73215E+2  -5.90614E+1
   4.39178E+2  -5.31480E+1
   1.94938E+2   1.22159E+2
   9.72147E+1   9.71235E+1
  -6.33996E+1   1.13086E+1
  -3.42350E+2   1.94300E+1
   2.37173E+2  -5.69209E+1
   7.25709E+1   1.35053E+2
  -2.74456E+2   1.13604E+2
  -1.55050E+2  -1.73187E+2
  -3.11361E+1   8.38371E+1
  -9.19082E+1  -6.21280E+1
   1.95309E+1  -1.16597E+2
  -7.26283E+1   3.86661E+2
  -1.08087E+2  -7.41101E-1
  -6.49995E+1  -7.31264E+1
   4.10905E+2   1.23484E+2
  -1.38721E+2   5.27751E+2
   8.35102E+1   2.52271E+2
  -3.93906E+2   1.68172E+2
  -2.87722E+2  -2.47777E+2
   8.91315E+1  -1.54166E+1
  -1.18357E+1   2.97603E+1
  -5.15783E+1  -9.10586E+1
   1.26231E+2   1.33149E+2
   2.74986E+2   6.90558E+0
   7.18795E+1   2.93510E+2
  -2.21178E+2   1.55789E+2
  -5.53228E+2  -2.67928E+2
   7.19355E+1  -4.03461E+2
   1.97954E+2   3.23444E+1
   1.07854E+2   1.49028E+2
  -6.79332E+1   2.95736E+2
  -2.87832E+1  -8.46871E+1
  -1.26940E+1  -3.39537E+1
   1.53477E+2  -8.62702E+1
   2.49072E+2  -1.23687E+2
   7.81283E+1  -2.66167E+1
   1.78102E+2  -1.02979E+2
  -5.78062E+1   2.72818E+2
   9.30841E+1   2.12030E+2
  -2.19093E+2   3.45752E+2
  -2.44063E+2  -1.62083E+1
   6.57681E+1  -1.33432E+1
  -4.32866E+1  -1.18682E+2
   1.25531E+2   1.82913E+2
   1.90163E+1   1.40721E+2
   1.16038E+2  -2.34528E+1
   1.37643E+2  -2.19160E+2
   2.07136E+2   1.48091E+2
  -3.07071E+2   2.48267E+2
  -2.90742E+2   3.68680E+2
  -3.98109E+2  -2.05957E+2
   8.40822E+1  -2.81847E+2
  -4.62543E+1  -1.52434E+2
   4.09561E+1   1.10754E+2
   4.62868E+1   1.86457E+2
   5.93727E+0   3.44143E+1
