 LCModel (Version 6.3-1N) Copyright: S.W. Provencher.          Ref.: Magn. Reson. Med. 30:672-679 (1993).                
 Slice_N1@11_15  28-Feb-2025 11:36:38
 27 lines in following concentration table = NCONC+1
    Conc.  %SD /Cr+PCr  Metabolite                                         
 2.43E-04   6% 2.4E-04 Mac                                                 
    4.185  31%   4.198 Cr                                                  
    3.790  33%   3.802 PCr                                                 
    8.945  12%   8.973 Ins                                                 
   10.940   8%  10.975 NAA                                                 
    5.607  18%   5.625 Tau                                                 
    3.033   9%   3.043 PCho                                                
    0.000 999%   0.000 GPC                                                 
   10.794  11%  10.827 Glu                                                 
    6.707  15%   6.728 Gln                                                 
    2.607  31%   2.615 Ala                                                 
   10.072  14%  10.104 Asc                                                 
    0.755 146%   0.757 Asp                                                 
    1.195  48%   1.199 GABA                                                
    0.868  86%   0.871 Glc                                                 
    2.662  23%   2.671 GSH                                                 
    0.000 999%   0.000 Lac                                                 
    2.000  32%   2.007 NAAG                                                
    0.000 999%   0.000 PE                                                  
    3.033   9%   3.043 GPC+PCho                                            
   12.941   7%  12.981 NAA+NAAG                                            
   17.501   9%  17.556 Glu+Gln                                             
    7.975   9%   8.000 Cr+PCr                                              
   12.941   7%  12.981 NAA+NAAG                                            
    7.975   9%   8.000 Cr+PCr                                              
   17.501   9%  17.556 Glu+Gln                                             
   6 lines in following misc. output table
  FWHM = 0.024 ppm    S/N =   4                                            
  Data shift = 0.024 ppm                                                   
  Ph:-171 deg       0.0 deg/ppm                                            
  alphaB,S = 8.8E-02,   1.5E+01                                            
   19 spline knots.   Ns = 5(1)                                            
  ( 4) 3 infls.   ( 4) 2 extrs.                                            
  480 points on ppm-axis = NY
      4.100000     4.091866     4.083733     4.075600     4.067466     4.059333     4.051199     4.043066     4.034933     4.026799
      4.018666     4.010532     4.002399     3.994265     3.986132     3.977998     3.969864     3.961731     3.953597     3.945463
      3.937330     3.929196     3.921062     3.912929     3.904795     3.896662     3.888528     3.880394     3.872261     3.864127
      3.855993     3.847860     3.839726     3.831592     3.823459     3.815325     3.807191     3.799058     3.790924     3.782790
      3.774657     3.766523     3.758389     3.750256     3.742122     3.733989     3.725855     3.717721     3.709588     3.701454
      3.693320     3.685187     3.677053     3.668919     3.660786     3.652652     3.644518     3.636385     3.628251     3.620117
      3.611984     3.603850     3.595716     3.587583     3.579449     3.571316     3.563182     3.555048     3.546915     3.538781
      3.530647     3.522514     3.514380     3.506246     3.498113     3.489979     3.481845     3.473712     3.465578     3.457444
      3.449311     3.441177     3.433043     3.424910     3.416776     3.408643     3.400509     3.392375     3.384242     3.376108
      3.367974     3.359841     3.351707     3.343573     3.335440     3.327306     3.319172     3.311039     3.302905     3.294771
      3.286638     3.278504     3.270370     3.262237     3.254103     3.245970     3.237836     3.229702     3.221569     3.213435
      3.205301     3.197168     3.189034     3.180900     3.172767     3.164633     3.156499     3.148366     3.140232     3.132098
      3.123965     3.115831     3.107697     3.099564     3.091430     3.083297     3.075163     3.067029     3.058896     3.050762
      3.042628     3.034495     3.026361     3.018227     3.010094     3.001960     2.993826     2.985693     2.977559     2.969425
      2.961292     2.953158     2.945024     2.936891     2.928757     2.920624     2.912490     2.904356     2.896223     2.888089
      2.879955     2.871822     2.863688     2.855554     2.847421     2.839287     2.831153     2.823020     2.814886     2.806752
      2.798619     2.790485     2.782351     2.774218     2.766084     2.757951     2.749817     2.741683     2.733550     2.725416
      2.717282     2.709149     2.701015     2.692881     2.684748     2.676614     2.668480     2.660347     2.652213     2.644079
      2.635946     2.627812     2.619678     2.611545     2.603411     2.595278     2.587144     2.579010     2.570877     2.562743
      2.554609     2.546476     2.538342     2.530208     2.522075     2.513941     2.505807     2.497674     2.489540     2.481406
      2.473273     2.465139     2.457006     2.448872     2.440738     2.432605     2.424471     2.416337     2.408204     2.400070
      2.391936     2.383803     2.375669     2.367535     2.359402     2.351268     2.343134     2.335001     2.326867     2.318733
      2.310600     2.302466     2.294333     2.286199     2.278065     2.269932     2.261798     2.253664     2.245531     2.237397
      2.229263     2.221130     2.212996     2.204862     2.196729     2.188595     2.180461     2.172328     2.164194     2.156060
      2.147927     2.139793     2.131660     2.123526     2.115392     2.107259     2.099125     2.090991     2.082858     2.074724
      2.066590     2.058457     2.050323     2.042189     2.034056     2.025922     2.017788     2.009655     2.001521     1.993387
      1.985254     1.977120     1.968987     1.960853     1.952719     1.944586     1.936452     1.928318     1.920185     1.912051
      1.903917     1.895784     1.887650     1.879516     1.871383     1.863249     1.855115     1.846982     1.838848     1.830714
      1.822581     1.814447     1.806314     1.798180     1.790046     1.781913     1.773779     1.765645     1.757512     1.749378
      1.741244     1.733111     1.724977     1.716843     1.708710     1.700576     1.692442     1.684309     1.676175     1.668041
      1.659908     1.651774     1.643641     1.635507     1.627373     1.619240     1.611106     1.602972     1.594839     1.586705
      1.578571     1.570438     1.562304     1.554170     1.546037     1.537903     1.529769     1.521636     1.513502     1.505368
      1.497235     1.489101     1.480968     1.472834     1.464700     1.456567     1.448433     1.440299     1.432166     1.424032
      1.415898     1.407765     1.399631     1.391497     1.383364     1.375230     1.367096     1.358963     1.350829     1.342695
      1.334562     1.326428     1.318295     1.310161     1.302027     1.293894     1.285760     1.277626     1.269493     1.261359
      1.253225     1.245092     1.236958     1.228824     1.220691     1.212557     1.204423     1.196290     1.188156     1.180022
      1.171889     1.163755     1.155622     1.147488     1.139354     1.131221     1.123087     1.114953     1.106820     1.098686
      1.090552     1.082419     1.074285     1.066151     1.058018     1.049884     1.041750     1.033617     1.025483     1.017349
      1.009216     1.001082     0.992949     0.984815     0.976681     0.968548     0.960414     0.952280     0.944147     0.936013
      0.927879     0.919746     0.911612     0.903478     0.895345     0.887211     0.879077     0.870944     0.862810     0.854676
      0.846543     0.838409     0.830276     0.822142     0.814008     0.805875     0.797741     0.789607     0.781474     0.773340
      0.765206     0.757073     0.748939     0.740805     0.732672     0.724538     0.716404     0.708271     0.700137     0.692003
      0.683870     0.675736     0.667603     0.659469     0.651335     0.643202     0.635068     0.626934     0.618801     0.610667
      0.602533     0.594400     0.586266     0.578132     0.569999     0.561865     0.553731     0.545598     0.537464     0.529330
      0.521197     0.513063     0.504930     0.496796     0.488662     0.480529     0.472395     0.464261     0.456128     0.447994
      0.439861     0.431727     0.423593     0.415460     0.407326     0.399192     0.391059     0.382925     0.374792     0.366658
      0.358524     0.350391     0.342257     0.334124     0.325990     0.317856     0.309723     0.301589     0.293455     0.285322
      0.277188     0.269055     0.260921     0.252787     0.244654     0.236520     0.228386     0.220253     0.212119     0.203986
 NY phased data points follow
   2.26766E+01  2.69207E+01  4.19987E+01  3.77722E+01  1.73797E+01  4.37041E+01  4.15908E+01  3.31777E+01  4.94284E+01  3.56470E+01
   1.59627E+01  2.71223E+01  2.41931E+01  4.08218E+00  2.06115E+01  2.17687E+01  2.94880E+00 -1.72624E+01 -2.32645E+01 -5.09093E+01
  -7.43984E+01 -2.70951E+01 -3.05898E+01 -1.09487E+01  1.73388E+01 -2.93678E+00  6.90883E+00 -2.55106E+01 -2.50093E+01 -2.06792E+01
  -4.62725E+01 -4.19075E+01 -6.30246E+01 -6.21398E+01 -6.46013E+01 -8.43612E+01 -8.53774E+01 -1.00622E+02 -1.25599E+02 -1.33377E+02
  -1.50256E+02 -1.64595E+02 -1.43053E+02 -1.47336E+02 -1.22996E+02 -7.45756E+01 -5.87180E+01 -3.91012E+01 -4.58504E+01 -5.27622E+01
  -5.39233E+01 -5.71255E+01 -5.60934E+01 -6.42740E+01 -7.44519E+01 -8.29474E+01 -7.53160E+01 -7.18638E+01 -9.79972E+01 -9.57322E+01
  -6.84059E+01 -7.75717E+01 -5.39818E+01 -3.68007E+01 -2.27460E+01  1.29121E+00 -2.44299E+01 -2.68721E+01 -5.53798E+01 -8.26387E+01
  -7.64094E+01 -4.85946E+01 -3.48751E+01 -3.45971E+01  8.22635E+00  3.71337E+00  1.94694E+01  2.78936E+01  1.26626E+01  1.10648E+01
   3.37040E+00  4.58054E+00 -1.26214E+01 -1.51600E+01 -5.52395E+01 -4.34651E+01 -2.99979E+01 -3.42962E+01  2.70119E+01  1.56578E+01
   9.41726E+00  1.50555E+01  2.80221E+01  4.34713E+01  3.21524E+01  5.89336E+01  4.88813E+01  4.27385E+01  5.24355E+01  2.10284E+01
   2.56172E+01  2.28411E+01 -1.81923E+01 -1.49931E+01 -3.10233E+01 -4.54892E+01 -3.21018E+01 -5.29716E+01 -8.08218E+01 -1.50290E+02
  -2.10123E+02 -1.98291E+02 -1.46866E+02 -1.03538E+02 -9.68973E+01 -6.91327E+01 -5.31829E+01 -5.41903E+01 -3.32317E+01 -3.64760E+01
  -3.36027E+01 -2.68550E+01 -2.06949E+01  6.06398E-01 -1.93225E-01  1.39835E+01  2.29776E+01  3.47690E+01  5.36921E+01  6.68984E+01
   1.13691E+02  9.02183E+01 -3.73829E+01 -1.33092E+02 -1.31244E+02 -1.25414E+02 -1.22676E+02 -9.39446E+01 -9.39474E+01 -1.06156E+02
  -8.90367E+01 -7.97721E+01 -9.07021E+01 -7.34057E+01 -8.79290E+01 -7.43563E+01 -5.89707E+01 -7.88006E+01 -6.76415E+01 -8.88654E+01
  -5.98625E+01 -5.12530E+01 -6.78634E+01 -3.69872E+01 -4.28583E+01 -4.09757E+01 -3.98394E+01 -5.45736E+01 -5.14594E+01 -3.72049E+01
  -4.54341E+01 -4.35456E+01 -3.74904E+01 -5.15822E+01 -5.50599E+01 -3.73722E+01 -2.68258E+01 -4.41968E+01 -3.66210E+01 -4.51804E+01
  -3.37634E+01 -5.69713E-01  1.30650E+00  1.19796E+01 -1.08553E+01 -3.26833E+01 -1.19083E+01  7.95996E+00 -2.21537E+01 -5.70361E+01
  -4.90316E+01 -5.22824E+01 -6.41410E+01 -6.12758E+01 -5.31726E+01 -5.27024E+01 -5.70948E+01 -4.90852E+01 -4.40951E+01 -4.17677E+01
  -4.58928E+01 -5.73104E+01 -3.45827E+01 -2.75336E+01 -1.88559E+01 -1.50977E+01 -4.11474E+01 -3.01732E+01 -2.06757E+01 -1.34468E+01
  -2.76935E+01 -1.97417E+01  7.72886E+00 -8.10331E-01 -4.76113E+00 -1.00315E+01 -6.86574E+00 -3.52455E+01 -5.71442E+01 -4.86240E+01
  -3.60353E+01 -3.62768E+01 -3.50164E+01 -1.17447E+01 -7.65332E+00  1.89377E+01  4.14500E+01  4.56899E+01  4.22844E+01  2.59808E+01
  -1.35472E+01 -2.48534E+01 -8.33040E+00 -3.30575E+01 -2.06077E+01 -2.02655E+01 -2.96179E+01 -1.81893E+01 -1.97245E+01 -2.07962E+01
  -2.31186E+01 -2.08093E+01 -3.21037E+01 -4.64458E+01 -6.78369E+01 -6.22649E+01 -6.88865E+01 -7.99987E+01 -7.51505E+01 -8.43281E+01
  -6.02748E+01 -5.12677E+01 -4.10528E+01 -2.61834E+01 -1.56145E+01  1.02016E+00 -9.86030E+00 -1.26846E+01 -1.74951E+01 -3.90735E+01
  -3.42681E+01 -3.47843E+01 -4.65434E+01 -3.58000E+01 -4.23019E+01 -6.04290E+01 -9.09713E+01  1.05696E+01  1.71895E+02  1.65096E+02
   1.63010E+02  1.63725E+02  1.25550E+02  1.13419E+02  9.65003E+01  8.17691E+01  7.62911E+01  8.22175E+01  5.47884E+01  4.87940E+01
   7.22465E+01  6.84274E+01  5.85443E+01  6.19725E+01  7.20430E+01  6.33444E+01  6.57747E+01  6.61276E+01  5.70773E+01  6.20153E+01
   5.32908E+01  5.58741E+01  7.38353E+01  7.12196E+01  6.36575E+01  5.08429E+01  4.50377E+01  5.79186E+01  6.03457E+01  3.75860E+01
   3.81236E+01  6.34233E+01  4.50571E+01  4.76991E+01  5.00572E+01  3.55544E+01  4.69946E+01  3.36395E+01  4.74025E+01  5.09381E+01
   3.79706E+01  5.45967E+01  6.37356E+01  5.93421E+01  5.49112E+01  7.78564E+01  6.95896E+01  6.39147E+01  7.53775E+01  6.89539E+01
   8.04904E+01  6.92620E+01  6.45297E+01  7.01035E+01  5.60434E+01  4.34908E+01  4.66282E+01  6.89472E+01  5.20012E+01  3.13081E+01
   4.56093E+01  1.97286E+01 -1.37585E+00  1.87404E+01  7.45807E+00  2.08175E+00  1.55065E+01  3.22098E+00 -2.02010E+00  7.88927E+00
  -7.77335E+00 -3.48937E+01 -3.58508E+01 -4.13419E+01 -4.47193E+01 -4.91721E+01 -4.96652E+01 -2.96412E+01 -1.72624E+01  9.50515E+00
   8.70508E+00  4.63310E+00  1.95161E+01  6.82831E+00  4.67519E+00  1.17058E+01  2.68404E+01  1.86999E+01  1.70663E+00  1.64131E+01
   1.43025E+01  3.02590E-01 -5.40813E+00 -7.30258E+00  2.28939E+00  6.50776E+00 -3.29245E+00 -8.60954E+00 -2.78773E+01 -3.32270E+01
  -2.28701E+01 -2.30247E+01 -2.74724E+01 -4.39186E+01 -2.80330E+01 -1.88206E+01 -2.28038E+01 -6.64390E+00  1.88355E+00 -4.07459E+00
  -1.58874E+01  1.64020E+01  2.17746E+01  3.46805E+00  2.07164E+01  1.37794E+01  3.38518E+01  4.62655E+01  2.95191E+01  5.85793E+01
   6.57298E+01  5.80761E+01  6.50861E+01  6.44613E+01  8.28327E+01  1.02888E+02  9.92666E+01  1.02675E+02  1.24796E+02  1.13160E+02
   1.01511E+02  1.05915E+02  7.37285E+01  3.55456E+01  3.66343E+01  4.48847E+01  2.60504E+01  2.59628E+01  2.42426E+01  2.34913E+01
   1.19511E+01 -1.02920E+01 -1.49860E+01 -3.03402E+01 -2.61299E+01 -4.13875E+01 -3.54216E+01 -3.95472E+01 -5.47134E+01 -2.97159E+01
  -4.70743E+01 -3.98493E+01 -3.39258E+01 -4.21396E+01 -4.33827E+01 -4.02230E+01 -2.49236E+01 -2.42171E+01 -2.10315E+01 -2.89921E+01
  -2.54344E+01 -3.19877E+01 -3.79462E+01 -3.67536E+01 -2.84178E+01 -2.55318E+01 -3.03754E+01 -2.06846E+01 -2.99577E+01 -2.44718E+01
  -3.40748E+01 -3.38306E+01 -2.74163E+01 -2.95089E+01 -2.64559E+01 -2.58809E+01 -2.17436E+01 -3.74987E+01 -9.47649E+00 -2.10417E+01
  -3.97987E+01 -1.44641E+01 -2.13567E+01 -1.69901E+01 -8.65919E+00 -1.24996E+01 -2.57637E+01 -1.51130E+01 -1.45647E+01 -1.63990E+01
  -1.60582E+01 -2.59675E+01 -1.42825E+01 -1.79817E+01 -1.70965E+01 -1.99926E+01 -1.87096E+01 -1.04801E+01 -1.52655E+01 -2.29742E+01
  -1.97329E+01 -2.01627E+01 -2.62418E+01 -1.62303E+01 -1.75219E+01 -1.08012E+01 -1.41804E+01 -1.10060E+01 -7.58971E+00 -1.44482E+01
  -1.30618E+01 -3.22469E+01 -2.89059E+01 -2.94919E+01 -3.23211E+01 -2.40590E+01 -2.46715E+01 -2.69747E+01 -2.80011E+01 -2.88250E+01
 NY points of the fit to the data follow
   9.92746E+00  9.68464E-01 -9.00542E+00 -1.43996E+01 -8.25430E+00  7.20061E+00  1.72469E+01  1.33921E+01 -6.84043E-03 -1.22963E+01
  -1.75663E+01 -1.47782E+01 -6.76730E+00  2.17294E-01  1.20209E+00 -5.19925E+00 -1.47077E+01 -2.64667E+01 -3.99613E+01 -5.23417E+01
  -5.70082E+01 -4.79688E+01 -2.84187E+01 -4.05998E+00  1.80644E+01  2.75156E+01  2.35774E+01  1.63162E+01  9.86091E+00  4.86559E+00
   9.62862E-01 -3.83614E+00 -9.77260E+00 -1.78146E+01 -2.81366E+01 -4.20946E+01 -5.65680E+01 -7.59063E+01 -1.04067E+02 -1.35460E+02
  -1.54431E+02 -1.50500E+02 -1.34910E+02 -1.18266E+02 -9.80209E+01 -7.12855E+01 -4.44880E+01 -2.23485E+01 -7.92369E+00 -2.47412E+00
  -5.10874E+00 -1.11306E+01 -1.91179E+01 -3.39866E+01 -5.23217E+01 -6.59306E+01 -7.33248E+01 -7.68130E+01 -7.64312E+01 -6.86502E+01
  -5.64705E+01 -4.71534E+01 -3.66537E+01 -2.29372E+01 -1.45861E+01 -1.32079E+01 -2.06815E+01 -4.24931E+01 -7.02262E+01 -8.56198E+01
  -8.13812E+01 -6.87233E+01 -5.63706E+01 -4.05177E+01 -2.29878E+01 -1.07872E+01 -4.78207E+00 -2.57548E+00 -3.60866E+00 -6.30857E+00
  -1.23666E+01 -2.25740E+01 -3.47406E+01 -4.58614E+01 -5.07812E+01 -4.68786E+01 -3.60358E+01 -2.20617E+01 -9.31132E+00 -7.74137E-01
   5.22320E+00  1.00479E+01  1.46349E+01  1.92737E+01  2.31354E+01  2.76514E+01  3.14251E+01  3.20449E+01  2.99315E+01  2.83425E+01
   2.58894E+01  2.05197E+01  1.16909E+01  3.73238E+00 -1.20787E+01 -2.65768E+01 -2.73927E+01 -3.32321E+01 -7.76761E+01 -1.53155E+02
  -2.01064E+02 -1.90034E+02 -1.48935E+02 -1.11588E+02 -8.57848E+01 -7.34321E+01 -6.61636E+01 -5.88254E+01 -5.15405E+01 -4.42643E+01
  -3.66599E+01 -2.84329E+01 -1.92963E+01 -9.29905E+00  1.93726E+00  1.54642E+01  3.18517E+01  3.99333E+01  4.65323E+01  6.21910E+01
   7.37605E+01  4.66307E+01 -2.69352E+01 -9.74831E+01 -1.22600E+02 -1.14999E+02 -9.95985E+01 -8.55670E+01 -7.99108E+01 -7.91739E+01
  -7.93804E+01 -8.06876E+01 -8.23521E+01 -8.31214E+01 -8.30095E+01 -8.17089E+01 -7.88079E+01 -7.53338E+01 -7.23219E+01 -6.98100E+01
  -6.77824E+01 -6.59035E+01 -6.40279E+01 -6.19948E+01 -5.98239E+01 -5.77072E+01 -5.59218E+01 -5.47769E+01 -5.41949E+01 -5.34945E+01
  -5.22297E+01 -5.06332E+01 -4.95873E+01 -4.90942E+01 -4.81547E+01 -4.62439E+01 -4.41398E+01 -4.28693E+01 -4.21125E+01 -3.92231E+01
  -3.09423E+01 -1.90409E+01 -1.13380E+01 -1.40549E+01 -2.23353E+01 -2.40623E+01 -1.72874E+01 -1.19927E+01 -1.73832E+01 -3.15788E+01
  -4.50488E+01 -5.24535E+01 -5.52490E+01 -5.53829E+01 -5.46663E+01 -5.38332E+01 -5.23665E+01 -5.12090E+01 -4.94722E+01 -4.59489E+01
  -4.21170E+01 -3.96572E+01 -3.65742E+01 -2.97102E+01 -2.18089E+01 -1.97779E+01 -2.12622E+01 -1.92344E+01 -1.50607E+01 -1.30880E+01
  -1.25712E+01 -8.68596E+00 -7.97754E-01  5.31051E+00  4.79993E+00 -1.23285E+00 -1.04719E+01 -2.18995E+01 -3.28510E+01 -4.21005E+01
  -4.59922E+01 -4.49612E+01 -3.73542E+01 -2.08747E+01  1.24365E+00  2.49663E+01  4.15348E+01  4.62058E+01  4.25830E+01  3.21852E+01
   1.93231E+01  1.29653E+01  1.19176E+01  1.28334E+01  1.32625E+01  9.88853E+00  2.98376E+00 -6.76065E+00 -1.82328E+01 -3.02718E+01
  -4.23575E+01 -5.35728E+01 -6.40868E+01 -7.34043E+01 -8.08707E+01 -8.62393E+01 -8.86287E+01 -8.75116E+01 -8.34703E+01 -7.56201E+01
  -6.66273E+01 -5.47079E+01 -4.00457E+01 -2.69614E+01 -1.62896E+01 -1.05747E+01 -1.17664E+01 -1.72261E+01 -2.43235E+01 -3.06197E+01
  -3.97809E+01 -5.49017E+01 -5.74328E+01 -4.81845E+01 -5.29598E+01 -7.28911E+01 -6.19214E+01  1.57409E+01  1.13071E+02  1.60874E+02
   1.57737E+02  1.35366E+02  1.12093E+02  9.89895E+01  9.35096E+01  8.89449E+01  8.41733E+01  7.96369E+01  7.58690E+01  7.32589E+01
   7.21231E+01  7.20645E+01  7.28746E+01  7.40892E+01  7.49432E+01  7.53299E+01  7.53332E+01  7.47514E+01  7.37167E+01  7.20655E+01
   6.99636E+01  6.78500E+01  6.57915E+01  6.37115E+01  6.14334E+01  5.90490E+01  5.66105E+01  5.38564E+01  5.07310E+01  4.72799E+01
   4.37134E+01  4.02474E+01  3.70845E+01  3.46975E+01  3.35703E+01  3.38104E+01  3.51620E+01  3.71379E+01  3.92176E+01  4.12792E+01
   4.34074E+01  4.55555E+01  4.75779E+01  4.94097E+01  5.10076E+01  5.25248E+01  5.41935E+01  5.61786E+01  5.82887E+01  6.01305E+01
   6.15826E+01  6.28639E+01  6.40967E+01  6.52061E+01  6.59895E+01  6.64858E+01  6.65250E+01  6.47570E+01  6.28229E+01  5.93935E+01
   5.18903E+01  3.83536E+01  2.10298E+01  5.74681E+00 -4.79724E+00 -9.94507E+00 -1.02311E+01 -1.01575E+01 -1.31508E+01 -1.73025E+01
  -2.16012E+01 -2.46304E+01 -2.53189E+01 -2.37980E+01 -2.05462E+01 -1.65393E+01 -1.28387E+01 -1.00756E+01 -8.24124E+00 -6.77727E+00
  -4.96667E+00 -2.42135E+00  6.63493E-01  3.78891E+00  6.22989E+00  7.38190E+00  7.37459E+00  6.75199E+00  5.61077E+00  3.71047E+00
   1.07086E+00 -2.35346E+00 -6.42866E+00 -1.06161E+01 -1.39998E+01 -1.58798E+01 -1.62759E+01 -1.54330E+01 -1.35800E+01 -1.11126E+01
  -8.25886E+00 -5.18221E+00 -2.11762E+00  8.76024E-01  3.65396E+00  6.15112E+00  8.53084E+00  1.09222E+01  1.34530E+01  1.61196E+01
   1.88563E+01  2.16407E+01  2.46611E+01  2.81922E+01  3.23420E+01  3.69005E+01  4.18216E+01  4.74100E+01  5.35632E+01  5.98968E+01
   6.63850E+01  7.31263E+01  7.96396E+01  8.50900E+01  8.87156E+01  8.96220E+01  8.70335E+01  8.07075E+01  7.15464E+01  6.14085E+01
   5.21291E+01  4.44142E+01  3.81614E+01  3.28701E+01  2.75624E+01  2.13946E+01  1.41244E+01  6.35777E+00 -1.31049E+00 -8.13609E+00
  -1.34699E+01 -1.72529E+01 -1.99498E+01 -2.18483E+01 -2.30885E+01 -2.39029E+01 -2.45611E+01 -2.52658E+01 -2.60414E+01 -2.67410E+01
  -2.71146E+01 -2.71496E+01 -2.71075E+01 -2.71354E+01 -2.70592E+01 -2.69020E+01 -2.69177E+01 -2.70979E+01 -2.70462E+01 -2.66656E+01
  -2.63804E+01 -2.63858E+01 -2.63789E+01 -2.61958E+01 -2.60463E+01 -2.60132E+01 -2.59559E+01 -2.56801E+01 -2.52507E+01 -2.49546E+01
  -2.48484E+01 -2.49100E+01 -2.49713E+01 -2.49195E+01 -2.46830E+01 -2.43369E+01 -2.39406E+01 -2.35691E+01 -2.33198E+01 -2.31665E+01
  -2.30359E+01 -2.28972E+01 -2.28988E+01 -2.30179E+01 -2.30502E+01 -2.29058E+01 -2.26610E+01 -2.23758E+01 -2.21499E+01 -2.20411E+01
  -2.20270E+01 -2.19802E+01 -2.17643E+01 -2.14650E+01 -2.12117E+01 -2.09937E+01 -2.08643E+01 -2.08000E+01 -2.06968E+01 -2.05937E+01
  -2.05881E+01 -2.06744E+01 -2.07811E+01 -2.07687E+01 -2.06723E+01 -2.04622E+01 -2.01188E+01 -1.97416E+01 -1.95557E+01 -1.96890E+01
  -2.00499E+01 -2.03632E+01 -2.04714E+01 -2.04655E+01 -2.04553E+01 -2.04175E+01 -2.03886E+01 -2.04602E+01 -2.06121E+01 -2.05833E+01
 NY background values follow
     4.752E+01    4.521E+01    4.288E+01    4.055E+01    3.821E+01    3.588E+01    3.354E+01    3.120E+01    2.887E+01    2.654E+01
     2.422E+01    2.191E+01    1.962E+01    1.733E+01    1.507E+01    1.282E+01    1.060E+01    8.399E+00    6.224E+00    4.075E+00
     1.957E+00   -1.294E-01   -2.182E+00   -4.198E+00   -6.177E+00   -8.114E+00   -1.001E+01   -1.186E+01   -1.366E+01   -1.542E+01
    -1.712E+01   -1.877E+01   -2.037E+01   -2.192E+01   -2.341E+01   -2.485E+01   -2.624E+01   -2.758E+01   -2.887E+01   -3.010E+01
    -3.129E+01   -3.242E+01   -3.351E+01   -3.455E+01   -3.553E+01   -3.647E+01   -3.736E+01   -3.820E+01   -3.899E+01   -3.973E+01
    -4.043E+01   -4.108E+01   -4.168E+01   -4.223E+01   -4.274E+01   -4.320E+01   -4.361E+01   -4.398E+01   -4.431E+01   -4.459E+01
    -4.482E+01   -4.501E+01   -4.516E+01   -4.526E+01   -4.533E+01   -4.535E+01   -4.534E+01   -4.530E+01   -4.522E+01   -4.510E+01
    -4.496E+01   -4.479E+01   -4.459E+01   -4.436E+01   -4.411E+01   -4.384E+01   -4.354E+01   -4.322E+01   -4.289E+01   -4.254E+01
    -4.217E+01   -4.179E+01   -4.139E+01   -4.098E+01   -4.057E+01   -4.014E+01   -3.971E+01   -3.928E+01   -3.884E+01   -3.839E+01
    -3.795E+01   -3.751E+01   -3.707E+01   -3.663E+01   -3.619E+01   -3.574E+01   -3.530E+01   -3.487E+01   -3.443E+01   -3.399E+01
    -3.355E+01   -3.311E+01   -3.267E+01   -3.223E+01   -3.179E+01   -3.135E+01   -3.091E+01   -3.047E+01   -3.003E+01   -2.959E+01
    -2.915E+01   -2.871E+01   -2.827E+01   -2.783E+01   -2.739E+01   -2.694E+01   -2.650E+01   -2.605E+01   -2.561E+01   -2.516E+01
    -2.472E+01   -2.427E+01   -2.382E+01   -2.337E+01   -2.292E+01   -2.248E+01   -2.203E+01   -2.158E+01   -2.114E+01   -2.070E+01
    -2.025E+01   -1.982E+01   -1.938E+01   -1.895E+01   -1.852E+01   -1.810E+01   -1.768E+01   -1.726E+01   -1.685E+01   -1.644E+01
    -1.604E+01   -1.565E+01   -1.526E+01   -1.488E+01   -1.450E+01   -1.414E+01   -1.378E+01   -1.342E+01   -1.308E+01   -1.274E+01
    -1.242E+01   -1.210E+01   -1.179E+01   -1.149E+01   -1.120E+01   -1.091E+01   -1.064E+01   -1.037E+01   -1.011E+01   -9.860E+00
    -9.616E+00   -9.379E+00   -9.150E+00   -8.927E+00   -8.711E+00   -8.502E+00   -8.299E+00   -8.102E+00   -7.912E+00   -7.728E+00
    -7.549E+00   -7.376E+00   -7.209E+00   -7.047E+00   -6.890E+00   -6.738E+00   -6.591E+00   -6.448E+00   -6.310E+00   -6.176E+00
    -6.046E+00   -5.921E+00   -5.798E+00   -5.679E+00   -5.562E+00   -5.447E+00   -5.334E+00   -5.222E+00   -5.110E+00   -4.999E+00
    -4.888E+00   -4.777E+00   -4.664E+00   -4.550E+00   -4.434E+00   -4.316E+00   -4.195E+00   -4.071E+00   -3.943E+00   -3.811E+00
    -3.675E+00   -3.534E+00   -3.387E+00   -3.235E+00   -3.076E+00   -2.910E+00   -2.737E+00   -2.557E+00   -2.369E+00   -2.172E+00
    -1.966E+00   -1.752E+00   -1.529E+00   -1.298E+00   -1.061E+00   -8.163E-01   -5.663E-01   -3.109E-01   -5.084E-02    2.133E-01
     4.809E-01    7.514E-01    1.024E+00    1.299E+00    1.574E+00    1.850E+00    2.126E+00    2.401E+00    2.675E+00    2.947E+00
     3.216E+00    3.483E+00    3.745E+00    4.003E+00    4.256E+00    4.504E+00    4.745E+00    4.980E+00    5.208E+00    5.427E+00
     5.638E+00    5.840E+00    6.033E+00    6.218E+00    6.393E+00    6.561E+00    6.719E+00    6.869E+00    7.010E+00    7.143E+00
     7.268E+00    7.384E+00    7.491E+00    7.591E+00    7.682E+00    7.765E+00    7.839E+00    7.906E+00    7.964E+00    8.014E+00
     8.056E+00    8.091E+00    8.117E+00    8.135E+00    8.146E+00    8.148E+00    8.143E+00    8.130E+00    8.110E+00    8.082E+00
     8.046E+00    8.002E+00    7.951E+00    7.892E+00    7.826E+00    7.752E+00    7.669E+00    7.580E+00    7.482E+00    7.376E+00
     7.262E+00    7.141E+00    7.011E+00    6.873E+00    6.727E+00    6.573E+00    6.411E+00    6.241E+00    6.062E+00    5.875E+00
     5.680E+00    5.476E+00    5.264E+00    5.043E+00    4.814E+00    4.577E+00    4.331E+00    4.076E+00    3.812E+00    3.540E+00
     3.260E+00    2.970E+00    2.673E+00    2.368E+00    2.055E+00    1.735E+00    1.408E+00    1.075E+00    7.351E-01    3.896E-01
     3.862E-02   -3.176E-01   -6.786E-01   -1.044E+00   -1.414E+00   -1.788E+00   -2.165E+00   -2.546E+00   -2.929E+00   -3.315E+00
    -3.703E+00   -4.093E+00   -4.485E+00   -4.877E+00   -5.271E+00   -5.665E+00   -6.060E+00   -6.454E+00   -6.848E+00   -7.242E+00
    -7.634E+00   -8.024E+00   -8.413E+00   -8.799E+00   -9.182E+00   -9.562E+00   -9.938E+00   -1.031E+01   -1.068E+01   -1.104E+01
    -1.139E+01   -1.174E+01   -1.208E+01   -1.242E+01   -1.274E+01   -1.306E+01   -1.337E+01   -1.367E+01   -1.396E+01   -1.424E+01
    -1.451E+01   -1.477E+01   -1.502E+01   -1.525E+01   -1.547E+01   -1.568E+01   -1.587E+01   -1.606E+01   -1.622E+01   -1.637E+01
    -1.651E+01   -1.663E+01   -1.673E+01   -1.682E+01   -1.690E+01   -1.697E+01   -1.702E+01   -1.706E+01   -1.709E+01   -1.711E+01
    -1.713E+01   -1.713E+01   -1.712E+01   -1.711E+01   -1.709E+01   -1.706E+01   -1.703E+01   -1.699E+01   -1.694E+01   -1.690E+01
    -1.685E+01   -1.679E+01   -1.674E+01   -1.668E+01   -1.662E+01   -1.657E+01   -1.651E+01   -1.645E+01   -1.640E+01   -1.635E+01
    -1.630E+01   -1.625E+01   -1.621E+01   -1.616E+01   -1.613E+01   -1.609E+01   -1.605E+01   -1.602E+01   -1.599E+01   -1.596E+01
    -1.593E+01   -1.590E+01   -1.588E+01   -1.585E+01   -1.583E+01   -1.580E+01   -1.578E+01   -1.575E+01   -1.573E+01   -1.570E+01
    -1.567E+01   -1.565E+01   -1.562E+01   -1.559E+01   -1.556E+01   -1.553E+01   -1.550E+01   -1.546E+01   -1.542E+01   -1.538E+01
    -1.534E+01   -1.530E+01   -1.525E+01   -1.520E+01   -1.515E+01   -1.510E+01   -1.505E+01   -1.500E+01   -1.494E+01   -1.488E+01
    -1.483E+01   -1.477E+01   -1.472E+01   -1.466E+01   -1.460E+01   -1.455E+01   -1.449E+01   -1.443E+01   -1.438E+01   -1.433E+01
    -1.428E+01   -1.423E+01   -1.418E+01   -1.413E+01   -1.408E+01   -1.404E+01   -1.400E+01   -1.396E+01   -1.393E+01   -1.390E+01
    -1.387E+01   -1.384E+01   -1.382E+01   -1.380E+01   -1.378E+01   -1.377E+01   -1.376E+01   -1.375E+01   -1.374E+01   -1.374E+01
    -1.373E+01   -1.373E+01   -1.374E+01   -1.374E+01   -1.375E+01   -1.375E+01   -1.376E+01   -1.378E+01   -1.379E+01   -1.380E+01
    -1.382E+01   -1.384E+01   -1.385E+01   -1.387E+01   -1.389E+01   -1.392E+01   -1.394E+01   -1.396E+01   -1.399E+01   -1.401E+01
 Mac      Conc. = 2.43E-04
   2.98805E+01  2.72704E+01  2.46461E+01  2.17606E+01  1.84579E+01  1.47778E+01  1.08353E+01  6.95665E+00  3.43954E+00  4.21327E-01
  -2.19179E+00 -4.65853E+00 -7.10438E+00 -9.95313E+00 -1.34759E+01 -1.66243E+01 -1.77395E+01 -1.64895E+01 -1.42908E+01 -1.26876E+01
  -1.17351E+01 -1.14430E+01 -1.20962E+01 -1.33384E+01 -1.45321E+01 -1.54054E+01 -1.58814E+01 -1.60334E+01 -1.62223E+01 -1.67576E+01
  -1.77030E+01 -1.88336E+01 -2.01483E+01 -2.17439E+01 -2.34126E+01 -2.45256E+01 -2.45198E+01 -2.37007E+01 -2.31525E+01 -2.37137E+01
  -2.51361E+01 -2.64047E+01 -2.69305E+01 -2.68531E+01 -2.68693E+01 -2.75454E+01 -2.88955E+01 -3.06917E+01 -3.27404E+01 -3.48096E+01
  -3.65614E+01 -3.78569E+01 -3.87982E+01 -3.95627E+01 -4.00427E+01 -4.00021E+01 -3.93282E+01 -3.83767E+01 -3.75506E+01 -3.68569E+01
  -3.61885E+01 -3.59460E+01 -3.63724E+01 -3.73156E+01 -3.83922E+01 -3.91088E+01 -3.92928E+01 -3.92535E+01 -3.89644E+01 -3.78285E+01
  -3.57479E+01 -3.33284E+01 -3.14606E+01 -3.03827E+01 -2.99819E+01 -3.01394E+01 -3.06240E+01 -3.11450E+01 -3.14684E+01 -3.15408E+01
  -3.13731E+01 -3.10117E+01 -3.01825E+01 -2.90095E+01 -2.77204E+01 -2.64703E+01 -2.53337E+01 -2.43530E+01 -2.34910E+01 -2.27376E+01
  -2.21148E+01 -2.16738E+01 -2.15455E+01 -2.18198E+01 -2.27236E+01 -2.42017E+01 -2.60519E+01 -2.79369E+01 -2.94917E+01 -3.07156E+01
  -3.21224E+01 -3.42227E+01 -3.69631E+01 -4.03711E+01 -4.47080E+01 -4.97219E+01 -5.43992E+01 -5.72607E+01 -5.76033E+01 -5.58290E+01
