 
 $NMID
 ID=''
 FMTDAT='(2E13.5)'
 TRAMP=   1.00000E+0
 VOLUME=   1.00000E+0
 $END
   8.48733E+3  -1.64324E+4
  -6.84653E+3  -1.78558E+4
  -1.25845E+4   1.10283E+4
   1.71746E+4   1.94521E+4
   1.41497E+4  -1.34299E+4
  -1.50539E+4  -1.49845E+4
  -6.01481E+3   1.33185E+4
   1.36896E+4   7.60597E+3
   1.93245E+3  -7.76215E+3
  -7.71953E+3   3.24388E+3
   1.25978E+2   8.68944E+3
   3.55893E+3  -2.34812E+3
   4.52066E+1  -4.83789E+3
  -3.24133E+3   3.76377E+1
  -3.81890E+3   6.87377E+2
   2.04209E+3  -9.97695E+2
   3.49417E+3  -1.68673E+3
  -2.59956E+3   3.73547E+2
  -2.51185E+3   2.89949E+3
   1.96737E+3   1.08870E+3
   5.98123E+2  -2.34981E+3
  -5.16023E+2  -9.11029E+2
   1.24005E+3   2.80523E+3
   3.99215E+2   1.64602E+3
  -2.94001E+2  -2.86654E+3
   1.19986E+3  -1.61228E+3
   9.83225E+2   4.14010E+3
  -1.06108E+3   1.99625E+3
  -1.45510E+3  -4.47820E+3
   3.22140E+2  -1.10103E+3
   3.25795E+2   4.25663E+3
  -1.77312E+3   9.08556E+2
  -1.81431E+3  -2.98470E+3
   4.64044E+1  -1.61106E+3
   1.00525E+3  -5.43147E+2
   1.20680E+3  -5.07589E+2
   1.89167E+2   8.36881E+2
  -4.84647E+2   1.55648E+3
  -2.45831E+2   3.68884E+2
  -4.42756E+2  -5.36854E+2
  -1.40750E+3  -6.61650E+2
  -9.25812E+2  -1.28833E+2
   1.15857E+3   7.01766E+1
   1.35980E+3  -6.94669E+2
   1.32820E+3  -4.06878E+2
   5.85472E+2   1.76367E+3
  -1.42856E+3   2.59722E+3
  -3.12885E+3   4.92501E+1
  -1.17438E+3  -2.52288E+3
   5.06815E+2  -9.95641E+2
   3.46199E+2   5.03599E+2
  -2.65811E+1  -6.98591E+2
   4.83232E+2  -6.15464E+2
   7.03353E+2   1.53113E+3
   3.32772E+2   1.13673E+3
  -1.88514E+2  -3.50422E+2
  -8.11458E+2  -3.37347E+2
  -9.05112E+1  -3.55977E+2
   9.15734E+2  -8.35430E+2
   9.26786E+2  -5.54904E+2
   7.10577E+2   9.10859E+2
   6.11405E+2   1.82251E+3
  -7.82988E+0   1.39710E+3
  -1.36220E+3   4.11548E+2
  -1.56933E+3  -4.66079E+2
  -5.45985E+2  -7.75770E+2
   2.72435E+2  -1.68487E+3
   1.28263E+3  -9.35387E+2
   1.62168E+3   5.46547E+2
  -2.04288E+1   1.14749E+3
  -7.56601E+2   1.29250E+2
   8.27688E+2  -8.76793E+2
   1.34300E+3   6.04209E+2
   2.35646E+2   1.14600E+3
  -6.09327E+2   3.34795E+2
  -4.65947E+1  -4.68497E+2
   6.38747E+2   3.92126E+2
  -4.24351E+1   8.40425E+2
  -6.94640E+1   3.68562E+2
  -1.35865E+2  -7.55608E+1
  -4.86572E+2  -3.03409E+2
  -8.23570E+1  -2.38159E+2
   5.35422E+2  -7.36585E+1
   2.06012E+2  -1.10737E+2
   1.72089E+2  -3.15914E+2
   6.14194E+2  -6.59319E+2
   8.99507E+2  -1.46139E+2
   1.88613E+2   5.25740E+2
  -1.47460E+2   4.88595E+2
   5.03509E+2   1.62130E+2
   8.38310E+2   3.21615E+2
  -1.57421E+1   6.68261E+2
  -9.38864E+2   6.80825E+2
  -8.93746E+2  -3.06164E+2
  -2.52203E+2  -8.51602E+2
   6.69014E+2  -8.93417E+2
   6.46166E+2  -1.83935E+2
  -1.43465E+2   1.00179E+2
   1.46591E+2  -3.33304E+2
   7.05212E+2  -1.43727E+2
   5.97037E+2   5.35516E+2
  -2.95817E+2   5.74244E+2
  -6.98985E+2  -3.48116E+2
  -2.55483E+2  -8.89931E+2
   2.43005E+2  -4.22854E+2
   5.68980E+2   4.21412E+2
  -1.93536E+2   4.92748E+2
  -8.09801E+2  -2.73192E+2
  -2.56294E+2  -1.28872E+3
   7.91059E+2  -7.87329E+2
   1.32685E+3   3.40912E+2
   2.76836E+2   9.33462E+2
  -3.30143E+2   5.61428E+2
  -1.04480E+2   1.09238E+2
  -1.33413E+2   3.16244E+2
  -4.73314E+2   3.98612E+2
  -7.75847E+2  -5.82275E+1
  -4.43532E+2  -1.11953E+3
   3.30359E+2  -1.10377E+3
   8.63162E+2  -3.17854E+2
   6.45322E+2   2.53014E+2
   5.20247E+2   4.42249E+2
   2.35392E+2   2.34453E+2
   8.24977E+1   3.62905E+2
  -3.32987E+2   2.65577E+2
  -2.23751E+2  -4.13162E+2
   1.32990E+1  -1.61013E+2
   3.52151E+2  -4.12909E+2
   2.66825E+2  -1.72192E+2
  -1.69578E+2   4.30648E+2
  -3.00543E+2   2.91741E+2
  -4.11642E+2  -3.05227E+2
  -1.01366E+2  -4.68693E+2
   3.69997E+2  -1.30176E+2
   9.83213E+0  -3.45818E+1
  -2.25359E+2  -2.36602E+2
   9.15643E+1  -1.92991E+2
   4.04177E+2   4.79692E+2
  -1.02283E+2   2.66629E+2
  -4.76885E+2  -2.00759E+2
  -2.89489E+2  -5.67348E+2
   2.09705E+2  -3.79734E+2
   6.33413E+2  -1.84433E+2
   1.17286E+2   6.59292E+2
  -5.66403E+2   4.75317E+2
  -6.17105E+2  -2.35014E+2
  -1.78758E+2  -2.12780E+2
  -1.85992E+2  -3.17307E+2
  -2.32958E+2  -2.75865E+2
  -2.43648E+2  -3.48390E+2
   4.93334E+1  -5.61139E+2
   4.03852E+2  -2.13117E+2
   2.63576E+2   2.91403E+2
  -1.58873E+2   5.96511E+2
  -4.04102E+2   1.47221E+2
   7.00223E+1  -2.80958E+2
   5.50033E+1   3.22003E+2
   2.00798E+1   3.06240E+2
  -3.94244E+2   5.38283E+1
  -1.82938E+2  -2.36859E+1
  -2.41965E+2   5.13944E+2
  -3.41959E+2   1.84448E+2
  -3.17138E+2  -2.16719E+2
  -5.82735E+1  -3.81986E+2
   8.92936E+1  -1.79865E+2
   3.25129E+2   1.02271E+2
   2.50378E+2   3.29950E+2
  -1.63815E+2   3.48239E+2
  -1.61864E+2  -5.94285E+1
   9.36599E+1  -6.08755E+1
   3.75411E+2   1.89609E+1
   1.09163E+2   2.72857E+2
  -1.82283E+2   3.21707E+1
  -7.99384E+1   1.80793E+1
   4.41201E+2  -3.80727E+2
   3.72162E+2   2.04876E+2
  -4.39462E+2   4.47334E+2
  -2.84149E+2   5.48975E+1
   5.23956E+1  -2.73120E+2
   6.96853E+2   2.64871E+2
   1.81465E+2   4.00840E+2
  -1.25797E+2   3.03478E+2
  -1.94512E+2  -1.27132E+2
  -3.75288E+1  -5.44469E+2
  -3.08382E+1  -2.71028E+2
   8.11270E+1  -2.49006E+2
   9.77946E+1  -1.71476E+2
   3.32051E+2  -2.97433E+2
   5.02710E+2   2.73048E+2
   4.61996E+2   4.61526E+2
  -1.48686E+2   4.28043E+2
  -4.30666E+2  -2.37713E+2
  -1.34979E+2  -6.23518E+2
   1.58300E+2  -5.12419E+2
   4.60201E+2  -5.57390E+2
   1.93392E+2  -5.79093E+1
  -2.06090E+2   8.43286E+0
   1.81694E+2   7.79272E+1
  -8.74803E+1  -1.34650E+2
  -9.93352E+1   1.52054E+2
  -4.75113E+2  -3.99252E+2
   1.93711E+2  -7.71002E+2
   3.42630E+2  -4.78417E+2
   2.71291E+2   8.85792E+1
  -3.64536E+1  -1.06051E+1
  -1.54014E+2   1.16679E+2
  -3.24841E+2  -4.36755E+2
  -1.18452E+2  -1.04375E+2
   1.04821E+2  -1.31672E+2
  -1.99767E+2   2.15148E+2
  -3.24949E+2  -2.51375E+2
   1.85520E+2  -1.51099E+2
   1.35235E+2   3.87293E+1
  -2.81099E+2   1.92349E+2
  -5.65687E+2  -1.04118E+2
  -5.43548E+2  -5.03600E+2
  -4.73250E+1  -4.52762E+2
   2.27211E+2  -5.99042E+1
   2.80041E+1  -2.15345E+2
   1.01668E+2  -1.81594E+2
   3.45036E+1  -6.82181E+1
  -2.64321E+1   6.68791E+1
  -1.44951E+2   4.29199E+2
  -5.55499E+2   9.14945E+0
  -6.34496E+2  -3.05843E+2
   1.08710E+2  -2.52779E+2
   2.82343E+2  -6.87860E+1
  -7.09855E+1   1.56881E+2
  -3.20406E+2   2.02714E+1
  -1.95691E+2   2.07367E+1
  -1.07208E+2  -2.12295E+1
   1.27896E+2   1.09991E+2
  -9.14678E+1  -1.16095E+2
  -1.07627E+2   2.18044E+2
  -1.04600E+2  -2.20478E+1
   7.54809E+1  -1.11150E+2
   8.77868E+1   1.45795E+2
  -7.48854E+1   1.38663E+2
  -2.54456E+2   4.57897E+1
  -2.65996E+2   7.98654E+1
   1.36021E+2   1.12439E+2
  -3.47724E+1   3.08720E+2
  -8.57242E+1   1.02956E+1
  -2.35021E+2  -2.55784E+2
  -5.56182E+1   3.38676E+1
   1.26611E+2   1.47681E+2
  -8.08510E+1   1.69853E+2
   4.25460E+1  -1.81080E+2
  -1.60905E+1  -1.09784E+2
   1.26938E+2   1.35440E+2
   4.84464E+1   5.81394E+1
  -7.03806E+1   6.16880E+1
   2.89088E+1  -3.17531E+1
   1.25745E+2  -4.07711E+2
   2.63845E+2  -2.12619E+2
   2.49111E+2   1.49646E+2
  -2.72380E+1   1.87829E+2
  -5.57016E+1  -7.19425E+1
  -1.85727E+2  -8.23479E+1
   6.61533E+1  -6.81159E+0
  -4.13633E+2   1.51486E+2
  -1.78532E+2  -3.42938E+2
  -5.27626E+1  -2.69472E+2
   1.84362E+2  -2.01475E+2
   3.61066E+2  -1.28411E+2
  -2.08137E+2   2.78902E+2
  -1.10158E+2  -6.65842E+0
  -1.76634E+2  -2.03109E+2
  -1.24413E+1   1.53133E+0
   1.95778E+1   7.09648E+1
   8.24884E+1   9.11915E+0
   2.32007E+1  -1.01190E+2
  -1.28941E+2  -1.49838E+2
   6.96725E+1   2.74618E+2
  -2.66195E+2   3.96627E+1
  -1.90377E+2   8.80905E+1
  -1.18443E+2  -1.27748E+2
   2.16816E+2  -2.58328E+2
   2.39435E+2  -1.51899E+0
  -6.81303E+0  -7.06746E+1
  -4.32004E+2  -1.33760E+1
  -9.35724E+1   1.29938E+2
  -1.32968E+2  -1.30006E+2
  -1.55075E+2   1.41390E+2
  -2.48319E+2  -9.81197E+1
  -3.74768E+2  -2.49408E+2
   1.50065E+2  -3.13236E+2
   1.96955E+2   2.08223E+2
   2.22695E+2   2.89828E+2
  -1.20641E+2   3.02543E+2
  -2.46053E+2  -2.16683E+1
   5.66538E+1  -4.66356E+1
  -3.27521E+2  -1.75249E+2
   4.36633E+1  -2.94275E+0
   2.95515E+1   2.98061E+1
   1.07400E+2  -2.63969E+2
   9.66319E+1   7.83982E+1
   1.13579E+2   2.57150E+2
  -2.00674E+2   1.00530E+2
  -3.29355E+2  -2.91265E+1
   2.44467E+2  -2.33102E+2
   2.29665E+2   1.89282E+2
   5.11246E+1   1.38364E+2
  -1.12251E+2   9.89517E+1
   9.43927E+1  -6.12825E+1
   2.71865E+2  -2.34739E+2
   3.16815E+2  -5.83370E+1
   1.41898E+2   3.27892E+1
   5.81315E+1   3.35019E+0
  -1.06688E+2  -4.58819E+0
   1.41858E+2  -1.06275E+2
   3.65397E+1   1.63545E+2
   1.44741E+2   3.07210E+2
  -1.94078E+2   1.90436E+2
  -1.56215E+1  -1.32650E+2
   2.39094E+2  -1.16181E+2
   1.66552E+2   5.68249E+1
  -2.08370E+2  -5.18436E+0
   4.36740E+1  -2.91301E+2
   4.60197E+1  -1.52425E+2
  -9.44582E+1   7.96871E+1
  -3.42868E+1   2.91659E+1
   4.52754E+1  -1.58994E+2
  -8.84647E+1  -1.93848E+2
   1.50054E+2  -1.24931E+1
   1.62577E+2   1.33401E+2
   4.47914E+1   2.99006E+2
  -2.92740E+2  -9.80800E+1
   4.62414E+1  -2.42740E+2
  -1.18507E+2  -1.62828E+2
   1.25151E+2   2.10606E+2
   1.54295E+1  -6.83581E+1
  -5.35080E+1   1.71527E+0
  -3.47115E+0   2.26695E+2
   3.94827E+1   1.81260E+2
  -2.09388E+2   4.92111E+1
  -2.92794E+2   5.12704E+1
  -6.55327E+1  -3.39062E+2
   2.07198E+1  -2.09497E+2
   2.35450E+2   5.80361E+1
   4.54188E+1   1.38822E+2
  -1.49852E+2  -5.51883E+1
  -5.34122E+0  -1.00686E+2
   8.37783E+1   1.78230E+1
   1.68014E+2   5.62200E+0
   9.55822E+1  -9.53248E+1
   1.97343E+1  -1.62610E+2
   3.61774E+2   1.36233E+1
   2.83495E+1   1.30390E+2
  -4.53163E+1   3.33017E+1
  -2.12373E+2  -2.22898E+2
  -1.88917E+1  -2.52520E+1
   5.28969E+1  -3.04427E+2
   4.70579E+1   3.88262E+1
   6.73083E+1  -1.70050E+2
   1.34120E+2  -1.69937E+2
   4.30515E+1  -1.55153E+2
   3.80405E+2   8.12139E+1
  -7.89665E+1  -1.19972E+2
  -6.05205E+1   4.20794E+1
  -8.27437E+1  -2.49913E+2
   1.17744E+2  -3.47417E+2
   2.49075E+2  -1.88357E+1
  -7.69677E+1   2.26940E+2
  -4.33341E+1   2.11252E+2
  -6.47823E+0  -1.06433E+2
  -4.53078E+1  -1.03497E+2
