 
 $NMID
 ID=''
 FMTDAT='(2E13.5)'
 TRAMP=   1.00000E+0
 VOLUME=   1.00000E+0
 $END
   1.60353E+2   1.13584E+4
   8.75086E+3  -4.83140E+3
  -6.73171E+3  -7.84652E+3
   1.07587E+3   7.96544E+3
   7.48297E+3   6.67131E+2
  -5.57369E+3  -5.06812E+3
  -1.40699E+3   3.66762E+3
   7.04594E+3  -1.51193E+3
  -1.28912E+3  -4.38195E+3
  -2.78131E+2   5.50356E+3
   4.40744E+3   3.69403E+3
  -3.93775E+3  -2.61839E+3
  -2.42631E+3   1.04246E+3
   3.94428E+3   2.25468E+3
  -3.55437E+3  -2.84742E+2
  -4.51800E+3  -7.47757E+2
   3.77024E+3  -2.64169E+3
   1.45485E+3  -4.21026E+2
  -1.67366E+3   2.70345E+3
   4.89027E+2  -1.01191E+3
  -6.81080E+2  -1.76632E+3
  -6.83972E+2   1.30468E+3
   2.04056E+3  -5.96896E+2
  -1.37196E+2  -3.24602E+2
  -1.68345E+3   1.37913E+3
   2.49375E+2  -1.61792E+3
   1.31951E+3  -1.08584E+3
   7.86928E+2   2.68511E+3
  -9.89166E+2   6.15145E+2
  -9.55334E+2  -1.38646E+3
   9.51027E+2   5.77933E+2
   2.71105E+2   8.53078E+2
  -1.51100E+3   4.58692E+2
  -1.09634E+3   8.57010E+2
  -1.43829E+3  -9.44380E+2
  -9.27426E+2  -2.41916E+3
   1.78093E+3  -8.25389E+2
   1.61352E+3   1.24510E+3
  -4.70736E+2   6.34786E+2
  -1.53682E+2   1.70605E+2
   6.14603E+2   1.19874E+3
  -8.48663E+2   9.83698E+2
  -9.90215E+2  -9.33960E+2
   1.50849E+2  -2.10345E+3
   8.81469E+2  -6.78533E+2
   1.25383E+3  -7.97816E+1
   1.41288E+3   5.86433E+2
   1.50999E+2   1.88960E+3
  -1.28812E+3   9.90885E+2
  -1.08079E+3  -5.19697E+2
  -5.76613E+2  -1.02781E+3
  -1.13092E+2  -3.83730E+2
  -7.68176E+1  -6.80113E+2
   4.58018E+2  -5.02150E+2
   6.96106E+2  -2.90717E+2
   5.52948E+2  -8.06609E+1
  -1.88036E+2   1.15695E+3
  -7.36088E+2   3.38444E+2
  -9.40536E+2  -1.24545E+3
   1.59105E+2  -1.29684E+3
   7.59834E+2  -4.26626E+2
   9.38283E+2  -1.82079E+2
   1.08791E+3   1.52893E+2
   6.28525E+2   9.15640E+2
  -5.07798E+2   1.31960E+3
  -1.35940E+3   8.39021E+2
  -1.19222E+3  -5.93990E+2
  -8.85120E+2  -9.81257E+2
  -7.07151E+1  -1.17706E+3
   7.18898E+2  -9.12160E+1
   1.91092E+2   4.28336E+2
  -6.38950E+2  -1.45706E+2
  -3.16857E+1  -6.13382E+2
   8.44530E+2  -1.94366E+2
   2.85376E+2   4.56886E+2
  -3.43172E+2  -3.19002E+1
  -1.16835E+2  -3.65985E+2
   3.86357E+2  -1.15652E+2
   3.75246E+2   3.13921E+2
  -1.91788E+2   4.71560E+2
  -5.72760E+2   5.46929E+2
  -3.89775E+2   3.99665E+1
  -1.26403E+2  -5.34646E+1
  -7.89143E+1  -1.24436E+2
  -2.49536E+2  -1.30922E+2
  -5.55761E+2  -2.09409E+2
  -1.49770E+2  -6.42465E+2
   4.23270E+2  -3.42608E+2
   4.31843E+2  -3.92293E+1
   2.47091E+2   8.17508E+1
   1.92692E+2  -4.40167E+2
   4.50521E+2  -2.09163E+2
   6.08848E+2   2.74055E+2
   2.74570E+2   1.07691E+3
  -6.40388E+2   6.33126E+2
  -6.33723E+2  -4.22570E+2
  -4.80880E+1  -4.82654E+2
   3.90449E+2  -1.80643E+2
  -3.45090E+2   2.73241E+1
  -5.07593E+2  -1.64716E+2
   1.70590E+2  -7.68623E+2
   5.56049E+2   2.18992E+2
   7.43793E+1   3.42834E+2
  -7.44407E+2   4.35048E+2
  -2.92522E+2  -5.64995E+2
   3.09450E+2  -5.84431E+2
   5.87487E+2  -3.68829E+1
   2.29579E+2   5.72566E+2
  -4.44366E+2   5.02362E+2
  -6.92766E+2  -1.92199E+2
  -3.23964E+2  -1.00957E+3
   4.20165E+2  -6.78737E+2
   6.32582E+2  -6.49845E+1
  -1.02275E+2   2.42568E+2
   3.63505E+2   1.16460E+2
   3.42308E+2   2.34180E+2
   1.73273E+2   5.08628E+2
  -3.70797E+2   5.71976E+2
  -9.70785E+2   1.18556E+2
  -5.87578E+2  -6.59835E+2
   3.26377E+2  -6.53201E+2
   3.27823E+2  -2.58459E+2
   2.40431E+2  -1.36641E+2
   3.08574E+2  -6.71051E+1
   2.35399E+2   4.93714E+2
   1.55179E+2   3.32093E+2
  -2.06594E+2   2.63034E+2
  -1.47452E+2   7.38550E+1
   5.48799E+0  -1.52450E+2
   2.15488E+2  -2.44724E+2
   3.36940E+2   2.24265E+2
   5.84424E+1   5.98331E+2
  -3.50438E+2   3.66551E+2
  -2.47333E+2  -2.18047E+2
   1.11220E+2  -1.29465E+2
  -5.68200E+1   1.31758E+2
  -2.75561E+2  -1.24753E+2
   1.44509E+2  -4.10422E+2
   4.89669E+2   4.07814E+1
   5.18792E+2   4.65668E+2
   1.03217E+2   4.70707E+2
  -4.86904E+2   2.46222E+2
  -4.55584E+2  -2.69478E+2
   2.22279E+2  -5.14057E+2
   5.78573E+2   1.62072E+2
   5.11669E+1   5.52827E+2
   1.86673E+2   8.95409E+1
   1.18281E+2   6.65980E+1
  -1.01759E+2   3.37406E+2
  -1.19070E+2   6.05581E+1
  -2.16827E+2   1.63708E+2
  -3.05970E+2  -3.96350E+1
  -1.04888E+1  -4.00612E+2
   2.82821E+2  -2.20803E+2
   4.84572E+1   3.92598E+1
   1.12180E+2   1.30744E+2
   3.19514E+2  -2.55242E+1
   2.82046E+2   2.42863E+1
   2.56490E+2   1.18543E+2
   4.24065E+2   2.51804E+2
   3.22297E+1   3.32533E+2
   1.42717E+2   7.74686E+1
  -1.30503E+1   3.31333E+2
  -2.40363E+1   2.67136E+2
  -2.94496E+2   1.50216E+2
  -2.83991E+2  -1.69652E+2
   2.73213E+2  -1.75365E+2
   4.74956E+2   9.66270E+1
   1.05236E+2   2.74480E+2
   3.32899E+1  -9.77773E+1
  -5.20925E+1   1.03065E+2
   1.09278E+2  -5.58030E+1
   2.54977E+1   4.97713E+1
   2.31528E+2  -8.33946E+1
  -3.90874E+1   6.35192E+1
   1.90571E+2  -1.99707E+2
   3.28167E+2  -5.54800E+1
   2.21322E+2   1.44232E+2
  -6.80492E+1  -6.10488E+1
   6.50495E+0  -4.30875E+1
   3.39861E+2  -2.75993E+2
   4.17400E+2  -1.69153E+2
   2.84620E+2  -1.08145E+1
   1.17123E+2   4.94580E+2
   2.49630E+1   1.37506E+1
   6.34235E+0   1.56721E+2
   7.01157E+1  -1.32582E+2
   1.90103E+1  -1.58447E+2
  -1.78453E+2  -3.81402E+2
   2.59731E+2  -5.37090E+2
   4.34136E+2  -2.94629E+2
   3.25880E+2   1.32114E+2
   6.86026E+1   3.33757E+2
  -8.04187E+1   1.13837E+2
  -2.20711E+2   2.19062E+1
  -8.75516E+1  -1.96196E+2
   9.25673E+1   9.00339E+1
  -7.43629E+1  -1.22982E+2
   2.34348E+1  -2.25835E+2
   2.06847E+2   1.00279E+2
   1.47971E+2   1.64792E+2
   3.03922E+1   1.83638E+2
  -6.97216E+1   9.21303E+1
   7.45010E+1  -1.56184E+2
   4.57405E+1  -7.54696E+1
   5.52500E+1  -4.17890E+1
  -6.13303E+1  -1.77237E+2
  -1.62713E+2   7.61694E+1
  -1.36531E+2  -4.04222E+1
   1.45546E+2   3.78582E+1
   8.14874E+1  -8.71413E+1
  -9.66677E+1  -1.05289E+2
  -1.33572E+2  -3.10665E+2
   7.41461E+1   7.78100E+1
   2.10608E+2   1.07674E+2
   2.84971E+2   1.38855E+2
  -4.50423E+2  -1.10798E+2
  -1.39035E+2   2.14315E+1
  -6.55914E+1  -1.18647E+2
   1.02366E+2   4.46458E+1
  -8.54000E+1   1.04675E+2
  -1.66465E+2  -5.89808E+1
  -5.70732E+1   3.81423E+1
  -8.40519E+0   1.67004E+2
  -1.52579E+2   2.15079E+2
  -3.04331E+2  -1.59113E+2
  -1.54138E+2  -4.06100E+1
  -5.52289E+1  -9.67971E+1
   1.08890E+2  -7.28099E+1
   2.02370E+2   2.68059E+2
  -8.49016E+1   9.38219E+1
  -1.61474E+2  -4.92254E+1
   8.87605E+1  -5.22626E+1
   8.39425E+0   5.59523E+1
  -1.59329E+2   2.03474E+2
   1.30750E+2   1.77313E+2
   1.14654E+1  -1.44747E+2
   2.11886E+2   1.16785E+2
  -7.99525E+1   2.34968E+2
  -1.43991E+2   2.48773E+2
  -3.82217E+2  -1.16721E+2
   2.66979E+2  -3.06775E+2
   2.51696E+2   7.13553E+1
   3.30195E+1   1.62694E+2
   1.27728E+1   2.85827E+1
  -2.15306E+2   2.44296E+2
  -7.27940E+1  -9.20498E+1
  -3.74849E+1   1.98516E+2
   3.47095E+1   2.23522E+2
   1.46908E+2  -2.06252E+2
   1.15923E+2   5.79638E+1
   1.36214E+2   3.05895E+2
  -2.07815E+1   7.80578E+1
   1.31340E+1   2.88744E+2
  -1.91343E+2  -1.24587E+2
   3.12648E+1  -1.51330E+2
  -3.15797E+1  -1.42546E+2
   2.82885E+2   1.79906E+2
   2.57797E+1   7.55082E+1
   9.50390E+1  -1.87893E+2
   9.73796E+1   7.03541E+1
  -6.30389E+1   1.95843E+2
  -4.54560E+1  -1.94914E+2
  -3.86183E+2  -1.11325E+2
  -2.34536E+2   1.47859E+2
  -3.43013E+1   1.80198E+1
   7.70216E+1  -6.29213E+1
  -9.03823E+1   9.42014E+1
  -1.60591E+2  -9.10415E+0
  -9.04419E+1  -4.34388E+1
   9.35969E+0  -5.50126E+1
   1.45235E+2   3.03338E+1
  -1.08322E+2   5.51135E+1
   1.10311E+2  -1.97081E+1
  -1.92449E+1   1.14585E+2
  -8.91555E+1   1.32975E+2
  -1.57375E+2   6.01803E+1
  -2.47583E+2   6.89107E+1
   9.68871E+1  -1.27518E+2
   2.77207E+2  -4.43168E+1
  -1.93995E+2   3.41175E+1
  -5.26673E+1   6.34949E+1
   1.13475E+2  -2.01952E+2
   6.18690E+1  -2.07914E+2
   5.36357E+1  -1.56394E+2
  -2.42979E+2  -5.92251E+1
  -1.89384E+2  -2.13723E+1
  -2.74956E+2  -4.79690E+1
  -1.42978E+2  -6.02677E+1
   1.88234E+2   1.31021E+2
   1.69046E+1   2.30775E+2
  -2.02210E+2   1.69541E+2
   1.78842E+1   1.86567E+2
   7.41488E+1  -6.20879E+1
  -8.13460E+1  -4.76629E+1
  -2.13419E+2  -1.22140E+2
  -2.93971E+2   2.40218E+2
  -7.43035E+1  -3.44917E+1
  -9.28972E+1  -4.02097E+1
   3.72807E+1   1.56657E+2
  -2.74185E+2   8.52439E+1
  -1.95460E+2   1.04544E+1
   3.04378E+1   2.91977E+2
  -9.98804E+0  -8.46608E+1
  -1.62958E+2   5.85895E+1
  -3.83441E+1   2.49062E+2
   1.92960E+2   5.66875E+1
  -5.30046E+1  -1.83413E+2
   6.53865E+1   1.36124E+2
  -7.25969E+1   9.96697E+1
   1.86354E+1   1.17696E+2
  -1.16391E+2   6.71398E+1
  -1.66526E+2   1.47748E+2
  -8.08962E+1   1.68814E+2
  -7.07097E+1   6.27273E+1
  -1.45283E+1   1.96145E+2
   2.47289E+1   1.11194E+2
  -4.93043E+0   7.88068E+1
  -4.35510E+1   1.31568E+2
  -3.23506E+1   1.29384E+2
   3.78378E+1  -4.77045E+1
  -5.85692E+1  -5.57086E+1
   5.57509E+1  -3.30675E+1
  -1.16903E+2   1.36910E+2
  -6.47355E+1   7.96618E-1
   7.44416E+1   2.77401E+1
   1.06009E+2   1.42408E+2
   2.47605E+1   1.76641E+1
  -6.68079E+1   2.03392E+2
  -1.99295E+1  -2.21868E+1
   2.27141E+1   9.96517E+1
  -2.48594E+1  -9.26424E+1
   1.94926E+1  -1.05287E+2
   5.42479E+1  -6.75845E+1
   2.87425E+1   1.87082E+2
   1.09835E+2  -1.13408E+2
   7.99706E+1   1.31433E+2
   1.75720E+2   9.52460E+1
  -9.20326E+1  -2.25594E+1
  -1.25694E+2  -2.78077E+2
   2.42140E+1  -3.78043E+2
   1.89713E+2   8.70309E+1
   1.12651E+1   2.17205E+2
   1.20945E+2   1.25065E+2
   6.80122E+1   3.47888E+1
  -1.25183E+2   8.01122E+0
   3.18084E+1  -1.77812E+2
  -4.30824E+1   7.35613E+0
   6.79396E+0   7.19727E+1
   3.05359E+2   1.25179E+2
   5.33072E+1   5.06443E+0
  -1.70130E+1  -2.35513E+1
  -5.26952E+0  -1.20161E+2
   3.23629E+1  -1.06470E+1
  -2.27080E+2   2.01092E+2
   3.15035E+2  -1.44154E+2
  -3.36584E+1   9.10459E+1
   6.07717E+1  -1.00664E+2
   1.12443E+1   1.51683E+1
   1.43157E+1   6.10676E+1
  -1.38922E+2   1.19215E+2
  -1.86306E+2  -8.24758E+1
  -2.92705E+2  -2.45518E+2
   3.20496E+2  -1.07912E+2
   7.94932E+1   1.07087E+1
   4.78063E+1   5.26497E+1
   8.31495E+1  -1.17791E+2
