 LCModel (Version 6.3-1N) Copyright: S.W. Provencher.          Ref.: Magn. Reson. Med. 30:672-679 (1993).                
 Slice_N1@17_22  28-Feb-2025 11:39:11
 27 lines in following concentration table = NCONC+1
    Conc.  %SD /Cr+PCr  Metabolite                                         
 2.75E-04   4% 2.6E-04 Mac                                                 
    2.493  66%   2.326 Cr                                                  
    6.081  27%   5.674 PCr                                                 
    6.909  14%   6.447 Ins                                                 
   10.931   8%  10.200 NAA                                                 
    5.877  16%   5.484 Tau                                                 
    0.000 999%   0.000 PCho                                                
    1.529  21%   1.427 GPC                                                 
   11.162  10%  10.415 Glu                                                 
    3.349  28%   3.125 Gln                                                 
    0.000 999%   0.000 Ala                                                 
    3.382  41%   3.156 Asc                                                 
    4.141  27%   3.864 Asp                                                 
    1.159  53%   1.081 GABA                                                
    0.854  97%   0.797 Glc                                                 
    2.209  25%   2.061 GSH                                                 
    2.775  28%   2.589 Lac                                                 
    2.161  31%   2.016 NAAG                                                
    1.584  79%   1.478 PE                                                  
    1.529  21%   1.427 GPC+PCho                                            
   13.092   7%  12.216 NAA+NAAG                                            
   14.511  10%  13.540 Glu+Gln                                             
    8.574   9%   8.000 Cr+PCr                                              
   13.092   7%  12.216 NAA+NAAG                                            
    8.574   9%   8.000 Cr+PCr                                              
   14.511  10%  13.540 Glu+Gln                                             
   6 lines in following misc. output table
  FWHM = 0.024 ppm    S/N =   4                                            
  Data shift = 0.016 ppm                                                   
  Ph: -61 deg       0.0 deg/ppm                                            
  alphaB,S = 3.0E+00,   1.8E+01                                            
   19 spline knots.   Ns = 5(1)                                            
  ( 4) 2 infls.   ( 2) 2 extrs.                                            
  480 points on ppm-axis = NY
      4.100000     4.091866     4.083733     4.075600     4.067466     4.059333     4.051199     4.043066     4.034933     4.026799
      4.018666     4.010532     4.002399     3.994265     3.986132     3.977998     3.969864     3.961731     3.953597     3.945463
      3.937330     3.929196     3.921062     3.912929     3.904795     3.896662     3.888528     3.880394     3.872261     3.864127
      3.855993     3.847860     3.839726     3.831592     3.823459     3.815325     3.807191     3.799058     3.790924     3.782790
      3.774657     3.766523     3.758389     3.750256     3.742122     3.733989     3.725855     3.717721     3.709588     3.701454
      3.693320     3.685187     3.677053     3.668919     3.660786     3.652652     3.644518     3.636385     3.628251     3.620117
      3.611984     3.603850     3.595716     3.587583     3.579449     3.571316     3.563182     3.555048     3.546915     3.538781
      3.530647     3.522514     3.514380     3.506246     3.498113     3.489979     3.481845     3.473712     3.465578     3.457444
      3.449311     3.441177     3.433043     3.424910     3.416776     3.408643     3.400509     3.392375     3.384242     3.376108
      3.367974     3.359841     3.351707     3.343573     3.335440     3.327306     3.319172     3.311039     3.302905     3.294771
      3.286638     3.278504     3.270370     3.262237     3.254103     3.245970     3.237836     3.229702     3.221569     3.213435
      3.205301     3.197168     3.189034     3.180900     3.172767     3.164633     3.156499     3.148366     3.140232     3.132098
      3.123965     3.115831     3.107697     3.099564     3.091430     3.083297     3.075163     3.067029     3.058896     3.050762
      3.042628     3.034495     3.026361     3.018227     3.010094     3.001960     2.993826     2.985693     2.977559     2.969425
      2.961292     2.953158     2.945024     2.936891     2.928757     2.920624     2.912490     2.904356     2.896223     2.888089
      2.879955     2.871822     2.863688     2.855554     2.847421     2.839287     2.831153     2.823020     2.814886     2.806752
      2.798619     2.790485     2.782351     2.774218     2.766084     2.757951     2.749817     2.741683     2.733550     2.725416
      2.717282     2.709149     2.701015     2.692881     2.684748     2.676614     2.668480     2.660347     2.652213     2.644079
      2.635946     2.627812     2.619678     2.611545     2.603411     2.595278     2.587144     2.579010     2.570877     2.562743
      2.554609     2.546476     2.538342     2.530208     2.522075     2.513941     2.505807     2.497674     2.489540     2.481406
      2.473273     2.465139     2.457006     2.448872     2.440738     2.432605     2.424471     2.416337     2.408204     2.400070
      2.391936     2.383803     2.375669     2.367535     2.359402     2.351268     2.343134     2.335001     2.326867     2.318733
      2.310600     2.302466     2.294333     2.286199     2.278065     2.269932     2.261798     2.253664     2.245531     2.237397
      2.229263     2.221130     2.212996     2.204862     2.196729     2.188595     2.180461     2.172328     2.164194     2.156060
      2.147927     2.139793     2.131660     2.123526     2.115392     2.107259     2.099125     2.090991     2.082858     2.074724
      2.066590     2.058457     2.050323     2.042189     2.034056     2.025922     2.017788     2.009655     2.001521     1.993387
      1.985254     1.977120     1.968987     1.960853     1.952719     1.944586     1.936452     1.928318     1.920185     1.912051
      1.903917     1.895784     1.887650     1.879516     1.871383     1.863249     1.855115     1.846982     1.838848     1.830714
      1.822581     1.814447     1.806314     1.798180     1.790046     1.781913     1.773779     1.765645     1.757512     1.749378
      1.741244     1.733111     1.724977     1.716843     1.708710     1.700576     1.692442     1.684309     1.676175     1.668041
      1.659908     1.651774     1.643641     1.635507     1.627373     1.619240     1.611106     1.602972     1.594839     1.586705
      1.578571     1.570438     1.562304     1.554170     1.546037     1.537903     1.529769     1.521636     1.513502     1.505368
      1.497235     1.489101     1.480968     1.472834     1.464700     1.456567     1.448433     1.440299     1.432166     1.424032
      1.415898     1.407765     1.399631     1.391497     1.383364     1.375230     1.367096     1.358963     1.350829     1.342695
      1.334562     1.326428     1.318295     1.310161     1.302027     1.293894     1.285760     1.277626     1.269493     1.261359
      1.253225     1.245092     1.236958     1.228824     1.220691     1.212557     1.204423     1.196290     1.188156     1.180022
      1.171889     1.163755     1.155622     1.147488     1.139354     1.131221     1.123087     1.114953     1.106820     1.098686
      1.090552     1.082419     1.074285     1.066151     1.058018     1.049884     1.041750     1.033617     1.025483     1.017349
      1.009216     1.001082     0.992949     0.984815     0.976681     0.968548     0.960414     0.952280     0.944147     0.936013
      0.927879     0.919746     0.911612     0.903478     0.895345     0.887211     0.879077     0.870944     0.862810     0.854676
      0.846543     0.838409     0.830276     0.822142     0.814008     0.805875     0.797741     0.789607     0.781474     0.773340
      0.765206     0.757073     0.748939     0.740805     0.732672     0.724538     0.716404     0.708271     0.700137     0.692003
      0.683870     0.675736     0.667603     0.659469     0.651335     0.643202     0.635068     0.626934     0.618801     0.610667
      0.602533     0.594400     0.586266     0.578132     0.569999     0.561865     0.553731     0.545598     0.537464     0.529330
      0.521197     0.513063     0.504930     0.496796     0.488662     0.480529     0.472395     0.464261     0.456128     0.447994
      0.439861     0.431727     0.423593     0.415460     0.407326     0.399192     0.391059     0.382925     0.374792     0.366658
      0.358524     0.350391     0.342257     0.334124     0.325990     0.317856     0.309723     0.301589     0.293455     0.285322
      0.277188     0.269055     0.260921     0.252787     0.244654     0.236520     0.228386     0.220253     0.212119     0.203986
 NY phased data points follow
  -1.03674E+02 -1.06700E+02 -1.09978E+02 -1.14670E+02 -1.02026E+02 -9.81022E+01 -1.01477E+02 -1.07181E+02 -1.13806E+02 -1.12546E+02
  -1.07244E+02 -1.12885E+02 -1.26188E+02 -1.21427E+02 -1.26402E+02 -1.39680E+02 -1.30963E+02 -1.36003E+02 -1.55697E+02 -1.63049E+02
  -1.58579E+02 -1.35062E+02 -1.09047E+02 -9.04114E+01 -6.75773E+01 -5.91005E+01 -6.68793E+01 -6.38633E+01 -6.70061E+01 -6.20139E+01
  -5.68769E+01 -7.25347E+01 -6.41974E+01 -6.14130E+01 -5.92323E+01 -6.09829E+01 -7.43716E+01 -9.20083E+01 -1.19290E+02 -1.18359E+02
  -1.37912E+02 -1.34402E+02 -1.11222E+02 -1.03474E+02 -6.97488E+01 -5.52034E+01 -3.70999E+01 -2.81430E+01 -3.20295E+01 -2.37892E+01
  -2.94291E+01 -4.69792E+01 -5.93309E+01 -6.04578E+01 -6.29168E+01 -6.68261E+01 -7.50958E+01 -7.40564E+01 -8.28246E+01 -9.26331E+01
  -7.68140E+01 -5.90436E+01 -6.28604E+01 -5.24302E+01 -2.27459E+01 -4.41006E+01 -4.58378E+01 -5.10764E+01 -8.51693E+01 -8.30006E+01
  -9.53943E+01 -7.87675E+01 -5.49693E+01 -5.17544E+01 -2.68446E+01 -2.49018E+01 -2.12170E+01 -1.49858E+01 -3.08539E+01 -2.77747E+01
  -2.97506E+01 -4.28516E+01 -4.83656E+01 -6.00114E+01 -6.49112E+01 -7.40892E+01 -6.49644E+01 -4.36403E+01 -2.69811E+01 -1.35254E+01
  -2.20591E+01 -2.48396E+00  4.60042E+00 -7.93954E+00  8.34416E+00  1.31663E+01  2.57869E+00 -8.92029E+00  5.01003E+00  5.74388E+00
  -1.39421E+01 -9.77588E+00 -3.45980E+01 -5.67981E+01 -5.90751E+01 -8.95040E+01 -9.87517E+01 -1.04636E+02 -1.28297E+02 -1.47249E+02
  -1.86764E+02 -1.92568E+02 -1.53468E+02 -1.44001E+02 -1.28504E+02 -9.56146E+01 -9.99422E+01 -9.65213E+01 -7.64153E+01 -6.74974E+01
  -6.33571E+01 -5.34006E+01 -3.63417E+01 -3.44985E+01 -1.73424E+01 -1.03493E+01 -2.91816E+00  1.57516E+01  2.28147E+01  4.93081E+01
   4.46605E+01  2.89056E+01 -3.64603E+01 -1.44777E+02 -1.70482E+02 -1.55607E+02 -1.43497E+02 -1.37544E+02 -1.34557E+02 -1.24684E+02
  -1.20413E+02 -1.28525E+02 -1.18532E+02 -1.13533E+02 -1.21307E+02 -1.18631E+02 -1.28219E+02 -1.12587E+02 -1.19366E+02 -1.15349E+02
  -8.83579E+01 -1.07846E+02 -1.01533E+02 -9.11443E+01 -7.89200E+01 -8.06220E+01 -9.62939E+01 -8.76643E+01 -8.78148E+01 -6.55987E+01
  -6.50290E+01 -8.35835E+01 -8.83984E+01 -8.91817E+01 -7.44234E+01 -8.22907E+01 -8.20879E+01 -7.56607E+01 -6.70279E+01 -5.20931E+01
  -5.92571E+01 -4.58720E+01 -4.04704E+01 -4.76299E+01 -4.55961E+01 -5.76102E+01 -4.65520E+01 -3.54461E+01 -5.21483E+01 -7.43269E+01
  -1.03707E+02 -1.06076E+02 -1.07074E+02 -1.09309E+02 -8.67288E+01 -9.32707E+01 -9.55262E+01 -9.54097E+01 -9.08955E+01 -8.12127E+01
  -8.70487E+01 -7.38262E+01 -7.80554E+01 -6.67660E+01 -5.22807E+01 -5.64975E+01 -6.95533E+01 -6.81707E+01 -5.34249E+01 -7.14199E+01
  -4.95701E+01 -5.33570E+01 -6.12985E+01 -4.65530E+01 -6.59944E+01 -7.55837E+01 -9.52472E+01 -9.95874E+01 -1.10963E+02 -1.17947E+02
  -1.13751E+02 -1.10725E+02 -9.55052E+01 -7.72086E+01 -5.06744E+01 -3.84931E+01 -1.29437E+01 -1.36178E+01 -2.82828E+01 -3.16843E+01
  -4.40786E+01 -4.90219E+01 -7.05280E+01 -7.38212E+01 -5.19393E+01 -5.37984E+01 -6.11132E+01 -5.75086E+01 -5.90382E+01 -4.58842E+01
  -5.54074E+01 -6.73030E+01 -6.09831E+01 -7.77883E+01 -9.24124E+01 -1.08222E+02 -1.08504E+02 -1.17701E+02 -1.31485E+02 -1.25485E+02
  -1.13816E+02 -1.01150E+02 -1.01806E+02 -9.69675E+01 -8.64754E+01 -7.11023E+01 -7.25337E+01 -7.64307E+01 -8.20149E+01 -1.06455E+02
  -1.13744E+02 -1.15622E+02 -1.25213E+02 -1.17217E+02 -1.08774E+02 -1.15118E+02 -1.07348E+02 -5.05433E+01  7.72522E+01  1.55080E+02
   1.29681E+02  8.18600E+01  6.59161E+01  5.96964E+01  3.93170E+01  4.64314E+01  2.50333E+01  1.85486E+01  2.95038E+01  1.16936E+01
   7.43126E+00  9.07838E+00  1.69006E+01  1.50057E+01  2.33527E+01  2.17013E+01  2.18784E+01  2.86065E+01  1.47727E+01  1.59715E+01
   2.87606E+01  2.00186E+01  4.50352E+00  1.50081E+01  1.78896E+01  2.41239E+01  1.36236E+01  1.15851E+01  1.87835E+01  3.68102E+00
   1.29976E+01  6.46228E+00  5.57463E+00  2.37183E+00 -8.30045E+00  1.40662E+00  1.05083E+01  1.59968E+01  1.03222E+01  1.43948E+01
   2.39101E+01  2.61882E+01  2.31116E+01  2.41930E+01  2.29700E+01  2.07697E+01  1.25593E+01 -3.04748E+00 -1.13457E+01 -1.24483E+01
  -8.67536E+00 -2.14450E+01 -2.43870E+01 -1.03844E+01 -1.12746E+01 -2.19076E+01 -1.77964E+01 -1.89232E+01 -2.89538E+01 -2.72228E+01
  -1.45244E+01  1.53449E+01  2.85511E+01  3.99705E+01  5.74697E+01  6.07345E+01  6.23475E+01  6.42214E+01  6.19739E+01  3.19830E+01
  -7.46775E+00 -1.69856E+01 -2.60502E+01 -4.42411E+01 -4.86643E+01 -6.66248E+01 -6.87321E+01 -4.92234E+01 -4.60701E+01 -3.87493E+01
  -2.42220E+01 -2.73291E+01 -3.13127E+01 -2.21458E+01 -2.75895E+01 -2.47940E+01 -3.41521E+01 -3.64708E+01 -2.71825E+01 -4.13619E+01
  -3.82901E+01 -3.75992E+01 -3.35625E+01 -3.45605E+01 -4.51786E+01 -5.83868E+01 -6.10241E+01 -5.05981E+01 -5.91507E+01 -5.94660E+01
  -6.21969E+01 -5.69719E+01 -4.86276E+01 -5.10566E+01 -4.76538E+01 -4.26063E+01 -3.72600E+01 -3.54203E+01 -2.93785E+01 -1.64237E+01
  -4.24350E+00 -1.11812E+01 -2.55569E+00  1.96113E+00 -1.78937E+01 -6.52716E+00 -3.02962E+00 -1.72317E+01 -9.94925E+00  6.77094E+00
   1.33145E+01  7.46791E+00  2.23051E+01  3.52586E+01  2.93352E+01  6.26848E+01  8.74886E+01  6.75940E+01  6.26633E+01  6.82990E+01
   5.34657E+01  5.20599E+01  4.85783E+01  1.76777E+01  1.08465E+01  8.13910E+00  1.44613E+01  3.00458E+00 -1.56062E+01 -7.45575E+00
  -3.51125E+01 -4.52984E+01 -3.60994E+01 -4.88804E+01 -6.83037E+01 -6.24580E+01 -6.42529E+01 -8.12374E+01 -7.26295E+01 -7.38538E+01
  -6.74996E+01 -6.81632E+01 -6.34958E+01 -7.18655E+01 -8.21993E+01 -6.43373E+01 -6.15334E+01 -5.82651E+01 -7.47550E+01 -5.82038E+01
  -5.69687E+01 -7.37768E+01 -5.28660E+01 -6.81640E+01 -6.93082E+01 -6.40438E+01 -6.29941E+01 -6.64903E+01 -7.24799E+01 -5.61640E+01
  -6.54695E+01 -7.89099E+01 -6.15653E+01 -5.02853E+01 -7.03660E+01 -6.14350E+01 -6.80584E+01 -6.98356E+01 -5.37862E+01 -8.15933E+01
  -5.30285E+01 -5.48171E+01 -7.41622E+01 -5.88774E+01 -5.75451E+01 -4.29740E+01 -7.09584E+01 -7.14668E+01 -5.94425E+01 -5.94655E+01
  -5.68557E+01 -6.05053E+01 -5.25266E+01 -5.82268E+01 -4.81048E+01 -6.24069E+01 -5.89834E+01 -4.59728E+01 -4.86310E+01 -4.66932E+01
  -5.71963E+01 -5.17712E+01 -5.52716E+01 -4.40760E+01 -4.68816E+01 -5.98759E+01 -5.96021E+01 -5.13036E+01 -4.84914E+01 -4.75050E+01
  -3.50617E+01 -4.88250E+01 -4.79748E+01 -5.27230E+01 -5.33152E+01 -5.93360E+01 -5.63302E+01 -5.13115E+01 -5.93511E+01 -4.20678E+01
 NY points of the fit to the data follow
  -1.04197E+02 -1.06940E+02 -1.09664E+02 -1.10128E+02 -1.05630E+02 -9.58171E+01 -8.57521E+01 -8.30031E+01 -8.95941E+01 -1.00231E+02
  -1.08667E+02 -1.12927E+02 -1.14277E+02 -1.14465E+02 -1.15272E+02 -1.18613E+02 -1.24603E+02 -1.33588E+02 -1.44973E+02 -1.53952E+02
  -1.52236E+02 -1.33200E+02 -1.01860E+02 -7.39617E+01 -5.78506E+01 -5.06283E+01 -4.73374E+01 -4.45010E+01 -4.13264E+01 -3.87308E+01
  -3.84098E+01 -4.04063E+01 -4.33822E+01 -4.68802E+01 -5.15932E+01 -5.86899E+01 -6.82771E+01 -8.10143E+01 -9.76372E+01 -1.16250E+02
  -1.30492E+02 -1.32099E+02 -1.19017E+02 -9.85765E+01 -7.83864E+01 -6.07778E+01 -4.61197E+01 -3.61095E+01 -3.19375E+01 -3.20121E+01
  -3.49994E+01 -4.02647E+01 -4.74041E+01 -5.58054E+01 -6.36641E+01 -6.86835E+01 -7.11655E+01 -7.36853E+01 -7.75832E+01 -7.99835E+01
  -7.58993E+01 -6.60711E+01 -5.52793E+01 -4.49810E+01 -3.61983E+01 -3.23512E+01 -3.65201E+01 -4.90276E+01 -6.63017E+01 -8.13101E+01
  -8.61541E+01 -7.93518E+01 -6.74855E+01 -5.53582E+01 -4.28486E+01 -3.11701E+01 -2.36671E+01 -2.11775E+01 -2.22753E+01 -2.58562E+01
  -3.29651E+01 -4.42886E+01 -5.79056E+01 -7.00991E+01 -7.64096E+01 -7.38371E+01 -6.40088E+01 -5.09505E+01 -3.89107E+01 -3.04652E+01
  -2.49741E+01 -2.08800E+01 -1.68131E+01 -1.26518E+01 -8.75089E+00 -5.19911E+00 -2.39313E+00 -1.26097E+00 -2.18919E+00 -4.44315E+00
  -7.77585E+00 -1.29574E+01 -2.26452E+01 -3.66692E+01 -5.23055E+01 -6.69441E+01 -7.92600E+01 -9.24476E+01 -1.14498E+02 -1.46754E+02
  -1.74243E+02 -1.77044E+02 -1.55543E+02 -1.28818E+02 -1.10185E+02 -9.98702E+01 -9.25318E+01 -8.57276E+01 -7.90459E+01 -7.24051E+01
  -6.57343E+01 -5.87286E+01 -5.09102E+01 -4.17747E+01 -3.08442E+01 -1.74064E+01 -4.71365E-01  1.74813E+01  3.52780E+01  4.99920E+01
   4.98164E+01  1.87376E+01 -4.71122E+01 -1.20166E+02 -1.58529E+02 -1.55470E+02 -1.37685E+02 -1.26169E+02 -1.22833E+02 -1.22093E+02
  -1.22647E+02 -1.24041E+02 -1.25489E+02 -1.26361E+02 -1.26484E+02 -1.25870E+02 -1.24183E+02 -1.21375E+02 -1.18050E+02 -1.14778E+02
  -1.11660E+02 -1.08533E+02 -1.05373E+02 -1.02100E+02 -9.85969E+01 -9.52499E+01 -9.30285E+01 -9.23739E+01 -9.19991E+01 -9.00090E+01
  -8.65083E+01 -8.40381E+01 -8.50348E+01 -8.89569E+01 -9.23934E+01 -9.26582E+01 -9.02517E+01 -8.72439E+01 -8.44797E+01 -8.00877E+01
  -7.15370E+01 -5.98254E+01 -5.06431E+01 -4.96311E+01 -5.49752E+01 -5.81527E+01 -5.53394E+01 -5.26853E+01 -5.81109E+01 -7.14596E+01
  -8.51300E+01 -9.33527E+01 -9.68990E+01 -9.87043E+01 -9.99765E+01 -1.00444E+02 -9.98192E+01 -9.84084E+01 -9.62326E+01 -9.29438E+01
  -8.88999E+01 -8.44507E+01 -7.92887E+01 -7.32003E+01 -6.68149E+01 -6.30522E+01 -6.31141E+01 -6.32886E+01 -6.15580E+01 -6.00951E+01
  -6.03937E+01 -6.09461E+01 -5.98915E+01 -5.94224E+01 -6.33113E+01 -7.14714E+01 -8.10651E+01 -8.99058E+01 -9.76205E+01 -1.03985E+02
  -1.06710E+02 -1.04060E+02 -9.48821E+01 -7.83115E+01 -5.61926E+01 -3.23884E+01 -1.31479E+01 -5.54658E+00 -9.54508E+00 -2.04262E+01
  -3.31616E+01 -4.20436E+01 -4.47432E+01 -4.29379E+01 -4.04842E+01 -4.04131E+01 -4.35384E+01 -4.98381E+01 -5.88422E+01 -6.97134E+01
  -8.14592E+01 -9.31363E+01 -1.04167E+02 -1.13971E+02 -1.22150E+02 -1.28528E+02 -1.32164E+02 -1.32598E+02 -1.29943E+02 -1.24205E+02
  -1.16722E+02 -1.08501E+02 -9.97415E+01 -9.17854E+01 -8.58532E+01 -8.31614E+01 -8.46492E+01 -8.95277E+01 -9.65276E+01 -1.04251E+02
  -1.12651E+02 -1.22519E+02 -1.28625E+02 -1.29713E+02 -1.30566E+02 -1.29148E+02 -1.06813E+02 -4.22460E+01  4.64231E+01  1.03985E+02
   1.06922E+02  8.16801E+01  5.94689E+01  4.84497E+01  4.20157E+01  3.68487E+01  3.20210E+01  2.73197E+01  2.31422E+01  2.00354E+01
   1.83968E+01  1.82279E+01  1.91811E+01  2.07263E+01  2.21688E+01  2.30710E+01  2.32664E+01  2.27084E+01  2.16945E+01  2.04053E+01
   1.88246E+01  1.68880E+01  1.47445E+01  1.26609E+01  1.06881E+01  8.66437E+00  6.43080E+00  4.04379E+00  1.50186E+00 -1.34263E+00
  -4.59312E+00 -8.18288E+00 -1.18447E+01 -1.52481E+01 -1.81066E+01 -2.00096E+01 -2.05438E+01 -1.95973E+01 -1.75269E+01 -1.49377E+01
  -1.22864E+01 -9.68498E+00 -7.05683E+00 -4.43941E+00 -1.97688E+00  2.68087E-01  2.38322E+00  4.51514E+00  6.79817E+00  9.24720E+00
   1.16387E+01  1.36596E+01  1.52497E+01  1.65737E+01  1.77263E+01  1.85827E+01  1.89266E+01  1.86400E+01  1.76760E+01  1.60078E+01
   1.37255E+01  1.10773E+01  8.11725E+00  4.64935E+00  5.71039E-01 -4.14168E+00 -9.72085E+00 -1.65461E+01 -2.46420E+01 -3.32426E+01
  -4.11153E+01 -4.73187E+01 -5.13733E+01 -5.29852E+01 -5.19165E+01 -4.82296E+01 -4.24898E+01 -3.60315E+01 -2.98617E+01 -2.51848E+01
  -2.36449E+01 -2.68086E+01 -3.50470E+01 -4.53081E+01 -5.26422E+01 -5.43854E+01 -5.04938E+01 -4.35862E+01 -3.75897E+01 -3.44527E+01
  -3.39335E+01 -3.49552E+01 -3.71262E+01 -4.02742E+01 -4.39693E+01 -4.74910E+01 -4.99824E+01 -5.09283E+01 -5.03634E+01 -4.85934E+01
  -4.59493E+01 -4.27005E+01 -3.90691E+01 -3.52744E+01 -3.15204E+01 -2.79984E+01 -2.47891E+01 -2.17808E+01 -1.88241E+01 -1.58131E+01
  -1.27328E+01 -9.62697E+00 -6.47707E+00 -3.14099E+00  5.74889E-01  4.76622E+00  9.43220E+00  1.45769E+01  2.02416E+01  2.64981E+01
   3.32510E+01  4.02706E+01  4.74368E+01  5.46813E+01  6.15108E+01  6.69344E+01  6.98636E+01  6.94155E+01  6.50850E+01  5.70494E+01
   4.65340E+01  3.54976E+01  2.56119E+01  1.74806E+01  1.07270E+01  4.54470E+00 -1.90477E+00 -9.29342E+00 -1.76573E+01 -2.63585E+01
  -3.45276E+01 -4.15330E+01 -4.69930E+01 -5.08991E+01 -5.36425E+01 -5.56095E+01 -5.69655E+01 -5.78565E+01 -5.85524E+01 -5.92573E+01
  -5.99394E+01 -6.04170E+01 -6.05918E+01 -6.05335E+01 -6.04329E+01 -6.03585E+01 -6.02235E+01 -6.00224E+01 -5.99004E+01 -5.98836E+01
  -5.97571E+01 -5.94091E+01 -5.90682E+01 -5.89353E+01 -5.88602E+01 -5.86812E+01 -5.84641E+01 -5.82928E+01 -5.80714E+01 -5.76762E+01
  -5.72056E+01 -5.68740E+01 -5.67944E+01 -5.68511E+01 -5.68434E+01 -5.66623E+01 -5.63017E+01 -5.58412E+01 -5.54137E+01 -5.50763E+01
  -5.47970E+01 -5.45538E+01 -5.43208E+01 -5.41236E+01 -5.40296E+01 -5.40273E+01 -5.39807E+01 -5.37734E+01 -5.34012E+01 -5.30090E+01
  -5.27252E+01 -5.25469E+01 -5.24240E+01 -5.22543E+01 -5.19201E+01 -5.14729E+01 -5.10563E+01 -5.07453E+01 -5.04963E+01 -5.02484E+01
  -4.99861E+01 -4.97631E+01 -4.96519E+01 -4.96343E+01 -4.95767E+01 -4.93839E+01 -4.90374E+01 -4.85239E+01 -4.78851E+01 -4.72768E+01
  -4.69402E+01 -4.69604E+01 -4.71433E+01 -4.71853E+01 -4.69478E+01 -4.65355E+01 -4.61177E+01 -4.57812E+01 -4.55008E+01 -4.52350E+01
 NY background values follow
    -6.893E+01   -6.884E+01   -6.876E+01   -6.868E+01   -6.860E+01   -6.851E+01   -6.843E+01   -6.835E+01   -6.826E+01   -6.818E+01
    -6.810E+01   -6.802E+01   -6.793E+01   -6.785E+01   -6.777E+01   -6.769E+01   -6.760E+01   -6.752E+01   -6.744E+01   -6.735E+01
    -6.727E+01   -6.719E+01   -6.711E+01   -6.702E+01   -6.694E+01   -6.686E+01   -6.678E+01   -6.669E+01   -6.661E+01   -6.653E+01
    -6.645E+01   -6.636E+01   -6.628E+01   -6.620E+01   -6.611E+01   -6.603E+01   -6.595E+01   -6.587E+01   -6.578E+01   -6.570E+01
    -6.562E+01   -6.554E+01   -6.546E+01   -6.537E+01   -6.529E+01   -6.521E+01   -6.513E+01   -6.504E+01   -6.496E+01   -6.488E+01
    -6.480E+01   -6.472E+01   -6.463E+01   -6.455E+01   -6.447E+01   -6.439E+01   -6.431E+01   -6.422E+01   -6.414E+01   -6.406E+01
    -6.398E+01   -6.390E+01   -6.382E+01   -6.373E+01   -6.365E+01   -6.357E+01   -6.349E+01   -6.341E+01   -6.333E+01   -6.325E+01
    -6.316E+01   -6.308E+01   -6.300E+01   -6.292E+01   -6.284E+01   -6.276E+01   -6.268E+01   -6.260E+01   -6.252E+01   -6.244E+01
    -6.236E+01   -6.228E+01   -6.220E+01   -6.212E+01   -6.204E+01   -6.196E+01   -6.188E+01   -6.180E+01   -6.172E+01   -6.164E+01
    -6.156E+01   -6.148E+01   -6.140E+01   -6.132E+01   -6.124E+01   -6.117E+01   -6.109E+01   -6.101E+01   -6.093E+01   -6.085E+01
    -6.077E+01   -6.069E+01   -6.062E+01   -6.054E+01   -6.046E+01   -6.038E+01   -6.031E+01   -6.023E+01   -6.015E+01   -6.007E+01
    -6.000E+01   -5.992E+01   -5.984E+01   -5.977E+01   -5.969E+01   -5.961E+01   -5.954E+01   -5.946E+01   -5.938E+01   -5.931E+01
    -5.923E+01   -5.916E+01   -5.908E+01   -5.901E+01   -5.893E+01   -5.885E+01   -5.878E+01   -5.870E+01   -5.863E+01   -5.856E+01
    -5.848E+01   -5.841E+01   -5.833E+01   -5.826E+01   -5.819E+01   -5.811E+01   -5.804E+01   -5.796E+01   -5.789E+01   -5.782E+01
    -5.775E+01   -5.767E+01   -5.760E+01   -5.753E+01   -5.746E+01   -5.738E+01   -5.731E+01   -5.724E+01   -5.717E+01   -5.710E+01
    -5.703E+01   -5.696E+01   -5.689E+01   -5.682E+01   -5.674E+01   -5.667E+01   -5.660E+01   -5.654E+01   -5.647E+01   -5.640E+01
    -5.633E+01   -5.626E+01   -5.619E+01   -5.612E+01   -5.605E+01   -5.598E+01   -5.592E+01   -5.585E+01   -5.578E+01   -5.571E+01
    -5.565E+01   -5.558E+01   -5.551E+01   -5.545E+01   -5.538E+01   -5.531E+01   -5.525E+01   -5.518E+01   -5.512E+01   -5.505E+01
    -5.499E+01   -5.492E+01   -5.486E+01   -5.479E+01   -5.473E+01   -5.466E+01   -5.460E+01   -5.454E+01   -5.447E+01   -5.441E+01
    -5.435E+01   -5.428E+01   -5.422E+01   -5.416E+01   -5.410E+01   -5.404E+01   -5.397E+01   -5.391E+01   -5.385E+01   -5.379E+01
    -5.373E+01   -5.367E+01   -5.361E+01   -5.355E+01   -5.349E+01   -5.343E+01   -5.337E+01   -5.331E+01   -5.325E+01   -5.319E+01
    -5.314E+01   -5.308E+01   -5.302E+01   -5.296E+01   -5.290E+01   -5.285E+01   -5.279E+01   -5.273E+01   -5.268E+01   -5.262E+01
    -5.256E+01   -5.251E+01   -5.245E+01   -5.240E+01   -5.234E+01   -5.229E+01   -5.223E+01   -5.218E+01   -5.212E+01   -5.207E+01
    -5.202E+01   -5.196E+01   -5.191E+01   -5.186E+01   -5.180E+01   -5.175E+01   -5.170E+01   -5.165E+01   -5.159E+01   -5.154E+01
    -5.149E+01   -5.144E+01   -5.139E+01   -5.134E+01   -5.129E+01   -5.124E+01   -5.119E+01   -5.114E+01   -5.109E+01   -5.104E+01
    -5.099E+01   -5.094E+01   -5.090E+01   -5.085E+01   -5.080E+01   -5.075E+01   -5.071E+01   -5.066E+01   -5.061E+01   -5.057E+01
    -5.052E+01   -5.047E+01   -5.043E+01   -5.038E+01   -5.034E+01   -5.029E+01   -5.025E+01   -5.020E+01   -5.016E+01   -5.011E+01
    -5.007E+01   -5.003E+01   -4.998E+01   -4.994E+01   -4.990E+01   -4.986E+01   -4.981E+01   -4.977E+01   -4.973E+01   -4.969E+01
    -4.965E+01   -4.961E+01   -4.956E+01   -4.952E+01   -4.948E+01   -4.944E+01   -4.940E+01   -4.936E+01   -4.933E+01   -4.929E+01
    -4.925E+01   -4.921E+01   -4.917E+01   -4.913E+01   -4.909E+01   -4.906E+01   -4.902E+01   -4.898E+01   -4.895E+01   -4.891E+01
    -4.887E+01   -4.884E+01   -4.880E+01   -4.876E+01   -4.873E+01   -4.869E+01   -4.866E+01   -4.862E+01   -4.859E+01   -4.855E+01
    -4.852E+01   -4.848E+01   -4.845E+01   -4.842E+01   -4.838E+01   -4.835E+01   -4.832E+01   -4.829E+01   -4.825E+01   -4.822E+01
    -4.819E+01   -4.816E+01   -4.812E+01   -4.809E+01   -4.806E+01   -4.803E+01   -4.800E+01   -4.797E+01   -4.794E+01   -4.791E+01
    -4.788E+01   -4.785E+01   -4.782E+01   -4.779E+01   -4.776E+01   -4.773E+01   -4.770E+01   -4.767E+01   -4.764E+01   -4.761E+01
    -4.759E+01   -4.756E+01   -4.753E+01   -4.750E+01   -4.747E+01   -4.745E+01   -4.742E+01   -4.739E+01   -4.737E+01   -4.734E+01
    -4.731E+01   -4.729E+01   -4.726E+01   -4.723E+01   -4.721E+01   -4.718E+01   -4.715E+01   -4.713E+01   -4.710E+01   -4.708E+01
    -4.705E+01   -4.703E+01   -4.700E+01   -4.698E+01   -4.695E+01   -4.693E+01   -4.690E+01   -4.688E+01   -4.685E+01   -4.683E+01
    -4.680E+01   -4.678E+01   -4.675E+01   -4.673E+01   -4.671E+01   -4.668E+01   -4.666E+01   -4.664E+01   -4.661E+01   -4.659E+01
    -4.657E+01   -4.654E+01   -4.652E+01   -4.650E+01   -4.647E+01   -4.645E+01   -4.643E+01   -4.640E+01   -4.638E+01   -4.636E+01
    -4.634E+01   -4.631E+01   -4.629E+01   -4.627E+01   -4.625E+01   -4.622E+01   -4.620E+01   -4.618E+01   -4.616E+01   -4.613E+01
    -4.611E+01   -4.609E+01   -4.607E+01   -4.605E+01   -4.602E+01   -4.600E+01   -4.598E+01   -4.596E+01   -4.594E+01   -4.592E+01
    -4.589E+01   -4.587E+01   -4.585E+01   -4.583E+01   -4.581E+01   -4.579E+01   -4.577E+01   -4.574E+01   -4.572E+01   -4.570E+01
    -4.568E+01   -4.566E+01   -4.564E+01   -4.562E+01   -4.560E+01   -4.557E+01   -4.555E+01   -4.553E+01   -4.551E+01   -4.549E+01
    -4.547E+01   -4.545E+01   -4.543E+01   -4.541E+01   -4.538E+01   -4.536E+01   -4.534E+01   -4.532E+01   -4.530E+01   -4.528E+01
    -4.526E+01   -4.524E+01   -4.522E+01   -4.520E+01   -4.518E+01   -4.515E+01   -4.513E+01   -4.511E+01   -4.509E+01   -4.507E+01
    -4.505E+01   -4.503E+01   -4.501E+01   -4.499E+01   -4.497E+01   -4.495E+01   -4.493E+01   -4.490E+01   -4.488E+01   -4.486E+01
    -4.484E+01   -4.482E+01   -4.480E+01   -4.478E+01   -4.476E+01   -4.474E+01   -4.472E+01   -4.470E+01   -4.468E+01   -4.466E+01
    -4.463E+01   -4.461E+01   -4.459E+01   -4.457E+01   -4.455E+01   -4.453E+01   -4.451E+01   -4.449E+01   -4.447E+01   -4.445E+01
 Mac      Conc. = 2.75E-04
  -8.82752E+01 -8.88244E+01 -8.92037E+01 -8.94466E+01 -8.97792E+01 -9.04255E+01 -9.15055E+01 -9.29927E+01 -9.46537E+01 -9.60993E+01
  -9.70391E+01 -9.74474E+01 -9.75659E+01 -9.77236E+01 -9.81564E+01 -9.89808E+01 -9.98591E+01 -9.97770E+01 -9.76870E+01 -9.35793E+01
  -8.87864E+01 -8.47174E+01 -8.16245E+01 -7.92462E+01 -7.75777E+01 -7.64991E+01 -7.54986E+01 -7.40906E+01 -7.22635E+01 -7.03025E+01
  -6.85398E+01 -6.72226E+01 -6.63512E+01 -6.57946E+01 -6.55164E+01 -6.54716E+01 -6.53128E+01 -6.44593E+01 -6.26667E+01 -6.04778E+01
  -5.88597E+01 -5.83288E+01 -5.84238E+01 -5.82190E+01 -5.73070E+01 -5.60583E+01 -5.51570E+01 -5.50345E+01 -5.56591E+01 -5.67467E+01
  -5.80057E+01 -5.92175E+01 -6.02017E+01 -6.08410E+01 -6.11484E+01 -6.11688E+01 -6.08699E+01 -6.01387E+01 -5.89467E+01 -5.74987E+01
  -5.61156E+01 -5.49546E+01 -5.40558E+01 -5.36767E+01 -5.40350E+01 -5.49121E+01 -5.58217E+01 -5.63800E+01 -5.65407E+01 -5.63985E+01
  -5.57916E+01 -5.43697E+01 -5.20865E+01 -4.96415E+01 -4.79437E+01 -4.72749E+01 -4.73820E+01 -4.79364E+01 -4.87020E+01 -4.94709E+01
  -5.00169E+01 -5.02779E+01 -5.03202E+01 -5.01168E+01 -4.95749E+01 -4.87212E+01 -4.77753E+01 -4.69142E+01 -4.61478E+01 -4.54915E+01
  -4.49841E+01 -4.46329E+01 -4.44348E+01 -4.44752E+01 -4.49185E+01 -4.59447E+01 -4.76542E+01 -4.99300E+01 -5.24213E+01 -5.47754E+01
  -5.68428E+01 -5.87473E+01 -6.09083E+01 -6.37658E+01 -6.75041E+01 -7.21416E+01 -7.76116E+01 -8.34018E+01 -8.83227E+01 -9.10410E+01
