 LCModel (Version 6.3-1N) Copyright: S.W. Provencher.          Ref.: Magn. Reson. Med. 30:672-679 (1993).                
 Slice_N1@14_23  28-Feb-2025 11:39:11
 27 lines in following concentration table = NCONC+1
    Conc.  %SD /Cr+PCr  Metabolite                                         
 3.42E-04   4% 4.2E-04 Mac                                                 
    2.964  74%   3.595 Cr                                                  
    3.631  59%   4.405 PCr                                                 
    6.965  15%   8.448 Ins                                                 
   11.498   9%  13.947 NAA                                                 
    4.990  21%   6.053 Tau                                                 
    0.771 147%   0.935 PCho                                                
    0.315 351%   0.382 GPC                                                 
   11.796  10%  14.309 Glu                                                 
    3.623  24%   4.395 Gln                                                 
    0.000 999%   0.000 Ala                                                 
    2.636  55%   3.198 Asc                                                 
    2.222  44%   2.696 Asp                                                 
    0.365 148%   0.443 GABA                                                
    0.568 117%   0.689 Glc                                                 
    0.681  75%   0.826 GSH                                                 
    4.367  19%   5.297 Lac                                                 
    2.595  29%   3.148 NAAG                                                
    0.804 172%   0.975 PE                                                  
    1.086  34%   1.317 GPC+PCho                                            
   14.093   6%  17.095 NAA+NAAG                                            
   15.420   9%  18.704 Glu+Gln                                             
    6.595  12%   8.000 Cr+PCr                                              
   14.093   6%  17.095 NAA+NAAG                                            
    6.595  12%   8.000 Cr+PCr                                              
   15.420   9%  18.704 Glu+Gln                                             
   6 lines in following misc. output table
  FWHM = 0.049 ppm    S/N =   4                                            
  Data shift = 0.000 ppm                                                   
  Ph: -54 deg       0.0 deg/ppm                                            
  alphaB,S = 2.8E-01,   2.4E+01                                            
   19 spline knots.   Ns = 6(1)                                            
  ( 7) 4 infls.   ( 4) 1 extrs.                                            
  480 points on ppm-axis = NY
      4.100000     4.091866     4.083733     4.075600     4.067466     4.059333     4.051199     4.043066     4.034933     4.026799
      4.018666     4.010532     4.002399     3.994265     3.986132     3.977998     3.969864     3.961731     3.953597     3.945463
      3.937330     3.929196     3.921062     3.912929     3.904795     3.896662     3.888528     3.880394     3.872261     3.864127
      3.855993     3.847860     3.839726     3.831592     3.823459     3.815325     3.807191     3.799058     3.790924     3.782790
      3.774657     3.766523     3.758389     3.750256     3.742122     3.733989     3.725855     3.717721     3.709588     3.701454
      3.693320     3.685187     3.677053     3.668919     3.660786     3.652652     3.644518     3.636385     3.628251     3.620117
      3.611984     3.603850     3.595716     3.587583     3.579449     3.571316     3.563182     3.555048     3.546915     3.538781
      3.530647     3.522514     3.514380     3.506246     3.498113     3.489979     3.481845     3.473712     3.465578     3.457444
      3.449311     3.441177     3.433043     3.424910     3.416776     3.408643     3.400509     3.392375     3.384242     3.376108
      3.367974     3.359841     3.351707     3.343573     3.335440     3.327306     3.319172     3.311039     3.302905     3.294771
      3.286638     3.278504     3.270370     3.262237     3.254103     3.245970     3.237836     3.229702     3.221569     3.213435
      3.205301     3.197168     3.189034     3.180900     3.172767     3.164633     3.156499     3.148366     3.140232     3.132098
      3.123965     3.115831     3.107697     3.099564     3.091430     3.083297     3.075163     3.067029     3.058896     3.050762
      3.042628     3.034495     3.026361     3.018227     3.010094     3.001960     2.993826     2.985693     2.977559     2.969425
      2.961292     2.953158     2.945024     2.936891     2.928757     2.920624     2.912490     2.904356     2.896223     2.888089
      2.879955     2.871822     2.863688     2.855554     2.847421     2.839287     2.831153     2.823020     2.814886     2.806752
      2.798619     2.790485     2.782351     2.774218     2.766084     2.757951     2.749817     2.741683     2.733550     2.725416
      2.717282     2.709149     2.701015     2.692881     2.684748     2.676614     2.668480     2.660347     2.652213     2.644079
      2.635946     2.627812     2.619678     2.611545     2.603411     2.595278     2.587144     2.579010     2.570877     2.562743
      2.554609     2.546476     2.538342     2.530208     2.522075     2.513941     2.505807     2.497674     2.489540     2.481406
      2.473273     2.465139     2.457006     2.448872     2.440738     2.432605     2.424471     2.416337     2.408204     2.400070
      2.391936     2.383803     2.375669     2.367535     2.359402     2.351268     2.343134     2.335001     2.326867     2.318733
      2.310600     2.302466     2.294333     2.286199     2.278065     2.269932     2.261798     2.253664     2.245531     2.237397
      2.229263     2.221130     2.212996     2.204862     2.196729     2.188595     2.180461     2.172328     2.164194     2.156060
      2.147927     2.139793     2.131660     2.123526     2.115392     2.107259     2.099125     2.090991     2.082858     2.074724
      2.066590     2.058457     2.050323     2.042189     2.034056     2.025922     2.017788     2.009655     2.001521     1.993387
      1.985254     1.977120     1.968987     1.960853     1.952719     1.944586     1.936452     1.928318     1.920185     1.912051
      1.903917     1.895784     1.887650     1.879516     1.871383     1.863249     1.855115     1.846982     1.838848     1.830714
      1.822581     1.814447     1.806314     1.798180     1.790046     1.781913     1.773779     1.765645     1.757512     1.749378
      1.741244     1.733111     1.724977     1.716843     1.708710     1.700576     1.692442     1.684309     1.676175     1.668041
      1.659908     1.651774     1.643641     1.635507     1.627373     1.619240     1.611106     1.602972     1.594839     1.586705
      1.578571     1.570438     1.562304     1.554170     1.546037     1.537903     1.529769     1.521636     1.513502     1.505368
      1.497235     1.489101     1.480968     1.472834     1.464700     1.456567     1.448433     1.440299     1.432166     1.424032
      1.415898     1.407765     1.399631     1.391497     1.383364     1.375230     1.367096     1.358963     1.350829     1.342695
      1.334562     1.326428     1.318295     1.310161     1.302027     1.293894     1.285760     1.277626     1.269493     1.261359
      1.253225     1.245092     1.236958     1.228824     1.220691     1.212557     1.204423     1.196290     1.188156     1.180022
      1.171889     1.163755     1.155622     1.147488     1.139354     1.131221     1.123087     1.114953     1.106820     1.098686
      1.090552     1.082419     1.074285     1.066151     1.058018     1.049884     1.041750     1.033617     1.025483     1.017349
      1.009216     1.001082     0.992949     0.984815     0.976681     0.968548     0.960414     0.952280     0.944147     0.936013
      0.927879     0.919746     0.911612     0.903478     0.895345     0.887211     0.879077     0.870944     0.862810     0.854676
      0.846543     0.838409     0.830276     0.822142     0.814008     0.805875     0.797741     0.789607     0.781474     0.773340
      0.765206     0.757073     0.748939     0.740805     0.732672     0.724538     0.716404     0.708271     0.700137     0.692003
      0.683870     0.675736     0.667603     0.659469     0.651335     0.643202     0.635068     0.626934     0.618801     0.610667
      0.602533     0.594400     0.586266     0.578132     0.569999     0.561865     0.553731     0.545598     0.537464     0.529330
      0.521197     0.513063     0.504930     0.496796     0.488662     0.480529     0.472395     0.464261     0.456128     0.447994
      0.439861     0.431727     0.423593     0.415460     0.407326     0.399192     0.391059     0.382925     0.374792     0.366658
      0.358524     0.350391     0.342257     0.334124     0.325990     0.317856     0.309723     0.301589     0.293455     0.285322
      0.277188     0.269055     0.260921     0.252787     0.244654     0.236520     0.228386     0.220253     0.212119     0.203986
 NY phased data points follow
   3.90935E+01  4.31934E+01  4.32022E+01  3.78614E+01  3.43812E+01  2.52482E+01  3.64838E+01  4.14838E+01  4.70336E+01  3.03711E+01
   4.24472E+01  4.19951E+01  2.25806E+01  3.07801E+01  2.48788E+01  2.85456E+01  1.59497E+01  1.37833E+01  1.25908E+01  1.02387E+01
   6.26601E+00  6.89958E+00  3.66729E+01  3.44326E+01  4.67955E+01  7.47399E+01  7.96723E+01  8.28440E+01  8.78670E+01  8.41224E+01
   7.13781E+01  8.21361E+01  8.81379E+01  8.25394E+01  7.11637E+01  6.11601E+01  7.66266E+01  5.89649E+01  3.94583E+01  3.32505E+01
   1.83183E+01  2.31072E+01  3.15804E+01  3.66799E+01  3.04283E+01  5.50502E+01  7.28396E+01  8.03141E+01  9.83918E+01  1.06433E+02
   1.08650E+02  8.41469E+01  9.26294E+01  7.71487E+01  6.52164E+01  7.34108E+01  6.00481E+01  6.55048E+01  4.97546E+01  5.06303E+01
   5.61705E+01  6.25406E+01  5.75765E+01  6.60229E+01  9.39878E+01  8.47125E+01  8.79461E+01  7.04053E+01  5.14703E+01  6.38616E+01
   4.88771E+01  3.13204E+01  5.12596E+01  5.98617E+01  7.70355E+01  8.11362E+01  6.86329E+01  9.97189E+01  9.21639E+01  8.74702E+01
   9.51582E+01  7.47158E+01  7.75456E+01  7.08354E+01  5.36095E+01  5.50341E+01  5.18515E+01  6.87464E+01  8.08513E+01  7.93031E+01
   1.02687E+02  9.17089E+01  1.08742E+02  1.21608E+02  1.08647E+02  1.19617E+02  1.12486E+02  1.21731E+02  1.17252E+02  1.19660E+02
   1.09913E+02  1.00372E+02  9.36085E+01  6.21997E+01  6.93646E+01  5.27106E+01  3.82968E+01  3.24513E+01  4.86536E+00  6.25511E+00
  -8.23575E+00 -3.14956E+01 -5.72413E+00 -1.08099E+01 -2.09197E+01  9.08527E+00  2.04058E+01  2.99955E+01  3.04995E+01  5.26829E+01
   5.70712E+01  5.54489E+01  5.89306E+01  5.02528E+01  7.60213E+01  7.83128E+01  9.87068E+01  1.04238E+02  1.09536E+02  1.34650E+02
   1.23458E+02  1.03555E+02  4.88367E+01  2.21049E+01  1.57864E+01 -1.48752E+01 -4.20278E+01 -3.83322E+01 -2.16019E+01 -1.73491E+01
  -1.93610E+01 -2.29431E+01 -4.44903E+00 -1.95040E+01 -2.85660E+01 -1.35232E+01 -9.55459E+00 -2.67066E+00 -1.97064E+01 -1.71067E+01
  -6.98190E+00 -5.58578E+00  1.04179E+01  1.22218E+01  8.65843E+00  1.58029E+01  1.70458E+01  2.31965E+01  2.29092E+01  1.79430E+01
   4.69603E+01  4.83292E+01  1.78637E+01  1.85601E+01  2.91304E+01  1.55174E+01  1.41502E+01  3.24624E+01  3.12480E+01  3.64127E+01
   4.61868E+01  5.59131E+01  4.91089E+01  5.12171E+01  6.71448E+01  5.60911E+01  6.82376E+01  5.27365E+01  3.07381E+01  3.50886E+01
   1.17973E+01  2.78719E+00 -6.75457E+00 -1.56941E+01 -1.02559E+01 -5.89368E+00  6.53960E+00  9.88916E+00 -4.94335E+00 -8.36096E+00
  -2.27492E+00 -9.02587E-01  1.66589E+01  2.06262E+01  1.35779E+01  2.15970E+01  2.46261E+01  3.18645E+01  4.01716E+01  2.70438E+01
   2.17041E+01  2.97325E+01  3.34197E+01  3.99940E+01  1.73799E+01  1.05041E+01  3.01406E+01  8.51044E+00 -1.10528E+01 -1.99050E+00
   3.75512E+00 -8.67782E+00  7.50522E+00  4.15500E+01  3.20645E+01  3.77770E+01  6.51344E+01  7.06184E+01  7.32496E+01  7.62419E+01
   6.70249E+01  5.24090E+01  4.80921E+01  3.07953E+01  2.13834E+01  3.57383E+01  3.12787E+01  2.87624E+01  3.78445E+01  4.55379E+01
   3.83234E+01  2.94863E+01  2.16997E+01 -2.49223E+00 -6.60325E+00 -1.68924E+01 -3.28216E+01 -4.51068E+01 -5.87834E+01 -4.24066E+01
  -3.88324E+01 -4.14480E+01 -3.03685E+01 -3.20642E+01 -2.95905E+01 -1.93822E+01 -1.83852E+01 -1.62810E+01 -6.38296E+00 -1.53480E+01
  -3.27503E+01 -2.91539E+01 -2.81193E+01 -4.23083E+01 -5.38287E+01 -4.57088E+01 -1.71416E+01  4.41433E+01  1.30648E+02  1.54679E+02
   1.51019E+02  1.92206E+02  2.03883E+02  1.71530E+02  1.47745E+02  1.43661E+02  1.38402E+02  1.18031E+02  1.10733E+02  1.20000E+02
   1.11817E+02  1.07888E+02  1.15789E+02  1.13560E+02  1.09239E+02  1.07787E+02  1.13399E+02  1.15476E+02  1.20562E+02  1.16546E+02
   1.01542E+02  9.61607E+01  1.01264E+02  1.01549E+02  8.78970E+01  1.05902E+02  1.04504E+02  6.75927E+01  7.90455E+01  8.51477E+01
   6.13203E+01  7.31834E+01  8.06363E+01  6.75683E+01  7.46553E+01  7.07768E+01  4.63546E+01  4.42664E+01  5.82927E+01  5.67644E+01
   7.64619E+01  8.10783E+01  7.20985E+01  9.15584E+01  8.40887E+01  8.09252E+01  8.50395E+01  8.27291E+01  8.89524E+01  8.54895E+01
   7.37796E+01  7.83545E+01  7.93541E+01  7.07892E+01  6.96055E+01  5.31610E+01  6.24743E+01  6.83468E+01  6.90933E+01  7.76991E+01
   8.77181E+01  1.03254E+02  9.98198E+01  1.16851E+02  1.02660E+02  9.57384E+01  1.02748E+02  6.94190E+01  6.38613E+01  5.97744E+01
   2.98404E+01  1.04190E+01  3.36328E-01 -1.56401E+01 -3.25143E+01 -4.87088E+01 -3.86695E+01 -4.39674E+01 -4.87208E+01 -4.01683E+01
  -4.99442E+01 -3.85231E+01 -5.01019E+01 -5.19646E+01 -4.15240E+01 -3.64791E+01 -3.21427E+01 -3.73404E+01 -1.93061E+01 -9.51706E+00
  -4.50238E-01  1.02347E+01  1.71467E+01  1.36282E+01  1.94780E+01  2.23334E+01 -1.14149E+00 -7.82012E+00 -3.95161E+00  6.03040E+00
   2.89715E+00  2.12885E-01  1.42411E+01  1.34431E+01  1.52197E+00  1.41621E+01  3.24207E+01  2.53680E+01  2.63861E+01  3.44501E+01
   3.86423E+01  4.66431E+01  5.15284E+01  4.85765E+01  4.82456E+01  5.20965E+01  6.68540E+01  7.71519E+01  7.75116E+01  8.82522E+01
   9.02010E+01  8.58772E+01  8.67410E+01  9.77490E+01  1.12476E+02  1.22040E+02  1.23872E+02  1.18290E+02  1.29582E+02  1.49683E+02
   1.35952E+02  1.26069E+02  1.25694E+02  9.96835E+01  8.58463E+01  7.39477E+01  8.04067E+01  7.43965E+01  5.60754E+01  5.28539E+01
   4.10428E+01  5.58013E+01  3.91693E+01  2.24783E+01  3.09616E+01  1.98989E+01  1.06702E+01  8.76872E+00  1.35633E+01  9.73578E+00
   8.86647E+00 -9.07728E-01 -9.50972E+00 -1.79167E+00  1.07831E+01  1.75774E+01  1.07363E+01 -2.61574E+00 -6.93369E+00  4.35895E-01
   1.11778E+01  1.09114E+01 -9.60594E+00  2.55407E+00  4.72907E+00 -1.14727E+01 -5.61429E+00  2.95193E-01 -1.77339E+00 -7.83292E+00
   2.43031E+00  6.85996E+00  7.16568E+00 -5.55094E+00  3.03650E+00  6.02705E+00 -1.14802E+00  8.09566E+00 -1.14736E+01  2.14901E+00
   6.04516E-01  9.52449E+00  2.28095E+01 -2.80417E+00  1.02942E+01  1.09551E+00 -1.02073E+00  1.11654E+01 -9.93866E-01  8.50954E+00
   6.28720E+00 -2.14574E+00  1.23533E+01  1.90405E+00 -2.40076E-01  1.49017E+01  8.18066E+00  8.09708E+00  6.44326E+00 -2.36749E+00
   1.64366E+00  1.22347E+01 -4.66410E-01  1.23992E+01  9.45201E+00 -1.46471E+01  2.04523E+01  1.63178E+01  6.93183E-01  7.46191E+00
   5.56266E+00  2.52905E+00 -7.82051E-01  9.53783E+00  2.91524E+00  2.75250E+00  1.61039E+01  1.41742E+01  1.65708E+00  1.27024E+01
 NY points of the fit to the data follow
   3.98285E+01  3.83832E+01  3.53469E+01  3.27518E+01  3.28170E+01  3.60837E+01  4.04801E+01  4.36310E+01  4.42622E+01  4.31833E+01
   4.03793E+01  3.58281E+01  3.15369E+01  2.90396E+01  2.70665E+01  2.45920E+01  2.06197E+01  1.48611E+01  8.52953E+00  4.40246E+00
   5.08525E+00  1.26477E+01  2.58474E+01  4.11366E+01  5.60667E+01  6.85536E+01  7.68979E+01  8.13675E+01  8.39098E+01  8.42147E+01
   8.43090E+01  8.44304E+01  8.38237E+01  8.20728E+01  7.90916E+01  7.50303E+01  6.95915E+01  6.19234E+01  5.16564E+01  4.01987E+01
   3.00408E+01  2.38554E+01  2.34324E+01  2.91769E+01  4.03015E+01  5.49189E+01  6.97277E+01  8.15798E+01  8.99255E+01  9.47376E+01
   9.59636E+01  9.43075E+01  9.10811E+01  8.57961E+01  7.92481E+01  7.25157E+01  6.52248E+01  5.84026E+01  5.33533E+01  5.05947E+01
   5.13687E+01  5.56440E+01  6.13516E+01  6.87955E+01  7.81530E+01  8.43302E+01  8.41126E+01  7.94587E+01  7.03875E+01  5.91192E+01
   5.10479E+01  4.79349E+01  4.92095E+01  5.50479E+01  6.59289E+01  7.78067E+01  8.61403E+01  9.18346E+01  9.59951E+01  9.60795E+01
   9.18516E+01  8.47948E+01  7.63239E+01  6.81374E+01  6.24522E+01  6.09278E+01  6.34461E+01  6.91346E+01  7.66235E+01  8.43910E+01
   9.07954E+01  9.63370E+01  1.00423E+02  1.03675E+02  1.06715E+02  1.09496E+02  1.11323E+02  1.11690E+02  1.11189E+02  1.09216E+02
   1.05307E+02  9.89392E+01  8.92926E+01  7.66903E+01  6.32620E+01  5.04415E+01  3.83164E+01  2.63237E+01  1.21835E+01 -3.90540E+00
  -1.68239E+01 -2.21539E+01 -2.16989E+01 -1.70547E+01 -8.74896E+00  3.88506E+00  1.60801E+01  2.40400E+01  3.08317E+01  3.72094E+01
   4.34756E+01  4.99414E+01  5.68973E+01  6.46708E+01  7.36534E+01  8.44385E+01  9.57187E+01  1.08662E+02  1.22941E+02  1.31624E+02
   1.25704E+02  1.03315E+02  6.97514E+01  3.61615E+01  1.04551E+01 -9.14385E+00 -2.20238E+01 -2.28616E+01 -1.63951E+01 -1.47170E+01
  -1.49038E+01 -1.52041E+01 -1.55064E+01 -1.56683E+01 -1.54802E+01 -1.47081E+01 -1.32667E+01 -1.13096E+01 -8.92019E+00 -6.14446E+00
  -3.18011E+00 -3.56049E-01  2.28741E+00  4.85895E+00  7.25194E+00  9.30121E+00  1.08945E+01  1.22347E+01  1.38001E+01  1.55332E+01
   1.68477E+01  1.74483E+01  1.75657E+01  1.75963E+01  1.79760E+01  1.87730E+01  1.96894E+01  2.07349E+01  2.29358E+01  2.74260E+01
   3.39131E+01  4.02256E+01  4.40429E+01  4.55476E+01  4.69529E+01  4.89807E+01  4.92787E+01  4.59108E+01  4.01447E+01  3.37436E+01
   2.67493E+01  1.87532E+01  1.10869E+01  5.85578E+00  3.37984E+00  2.19979E+00  1.27789E+00  1.08038E+00  1.89560E+00  3.30165E+00
   5.07248E+00  8.00069E+00  1.21348E+01  1.68071E+01  2.11902E+01  2.46579E+01  2.76271E+01  3.07727E+01  3.26886E+01  3.26471E+01
   3.30045E+01  3.47781E+01  3.53844E+01  3.38672E+01  3.06613E+01  2.61332E+01  2.04772E+01  1.27063E+01  4.14859E+00 -2.42987E+00
  -6.13841E+00 -6.06802E+00 -3.88635E-01  1.19511E+01  2.91575E+01  4.85217E+01  6.59841E+01  7.71255E+01  8.13228E+01  7.94645E+01
   7.24084E+01  6.37016E+01  5.78096E+01  5.30932E+01  5.02629E+01  4.91710E+01  4.69207E+01  4.27589E+01  3.62081E+01  2.73084E+01
   1.68811E+01  5.42484E+00 -6.22743E+00 -1.70656E+01 -2.65970E+01 -3.44099E+01 -3.98559E+01 -4.32611E+01 -4.48792E+01 -4.43855E+01
  -4.18816E+01 -3.77918E+01 -3.19262E+01 -2.51735E+01 -1.91796E+01 -1.46159E+01 -1.26070E+01 -1.35728E+01 -1.71362E+01 -2.38109E+01
  -3.32509E+01 -3.95870E+01 -4.39661E+01 -5.03019E+01 -5.42046E+01 -4.38435E+01 -1.15561E+01  3.95038E+01  9.13682E+01  1.27898E+02
   1.54167E+02  1.73536E+02  1.72998E+02  1.55969E+02  1.43983E+02  1.36395E+02  1.30238E+02  1.24959E+02  1.20512E+02  1.16870E+02
   1.14021E+02  1.12039E+02  1.10903E+02  1.10302E+02  1.09907E+02  1.09457E+02  1.08743E+02  1.07689E+02  1.06343E+02  1.04730E+02
   1.02724E+02  1.00447E+02  9.80532E+01  9.54909E+01  9.27875E+01  8.99355E+01  8.70075E+01  8.40111E+01  8.07894E+01  7.71969E+01
   7.32716E+01  6.90842E+01  6.46893E+01  6.02745E+01  5.62185E+01  5.29711E+01  5.09988E+01  5.03504E+01  5.08690E+01  5.24222E+01
   5.47307E+01  5.74632E+01  6.03869E+01  6.33221E+01  6.61472E+01  6.88577E+01  7.14745E+01  7.40268E+01  7.65711E+01  7.91495E+01
   8.16136E+01  8.38747E+01  8.59599E+01  8.78115E+01  8.92826E+01  9.03250E+01  9.09034E+01  9.08593E+01  9.01331E+01  8.86899E+01
   8.65245E+01  8.37609E+01  8.03958E+01  7.63809E+01  7.18449E+01  6.67070E+01  6.04936E+01  5.30278E+01  4.45700E+01  3.56199E+01
   2.67748E+01  1.88389E+01  1.26553E+01  9.14592E+00  8.50343E+00  1.12706E+01  1.64370E+01  2.15537E+01  2.35793E+01  2.03579E+01
   1.17020E+01  9.50481E-01 -8.27986E+00 -1.38828E+01 -1.39858E+01 -8.90834E+00 -1.47181E+00  5.80858E+00  1.26765E+01  1.62437E+01
   1.75148E+01  1.72756E+01  1.57480E+01  1.31384E+01  9.73105E+00  6.03370E+00  2.76578E+00  4.85717E-01 -5.47549E-01 -1.57075E-01
   1.64729E+00  4.58219E+00  8.29605E+00  1.24843E+01  1.69116E+01  2.13290E+01  2.56344E+01  2.97927E+01  3.37876E+01  3.76832E+01
   4.15500E+01  4.54533E+01  4.94120E+01  5.35565E+01  5.80122E+01  6.28211E+01  6.81040E+01  7.40029E+01  8.05193E+01  8.76218E+01
   9.53254E+01  1.03482E+02  1.11986E+02  1.20710E+02  1.29085E+02  1.36294E+02  1.41562E+02  1.43937E+02  1.42473E+02  1.37082E+02
   1.28523E+02  1.17964E+02  1.06605E+02  9.55711E+01  8.54506E+01  7.62921E+01  6.76047E+01  5.87520E+01  4.93841E+01  3.97132E+01
   3.00911E+01  2.09673E+01  1.29910E+01  6.48206E+00  1.40218E+00 -2.34997E+00 -4.85864E+00 -6.58015E+00 -7.88497E+00 -8.85736E+00
  -9.55279E+00 -1.00484E+01 -1.03728E+01 -1.05364E+01 -1.04994E+01 -1.02844E+01 -9.95794E+00 -9.65596E+00 -9.41361E+00 -9.12417E+00
  -8.72010E+00 -8.26215E+00 -7.90712E+00 -7.55604E+00 -7.09294E+00 -6.63062E+00 -6.32820E+00 -6.02104E+00 -5.53822E+00 -4.99306E+00
  -4.46420E+00 -4.03140E+00 -3.67427E+00 -3.34249E+00 -3.03892E+00 -2.75225E+00 -2.38342E+00 -1.88428E+00 -1.35179E+00 -7.81219E-01
  -2.10443E-01  3.14488E-01  7.69166E-01  1.14509E+00  1.39873E+00  1.59299E+00  1.84443E+00  2.16056E+00  2.54858E+00  2.95310E+00
   3.36844E+00  3.78461E+00  4.16096E+00  4.53087E+00  4.99295E+00  5.50110E+00  5.97262E+00  6.49266E+00  7.03385E+00  7.49303E+00
   7.90163E+00  8.26736E+00  8.55903E+00  8.81001E+00  9.08737E+00  9.39220E+00  9.83166E+00  1.04232E+01  1.11354E+01  1.18089E+01
   1.23390E+01  1.26893E+01  1.29791E+01  1.32447E+01  1.35002E+01  1.38424E+01  1.42740E+01  1.47556E+01  1.52625E+01  1.57635E+01
 NY background values follow
     6.793E+01    6.788E+01    6.783E+01    6.778E+01    6.773E+01    6.768E+01    6.763E+01    6.758E+01    6.753E+01    6.748E+01
     6.743E+01    6.737E+01    6.732E+01    6.727E+01    6.722E+01    6.717E+01    6.712E+01    6.707E+01    6.702E+01    6.697E+01
     6.692E+01    6.687E+01    6.682E+01    6.677E+01    6.672E+01    6.667E+01    6.662E+01    6.657E+01    6.652E+01    6.647E+01
     6.641E+01    6.636E+01    6.631E+01    6.626E+01    6.621E+01    6.616E+01    6.611E+01    6.606E+01    6.601E+01    6.596E+01
     6.591E+01    6.586E+01    6.581E+01    6.575E+01    6.570E+01    6.565E+01    6.560E+01    6.555E+01    6.549E+01    6.544E+01
     6.539E+01    6.533E+01    6.528E+01    6.523E+01    6.517E+01    6.512E+01    6.507E+01    6.501E+01    6.496E+01    6.490E+01
     6.484E+01    6.479E+01    6.473E+01    6.467E+01    6.462E+01    6.456E+01    6.450E+01    6.444E+01    6.438E+01    6.432E+01
     6.426E+01    6.420E+01    6.414E+01    6.407E+01    6.401E+01    6.395E+01    6.388E+01    6.381E+01    6.375E+01    6.368E+01
     6.361E+01    6.354E+01    6.347E+01    6.340E+01    6.333E+01    6.325E+01    6.318E+01    6.310E+01    6.303E+01    6.295E+01
     6.287E+01    6.279E+01    6.271E+01    6.262E+01    6.254E+01    6.245E+01    6.237E+01    6.228E+01    6.219E+01    6.210E+01
     6.201E+01    6.191E+01    6.182E+01    6.172E+01    6.163E+01    6.153E+01    6.143E+01    6.133E+01    6.123E+01    6.112E+01
     6.102E+01    6.091E+01    6.081E+01    6.070E+01    6.059E+01    6.048E+01    6.036E+01    6.025E+01    6.013E+01    6.002E+01
     5.990E+01    5.978E+01    5.966E+01    5.954E+01    5.942E+01    5.929E+01    5.916E+01    5.904E+01    5.891E+01    5.878E+01
     5.865E+01    5.851E+01    5.838E+01    5.824E+01    5.810E+01    5.796E+01    5.782E+01    5.768E+01    5.754E+01    5.739E+01
     5.724E+01    5.709E+01    5.694E+01    5.679E+01    5.664E+01    5.648E+01    5.632E+01    5.617E+01    5.601E+01    5.584E+01
     5.568E+01    5.551E+01    5.535E+01    5.518E+01    5.501E+01    5.484E+01    5.466E+01    5.449E+01    5.431E+01    5.413E+01
     5.395E+01    5.377E+01    5.358E+01    5.340E+01    5.321E+01    5.302E+01    5.283E+01    5.264E+01    5.244E+01    5.225E+01
     5.205E+01    5.185E+01    5.165E+01    5.145E+01    5.125E+01    5.104E+01    5.084E+01    5.063E+01    5.042E+01    5.021E+01
     4.999E+01    4.978E+01    4.956E+01    4.935E+01    4.913E+01    4.891E+01    4.869E+01    4.846E+01    4.824E+01    4.801E+01
     4.778E+01    4.756E+01    4.733E+01    4.709E+01    4.686E+01    4.663E+01    4.639E+01    4.616E+01    4.592E+01    4.568E+01
     4.544E+01    4.520E+01    4.496E+01    4.472E+01    4.447E+01    4.423E+01    4.398E+01    4.374E+01    4.349E+01    4.324E+01
     4.299E+01    4.274E+01    4.249E+01    4.224E+01    4.199E+01    4.173E+01    4.148E+01    4.122E+01    4.096E+01    4.071E+01
     4.045E+01    4.019E+01    3.992E+01    3.966E+01    3.940E+01    3.913E+01    3.887E+01    3.860E+01    3.833E+01    3.806E+01
     3.779E+01    3.751E+01    3.724E+01    3.696E+01    3.669E+01    3.641E+01    3.613E+01    3.584E+01    3.556E+01    3.527E+01
     3.499E+01    3.470E+01    3.441E+01    3.412E+01    3.382E+01    3.353E+01    3.323E+01    3.293E+01    3.263E+01    3.233E+01
     3.203E+01    3.172E+01    3.142E+01    3.111E+01    3.080E+01    3.049E+01    3.018E+01    2.987E+01    2.956E+01    2.924E+01
     2.893E+01    2.861E+01    2.829E+01    2.797E+01    2.765E+01    2.733E+01    2.701E+01    2.668E+01    2.636E+01    2.603E+01
     2.571E+01    2.538E+01    2.505E+01    2.472E+01    2.439E+01    2.406E+01    2.373E+01    2.340E+01    2.306E+01    2.273E+01
     2.240E+01    2.206E+01    2.173E+01    2.140E+01    2.107E+01    2.073E+01    2.040E+01    2.007E+01    1.974E+01    1.941E+01
     1.908E+01    1.875E+01    1.842E+01    1.809E+01    1.776E+01    1.744E+01    1.711E+01    1.679E+01    1.647E+01    1.614E+01
     1.582E+01    1.551E+01    1.519E+01    1.488E+01    1.456E+01    1.425E+01    1.395E+01    1.364E+01    1.334E+01    1.304E+01
     1.275E+01    1.245E+01    1.216E+01    1.188E+01    1.160E+01    1.132E+01    1.105E+01    1.078E+01    1.051E+01    1.026E+01
     1.000E+01    9.752E+00    9.508E+00    9.270E+00    9.037E+00    8.810E+00    8.589E+00    8.374E+00    8.166E+00    7.964E+00
     7.769E+00    7.580E+00    7.399E+00    7.224E+00    7.056E+00    6.894E+00    6.740E+00    6.592E+00    6.451E+00    6.317E+00
     6.189E+00    6.068E+00    5.955E+00    5.847E+00    5.747E+00    5.654E+00    5.567E+00    5.487E+00    5.414E+00    5.347E+00
     5.288E+00    5.235E+00    5.189E+00    5.150E+00    5.118E+00    5.092E+00    5.074E+00    5.062E+00    5.057E+00    5.059E+00
     5.067E+00    5.083E+00    5.104E+00    5.133E+00    5.167E+00    5.207E+00    5.254E+00    5.306E+00    5.363E+00    5.426E+00
     5.494E+00    5.567E+00    5.645E+00    5.727E+00    5.814E+00    5.905E+00    6.001E+00    6.100E+00    6.203E+00    6.310E+00
     6.420E+00    6.534E+00    6.651E+00    6.770E+00    6.893E+00    7.018E+00    7.145E+00    7.275E+00    7.407E+00    7.541E+00
     7.677E+00    7.814E+00    7.953E+00    8.093E+00    8.235E+00    8.377E+00    8.521E+00    8.666E+00    8.811E+00    8.958E+00
     9.104E+00    9.251E+00    9.399E+00    9.547E+00    9.695E+00    9.842E+00    9.990E+00    1.014E+01    1.028E+01    1.043E+01
     1.058E+01    1.072E+01    1.087E+01    1.101E+01    1.115E+01    1.129E+01    1.143E+01    1.157E+01    1.171E+01    1.184E+01
     1.198E+01    1.211E+01    1.224E+01    1.237E+01    1.249E+01    1.262E+01    1.274E+01    1.286E+01    1.298E+01    1.310E+01
     1.321E+01    1.333E+01    1.344E+01    1.356E+01    1.367E+01    1.378E+01    1.388E+01    1.399E+01    1.410E+01    1.420E+01
     1.430E+01    1.441E+01    1.451E+01    1.461E+01    1.471E+01    1.480E+01    1.490E+01    1.500E+01    1.509E+01    1.518E+01
     1.528E+01    1.537E+01    1.546E+01    1.555E+01    1.564E+01    1.573E+01    1.582E+01    1.590E+01    1.599E+01    1.608E+01
     1.616E+01    1.625E+01    1.633E+01    1.642E+01    1.650E+01    1.658E+01    1.667E+01    1.675E+01    1.683E+01    1.691E+01
     1.700E+01    1.708E+01    1.716E+01    1.724E+01    1.732E+01    1.741E+01    1.749E+01    1.757E+01    1.765E+01    1.773E+01
 Mac      Conc. = 3.42E-04
   4.40742E+01  4.33659E+01  4.27711E+01  4.21903E+01  4.15124E+01  4.06787E+01  3.95539E+01  3.80757E+01  3.63869E+01  3.46858E+01
   3.31575E+01  3.19606E+01  3.11430E+01  3.05649E+01  2.98966E+01  2.89815E+01  2.82020E+01  2.82719E+01  2.96147E+01  3.22403E+01
   3.57708E+01  3.98753E+01  4.41666E+01  4.79995E+01  5.07605E+01  5.27259E+01  5.45978E+01  5.63938E+01  5.81160E+01  5.99636E+01
   6.18772E+01  6.36193E+01  6.50556E+01  6.60768E+01  6.66162E+01  6.68075E+01  6.71153E+01  6.79181E+01  6.92251E+01  7.07359E+01
   7.21119E+01  7.32153E+01  7.40996E+01  7.48900E+01  7.56045E+01  7.62513E+01  7.68503E+01  7.72327E+01  7.71354E+01  7.64547E+01
   7.52825E+01  7.38343E+01  7.24419E+01  7.12798E+01  7.03355E+01  6.97055E+01  6.95581E+01  6.99321E+01  7.06956E+01  7.17935E+01
   7.30795E+01  7.44143E+01  7.55833E+01  7.62003E+01  7.61420E+01  7.57097E+01  7.50886E+01  7.42602E+01  7.34732E+01  7.30777E+01
   7.33276E+01  7.43874E+01  7.60753E+01  7.79108E+01  7.96155E+01  8.10001E+01  8.18317E+01  8.18663E+01  8.13348E+01  8.06023E+01
   7.98155E+01  7.90724E+01  7.85172E+01  7.82857E+01  7.84236E+01  7.88629E+01  7.94860E+01  8.02465E+01  8.10610E+01  8.17829E+01
   8.23121E+01  8.26971E+01  8.29189E+01  8.28206E+01  8.23270E+01  8.13037E+01  7.96760E+01  7.74183E+01  7.47910E+01  7.19882E+01
   6.91300E+01  6.62532E+01  6.32478E+01  5.98231E+01  5.57982E+01  5.08609E+01  4.49228E+01  3.85466E+01  3.27180E+01  2.82197E+01
