 LCModel (Version 6.3-1N) Copyright: S.W. Provencher.          Ref.: Magn. Reson. Med. 30:672-679 (1993).                
 Slice_N1@18_12  28-Feb-2025 11:40:48
 27 lines in following concentration table = NCONC+1
    Conc.  %SD /Cr+PCr  Metabolite                                         
 2.96E-04   4% 2.6E-04 Mac                                                 
    3.967  20%   3.521 Cr                                                  
    5.046  15%   4.479 PCr                                                 
    8.370  10%   7.429 Ins                                                 
   11.186   7%   9.929 NAA                                                 
    6.842  11%   6.073 Tau                                                 
 1.39E-02 999% 1.2E-02 PCho                                                
    1.609  46%   1.428 GPC                                                 
   10.622   9%   9.428 Glu                                                 
    4.458  17%   3.957 Gln                                                 
    0.581  99%   0.516 Ala                                                 
    4.849  22%   4.304 Asc                                                 
    3.260  29%   2.894 Asp                                                 
    0.827  61%   0.734 GABA                                                
    0.755  94%   0.671 Glc                                                 
    1.720  27%   1.526 GSH                                                 
    0.340 169%   0.301 Lac                                                 
    1.942  24%   1.724 NAAG                                                
    2.044  46%   1.814 PE                                                  
    1.623  15%   1.441 GPC+PCho                                            
   13.129   6%  11.653 NAA+NAAG                                            
   15.080   8%  13.385 Glu+Gln                                             
    9.013   8%   8.000 Cr+PCr                                              
   13.129   6%  11.653 NAA+NAAG                                            
    9.013   8%   8.000 Cr+PCr                                              
   15.080   8%  13.385 Glu+Gln                                             
   6 lines in following misc. output table
  FWHM = 0.024 ppm    S/N =   6                                            
  Data shift = 0.024 ppm                                                   
  Ph:-152 deg       0.0 deg/ppm                                            
  alphaB,S = 3.1E+01,   9.7E-01                                            
   19 spline knots.   Ns = 5(1)                                            
   1 inflections.     1 extrema                                            
  480 points on ppm-axis = NY
      4.100000     4.091866     4.083733     4.075600     4.067466     4.059333     4.051199     4.043066     4.034933     4.026799
      4.018666     4.010532     4.002399     3.994265     3.986132     3.977998     3.969864     3.961731     3.953597     3.945463
      3.937330     3.929196     3.921062     3.912929     3.904795     3.896662     3.888528     3.880394     3.872261     3.864127
      3.855993     3.847860     3.839726     3.831592     3.823459     3.815325     3.807191     3.799058     3.790924     3.782790
      3.774657     3.766523     3.758389     3.750256     3.742122     3.733989     3.725855     3.717721     3.709588     3.701454
      3.693320     3.685187     3.677053     3.668919     3.660786     3.652652     3.644518     3.636385     3.628251     3.620117
      3.611984     3.603850     3.595716     3.587583     3.579449     3.571316     3.563182     3.555048     3.546915     3.538781
      3.530647     3.522514     3.514380     3.506246     3.498113     3.489979     3.481845     3.473712     3.465578     3.457444
      3.449311     3.441177     3.433043     3.424910     3.416776     3.408643     3.400509     3.392375     3.384242     3.376108
      3.367974     3.359841     3.351707     3.343573     3.335440     3.327306     3.319172     3.311039     3.302905     3.294771
      3.286638     3.278504     3.270370     3.262237     3.254103     3.245970     3.237836     3.229702     3.221569     3.213435
      3.205301     3.197168     3.189034     3.180900     3.172767     3.164633     3.156499     3.148366     3.140232     3.132098
      3.123965     3.115831     3.107697     3.099564     3.091430     3.083297     3.075163     3.067029     3.058896     3.050762
      3.042628     3.034495     3.026361     3.018227     3.010094     3.001960     2.993826     2.985693     2.977559     2.969425
      2.961292     2.953158     2.945024     2.936891     2.928757     2.920624     2.912490     2.904356     2.896223     2.888089
      2.879955     2.871822     2.863688     2.855554     2.847421     2.839287     2.831153     2.823020     2.814886     2.806752
      2.798619     2.790485     2.782351     2.774218     2.766084     2.757951     2.749817     2.741683     2.733550     2.725416
      2.717282     2.709149     2.701015     2.692881     2.684748     2.676614     2.668480     2.660347     2.652213     2.644079
      2.635946     2.627812     2.619678     2.611545     2.603411     2.595278     2.587144     2.579010     2.570877     2.562743
      2.554609     2.546476     2.538342     2.530208     2.522075     2.513941     2.505807     2.497674     2.489540     2.481406
      2.473273     2.465139     2.457006     2.448872     2.440738     2.432605     2.424471     2.416337     2.408204     2.400070
      2.391936     2.383803     2.375669     2.367535     2.359402     2.351268     2.343134     2.335001     2.326867     2.318733
      2.310600     2.302466     2.294333     2.286199     2.278065     2.269932     2.261798     2.253664     2.245531     2.237397
      2.229263     2.221130     2.212996     2.204862     2.196729     2.188595     2.180461     2.172328     2.164194     2.156060
      2.147927     2.139793     2.131660     2.123526     2.115392     2.107259     2.099125     2.090991     2.082858     2.074724
      2.066590     2.058457     2.050323     2.042189     2.034056     2.025922     2.017788     2.009655     2.001521     1.993387
      1.985254     1.977120     1.968987     1.960853     1.952719     1.944586     1.936452     1.928318     1.920185     1.912051
      1.903917     1.895784     1.887650     1.879516     1.871383     1.863249     1.855115     1.846982     1.838848     1.830714
      1.822581     1.814447     1.806314     1.798180     1.790046     1.781913     1.773779     1.765645     1.757512     1.749378
      1.741244     1.733111     1.724977     1.716843     1.708710     1.700576     1.692442     1.684309     1.676175     1.668041
      1.659908     1.651774     1.643641     1.635507     1.627373     1.619240     1.611106     1.602972     1.594839     1.586705
      1.578571     1.570438     1.562304     1.554170     1.546037     1.537903     1.529769     1.521636     1.513502     1.505368
      1.497235     1.489101     1.480968     1.472834     1.464700     1.456567     1.448433     1.440299     1.432166     1.424032
      1.415898     1.407765     1.399631     1.391497     1.383364     1.375230     1.367096     1.358963     1.350829     1.342695
      1.334562     1.326428     1.318295     1.310161     1.302027     1.293894     1.285760     1.277626     1.269493     1.261359
      1.253225     1.245092     1.236958     1.228824     1.220691     1.212557     1.204423     1.196290     1.188156     1.180022
      1.171889     1.163755     1.155622     1.147488     1.139354     1.131221     1.123087     1.114953     1.106820     1.098686
      1.090552     1.082419     1.074285     1.066151     1.058018     1.049884     1.041750     1.033617     1.025483     1.017349
      1.009216     1.001082     0.992949     0.984815     0.976681     0.968548     0.960414     0.952280     0.944147     0.936013
      0.927879     0.919746     0.911612     0.903478     0.895345     0.887211     0.879077     0.870944     0.862810     0.854676
      0.846543     0.838409     0.830276     0.822142     0.814008     0.805875     0.797741     0.789607     0.781474     0.773340
      0.765206     0.757073     0.748939     0.740805     0.732672     0.724538     0.716404     0.708271     0.700137     0.692003
      0.683870     0.675736     0.667603     0.659469     0.651335     0.643202     0.635068     0.626934     0.618801     0.610667
      0.602533     0.594400     0.586266     0.578132     0.569999     0.561865     0.553731     0.545598     0.537464     0.529330
      0.521197     0.513063     0.504930     0.496796     0.488662     0.480529     0.472395     0.464261     0.456128     0.447994
      0.439861     0.431727     0.423593     0.415460     0.407326     0.399192     0.391059     0.382925     0.374792     0.366658
      0.358524     0.350391     0.342257     0.334124     0.325990     0.317856     0.309723     0.301589     0.293455     0.285322
      0.277188     0.269055     0.260921     0.252787     0.244654     0.236520     0.228386     0.220253     0.212119     0.203986
 NY phased data points follow
  -6.29394E+00 -1.81928E+01 -3.13196E+01 -3.31892E+01 -2.64683E+01 -2.54938E+01 -1.07567E+01 -2.10832E+01 -3.35001E+01 -2.38295E+01
  -3.16418E+01 -2.78649E+01 -4.57294E+01 -3.47131E+01 -3.44404E+01 -4.98756E+01 -3.29174E+01 -4.24405E+01 -6.61986E+01 -1.08949E+02
  -1.21615E+02 -7.04779E+01 -5.18817E+01 -4.75254E+01  2.40582E+01  3.99437E+01  1.00414E+01  1.85545E+01  2.16149E+01  2.54687E+01
   3.28522E+01  3.19623E+01  1.40492E+01  2.23306E+01  2.47793E+01  1.74208E+01  2.22642E+01  2.26116E+01 -8.90191E+00 -6.36159E+01
  -5.84347E+01 -7.78623E+01 -9.04142E+01 -4.82835E+01 -2.44119E+01  1.19054E+01  3.03127E+01  4.01809E+01  7.20926E+01  5.49499E+01
   4.89950E+01  7.49046E+01  4.55604E+01  3.97792E+01  3.27856E+01  6.29287E+00  8.42201E+00  2.30557E+00 -2.65915E+01 -3.89294E+01
   2.41985E+00 -1.13381E+01 -1.94073E+01  1.93895E+01  3.49960E+01  5.82278E+01  5.86318E+01  4.54592E+01 -8.95941E+00 -5.87211E+01
  -2.56209E+01 -1.13494E+01 -3.45486E+01 -1.28682E+01  2.89711E+01  4.00455E+01  4.02815E+01  5.74572E+01  6.88123E+01  6.91564E+01
   6.74764E+01  4.34926E+01  2.90703E+01  1.11490E+01 -1.82373E+01 -2.59162E+01 -1.99245E+01  7.94852E+00  4.31643E+01  5.08909E+01
   6.35790E+01  7.87754E+01  6.21633E+01  6.62852E+01  7.63858E+01  9.04965E+01  1.04141E+02  9.96963E+01  9.66664E+01  9.28039E+01
   1.00772E+02  7.70198E+01  5.42836E+01  4.54240E+01  2.64976E+01  1.72274E+00 -5.63254E+00  8.45601E+00 -7.37038E+00 -5.78575E+01
  -1.54075E+02 -1.70057E+02 -1.09608E+02 -8.91091E+01 -6.40772E+01 -4.19528E+01 -4.14481E+01 -2.78952E+01 -1.19503E+01 -1.53540E+01
  -9.46085E+00 -1.07780E+01  1.11641E+01  2.76989E+01  2.44094E+01  4.20557E+01  4.10163E+01  6.68929E+01  9.71853E+01  1.42651E+02
   2.17041E+02  1.87192E+02  3.13120E+01 -8.32498E+01 -8.83053E+01 -8.39781E+01 -8.73262E+01 -8.03594E+01 -7.06585E+01 -6.22879E+01
  -5.34813E+01 -5.93739E+01 -7.43098E+01 -7.72556E+01 -6.15735E+01 -5.90509E+01 -6.88880E+01 -5.99283E+01 -5.97462E+01 -4.55104E+01
  -4.34078E+01 -5.10975E+01 -5.13970E+01 -4.45957E+01 -2.82162E+01 -3.31982E+01 -3.25757E+01 -3.33203E+01 -2.80881E+01 -2.97477E+01
  -2.31899E+01 -1.56329E+01 -2.58804E+01 -2.34689E+01 -3.79590E+01 -4.42928E+01 -2.86937E+01 -2.57752E+01 -3.20363E+01 -1.95120E+01
  -1.41564E+01  8.83096E+00  3.60393E+01  2.34708E+01  4.29794E+00  3.63854E+00  3.72380E+01  4.14633E+01  1.99787E+01 -1.59948E+01
  -2.77051E+01 -2.56671E+01 -4.51512E+01 -4.05859E+01 -4.34438E+01 -3.18784E+01 -4.14411E+01 -5.93502E+01 -4.61246E+01 -3.44469E+01
  -3.43662E+01 -2.80775E+01 -2.86702E+01 -2.84415E+01  4.00207E+00 -1.67599E+01 -1.43677E+01 -1.45793E+00 -7.38501E+00 -7.26686E+00
  -2.93726E+01  1.11745E+00  1.08342E+01  1.08654E+01  1.37809E+01  4.54550E+00 -9.06006E+00 -3.46985E+01 -3.36363E+01 -4.32975E+01
  -4.46572E+01 -5.24064E+01 -5.75871E+01 -2.64468E+01  8.85047E+00  4.72441E+01  7.65684E+01  6.86759E+01  6.03848E+01  4.23434E+01
   5.70749E+00 -1.10994E+01 -1.52351E+01  3.48364E+00 -1.80220E+01 -2.29742E+00  1.60811E+01 -1.10632E+01  1.96662E+01  3.74533E+00
   3.10477E+00  2.23873E+00 -2.42908E+01 -2.20734E+01 -4.99234E+01 -5.21733E+01 -5.64920E+01 -7.12821E+01 -7.29000E+01 -8.15308E+01
  -7.58790E+01 -5.93766E+01 -5.09816E+01 -3.60352E+01 -1.80936E+01 -1.84947E+01 -2.61648E+01 -1.28790E+01 -1.52142E+01 -4.35504E+01
  -4.44528E+01 -6.24910E+01 -5.29641E+01 -5.76603E+01 -8.48174E+01 -1.39107E+02 -2.17819E+02 -1.86427E+01  2.06212E+02  2.03637E+02
   1.81592E+02  1.61184E+02  1.50470E+02  1.20694E+02  1.01111E+02  1.05840E+02  8.17056E+01  7.97348E+01  8.73052E+01  8.00956E+01
   8.78503E+01  8.46420E+01  7.89881E+01  7.30359E+01  6.83950E+01  7.47692E+01  6.66324E+01  8.99494E+01  8.78967E+01  7.49788E+01
   7.87669E+01  6.83420E+01  8.82260E+01  7.84056E+01  6.22851E+01  7.42035E+01  8.07089E+01  7.67232E+01  8.22600E+01  6.94092E+01
   5.79742E+01  6.83436E+01  4.38077E+01  4.98717E+01  5.16009E+01  3.68394E+01  2.06374E+01  1.16168E+01  2.66994E+01  2.42374E+01
   3.47587E+01  2.07383E+01  3.20691E+01  4.64881E+01  3.05519E+01  4.49698E+01  3.84714E+01  3.68302E+01  4.90366E+01  6.04669E+01
   6.16295E+01  5.02930E+01  5.33836E+01  5.45337E+01  4.71916E+01  4.04018E+01  3.84055E+01  3.92544E+01  2.99229E+01  2.00526E+01
   2.42829E+01  2.01392E+01  3.12136E+00 -1.74359E+00  1.14421E+01  6.45427E+00  1.04982E+01  2.10409E+01  1.56357E+01  2.15871E+01
   1.32881E+01  1.57188E+01  1.15880E+01 -2.50302E+00  4.22767E+00  1.44434E+01  1.22647E+01  1.54724E+01  3.95839E+01  3.69569E+01
   3.82869E+01  3.44458E+01  2.10833E+01  1.48917E+01  1.35631E+01  3.31613E+01  3.56264E+01  4.58377E+01  5.69883E+01  5.35826E+01
   5.25431E+01  5.11439E+01  4.75355E+01  4.65935E+01  3.78075E+01  2.09349E+01  1.42578E+01  1.41716E+00  4.19822E+00  5.90392E+00
  -3.01029E+00 -3.17209E+00  5.88272E+00  9.77918E-01  1.19881E+00  1.75847E+01  1.75367E+00  1.62723E+01  3.14127E+01  2.40899E+01
   3.29621E+01  3.48113E+01  3.21532E+01  3.61635E+01  3.97432E+01  4.22146E+01  6.94195E+01  6.67356E+01  6.31666E+01  6.80510E+01
   7.55317E+01  8.68241E+01  7.60427E+01  1.08353E+02  1.09121E+02  1.09533E+02  1.41011E+02  1.48906E+02  1.58601E+02  1.64831E+02
   1.57590E+02  1.26529E+02  1.18426E+02  9.10481E+01  7.20154E+01  8.05560E+01  6.15994E+01  7.19636E+01  7.09054E+01  4.81984E+01
   3.90298E+01  2.18437E+01  6.35700E+00  2.23838E+00 -4.84431E+00 -1.02141E+01 -1.77126E+01 -1.36270E+01 -8.68067E+00 -1.79393E+01
  -1.14128E+01 -1.68461E+01 -1.73768E+01 -2.11891E+01 -1.96686E+01 -1.78158E+01 -3.04047E+01 -1.15520E+01 -1.42373E+01 -1.52701E+01
  -1.62241E+01 -2.44339E+01 -1.71891E+01 -2.67910E+01 -3.19048E+01 -2.44925E+01 -1.54857E+01 -2.57406E+01 -1.79033E+01 -1.78138E+01
  -4.38116E+01 -2.92171E+01 -8.42344E+00 -1.60761E+01 -1.59962E+01 -1.12858E+01 -2.70094E+01 -1.90410E+01 -2.59378E+01 -2.82828E+01
  -1.41617E+01 -3.09589E+01 -1.02677E+01 -1.17601E+01 -2.51561E+01 -1.57435E+01 -2.23404E+01 -1.26005E+01 -9.10031E+00 -1.94863E+01
  -2.93036E+01 -2.29823E+01 -1.49047E+01 -3.21835E+00 -5.11744E+00 -2.89950E+01 -1.91262E+01 -9.18843E+00 -1.48198E+01 -1.83768E+01
  -2.27223E+01 -2.27641E+01 -1.02054E+01 -1.41597E+01 -2.96154E+01 -1.22749E+01 -1.41431E+00 -1.00569E+01 -2.20313E+01 -9.91848E+00
  -8.09920E+00 -2.36775E+01 -1.21000E+01 -2.03691E+01 -2.40747E+01 -1.83235E+01 -1.51933E+01 -1.05116E+01 -1.06914E+01 -1.05404E+01
 NY points of the fit to the data follow
  -1.64095E+01 -2.73349E+01 -4.33482E+01 -5.87129E+01 -5.52479E+01 -2.24601E+01  7.50950E+00  5.48267E+00 -1.06871E+01 -2.26175E+01
  -3.28064E+01 -3.89689E+01 -3.61447E+01 -3.20531E+01 -2.94337E+01 -2.82215E+01 -3.02835E+01 -4.01497E+01 -5.83313E+01 -8.80979E+01
  -1.06517E+02 -6.33777E+01 -3.64079E+01 -3.60728E+01  1.38528E+01  4.10036E+01  2.90742E+01  3.73927E+01  4.74713E+01  4.66712E+01
   4.45591E+01  4.29809E+01  4.21957E+01  4.00545E+01  3.60140E+01  3.19174E+01  2.92444E+01  2.17798E+01  5.53773E-01 -3.61808E+01
  -7.63639E+01 -8.35737E+01 -6.53877E+01 -5.15920E+01 -2.89341E+01  7.75166E+00  3.31673E+01  4.33187E+01  5.25250E+01  5.59057E+01
   5.18465E+01  5.05558E+01  4.57741E+01  2.93997E+01  1.24911E+01  3.63491E+00  4.26924E+00  6.48501E+00 -1.74187E+01 -3.45443E+01
  -9.10715E+00 -3.26789E+00 -7.51615E+00  2.66604E+01  5.29469E+01  5.87774E+01  6.43935E+01  4.96971E+01  4.18169E+00 -3.88687E+01
  -3.30631E+01 -1.42979E+01 -2.02844E+01 -5.23158E+00  2.94772E+01  4.52625E+01  5.06653E+01  5.77513E+01  6.28210E+01  6.61778E+01
   6.34847E+01  4.85725E+01  2.82910E+01 -1.94245E+00 -2.13203E+01 -1.99278E+01 -1.10568E+01  1.02258E+01  3.05151E+01  3.93213E+01
   4.68367E+01  5.26879E+01  5.65303E+01  6.09311E+01  6.61178E+01  7.21958E+01  7.75548E+01  8.07313E+01  7.81764E+01  7.26637E+01
   8.16406E+01  8.72447E+01  6.58258E+01  4.75342E+01  3.47917E+01 -1.31549E+00 -4.31793E+00  1.62730E+01  6.71271E+00 -5.58413E+01
  -1.52963E+02 -1.57837E+02 -1.04033E+02 -8.47791E+01 -6.37280E+01 -4.07720E+01 -3.27967E+01 -2.59174E+01 -1.90125E+01 -1.26701E+01
  -6.64407E+00 -6.27290E-02  6.78445E+00  1.46365E+01  2.43635E+01  3.61750E+01  4.98742E+01  6.60102E+01  9.86790E+01  1.50491E+02
   2.04793E+02  1.90549E+02  3.04488E+01 -1.03899E+02 -1.02622E+02 -9.16396E+01 -9.24217E+01 -7.17801E+01 -5.97882E+01 -5.94936E+01
  -6.00381E+01 -6.10198E+01 -6.30159E+01 -6.36833E+01 -6.45753E+01 -6.57755E+01 -6.34541E+01 -5.98950E+01 -5.64531E+01 -5.32024E+01
  -5.02673E+01 -4.75557E+01 -4.60709E+01 -4.38601E+01 -3.90074E+01 -3.34966E+01 -3.15469E+01 -3.38464E+01 -3.53799E+01 -3.21632E+01
  -2.50608E+01 -1.93847E+01 -2.26319E+01 -3.10892E+01 -3.39275E+01 -3.14161E+01 -2.84832E+01 -2.92944E+01 -3.49939E+01 -3.63847E+01
  -2.27935E+01  4.43613E+00  2.28304E+01  1.03955E+01 -1.09909E+01 -5.14298E+00  1.72718E+01  2.74026E+01  1.53691E+01 -9.90386E+00
  -2.34592E+01 -2.85417E+01 -3.68887E+01 -4.06449E+01 -4.08584E+01 -4.19453E+01 -4.17325E+01 -4.13918E+01 -4.00989E+01 -3.82076E+01
  -3.71848E+01 -3.37167E+01 -3.33257E+01 -2.66369E+01 -5.25968E+00 -7.10099E+00 -1.90234E+01 -6.79023E+00 -4.48961E-01 -4.10013E+00
  -8.82680E+00 -8.15472E+00  8.04496E+00  1.47060E+01  6.69736E+00 -5.83631E-01 -6.11180E+00 -1.61382E+01 -3.18986E+01 -4.44046E+01
  -5.24369E+01 -6.00725E+01 -5.27477E+01 -3.66491E+01 -1.31457E+01  3.85804E+01  6.00097E+01  5.99142E+01  6.44989E+01  3.97672E+01
   1.62779E+01  1.33052E+01  1.06580E+01  1.43854E+01  2.08791E+01  2.26807E+01  2.26196E+01  1.74544E+01  7.14247E+00 -3.77581E+00
  -1.64647E+01 -3.04869E+01 -4.33773E+01 -5.42089E+01 -6.71875E+01 -7.84892E+01 -8.21150E+01 -8.73343E+01 -8.91340E+01 -8.07790E+01
  -7.90164E+01 -7.12712E+01 -5.46871E+01 -4.44237E+01 -2.84993E+01 -1.95189E+01 -2.12965E+01 -2.42627E+01 -3.35435E+01 -3.67241E+01
  -4.59748E+01 -5.87908E+01 -5.94244E+01 -6.41045E+01 -8.31481E+01 -1.65090E+02 -2.19474E+02 -2.73580E+01  1.71177E+02  1.71665E+02
   1.57034E+02  1.57014E+02  1.24672E+02  1.04606E+02  9.92977E+01  9.55215E+01  9.08487E+01  8.56254E+01  8.10219E+01  7.67854E+01
   7.50559E+01  7.44812E+01  7.48803E+01  7.67955E+01  7.77489E+01  7.88273E+01  7.86280E+01  7.78475E+01  7.78416E+01  7.68716E+01
   7.49898E+01  7.27017E+01  7.02566E+01  6.85858E+01  6.68491E+01  6.41996E+01  6.20214E+01  6.02116E+01  5.76130E+01  5.46717E+01
   5.08713E+01  4.64640E+01  4.21731E+01  3.68614E+01  3.20704E+01  2.95535E+01  2.90071E+01  3.03103E+01  3.29585E+01  3.56468E+01
   3.80662E+01  4.11803E+01  4.46291E+01  4.75739E+01  5.01553E+01  5.23143E+01  5.40835E+01  5.60251E+01  5.90111E+01  6.24873E+01
   6.50291E+01  6.71546E+01  6.89314E+01  7.08055E+01  7.31487E+01  7.43974E+01  7.48380E+01  7.57116E+01  7.55911E+01  7.42700E+01
   7.30130E+01  6.98777E+01  6.13561E+01  5.35579E+01  4.84857E+01  4.17464E+01  3.78621E+01  3.29062E+01  2.24635E+01  1.21169E+01
   2.83606E+00 -6.35837E+00 -1.36025E+01 -1.72046E+01 -1.71487E+01 -1.32926E+01 -6.92758E+00 -1.03908E+00  3.87676E+00  7.23224E+00
   8.83151E+00  8.98127E+00  9.36122E+00  1.21080E+01  1.48800E+01  1.94238E+01  2.39123E+01  2.51511E+01  2.62556E+01  2.74302E+01
   2.67922E+01  2.47746E+01  2.16879E+01  1.67244E+01  9.89322E+00  3.66965E+00  3.28612E-01 -1.53561E+00 -1.91101E+00 -1.50193E-02
   2.50272E+00  5.86084E+00  9.90718E+00  1.37547E+01  1.80474E+01  2.16737E+01  2.46873E+01  2.76716E+01  3.02720E+01  3.34766E+01
   3.68355E+01  3.95827E+01  4.25349E+01  4.55509E+01  4.88302E+01  5.33480E+01  5.85939E+01  6.30966E+01  6.90165E+01  7.68362E+01
   8.37336E+01  9.06371E+01  9.97347E+01  1.09930E+02  1.19557E+02  1.28751E+02  1.35666E+02  1.37157E+02  1.32180E+02  1.20742E+02
   1.06323E+02  9.31778E+01  8.26678E+01  7.42432E+01  6.82407E+01  6.37035E+01  5.74143E+01  4.81117E+01  3.79307E+01  2.74187E+01
   1.64666E+01  8.09752E+00  2.41271E+00 -2.11578E+00 -5.64458E+00 -7.61202E+00 -8.50001E+00 -9.42570E+00 -1.05837E+01 -1.19251E+01
  -1.33113E+01 -1.41238E+01 -1.42406E+01 -1.41342E+01 -1.44850E+01 -1.46009E+01 -1.41103E+01 -1.40828E+01 -1.50674E+01 -1.54888E+01
  -1.42718E+01 -1.37228E+01 -1.45200E+01 -1.46379E+01 -1.40666E+01 -1.39246E+01 -1.44227E+01 -1.48472E+01 -1.44337E+01 -1.34751E+01
  -1.31346E+01 -1.31757E+01 -1.33302E+01 -1.37685E+01 -1.39875E+01 -1.39617E+01 -1.35036E+01 -1.31442E+01 -1.26996E+01 -1.23055E+01
  -1.22815E+01 -1.21356E+01 -1.17636E+01 -1.17974E+01 -1.24765E+01 -1.27756E+01 -1.26427E+01 -1.23792E+01 -1.19721E+01 -1.18053E+01
  -1.15835E+01 -1.17874E+01 -1.22351E+01 -1.18004E+01 -1.13489E+01 -1.12420E+01 -1.08930E+01 -1.07285E+01 -1.07920E+01 -1.05675E+01
  -1.03413E+01 -1.02395E+01 -1.04861E+01 -1.09955E+01 -1.10604E+01 -1.10969E+01 -1.12150E+01 -1.05484E+01 -9.63991E+00 -9.08580E+00
  -9.31923E+00 -9.95365E+00 -1.06498E+01 -1.09128E+01 -1.07127E+01 -1.08591E+01 -1.09727E+01 -1.05411E+01 -1.07177E+01 -1.16695E+01
 NY background values follow
     1.485E+01    1.482E+01    1.479E+01    1.476E+01    1.473E+01    1.470E+01    1.467E+01    1.464E+01    1.461E+01    1.457E+01
     1.454E+01    1.451E+01    1.448E+01    1.445E+01    1.442E+01    1.439E+01    1.436E+01    1.433E+01    1.429E+01    1.426E+01
     1.423E+01    1.420E+01    1.417E+01    1.414E+01    1.411E+01    1.408E+01    1.405E+01    1.402E+01    1.398E+01    1.395E+01
     1.392E+01    1.389E+01    1.386E+01    1.383E+01    1.380E+01    1.377E+01    1.374E+01    1.371E+01    1.367E+01    1.364E+01
     1.361E+01    1.358E+01    1.355E+01    1.352E+01    1.349E+01    1.346E+01    1.343E+01    1.339E+01    1.336E+01    1.333E+01
     1.330E+01    1.327E+01    1.324E+01    1.321E+01    1.318E+01    1.315E+01    1.312E+01    1.308E+01    1.305E+01    1.302E+01
     1.299E+01    1.296E+01    1.293E+01    1.290E+01    1.287E+01    1.284E+01    1.280E+01    1.277E+01    1.274E+01    1.271E+01
     1.268E+01    1.265E+01    1.262E+01    1.259E+01    1.256E+01    1.253E+01    1.249E+01    1.246E+01    1.243E+01    1.240E+01
     1.237E+01    1.234E+01    1.231E+01    1.228E+01    1.225E+01    1.221E+01    1.218E+01    1.215E+01    1.212E+01    1.209E+01
     1.206E+01    1.203E+01    1.200E+01    1.197E+01    1.194E+01    1.190E+01    1.187E+01    1.184E+01    1.181E+01    1.178E+01
     1.175E+01    1.172E+01    1.169E+01    1.166E+01    1.162E+01    1.159E+01    1.156E+01    1.153E+01    1.150E+01    1.147E+01
     1.144E+01    1.141E+01    1.138E+01    1.134E+01    1.131E+01    1.128E+01    1.125E+01    1.122E+01    1.119E+01    1.116E+01
     1.113E+01    1.110E+01    1.107E+01    1.103E+01    1.100E+01    1.097E+01    1.094E+01    1.091E+01    1.088E+01    1.085E+01
     1.082E+01    1.079E+01    1.075E+01    1.072E+01    1.069E+01    1.066E+01    1.063E+01    1.060E+01    1.057E+01    1.054E+01
     1.051E+01    1.047E+01    1.044E+01    1.041E+01    1.038E+01    1.035E+01    1.032E+01    1.029E+01    1.026E+01    1.023E+01
     1.019E+01    1.016E+01    1.013E+01    1.010E+01    1.007E+01    1.004E+01    1.001E+01    9.977E+00    9.946E+00    9.915E+00
     9.883E+00    9.852E+00    9.821E+00    9.790E+00    9.759E+00    9.728E+00    9.697E+00    9.666E+00    9.634E+00    9.603E+00
     9.572E+00    9.541E+00    9.510E+00    9.479E+00    9.448E+00    9.417E+00    9.385E+00    9.354E+00    9.323E+00    9.292E+00
     9.261E+00    9.230E+00    9.199E+00    9.167E+00    9.136E+00    9.105E+00    9.074E+00    9.043E+00    9.012E+00    8.981E+00
     8.949E+00    8.918E+00    8.887E+00    8.856E+00    8.825E+00    8.794E+00    8.762E+00    8.731E+00    8.700E+00    8.669E+00
     8.638E+00    8.607E+00    8.576E+00    8.544E+00    8.513E+00    8.482E+00    8.451E+00    8.420E+00    8.388E+00    8.357E+00
     8.326E+00    8.295E+00    8.264E+00    8.233E+00    8.201E+00    8.170E+00    8.139E+00    8.108E+00    8.077E+00    8.046E+00
     8.014E+00    7.983E+00    7.952E+00    7.921E+00    7.890E+00    7.858E+00    7.827E+00    7.796E+00    7.765E+00    7.734E+00
     7.702E+00    7.671E+00    7.640E+00    7.609E+00    7.578E+00    7.546E+00    7.515E+00    7.484E+00    7.453E+00    7.422E+00
     7.390E+00    7.359E+00    7.328E+00    7.297E+00    7.266E+00    7.234E+00    7.203E+00    7.172E+00    7.141E+00    7.109E+00
     7.078E+00    7.047E+00    7.016E+00    6.984E+00    6.953E+00    6.922E+00    6.891E+00    6.860E+00    6.828E+00    6.797E+00
     6.766E+00    6.735E+00    6.703E+00    6.672E+00    6.641E+00    6.610E+00    6.578E+00    6.547E+00    6.516E+00    6.485E+00
     6.453E+00    6.422E+00    6.391E+00    6.360E+00    6.328E+00    6.297E+00    6.266E+00    6.235E+00    6.203E+00    6.172E+00
     6.141E+00    6.110E+00    6.078E+00    6.047E+00    6.016E+00    5.985E+00    5.953E+00    5.922E+00    5.891E+00    5.859E+00
     5.828E+00    5.797E+00    5.766E+00    5.734E+00    5.703E+00    5.672E+00    5.641E+00    5.609E+00    5.578E+00    5.547E+00
     5.515E+00    5.484E+00    5.453E+00    5.422E+00    5.390E+00    5.359E+00    5.328E+00    5.296E+00    5.265E+00    5.234E+00
     5.203E+00    5.171E+00    5.140E+00    5.109E+00    5.077E+00    5.046E+00    5.015E+00    4.983E+00    4.952E+00    4.921E+00
     4.890E+00    4.858E+00    4.827E+00    4.796E+00    4.764E+00    4.733E+00    4.702E+00    4.670E+00    4.639E+00    4.608E+00
     4.577E+00    4.545E+00    4.514E+00    4.483E+00    4.451E+00    4.420E+00    4.389E+00    4.357E+00    4.326E+00    4.295E+00
     4.263E+00    4.232E+00    4.201E+00    4.169E+00    4.138E+00    4.107E+00    4.076E+00    4.044E+00    4.013E+00    3.982E+00
     3.950E+00    3.919E+00    3.888E+00    3.856E+00    3.825E+00    3.794E+00    3.762E+00    3.731E+00    3.700E+00    3.668E+00
     3.637E+00    3.606E+00    3.574E+00    3.543E+00    3.512E+00    3.480E+00    3.449E+00    3.418E+00    3.386E+00    3.355E+00
     3.324E+00    3.292E+00    3.261E+00    3.230E+00    3.198E+00    3.167E+00    3.136E+00    3.104E+00    3.073E+00    3.042E+00
     3.010E+00    2.979E+00    2.948E+00    2.916E+00    2.885E+00    2.854E+00    2.822E+00    2.791E+00    2.759E+00    2.728E+00
     2.697E+00    2.665E+00    2.634E+00    2.603E+00    2.571E+00    2.540E+00    2.509E+00    2.477E+00    2.446E+00    2.415E+00
     2.383E+00    2.352E+00    2.320E+00    2.289E+00    2.258E+00    2.226E+00    2.195E+00    2.164E+00    2.132E+00    2.101E+00
     2.070E+00    2.038E+00    2.007E+00    1.976E+00    1.944E+00    1.913E+00    1.881E+00    1.850E+00    1.819E+00    1.787E+00
     1.756E+00    1.725E+00    1.693E+00    1.662E+00    1.630E+00    1.599E+00    1.568E+00    1.536E+00    1.505E+00    1.474E+00
     1.442E+00    1.411E+00    1.380E+00    1.348E+00    1.317E+00    1.285E+00    1.254E+00    1.223E+00    1.191E+00    1.160E+00
     1.129E+00    1.097E+00    1.066E+00    1.035E+00    1.003E+00    9.718E-01    9.404E-01    9.090E-01    8.777E-01    8.463E-01
     8.149E-01    7.835E-01    7.522E-01    7.208E-01    6.894E-01    6.581E-01    6.267E-01    5.953E-01    5.639E-01    5.326E-01
     5.012E-01    4.698E-01    4.385E-01    4.071E-01    3.757E-01    3.444E-01    3.130E-01    2.816E-01    2.503E-01    2.189E-01
     1.875E-01    1.561E-01    1.248E-01    9.340E-02    6.203E-02    3.066E-02   -7.070E-04   -3.208E-02   -6.345E-02   -9.483E-02
 Mac      Conc. = 2.96E-04
  -5.66968E+00 -6.21339E+00 -6.22881E+00 -6.13575E+00 -6.26973E+00 -7.01695E+00 -8.52939E+00 -1.08997E+01 -1.35590E+01 -1.57664E+01
  -1.70778E+01 -1.70346E+01 -1.66501E+01 -1.60499E+01 -1.68325E+01 -2.05972E+01 -2.51590E+01 -2.65754E+01 -2.15743E+01 -1.43753E+01
  -1.05180E+01 -6.11833E+00 -7.57991E-01  1.03054E+00  1.03514E+00  1.64026E+00  2.91802E+00  4.38084E+00  6.51933E+00  9.26159E+00
   1.12427E+01  1.24281E+01  1.36202E+01  1.45112E+01  1.36813E+01  1.18631E+01  1.10872E+01  1.28556E+01  1.70561E+01  2.07762E+01
   2.14218E+01  1.98318E+01  1.91475E+01  2.00541E+01  2.19251E+01  2.42829E+01  2.52062E+01  2.49912E+01  2.42358E+01  2.27201E+01
   2.04361E+01  1.85954E+01  1.79736E+01  1.69855E+01  1.59086E+01  1.54171E+01  1.51781E+01  1.63319E+01  1.85764E+01  1.97739E+01
   2.08855E+01  2.35007E+01  2.51487E+01  2.45886E+01  2.36724E+01  2.20807E+01  2.07129E+01  2.02535E+01  1.93995E+01  1.79340E+01
   1.80298E+01  2.11055E+01  2.52301E+01  2.78225E+01  2.93927E+01  3.06796E+01  3.03094E+01  2.92342E+01  2.80826E+01  2.67579E+01
   2.61048E+01  2.54175E+01  2.45160E+01  2.47090E+01  2.59220E+01  2.69191E+01  2.79932E+01  2.89296E+01  2.98905E+01  3.04311E+01
   3.07918E+01  3.16053E+01  3.20787E+01  3.23197E+01  3.27255E+01  3.16720E+01  2.91607E+01  2.63156E+01  2.29779E+01  2.02101E+01
   1.89776E+01  1.78748E+01  1.55583E+01  1.30798E+01  1.01221E+01  4.40822E+00 -4.09736E+00 -1.40683E+01 -2.14168E+01 -2.40344E+01
