 
 $NMID
 ID=''
 FMTDAT='(2E13.5)'
 TRAMP=   1.00000E+0
 VOLUME=   1.00000E+0
 $END
   2.02102E+4  -1.26024E+4
   5.15782E+3  -2.95023E+4
  -2.56765E+4  -2.00851E+3
  -2.12290E+3   3.53587E+4
   2.45040E+4   8.18114E+2
  -3.78778E+2  -2.81553E+4
  -1.56145E+4   6.11962E+3
   6.65147E+3   1.96315E+4
   1.03671E+4  -6.54316E+3
  -6.73412E+3  -7.84180E+3
  -6.05636E+3   6.00111E+3
   1.53582E+3   1.47256E+3
   2.63908E+2  -3.79949E+3
  -2.57620E+3  -1.72801E+3
  -2.00154E+3  -1.08734E+3
   1.03494E+3   2.10804E+2
   2.17633E+3   1.25758E+3
  -6.30500E+2  -2.80167E+2
  -1.41064E+3   2.14774E+2
   4.53554E+2   4.34664E+2
   1.63232E+2  -4.80077E+2
   9.90205E+2   2.89756E+2
   1.47965E+3   1.18604E+3
  -1.79980E+3  -1.24968E+1
  -9.36367E+2  -8.41234E+2
   2.99748E+3   6.70674E+2
   2.41159E+2   2.33240E+3
  -3.06676E+3   6.36903E+2
  -4.34023E+2  -2.28941E+3
   1.31718E+3  -3.59928E+2
  -9.80644E+2   2.16601E+3
  -1.43031E+3   6.97320E+2
  -2.74778E+2  -1.59131E+3
  -1.80191E+2  -2.04692E+3
   4.15190E+2  -1.68588E+3
   2.23723E+3   4.31381E+2
   9.86422E+2   2.19446E+3
  -1.02073E+3   4.23706E+2
  -7.11091E+2  -7.66876E+2
   6.14656E+2   8.74434E+1
  -8.01184E+2  -1.49278E+2
  -9.74288E+2  -1.16078E+3
   1.16456E+3  -3.40616E+2
   2.23657E+3   5.80552E+2
   6.42342E+2   4.79227E+2
  -2.06643E+2   9.27538E+2
  -1.25839E+3   1.81433E+3
  -1.67792E+3  -4.35537E+2
  -7.02843E+2  -2.25487E+3
   3.96539E+2  -1.39970E+3
   2.58641E+2  -3.25596E+2
   5.77334E+2  -4.52518E+2
   8.40989E+2  -2.57009E+2
   7.74750E+0   8.68597E+2
  -7.51845E+1   6.01241E+2
  -4.95442E+2   1.11783E+2
  -1.03225E+3  -6.06158E+1
  -6.08005E+2  -7.81822E+2
   1.04644E+3  -1.11005E+3
   1.54496E+3   3.50786E+2
   2.63648E+2   1.19354E+3
  -5.38821E+2   8.67488E+2
  -4.65556E+2   6.84081E+2
  -1.34284E+3   8.60544E+2
  -1.83362E+3  -3.41049E+2
  -1.18058E+3  -1.82970E+3
   7.94221E+2  -1.84343E+3
   1.66214E+3  -3.41420E+2
   1.17714E+3   7.54045E+2
  -5.72448E+2   3.66953E+2
  -4.08572E+2  -4.28420E+2
   9.26217E+2  -1.57071E+2
   6.98985E+2   5.27789E+2
  -2.57647E+2   9.06205E+2
  -4.45134E+2   2.60286E+2
   1.26239E+2  -2.91506E+2
  -1.08623E+2  -1.81451E+1
  -5.80250E+2   5.35573E+2
  -1.05508E+2   4.72015E+2
  -3.01419E+2  -1.07671E+2
  -4.86015E+2  -7.49482E+2
   4.87789E+1  -9.48524E+2
   5.20798E+2  -2.83736E+2
  -2.08510E+1   2.69742E+2
  -2.29992E+2  -4.15207E+2
   8.00560E+2  -8.38479E+2
   9.72525E+2  -1.98407E+2
   1.72521E+2   4.27035E+2
  -2.87395E+2   2.80479E+2
   2.17522E+2  -1.41405E+2
   6.17708E+2   3.34922E+2
  -4.69136E+1   1.16037E+3
  -6.67202E+2   5.32659E+2
  -1.12894E+3  -6.43260E+1
  -4.56829E+2  -7.91849E+2
   5.21973E+2  -6.88240E+2
   6.86196E+2  -2.08369E+2
   2.12681E+2   1.04747E+2
  -1.95234E+2  -8.91051E+1
   4.23193E+2  -1.32443E+2
   5.39691E+2   4.36531E+2
  -2.97574E+2   9.82403E+2
  -7.34865E+2   2.91305E+2
  -3.92206E+2  -7.06363E+2
   4.41361E+2  -4.41039E+2
   7.96950E+2   7.23399E+2
  -1.38911E+2   1.15761E+3
  -7.83311E+2   1.00282E+2
  -5.29732E+2  -1.01069E+3
   1.06878E+3  -9.24473E+2
   1.32220E+3   3.91211E+2
   6.59987E+2   8.56071E+2
   1.17591E+1   9.01663E+2
  -8.53778E+1   7.32984E+2
   4.43588E+2   4.75656E+2
  -1.75748E+2   5.56726E+2
  -7.43538E+2   3.25481E+2
  -6.95692E+2  -7.47722E+2
   2.86239E+2  -1.10913E+3
   1.01571E+3  -6.86451E+2
   1.00336E+3   6.76831E+1
   3.45606E+2   4.16361E+2
   5.21832E+2   4.37620E+2
   5.18805E+1   4.43869E+2
  -1.55744E+2   4.26908E+2
  -1.07565E+2  -1.55024E+2
   1.33526E+2  -3.80098E+2
   4.10710E+2  -3.30713E+2
   5.65108E+2   8.25327E+1
   5.88326E+2   4.01372E+2
  -1.41276E+2   4.74245E+2
  -5.29389E+2  -6.52286E+1
   2.01998E+2  -7.02121E+2
   2.19042E+2  -1.72547E+2
  -3.44047E+1   1.87244E+1
  -5.78131E+1  -4.01598E+2
   7.43884E+2  -4.77473E+2
   5.49020E+2   7.72337E+0
   1.59202E+2   6.52611E+2
  -1.86362E+2   3.12158E+2
  -6.85112E+2  -1.56926E+2
   5.80136E+1  -7.50026E+2
   7.60722E+2  -3.35704E+2
   5.76989E+2   3.07403E+2
  -1.53419E+2   5.99350E+2
  -6.07248E+2   3.05488E+2
  -3.39423E+2  -2.35402E+2
  -2.83053E+2  -2.32749E+2
  -8.13701E+1  -4.82412E+1
  -1.94809E+2  -3.20609E+2
   1.21098E+2  -4.35622E+2
   2.26508E+2  -6.50630E+2
   8.28860E+2   1.07773E+2
   2.35188E+2   6.66910E+2
  -3.57753E+2   3.68378E+2
  -2.05771E+2  -1.51609E+2
   2.45922E+2   8.23399E+1
   1.36843E+2   3.05110E+2
  -2.42693E+2   1.31002E+2
  -3.40980E+1   3.99130E+1
   4.32325E+1   2.00544E+2
  -2.91790E+2   2.06799E+2
  -3.31117E+2  -8.32475E+1
  -4.12577E+2  -4.01863E+2
   7.94301E+0  -6.35144E+2
   3.32477E+2  -4.71826E+2
   3.82096E+2   8.75352E+1
  -2.85103E+2   3.06015E+2
  -1.73147E+2   1.40237E+2
  -1.35547E+2  -2.27349E+1
   3.73164E+2   4.03909E+2
   1.16500E+2   2.46772E+2
   1.96478E+1   3.61111E+2
  -3.36804E+2  -2.05556E+2
   2.70241E+1  -5.04301E+1
   2.01936E+1   6.77373E+1
  -2.10084E+2   2.90689E+2
  -5.22703E+2   1.04633E+2
  -1.88709E+2  -3.43715E+2
   2.71689E+2  -3.27890E+2
   3.26474E+2   3.17293E+2
   8.66487E+1   5.87855E+2
  -3.42815E+2   1.61757E+2
   9.43343E-1  -9.72972E+1
  -1.62424E+2  -7.46296E+1
  -1.86428E+2  -2.41224E+2
  -6.00291E+1  -1.94421E+2
  -1.27584E+1  -4.31220E+2
   3.25643E+2  -4.97426E+2
   4.86013E+2   1.52267E+2
   1.76649E+2   4.74740E+2
  -3.64844E+2   2.85696E+2
  -3.31699E+2  -1.77421E+2
  -1.22908E+2  -2.14141E+2
  -7.32092E+1  -2.57447E+2
   2.74308E+2   1.50589E+2
   9.18359E+1   1.61226E+2
  -4.59337E+0   1.95634E+1
  -1.30816E+1   3.99968E+1
  -2.37561E+2   2.72999E+2
  -2.77494E+2   1.36739E+2
  -3.66339E+2  -4.35511E+2
   2.73200E+2  -6.25218E+2
   1.87982E+2  -2.31558E+2
   3.30219E+2   3.84578E+2
  -1.86937E+2  -6.69962E+1
  -3.64433E+2   7.21208E+1
  -2.37607E+2  -2.88436E+2
   7.94607E+1   1.20159E+2
  -2.23919E+1   4.73884E+1
  -5.46921E+2  -1.34533E+2
   5.28625E+1  -9.72588E+1
   1.81958E+2  -1.46880E+2
   1.77218E+2   1.79432E+2
  -6.06122E+2   1.76726E+2
  -3.36859E+2  -1.19503E+2
  -1.52526E+2  -3.10077E+2
   5.59387E+1  -1.14405E+2
  -9.17473E+1  -1.80235E+2
   7.85672E+1   1.32450E+2
  -2.12852E+2   1.47235E+1
   2.31489E+2  -1.38610E+2
   1.81492E+2   4.14450E+2
  -8.48259E+1   4.92368E+2
  -9.64788E+1  -5.12446E+0
  -3.30328E+2  -2.30088E+2
   1.47925E+2  -1.74304E+2
   2.06132E+2   1.28462E+2
  -2.92571E+1   4.73203E+2
  -2.67840E+2   8.69458E+1
  -4.34300E+2   1.98772E+1
  -4.44959E+1  -1.81821E+2
  -1.06098E+2   3.70432E+1
  -7.60829E+1   4.31047E-1
  -2.10395E+1  -2.30572E+2
  -3.32449E+1  -1.47325E+2
   2.57369E+2   3.31083E+1
  -1.69629E+2   2.68863E+2
  -3.23536E+0   5.32480E+1
  -9.41504E+1   1.26822E+2
   5.98060E+1  -1.51904E+2
  -6.73818E+1   5.21378E+1
  -6.90929E+1   2.85294E+2
  -8.65612E+1   1.33233E+2
  -1.93199E+2  -6.16830E+1
  -9.67727E+1  -8.70024E+1
   1.35389E+2  -1.95101E+2
  -5.09195E+1  -1.18095E+2
  -5.80260E+0  -2.24364E+2
   3.78620E+1  -2.69153E+2
   3.06855E+2  -9.76909E+1
   1.25663E+2   1.83896E+2
  -2.27432E+2   2.99438E+2
  -3.44705E+2  -2.87184E+2
  -1.33125E+0   1.95168E+1
   3.48586E+2  -2.56870E+1
  -2.95453E+1   1.73841E+2
  -8.87009E+1   2.09540E+2
  -1.97514E+2  -7.80967E+0
   1.33342E+1  -4.03403E+1
  -2.94852E+2   7.56524E+1
  -1.41604E+2   1.84700E+2
   3.46749E+1  -1.27460E+2
   2.81437E+2  -4.11087E+2
   9.09651E+1  -2.58955E+2
  -7.92208E+1   1.22625E+2
  -9.89212E+1   1.90617E+2
  -2.31631E+2   1.35057E+2
  -2.24464E+2  -2.12587E+2
   3.48338E+1  -1.24443E+2
  -4.81032E+1  -1.91418E+2
  -1.47129E+2   1.24577E+2
  -1.97925E+2  -1.17194E+2
   2.88859E+2   2.24057E+2
   1.19824E+2   2.16671E+2
  -5.45156E+1   1.92210E+2
  -1.91076E+2  -5.71406E+1
   9.74513E+1  -6.25610E+1
   1.35904E+2  -1.77028E+2
   2.57910E+2   2.34679E+2
  -8.02912E+0  -5.40777E+1
  -6.79236E+1   2.08170E+2
   1.19323E+2  -4.76958E+1
  -1.06884E+2   3.43563E+2
  -9.96813E+1   6.49152E+1
  -2.61331E+2  -1.91356E+2
  -5.88790E+1  -1.24011E+2
   3.64014E+2  -3.80585E+2
   3.52685E+2  -1.11717E+2
   6.22713E+1   4.81448E+2
  -1.45634E+2  -1.76368E+2
  -9.25801E+1   1.53700E+2
   1.75471E+2  -5.80923E+0
   7.78982E+1  -2.55521E+2
  -2.60580E+2  -7.72078E+1
  -1.27602E+1  -6.23801E+1
   1.46616E+2   2.19782E+2
   2.94797E+2   1.98994E+2
  -5.09363E+1   2.15216E+2
  -3.19508E+2   4.34679E+1
  -2.24407E+2  -6.38039E+1
   2.07398E+2  -1.56037E+2
   1.12932E+2  -8.52893E+1
  -2.41815E+2  -1.08020E+2
  -1.79981E+2   5.60925E+1
  -1.74594E+2   2.96218E+1
   9.79564E+1  -7.01850E+1
   4.70286E+1  -2.55594E+1
  -1.28494E+2   6.99670E+1
  -2.93607E+1  -7.28862E+1
   2.95159E+2  -4.97314E+1
   1.40074E+2  -1.59375E+1
   1.57694E+2  -1.21551E+2
  -1.87346E+2   9.40595E+1
  -1.87132E+2  -1.32384E+2
   1.23065E+2  -1.09712E+2
   7.75716E+1   7.05184E+0
  -2.06353E+2   1.15655E+2
  -8.80259E+1   1.27278E+1
   9.91817E+1  -5.98739E+1
  -1.12335E+2   5.99170E+1
  -4.59093E+1  -3.55697E+1
  -2.19155E+2   2.58530E+2
  -2.66312E+1  -1.60654E+2
  -1.38679E+1  -7.57544E+1
   2.64186E+2  -1.67975E+1
  -7.66580E+1   2.44329E+2
   1.82586E+2   2.72302E+2
  -4.63211E+2   1.72578E+2
  -2.11694E+2  -2.13732E+2
   8.81365E+1   2.59692E+1
   1.62901E+2   3.96833E+1
   8.77182E+1  -1.35594E+2
   8.22820E+1   2.00373E+2
   2.04325E+2  -2.25158E+1
   4.97098E+1   1.73143E+2
  -3.98382E+1   6.54780E+1
  -4.51786E+2  -1.70698E+2
   3.41835E+1  -3.51406E+2
   3.42019E+2   9.88490E+1
   1.94115E+1   2.52382E+1
  -3.60196E+1   2.87340E+2
  -6.93643E+1  -3.66810E+1
  -5.16722E+1  -1.51506E+2
  -9.67934E+1  -8.71384E+1
   3.56608E+2  -2.30384E+2
  -6.81578E+1  -1.15531E+1
   1.00715E+1  -5.26691E+1
  -1.34756E+2   8.72648E+0
  -1.09362E+2   1.58744E+2
  -2.21816E+2   2.21406E+2
  -1.50086E+2   4.60840E+1
  -4.31428E+1   6.26149E+1
  -1.53606E+2  -1.03224E+2
   1.05516E+2   4.46303E+1
  -6.43135E+1   9.34321E+1
   1.77426E+2  -3.09769E+1
   6.21032E+1  -2.77991E+2
   2.54320E+2  -9.88794E+1
  -1.80753E+2  -6.23817E+1
  -2.24229E+2   1.45406E+2
  -2.46713E+2  -2.72533E+2
  -3.20062E+1  -2.10285E+2
   1.40379E+2  -1.61271E+2
  -6.49805E+1  -6.26207E+1
   3.65254E+0   1.16785E+2
  -2.24656E+1  -3.65808E+1
