 
 $NMID
 ID=''
 FMTDAT='(2E13.5)'
 TRAMP=   1.00000E+0
 VOLUME=   1.00000E+0
 $END
   6.61642E+5   3.78987E+5
   1.34963E+6   1.58153E+6
   1.47390E+6   1.37529E+6
   1.28236E+6   1.37822E+6
   1.32579E+6   1.49571E+6
   1.38221E+6   1.39900E+6
   1.29911E+6   1.37113E+6
   1.30164E+6   1.44730E+6
   1.30903E+6   1.41599E+6
   1.23568E+6   1.41786E+6
   1.22295E+6   1.46397E+6
   1.21116E+6   1.44545E+6
   1.15426E+6   1.45337E+6
   1.13606E+6   1.48607E+6
   1.10845E+6   1.47463E+6
   1.05712E+6   1.48387E+6
   1.04473E+6   1.51034E+6
   1.02507E+6   1.49930E+6
   9.86664E+5   1.50234E+6
   9.82856E+5   1.51345E+6
   9.62476E+5   1.50387E+6
   9.25992E+5   1.50767E+6
   9.13235E+5   1.51794E+6
   8.91993E+5   1.51350E+6
   8.53358E+5   1.51805E+6
   8.38896E+5   1.52034E+6
   8.14536E+5   1.52038E+6
   7.75905E+5   1.53054E+6
   7.47352E+5   1.53378E+6
   7.25261E+5   1.52708E+6
   6.99506E+5   1.53324E+6
   6.79512E+5   1.53509E+6
   6.55629E+5   1.52841E+6
   6.34227E+5   1.52760E+6
   6.21071E+5   1.52358E+6
   6.07683E+5   1.51764E+6
   5.90979E+5   1.51907E+6
   5.73411E+5   1.51704E+6
   5.51833E+5   1.50964E+6
   5.31387E+5   1.50953E+6
   5.10460E+5   1.50684E+6
   4.87156E+5   1.50005E+6
   4.66401E+5   1.49537E+6
   4.46792E+5   1.49349E+6
   4.22097E+5   1.48840E+6
   3.99862E+5   1.48566E+6
   3.79727E+5   1.48211E+6
   3.56515E+5   1.47678E+6
   3.35310E+5   1.46814E+6
   3.18842E+5   1.46126E+6
   3.02052E+5   1.45535E+6
   2.83008E+5   1.44991E+6
   2.65311E+5   1.44340E+6
   2.47357E+5   1.43691E+6
   2.28478E+5   1.42995E+6
   2.08001E+5   1.42302E+6
   1.86559E+5   1.41496E+6
   1.67067E+5   1.40534E+6
   1.49301E+5   1.39650E+6
   1.30465E+5   1.38936E+6
   1.10864E+5   1.38197E+6
   9.20444E+4   1.37293E+6
   7.43147E+4   1.36481E+6
   5.50819E+4   1.35566E+6
   3.65433E+4   1.34441E+6
   2.04824E+4   1.33244E+6
   4.92779E+3   1.32175E+6
  -1.17138E+4   1.31158E+6
  -2.91437E+4   1.30237E+6
  -4.68036E+4   1.29270E+6
  -6.44597E+4   1.28127E+6
  -8.14247E+4   1.26956E+6
  -9.71333E+4   1.25896E+6
  -1.14415E+5   1.24871E+6
  -1.31134E+5   1.23699E+6
  -1.47070E+5   1.22456E+6
  -1.62034E+5   1.21320E+6
  -1.77752E+5   1.20199E+6
  -1.93110E+5   1.18984E+6
  -2.07841E+5   1.17683E+6
  -2.22339E+5   1.16416E+6
  -2.36281E+5   1.15127E+6
  -2.50305E+5   1.13926E+6
  -2.65447E+5   1.12626E+6
  -2.80680E+5   1.11266E+6
  -2.94476E+5   1.09948E+6
  -3.07805E+5   1.08681E+6
  -3.21963E+5   1.07416E+6
  -3.34837E+5   1.06050E+6
  -3.46777E+5   1.04694E+6
  -3.57419E+5   1.03384E+6
  -3.68506E+5   1.02172E+6
  -3.79773E+5   1.00866E+6
  -3.89726E+5   9.94842E+5
  -3.98516E+5   9.80808E+5
  -4.06451E+5   9.67921E+5
  -4.15014E+5   9.55791E+5
  -4.24425E+5   9.43058E+5
  -4.32752E+5   9.29811E+5
  -4.40085E+5   9.16873E+5
  -4.48334E+5   9.04395E+5
  -4.57667E+5   8.91325E+5
  -4.65555E+5   8.76703E+5
  -4.72006E+5   8.62099E+5
  -4.78034E+5   8.49430E+5
  -4.84198E+5   8.37434E+5
  -4.90826E+5   8.24944E+5
  -4.97631E+5   8.10996E+5
  -5.02529E+5   7.97024E+5
  -5.05893E+5   7.84014E+5
  -5.10309E+5   7.72242E+5
  -5.16175E+5   7.59881E+5
  -5.21880E+5   7.46407E+5
  -5.26559E+5   7.32630E+5
  -5.31194E+5   7.19565E+5
  -5.36046E+5   7.06466E+5
  -5.40853E+5   6.92776E+5
  -5.44480E+5   6.78412E+5
  -5.46866E+5   6.64703E+5
  -5.49095E+5   6.52891E+5
  -5.52455E+5   6.40865E+5
  -5.55979E+5   6.28405E+5
  -5.59148E+5   6.16006E+5
  -5.61555E+5   6.03179E+5
  -5.64474E+5   5.90221E+5
  -5.66480E+5   5.76820E+5
  -5.68385E+5   5.63868E+5
  -5.70401E+5   5.51267E+5
  -5.72552E+5   5.39027E+5
  -5.75216E+5   5.26102E+5
  -5.78243E+5   5.12439E+5
  -5.80446E+5   4.98015E+5
  -5.81867E+5   4.85082E+5
  -5.83108E+5   4.72575E+5
  -5.84627E+5   4.59656E+5
  -5.86186E+5   4.46928E+5
  -5.86710E+5   4.34378E+5
  -5.87587E+5   4.23121E+5
  -5.88503E+5   4.11176E+5
  -5.89263E+5   3.98566E+5
  -5.89248E+5   3.86026E+5
  -5.88507E+5   3.74070E+5
  -5.87742E+5   3.63645E+5
  -5.88119E+5   3.52585E+5
  -5.88656E+5   3.40884E+5
  -5.88200E+5   3.28995E+5
  -5.87082E+5   3.17334E+5
  -5.86248E+5   3.06013E+5
  -5.84477E+5   2.95092E+5
  -5.83203E+5   2.84405E+5
  -5.81417E+5   2.73585E+5
  -5.79472E+5   2.63706E+5
  -5.77747E+5   2.54569E+5
  -5.76147E+5   2.44778E+5
  -5.73985E+5   2.35029E+5
  -5.71359E+5   2.25588E+5
  -5.68627E+5   2.17064E+5
  -5.66387E+5   2.08353E+5
  -5.63675E+5   1.99452E+5
  -5.60734E+5   1.90956E+5
  -5.57443E+5   1.82742E+5
  -5.54295E+5   1.74270E+5
  -5.50662E+5   1.65617E+5
  -5.47089E+5   1.57311E+5
  -5.43175E+5   1.49764E+5
  -5.39456E+5   1.42335E+5
  -5.36021E+5   1.35159E+5
  -5.32808E+5   1.27635E+5
  -5.28846E+5   1.20113E+5
  -5.24521E+5   1.13426E+5
  -5.20346E+5   1.06712E+5
  -5.16410E+5   1.00227E+5
  -5.12479E+5   9.35050E+4
  -5.08124E+5   8.68055E+4
  -5.03370E+5   8.00883E+4
  -4.99459E+5   7.39864E+4
  -4.95482E+5   6.73045E+4
  -4.90984E+5   6.03444E+4
  -4.85971E+5   5.42206E+4
  -4.80737E+5   4.84669E+4
  -4.76888E+5   4.25606E+4
  -4.72750E+5   3.63189E+4
  -4.68145E+5   2.99879E+4
  -4.63251E+5   2.44104E+4
  -4.58110E+5   1.88032E+4
  -4.53313E+5   1.31420E+4
  -4.48539E+5   8.26589E+3
  -4.43583E+5   3.04669E+3
  -4.38614E+5  -1.81218E+3
  -4.34354E+5  -6.40348E+3
  -4.30107E+5  -1.18786E+4
  -4.25604E+5  -1.76595E+4
  -4.20401E+5  -2.33747E+4
  -4.14842E+5  -2.80004E+4
  -4.10079E+5  -3.29798E+4
  -4.05429E+5  -3.78666E+4
  -4.00531E+5  -4.29544E+4
  -3.95562E+5  -4.79851E+4
  -3.90889E+5  -5.25163E+4
  -3.86282E+5  -5.77687E+4
  -3.81192E+5  -6.27965E+4
  -3.75513E+5  -6.74035E+4
  -3.70395E+5  -7.10815E+4
  -3.65851E+5  -7.51031E+4
  -3.61033E+5  -7.95643E+4
  -3.56299E+5  -8.38315E+4
  -3.51068E+5  -8.80197E+4
  -3.46186E+5  -9.21413E+4
  -3.41047E+5  -9.60492E+4
  -3.36247E+5  -9.99010E+4
  -3.31204E+5  -1.03579E+5
  -3.26199E+5  -1.06765E+5
  -3.21716E+5  -1.10086E+5
  -3.16943E+5  -1.13714E+5
  -3.12423E+5  -1.17580E+5
  -3.06712E+5  -1.20958E+5
  -3.01796E+5  -1.23272E+5
  -2.96786E+5  -1.25890E+5
  -2.92314E+5  -1.28629E+5
  -2.87622E+5  -1.31378E+5
  -2.82765E+5  -1.33678E+5
  -2.78230E+5  -1.35874E+5
  -2.73659E+5  -1.37967E+5
  -2.69134E+5  -1.40757E+5
  -2.64136E+5  -1.42875E+5
  -2.59387E+5  -1.44505E+5
  -2.54880E+5  -1.45777E+5
  -2.50949E+5  -1.47660E+5
  -2.46320E+5  -1.49674E+5
  -2.42137E+5  -1.51474E+5
  -2.37129E+5  -1.52654E+5
  -2.32748E+5  -1.53764E+5
  -2.29035E+5  -1.55057E+5
  -2.24769E+5  -1.56069E+5
  -2.20413E+5  -1.57003E+5
  -2.16434E+5  -1.57788E+5
  -2.12784E+5  -1.58421E+5
  -2.08626E+5  -1.59478E+5
  -2.04499E+5  -1.60211E+5
  -2.00420E+5  -1.60395E+5
  -1.96504E+5  -1.60593E+5
  -1.92994E+5  -1.61474E+5
  -1.89121E+5  -1.61899E+5
  -1.85096E+5  -1.62749E+5
  -1.81139E+5  -1.62782E+5
  -1.77553E+5  -1.62608E+5
  -1.74004E+5  -1.63139E+5
  -1.70170E+5  -1.63443E+5
  -1.66304E+5  -1.63416E+5
  -1.62697E+5  -1.63122E+5
  -1.59543E+5  -1.63466E+5
  -1.56264E+5  -1.63672E+5
  -1.52368E+5  -1.63404E+5
  -1.48653E+5  -1.63438E+5
  -1.45284E+5  -1.63032E+5
  -1.42257E+5  -1.62698E+5
  -1.38868E+5  -1.62663E+5
  -1.35201E+5  -1.62724E+5
  -1.31685E+5  -1.62710E+5
  -1.28572E+5  -1.62677E+5
  -1.25080E+5  -1.62660E+5
  -1.21429E+5  -1.62376E+5
  -1.17635E+5  -1.61971E+5
  -1.14355E+5  -1.61230E+5
  -1.11409E+5  -1.60806E+5
  -1.08448E+5  -1.60767E+5
  -1.04761E+5  -1.60790E+5
  -1.01622E+5  -1.60065E+5
  -9.84845E+4  -1.59444E+5
  -9.56941E+4  -1.58765E+5
  -9.26191E+4  -1.58291E+5
  -8.95588E+4  -1.57692E+5
  -8.67249E+4  -1.56990E+5
  -8.39461E+4  -1.56688E+5
  -8.08166E+4  -1.56360E+5
  -7.77084E+4  -1.55950E+5
  -7.45333E+4  -1.55091E+5
  -7.17217E+4  -1.54373E+5
  -6.92086E+4  -1.53408E+5
  -6.66061E+4  -1.53015E+5
  -6.37344E+4  -1.52032E+5
  -6.11524E+4  -1.51260E+5
  -5.86970E+4  -1.50502E+5
  -5.61969E+4  -1.49666E+5
  -5.34619E+4  -1.49026E+5
  -5.10461E+4  -1.47767E+5
  -4.85192E+4  -1.46423E+5
  -4.63921E+4  -1.45326E+5
  -4.43991E+4  -1.44781E+5
  -4.19680E+4  -1.43694E+5
  -3.98384E+4  -1.43147E+5
  -3.73359E+4  -1.42182E+5
  -3.53840E+4  -1.40744E+5
  -3.35004E+4  -1.39998E+5
  -3.13055E+4  -1.38852E+5
  -2.92985E+4  -1.37709E+5
  -2.76452E+4  -1.36686E+5
  -2.57949E+4  -1.35776E+5
  -2.37822E+4  -1.34742E+5
  -2.14302E+4  -1.33410E+5
  -1.96349E+4  -1.32475E+5
  -1.78658E+4  -1.31082E+5
  -1.65844E+4  -1.30155E+5
  -1.46038E+4  -1.29088E+5
  -1.25824E+4  -1.28062E+5
  -1.11062E+4  -1.26535E+5
  -9.50239E+3  -1.25237E+5
  -8.06430E+3  -1.24149E+5
  -6.38596E+3  -1.23107E+5
  -4.77413E+3  -1.21595E+5
  -3.07968E+3  -1.20330E+5
  -2.09911E+3  -1.19246E+5
  -4.45214E+2  -1.18305E+5
   1.25175E+3  -1.17216E+5
   2.70035E+3  -1.15595E+5
   3.97087E+3  -1.14313E+5
   5.18203E+3  -1.12963E+5
   6.49391E+3  -1.11734E+5
   7.95779E+3  -1.10404E+5
   8.82883E+3  -1.09457E+5
   1.01858E+4  -1.08233E+5
   1.17049E+4  -1.06809E+5
   1.28065E+4  -1.05712E+5
   1.38844E+4  -1.04133E+5
   1.49478E+4  -1.02852E+5
   1.58710E+4  -1.01953E+5
   1.72723E+4  -1.00753E+5
   1.85073E+4  -9.96327E+4
   1.99755E+4  -9.81066E+4
   2.06714E+4  -9.66631E+4
   2.14676E+4  -9.55458E+4
   2.23829E+4  -9.43030E+4
   2.33904E+4  -9.30714E+4
   2.40309E+4  -9.17889E+4
   2.50553E+4  -9.05891E+4
   2.59926E+4  -8.95128E+4
   2.72205E+4  -8.81100E+4
   2.83011E+4  -8.69571E+4
   2.90296E+4  -8.53588E+4
   2.95600E+4  -8.43674E+4
   3.03328E+4  -8.33733E+4
   3.12413E+4  -8.20891E+4
   3.20417E+4  -8.06650E+4
   3.28097E+4  -7.93836E+4
   3.35241E+4  -7.86913E+4
   3.39276E+4  -7.72938E+4
   3.48251E+4  -7.60268E+4
   3.52884E+4  -7.46604E+4
   3.58217E+4  -7.39289E+4
   3.66082E+4  -7.27801E+4
   3.71561E+4  -7.17778E+4
   3.79644E+4  -7.03260E+4
   3.84229E+4  -6.92437E+4
   3.87826E+4  -6.79206E+4
   3.90782E+4  -6.72280E+4
   3.98063E+4  -6.57635E+4
   4.01568E+4  -6.47058E+4
   4.05897E+4  -6.37586E+4
   4.09508E+4  -6.28239E+4
   4.17553E+4  -6.15414E+4
   4.18462E+4  -6.02216E+4
   4.22363E+4  -5.91438E+4
   4.23104E+4  -5.81562E+4
   4.24313E+4  -5.72093E+4
   4.29737E+4  -5.61858E+4
   4.33129E+4  -5.51860E+4
   4.35462E+4  -5.40141E+4
