 LCModel (Version 6.3-1N) Copyright: S.W. Provencher.          Ref.: Magn. Reson. Med. 30:672-679 (1993).                
 Slice_N1@20_21  28-Feb-2025 11:42:40
 27 lines in following concentration table = NCONC+1
    Conc.  %SD /Cr+PCr  Metabolite                                         
 3.03E-04   4% 3.6E-04 Mac                                                 
    3.438  43%   4.074 Cr                                                  
    3.313  44%   3.926 PCr                                                 
    9.124  11%  10.812 Ins                                                 
    9.997   8%  11.847 NAA                                                 
    5.200  17%   6.162 Tau                                                 
 2.77E-02 999% 3.3E-02 PCho                                                
    1.679  51%   1.990 GPC                                                 
   10.516  10%  12.462 Glu                                                 
    4.241  20%   5.026 Gln                                                 
    0.723  98%   0.856 Ala                                                 
    1.136 111%   1.346 Asc                                                 
    1.627  62%   1.928 Asp                                                 
    0.327 167%   0.387 GABA                                                
    1.087  65%   1.289 Glc                                                 
    0.763  67%   0.904 GSH                                                 
    5.299  14%   6.279 Lac                                                 
    1.082  60%   1.283 NAAG                                                
    0.000 999%   0.000 PE                                                  
    1.707  13%   2.023 GPC+PCho                                            
   11.079   8%  13.130 NAA+NAAG                                            
   14.757   9%  17.488 Glu+Gln                                             
    6.751  10%   8.000 Cr+PCr                                              
   11.079   8%  13.130 NAA+NAAG                                            
    6.751  10%   8.000 Cr+PCr                                              
   14.757   9%  17.488 Glu+Gln                                             
   6 lines in following misc. output table
  FWHM = 0.024 ppm    S/N =   4                                            
  Data shift = 0.033 ppm                                                   
  Ph: -59 deg       0.0 deg/ppm                                            
  alphaB,S = 3.7E-01,   1.4E+00                                            
   19 spline knots.   Ns = 5(1)                                            
  ( 4) 2 infls.   ( 2) 1 extrs.                                            
  480 points on ppm-axis = NY
      4.100000     4.091866     4.083733     4.075600     4.067466     4.059333     4.051199     4.043066     4.034933     4.026799
      4.018666     4.010532     4.002399     3.994265     3.986132     3.977998     3.969864     3.961731     3.953597     3.945463
      3.937330     3.929196     3.921062     3.912929     3.904795     3.896662     3.888528     3.880394     3.872261     3.864127
      3.855993     3.847860     3.839726     3.831592     3.823459     3.815325     3.807191     3.799058     3.790924     3.782790
      3.774657     3.766523     3.758389     3.750256     3.742122     3.733989     3.725855     3.717721     3.709588     3.701454
      3.693320     3.685187     3.677053     3.668919     3.660786     3.652652     3.644518     3.636385     3.628251     3.620117
      3.611984     3.603850     3.595716     3.587583     3.579449     3.571316     3.563182     3.555048     3.546915     3.538781
      3.530647     3.522514     3.514380     3.506246     3.498113     3.489979     3.481845     3.473712     3.465578     3.457444
      3.449311     3.441177     3.433043     3.424910     3.416776     3.408643     3.400509     3.392375     3.384242     3.376108
      3.367974     3.359841     3.351707     3.343573     3.335440     3.327306     3.319172     3.311039     3.302905     3.294771
      3.286638     3.278504     3.270370     3.262237     3.254103     3.245970     3.237836     3.229702     3.221569     3.213435
      3.205301     3.197168     3.189034     3.180900     3.172767     3.164633     3.156499     3.148366     3.140232     3.132098
      3.123965     3.115831     3.107697     3.099564     3.091430     3.083297     3.075163     3.067029     3.058896     3.050762
      3.042628     3.034495     3.026361     3.018227     3.010094     3.001960     2.993826     2.985693     2.977559     2.969425
      2.961292     2.953158     2.945024     2.936891     2.928757     2.920624     2.912490     2.904356     2.896223     2.888089
      2.879955     2.871822     2.863688     2.855554     2.847421     2.839287     2.831153     2.823020     2.814886     2.806752
      2.798619     2.790485     2.782351     2.774218     2.766084     2.757951     2.749817     2.741683     2.733550     2.725416
      2.717282     2.709149     2.701015     2.692881     2.684748     2.676614     2.668480     2.660347     2.652213     2.644079
      2.635946     2.627812     2.619678     2.611545     2.603411     2.595278     2.587144     2.579010     2.570877     2.562743
      2.554609     2.546476     2.538342     2.530208     2.522075     2.513941     2.505807     2.497674     2.489540     2.481406
      2.473273     2.465139     2.457006     2.448872     2.440738     2.432605     2.424471     2.416337     2.408204     2.400070
      2.391936     2.383803     2.375669     2.367535     2.359402     2.351268     2.343134     2.335001     2.326867     2.318733
      2.310600     2.302466     2.294333     2.286199     2.278065     2.269932     2.261798     2.253664     2.245531     2.237397
      2.229263     2.221130     2.212996     2.204862     2.196729     2.188595     2.180461     2.172328     2.164194     2.156060
      2.147927     2.139793     2.131660     2.123526     2.115392     2.107259     2.099125     2.090991     2.082858     2.074724
      2.066590     2.058457     2.050323     2.042189     2.034056     2.025922     2.017788     2.009655     2.001521     1.993387
      1.985254     1.977120     1.968987     1.960853     1.952719     1.944586     1.936452     1.928318     1.920185     1.912051
      1.903917     1.895784     1.887650     1.879516     1.871383     1.863249     1.855115     1.846982     1.838848     1.830714
      1.822581     1.814447     1.806314     1.798180     1.790046     1.781913     1.773779     1.765645     1.757512     1.749378
      1.741244     1.733111     1.724977     1.716843     1.708710     1.700576     1.692442     1.684309     1.676175     1.668041
      1.659908     1.651774     1.643641     1.635507     1.627373     1.619240     1.611106     1.602972     1.594839     1.586705
      1.578571     1.570438     1.562304     1.554170     1.546037     1.537903     1.529769     1.521636     1.513502     1.505368
      1.497235     1.489101     1.480968     1.472834     1.464700     1.456567     1.448433     1.440299     1.432166     1.424032
      1.415898     1.407765     1.399631     1.391497     1.383364     1.375230     1.367096     1.358963     1.350829     1.342695
      1.334562     1.326428     1.318295     1.310161     1.302027     1.293894     1.285760     1.277626     1.269493     1.261359
      1.253225     1.245092     1.236958     1.228824     1.220691     1.212557     1.204423     1.196290     1.188156     1.180022
      1.171889     1.163755     1.155622     1.147488     1.139354     1.131221     1.123087     1.114953     1.106820     1.098686
      1.090552     1.082419     1.074285     1.066151     1.058018     1.049884     1.041750     1.033617     1.025483     1.017349
      1.009216     1.001082     0.992949     0.984815     0.976681     0.968548     0.960414     0.952280     0.944147     0.936013
      0.927879     0.919746     0.911612     0.903478     0.895345     0.887211     0.879077     0.870944     0.862810     0.854676
      0.846543     0.838409     0.830276     0.822142     0.814008     0.805875     0.797741     0.789607     0.781474     0.773340
      0.765206     0.757073     0.748939     0.740805     0.732672     0.724538     0.716404     0.708271     0.700137     0.692003
      0.683870     0.675736     0.667603     0.659469     0.651335     0.643202     0.635068     0.626934     0.618801     0.610667
      0.602533     0.594400     0.586266     0.578132     0.569999     0.561865     0.553731     0.545598     0.537464     0.529330
      0.521197     0.513063     0.504930     0.496796     0.488662     0.480529     0.472395     0.464261     0.456128     0.447994
      0.439861     0.431727     0.423593     0.415460     0.407326     0.399192     0.391059     0.382925     0.374792     0.366658
      0.358524     0.350391     0.342257     0.334124     0.325990     0.317856     0.309723     0.301589     0.293455     0.285322
      0.277188     0.269055     0.260921     0.252787     0.244654     0.236520     0.228386     0.220253     0.212119     0.203986
 NY phased data points follow
   4.88943E+01  6.30382E+01  4.91178E+01  5.33704E+01  5.34084E+01  6.47531E+01  6.93493E+01  5.36886E+01  5.29993E+01  4.12715E+01
   3.56584E+01  3.69814E+01  3.13002E+01  1.96529E+01  1.31171E+01  1.62800E+01 -2.20235E+00 -1.92226E+01 -2.42186E+01 -3.80870E+01
  -3.44429E+01 -1.74377E+01 -6.05779E+00  1.70029E+01  4.51330E+01  5.21842E+01  5.49441E+01  6.11485E+01  5.48584E+01  7.21628E+01
   7.09652E+01  4.59399E+01  4.99302E+01  4.15507E+01  5.22111E+01  5.55457E+01  3.13004E+01  3.14892E+01  1.83954E+01  2.91859E+00
  -1.07842E+01 -1.64797E+01  3.69218E-01  1.81119E+01  3.07679E+01  2.78678E+01  5.33129E+01  7.63412E+01  5.82972E+01  6.57492E+01
   6.09448E+01  4.15675E+01  4.76282E+01  4.52253E+01  3.13583E+01  1.45522E+01  1.90675E+01  1.75803E+01 -6.14385E+00 -1.33931E+01
   3.53354E+00  1.98704E+01  2.02585E+01  3.74284E+01  4.65301E+01  5.74905E+01  6.41030E+01  4.17182E+01  1.69209E+01 -9.86804E+00
   7.62850E+00  1.64567E+01  1.14718E+01  4.09338E+01  4.75306E+01  5.81133E+01  6.50065E+01  5.35001E+01  7.19626E+01  6.61870E+01
   4.28725E+01  6.10181E+01  5.45063E+01  3.19083E+01  1.92496E+01  2.04325E+01  3.32369E+01  4.40704E+01  6.38716E+01  5.16927E+01
   7.93353E+01  9.87129E+01  8.38802E+01  1.04281E+02  8.77306E+01  9.59607E+01  1.12056E+02  9.58639E+01  8.28347E+01  7.10015E+01
   7.40999E+01  5.48146E+01  2.80549E+01  3.71292E+01  3.48186E+01  5.04324E+00  3.81354E+00 -3.39535E+00 -2.91087E+01 -7.01431E+01
  -9.94160E+01 -9.19295E+01 -7.89746E+01 -4.47578E+01 -3.14361E+01 -1.34374E+01  1.27807E+00  2.83451E+00  1.53685E+01  2.01438E+01
   4.27738E+01  4.25195E+01  3.90543E+01  4.00399E+01  4.55835E+01  5.99974E+01  6.39755E+01  8.53010E+01  1.01890E+02  1.17958E+02
   1.26983E+02  1.00771E+02  3.17267E+01 -3.39798E+01 -6.16741E+01 -6.52750E+01 -5.03153E+01 -5.99571E+01 -6.51785E+01 -3.60780E+01
  -3.53638E+01 -4.46879E+01 -2.84451E+01 -3.02349E+01 -3.85229E+01 -3.40683E+01 -3.24979E+01 -2.61977E+01 -1.96597E+01 -2.18679E+01
  -1.99056E+01 -9.97986E+00 -1.01883E+01 -9.74301E+00 -1.01890E+00 -1.85223E+00 -8.69063E+00  6.85784E-01 -7.74995E-02 -7.08080E+00
   4.06612E+00  7.99793E+00  8.78329E+00  5.22362E+00  1.70957E+00  9.19282E-02  1.83252E+01  2.55656E+01  6.03980E+00  2.24998E+01
   2.86109E+01  2.44531E+01  3.71412E+01  3.42236E+01  3.52814E+01  3.89300E+01  3.27644E+01  3.65437E+01  3.21948E+01  1.78662E+01
   5.36587E+00  5.90145E+00  2.45470E+00 -3.41256E+01 -2.41516E+01 -1.51798E+01 -2.12841E+01 -5.67180E+00 -1.78852E+01 -5.08044E+00
  -7.75716E+00 -1.20044E+01  6.30865E+00  1.67526E+01  2.81236E+01  5.54591E+00  8.71477E+00  1.45307E+01 -1.82337E+00  1.23366E+01
   1.04663E+01  9.13950E+00  2.57046E+01  2.96803E+01  2.76978E+01  1.70333E+01  1.72764E+01  1.29664E+01  2.59359E+00 -2.07368E+00
  -9.30776E+00  2.86692E+00  1.63152E+01  3.39751E+01  4.12163E+01  5.95258E+01  9.19651E+01  8.58392E+01  7.50273E+01  6.55093E+01
   5.43089E+01  4.58200E+01  2.86235E+01  2.60610E+01  4.92645E+01  3.40110E+01  2.73735E+01  4.64564E+01  2.30789E+01  2.23462E+01
   1.72349E+01  2.37905E+01  2.27384E+01 -1.44824E+01 -8.42359E+00 -1.96493E+01 -3.10755E+01 -3.05092E+01 -4.31698E+01 -3.49344E+01
  -3.32301E+01 -3.03113E+01 -1.85787E+01 -2.12759E+01 -7.37244E+00  1.05828E+01 -2.83752E+00  8.98809E-01  1.46739E+01  2.41633E+00
  -2.56320E+00 -1.99783E+00 -5.33409E+00 -7.27907E+00 -2.41409E+01 -3.94634E+01 -3.02586E+01  4.94466E+01  1.39618E+02  1.80190E+02
   2.14121E+02  1.85089E+02  1.60424E+02  1.55088E+02  1.30881E+02  1.41661E+02  1.24422E+02  1.11759E+02  1.09170E+02  8.66415E+01
   9.91948E+01  1.06664E+02  9.47992E+01  1.06273E+02  1.15607E+02  1.08330E+02  9.61400E+01  9.49445E+01  9.67949E+01  9.79846E+01
   9.43609E+01  6.69935E+01  8.17830E+01  7.49316E+01  6.67227E+01  8.29842E+01  4.76926E+01  6.04944E+01  6.12555E+01  5.65243E+01
   6.25532E+01  4.78517E+01  5.58704E+01  4.56683E+01  5.20954E+01  4.57312E+01  3.58367E+01  3.15767E+01  2.96234E+01  3.50480E+01
   3.60159E+01  6.19408E+01  5.23043E+01  5.91935E+01  8.66655E+01  8.47537E+01  8.58542E+01  1.04488E+02  1.17306E+02  1.04193E+02
   1.16253E+02  1.14803E+02  1.12565E+02  1.26695E+02  1.31506E+02  1.47926E+02  1.45848E+02  1.47849E+02  1.47791E+02  1.27423E+02
   1.19048E+02  1.14647E+02  1.05684E+02  1.17471E+02  1.21758E+02  1.01452E+02  8.39749E+01  6.39893E+01  5.79932E+01  4.51271E+01
   3.23729E+01  2.92991E+01  2.76874E+01  1.56236E+01 -8.76901E-01  1.15722E+01 -7.69576E+00 -8.77698E+00  1.63787E+00 -1.73952E+01
  -1.23325E+01 -1.73257E+00 -5.31230E+00 -2.33090E+01 -1.43556E+01 -1.07644E+01  6.76695E+00  1.95905E+01  1.23768E+01  2.20207E+01
   1.24325E+01  4.02849E+01  3.05963E+01  1.55494E+01  2.78860E+01 -1.55230E+00 -2.28966E-01  5.37736E+00  5.96118E+00  5.96949E+00
   5.92961E+00  9.68893E+00  1.33796E+01  3.32727E+01  4.22827E+01  3.06868E+01  3.06439E+01  3.16265E+01  2.51254E+01  4.21201E+01
   5.08681E+01  6.04326E+01  6.05891E+01  6.25441E+01  7.19564E+01  5.92527E+01  6.94723E+01  7.91695E+01  7.59825E+01  9.21932E+01
   1.09100E+02  9.85058E+01  1.03965E+02  1.01535E+02  1.04784E+02  1.23764E+02  1.23740E+02  1.44517E+02  1.25331E+02  1.35476E+02
   1.44847E+02  1.07926E+02  1.09774E+02  9.67972E+01  7.90995E+01  7.57432E+01  8.80439E+01  7.31078E+01  6.38287E+01  6.20545E+01
   3.35531E+01  3.25469E+01  2.54384E+01  2.20348E+01  1.27473E+01  2.52895E+00  1.21163E+01  1.87098E+01  6.95342E+00  1.60616E-02
   4.51138E+00 -5.60943E+00  4.54530E+00 -2.00275E-01  1.63240E+00  1.76124E+01  1.22217E+01  2.02849E+01  8.21871E+00 -1.02389E+01
   7.72606E+00  2.37031E+01  1.14561E+01  9.23443E+00  1.61050E+01  7.46619E+00  8.75408E-02  1.15609E+01  1.26761E+01 -2.74908E+00
   4.68863E+00  6.46582E+00  9.00173E+00  1.35086E+01  9.53050E+00  1.60683E+01  1.12879E+01  1.90616E+01  1.97482E+01  3.87656E+00
   1.67067E+01  2.71917E+01  1.99548E+01  8.38131E+00  9.56223E+00  1.68204E+01  7.42428E+00  1.45893E+01  2.24902E+01  1.12574E+01
   2.80570E+00  4.00232E+00  1.15913E+01  6.57738E-01  4.54876E+00  1.41924E+01  1.70816E+01  2.55688E+01  6.71645E+00  1.24872E+01
   1.09140E+01 -6.76621E-01  1.64006E+01  6.45495E+00  1.15305E+01  1.65225E+01  1.37958E+01  2.09609E+01  9.48417E+00  1.42038E+01
   1.81500E+01  1.93805E+01  2.53955E+01  2.15902E+01  1.72181E+01  1.38689E+01  2.58424E+01  3.14518E+01  1.30463E+01  7.78173E+00
 NY points of the fit to the data follow
   1.86883E+01  1.76618E+01  1.17734E+01  7.94084E+00  1.34986E+01  3.04577E+01  4.59124E+01  4.97721E+01  4.55459E+01  3.63183E+01
   2.67739E+01  2.12308E+01  1.81906E+01  1.56157E+01  1.17529E+01  5.65423E+00 -1.68412E+00 -8.27555E+00 -1.60914E+01 -2.42916E+01
  -2.79760E+01 -1.86059E+01 -9.92512E-01  2.13513E+01  4.66187E+01  5.86989E+01  6.39741E+01  6.70712E+01  6.68333E+01  6.71705E+01
   6.72169E+01  6.60425E+01  6.44913E+01  6.19956E+01  5.79934E+01  5.28468E+01  4.67324E+01  3.95455E+01  2.92485E+01  1.45351E+01
  -7.19488E-02 -5.03747E+00  1.95744E+00  1.76176E+01  3.77684E+01  5.72339E+01  6.95745E+01  7.38330E+01  7.43753E+01  7.07761E+01
   6.58634E+01  5.97541E+01  5.15413E+01  4.09438E+01  2.95774E+01  2.30550E+01  2.14440E+01  1.59172E+01  5.06274E+00  5.17902E+00
   1.47709E+01  1.95018E+01  3.26384E+01  5.13041E+01  5.93853E+01  6.37761E+01  6.23500E+01  4.52272E+01  1.72227E+01 -2.97536E+00
  -3.22948E+00  3.18487E+00  1.18642E+01  3.08123E+01  4.83116E+01  6.01383E+01  6.92740E+01  7.27605E+01  7.26571E+01  6.99236E+01
   6.50809E+01  5.62567E+01  4.53729E+01  3.32685E+01  2.63945E+01  2.73938E+01  3.31104E+01  4.55311E+01  5.61555E+01  6.44001E+01
   7.07487E+01  7.50199E+01  7.88966E+01  8.28477E+01  8.62977E+01  8.93022E+01  9.20573E+01  9.18279E+01  8.74113E+01  8.23145E+01
   7.94071E+01  7.10922E+01  5.87427E+01  4.81562E+01  3.36983E+01  1.38961E+01  7.79351E+00  3.33105E+00 -2.10781E+01 -6.25457E+01
  -8.77919E+01 -8.06525E+01 -6.67855E+01 -4.13305E+01 -2.06975E+01 -1.08022E+01 -3.85392E+00  2.77547E+00  9.20452E+00  1.54107E+01
   2.15812E+01  2.80498E+01  3.50889E+01  4.31498E+01  5.25540E+01  6.32983E+01  7.65528E+01  8.95358E+01  9.68318E+01  1.07309E+02
   1.15021E+02  9.67221E+01  3.23832E+01 -2.71925E+01 -5.00507E+01 -6.23239E+01 -5.23142E+01 -3.90625E+01 -3.52304E+01 -3.48229E+01
  -3.48441E+01 -3.47512E+01 -3.44831E+01 -3.39112E+01 -3.30896E+01 -3.19457E+01 -2.97444E+01 -2.70101E+01 -2.38872E+01 -2.06657E+01
  -1.78130E+01 -1.52628E+01 -1.34351E+01 -1.16090E+01 -9.38896E+00 -7.07815E+00 -5.23825E+00 -4.13804E+00 -3.39729E+00 -2.33185E+00
  -7.09171E-01  6.58341E-01  5.92182E-01 -3.72229E-01 -8.40805E-01 -3.17162E-01  1.29894E+00  3.03052E+00  3.86494E+00  5.52339E+00
   1.12416E+01  2.15089E+01  3.00178E+01  2.98336E+01  2.47764E+01  2.40362E+01  2.89989E+01  3.20120E+01  2.76866E+01  1.65316E+01
   5.54281E+00 -1.87240E+00 -6.50165E+00 -7.70878E+00 -8.42033E+00 -9.00132E+00 -8.70628E+00 -7.77131E+00 -6.84386E+00 -5.59711E+00
  -3.78482E+00 -2.61577E+00 -1.14347E+00  3.59718E+00  1.09888E+01  1.33009E+01  1.29524E+01  1.75267E+01  1.97580E+01  2.05543E+01
   2.10998E+01  2.18221E+01  2.64749E+01  2.76598E+01  2.55318E+01  2.18607E+01  1.55670E+01  8.45969E+00  5.31264E-01 -6.40756E+00
  -1.04688E+01 -9.14273E+00 -1.94117E+00  1.23449E+01  3.18897E+01  5.81986E+01  7.57363E+01  8.10709E+01  8.34736E+01  7.06080E+01
   5.76691E+01  5.10889E+01  4.62665E+01  4.65874E+01  4.77674E+01  4.71818E+01  4.44857E+01  3.86019E+01  3.05394E+01  2.10365E+01
   1.02285E+01 -7.14810E-01 -1.09784E+01 -2.06829E+01 -2.98191E+01 -3.71903E+01 -4.23699E+01 -4.59215E+01 -4.63001E+01 -4.40605E+01
  -3.99320E+01 -3.36788E+01 -2.38484E+01 -1.39793E+01 -4.01829E+00  4.13708E+00  6.25953E+00  6.16722E+00  2.00958E+00 -1.45394E+00
  -4.93671E+00 -1.27169E+01 -1.75895E+01 -1.54255E+01 -2.13822E+01 -4.01316E+01 -3.52667E+01  4.11602E+01  1.24090E+02  1.61283E+02
   1.81166E+02  1.67452E+02  1.43257E+02  1.31036E+02  1.25602E+02  1.21561E+02  1.18052E+02  1.14693E+02  1.11706E+02  1.09325E+02
   1.07835E+02  1.07158E+02  1.06761E+02  1.06587E+02  1.06143E+02  1.05459E+02  1.04031E+02  1.02625E+02  1.01231E+02  9.96063E+01
   9.78210E+01  9.55859E+01  9.33402E+01  9.12303E+01  8.91298E+01  8.67383E+01  8.43526E+01  8.18282E+01  7.89549E+01  7.57771E+01
   7.21190E+01  6.81839E+01  6.43717E+01  6.05601E+01  5.75534E+01  5.59589E+01  5.57772E+01  5.72234E+01  5.97020E+01  6.25463E+01
   6.54203E+01  6.84950E+01  7.15796E+01  7.44875E+01  7.72591E+01  7.97210E+01  8.19250E+01  8.42129E+01  8.68297E+01  8.96597E+01
   9.22025E+01  9.43774E+01  9.61250E+01  9.77037E+01  9.91875E+01  1.00007E+02  1.00378E+02  1.00352E+02  9.91783E+01  9.71099E+01
   9.48483E+01  9.10373E+01  8.50885E+01  7.74573E+01  7.03985E+01  6.32050E+01  5.67854E+01  5.14594E+01  4.42777E+01  3.73023E+01
   3.08277E+01  2.55930E+01  2.28287E+01  2.33077E+01  2.72621E+01  3.39591E+01  4.19432E+01  5.18322E+01  5.76195E+01  5.26231E+01
   3.27724E+01  1.11808E+01 -7.88767E+00 -1.95891E+01 -1.02572E+01  2.85459E+00  1.47612E+01  2.43443E+01  2.84343E+01  2.96378E+01
   2.96855E+01  2.85904E+01  2.64382E+01  2.30454E+01  1.89348E+01  1.53560E+01  1.32271E+01  1.26207E+01  1.35851E+01  1.60704E+01
   1.92280E+01  2.30727E+01  2.72976E+01  3.14931E+01  3.57917E+01  3.97259E+01  4.33069E+01  4.67226E+01  4.98906E+01  5.33091E+01
   5.67750E+01  6.02014E+01  6.38253E+01  6.74432E+01  7.15343E+01  7.64272E+01  8.17786E+01  8.73447E+01  9.37654E+01  1.01020E+02
   1.08182E+02  1.15745E+02  1.23737E+02  1.31567E+02  1.38544E+02  1.43926E+02  1.46508E+02  1.45021E+02  1.39173E+02  1.29106E+02
   1.16876E+02  1.04875E+02  9.42446E+01  8.53861E+01  7.80875E+01  7.14979E+01  6.40348E+01  5.54516E+01  4.61475E+01  3.66573E+01
   2.75648E+01  2.03047E+01  1.48691E+01  1.08287E+01  8.07372E+00  6.23924E+00  5.14836E+00  4.26996E+00  3.57920E+00  2.79617E+00
   2.03531E+00  1.58151E+00  1.57267E+00  1.77002E+00  1.86947E+00  2.04921E+00  2.45315E+00  2.63040E+00  2.53797E+00  2.65126E+00
   3.24409E+00  3.67797E+00  3.79085E+00  4.02696E+00  4.30366E+00  4.55344E+00  4.68803E+00  4.82880E+00  5.19777E+00  5.74823E+00
   6.22391E+00  6.52023E+00  6.66970E+00  6.59251E+00  6.70476E+00  6.94076E+00  7.39973E+00  7.91808E+00  8.44145E+00  8.93502E+00
   9.15203E+00  9.46556E+00  9.71917E+00  9.87236E+00  9.81498E+00  9.86544E+00  1.00699E+01  1.03674E+01  1.08280E+01  1.12075E+01
   1.15538E+01  1.17156E+01  1.18243E+01  1.22365E+01  1.26536E+01  1.30897E+01  1.35860E+01  1.39341E+01  1.41917E+01  1.45071E+01
   1.48340E+01  1.50970E+01  1.52278E+01  1.52804E+01  1.55055E+01  1.57791E+01  1.61400E+01  1.68223E+01  1.75321E+01  1.81460E+01
   1.84585E+01  1.84334E+01  1.83580E+01  1.84526E+01  1.88263E+01  1.91372E+01  1.96079E+01  2.01867E+01  2.05433E+01  2.08225E+01
 NY background values follow
     4.978E+01    4.959E+01    4.940E+01    4.921E+01    4.902E+01    4.883E+01    4.863E+01    4.844E+01    4.825E+01    4.806E+01
     4.787E+01    4.768E+01    4.749E+01    4.730E+01    4.711E+01    4.692E+01    4.673E+01    4.655E+01    4.636E+01    4.617E+01
     4.599E+01    4.580E+01    4.562E+01    4.544E+01    4.526E+01    4.508E+01    4.490E+01    4.472E+01    4.454E+01    4.437E+01
     4.419E+01    4.402E+01    4.385E+01    4.368E+01    4.351E+01    4.334E+01    4.318E+01    4.301E+01    4.285E+01    4.269E+01
     4.253E+01    4.237E+01    4.221E+01    4.206E+01    4.191E+01    4.175E+01    4.160E+01    4.146E+01    4.131E+01    4.116E+01
     4.102E+01    4.088E+01    4.074E+01    4.060E+01    4.046E+01    4.033E+01    4.019E+01    4.006E+01    3.993E+01    3.981E+01
     3.968E+01    3.956E+01    3.944E+01    3.932E+01    3.920E+01    3.908E+01    3.897E+01    3.885E+01    3.874E+01    3.863E+01
     3.853E+01    3.842E+01    3.832E+01    3.822E+01    3.812E+01    3.802E+01    3.792E+01    3.783E+01    3.773E+01    3.764E+01
     3.755E+01    3.746E+01    3.737E+01    3.729E+01    3.721E+01    3.712E+01    3.704E+01    3.696E+01    3.689E+01    3.681E+01
     3.674E+01    3.667E+01    3.659E+01    3.652E+01    3.646E+01    3.639E+01    3.632E+01    3.626E+01    3.620E+01    3.614E+01
     3.608E+01    3.602E+01    3.596E+01    3.591E+01    3.585E+01    3.580E+01    3.575E+01    3.570E+01    3.565E+01    3.560E+01
     3.556E+01    3.551E+01    3.547E+01    3.543E+01    3.539E+01    3.535E+01    3.531E+01    3.527E+01    3.523E+01    3.520E+01
     3.516E+01    3.513E+01    3.510E+01    3.507E+01    3.504E+01    3.501E+01    3.498E+01    3.495E+01    3.492E+01    3.490E+01
     3.487E+01    3.485E+01    3.483E+01    3.481E+01    3.478E+01    3.476E+01    3.474E+01    3.472E+01    3.470E+01    3.469E+01
     3.467E+01    3.465E+01    3.463E+01    3.462E+01    3.460E+01    3.458E+01    3.457E+01    3.455E+01    3.454E+01    3.452E+01
     3.451E+01    3.449E+01    3.448E+01    3.447E+01    3.445E+01    3.444E+01    3.443E+01    3.441E+01    3.440E+01    3.439E+01
     3.437E+01    3.436E+01    3.434E+01    3.433E+01    3.432E+01    3.430E+01    3.429E+01    3.428E+01    3.426E+01    3.425E+01
     3.423E+01    3.422E+01    3.420E+01    3.419E+01    3.417E+01    3.416E+01    3.414E+01    3.413E+01    3.411E+01    3.409E+01
     3.407E+01    3.406E+01    3.404E+01    3.402E+01    3.400E+01    3.398E+01    3.396E+01    3.394E+01    3.392E+01    3.390E+01
     3.388E+01    3.385E+01    3.383E+01    3.381E+01    3.378E+01    3.376E+01    3.373E+01    3.371E+01    3.368E+01    3.365E+01
     3.363E+01    3.360E+01    3.357E+01    3.354E+01    3.351E+01    3.348E+01    3.345E+01    3.342E+01    3.339E+01    3.335E+01
     3.332E+01    3.329E+01    3.325E+01    3.322E+01    3.318E+01    3.314E+01    3.311E+01    3.307E+01    3.303E+01    3.299E+01
     3.295E+01    3.291E+01    3.286E+01    3.282E+01    3.278E+01    3.273E+01    3.269E+01    3.264E+01    3.259E+01    3.254E+01
     3.249E+01    3.244E+01    3.239E+01    3.234E+01    3.229E+01    3.223E+01    3.218E+01    3.212E+01    3.206E+01    3.200E+01
     3.194E+01    3.188E+01    3.182E+01    3.176E+01    3.170E+01    3.163E+01    3.157E+01    3.150E+01    3.143E+01    3.136E+01
     3.129E+01    3.122E+01    3.115E+01    3.108E+01    3.101E+01    3.094E+01    3.086E+01    3.079E+01    3.072E+01    3.064E+01
     3.056E+01    3.049E+01    3.041E+01    3.033E+01    3.026E+01    3.018E+01    3.010E+01    3.002E+01    2.994E+01    2.986E+01
     2.978E+01    2.970E+01    2.962E+01    2.954E+01    2.946E+01    2.938E+01    2.930E+01    2.922E+01    2.914E+01    2.906E+01
     2.898E+01    2.890E+01    2.881E+01    2.873E+01    2.865E+01    2.857E+01    2.849E+01    2.841E+01    2.832E+01    2.824E+01
     2.816E+01    2.808E+01    2.799E+01    2.791E+01    2.783E+01    2.775E+01    2.767E+01    2.758E+01    2.750E+01    2.742E+01
     2.734E+01    2.726E+01    2.717E+01    2.709E+01    2.701E+01    2.693E+01    2.685E+01    2.677E+01    2.668E+01    2.660E+01
     2.652E+01    2.644E+01    2.636E+01    2.628E+01    2.620E+01    2.612E+01    2.604E+01    2.596E+01    2.588E+01    2.580E+01
     2.572E+01    2.565E+01    2.557E+01    2.549E+01    2.541E+01    2.533E+01    2.526E+01    2.518E+01    2.510E+01    2.503E+01
     2.495E+01    2.487E+01    2.480E+01    2.472E+01    2.465E+01    2.458E+01    2.450E+01    2.443E+01    2.436E+01    2.429E+01
     2.422E+01    2.415E+01    2.408E+01    2.401E+01    2.394E+01    2.388E+01    2.381E+01    2.375E+01    2.368E+01    2.362E+01
     2.356E+01    2.350E+01    2.344E+01    2.339E+01    2.333E+01    2.328E+01    2.323E+01    2.318E+01    2.313E+01    2.308E+01
     2.303E+01    2.299E+01    2.295E+01    2.291E+01    2.287E+01    2.283E+01    2.279E+01    2.276E+01    2.272E+01    2.269E+01
     2.266E+01    2.263E+01    2.260E+01    2.258E+01    2.255E+01    2.253E+01    2.250E+01    2.248E+01    2.246E+01    2.244E+01
     2.242E+01    2.240E+01    2.239E+01    2.237E+01    2.236E+01    2.234E+01    2.233E+01    2.232E+01    2.230E+01    2.229E+01
     2.228E+01    2.227E+01    2.226E+01    2.226E+01    2.225E+01    2.224E+01    2.224E+01    2.223E+01    2.222E+01    2.222E+01
     2.221E+01    2.221E+01    2.221E+01    2.220E+01    2.220E+01    2.219E+01    2.219E+01    2.219E+01    2.219E+01    2.218E+01
     2.218E+01    2.218E+01    2.218E+01    2.217E+01    2.217E+01    2.217E+01    2.217E+01    2.216E+01    2.216E+01    2.216E+01
     2.216E+01    2.215E+01    2.215E+01    2.215E+01    2.214E+01    2.214E+01    2.213E+01    2.213E+01    2.212E+01    2.212E+01
     2.211E+01    2.211E+01    2.210E+01    2.210E+01    2.209E+01    2.208E+01    2.208E+01    2.207E+01    2.207E+01    2.206E+01
     2.205E+01    2.205E+01    2.204E+01    2.203E+01    2.202E+01    2.202E+01    2.201E+01    2.200E+01    2.199E+01    2.198E+01
     2.198E+01    2.197E+01    2.196E+01    2.195E+01    2.194E+01    2.193E+01    2.192E+01    2.192E+01    2.191E+01    2.190E+01
     2.189E+01    2.188E+01    2.187E+01    2.186E+01    2.185E+01    2.184E+01    2.183E+01    2.182E+01    2.181E+01    2.180E+01
     2.179E+01    2.178E+01    2.177E+01    2.176E+01    2.176E+01    2.175E+01    2.174E+01    2.173E+01    2.172E+01    2.171E+01
 Mac      Conc. = 3.03E-04
   2.78482E+01  2.70668E+01  2.64879E+01  2.59522E+01  2.53128E+01  2.42121E+01  2.26653E+01  2.06910E+01  1.86051E+01  1.68407E+01
   1.56103E+01  1.50181E+01  1.46763E+01  1.44328E+01  1.39187E+01  1.24085E+01  1.08168E+01  1.09422E+01  1.41568E+01  1.89324E+01
   2.32798E+01  2.75136E+01  3.10153E+01  3.28052E+01  3.40273E+01  3.50408E+01  3.60602E+01  3.74296E+01  3.91913E+01  4.11929E+01
   4.26395E+01  4.36610E+01  4.43311E+01  4.47069E+01  4.45415E+01  4.41198E+01  4.40866E+01  4.50536E+01  4.72780E+01  4.94916E+01
   5.05757E+01  5.04824E+01  5.01496E+01  5.03486E+01  5.12013E+01  5.24131E+01  5.28340E+01  5.24723E+01  5.15075E+01  4.99003E+01
   4.81387E+01  4.65517E+01  4.55018E+01  4.46027E+01  4.40774E+01  4.38471E+01  4.39035E+01  4.48454E+01  4.62457E+01  4.74018E+01
   4.85494E+01  4.97774E+01  5.04059E+01  5.02097E+01  4.95281E+01  4.82186E+01  4.70475E+01  4.65452E+01  4.61765E+01  4.60268E+01
   4.66356E+01  4.85414E+01  5.09582E+01  5.30826E+01  5.44700E+01  5.50590E+01  5.46361E+01  5.37684E+01  5.27246E+01  5.15824E+01
   5.09190E+01  5.03208E+01  4.99837E+01  5.01561E+01  5.08223E+01  5.15893E+01  5.24699E+01  5.32520E+01  5.38378E+01  5.42662E+01
   5.45087E+01  5.47736E+01  5.46389E+01  5.43335E+01  5.36458E+01  5.21518E+01  4.99134E+01  4.72502E+01  4.41766E+01  4.14191E+01
   3.92210E+01  3.69384E+01  3.40871E+01  3.05901E+01  2.63980E+01  2.09692E+01  1.45593E+01  7.93480E+00  2.84600E+00  6.43593E-01
