 LCModel (Version 6.3-1N) Copyright: S.W. Provencher.          Ref.: Magn. Reson. Med. 30:672-679 (1993).                
 Slice_N1@16_19  28-Feb-2025 11:37:41
 27 lines in following concentration table = NCONC+1
    Conc.  %SD /Cr+PCr  Metabolite                                         
 2.93E-04   5% 2.7E-04 Mac                                                 
    4.188  22%   3.791 Cr                                                  
    4.649  19%   4.209 PCr                                                 
    8.155  13%   7.382 Ins                                                 
   11.847   8%  10.724 NAA                                                 
    7.634  13%   6.910 Tau                                                 
    0.941  78%   0.852 PCho                                                
    0.893  81%   0.808 GPC                                                 
    9.647  12%   8.732 Glu                                                 
    4.213  22%   3.814 Gln                                                 
    3.376  22%   3.056 Ala                                                 
    3.321  39%   3.007 Asc                                                 
    1.938  55%   1.754 Asp                                                 
    0.413 138%   0.374 GABA                                                
    0.906  82%   0.820 Glc                                                 
    1.739  30%   1.575 GSH                                                 
    0.000 999%   0.000 Lac                                                 
    2.005  28%   1.815 NAAG                                                
    0.665 178%   0.602 PE                                                  
    1.834  17%   1.660 GPC+PCho                                            
   13.852   7%  12.539 NAA+NAAG                                            
   13.860  11%  12.546 Glu+Gln                                             
    8.838   9%   8.000 Cr+PCr                                              
   13.852   7%  12.539 NAA+NAAG                                            
    8.838   9%   8.000 Cr+PCr                                              
   13.860  11%  12.546 Glu+Gln                                             
   6 lines in following misc. output table
  FWHM = 0.016 ppm    S/N =   5                                            
  Data shift = 0.024 ppm                                                   
  Ph: -86 deg       0.0 deg/ppm                                            
  alphaB,S = 1.4E-01,   4.0E-01                                            
   19 spline knots.   Ns = 5(1)                                            
   2 inflections.     2 extrema                                            
  480 points on ppm-axis = NY
      4.100000     4.091866     4.083733     4.075600     4.067466     4.059333     4.051199     4.043066     4.034933     4.026799
      4.018666     4.010532     4.002399     3.994265     3.986132     3.977998     3.969864     3.961731     3.953597     3.945463
      3.937330     3.929196     3.921062     3.912929     3.904795     3.896662     3.888528     3.880394     3.872261     3.864127
      3.855993     3.847860     3.839726     3.831592     3.823459     3.815325     3.807191     3.799058     3.790924     3.782790
      3.774657     3.766523     3.758389     3.750256     3.742122     3.733989     3.725855     3.717721     3.709588     3.701454
      3.693320     3.685187     3.677053     3.668919     3.660786     3.652652     3.644518     3.636385     3.628251     3.620117
      3.611984     3.603850     3.595716     3.587583     3.579449     3.571316     3.563182     3.555048     3.546915     3.538781
      3.530647     3.522514     3.514380     3.506246     3.498113     3.489979     3.481845     3.473712     3.465578     3.457444
      3.449311     3.441177     3.433043     3.424910     3.416776     3.408643     3.400509     3.392375     3.384242     3.376108
      3.367974     3.359841     3.351707     3.343573     3.335440     3.327306     3.319172     3.311039     3.302905     3.294771
      3.286638     3.278504     3.270370     3.262237     3.254103     3.245970     3.237836     3.229702     3.221569     3.213435
      3.205301     3.197168     3.189034     3.180900     3.172767     3.164633     3.156499     3.148366     3.140232     3.132098
      3.123965     3.115831     3.107697     3.099564     3.091430     3.083297     3.075163     3.067029     3.058896     3.050762
      3.042628     3.034495     3.026361     3.018227     3.010094     3.001960     2.993826     2.985693     2.977559     2.969425
      2.961292     2.953158     2.945024     2.936891     2.928757     2.920624     2.912490     2.904356     2.896223     2.888089
      2.879955     2.871822     2.863688     2.855554     2.847421     2.839287     2.831153     2.823020     2.814886     2.806752
      2.798619     2.790485     2.782351     2.774218     2.766084     2.757951     2.749817     2.741683     2.733550     2.725416
      2.717282     2.709149     2.701015     2.692881     2.684748     2.676614     2.668480     2.660347     2.652213     2.644079
      2.635946     2.627812     2.619678     2.611545     2.603411     2.595278     2.587144     2.579010     2.570877     2.562743
      2.554609     2.546476     2.538342     2.530208     2.522075     2.513941     2.505807     2.497674     2.489540     2.481406
      2.473273     2.465139     2.457006     2.448872     2.440738     2.432605     2.424471     2.416337     2.408204     2.400070
      2.391936     2.383803     2.375669     2.367535     2.359402     2.351268     2.343134     2.335001     2.326867     2.318733
      2.310600     2.302466     2.294333     2.286199     2.278065     2.269932     2.261798     2.253664     2.245531     2.237397
      2.229263     2.221130     2.212996     2.204862     2.196729     2.188595     2.180461     2.172328     2.164194     2.156060
      2.147927     2.139793     2.131660     2.123526     2.115392     2.107259     2.099125     2.090991     2.082858     2.074724
      2.066590     2.058457     2.050323     2.042189     2.034056     2.025922     2.017788     2.009655     2.001521     1.993387
      1.985254     1.977120     1.968987     1.960853     1.952719     1.944586     1.936452     1.928318     1.920185     1.912051
      1.903917     1.895784     1.887650     1.879516     1.871383     1.863249     1.855115     1.846982     1.838848     1.830714
      1.822581     1.814447     1.806314     1.798180     1.790046     1.781913     1.773779     1.765645     1.757512     1.749378
      1.741244     1.733111     1.724977     1.716843     1.708710     1.700576     1.692442     1.684309     1.676175     1.668041
      1.659908     1.651774     1.643641     1.635507     1.627373     1.619240     1.611106     1.602972     1.594839     1.586705
      1.578571     1.570438     1.562304     1.554170     1.546037     1.537903     1.529769     1.521636     1.513502     1.505368
      1.497235     1.489101     1.480968     1.472834     1.464700     1.456567     1.448433     1.440299     1.432166     1.424032
      1.415898     1.407765     1.399631     1.391497     1.383364     1.375230     1.367096     1.358963     1.350829     1.342695
      1.334562     1.326428     1.318295     1.310161     1.302027     1.293894     1.285760     1.277626     1.269493     1.261359
      1.253225     1.245092     1.236958     1.228824     1.220691     1.212557     1.204423     1.196290     1.188156     1.180022
      1.171889     1.163755     1.155622     1.147488     1.139354     1.131221     1.123087     1.114953     1.106820     1.098686
      1.090552     1.082419     1.074285     1.066151     1.058018     1.049884     1.041750     1.033617     1.025483     1.017349
      1.009216     1.001082     0.992949     0.984815     0.976681     0.968548     0.960414     0.952280     0.944147     0.936013
      0.927879     0.919746     0.911612     0.903478     0.895345     0.887211     0.879077     0.870944     0.862810     0.854676
      0.846543     0.838409     0.830276     0.822142     0.814008     0.805875     0.797741     0.789607     0.781474     0.773340
      0.765206     0.757073     0.748939     0.740805     0.732672     0.724538     0.716404     0.708271     0.700137     0.692003
      0.683870     0.675736     0.667603     0.659469     0.651335     0.643202     0.635068     0.626934     0.618801     0.610667
      0.602533     0.594400     0.586266     0.578132     0.569999     0.561865     0.553731     0.545598     0.537464     0.529330
      0.521197     0.513063     0.504930     0.496796     0.488662     0.480529     0.472395     0.464261     0.456128     0.447994
      0.439861     0.431727     0.423593     0.415460     0.407326     0.399192     0.391059     0.382925     0.374792     0.366658
      0.358524     0.350391     0.342257     0.334124     0.325990     0.317856     0.309723     0.301589     0.293455     0.285322
      0.277188     0.269055     0.260921     0.252787     0.244654     0.236520     0.228386     0.220253     0.212119     0.203986
 NY phased data points follow
  -1.13564E+02 -1.15598E+02 -1.27778E+02 -1.32667E+02 -1.31257E+02 -1.32389E+02 -1.30945E+02 -1.01747E+02 -1.17516E+02 -1.24402E+02
  -1.30309E+02 -1.35582E+02 -1.31728E+02 -1.53229E+02 -1.51172E+02 -1.58435E+02 -1.52415E+02 -1.46627E+02 -1.71967E+02 -1.73856E+02
  -2.10649E+02 -2.31704E+02 -1.56236E+02 -1.59045E+02 -1.49244E+02 -7.43010E+01 -8.50408E+01 -8.54739E+01 -9.32203E+01 -9.99747E+01
  -8.88215E+01 -8.40193E+01 -8.39711E+01 -9.32955E+01 -8.51058E+01 -9.51992E+01 -8.83753E+01 -8.72468E+01 -1.06501E+02 -1.21883E+02
  -1.36225E+02 -1.62841E+02 -1.69395E+02 -1.51623E+02 -1.55549E+02 -1.29057E+02 -9.45136E+01 -6.65959E+01 -5.99855E+01 -4.94977E+01
  -2.99777E+01 -4.19202E+01 -5.23933E+01 -4.97291E+01 -5.57179E+01 -7.62115E+01 -7.22149E+01 -8.09468E+01 -8.71427E+01 -1.34621E+02
  -1.32278E+02 -6.61920E+01 -1.08420E+02 -8.98829E+01 -5.03929E+01 -3.38786E+01 -1.83436E+01 -5.30561E+01 -5.09435E+01 -1.06203E+02
  -1.60302E+02 -1.16640E+02 -1.07129E+02 -1.21044E+02 -8.49329E+01 -5.71040E+01 -4.79305E+01 -3.48170E+01 -2.75830E+01 -2.38940E+01
  -2.54274E+01 -2.78680E+01 -4.56880E+01 -5.73540E+01 -8.21512E+01 -1.20194E+02 -1.08699E+02 -9.30092E+01 -8.03544E+01 -3.95469E+01
  -3.12039E+01 -2.92569E+01 -1.79152E+01 -3.09453E+01 -1.42678E+01  3.81544E+00  1.15441E+00  1.04939E+01  1.11388E+01  8.82523E+00
   1.09603E+01  3.97618E+00 -8.21817E+00 -2.57623E+01 -2.99826E+01 -4.67948E+01 -8.74213E+01 -8.74693E+01 -8.02955E+01 -8.88581E+01
  -1.65144E+02 -2.47778E+02 -2.08831E+02 -1.62853E+02 -1.51009E+02 -1.39152E+02 -1.19478E+02 -1.12151E+02 -1.07882E+02 -9.71338E+01
  -9.62984E+01 -6.86166E+01 -7.19236E+01 -8.26738E+01 -6.55399E+01 -5.85915E+01 -5.36042E+01 -4.48353E+01 -8.91547E+00  2.78464E+01
   7.01077E+01  1.34828E+02  7.82930E+01 -9.15377E+01 -1.68936E+02 -1.59496E+02 -1.45183E+02 -1.47122E+02 -1.36917E+02 -1.12927E+02
  -1.29891E+02 -1.34845E+02 -1.26654E+02 -1.23985E+02 -1.23752E+02 -1.29144E+02 -1.27762E+02 -1.44746E+02 -1.29982E+02 -1.09545E+02
  -1.33959E+02 -1.25545E+02 -1.10262E+02 -1.14673E+02 -1.13543E+02 -1.08339E+02 -9.81730E+01 -1.12084E+02 -1.13798E+02 -1.00884E+02
  -9.75672E+01 -8.96472E+01 -8.64078E+01 -9.49511E+01 -9.50173E+01 -8.81812E+01 -1.03347E+02 -9.03802E+01 -9.50515E+01 -1.00659E+02
  -8.13003E+01 -9.38619E+01 -5.93642E+01 -3.73843E+01 -5.86491E+01 -6.65117E+01 -5.97268E+01 -4.55044E+01 -3.08805E+01 -3.78489E+01
  -8.15842E+01 -8.87653E+01 -1.02024E+02 -1.15408E+02 -1.03198E+02 -1.08528E+02 -1.09633E+02 -1.20373E+02 -1.15181E+02 -9.79939E+01
  -1.06215E+02 -1.04156E+02 -8.26626E+01 -8.86831E+01 -7.53933E+01 -6.20936E+01 -8.85562E+01 -7.52149E+01 -6.24565E+01 -6.42745E+01
  -8.07557E+01 -8.96087E+01 -5.98159E+01 -4.78763E+01 -4.56291E+01 -6.16128E+01 -6.94453E+01 -6.95170E+01 -8.65109E+01 -9.65212E+01
  -1.00979E+02 -9.62174E+01 -1.12265E+02 -1.07319E+02 -8.14452E+01 -7.37857E+01 -2.34661E+01  4.30928E+00 -1.24460E+01 -8.92486E+00
  -3.65146E+01 -6.72048E+01 -5.84365E+01 -6.06497E+01 -8.26192E+01 -8.25037E+01 -6.88430E+01 -6.92266E+01 -5.83833E+01 -6.61619E+01
  -7.30126E+01 -6.92726E+01 -7.84729E+01 -7.62645E+01 -9.50419E+01 -1.03772E+02 -1.11717E+02 -1.32014E+02 -1.43934E+02 -1.41355E+02
  -1.24308E+02 -1.23159E+02 -1.12993E+02 -1.14992E+02 -1.03881E+02 -8.42220E+01 -6.87029E+01 -7.72197E+01 -9.82847E+01 -8.78027E+01
  -1.09191E+02 -1.00309E+02 -1.06403E+02 -1.08124E+02 -1.14538E+02 -1.62094E+02 -2.24145E+02 -2.72871E+02 -2.55822E+01  1.71028E+02
   1.07909E+02  9.29240E+01  7.32186E+01  6.66670E+01  5.58540E+01  4.95710E+01  4.46842E+01  1.32476E+01  1.34633E+01  1.36725E+01
   2.32493E+01  2.69424E+01  2.35152E+01  3.04052E+01  3.16749E+01  2.86495E+01  2.93683E+01  3.06324E+01  2.95665E+01  2.52763E+01
   2.80557E+01  3.01013E+01  2.12481E+01  2.92451E+01  3.60963E+01  1.46850E+01  1.04861E+00  1.13023E+01  3.86383E+00  8.40017E+00
   1.37723E+01  7.41978E+00  1.36902E+01 -1.31053E+00  1.12514E+00  1.68447E+00 -1.19785E+01 -1.14686E+01 -2.36916E+01 -3.31687E+01
  -3.33497E+01 -3.17712E+01 -1.84215E+01 -1.07348E+01 -1.45816E+01 -1.75488E+01 -2.06672E+01 -2.52507E+01 -3.06696E+01 -1.45408E+01
  -2.23179E+01 -2.79161E+01 -1.79503E+01 -3.78552E+01 -4.07286E+01 -5.84439E+01 -5.23770E+01 -4.51890E+01 -6.27226E+01 -4.85977E+01
  -5.91423E+01 -6.06189E+01 -6.39435E+01 -8.86641E+01 -8.24150E+01 -8.92064E+01 -1.04510E+02 -9.70799E+01 -1.02949E+02 -1.02965E+02
  -1.00146E+02 -1.02653E+02 -1.05213E+02 -1.13458E+02 -1.11916E+02 -1.17241E+02 -1.02735E+02 -9.43257E+01 -8.90499E+01 -6.94005E+01
  -4.90077E+01 -3.25713E+01 -4.34684E+01 -3.43744E+01 -2.25796E+01 -8.88036E+00 -1.45728E+00  9.00734E+00  1.75503E+01  5.71709E+00
   1.62760E+01 -4.38491E+00 -1.35790E+01 -1.18404E+01 -1.95256E+01 -1.21721E+01 -2.87637E+01 -3.97849E+01 -3.96430E+01 -4.05641E+01
  -4.66421E+01 -4.91937E+01 -4.90584E+01 -4.98571E+01 -4.18925E+01 -2.87235E+01 -2.18059E+01 -2.48479E+01 -1.48216E+01 -1.32795E+01
  -1.94350E+01 -5.99116E+00  6.70245E-01  2.67864E-01  7.61960E+00  7.27941E+00  1.44808E+01  2.43412E+01  2.55321E+01  2.94724E+01
   2.39064E+01  3.51390E+01  5.19477E+01  4.27031E+01  5.65626E+01  7.61541E+01  7.83873E+01  1.04593E+02  1.17471E+02  1.20506E+02
   1.21423E+02  1.13083E+02  1.11837E+02  9.05515E+01  8.14436E+01  6.20259E+01  4.64519E+01  5.07845E+01  3.42261E+01  3.61139E+01
   2.24002E+01  2.25070E+00 -5.34422E+00 -2.19284E+01 -2.26747E+01 -2.95833E+01 -4.00580E+01 -4.05685E+01 -4.11303E+01 -3.65943E+01
  -3.21150E+01 -3.95986E+01 -5.37195E+01 -4.79605E+01 -3.97436E+01 -4.91366E+01 -4.69466E+01 -4.37739E+01 -4.52912E+01 -4.46516E+01
  -5.00773E+01 -4.44367E+01 -3.72616E+01 -4.11187E+01 -3.60912E+01 -4.26241E+01 -5.29752E+01 -4.28277E+01 -4.88462E+01 -5.03646E+01
  -4.67911E+01 -3.74134E+01 -2.87353E+01 -4.72031E+01 -4.61688E+01 -4.28890E+01 -3.69474E+01 -3.47755E+01 -3.82325E+01 -3.57663E+01
  -5.02375E+01 -4.10475E+01 -3.59953E+01 -5.25505E+01 -4.90339E+01 -3.63538E+01 -3.15829E+01 -3.81603E+01 -3.97009E+01 -3.52631E+01
  -4.25051E+01 -3.04511E+01 -2.47158E+01 -3.90028E+01 -3.88086E+01 -4.33085E+01 -3.90190E+01 -4.16763E+01 -3.50816E+01 -2.64318E+01
  -3.39028E+01 -3.89061E+01 -4.43886E+01 -3.89315E+01 -4.44637E+01 -3.16150E+01 -2.86619E+01 -3.05834E+01 -3.63635E+01 -4.65227E+01
  -2.24834E+01 -3.19101E+01 -4.03184E+01 -4.11144E+01 -4.06754E+01 -3.23906E+01 -3.24515E+01 -2.84417E+01 -2.63519E+01 -2.94725E+01
 NY points of the fit to the data follow
  -1.29752E+02 -1.36763E+02 -1.50323E+02 -1.64148E+02 -1.73349E+02 -1.61845E+02 -1.25207E+02 -1.03670E+02 -1.13838E+02 -1.27346E+02
  -1.34518E+02 -1.38477E+02 -1.41480E+02 -1.38886E+02 -1.36907E+02 -1.38834E+02 -1.36902E+02 -1.44218E+02 -1.58159E+02 -1.69310E+02
  -1.99632E+02 -2.12276E+02 -1.51542E+02 -1.47124E+02 -1.43327E+02 -7.93239E+01 -7.23362E+01 -8.14373E+01 -7.22112E+01 -6.91309E+01
  -6.79542E+01 -6.93111E+01 -7.02627E+01 -7.07582E+01 -7.39898E+01 -7.90551E+01 -8.24091E+01 -8.36747E+01 -9.43312E+01 -1.17937E+02
  -1.45115E+02 -1.80340E+02 -1.73741E+02 -1.45695E+02 -1.34711E+02 -1.15200E+02 -8.97998E+01 -7.04490E+01 -6.29885E+01 -5.48534E+01
  -5.08423E+01 -5.07512E+01 -5.04789E+01 -5.75051E+01 -6.75045E+01 -7.67194E+01 -9.21180E+01 -9.55395E+01 -9.23899E+01 -1.22940E+02
  -1.26622E+02 -8.90390E+01 -9.78338E+01 -9.78617E+01 -5.69639E+01 -3.84910E+01 -3.40158E+01 -3.61079E+01 -5.51011E+01 -9.82059E+01
  -1.32784E+02 -1.08492E+02 -9.28314E+01 -1.05977E+02 -8.40329E+01 -5.40874E+01 -4.55855E+01 -3.94501E+01 -3.35092E+01 -2.65934E+01
  -1.95352E+01 -2.31305E+01 -4.08653E+01 -6.12687E+01 -9.24053E+01 -1.13054E+02 -1.05344E+02 -9.94052E+01 -7.51288E+01 -5.67957E+01
  -5.08616E+01 -4.15165E+01 -3.56771E+01 -2.99041E+01 -2.45908E+01 -1.83029E+01 -1.33858E+01 -1.05060E+01 -6.41952E+00 -7.53568E+00
  -1.37802E+01  2.50554E+00  5.15554E+00 -2.03894E+01 -3.67273E+01 -5.49171E+01 -8.63326E+01 -8.19178E+01 -6.98340E+01 -8.72417E+01
  -1.64907E+02 -2.47522E+02 -2.08814E+02 -1.62519E+02 -1.52665E+02 -1.35006E+02 -1.22072E+02 -1.11898E+02 -1.02680E+02 -9.49021E+01
  -8.82644E+01 -8.12981E+01 -7.44069E+01 -6.66598E+01 -5.78468E+01 -4.60420E+01 -3.39251E+01 -2.79383E+01 -7.67100E+00  3.20250E+01
   7.11960E+01  1.13336E+02  8.46104E+01 -9.85711E+01 -1.89175E+02 -1.54776E+02 -1.49732E+02 -1.48903E+02 -1.40238E+02 -1.35694E+02
  -1.33053E+02 -1.31573E+02 -1.31843E+02 -1.33684E+02 -1.33761E+02 -1.33709E+02 -1.33270E+02 -1.29784E+02 -1.25889E+02 -1.21925E+02
  -1.19537E+02 -1.17231E+02 -1.15051E+02 -1.13516E+02 -1.10293E+02 -1.06261E+02 -1.02679E+02 -1.01371E+02 -1.02054E+02 -1.01522E+02
  -9.89450E+01 -9.51767E+01 -9.22461E+01 -9.38751E+01 -9.76691E+01 -9.65959E+01 -9.25449E+01 -9.12742E+01 -9.72572E+01 -1.02594E+02
  -9.67944E+01 -7.94978E+01 -5.59057E+01 -4.60099E+01 -6.48358E+01 -8.17191E+01 -6.73760E+01 -4.38956E+01 -3.56023E+01 -5.16559E+01
  -8.06505E+01 -8.82360E+01 -9.14059E+01 -9.94499E+01 -1.01484E+02 -1.02534E+02 -1.02498E+02 -1.02200E+02 -1.02444E+02 -9.95567E+01
  -9.98524E+01 -9.96711E+01 -9.32013E+01 -9.70771E+01 -8.72470E+01 -6.22515E+01 -7.16950E+01 -7.99274E+01 -6.25270E+01 -5.87427E+01
  -5.96503E+01 -6.76460E+01 -6.62654E+01 -4.81541E+01 -4.76109E+01 -5.70997E+01 -6.29669E+01 -6.63581E+01 -7.41521E+01 -8.78751E+01
  -9.55768E+01 -1.01882E+02 -1.14083E+02 -1.13033E+02 -9.25885E+01 -8.10568E+01 -4.04979E+01 -1.26481E+01 -2.33355E+01 -5.74865E+00
  -2.13329E+01 -4.29428E+01 -4.00840E+01 -4.21403E+01 -3.90047E+01 -3.81338E+01 -4.05196E+01 -4.42507E+01 -5.20649E+01 -6.18530E+01
  -7.26316E+01 -8.45137E+01 -9.73017E+01 -1.09000E+02 -1.17089E+02 -1.29882E+02 -1.36780E+02 -1.35962E+02 -1.42915E+02 -1.39718E+02
  -1.30000E+02 -1.32567E+02 -1.24506E+02 -1.07097E+02 -1.04513E+02 -8.81316E+01 -8.51418E+01 -8.60947E+01 -8.22475E+01 -9.40769E+01
  -1.02074E+02 -1.08643E+02 -1.11156E+02 -1.09262E+02 -1.26552E+02 -1.49525E+02 -2.36718E+02 -2.81632E+02 -3.46323E+01  1.31109E+02
   8.91435E+01  7.63111E+01  7.28386E+01  5.91249E+01  5.14866E+01  4.56475E+01  3.94490E+01  3.32152E+01  2.84259E+01  2.39163E+01
   2.00063E+01  1.90939E+01  1.76227E+01  1.72040E+01  1.77574E+01  1.65006E+01  1.57717E+01  1.48345E+01  1.39715E+01  1.32199E+01
   1.11996E+01  8.94888E+00  6.38386E+00  4.56288E+00  2.78724E+00 -1.42851E-01 -2.60424E+00 -4.37300E+00 -7.29595E+00 -1.00295E+01
  -1.37631E+01 -1.86201E+01 -2.25157E+01 -2.77015E+01 -3.26399E+01 -3.56651E+01 -3.65341E+01 -3.55751E+01 -3.31910E+01 -3.08968E+01
  -2.88390E+01 -2.60109E+01 -2.25223E+01 -1.97239E+01 -1.73609E+01 -1.50685E+01 -1.29750E+01 -1.08728E+01 -7.82864E+00 -4.05906E+00
  -1.44180E+00  7.87057E-01  2.80796E+00  4.94829E+00  7.65439E+00  9.60434E+00  1.06415E+01  1.17399E+01  1.60145E+01  2.02511E+01
   2.18608E+01  2.24402E+01  3.63177E+00 -3.76481E+01 -4.69721E+01 -6.36292E+01 -7.41028E+01 -5.96770E+01 -6.14824E+01 -6.91061E+01
  -7.41322E+01 -8.07478E+01 -8.63205E+01 -8.87661E+01 -8.82309E+01 -8.38180E+01 -7.74983E+01 -7.12410E+01 -6.67636E+01 -6.37929E+01
  -6.17070E+01 -5.98882E+01 -5.50888E+01 -4.92442E+01 -4.40906E+01 -3.80776E+01 -3.48579E+01 -3.32401E+01 -3.15186E+01 -2.99867E+01
  -2.89910E+01 -3.03799E+01 -3.25692E+01 -3.63892E+01 -4.24661E+01 -4.74989E+01 -5.00119E+01 -5.14462E+01 -5.12140E+01 -4.93143E+01
  -4.66399E+01 -4.28976E+01 -3.85780E+01 -3.40144E+01 -2.89273E+01 -2.53626E+01 -2.14833E+01 -1.77046E+01 -1.44340E+01 -1.02824E+01
  -6.52359E+00 -3.29943E+00  1.60701E-02  3.82323E+00  7.95441E+00  1.21815E+01  1.77106E+01  2.25343E+01  2.85802E+01  3.60901E+01
   4.33242E+01  5.01009E+01  5.88008E+01  6.91971E+01  7.93326E+01  8.87505E+01  9.59711E+01  9.83258E+01  9.49465E+01  8.46355E+01
   7.18715E+01  5.95874E+01  5.01333E+01  4.24215E+01  3.57851E+01  3.13454E+01  2.52402E+01  1.62068E+01  5.94244E+00 -3.51015E+00
  -1.36106E+01 -2.20994E+01 -2.75279E+01 -3.16251E+01 -3.57495E+01 -3.78266E+01 -3.89185E+01 -3.96012E+01 -4.07633E+01 -4.19087E+01
  -4.26653E+01 -4.32059E+01 -4.29641E+01 -4.26860E+01 -4.27442E+01 -4.29076E+01 -4.21176E+01 -4.15868E+01 -4.20850E+01 -4.26172E+01
  -4.14821E+01 -4.02493E+01 -4.10214E+01 -4.09847E+01 -4.02962E+01 -3.99832E+01 -4.02525E+01 -4.03989E+01 -3.98957E+01 -3.89629E+01
  -3.81288E+01 -3.81833E+01 -3.84559E+01 -3.86119E+01 -3.86079E+01 -3.87434E+01 -3.77468E+01 -3.74172E+01 -3.73019E+01 -3.67041E+01
  -3.66654E+01 -3.63890E+01 -3.58964E+01 -3.57059E+01 -3.61701E+01 -3.62173E+01 -3.65556E+01 -3.60213E+01 -3.51699E+01 -3.54394E+01
  -3.49922E+01 -3.48072E+01 -3.55540E+01 -3.51112E+01 -3.43627E+01 -3.40839E+01 -3.39877E+01 -3.35316E+01 -3.35936E+01 -3.31558E+01
  -3.28417E+01 -3.23805E+01 -3.28909E+01 -3.30875E+01 -3.30066E+01 -3.32297E+01 -3.30161E+01 -3.23163E+01 -3.11136E+01 -3.01813E+01
  -3.04152E+01 -3.09035E+01 -3.14768E+01 -3.14279E+01 -3.09362E+01 -3.04218E+01 -3.03865E+01 -3.00298E+01 -2.96139E+01 -3.03211E+01
 NY background values follow
    -1.069E+02   -1.066E+02   -1.063E+02   -1.059E+02   -1.056E+02   -1.053E+02   -1.050E+02   -1.046E+02   -1.043E+02   -1.040E+02
    -1.036E+02   -1.033E+02   -1.030E+02   -1.026E+02   -1.023E+02   -1.020E+02   -1.016E+02   -1.013E+02   -1.009E+02   -1.006E+02
    -1.002E+02   -9.987E+01   -9.951E+01   -9.915E+01   -9.878E+01   -9.841E+01   -9.804E+01   -9.767E+01   -9.729E+01   -9.690E+01
    -9.651E+01   -9.612E+01   -9.573E+01   -9.533E+01   -9.492E+01   -9.451E+01   -9.410E+01   -9.369E+01   -9.327E+01   -9.285E+01
    -9.243E+01   -9.201E+01   -9.158E+01   -9.115E+01   -9.072E+01   -9.028E+01   -8.985E+01   -8.941E+01   -8.898E+01   -8.854E+01
    -8.810E+01   -8.766E+01   -8.721E+01   -8.677E+01   -8.633E+01   -8.589E+01   -8.544E+01   -8.500E+01   -8.456E+01   -8.412E+01
    -8.368E+01   -8.324E+01   -8.280E+01   -8.236E+01   -8.193E+01   -8.149E+01   -8.106E+01   -8.063E+01   -8.020E+01   -7.977E+01
    -7.934E+01   -7.892E+01   -7.850E+01   -7.808E+01   -7.766E+01   -7.725E+01   -7.684E+01   -7.643E+01   -7.603E+01   -7.563E+01
    -7.523E+01   -7.484E+01   -7.445E+01   -7.407E+01   -7.368E+01   -7.331E+01   -7.293E+01   -7.257E+01   -7.220E+01   -7.184E+01
    -7.149E+01   -7.114E+01   -7.080E+01   -7.046E+01   -7.012E+01   -6.980E+01   -6.947E+01   -6.915E+01   -6.884E+01   -6.853E+01
    -6.822E+01   -6.792E+01   -6.763E+01   -6.734E+01   -6.705E+01   -6.677E+01   -6.649E+01   -6.622E+01   -6.595E+01   -6.569E+01
    -6.543E+01   -6.518E+01   -6.493E+01   -6.468E+01   -6.444E+01   -6.421E+01   -6.397E+01   -6.375E+01   -6.352E+01   -6.330E+01
    -6.309E+01   -6.288E+01   -6.267E+01   -6.247E+01   -6.227E+01   -6.207E+01   -6.188E+01   -6.170E+01   -6.152E+01   -6.134E+01
    -6.116E+01   -6.099E+01   -6.083E+01   -6.066E+01   -6.050E+01   -6.035E+01   -6.020E+01   -6.005E+01   -5.991E+01   -5.976E+01
    -5.963E+01   -5.950E+01   -5.937E+01   -5.924E+01   -5.912E+01   -5.900E+01   -5.888E+01   -5.877E+01   -5.866E+01   -5.856E+01
    -5.846E+01   -5.836E+01   -5.826E+01   -5.817E+01   -5.808E+01   -5.800E+01   -5.791E+01   -5.783E+01   -5.776E+01   -5.768E+01
    -5.761E+01   -5.754E+01   -5.747E+01   -5.741E+01   -5.735E+01   -5.729E+01   -5.723E+01   -5.718E+01   -5.713E+01   -5.707E+01
    -5.703E+01   -5.698E+01   -5.693E+01   -5.689E+01   -5.685E+01   -5.681E+01   -5.677E+01   -5.673E+01   -5.670E+01   -5.667E+01
    -5.663E+01   -5.660E+01   -5.657E+01   -5.654E+01   -5.651E+01   -5.649E+01   -5.646E+01   -5.643E+01   -5.641E+01   -5.639E+01
    -5.636E+01   -5.634E+01   -5.632E+01   -5.630E+01   -5.628E+01   -5.626E+01   -5.624E+01   -5.622E+01   -5.620E+01   -5.619E+01
    -5.617E+01   -5.615E+01   -5.614E+01   -5.612E+01   -5.610E+01   -5.609E+01   -5.607E+01   -5.605E+01   -5.604E+01   -5.602E+01
    -5.601E+01   -5.599E+01   -5.597E+01   -5.596E+01   -5.594E+01   -5.593E+01   -5.591E+01   -5.590E+01   -5.588E+01   -5.587E+01
    -5.586E+01   -5.585E+01   -5.584E+01   -5.583E+01   -5.583E+01   -5.582E+01   -5.582E+01   -5.582E+01   -5.582E+01   -5.582E+01
    -5.583E+01   -5.584E+01   -5.585E+01   -5.586E+01   -5.587E+01   -5.589E+01   -5.592E+01   -5.594E+01   -5.597E+01   -5.600E+01
    -5.603E+01   -5.607E+01   -5.611E+01   -5.616E+01   -5.621E+01   -5.626E+01   -5.632E+01   -5.638E+01   -5.645E+01   -5.652E+01
    -5.659E+01   -5.667E+01   -5.675E+01   -5.684E+01   -5.693E+01   -5.703E+01   -5.713E+01   -5.724E+01   -5.735E+01   -5.746E+01
    -5.758E+01   -5.771E+01   -5.784E+01   -5.797E+01   -5.812E+01   -5.826E+01   -5.841E+01   -5.857E+01   -5.873E+01   -5.890E+01
    -5.908E+01   -5.926E+01   -5.944E+01   -5.963E+01   -5.982E+01   -6.002E+01   -6.022E+01   -6.042E+01   -6.063E+01   -6.083E+01
    -6.104E+01   -6.124E+01   -6.145E+01   -6.165E+01   -6.186E+01   -6.206E+01   -6.226E+01   -6.246E+01   -6.265E+01   -6.285E+01
    -6.303E+01   -6.321E+01   -6.339E+01   -6.356E+01   -6.373E+01   -6.388E+01   -6.403E+01   -6.418E+01   -6.431E+01   -6.444E+01
    -6.455E+01   -6.466E+01   -6.475E+01   -6.484E+01   -6.491E+01   -6.498E+01   -6.503E+01   -6.507E+01   -6.510E+01   -6.511E+01
    -6.512E+01   -6.511E+01   -6.508E+01   -6.504E+01   -6.499E+01   -6.492E+01   -6.484E+01   -6.474E+01   -6.463E+01   -6.450E+01
    -6.435E+01   -6.419E+01   -6.401E+01   -6.381E+01   -6.360E+01   -6.337E+01   -6.311E+01   -6.284E+01   -6.255E+01   -6.224E+01
    -6.191E+01   -6.157E+01   -6.120E+01   -6.081E+01   -6.041E+01   -5.999E+01   -5.955E+01   -5.910E+01   -5.864E+01   -5.816E+01
    -5.767E+01   -5.717E+01   -5.665E+01   -5.613E+01   -5.560E+01   -5.505E+01   -5.450E+01   -5.394E+01   -5.338E+01   -5.281E+01
    -5.223E+01   -5.165E+01   -5.106E+01   -5.047E+01   -4.988E+01   -4.929E+01   -4.870E+01   -4.811E+01   -4.752E+01   -4.693E+01
    -4.634E+01   -4.576E+01   -4.517E+01   -4.460E+01   -4.402E+01   -4.345E+01   -4.288E+01   -4.232E+01   -4.177E+01   -4.122E+01
    -4.067E+01   -4.013E+01   -3.960E+01   -3.907E+01   -3.855E+01   -3.804E+01   -3.753E+01   -3.703E+01   -3.654E+01   -3.606E+01
    -3.559E+01   -3.513E+01   -3.467E+01   -3.423E+01   -3.380E+01   -3.337E+01   -3.296E+01   -3.256E+01   -3.217E+01   -3.179E+01
    -3.142E+01   -3.106E+01   -3.072E+01   -3.039E+01   -3.007E+01   -2.976E+01   -2.946E+01   -2.917E+01   -2.890E+01   -2.863E+01
    -2.838E+01   -2.813E+01   -2.790E+01   -2.768E+01   -2.747E+01   -2.727E+01   -2.708E+01   -2.689E+01   -2.672E+01   -2.656E+01
    -2.641E+01   -2.627E+01   -2.613E+01   -2.601E+01   -2.590E+01   -2.579E+01   -2.569E+01   -2.561E+01   -2.553E+01   -2.546E+01
    -2.540E+01   -2.534E+01   -2.530E+01   -2.526E+01   -2.523E+01   -2.521E+01   -2.519E+01   -2.519E+01   -2.518E+01   -2.519E+01
    -2.520E+01   -2.521E+01   -2.524E+01   -2.526E+01   -2.530E+01   -2.533E+01   -2.538E+01   -2.542E+01   -2.547E+01   -2.553E+01
    -2.558E+01   -2.564E+01   -2.571E+01   -2.578E+01   -2.585E+01   -2.592E+01   -2.599E+01   -2.607E+01   -2.615E+01   -2.622E+01
    -2.630E+01   -2.639E+01   -2.647E+01   -2.655E+01   -2.664E+01   -2.672E+01   -2.681E+01   -2.690E+01   -2.698E+01   -2.707E+01
    -2.716E+01   -2.725E+01   -2.734E+01   -2.743E+01   -2.752E+01   -2.762E+01   -2.771E+01   -2.780E+01   -2.790E+01   -2.799E+01
    -2.808E+01   -2.818E+01   -2.827E+01   -2.836E+01   -2.846E+01   -2.855E+01   -2.865E+01   -2.874E+01   -2.884E+01   -2.893E+01
 Mac      Conc. = 2.93E-04
  -1.28026E+02 -1.28006E+02 -1.27634E+02 -1.27278E+02 -1.27042E+02 -1.27073E+02 -1.28165E+02 -1.30272E+02 -1.32297E+02 -1.33979E+02
  -1.34610E+02 -1.34115E+02 -1.33287E+02 -1.32680E+02 -1.33500E+02 -1.36474E+02 -1.39897E+02 -1.41207E+02 -1.36632E+02 -1.28368E+02
  -1.24846E+02 -1.21292E+02 -1.15309E+02 -1.12451E+02 -1.11780E+02 -1.10950E+02 -1.08952E+02 -1.06943E+02 -1.04492E+02 -1.01266E+02
  -9.89981E+01 -9.75393E+01 -9.56549E+01 -9.42131E+01 -9.45635E+01 -9.57262E+01 -9.60791E+01 -9.38689E+01 -8.95357E+01 -8.56397E+01
  -8.46773E+01 -8.60621E+01 -8.60854E+01 -8.44365E+01 -8.21878E+01 -7.93569E+01 -7.81501E+01 -7.79013E+01 -7.81306E+01 -7.89633E+01
  -8.03090E+01 -8.15528E+01 -8.18701E+01 -8.26738E+01 -8.31039E+01 -8.29577E+01 -8.30081E+01 -8.19556E+01 -7.95295E+01 -7.75634E+01
  -7.64586E+01 -7.35223E+01 -7.08426E+01 -7.10763E+01 -7.14783E+01 -7.21680E+01 -7.29703E+01 -7.29362E+01 -7.34604E+01 -7.43465E+01
  -7.45316E+01 -7.13952E+01 -6.63477E+01 -6.35610E+01 -6.18468E+01 -6.01814E+01 -6.03414E+01 -6.02944E+01 -6.11701E+01 -6.20442E+01
  -6.18764E+01 -6.22178E+01 -6.25639E+01 -6.23518E+01 -6.09529E+01 -5.94431E+01 -5.87041E+01 -5.73848E+01 -5.58585E+01 -5.51258E+01
  -5.44501E+01 -5.32042E+01 -5.23755E+01 -5.16047E+01 -5.09594E+01 -5.13637E+01 -5.37740E+01 -5.62041E+01 -5.86723E+01 -6.10619E+01
  -6.23460E+01 -6.28741E+01 -6.45396E+01 -6.66723E+01 -6.91739E+01 -7.41718E+01 -8.18564E+01 -9.13771E+01 -9.83325E+01 -1.00712E+02
