 
 $NMID
 ID=''
 FMTDAT='(2E13.5)'
 TRAMP=   1.00000E+0
 VOLUME=   1.00000E+0
 $END
  -4.44646E+5   5.59063E+5
  -1.64251E+6   1.03484E+6
  -1.44877E+6   1.18724E+6
  -1.41712E+6   1.00540E+6
  -1.53627E+6   1.03306E+6
  -1.44362E+6   1.11656E+6
  -1.39035E+6   1.04602E+6
  -1.46369E+6   1.03916E+6
  -1.43161E+6   1.06900E+6
  -1.40595E+6   1.01228E+6
  -1.44269E+6   9.95798E+5
  -1.42438E+6   1.00364E+6
  -1.41150E+6   9.63940E+5
  -1.43585E+6   9.46836E+5
  -1.42075E+6   9.39300E+5
  -1.41022E+6   9.06602E+5
  -1.42682E+6   8.98604E+5
  -1.41530E+6   8.95254E+5
  -1.40362E+6   8.74571E+5
  -1.40558E+6   8.76616E+5
  -1.39322E+6   8.73332E+5
  -1.38523E+6   8.54345E+5
  -1.38748E+6   8.48325E+5
  -1.37947E+6   8.41325E+5
  -1.37357E+6   8.20692E+5
  -1.36853E+6   8.13671E+5
  -1.36580E+6   8.01556E+5
  -1.36683E+6   7.80006E+5
  -1.36319E+6   7.62961E+5
  -1.35332E+6   7.52538E+5
  -1.35238E+6   7.40787E+5
  -1.34695E+6   7.33142E+5
  -1.33790E+6   7.22671E+5
  -1.33233E+6   7.14954E+5
  -1.32124E+6   7.13324E+5
  -1.30994E+6   7.12235E+5
  -1.30672E+6   7.08865E+5
  -1.29988E+6   7.03602E+5
  -1.28749E+6   6.93871E+5
  -1.28289E+6   6.86459E+5
  -1.27601E+6   6.77889E+5
  -1.26626E+6   6.65600E+5
  -1.25883E+6   6.56141E+5
  -1.25333E+6   6.48050E+5
  -1.24634E+6   6.34988E+5
  -1.24120E+6   6.23904E+5
  -1.23544E+6   6.15281E+5
  -1.22787E+6   6.03702E+5
  -1.21809E+6   5.93599E+5
  -1.20936E+6   5.87877E+5
  -1.20155E+6   5.81856E+5
  -1.19469E+6   5.74229E+5
  -1.18677E+6   5.67621E+5
  -1.17899E+6   5.60140E+5
  -1.17197E+6   5.51495E+5
  -1.16478E+6   5.42573E+5
  -1.15668E+6   5.31059E+5
  -1.14846E+6   5.20785E+5
  -1.14013E+6   5.12012E+5
  -1.13348E+6   5.03814E+5
  -1.12712E+6   4.93389E+5
  -1.11979E+6   4.83693E+5
  -1.11299E+6   4.74454E+5
  -1.10578E+6   4.64401E+5
  -1.09695E+6   4.55031E+5
  -1.08788E+6   4.46662E+5
  -1.07894E+6   4.39499E+5
  -1.07122E+6   4.31641E+5
  -1.06527E+6   4.23433E+5
  -1.05977E+6   4.13751E+5
  -1.05172E+6   4.03615E+5
  -1.04393E+6   3.94858E+5
  -1.03767E+6   3.86514E+5
  -1.03172E+6   3.76980E+5
  -1.02401E+6   3.66953E+5
  -1.01647E+6   3.58267E+5
  -1.00930E+6   3.50585E+5
  -1.00281E+6   3.41581E+5
  -9.95354E+5   3.32705E+5
  -9.88006E+5   3.24284E+5
  -9.80368E+5   3.15809E+5
  -9.72954E+5   3.07495E+5
  -9.66269E+5   2.99153E+5
  -9.59581E+5   2.89379E+5
  -9.52826E+5   2.79274E+5
  -9.45522E+5   2.70844E+5
  -9.38476E+5   2.61475E+5
  -9.32322E+5   2.52066E+5
  -9.25232E+5   2.42556E+5
  -9.17462E+5   2.34198E+5
  -9.10512E+5   2.26763E+5
  -9.03973E+5   2.19695E+5
  -8.96881E+5   2.11408E+5
  -8.89004E+5   2.03679E+5
  -8.81187E+5   1.97647E+5
  -8.73552E+5   1.91654E+5
  -8.67896E+5   1.85475E+5
  -8.61183E+5   1.78765E+5
  -8.53507E+5   1.72363E+5
  -8.46523E+5   1.66173E+5
  -8.41306E+5   1.59619E+5
  -8.34735E+5   1.52171E+5
  -8.26638E+5   1.44238E+5
  -8.18923E+5   1.38006E+5
  -8.11772E+5   1.32747E+5
  -8.05745E+5   1.26712E+5
  -7.99746E+5   1.20328E+5
  -7.92385E+5   1.13837E+5
  -7.84190E+5   1.08072E+5
  -7.76678E+5   1.03614E+5
  -7.71061E+5   9.92619E+4
  -7.65133E+5   9.33689E+4
  -7.58313E+5   8.64978E+4
  -7.51623E+5   8.05315E+4
  -7.44387E+5   7.48749E+4
  -7.38391E+5   6.89287E+4
  -7.31808E+5   6.23870E+4
  -7.23889E+5   5.68051E+4
  -7.16071E+5   5.22625E+4
  -7.09791E+5   4.81496E+4
  -7.03968E+5   4.34149E+4
  -6.97541E+5   3.80659E+4
  -6.91109E+5   3.30077E+4
  -6.84433E+5   2.78524E+4
  -6.77950E+5   2.27688E+4
  -6.70756E+5   1.79874E+4
  -6.63709E+5   1.36807E+4
  -6.57297E+5   8.49732E+3
  -6.51116E+5   3.33260E+3
  -6.45010E+5  -2.26929E+3
  -6.38349E+5  -8.69515E+3
  -6.31343E+5  -1.45968E+4
  -6.24351E+5  -1.97485E+4
  -6.17905E+5  -2.42736E+4
  -6.11452E+5  -2.97006E+4
  -6.04818E+5  -3.50168E+4
  -5.97938E+5  -3.94731E+4
  -5.92120E+5  -4.39505E+4
  -5.86148E+5  -4.85339E+4
  -5.79347E+5  -5.40115E+4
  -5.72013E+5  -5.84725E+4
  -5.65127E+5  -6.19801E+4
  -5.58806E+5  -6.58872E+4
  -5.52990E+5  -7.04337E+4
  -5.46890E+5  -7.56316E+4
  -5.40089E+5  -8.00194E+4
  -5.32884E+5  -8.39044E+4
  -5.26264E+5  -8.79438E+4
  -5.19659E+5  -9.19655E+4
  -5.13111E+5  -9.57725E+4
  -5.07178E+5  -9.93568E+4
  -5.00559E+5  -1.02601E+5
  -4.94664E+5  -1.05843E+5
  -4.89108E+5  -1.08901E+5
  -4.82355E+5  -1.12684E+5
  -4.75844E+5  -1.15211E+5
  -4.70202E+5  -1.17476E+5
  -4.64144E+5  -1.20270E+5
  -4.58128E+5  -1.23105E+5
  -4.52003E+5  -1.25762E+5
  -4.45924E+5  -1.27893E+5
  -4.40248E+5  -1.30146E+5
  -4.33960E+5  -1.32547E+5
  -4.27849E+5  -1.34594E+5
  -4.21698E+5  -1.36447E+5
  -4.16243E+5  -1.38024E+5
  -4.10851E+5  -1.40028E+5
  -4.05422E+5  -1.42433E+5
  -3.99255E+5  -1.44181E+5
  -3.93667E+5  -1.45442E+5
  -3.88149E+5  -1.46754E+5
  -3.82989E+5  -1.48353E+5
  -3.77494E+5  -1.49831E+5
  -3.71802E+5  -1.51344E+5
  -3.66397E+5  -1.52457E+5
  -3.61141E+5  -1.53807E+5
  -3.55739E+5  -1.55793E+5
  -3.50212E+5  -1.56963E+5
  -3.44636E+5  -1.58379E+5
  -3.39333E+5  -1.58930E+5
  -3.34735E+5  -1.60368E+5
  -3.29082E+5  -1.61738E+5
  -3.23829E+5  -1.63234E+5
  -3.18253E+5  -1.64145E+5
  -3.13360E+5  -1.65045E+5
  -3.08417E+5  -1.65711E+5
  -3.03303E+5  -1.66199E+5
  -2.98281E+5  -1.66954E+5
  -2.93776E+5  -1.67375E+5
  -2.89541E+5  -1.68195E+5
  -2.84835E+5  -1.69563E+5
  -2.79243E+5  -1.70844E+5
  -2.73822E+5  -1.71406E+5
  -2.68943E+5  -1.71958E+5
  -2.64315E+5  -1.72309E+5
  -2.59473E+5  -1.73207E+5
  -2.55117E+5  -1.74076E+5
  -2.50089E+5  -1.74796E+5
  -2.45378E+5  -1.75427E+5
  -2.40574E+5  -1.76299E+5
  -2.35597E+5  -1.76898E+5
  -2.30657E+5  -1.77133E+5
  -2.26504E+5  -1.77074E+5
  -2.22342E+5  -1.77587E+5
  -2.17591E+5  -1.78125E+5
  -2.13072E+5  -1.78588E+5
  -2.08316E+5  -1.78601E+5
  -2.03745E+5  -1.78883E+5
  -1.99589E+5  -1.78982E+5
  -1.95384E+5  -1.79473E+5
  -1.90747E+5  -1.79179E+5
  -1.86557E+5  -1.78977E+5
  -1.82727E+5  -1.79138E+5
  -1.78627E+5  -1.79597E+5
  -1.74128E+5  -1.79620E+5
  -1.69737E+5  -1.79169E+5
  -1.65889E+5  -1.78232E+5
  -1.62105E+5  -1.77761E+5
  -1.58631E+5  -1.77558E+5
  -1.54634E+5  -1.77202E+5
  -1.51197E+5  -1.76862E+5
  -1.47599E+5  -1.75976E+5
  -1.43955E+5  -1.75452E+5
  -1.40010E+5  -1.75150E+5
  -1.36302E+5  -1.74087E+5
  -1.32912E+5  -1.73067E+5
  -1.29931E+5  -1.72432E+5
  -1.26974E+5  -1.72057E+5
  -1.23330E+5  -1.71221E+5
  -1.19905E+5  -1.70603E+5
  -1.16613E+5  -1.69312E+5
  -1.13543E+5  -1.68395E+5
  -1.10741E+5  -1.67380E+5
  -1.07935E+5  -1.66484E+5
  -1.04711E+5  -1.65278E+5
  -1.02406E+5  -1.64257E+5
  -9.95725E+4  -1.63107E+5
  -9.68590E+4  -1.62246E+5
  -9.39044E+4  -1.61138E+5
  -9.14083E+4  -1.59654E+5
  -8.89885E+4  -1.58529E+5
  -8.68254E+4  -1.57542E+5
  -8.40311E+4  -1.56442E+5
  -8.13242E+4  -1.55117E+5
  -7.89271E+4  -1.53715E+5
  -7.69168E+4  -1.52444E+5
  -7.47378E+4  -1.51243E+5
  -7.20242E+4  -1.50074E+5
  -6.99197E+4  -1.48637E+5
  -6.77949E+4  -1.47469E+5
  -6.60114E+4  -1.46408E+5
  -6.34266E+4  -1.45517E+5
  -6.13461E+4  -1.44367E+5
  -5.90967E+4  -1.42682E+5
  -5.76410E+4  -1.41313E+5
  -5.55623E+4  -1.40340E+5
  -5.34906E+4  -1.39308E+5
  -5.15954E+4  -1.38089E+5
  -4.93234E+4  -1.36798E+5
  -4.75440E+4  -1.35626E+5
  -4.53972E+4  -1.34622E+5
  -4.36766E+4  -1.33153E+5
  -4.15679E+4  -1.31771E+5
  -4.01812E+4  -1.30299E+5
  -3.84963E+4  -1.29130E+5
  -3.69406E+4  -1.28294E+5
  -3.48900E+4  -1.27114E+5
  -3.32474E+4  -1.25608E+5
  -3.16203E+4  -1.24037E+5
  -3.02216E+4  -1.23040E+5
  -2.87837E+4  -1.21669E+5
  -2.70887E+4  -1.20672E+5
  -2.55149E+4  -1.19086E+5
  -2.43122E+4  -1.17927E+5
  -2.27446E+4  -1.16780E+5
  -2.11175E+4  -1.15523E+5
  -1.98815E+4  -1.14213E+5
  -1.85838E+4  -1.12762E+5
  -1.72110E+4  -1.11557E+5
  -1.60118E+4  -1.10678E+5
  -1.47095E+4  -1.09012E+5
  -1.35178E+4  -1.07861E+5
  -1.23959E+4  -1.06756E+5
  -1.08555E+4  -1.05551E+5
  -1.00893E+4  -1.04353E+5
  -8.79026E+3  -1.02729E+5
  -7.80412E+3  -1.01400E+5
  -7.41338E+3  -1.00234E+5
  -6.43459E+3  -9.90544E+4
  -5.43657E+3  -9.80277E+4
  -4.16357E+3  -9.68136E+4
  -3.42632E+3  -9.49677E+4
  -2.60999E+3  -9.38699E+4
  -2.06422E+3  -9.30355E+4
  -1.04954E+3  -9.14743E+4
  -3.00819E+2  -9.01167E+4
   1.75476E+2  -8.91770E+4
   8.65154E+2  -8.79495E+4
   1.41409E+3  -8.67019E+4
   2.33255E+3  -8.53168E+4
   2.76766E+3  -8.40681E+4
   3.04967E+3  -8.29219E+4
   3.80978E+3  -8.20690E+4
   4.53389E+3  -8.08664E+4
   5.18341E+3  -7.95078E+4
   5.61913E+3  -7.80875E+4
   5.74119E+3  -7.70413E+4
   6.25262E+3  -7.60700E+4
   6.66944E+3  -7.50274E+4
   7.10431E+3  -7.35938E+4
   7.43838E+3  -7.27944E+4
   7.66784E+3  -7.14081E+4
   8.27485E+3  -7.04475E+4
   8.52534E+3  -6.92699E+4
   8.95574E+3  -6.81004E+4
   8.95260E+3  -6.69605E+4
   9.25007E+3  -6.58171E+4
   9.76874E+3  -6.50579E+4
   9.71600E+3  -6.39143E+4
   1.00880E+4  -6.27130E+4
   1.01167E+4  -6.19050E+4
   1.05621E+4  -6.08250E+4
   1.06661E+4  -5.98134E+4
   1.07748E+4  -5.85163E+4
   1.07410E+4  -5.78485E+4
   1.07880E+4  -5.67286E+4
   1.11628E+4  -5.60048E+4
   1.14005E+4  -5.49578E+4
   1.13861E+4  -5.36980E+4
   1.14514E+4  -5.30205E+4
   1.15112E+4  -5.19371E+4
   1.16471E+4  -5.09333E+4
   1.16036E+4  -5.04635E+4
   1.16386E+4  -4.94152E+4
   1.18233E+4  -4.85034E+4
   1.19713E+4  -4.78416E+4
   1.20376E+4  -4.66480E+4
   1.18205E+4  -4.57549E+4
   1.17331E+4  -4.49458E+4
   1.16511E+4  -4.40581E+4
   1.15664E+4  -4.34736E+4
   1.18201E+4  -4.26258E+4
   1.18944E+4  -4.16595E+4
   1.16667E+4  -4.06890E+4
   1.14224E+4  -3.99794E+4
   1.12893E+4  -3.92977E+4
   1.12027E+4  -3.83530E+4
   1.11397E+4  -3.76635E+4
   1.10039E+4  -3.71209E+4
   1.09656E+4  -3.62690E+4
   1.11628E+4  -3.55784E+4
   1.09526E+4  -3.48218E+4
   1.07560E+4  -3.40774E+4
   1.06246E+4  -3.32654E+4
   1.02519E+4  -3.26583E+4
   1.03400E+4  -3.20675E+4
   1.00952E+4  -3.15871E+4
   1.01316E+4  -3.07770E+4
   9.95349E+3  -3.03356E+4
   9.97732E+3  -2.95621E+4
   9.72140E+3  -2.85540E+4
   9.21507E+3  -2.82175E+4
   9.30939E+3  -2.75808E+4
   8.84396E+3  -2.72512E+4
   8.95705E+3  -2.65626E+4
   8.70262E+3  -2.61581E+4
   8.57797E+3  -2.54423E+4
