 LCModel (Version 6.3-1N) Copyright: S.W. Provencher.          Ref.: Magn. Reson. Med. 30:672-679 (1993).                
 Slice_N1@11_20  28-Feb-2025 11:39:32
 27 lines in following concentration table = NCONC+1
    Conc.  %SD /Cr+PCr  Metabolite                                         
 2.46E-04   8% 2.8E-04 Mac                                                 
    3.517  35%   4.048 Cr                                                  
    3.434  33%   3.952 PCr                                                 
    3.913  30%   4.503 Ins                                                 
    7.992  13%   9.199 NAA                                                 
    6.897  18%   7.938 Tau                                                 
    0.524 215%   0.604 PCho                                                
    0.703 153%   0.809 GPC                                                 
   10.204  15%  11.745 Glu                                                 
    3.244  34%   3.734 Gln                                                 
    0.000 999%   0.000 Ala                                                 
    1.560 106%   1.796 Asc                                                 
    1.490  68%   1.715 Asp                                                 
    0.281 206%   0.323 GABA                                                
    0.497 134%   0.572 Glc                                                 
    0.846  72%   0.974 GSH                                                 
    3.101  31%   3.569 Lac                                                 
    0.747  96%   0.860 NAAG                                                
    2.494  59%   2.871 PE                                                  
    1.227  31%   1.413 GPC+PCho                                            
    8.739  13%  10.058 NAA+NAAG                                            
   13.449  14%  15.479 Glu+Gln                                             
    6.951  15%   8.000 Cr+PCr                                              
    8.739  13%  10.058 NAA+NAAG                                            
    6.951  15%   8.000 Cr+PCr                                              
   13.449  14%  15.479 Glu+Gln                                             
   6 lines in following misc. output table
  FWHM = 0.016 ppm    S/N =   2                                            
  Data shift = 0.033 ppm                                                   
  Ph:-114 deg       0.0 deg/ppm                                            
  alphaB,S = 1.5E-01,   4.2E-01                                            
   19 spline knots.   Ns = 5(1)                                            
   2 inflections.     1 extrema                                            
  480 points on ppm-axis = NY
      4.100000     4.091866     4.083733     4.075600     4.067466     4.059333     4.051199     4.043066     4.034933     4.026799
      4.018666     4.010532     4.002399     3.994265     3.986132     3.977998     3.969864     3.961731     3.953597     3.945463
      3.937330     3.929196     3.921062     3.912929     3.904795     3.896662     3.888528     3.880394     3.872261     3.864127
      3.855993     3.847860     3.839726     3.831592     3.823459     3.815325     3.807191     3.799058     3.790924     3.782790
      3.774657     3.766523     3.758389     3.750256     3.742122     3.733989     3.725855     3.717721     3.709588     3.701454
      3.693320     3.685187     3.677053     3.668919     3.660786     3.652652     3.644518     3.636385     3.628251     3.620117
      3.611984     3.603850     3.595716     3.587583     3.579449     3.571316     3.563182     3.555048     3.546915     3.538781
      3.530647     3.522514     3.514380     3.506246     3.498113     3.489979     3.481845     3.473712     3.465578     3.457444
      3.449311     3.441177     3.433043     3.424910     3.416776     3.408643     3.400509     3.392375     3.384242     3.376108
      3.367974     3.359841     3.351707     3.343573     3.335440     3.327306     3.319172     3.311039     3.302905     3.294771
      3.286638     3.278504     3.270370     3.262237     3.254103     3.245970     3.237836     3.229702     3.221569     3.213435
      3.205301     3.197168     3.189034     3.180900     3.172767     3.164633     3.156499     3.148366     3.140232     3.132098
      3.123965     3.115831     3.107697     3.099564     3.091430     3.083297     3.075163     3.067029     3.058896     3.050762
      3.042628     3.034495     3.026361     3.018227     3.010094     3.001960     2.993826     2.985693     2.977559     2.969425
      2.961292     2.953158     2.945024     2.936891     2.928757     2.920624     2.912490     2.904356     2.896223     2.888089
      2.879955     2.871822     2.863688     2.855554     2.847421     2.839287     2.831153     2.823020     2.814886     2.806752
      2.798619     2.790485     2.782351     2.774218     2.766084     2.757951     2.749817     2.741683     2.733550     2.725416
      2.717282     2.709149     2.701015     2.692881     2.684748     2.676614     2.668480     2.660347     2.652213     2.644079
      2.635946     2.627812     2.619678     2.611545     2.603411     2.595278     2.587144     2.579010     2.570877     2.562743
      2.554609     2.546476     2.538342     2.530208     2.522075     2.513941     2.505807     2.497674     2.489540     2.481406
      2.473273     2.465139     2.457006     2.448872     2.440738     2.432605     2.424471     2.416337     2.408204     2.400070
      2.391936     2.383803     2.375669     2.367535     2.359402     2.351268     2.343134     2.335001     2.326867     2.318733
      2.310600     2.302466     2.294333     2.286199     2.278065     2.269932     2.261798     2.253664     2.245531     2.237397
      2.229263     2.221130     2.212996     2.204862     2.196729     2.188595     2.180461     2.172328     2.164194     2.156060
      2.147927     2.139793     2.131660     2.123526     2.115392     2.107259     2.099125     2.090991     2.082858     2.074724
      2.066590     2.058457     2.050323     2.042189     2.034056     2.025922     2.017788     2.009655     2.001521     1.993387
      1.985254     1.977120     1.968987     1.960853     1.952719     1.944586     1.936452     1.928318     1.920185     1.912051
      1.903917     1.895784     1.887650     1.879516     1.871383     1.863249     1.855115     1.846982     1.838848     1.830714
      1.822581     1.814447     1.806314     1.798180     1.790046     1.781913     1.773779     1.765645     1.757512     1.749378
      1.741244     1.733111     1.724977     1.716843     1.708710     1.700576     1.692442     1.684309     1.676175     1.668041
      1.659908     1.651774     1.643641     1.635507     1.627373     1.619240     1.611106     1.602972     1.594839     1.586705
      1.578571     1.570438     1.562304     1.554170     1.546037     1.537903     1.529769     1.521636     1.513502     1.505368
      1.497235     1.489101     1.480968     1.472834     1.464700     1.456567     1.448433     1.440299     1.432166     1.424032
      1.415898     1.407765     1.399631     1.391497     1.383364     1.375230     1.367096     1.358963     1.350829     1.342695
      1.334562     1.326428     1.318295     1.310161     1.302027     1.293894     1.285760     1.277626     1.269493     1.261359
      1.253225     1.245092     1.236958     1.228824     1.220691     1.212557     1.204423     1.196290     1.188156     1.180022
      1.171889     1.163755     1.155622     1.147488     1.139354     1.131221     1.123087     1.114953     1.106820     1.098686
      1.090552     1.082419     1.074285     1.066151     1.058018     1.049884     1.041750     1.033617     1.025483     1.017349
      1.009216     1.001082     0.992949     0.984815     0.976681     0.968548     0.960414     0.952280     0.944147     0.936013
      0.927879     0.919746     0.911612     0.903478     0.895345     0.887211     0.879077     0.870944     0.862810     0.854676
      0.846543     0.838409     0.830276     0.822142     0.814008     0.805875     0.797741     0.789607     0.781474     0.773340
      0.765206     0.757073     0.748939     0.740805     0.732672     0.724538     0.716404     0.708271     0.700137     0.692003
      0.683870     0.675736     0.667603     0.659469     0.651335     0.643202     0.635068     0.626934     0.618801     0.610667
      0.602533     0.594400     0.586266     0.578132     0.569999     0.561865     0.553731     0.545598     0.537464     0.529330
      0.521197     0.513063     0.504930     0.496796     0.488662     0.480529     0.472395     0.464261     0.456128     0.447994
      0.439861     0.431727     0.423593     0.415460     0.407326     0.399192     0.391059     0.382925     0.374792     0.366658
      0.358524     0.350391     0.342257     0.334124     0.325990     0.317856     0.309723     0.301589     0.293455     0.285322
      0.277188     0.269055     0.260921     0.252787     0.244654     0.236520     0.228386     0.220253     0.212119     0.203986
 NY phased data points follow
   2.62181E+01  2.99978E+01  3.06860E+01  3.20090E+01  3.93913E+01  2.59999E+01  2.84180E+01  4.14028E+01  1.50455E+01  4.17770E+01
   3.57713E+01  7.02655E-01  1.51847E+01  1.13458E+01  2.53227E+01  2.48201E+01  5.97391E-01  1.55721E+01  2.30070E+01 -4.19347E+00
  -2.91780E+01 -3.27343E+01 -5.86146E-01  9.18646E+00  1.39818E+01  6.74692E+01  8.53533E+01  8.09332E+01  7.85804E+01  7.29319E+01
   8.26255E+01  6.59978E+01  5.14346E+01  6.76036E+01  7.05897E+01  6.53951E+01  6.59850E+01  6.39312E+01  5.30261E+01  2.68921E+01
   1.67618E+01  1.07654E+00 -1.89923E+01  1.07392E+01  3.52106E+01  3.39415E+01  6.28949E+01  9.84893E+01  1.08176E+02  1.06475E+02
   9.40000E+01  8.03499E+01  9.00852E+01  9.83686E+01  6.96665E+01  7.14435E+01  8.69076E+01  6.36092E+01  7.36736E+01  7.02454E+01
   6.08832E+01  6.86195E+01  4.68747E+01  6.81138E+01  1.00961E+02  9.44473E+01  1.01380E+02  1.06465E+02  8.31553E+01  6.09276E+01
   3.08857E+01  3.77532E+01  7.05438E+01  6.11867E+01  8.09970E+01  8.64623E+01  8.46488E+01  1.06155E+02  9.03563E+01  9.07352E+01
   1.02290E+02  1.05876E+02  8.10882E+01  4.26260E+01  3.34916E+01  3.70006E+01  4.20938E+01  4.05607E+01  6.35948E+01  8.32689E+01
   8.93013E+01  1.00986E+02  9.64739E+01  1.01198E+02  1.10882E+02  1.05558E+02  1.12376E+02  1.24646E+02  1.24091E+02  1.29469E+02
   1.21138E+02  1.06208E+02  1.05983E+02  9.12878E+01  6.20373E+01  4.36974E+01  3.52441E+01  2.84571E+01  3.27578E+01  1.26052E+00
  -7.34969E+01 -1.12596E+02 -8.66338E+01 -4.70398E+01 -3.34063E+01 -1.41134E+01  1.37669E+01  2.02896E+01  2.46072E+01  3.06400E+01
   3.06257E+01  4.72427E+01  4.49642E+01  4.68014E+01  7.06836E+01  7.19599E+01  7.41226E+01  7.16578E+01  8.27354E+01  1.11435E+02
   1.59373E+02  1.98447E+02  1.33654E+02  1.44342E+01 -4.19454E+01 -3.91553E+01 -3.62930E+01 -3.96305E+01 -3.95384E+01 -2.41327E+01
  -2.25165E+01 -2.65084E+01 -2.70074E+01 -3.06445E+01 -2.40697E+01 -3.26771E+01 -2.06068E+01 -3.45595E+00 -5.78264E+00 -2.31316E+01
  -1.94066E+01  8.95538E-01 -5.77335E+00 -8.56588E+00 -3.17787E+00  1.38004E+01  1.56098E+00  9.70338E+00  2.21631E+01  3.68241E+00
   1.20140E+01  1.68709E+01  2.45901E+01  1.64412E+01  1.71067E+01  1.02649E+01  4.15957E+00  1.29260E+01  8.51542E+00  2.13851E+01
   1.64948E+01  2.67006E+01  5.25630E+01  7.12407E+01  6.33291E+01  3.53171E+01  4.16009E+01  6.60171E+01  7.06820E+01  4.52442E+01
   2.66373E+01  5.01491E+00 -2.87357E+00  8.53529E+00 -6.00854E-01 -1.03095E+01  4.97658E+00  1.13333E+00 -8.52920E+00 -1.01119E+00
  -8.57861E+00  1.30288E+01  1.68352E+01  7.87920E+00  3.22589E+01  2.56996E+01 -4.15937E+00  8.48624E+00  1.91773E+01 -1.02233E+00
   1.66419E+01  1.19036E+01  1.58357E+01  5.34314E+01  4.46607E+01  2.34812E+01  2.48829E+01  1.62244E+01 -1.04673E+01 -1.10779E+01
  -1.77963E+01 -2.42397E+01 -4.68348E+00  1.44618E+01  1.91436E+01  4.55574E+01  7.36599E+01  7.78706E+01  1.03647E+02  8.65634E+01
   5.73346E+01  4.86099E+01  4.82497E+01  5.46751E+01  3.90031E+01  4.60654E+01  5.46748E+01  5.02102E+01  5.74312E+01  6.11416E+01
   5.23463E+01  4.64496E+01  3.11690E+01  2.73562E+01  1.55267E+01 -8.48663E+00 -4.73513E+00 -2.49735E+01 -3.60905E+01 -3.38788E+01
  -3.54965E+01 -3.58676E+01 -2.82494E+01 -2.20959E+01 -1.72897E+01  2.43857E+01  3.10089E+01  2.20840E+01  2.00181E+01  1.95309E+00
   1.39585E+00  5.20691E+00 -1.01042E+01  6.77496E-01  1.51286E+01 -1.81562E+01 -6.57305E+01 -8.68916E+01  5.69424E+01  1.93945E+02
   1.81262E+02  1.91281E+02  1.83509E+02  1.56722E+02  1.38140E+02  1.23080E+02  1.23020E+02  1.22368E+02  1.20288E+02  1.11038E+02
   1.07789E+02  9.55661E+01  9.39827E+01  1.06964E+02  9.75782E+01  9.30139E+01  1.16329E+02  1.02079E+02  7.82868E+01  8.50498E+01
   7.84556E+01  8.45169E+01  7.79451E+01  5.85459E+01  6.25629E+01  5.13250E+01  5.72218E+01  6.79349E+01  3.66764E+01  4.10070E+01
   5.28498E+01  3.66692E+01  1.74248E+01  8.87682E+00  2.67309E+01  1.50240E+01  1.61833E+01  5.55048E+00 -1.67738E+01 -1.55733E+01
  -2.37629E+01 -7.18445E+00 -1.28580E+01 -8.15778E+00 -1.40555E+00  2.75663E+00  1.11037E+01 -1.42961E+01 -4.59337E-01  2.65145E+00
  -1.99712E+00  1.13630E+01  2.27265E+01  3.29520E+01  3.40319E+01  6.56791E+01  9.07332E+01  1.09248E+02  1.32529E+02  1.34432E+02
   1.57047E+02  1.88476E+02  1.84307E+02  1.94182E+02  2.01111E+02  1.83712E+02  1.90481E+02  1.77775E+02  1.64954E+02  1.59734E+02
   1.51657E+02  1.38081E+02  9.64562E+01  9.29686E+01  9.49216E+01  9.47524E+01  8.63031E+01  5.24018E+01  6.37164E+01  6.99253E+01
   5.56321E+01  5.76485E+01  6.07264E+01  4.48579E+01  3.62198E+01  4.88103E+01  4.83884E+01  6.16623E+01  6.86956E+01  6.13344E+01
   7.20001E+01  6.70731E+01  4.98130E+01  5.70997E+01  6.15903E+01  5.18091E+01  4.73493E+01  3.09910E+01  2.09683E+01  2.59250E+01
   3.91090E+01  4.18102E+01  4.32793E+01  6.26749E+01  5.69973E+01  6.50130E+01  8.35029E+01  6.55088E+01  7.06386E+01  8.96356E+01
   7.26712E+01  7.24887E+01  8.69683E+01  8.82157E+01  8.76714E+01  8.00740E+01  8.37399E+01  7.91319E+01  8.27037E+01  8.33177E+01
   8.74911E+01  1.10277E+02  9.94630E+01  1.03404E+02  1.15095E+02  1.30038E+02  1.37394E+02  1.28520E+02  1.35564E+02  1.29608E+02
   1.36903E+02  1.34375E+02  1.11226E+02  9.40143E+01  8.57811E+01  8.38655E+01  8.17629E+01  7.94528E+01  7.43735E+01  7.31669E+01
   4.94121E+01  4.31055E+01  3.32599E+01  1.06184E+01  2.91307E+01  2.35013E+01  4.08586E+00  7.77685E+00  3.41973E+00 -2.56953E+00
   1.42241E+01  1.55231E+01  3.59503E+00  7.83707E+00  1.80347E+01  1.48841E+01 -6.07000E+00  1.73181E+01  1.34625E+01  1.14892E+00
   2.10764E+01 -8.18683E+00 -4.21865E+00  6.86960E+00 -4.69329E+00 -1.66953E+00  3.35675E+00  1.01166E+01  1.06209E+00 -2.86582E+00
   1.07365E+00  1.78374E+00  3.68808E-01  1.16552E+01  2.51474E-01 -3.34949E+00  3.10066E+00 -6.72958E+00  1.19370E+01  4.72338E+00
   4.95140E+00 -4.10567E-01 -2.15957E+00  1.16292E+01 -6.75108E+00  4.89178E+00  6.12921E+00  1.77277E+00  1.96173E+00 -4.94543E+00
   1.32567E+00  9.91723E+00  6.69442E+00  1.15206E+01  1.81765E+01 -3.33549E+00  3.87975E+00 -1.29278E-01  3.94010E+00  1.81713E+01
   1.67050E+01  8.73215E+00 -1.20621E+01  9.84295E+00  8.46683E+00 -3.59464E-01  3.35784E+00  1.27984E+01  1.62828E+01  4.95620E+00
   1.17055E+01  3.91721E+00  1.19916E+01 -1.06730E+00 -3.80424E+00  1.76434E+01  6.42075E+00 -6.84466E+00  6.53845E+00  1.79062E+01
 NY points of the fit to the data follow
   3.05180E+01  3.08019E+01  3.09049E+01  2.80685E+01  2.01628E+01  2.04159E+01  3.18581E+01  4.38396E+01  4.32408E+01  3.50380E+01
   2.68566E+01  1.88816E+01  1.25248E+01  9.32454E+00  1.13396E+01  1.47528E+01  1.14631E+01  1.88974E+01  1.33672E+01 -2.36143E+00
  -2.10946E+01 -2.14487E+01  3.31854E+00  1.17192E+01  3.12538E+01  7.27745E+01  7.80974E+01  7.56544E+01  8.10768E+01  8.05985E+01
   8.11460E+01  8.04966E+01  7.97892E+01  7.96216E+01  7.86623E+01  7.78628E+01  7.28075E+01  7.11209E+01  6.37979E+01  4.93097E+01
   1.90233E+01 -4.75343E+00 -6.38108E+00  7.39074E+00  2.47160E+01  4.84308E+01  6.98697E+01  8.29425E+01  8.60458E+01  8.99842E+01
   8.95556E+01  8.79178E+01  8.41318E+01  8.03546E+01  7.46255E+01  6.40438E+01  6.13078E+01  6.28772E+01  6.14523E+01  5.21921E+01
   4.65905E+01  6.06998E+01  6.36349E+01  6.10261E+01  7.95424E+01  8.84518E+01  8.97196E+01  9.60916E+01  8.90920E+01  6.73185E+01
   4.67232E+01  4.88599E+01  5.97187E+01  5.85954E+01  6.56903E+01  8.28320E+01  9.23399E+01  9.75632E+01  1.06674E+02  1.06196E+02
   1.08422E+02  9.06928E+01  7.08492E+01  4.09386E+01  1.83207E+01  1.58302E+01  2.39889E+01  4.04241E+01  6.33590E+01  6.85906E+01
   7.76053E+01  8.14169E+01  8.52133E+01  8.87407E+01  9.31383E+01  9.52788E+01  9.77612E+01  1.04558E+02  1.06582E+02  1.08702E+02
   1.16473E+02  1.23637E+02  1.24942E+02  9.83122E+01  8.67803E+01  6.20997E+01  3.78927E+01  4.58562E+01  4.92559E+01  1.17755E+01
  -5.70940E+01 -9.41934E+01 -6.53158E+01 -4.09399E+01 -2.22746E+01 -4.92551E+00  3.48904E+00  1.05511E+01  1.69830E+01  2.27696E+01
   2.76383E+01  3.24562E+01  3.72919E+01  4.25569E+01  4.89665E+01  5.47917E+01  6.38565E+01  9.17287E+01  1.02617E+02  1.22988E+02
   1.61612E+02  1.97710E+02  1.52068E+02  2.46535E+01 -4.60064E+01 -3.86400E+01 -3.82844E+01 -2.78673E+01 -1.80961E+01 -1.58189E+01
  -1.51157E+01 -1.49333E+01 -1.47283E+01 -1.52752E+01 -1.51129E+01 -1.53635E+01 -1.47006E+01 -1.23369E+01 -9.60607E+00 -6.72275E+00
  -4.11153E+00 -1.77516E+00  2.43418E-01  1.08774E+00  2.97773E+00  5.70292E+00  8.10408E+00  9.43808E+00  9.48828E+00  9.77045E+00
   1.14117E+01  1.42934E+01  1.59895E+01  1.42621E+01  1.15309E+01  1.09465E+01  1.13848E+01  1.18798E+01  1.17440E+01  9.25683E+00
   8.83930E+00  1.79037E+01  3.42279E+01  4.34819E+01  3.53626E+01  2.34096E+01  2.99655E+01  4.50013E+01  5.16503E+01  4.13874E+01
   2.41338E+01  1.58375E+01  1.19607E+01  6.62336E+00  5.23884E+00  4.12444E+00  3.21192E+00  4.22129E+00  4.63595E+00  3.78159E+00
   5.74082E+00  6.78036E+00  5.16109E+00  4.52736E+00  1.11792E+01  2.27334E+01  1.94688E+01  1.40743E+01  2.26641E+01  2.74532E+01
   2.62953E+01  2.33179E+01  2.70390E+01  3.78830E+01  4.01663E+01  3.38840E+01  2.87146E+01  2.17020E+01  1.17963E+01  1.71061E+00
  -1.37334E+01 -1.62129E+01 -2.27325E+01 -1.39586E+01  2.92522E+00  3.31146E+01  7.53804E+01  9.06038E+01  9.33668E+01  9.71892E+01
   7.19225E+01  5.84023E+01  5.46488E+01  5.19862E+01  5.46724E+01  5.62294E+01  5.59868E+01  5.42297E+01  4.82765E+01  4.13970E+01
   3.27768E+01  2.30284E+01  1.31311E+01  4.12337E+00 -6.74228E+00 -1.58720E+01 -2.59299E+01 -3.21988E+01 -3.70247E+01 -3.88898E+01
  -3.49626E+01 -3.41990E+01 -2.59198E+01 -1.38278E+01 -5.51842E+00  9.56211E+00  1.41286E+01  1.49509E+01  1.37598E+01  6.49583E+00
   1.30707E+01  1.69771E+01 -3.13737E+00  7.20726E-01  4.70832E+00 -2.18663E+01 -8.93993E+01 -9.17263E+01  4.31855E+01  1.52264E+02
   1.55300E+02  1.51633E+02  1.40624E+02  1.22855E+02  1.16409E+02  1.12407E+02  1.08986E+02  1.05258E+02  1.02024E+02  9.88523E+01
   9.67578E+01  9.58748E+01  9.54358E+01  9.52833E+01  9.53228E+01  9.49732E+01  9.41678E+01  9.27620E+01  9.18001E+01  9.11639E+01
   8.99568E+01  8.82236E+01  8.63127E+01  8.47102E+01  8.34942E+01  8.19576E+01  7.99687E+01  7.85248E+01  7.70465E+01  7.49086E+01
   7.23031E+01  6.88341E+01  6.54781E+01  6.16657E+01  5.73077E+01  5.42665E+01  5.29955E+01  5.34686E+01  5.53364E+01  5.77323E+01
   6.00084E+01  6.25430E+01  6.56118E+01  6.85511E+01  7.12529E+01  7.38954E+01  7.58714E+01  7.78804E+01  8.01753E+01  8.33015E+01
   8.62981E+01  8.86387E+01  9.05545E+01  9.25834E+01  9.47585E+01  9.68986E+01  9.78465E+01  9.90037E+01  9.94260E+01  9.85463E+01
   9.71507E+01  9.64652E+01  9.49160E+01  9.23670E+01  9.01680E+01  8.81414E+01  8.49683E+01  7.98966E+01  7.17797E+01  6.27112E+01
   5.41483E+01  4.63806E+01  4.00172E+01  3.55883E+01  3.43275E+01  3.63648E+01  4.52693E+01  5.09198E+01  6.25710E+01  7.43866E+01
   8.25732E+01  7.67115E+01  5.66048E+01  4.05876E+01  2.64964E+01  1.95849E+01  3.37167E+01  4.36638E+01  4.87071E+01  5.44666E+01
   5.66399E+01  5.67937E+01  5.59634E+01  5.35318E+01  4.92637E+01  4.43381E+01  4.04465E+01  3.85006E+01  3.76820E+01  3.81876E+01
   4.01666E+01  4.24638E+01  4.57077E+01  4.91495E+01  5.23591E+01  5.57379E+01  5.86505E+01  6.11716E+01  6.35767E+01  6.58954E+01
   6.84051E+01  7.07116E+01  7.30592E+01  7.53196E+01  7.73879E+01  8.01106E+01  8.38634E+01  8.74750E+01  9.10109E+01  9.63259E+01
   1.02084E+02  1.07289E+02  1.13627E+02  1.21819E+02  1.30224E+02  1.38058E+02  1.44815E+02  1.48573E+02  1.47413E+02  1.40472E+02
   1.29369E+02  1.17454E+02  1.07487E+02  9.89902E+01  9.24191E+01  8.77094E+01  8.26434E+01  7.55385E+01  6.68778E+01  5.79251E+01
   4.83531E+01  3.94142E+01  3.32604E+01  2.84253E+01  2.43287E+01  2.15948E+01  1.98391E+01  1.88088E+01  1.75389E+01  1.64148E+01
   1.49344E+01  1.36710E+01  1.29758E+01  1.28515E+01  1.24202E+01  1.17658E+01  1.18585E+01  1.20121E+01  1.12889E+01  1.02107E+01
   1.02417E+01  1.10436E+01  1.06742E+01  9.91292E+00  9.78203E+00  9.91662E+00  9.63685E+00  9.01042E+00  8.62314E+00  8.96064E+00
   9.36966E+00  9.12435E+00  8.83585E+00  8.28927E+00  7.75472E+00  7.44617E+00  7.49154E+00  7.42780E+00  7.47554E+00  7.70271E+00
   7.69166E+00  7.42266E+00  7.51488E+00  7.49004E+00  7.02747E+00  6.14399E+00  5.88337E+00  5.90028E+00  5.91427E+00  5.89979E+00
   5.93036E+00  5.69871E+00  5.09589E+00  4.84786E+00  5.21178E+00  5.13184E+00  5.15736E+00  5.22125E+00  5.10409E+00  4.93814E+00
   5.04312E+00  4.96192E+00  4.66011E+00  4.26033E+00  3.77023E+00  3.65938E+00  3.49786E+00  3.63104E+00  4.20647E+00  4.70901E+00
   4.72968E+00  4.27562E+00  3.50498E+00  3.20436E+00  3.21747E+00  3.29757E+00  2.94743E+00  3.09902E+00  3.16045E+00  2.77444E+00
 NY background values follow
     5.455E+01    5.460E+01    5.465E+01    5.470E+01    5.475E+01    5.479E+01    5.484E+01    5.489E+01    5.494E+01    5.499E+01
     5.503E+01    5.508E+01    5.513E+01    5.518E+01    5.523E+01    5.528E+01    5.532E+01    5.537E+01    5.542E+01    5.547E+01
     5.552E+01    5.557E+01    5.562E+01    5.566E+01    5.571E+01    5.576E+01    5.581E+01    5.586E+01    5.591E+01    5.596E+01
     5.600E+01    5.605E+01    5.610E+01    5.615E+01    5.620E+01    5.624E+01    5.629E+01    5.634E+01    5.638E+01    5.643E+01
     5.647E+01    5.651E+01    5.655E+01    5.659E+01    5.662E+01    5.666E+01    5.669E+01    5.672E+01    5.675E+01    5.677E+01
     5.680E+01    5.682E+01    5.684E+01    5.685E+01    5.686E+01    5.687E+01    5.687E+01    5.688E+01    5.687E+01    5.687E+01
     5.686E+01    5.684E+01    5.683E+01    5.680E+01    5.678E+01    5.675E+01    5.671E+01    5.668E+01    5.663E+01    5.659E+01
     5.654E+01    5.649E+01    5.643E+01    5.637E+01    5.630E+01    5.623E+01    5.616E+01    5.608E+01    5.600E+01    5.592E+01
     5.583E+01    5.574E+01    5.564E+01    5.555E+01    5.544E+01    5.534E+01    5.523E+01    5.511E+01    5.500E+01    5.487E+01
     5.475E+01    5.462E+01    5.449E+01    5.436E+01    5.422E+01    5.408E+01    5.393E+01    5.379E+01    5.364E+01    5.349E+01
     5.333E+01    5.318E+01    5.302E+01    5.286E+01    5.270E+01    5.254E+01    5.237E+01    5.221E+01    5.204E+01    5.188E+01
     5.171E+01    5.154E+01    5.137E+01    5.120E+01    5.103E+01    5.086E+01    5.070E+01    5.053E+01    5.036E+01    5.019E+01
     5.003E+01    4.986E+01    4.970E+01    4.953E+01    4.937E+01    4.921E+01    4.905E+01    4.889E+01    4.873E+01    4.857E+01
     4.842E+01    4.826E+01    4.811E+01    4.795E+01    4.780E+01    4.765E+01    4.750E+01    4.735E+01    4.721E+01    4.706E+01
     4.691E+01    4.677E+01    4.663E+01    4.649E+01    4.635E+01    4.621E+01    4.607E+01    4.594E+01    4.580E+01    4.567E+01
     4.554E+01    4.541E+01    4.528E+01    4.515E+01    4.503E+01    4.490E+01    4.478E+01    4.465E+01    4.453E+01    4.441E+01
     4.429E+01    4.417E+01    4.405E+01    4.393E+01    4.382E+01    4.370E+01    4.358E+01    4.347E+01    4.335E+01    4.324E+01
     4.312E+01    4.301E+01    4.289E+01    4.277E+01    4.266E+01    4.254E+01    4.243E+01    4.231E+01    4.220E+01    4.208E+01
     4.196E+01    4.185E+01    4.173E+01    4.161E+01    4.149E+01    4.137E+01    4.125E+01    4.113E+01    4.101E+01    4.089E+01
     4.077E+01    4.065E+01    4.053E+01    4.041E+01    4.029E+01    4.017E+01    4.005E+01    3.993E+01    3.981E+01    3.969E+01
     3.957E+01    3.945E+01    3.933E+01    3.921E+01    3.910E+01    3.898E+01    3.886E+01    3.874E+01    3.863E+01    3.851E+01
     3.840E+01    3.828E+01    3.817E+01    3.805E+01    3.794E+01    3.783E+01    3.772E+01    3.760E+01    3.749E+01    3.738E+01
     3.727E+01    3.715E+01    3.704E+01    3.693E+01    3.682E+01    3.670E+01    3.659E+01    3.648E+01    3.636E+01    3.625E+01
     3.613E+01    3.602E+01    3.590E+01    3.578E+01    3.566E+01    3.555E+01    3.543E+01    3.530E+01    3.518E+01    3.506E+01
     3.494E+01    3.481E+01    3.468E+01    3.456E+01    3.443E+01    3.430E+01    3.417E+01    3.404E+01    3.392E+01    3.379E+01
     3.366E+01    3.354E+01    3.341E+01    3.329E+01    3.317E+01    3.305E+01    3.293E+01    3.281E+01    3.270E+01    3.259E+01
     3.248E+01    3.237E+01    3.227E+01    3.217E+01    3.208E+01    3.198E+01    3.189E+01    3.181E+01    3.173E+01    3.166E+01
     3.158E+01    3.152E+01    3.146E+01    3.140E+01    3.135E+01    3.131E+01    3.128E+01    3.125E+01    3.123E+01    3.122E+01
     3.122E+01    3.123E+01    3.124E+01    3.127E+01    3.130E+01    3.135E+01    3.141E+01    3.148E+01    3.156E+01    3.166E+01
     3.176E+01    3.188E+01    3.202E+01    3.216E+01    3.233E+01    3.250E+01    3.270E+01    3.290E+01    3.313E+01    3.337E+01
     3.363E+01    3.390E+01    3.419E+01    3.449E+01    3.481E+01    3.514E+01    3.548E+01    3.583E+01    3.618E+01    3.655E+01
     3.692E+01    3.730E+01    3.768E+01    3.807E+01    3.845E+01    3.884E+01    3.923E+01    3.962E+01    4.001E+01    4.039E+01
     4.077E+01    4.114E+01    4.151E+01    4.186E+01    4.221E+01    4.256E+01    4.289E+01    4.320E+01    4.351E+01    4.380E+01
     4.407E+01    4.434E+01    4.458E+01    4.481E+01    4.503E+01    4.523E+01    4.541E+01    4.558E+01    4.574E+01    4.588E+01
     4.601E+01    4.612E+01    4.622E+01    4.630E+01    4.637E+01    4.643E+01    4.647E+01    4.650E+01    4.652E+01    4.652E+01
     4.651E+01    4.649E+01    4.645E+01    4.640E+01    4.634E+01    4.627E+01    4.618E+01    4.608E+01    4.597E+01    4.585E+01
     4.571E+01    4.556E+01    4.540E+01    4.523E+01    4.505E+01    4.486E+01    4.466E+01    4.444E+01    4.422E+01    4.399E+01
     4.375E+01    4.350E+01    4.324E+01    4.297E+01    4.269E+01    4.241E+01    4.212E+01    4.182E+01    4.151E+01    4.120E+01
     4.087E+01    4.055E+01    4.022E+01    3.988E+01    3.953E+01    3.918E+01    3.883E+01    3.847E+01    3.811E+01    3.774E+01
     3.737E+01    3.699E+01    3.661E+01    3.623E+01    3.585E+01    3.546E+01    3.507E+01    3.467E+01    3.428E+01    3.388E+01
     3.348E+01    3.308E+01    3.267E+01    3.227E+01    3.186E+01    3.145E+01    3.104E+01    3.063E+01    3.022E+01    2.981E+01
     2.940E+01    2.899E+01    2.858E+01    2.817E+01    2.776E+01    2.735E+01    2.694E+01    2.653E+01    2.612E+01    2.572E+01
     2.531E+01    2.491E+01    2.451E+01    2.411E+01    2.371E+01    2.332E+01    2.292E+01    2.253E+01    2.214E+01    2.175E+01
     2.136E+01    2.097E+01    2.059E+01    2.020E+01    1.982E+01    1.944E+01    1.906E+01    1.868E+01    1.831E+01    1.793E+01
     1.756E+01    1.719E+01    1.682E+01    1.645E+01    1.609E+01    1.572E+01    1.536E+01    1.500E+01    1.464E+01    1.428E+01
     1.392E+01    1.357E+01    1.321E+01    1.286E+01    1.251E+01    1.216E+01    1.181E+01    1.146E+01    1.112E+01    1.077E+01
     1.043E+01    1.009E+01    9.743E+00    9.401E+00    9.060E+00    8.719E+00    8.379E+00    8.040E+00    7.701E+00    7.362E+00
     7.024E+00    6.685E+00    6.347E+00    6.009E+00    5.671E+00    5.333E+00    4.995E+00    4.657E+00    4.318E+00    3.979E+00
 Mac      Conc. = 2.46E-04
   3.74427E+01  3.68328E+01  3.66329E+01  3.68505E+01  3.70520E+01  3.69787E+01  3.59194E+01  3.45859E+01  3.24746E+01  3.07687E+01
   2.94888E+01  2.91527E+01  2.93016E+01  2.91454E+01  2.94040E+01  2.82019E+01  2.43584E+01  2.14098E+01  2.27721E+01  2.83564E+01
   3.31250E+01  3.61298E+01  4.07964E+01  4.39304E+01  4.47205E+01  4.51765E+01  4.60889E+01  4.73581E+01  4.90408E+01  5.13194E+01
   5.34548E+01  5.48146E+01  5.58684E+01  5.66727E+01  5.69028E+01  5.60214E+01  5.49145E+01  5.50739E+01  5.74592E+01  6.09685E+01
   6.29885E+01  6.27456E+01  6.16502E+01  6.18152E+01  6.29736E+01  6.50938E+01  6.66583E+01  6.68725E+01  6.65815E+01  6.57557E+01
   6.43142E+01  6.25390E+01  6.12053E+01  6.05844E+01  5.99055E+01  5.91200E+01  5.84346E+01  5.86236E+01  6.02936E+01  6.17994E+01
   6.28001E+01  6.42189E+01  6.63801E+01  6.66842E+01  6.63359E+01  6.52123E+01  6.36098E+01  6.27321E+01  6.23977E+01  6.11622E+01
   6.02711E+01  6.14824E+01  6.47219E+01  6.74883E+01  6.91020E+01  7.01462E+01  7.06064E+01  7.00595E+01  6.90543E+01  6.79476E+01
   6.71954E+01  6.63948E+01  6.56641E+01  6.48655E+01  6.54554E+01  6.60650E+01  6.67475E+01  6.75368E+01  6.83253E+01  6.85738E+01
   6.91506E+01  6.93635E+01  7.00145E+01  7.01549E+01  7.03919E+01  6.99447E+01  6.83475E+01  6.61639E+01  6.36071E+01  6.06946E+01
   5.90739E+01  5.83603E+01  5.71673E+01  5.47733E+01  5.23317E+01  4.88089E+01  4.25971E+01  3.46789E+01  2.67814E+01  2.23496E+01
