 
 $NMID
 ID=''
 FMTDAT='(2E13.5)'
 TRAMP=   1.00000E+0
 VOLUME=   1.00000E+0
 $END
   3.32488E+4   4.97083E+3
   7.36197E+3  -2.24185E+4
  -7.75792E+3  -1.19655E+4
  -7.59769E+3   4.48079E+3
  -5.56905E+3   7.02535E+3
   2.09342E+2   3.08475E+3
   7.56359E+3   7.61115E+2
   5.55107E+3  -1.25102E+3
  -1.10360E+3  -2.53819E+3
  -4.45804E+3  -4.57413E+2
  -4.01085E+3   2.05369E+3
  -4.99277E+2   2.21568E+3
   2.27977E+3   1.29630E+3
   2.99215E+1  -8.35021E+2
  -1.47900E+3  -3.80398E+3
   3.41935E+2  -3.02692E+3
   3.16394E+2   1.53683E+3
  -1.21747E+3   3.11511E+3
   5.63751E+2  -1.23728E+2
   2.34156E+3  -9.13041E+2
   4.44265E+2   3.08939E+2
  -1.14450E+3  -1.23032E+2
  -7.72218E+1  -1.56721E+2
   3.82057E+2   1.07483E+3
  -2.70807E+1   2.64682E+2
   5.94820E+2  -1.39529E+3
   1.30343E+3  -4.51011E+2
  -5.29335E+2   1.15917E+3
  -1.42723E+3   4.97431E+2
  -3.87885E+2  -5.57566E+2
   5.58350E+2  -2.30940E+2
   3.31753E+2   2.68934E+2
  -3.14213E+2   7.18661E+2
  -1.10717E+3   1.65368E+1
  -6.53155E+2  -1.74124E+3
   1.63597E+3  -1.60321E+3
   1.84816E+3   7.08821E+2
  -6.55645E+2   1.36535E+3
  -1.04356E+3  -2.90870E+2
  -7.25683E+0  -3.23291E+2
  -2.89102E+2   3.79135E+2
  -9.89094E+2  -6.09441E+2
   1.54749E+0  -1.29828E+3
   9.41832E+2  -5.30371E+2
   5.80138E+2   3.20150E+2
   4.42566E+1   4.23052E+2
   3.21237E+2   8.03347E+2
  -3.54596E+2   1.19592E+3
  -8.87303E+2   3.50650E+2
  -6.95263E+2  -5.22289E+2
  -9.99444E+1  -5.35348E+2
  -3.92005E+1  -5.12983E+2
   2.12875E+2  -1.85358E+2
   3.16861E+2   1.98955E+2
   4.57227E+2   1.99304E+2
   2.12213E+2   5.06068E+2
  -1.24317E+2   8.55841E+1
  -4.34733E+2   2.11729E+1
  -2.52237E+2  -5.91974E+2
   1.45934E+2  -4.78408E+2
   7.35482E+2   2.84086E+2
   5.68331E+2   2.12646E+2
   3.03636E+2   3.71746E+2
   3.38011E+2   4.91576E+2
  -1.32001E+2   5.80439E+2
  -8.93141E+2   5.76974E+2
  -6.54489E+2  -1.96113E+2
   6.58065E+1  -8.76936E+2
   2.91697E+2  -4.14799E+2
   1.71550E+2  -1.08517E+1
  -1.65054E+2  -1.32322E+0
  -2.56714E+2  -4.62251E+2
   6.91229E+2  -3.94939E+2
   8.64119E+2   2.28804E+2
   3.79037E+1   3.31743E+2
  -9.00685E+1  -2.11589E+2
   4.65164E+2  -4.97763E+2
   3.19333E+2  -1.90587E+2
  -8.44365E+1  -1.93825E+1
  -1.49163E+2  -2.30821E+2
  -3.23100E+2   1.82389E+2
  -2.14220E+2   3.00666E+2
   1.42082E+0   7.80794E+1
   1.32242E+2  -2.70047E+2
  -1.34236E+2  -2.98409E+2
  -3.72018E+2   2.73129E+1
  -9.21790E+0  -1.62129E+2
   6.67895E+1  -6.24666E+1
   1.96000E+2   3.64052E+2
   2.31151E+1  -9.20955E+1
   1.59135E+2   5.88123E+1
   1.80268E+2   3.44260E+1
   1.86096E+2   2.85934E+2
  -1.50469E+2   3.76306E+2
  -4.39545E+2   4.26035E+0
  -4.10983E+2   6.88761E+1
   1.15996E+2  -7.70541E+1
   5.56928E+1  -8.74469E+1
  -1.28068E+2  -1.59324E+2
  -3.03709E+2  -3.93894E+2
   2.21469E+2  -2.81166E+2
   3.35608E+2   1.17701E+2
   2.29739E+2   5.03855E+2
  -3.31993E+2  -3.67931E+1
   4.47101E+1   2.36594E+2
   2.63152E+2  -2.42298E+2
   1.84747E+2   2.13773E+2
  -6.27908E+1   3.52215E+2
  -4.32444E+2   2.30570E+2
  -4.12961E+2  -8.34122E+1
   1.56236E+2  -2.70937E+2
   1.51714E+2  -1.06880E+2
   2.43097E+2   2.40585E+2
  -1.16584E+2  -1.61521E+2
   1.07885E+2  -5.99049E+1
  -1.65773E+1   2.95847E+2
  -2.51133E+1   3.12871E+2
  -4.79870E+1   3.91568E+2
  -3.68291E+2  -1.43331E+1
  -6.19852E+1   1.85760E+2
  -1.15978E+1  -1.04451E+2
  -5.02248E+0  -1.09381E+2
   2.66592E+2   8.61368E+1
   2.33780E+2   4.02175E+1
   1.27006E+2   2.43103E+2
  -3.31067E+1   1.77189E+2
  -1.67347E+2   8.01290E+1
   5.02155E+1   1.23992E+2
   1.68401E+2   1.43814E+2
  -1.56799E+2  -1.32171E+2
   8.22136E+1   7.16026E+1
   3.11816E+1   9.48263E+1
  -9.93193E+1   1.71387E+2
   1.61279E+2  -2.39888E+1
  -6.89701E+1   1.71642E+1
  -3.57699E+2   1.85074E+2
  -1.87556E+2   1.51464E+2
  -1.92519E+2   3.89698E+1
   2.08302E+2  -1.09916E+2
   1.68277E+2  -1.99832E+0
  -1.63720E+2  -1.01345E+2
  -7.80012E+1   5.24855E+1
  -1.20454E+2  -1.73380E+2
  -1.56546E+2  -2.49143E+1
  -7.54732E+1   1.48603E+2
   2.95726E-2  -7.85203E+0
  -1.39786E+2   1.62255E+2
  -4.42418E+1   5.01677E+1
   1.00445E+2   2.07762E+2
  -1.54049E+2   1.47491E+2
  -4.79827E+1   5.63488E+1
  -1.19045E+2   2.24867E+2
  -1.63231E+2   8.92501E+1
  -6.97397E+1   1.45960E+2
   2.51257E+2   1.80947E+2
  -2.01550E+1  -1.71616E+2
   1.03877E+2   9.46142E+1
  -6.10458E+1  -5.20782E+1
   3.05248E+1  -5.07530E+1
   2.03324E+2   1.65701E+2
   3.66155E+1   1.06044E+2
  -1.76047E+2   4.85558E+1
  -3.87682E+1   5.95165E+1
   1.61761E+1  -9.53268E+1
  -1.28260E+1  -1.61206E+2
   1.06544E+2  -2.88367E+1
  -9.59450E+0  -7.54603E+1
   1.58432E+2   1.05944E+2
  -3.58271E+1   8.95670E+1
   2.90857E+1  -9.96792E+1
   1.49699E+2   1.87055E+2
  -1.90664E+2   2.15974E+2
   1.51378E+2   1.57798E+2
  -3.52670E+1  -2.09412E+2
   1.36581E+1  -1.22062E+2
  -2.22940E+2   1.47127E+2
  -1.84720E+1  -1.16872E+2
   1.22549E+1   2.44373E+2
  -9.34994E+1   1.59606E+1
  -1.86916E+2  -4.17020E+1
  -1.37211E+2  -2.12249E+1
   1.26132E+2   3.29237E+2
   6.69326E+1  -1.02787E+2
  -1.05807E+2   6.71940E+1
   1.05351E+2   1.31142E+2
   1.74497E+2   4.15751E+1
   3.83227E+1   1.48923E+2
   4.85100E+1   7.12264E+1
   6.71263E+0  -3.55467E+1
  -7.20839E+1  -5.93851E+1
   1.88219E+2   2.72728E+2
   6.98510E+1   4.71950E+0
   5.41035E+1  -9.56473E+1
  -1.79541E+1  -2.19249E+2
   4.93446E+1  -9.55899E+1
  -6.78870E+0  -8.90263E+1
   1.47368E+2   5.29770E+1
  -1.22171E+2  -9.66311E+0
   7.75454E-1  -1.16989E+2
  -1.00574E+2  -1.58185E+2
   2.02327E+2   1.10335E+2
  -1.02361E+1  -1.27818E+2
   9.73669E+1  -8.90271E+1
   7.13572E+1  -2.63731E+1
   1.91061E+2  -1.73734E+2
   1.14703E+1  -1.26424E+2
   1.17904E+2  -1.11679E+2
  -1.97338E+2   9.00416E+1
   1.86679E+1  -2.23787E+1
   4.91038E+1   1.65499E+0
   1.27092E+2  -3.63053E+1
  -1.14935E+2  -1.70727E+2
  -1.90194E+2   5.37022E+0
   2.33479E+1  -1.15783E+2
  -4.24925E+1  -1.40711E+1
   6.14942E+1   3.00165E+1
  -5.43422E+1   1.07380E+2
   1.12117E+2   5.41837E+1
   9.48381E+0  -5.32089E+1
  -9.08028E+1   4.56816E+1
  -4.55458E+1  -9.83381E+1
  -2.27945E+2   9.04643E+1
  -1.46837E+2   1.25113E+2
   1.50892E+1   8.56047E+1
  -1.59928E+1  -1.01317E+2
  -5.38357E+1  -8.26265E+1
  -5.50129E+1   1.50616E+2
  -1.19294E+2  -1.69857E+2
  -2.29705E+2  -1.35191E+2
   2.53562E+1  -1.35109E+2
  -1.35671E+1   1.78186E+1
   2.06280E+1  -6.13092E+1
   5.60319E+1  -1.41441E+2
   5.25401E+1   3.95101E+1
  -2.03344E+1  -1.81615E+2
   7.37185E+1   1.48774E+2
  -1.94077E+2   7.69301E+1
  -1.13180E+2  -6.18676E+1
   1.51332E+2   2.41646E+2
  -1.40973E+2   5.25463E+0
  -1.07606E+2  -1.75530E+2
  -1.19327E+1  -6.82317E+0
   2.81936E+1  -5.07559E+1
  -1.50465E+1  -1.99568E+2
   1.61073E+2   6.48663E+1
  -1.22461E+2  -1.56696E+1
  -1.34876E+2   6.73762E+1
   1.96958E+1  -4.22223E+1
  -6.94641E+1  -6.38438E+0
   1.27060E+2   7.41987E+1
  -1.01965E+2   1.74876E+2
   2.78963E+2  -1.62417E+2
  -4.65306E-1  -1.55690E+2
   1.40424E+2  -9.30269E+1
  -3.21912E+1   1.79735E+2
  -1.59852E+2   6.59850E+0
   4.97406E+1  -1.88507E+2
  -1.31571E+1  -1.07298E+2
  -5.02774E+0   6.12085E+1
   6.80543E+1  -1.62377E+2
   5.73438E+1  -7.73464E+1
   5.35181E+1   1.65992E+1
   1.31964E+2   1.27457E+2
  -1.51201E+2   7.72899E+1
  -1.32204E+2  -2.14953E+1
   8.02405E+1   1.93706E+1
   1.70273E+2   3.36671E+1
  -1.43043E-1   2.43411E+2
   4.75962E+1   5.44576E+1
  -2.10543E+2  -1.56290E+1
  -6.83715E+1   6.85979E+1
   2.44846E+2   3.85245E+1
   1.34700E+2   2.16092E+2
  -1.86531E+2   8.59734E+1
  -6.32991E+1  -1.50587E+2
  -3.30179E+1  -1.48735E+2
   8.95747E+1   3.50366E+0
   1.11731E+2   1.39593E+2
   5.25439E+1  -1.53191E+2
   5.75698E+1   5.21939E+1
   2.50799E+1   2.86762E+2
  -4.49438E+1   1.22235E+2
   9.96809E+1   3.70117E+1
   1.68019E+2   1.22172E+2
   2.29695E+2   5.29027E+1
   2.17693E+2  -6.33869E+1
  -5.52353E+1  -1.17421E+2
  -1.14718E+2  -1.17752E+2
  -2.64667E+2   8.59526E+1
   3.09982E+1  -1.60037E+2
   1.16886E+2   1.28277E+1
  -3.53249E+1   4.72460E+1
  -1.18456E+2   3.06337E+1
   1.08737E+2  -1.19602E+2
  -4.70795E+1  -8.97812E+1
   1.09835E+2  -4.09456E+1
   2.61599E+1   5.02734E+1
   9.93764E+1   1.76828E+2
   6.47159E+1  -5.06926E+1
  -2.40588E+1   6.22620E+1
   4.55941E+1  -1.41326E+1
  -8.42195E+0  -8.91008E+1
  -8.79128E+1  -1.56742E+2
  -2.97554E+1   6.48145E+1
   1.23527E+2   7.22141E+1
   8.90212E+1   1.68599E+2
  -8.31209E+1   1.64236E+2
   1.18774E+2  -1.57484E+1
   1.37670E+2  -1.37335E+2
  -1.09346E+2   2.34897E+2
   1.04950E+2   4.36470E+1
  -8.41551E+1  -2.16262E+2
  -8.88711E+1  -2.99018E+2
  -1.83522E+2   9.30218E+1
   5.10707E+1  -1.37411E+2
   8.97555E+1  -1.94383E+2
  -3.63410E+1  -2.01759E+2
  -1.70102E+1   1.05358E+2
   6.86574E+1  -2.72746E+1
   3.02761E+1  -9.53061E+1
   5.95207E+0   5.88145E+1
  -8.96138E+1  -1.89927E+2
  -7.88060E+1   1.25614E+2
  -5.53145E+1  -6.34108E+1
   4.10227E+2  -1.96520E+1
   8.50187E+1  -3.06250E+1
   9.22205E+0  -2.45561E+0
   4.38874E+1   1.10559E+2
  -1.19481E+2  -1.37970E+1
   2.80852E+2   2.78209E+2
  -1.34657E+2   9.70174E+1
  -5.26643E+0  -2.47976E+2
  -4.79691E+1   3.31174E+1
   3.40092E+1   2.43657E+1
  -7.70165E+1   2.60232E+2
   4.25328E+2   3.28034E+1
   3.29391E+1  -1.10454E+2
  -3.55702E+1  -7.24918E-1
  -3.51888E+1  -5.33091E+1
   1.08274E+2  -1.60025E+1
  -2.54934E+1   1.84427E+2
  -4.11438E+1  -1.32931E+2
  -4.45345E+1   6.67964E+1
   4.43456E+1  -2.39320E+2
  -5.94514E+0   2.19142E+1
   6.13227E+1   1.69844E+2
  -5.35824E+1   1.57991E+2
   9.95417E+1  -1.98547E+0
   3.42597E+1  -1.25113E+2
   2.88252E+2  -1.32778E+1
   6.26486E+1  -6.27368E+1
  -5.55008E+1   2.93826E+2
   1.84818E+1  -2.42250E+2
   1.49593E+2   9.03318E+1
   5.06919E+1   7.65890E+1
  -2.26173E+1   1.19351E+0
   9.23550E+0   1.03776E+1
   1.94216E+2   1.78460E+2
   3.09242E+1  -1.08637E+1
   3.10981E+2  -2.41808E+1
   1.39635E+2   1.42549E+2
   1.21182E+2  -5.72827E+0
  -1.44074E+2   3.38309E+2
  -4.83911E+1   9.85784E+1
   5.72668E+1   8.23667E+0
   1.19053E+2  -2.92929E+1
  -1.24845E+2   4.72337E+2
