 
 $NMID
 ID=''
 FMTDAT='(2E13.5)'
 TRAMP=   1.00000E+0
 VOLUME=   1.00000E+0
 $END
  -1.00030E+4  -1.92274E+4
  -1.99202E+4  -1.85725E+2
   5.45672E+3   1.87136E+4
   2.04548E+4  -2.56576E+3
  -9.91937E+3  -1.48611E+4
  -1.30799E+4   6.81047E+3
   1.48225E+4   7.29538E+3
   5.97062E+3  -9.31874E+3
  -1.13522E+4   7.73158E+2
   4.23835E+3   1.04933E+4
   6.57457E+3  -2.47755E+3
  -9.07266E+3  -5.13166E+3
  -4.04963E+3   4.88913E+3
   5.21043E+3   2.73121E+3
  -1.78380E+3  -3.16285E+3
  -3.98564E+3  -1.23074E+3
   2.30710E+3   1.00485E+3
   2.26448E+3   2.90847E+2
  -7.71439E+2   2.78239E+2
  -5.18295E+2   6.53529E+2
   2.84001E+2  -1.41046E+3
   6.48542E+2  -2.45599E+3
   6.89664E+2   1.32538E+3
  -3.46868E+2   3.43632E+3
  -8.48984E+2  -1.60279E+3
   1.20251E+3  -2.64878E+3
   1.99889E+3   3.30607E+3
  -1.16579E+3   2.56077E+3
  -2.20505E+3  -2.79627E+3
   2.10343E+3  -1.36440E+3
   2.12034E+3   2.86908E+3
  -2.31564E+3   1.15089E+3
  -2.14325E+3  -2.31320E+3
   9.68130E+2  -1.99361E+3
   7.85851E+2  -9.57266E+2
   4.49784E+2  -1.19662E+3
   8.33449E+2  -1.27798E+2
   3.69090E+2   1.21561E+3
  -1.51672E+2   7.32733E+2
  -6.56083E+2  -4.93962E+2
  -1.27671E+3  -2.48652E+2
  -4.80145E+2   1.59885E+2
   8.09348E+2  -5.52799E+2
   9.75204E+2  -1.08610E+3
   1.73245E+3  -8.07168E+2
   1.23125E+3   1.44235E+3
  -9.47350E+2   2.57508E+3
  -2.60848E+3   3.97761E+2
  -1.10147E+3  -2.08013E+3
   1.81620E+2  -1.13861E+3
   1.19621E+2  -4.42202E+2
  -4.31470E+2  -1.22700E+3
   5.72917E+2  -5.61798E+2
   1.36639E+3   9.02060E+2
   2.87654E+2   2.49726E+2
  -4.54986E+2  -2.82348E+2
  -5.71497E+2   2.16741E+2
  -4.47737E+2  -6.99531E+2
   4.33614E+1  -1.15250E+3
   9.78435E+2  -7.74947E+2
   1.04722E+3   8.87033E+0
   2.56458E+2   7.75917E+2
  -3.45757E+2   1.36358E+3
  -7.55245E+2   8.33541E+2
  -1.38656E+3  -1.02401E+2
  -1.27450E+3  -6.25065E+2
  -3.78512E+2  -1.40343E+3
   6.38109E+2  -1.54601E+3
   1.08905E+3  -2.82607E+1
   3.85541E+2   1.06251E+3
  -7.15652E+2  -1.02295E+2
   1.23654E+2  -1.14227E+3
   1.26352E+3   3.13438E+2
   5.78994E+2   1.08726E+3
  -7.54481E+2   4.60724E+2
  -2.31931E+2  -1.65300E+2
   4.72980E+2   5.90390E+1
  -1.32628E+2   5.28693E+2
  -4.16173E+2   6.98951E+2
  -1.61637E+2   1.79551E+2
  -3.62476E+2  -1.50341E+2
  -4.17332E+2  -2.24745E+2
  -4.53515E+0  -2.44286E+2
   1.02782E+2   1.80891E+2
   1.54573E+1  -1.22307E+2
   8.58251E+1  -4.72918E+2
   4.43676E+2  -1.98009E+2
   3.08073E+2   4.40801E+2
   1.41472E+1   4.53579E+2
   3.22488E+2   4.19653E+2
   7.30401E+2   4.79868E+1
   1.92762E+2   3.13791E+2
  -4.43745E+2   6.85932E+2
  -1.10841E+3   3.58868E+2
  -3.83066E+2  -6.83890E+2
   3.63522E+2  -5.37414E+2
   4.51534E+2  -3.82042E+1
  -1.23694E+2   8.93854E+1
  -4.03782E+1  -3.89610E+2
   4.63032E+2  -1.04407E+2
   6.77673E+2   4.12457E+2
  -1.38840E+2   5.13924E+2
  -4.40210E+2   8.71192E+1
  -1.22062E+2  -8.83411E+1
   5.80203E+1  -1.38384E+2
   5.36661E+2   2.75979E+2
   2.58074E+2   5.65474E+2
  -5.67230E+2   3.15813E+2
  -1.14859E+3  -6.71342E+2
   2.24327E+2  -7.88593E+2
   1.21899E+3  -2.75013E+2
   5.91454E+2   4.65610E+2
  -4.28562E+2   6.75023E+2
  -2.17553E+2   3.12235E+2
   2.87261E+2   2.83518E+2
  -7.13669E+0   6.28570E+2
  -7.40192E+2   1.48677E+2
  -6.23823E+2  -5.33774E+2
   1.19543E+2  -7.61984E+2
   4.03546E+2  -3.36516E+2
   6.85110E+2   4.47024E+1
   6.69497E+2   2.24569E+2
   4.45955E+2   2.73122E+2
   1.48984E+2   3.97432E+2
  -1.78797E+2   2.57702E+2
  -1.66332E+2  -2.20949E+2
   2.52799E+2  -3.09312E+2
   1.29065E+2  -2.63440E+2
   1.40763E+2  -2.65176E+2
   3.44231E+1   1.33167E+2
   4.80983E+1   5.24455E+2
  -3.44321E+2   2.52231E+2
  -2.30474E+2  -2.22800E+2
   3.42413E+2  -1.69201E+2
   6.73310E+1   1.87308E+2
   4.03709E+1   1.30628E+1
   2.90651E+1  -1.68210E+2
   6.29437E+2   4.97671E+1
   2.90446E+2   4.76525E+2
  -3.56311E+2   3.81957E+2
  -1.77978E+2  -3.81586E+2
  -9.69128E+1  -3.98311E+2
   5.54541E+2  -3.96367E+2
   2.90552E+2   4.10696E+2
  -1.35670E+2   5.35288E+2
  -3.66554E+2   2.53909E+2
  -1.32529E+2   7.57643E+1
  -1.63240E+2   1.62054E+2
  -8.21793E+1  -6.96869E+1
  -2.87384E+2  -2.62429E+2
  -1.43900E+1  -4.55346E+2
   1.78323E+2   7.90260E-1
   4.90503E+2   9.72080E+1
   6.32129E+1   4.76034E+2
  -1.76867E+2   1.51640E+2
  -1.29930E+1  -2.23548E+2
   1.25832E+2  -3.30285E+1
  -1.66982E+2   3.60938E+2
  -3.43518E+2   3.98721E+2
  -1.28635E+2   9.55431E+1
   4.51105E+1   2.82911E+2
  -2.52748E+2   1.60583E+2
  -1.38560E+2   1.08669E+2
  -2.21631E+2  -1.91231E+2
  -5.27609E+1  -2.01172E+2
   2.38696E+2  -1.39078E+2
   2.28535E+2   3.26580E+2
   7.18544E+1   4.25290E+2
  -1.60102E+2   1.17613E+2
   8.97395E+1  -2.26310E+2
   7.89434E+1   3.47288E+1
   2.24279E+2   3.27432E+2
  -7.99045E+1   1.52539E+2
  -1.11204E+2   1.62182E+2
   1.25944E+2  -1.71744E+2
  -8.97107E+1   2.03066E+2
  -1.00211E+2   1.40420E+2
  -4.00497E+2   1.83892E+2
  -9.91722E+1  -3.64363E+2
   4.82179E+1  -1.31011E+2
   2.36292E+2   3.33840E+2
   3.53609E+1   4.29527E+2
  -2.76050E+2   3.81597E+1
  -1.88064E+2  -2.37105E+2
  -1.99527E+2   3.50160E+1
  -1.35055E+2  -1.07053E+2
   1.55268E+2  -1.50779E+2
   1.57706E+2  -1.09641E+2
   3.81820E+2   1.01409E+2
   4.59713E+2   2.12404E+2
   3.29007E+1   2.65922E+2
  -2.22357E+2  -8.37524E+1
  -2.24641E+2  -2.95490E+2
  -1.24238E+2  -2.66705E+2
   2.13139E+2  -3.81439E+2
   4.51797E+1  -1.74833E+2
  -1.45891E+2   1.84773E+2
  -7.55514E+0   6.00878E+1
  -7.70991E+1  -8.80053E+1
  -2.99255E+1   1.83400E+2
  -4.17728E+2  -4.72621E+0
  -2.88883E+0  -2.25105E+2
   1.04715E+2  -3.28324E+2
   8.99849E+1  -1.07571E+2
   6.12671E+1   7.99176E+1
  -2.15616E+2   7.71901E+1
  -3.11306E+2   1.42988E+1
  -1.10476E+2   1.20804E+2
   7.55365E+1  -3.32306E+1
  -6.10238E+1  -3.60573E+1
  -5.92478E+1  -1.80786E+2
   4.53237E+1  -1.90948E+2
   1.83401E+1  -1.03252E+2
  -1.14812E+2   2.73894E+2
  -1.40343E+2   8.53074E+1
  -5.28816E+2  -1.94671E+2
  -3.02385E+1  -3.12254E+2
  -1.54623E+2  -1.14643E+1
  -2.98448E+1  -1.68215E+2
   1.06746E+2  -2.13608E+2
   7.80712E+1  -1.30511E+2
   9.64109E+0  -8.15578E+1
  -1.83612E+2   6.52564E+1
  -1.42933E+2   2.44695E+2
  -5.60652E+2  -6.41781E+1
   2.55896E+1  -2.62705E+2
   1.18629E+2   5.47463E+1
   1.24956E+1   6.04809E+1
   1.19657E+1   6.48912E+1
  -1.91415E+2   4.53630E+1
   1.36755E+2  -1.32089E+2
   1.98673E+1   5.34246E+1
  -1.62099E+2   1.06093E+2
   5.06940E+1   5.05711E+1
  -2.76687E+2  -4.20689E+1
  -3.04856E+1  -1.26287E+2
  -2.34109E+1  -8.93179E+1
   1.29128E+2   1.21619E+2
  -2.37083E+2   5.68234E+1
  -1.05273E+2  -6.69664E+1
  -3.12650E+1   1.33590E+1
   3.07878E+1  -2.89901E+1
   2.32141E+2  -4.24593E+1
  -1.69580E+2  -6.84956E+1
  -1.69161E+2   1.18422E+2
  -5.57348E+1  -4.09912E+1
   5.79553E+0  -3.67645E+1
   3.28399E+1   1.66251E+2
   6.08983E+1   1.77870E+1
  -5.12336E+1   8.90533E+1
   8.61936E+1   1.65662E+2
  -6.96809E+1   8.15292E+1
  -7.14927E+0  -1.52650E+1
  -2.37571E+2  -3.69606E+2
   2.10541E+2  -2.68248E+2
   3.83416E+2  -1.59258E+2
  -3.00102E+1  -8.54091E+1
  -1.03947E+2   5.77731E+0
   3.42830E+0  -6.57837E+1
  -7.42099E+1  -1.87652E+1
  -8.74315E+1   6.39977E+1
  -2.31150E+2  -2.49244E+2
  -2.94164E+2  -1.17096E+2
   2.18867E+2  -1.42725E+2
   3.53214E+2  -1.97069E+2
  -5.57047E+1   2.40328E+2
  -3.82587E+2   8.89625E+1
  -1.95087E+2  -9.94001E+1
  -4.89750E+0  -1.94193E+2
  -1.54749E+2   4.91085E+1
   2.63264E+0   4.52765E+1
   6.51179E+1  -1.85077E+2
  -1.39457E+2  -8.00386E+1
   9.48851E+1   1.26538E+2
  -5.41857E+1  -2.46342E+2
  -3.54601E+2   8.32560E+1
  -2.02474E+2  -2.39626E+2
   5.69648E+1  -3.85514E+2
   2.10696E+2  -1.82334E+2
   1.45384E+2  -2.08230E+2
  -2.14550E+2  -8.88394E+0
   3.28125E+1   3.44857E+1
  -1.93429E+2  -2.11527E+2
  -1.09608E+2   2.12465E+2
  -1.20461E+2   6.38459E+1
  -4.02989E+2   4.05544E+1
   8.46245E+0  -3.45281E+2
   2.24032E+2  -1.30083E+2
   1.96399E+2   1.50286E+2
   9.00030E+1   1.49356E+2
  -1.47532E+2   1.58346E+2
  -1.94951E+2   1.16887E+2
  -2.66579E+2   6.09533E+1
  -2.52587E+1  -1.35056E+2
  -1.80591E+2  -1.25195E+2
  -1.25338E+2  -1.56878E+2
  -4.67752E+1  -4.08416E+1
   3.95148E+1   7.05172E+1
  -1.23188E+2   7.70374E+1
  -2.39842E+2  -7.52988E+1
   3.34339E+1  -1.42872E+2
  -1.21033E+2  -3.33943E+2
   2.13340E+1  -5.88959E+1
   7.36472E+1   7.39724E+1
  -1.59407E+2  -6.20107E+1
  -7.25278E+1  -4.33458E+2
  -5.27043E+1  -8.07261E+1
   5.71427E+1  -2.45076E+2
   3.73141E+1   2.97660E+1
   1.01010E+1   3.22847E+0
  -6.43753E+1  -2.05506E+2
  -1.68207E+2  -8.78467E+0
   6.23417E+1   3.18901E+2
  -3.05733E+1   1.15662E+2
  -1.44802E+2  -3.71875E+1
  -9.38650E+1  -2.27358E+2
   6.91633E+1  -1.01438E+2
  -4.74860E+1   9.00091E+1
  -2.89830E+2  -9.28402E+1
   1.28503E+2  -2.86130E+2
  -9.95803E+0  -1.80897E+2
  -2.11069E+1  -4.62379E+1
  -2.15831E+2  -1.91977E+2
  -2.78390E+2  -4.58985E+1
   3.02310E+1  -2.71762E+2
   1.24499E+1  -1.49280E+2
  -8.22309E+0   1.35454E+2
  -1.64565E+2   4.96037E+1
   7.99642E+1  -1.10475E+2
   3.23003E+1  -2.25522E+2
   1.65588E+2   1.66722E+2
   2.08318E+2  -1.80436E+1
  -9.29103E+1  -9.61879E+1
   8.96932E+0  -6.70345E+1
   2.98117E+1   5.33363E+1
   8.32373E+1   4.45262E+1
  -3.91869E+1   1.10336E+2
  -1.40821E+2   1.14020E+1
  -8.67186E+1  -2.79352E+2
   1.69965E+2   3.21769E+1
   5.52216E+1  -1.26433E+2
   2.65688E+2   7.98673E+1
  -6.10315E+1  -4.19228E+1
  -6.80048E+1  -7.94298E+1
   9.19736E+1  -1.01467E+2
  -1.09676E+2  -3.36396E+1
  -1.12821E+2  -2.35640E+2
   3.03379E+2  -6.39868E+1
   5.10362E+1   2.83391E+1
   2.65959E+2   8.86081E+1
  -3.18892E+2   1.07441E+2
  -1.50641E+2  -2.02532E+2
   1.19571E+2  -2.28225E+2
   6.43805E+1  -1.28900E+2
  -4.54733E+1  -4.98193E+1
   3.84202E+1  -7.84883E+1
  -1.29575E+2  -1.45724E+2
   1.38562E+2  -1.54334E+2
   2.69836E+2  -1.80839E+2
   1.56435E+2   1.42267E+2
  -6.06343E+1   6.54274E+1
  -3.73184E+2  -2.83272E+2
   1.91028E+2  -1.20710E+2
   1.99905E+2  -9.45004E+1
   1.22496E+2   2.57474E+2
  -5.19616E+1  -1.31738E+2
   6.66619E+1  -5.46625E+1
