 LCModel (Version 6.3-1N) Copyright: S.W. Provencher.          Ref.: Magn. Reson. Med. 30:672-679 (1993).                
 Slice_N1@15_11  28-Feb-2025 11:37:41
 27 lines in following concentration table = NCONC+1
    Conc.  %SD /Cr+PCr  Metabolite                                         
 2.54E-04   5% 1.9E-04 Mac                                                 
    5.704  33%   4.323 Cr                                                  
    4.852  38%   3.677 PCr                                                 
    7.246  14%   5.492 Ins                                                 
   12.562   7%   9.520 NAA                                                 
    7.244  14%   5.490 Tau                                                 
    2.192  16%   1.661 PCho                                                
    0.000 999%   0.000 GPC                                                 
   11.058  10%   8.381 Glu                                                 
    3.784  23%   2.868 Gln                                                 
    0.000 999%   0.000 Ala                                                 
    2.021  67%   1.532 Asc                                                 
    3.397  34%   2.574 Asp                                                 
    0.774  78%   0.586 GABA                                                
    0.613 129%   0.465 Glc                                                 
    1.379  40%   1.045 GSH                                                 
    9.943   8%   7.536 Lac                                                 
    1.171  64%   0.888 NAAG                                                
    2.304  58%   1.746 PE                                                  
    2.192  16%   1.661 GPC+PCho                                            
   13.733   6%  10.408 NAA+NAAG                                            
   14.843  10%  11.249 Glu+Gln                                             
   10.556   7%   8.000 Cr+PCr                                              
   13.733   6%  10.408 NAA+NAAG                                            
   10.556   7%   8.000 Cr+PCr                                              
   14.843  10%  11.249 Glu+Gln                                             
   6 lines in following misc. output table
  FWHM = 0.041 ppm    S/N =   4                                            
  Data shift = 0.008 ppm                                                   
  Ph: 176 deg       0.0 deg/ppm                                            
  alphaB,S = 1.3E-01,   4.6E+01                                            
   19 spline knots.   Ns = 5(1)                                            
  ( 6) 3 infls.   ( 4) 2 extrs.                                            
  480 points on ppm-axis = NY
      4.100000     4.091866     4.083733     4.075600     4.067466     4.059333     4.051199     4.043066     4.034933     4.026799
      4.018666     4.010532     4.002399     3.994265     3.986132     3.977998     3.969864     3.961731     3.953597     3.945463
      3.937330     3.929196     3.921062     3.912929     3.904795     3.896662     3.888528     3.880394     3.872261     3.864127
      3.855993     3.847860     3.839726     3.831592     3.823459     3.815325     3.807191     3.799058     3.790924     3.782790
      3.774657     3.766523     3.758389     3.750256     3.742122     3.733989     3.725855     3.717721     3.709588     3.701454
      3.693320     3.685187     3.677053     3.668919     3.660786     3.652652     3.644518     3.636385     3.628251     3.620117
      3.611984     3.603850     3.595716     3.587583     3.579449     3.571316     3.563182     3.555048     3.546915     3.538781
      3.530647     3.522514     3.514380     3.506246     3.498113     3.489979     3.481845     3.473712     3.465578     3.457444
      3.449311     3.441177     3.433043     3.424910     3.416776     3.408643     3.400509     3.392375     3.384242     3.376108
      3.367974     3.359841     3.351707     3.343573     3.335440     3.327306     3.319172     3.311039     3.302905     3.294771
      3.286638     3.278504     3.270370     3.262237     3.254103     3.245970     3.237836     3.229702     3.221569     3.213435
      3.205301     3.197168     3.189034     3.180900     3.172767     3.164633     3.156499     3.148366     3.140232     3.132098
      3.123965     3.115831     3.107697     3.099564     3.091430     3.083297     3.075163     3.067029     3.058896     3.050762
      3.042628     3.034495     3.026361     3.018227     3.010094     3.001960     2.993826     2.985693     2.977559     2.969425
      2.961292     2.953158     2.945024     2.936891     2.928757     2.920624     2.912490     2.904356     2.896223     2.888089
      2.879955     2.871822     2.863688     2.855554     2.847421     2.839287     2.831153     2.823020     2.814886     2.806752
      2.798619     2.790485     2.782351     2.774218     2.766084     2.757951     2.749817     2.741683     2.733550     2.725416
      2.717282     2.709149     2.701015     2.692881     2.684748     2.676614     2.668480     2.660347     2.652213     2.644079
      2.635946     2.627812     2.619678     2.611545     2.603411     2.595278     2.587144     2.579010     2.570877     2.562743
      2.554609     2.546476     2.538342     2.530208     2.522075     2.513941     2.505807     2.497674     2.489540     2.481406
      2.473273     2.465139     2.457006     2.448872     2.440738     2.432605     2.424471     2.416337     2.408204     2.400070
      2.391936     2.383803     2.375669     2.367535     2.359402     2.351268     2.343134     2.335001     2.326867     2.318733
      2.310600     2.302466     2.294333     2.286199     2.278065     2.269932     2.261798     2.253664     2.245531     2.237397
      2.229263     2.221130     2.212996     2.204862     2.196729     2.188595     2.180461     2.172328     2.164194     2.156060
      2.147927     2.139793     2.131660     2.123526     2.115392     2.107259     2.099125     2.090991     2.082858     2.074724
      2.066590     2.058457     2.050323     2.042189     2.034056     2.025922     2.017788     2.009655     2.001521     1.993387
      1.985254     1.977120     1.968987     1.960853     1.952719     1.944586     1.936452     1.928318     1.920185     1.912051
      1.903917     1.895784     1.887650     1.879516     1.871383     1.863249     1.855115     1.846982     1.838848     1.830714
      1.822581     1.814447     1.806314     1.798180     1.790046     1.781913     1.773779     1.765645     1.757512     1.749378
      1.741244     1.733111     1.724977     1.716843     1.708710     1.700576     1.692442     1.684309     1.676175     1.668041
      1.659908     1.651774     1.643641     1.635507     1.627373     1.619240     1.611106     1.602972     1.594839     1.586705
      1.578571     1.570438     1.562304     1.554170     1.546037     1.537903     1.529769     1.521636     1.513502     1.505368
      1.497235     1.489101     1.480968     1.472834     1.464700     1.456567     1.448433     1.440299     1.432166     1.424032
      1.415898     1.407765     1.399631     1.391497     1.383364     1.375230     1.367096     1.358963     1.350829     1.342695
      1.334562     1.326428     1.318295     1.310161     1.302027     1.293894     1.285760     1.277626     1.269493     1.261359
      1.253225     1.245092     1.236958     1.228824     1.220691     1.212557     1.204423     1.196290     1.188156     1.180022
      1.171889     1.163755     1.155622     1.147488     1.139354     1.131221     1.123087     1.114953     1.106820     1.098686
      1.090552     1.082419     1.074285     1.066151     1.058018     1.049884     1.041750     1.033617     1.025483     1.017349
      1.009216     1.001082     0.992949     0.984815     0.976681     0.968548     0.960414     0.952280     0.944147     0.936013
      0.927879     0.919746     0.911612     0.903478     0.895345     0.887211     0.879077     0.870944     0.862810     0.854676
      0.846543     0.838409     0.830276     0.822142     0.814008     0.805875     0.797741     0.789607     0.781474     0.773340
      0.765206     0.757073     0.748939     0.740805     0.732672     0.724538     0.716404     0.708271     0.700137     0.692003
      0.683870     0.675736     0.667603     0.659469     0.651335     0.643202     0.635068     0.626934     0.618801     0.610667
      0.602533     0.594400     0.586266     0.578132     0.569999     0.561865     0.553731     0.545598     0.537464     0.529330
      0.521197     0.513063     0.504930     0.496796     0.488662     0.480529     0.472395     0.464261     0.456128     0.447994
      0.439861     0.431727     0.423593     0.415460     0.407326     0.399192     0.391059     0.382925     0.374792     0.366658
      0.358524     0.350391     0.342257     0.334124     0.325990     0.317856     0.309723     0.301589     0.293455     0.285322
      0.277188     0.269055     0.260921     0.252787     0.244654     0.236520     0.228386     0.220253     0.212119     0.203986
 NY phased data points follow
  -1.19393E+02 -1.30133E+02 -1.44218E+02 -1.39032E+02 -1.43846E+02 -1.50522E+02 -1.31885E+02 -1.21686E+02 -1.36296E+02 -1.48640E+02
  -1.54820E+02 -1.47827E+02 -1.55603E+02 -1.67105E+02 -1.66620E+02 -1.69764E+02 -1.72985E+02 -1.80670E+02 -1.67717E+02 -1.91508E+02
  -2.02520E+02 -1.71703E+02 -1.64377E+02 -1.25331E+02 -1.05860E+02 -9.34596E+01 -7.60428E+01 -8.33801E+01 -7.62489E+01 -8.09774E+01
  -7.74063E+01 -7.89580E+01 -8.48265E+01 -8.67095E+01 -9.59025E+01 -9.07568E+01 -1.01116E+02 -1.17102E+02 -1.25365E+02 -1.28885E+02
  -1.45447E+02 -1.48479E+02 -1.35527E+02 -1.31019E+02 -9.55644E+01 -8.25750E+01 -5.97265E+01 -4.19410E+01 -3.82250E+01 -2.12934E+01
  -4.82052E+01 -3.73388E+01 -5.66909E+01 -8.18911E+01 -7.47330E+01 -9.46212E+01 -8.36434E+01 -9.75442E+01 -9.80906E+01 -8.75067E+01
  -9.30781E+01 -7.64123E+01 -5.60965E+01 -5.77182E+01 -5.94771E+01 -4.18079E+01 -5.62499E+01 -7.03674E+01 -8.52703E+01 -1.05900E+02
  -1.19848E+02 -1.06052E+02 -7.72148E+01 -6.87562E+01 -5.56253E+01 -4.32357E+01 -2.86211E+01 -3.70356E+01 -4.08038E+01 -4.54387E+01
  -3.99778E+01 -4.36725E+01 -6.79763E+01 -6.54557E+01 -8.93417E+01 -9.08512E+01 -7.47918E+01 -5.71879E+01 -4.08931E+01 -3.12497E+01
  -2.99707E+01 -3.17161E+01 -1.48226E+01 -2.05006E+01 -1.89082E+00 -8.91548E+00 -2.04624E+01 -1.06432E+01 -1.87376E+01 -1.76306E+01
  -2.43089E+01 -3.15254E+01 -5.37241E+01 -6.84270E+01 -8.48883E+01 -8.72949E+01 -9.17421E+01 -1.15844E+02 -1.38367E+02 -1.69358E+02
  -1.95421E+02 -2.29677E+02 -2.18828E+02 -1.78463E+02 -1.31009E+02 -1.02004E+02 -1.01534E+02 -9.94452E+01 -8.99981E+01 -7.43013E+01
  -7.34219E+01 -5.30394E+01 -5.96950E+01 -5.58610E+01 -4.51080E+01 -4.62607E+01 -2.86673E+01 -2.06919E+01  2.87657E+01  4.29622E+01
   3.15056E+01  1.49970E+01 -5.34027E+01 -1.25795E+02 -1.83925E+02 -2.01514E+02 -1.72777E+02 -1.41791E+02 -1.49470E+02 -1.55763E+02
  -1.48895E+02 -1.34954E+02 -1.40198E+02 -1.47007E+02 -1.34370E+02 -1.43794E+02 -1.28077E+02 -1.26782E+02 -1.23827E+02 -1.11242E+02
  -1.27980E+02 -1.11309E+02 -9.51462E+01 -1.07875E+02 -1.20127E+02 -1.06938E+02 -8.92763E+01 -8.04747E+01 -9.45893E+01 -9.68317E+01
  -7.20263E+01 -8.05230E+01 -7.35617E+01 -8.69905E+01 -9.16093E+01 -7.88427E+01 -8.69956E+01 -6.48108E+01 -8.78622E+01 -8.74898E+01
  -5.84425E+01 -5.75067E+01 -5.86548E+01 -6.34941E+01 -3.62177E+01 -4.57650E+01 -6.75056E+01 -6.62230E+01 -5.84202E+01 -5.16742E+01
  -8.53797E+01 -1.09815E+02 -1.00156E+02 -1.04790E+02 -1.15552E+02 -1.06686E+02 -1.18992E+02 -9.71500E+01 -8.01970E+01 -1.01882E+02
  -9.86072E+01 -9.65423E+01 -7.07300E+01 -7.28274E+01 -8.01131E+01 -7.07586E+01 -7.17877E+01 -6.06032E+01 -6.19829E+01 -6.50314E+01
  -7.20026E+01 -5.58608E+01 -5.68400E+01 -5.93895E+01 -5.10832E+01 -6.15810E+01 -6.85226E+01 -9.61215E+01 -9.27248E+01 -1.05312E+02
  -1.10054E+02 -8.42921E+01 -9.04588E+01 -8.07203E+01 -6.83862E+01 -3.38414E+01 -8.01723E+00  4.12328E+00  6.23810E+00 -3.12885E+01
  -4.00310E+01 -4.78673E+01 -5.85612E+01 -5.35733E+01 -5.64012E+01 -5.45836E+01 -5.55622E+01 -5.39162E+01 -4.24590E+01 -5.14971E+01
  -6.97019E+01 -6.41529E+01 -7.76663E+01 -9.54351E+01 -8.60548E+01 -9.54973E+01 -1.25586E+02 -1.33375E+02 -1.14813E+02 -1.11522E+02
  -1.11163E+02 -1.03108E+02 -1.05402E+02 -8.83410E+01 -6.90479E+01 -7.89780E+01 -8.06814E+01 -8.73738E+01 -9.30184E+01 -8.35412E+01
  -1.01910E+02 -1.06909E+02 -1.13766E+02 -1.26782E+02 -1.20842E+02 -1.21027E+02 -9.03320E+01 -4.47966E+01  2.94577E+01  1.28077E+02
   1.51647E+02  1.11931E+02  9.57494E+01  7.86426E+01  4.33549E+01  3.52887E+01  2.64108E+01  1.90543E+01  2.33946E+01  2.83176E+01
   2.48884E+01  2.16069E+01  1.75297E+01  4.51290E+00  1.78452E+01  2.21581E+01  6.67699E+00  1.58037E+01  1.83442E+01  1.79227E+00
   1.64286E+01  1.16447E+01  5.14289E+00  1.24757E+01 -1.17025E+01  2.63741E+00 -2.30516E+00 -5.16366E+00  8.07192E+00  1.88849E+00
   1.43987E+01 -3.53688E+00 -6.85651E+00 -1.36182E+01 -2.52428E+01 -3.18003E+01 -5.16075E+01 -3.03222E+01 -2.77805E+01 -3.39961E+01
  -1.03626E+01  1.63776E+00  3.22641E+00  7.66311E+00  2.10915E+01  2.97068E+01  3.11117E+01  4.96659E+01  5.38796E+01  5.02481E+01
   6.03421E+01  6.16410E+01  6.94465E+01  6.33942E+01  5.89244E+01  6.01655E+01  6.51710E+01  7.09995E+01  6.07617E+01  7.12297E+01
   5.42225E+01  4.54871E+01  5.18830E+01  3.36740E+01  3.26574E+01  2.63031E+01  4.86789E+01  6.23479E+01  5.83411E+01  6.80544E+01
   6.44853E+01  7.42428E+01  5.69218E+01  3.45068E+01  2.34767E+01  1.40292E+01 -4.78251E-01 -2.65983E+01 -2.70505E+01 -3.42371E+01
  -3.58875E+01 -5.13078E+01 -6.94102E+01 -6.25976E+01 -5.25102E+01 -5.05289E+01 -5.36597E+01 -3.53575E+01 -4.46174E+01 -4.15755E+01
  -4.05771E+01 -5.56228E+01 -4.94685E+01 -5.06852E+01 -4.99240E+01 -5.00440E+01 -3.86706E+01 -5.10407E+01 -5.61149E+01 -5.57745E+01
  -5.29799E+01 -3.89088E+01 -4.17540E+01 -3.54395E+01 -4.12037E+01 -2.71760E+01 -3.32252E+01 -3.24441E+01 -2.07236E+01 -2.90868E+01
  -2.47818E+01 -3.04156E+01 -1.26808E+01 -1.45845E+01 -1.02443E+01 -1.48132E+00 -3.87393E+00  1.79692E+01  2.34226E+01  7.22570E+00
   9.50846E+00  3.25832E+01  2.89661E+01  3.23407E+01  3.93458E+01  5.58594E+01  6.26209E+01  6.67134E+01  7.32662E+01  5.54494E+01
   5.94533E+01  3.68613E+01  1.77894E+01  1.27231E+01  1.66251E+00 -1.69175E+01 -2.39449E+01 -1.77775E+01 -2.49783E+01 -2.18516E+01
  -5.02648E+01 -5.23514E+01 -5.72769E+01 -7.14315E+01 -6.54111E+01 -7.84170E+01 -6.74889E+01 -6.87773E+01 -7.29473E+01 -7.57598E+01
  -7.72560E+01 -7.26195E+01 -8.16229E+01 -8.44986E+01 -7.44555E+01 -6.68222E+01 -7.23914E+01 -5.96449E+01 -4.68463E+01 -5.50668E+01
  -6.63524E+01 -6.15115E+01 -5.16223E+01 -5.03659E+01 -5.77746E+01 -6.37026E+01 -5.49200E+01 -5.44483E+01 -6.28847E+01 -6.85365E+01
  -5.28727E+01 -5.60617E+01 -7.54767E+01 -5.55836E+01 -5.00356E+01 -5.98271E+01 -5.60890E+01 -6.14861E+01 -5.62566E+01 -5.92031E+01
  -6.50398E+01 -5.80672E+01 -7.33204E+01 -5.72667E+01 -5.07815E+01 -6.56252E+01 -6.02728E+01 -6.62988E+01 -4.89654E+01 -5.37151E+01
  -6.08358E+01 -5.56537E+01 -5.95895E+01 -5.36401E+01 -6.75125E+01 -4.71402E+01 -4.10082E+01 -6.39769E+01 -4.97140E+01 -4.93939E+01
  -5.19262E+01 -4.52369E+01 -4.69568E+01 -5.08075E+01 -6.18174E+01 -5.13825E+01 -4.36528E+01 -5.31066E+01 -3.94995E+01 -4.47197E+01
  -5.66692E+01 -4.93419E+01 -5.03556E+01 -3.91135E+01 -4.44442E+01 -5.71799E+01 -4.53129E+01 -5.30505E+01 -4.60827E+01 -3.94076E+01
 NY points of the fit to the data follow
  -1.41584E+02 -1.43261E+02 -1.46100E+02 -1.47469E+02 -1.45899E+02 -1.40836E+02 -1.34860E+02 -1.31651E+02 -1.33775E+02 -1.40656E+02
  -1.48482E+02 -1.53785E+02 -1.56206E+02 -1.57178E+02 -1.57899E+02 -1.59884E+02 -1.64178E+02 -1.70169E+02 -1.77875E+02 -1.83479E+02
  -1.83645E+02 -1.74816E+02 -1.55544E+02 -1.28227E+02 -9.98555E+01 -7.82961E+01 -6.75835E+01 -6.60353E+01 -6.86995E+01 -7.17381E+01
  -7.23589E+01 -7.38221E+01 -7.64873E+01 -7.99711E+01 -8.41785E+01 -8.99718E+01 -9.81707E+01 -1.08425E+02 -1.20278E+02 -1.31838E+02
  -1.40130E+02 -1.41446E+02 -1.33796E+02 -1.18114E+02 -9.86037E+01 -8.02914E+01 -6.64445E+01 -5.77344E+01 -5.37165E+01 -5.38520E+01
  -5.64973E+01 -6.12402E+01 -6.74545E+01 -7.54629E+01 -8.53146E+01 -9.48562E+01 -1.02105E+02 -1.05904E+02 -1.05156E+02 -1.00488E+02
  -9.30912E+01 -8.36290E+01 -7.30521E+01 -6.34048E+01 -5.77542E+01 -5.68925E+01 -6.09163E+01 -7.14198E+01 -8.49697E+01 -9.55114E+01
  -9.95028E+01 -9.50240E+01 -8.36874E+01 -7.00124E+01 -5.77255E+01 -4.77259E+01 -4.00599E+01 -3.62932E+01 -3.83359E+01 -4.44811E+01
  -5.41301E+01 -6.66752E+01 -7.98660E+01 -9.01697E+01 -9.42583E+01 -9.05240E+01 -8.00661E+01 -6.63827E+01 -5.30947E+01 -4.30962E+01
  -3.59327E+01 -3.10161E+01 -2.65750E+01 -2.19770E+01 -1.78181E+01 -1.40969E+01 -1.07191E+01 -8.45501E+00 -8.01152E+00 -9.17253E+00
  -1.35351E+01 -2.10562E+01 -3.19996E+01 -4.51209E+01 -5.89722E+01 -7.48603E+01 -9.13268E+01 -1.10252E+02 -1.34088E+02 -1.62084E+02
  -1.87998E+02 -2.01852E+02 -1.93739E+02 -1.68044E+02 -1.39047E+02 -1.19635E+02 -1.10347E+02 -1.02332E+02 -9.44920E+01 -8.66733E+01
  -7.86980E+01 -7.02275E+01 -6.08458E+01 -5.01438E+01 -3.79182E+01 -2.35767E+01 -5.14827E+00  1.49357E+01  2.96263E+01  3.48915E+01
   2.52030E+01 -4.58256E+00 -5.43236E+01 -1.13762E+02 -1.63489E+02 -1.85332E+02 -1.77798E+02 -1.58143E+02 -1.45743E+02 -1.42729E+02
  -1.40991E+02 -1.39727E+02 -1.38640E+02 -1.37342E+02 -1.35676E+02 -1.33460E+02 -1.30683E+02 -1.27458E+02 -1.24040E+02 -1.20668E+02
  -1.17480E+02 -1.14437E+02 -1.11385E+02 -1.08368E+02 -1.05429E+02 -1.02751E+02 -1.00387E+02 -9.85185E+01 -9.71130E+01 -9.57761E+01
  -9.43207E+01 -9.31798E+01 -9.31439E+01 -9.44811E+01 -9.63269E+01 -9.72085E+01 -9.60562E+01 -9.25478E+01 -8.73974E+01 -8.10556E+01
  -7.33473E+01 -6.49953E+01 -5.77627E+01 -5.36844E+01 -5.35730E+01 -5.52224E+01 -5.61843E+01 -5.69918E+01 -6.10874E+01 -7.07445E+01
  -8.32320E+01 -9.33172E+01 -9.85318E+01 -9.99989E+01 -1.00282E+02 -1.00499E+02 -9.99159E+01 -9.89108E+01 -9.77796E+01 -9.58923E+01
  -9.31038E+01 -8.96539E+01 -8.51918E+01 -7.97149E+01 -7.37077E+01 -6.83566E+01 -6.47524E+01 -6.25652E+01 -6.08083E+01 -5.87182E+01
  -5.69269E+01 -5.65567E+01 -5.71311E+01 -5.82641E+01 -6.14960E+01 -6.77458E+01 -7.61882E+01 -8.47520E+01 -9.15228E+01 -9.64900E+01
  -9.85535E+01 -9.53021E+01 -8.65472E+01 -7.18036E+01 -5.28578E+01 -3.30122E+01 -1.65782E+01 -7.25678E+00 -6.51587E+00 -1.25685E+01
  -2.17802E+01 -2.97240E+01 -3.43326E+01 -3.65067E+01 -3.67989E+01 -3.87731E+01 -4.32882E+01 -5.01356E+01 -5.87685E+01 -6.84330E+01
  -7.85036E+01 -8.83442E+01 -9.75985E+01 -1.06082E+02 -1.13295E+02 -1.18918E+02 -1.22671E+02 -1.23808E+02 -1.22446E+02 -1.18405E+02
  -1.12354E+02 -1.04910E+02 -9.69957E+01 -8.96222E+01 -8.38185E+01 -8.01975E+01 -7.97862E+01 -8.22814E+01 -8.69476E+01 -9.27739E+01
  -9.94038E+01 -1.10630E+02 -1.23057E+02 -1.31585E+02 -1.33023E+02 -1.21607E+02 -9.04492E+01 -3.78300E+01  2.73975E+01  8.29202E+01
   1.06523E+02  9.58046E+01  7.11894E+01  5.56855E+01  4.92695E+01  4.46668E+01  4.07175E+01  3.72045E+01  3.42499E+01  3.21054E+01
   3.09378E+01  3.05772E+01  3.07596E+01  3.11115E+01  3.13703E+01  3.13078E+01  3.09217E+01  3.01534E+01  2.91471E+01  2.79410E+01
   2.65365E+01  2.50030E+01  2.33569E+01  2.17360E+01  2.01306E+01  1.84570E+01  1.66097E+01  1.45613E+01  1.22703E+01  9.72592E+00
   6.95174E+00  4.11509E+00  1.52249E+00 -5.10248E-01 -1.68272E+00 -1.79635E+00 -7.85337E-01  1.20822E+00  3.83990E+00  6.73686E+00
   9.70339E+00  1.26443E+01  1.55298E+01  1.83391E+01  2.10370E+01  2.36042E+01  2.61167E+01  2.86583E+01  3.12458E+01  3.38343E+01
   3.62856E+01  3.84552E+01  4.03237E+01  4.19057E+01  4.31861E+01  4.40651E+01  4.44378E+01  4.42261E+01  4.34518E+01  4.22082E+01
   4.05571E+01  3.85456E+01  3.61594E+01  3.32929E+01  2.97861E+01  2.55867E+01  2.06862E+01  1.52243E+01  9.68480E+00  4.95079E+00
   2.00823E+00  1.77522E+00  4.98768E+00  1.21609E+01  2.07636E+01  2.85103E+01  3.11870E+01  2.36955E+01  3.82963E+00 -2.68699E+01
  -6.16277E+01 -8.97548E+01 -1.02071E+02 -9.68356E+01 -7.99570E+01 -6.11093E+01 -4.61689E+01 -3.86198E+01 -3.61658E+01 -3.50361E+01
  -3.50013E+01 -3.60016E+01 -3.79349E+01 -4.04177E+01 -4.28853E+01 -4.47871E+01 -4.56769E+01 -4.53321E+01 -4.38413E+01 -4.15010E+01
  -3.86141E+01 -3.54066E+01 -3.20538E+01 -2.87605E+01 -2.56112E+01 -2.26559E+01 -1.99069E+01 -1.72831E+01 -1.47206E+01 -1.21488E+01
  -9.49670E+00 -6.71771E+00 -3.78652E+00 -6.17715E-01  2.93580E+00  6.96577E+00  1.14794E+01  1.64675E+01  2.19143E+01  2.77508E+01
   3.39284E+01  4.02842E+01  4.64872E+01  5.20529E+01  5.63332E+01  5.84774E+01  5.77467E+01  5.38831E+01  4.71221E+01  3.82744E+01
   2.85632E+01  1.92561E+01  1.10679E+01  4.04759E+00 -2.32356E+00 -8.75214E+00 -1.56552E+01 -2.31203E+01 -3.08615E+01 -3.83502E+01
  -4.49523E+01 -5.03068E+01 -5.43421E+01 -5.72106E+01 -5.91717E+01 -6.05577E+01 -6.15876E+01 -6.23700E+01 -6.30442E+01 -6.36718E+01
  -6.42110E+01 -6.45563E+01 -6.46748E+01 -6.46453E+01 -6.45679E+01 -6.44833E+01 -6.44076E+01 -6.43286E+01 -6.42415E+01 -6.41195E+01
  -6.39374E+01 -6.36854E+01 -6.34555E+01 -6.33182E+01 -6.32215E+01 -6.30646E+01 -6.28265E+01 -6.25828E+01 -6.23235E+01 -6.20245E+01
  -6.17326E+01 -6.15252E+01 -6.14348E+01 -6.13531E+01 -6.11794E+01 -6.08743E+01 -6.04903E+01 -6.00573E+01 -5.96379E+01 -5.92795E+01
  -5.89923E+01 -5.87769E+01 -5.86109E+01 -5.84897E+01 -5.83687E+01 -5.82171E+01 -5.79845E+01 -5.76653E+01 -5.72926E+01 -5.69529E+01
  -5.66801E+01 -5.64221E+01 -5.61337E+01 -5.57810E+01 -5.53669E+01 -5.49253E+01 -5.45128E+01 -5.41631E+01 -5.38529E+01 -5.35574E+01
  -5.32909E+01 -5.30603E+01 -5.28396E+01 -5.26036E+01 -5.22794E+01 -5.18419E+01 -5.12957E+01 -5.07179E+01 -5.01842E+01 -4.97609E+01
  -4.94763E+01 -4.93071E+01 -4.91308E+01 -4.88357E+01 -4.84229E+01 -4.79322E+01 -4.74299E+01 -4.69349E+01 -4.63947E+01 -4.57435E+01
 NY background values follow
    -1.284E+02   -1.278E+02   -1.272E+02   -1.265E+02   -1.259E+02   -1.253E+02   -1.246E+02   -1.240E+02   -1.234E+02   -1.227E+02
    -1.221E+02   -1.214E+02   -1.208E+02   -1.202E+02   -1.195E+02   -1.189E+02   -1.182E+02   -1.176E+02   -1.169E+02   -1.163E+02
    -1.156E+02   -1.150E+02   -1.143E+02   -1.136E+02   -1.130E+02   -1.123E+02   -1.117E+02   -1.110E+02   -1.104E+02   -1.097E+02
    -1.090E+02   -1.084E+02   -1.077E+02   -1.071E+02   -1.064E+02   -1.057E+02   -1.051E+02   -1.044E+02   -1.038E+02   -1.031E+02
    -1.025E+02   -1.018E+02   -1.012E+02   -1.005E+02   -9.989E+01   -9.926E+01   -9.864E+01   -9.802E+01   -9.741E+01   -9.680E+01
    -9.621E+01   -9.561E+01   -9.503E+01   -9.446E+01   -9.389E+01   -9.334E+01   -9.279E+01   -9.225E+01   -9.173E+01   -9.121E+01
    -9.071E+01   -9.022E+01   -8.974E+01   -8.927E+01   -8.881E+01   -8.836E+01   -8.792E+01   -8.750E+01   -8.708E+01   -8.667E+01
    -8.627E+01   -8.589E+01   -8.551E+01   -8.514E+01   -8.478E+01   -8.442E+01   -8.408E+01   -8.374E+01   -8.341E+01   -8.309E+01
    -8.278E+01   -8.247E+01   -8.217E+01   -8.188E+01   -8.159E+01   -8.131E+01   -8.103E+01   -8.076E+01   -8.050E+01   -8.024E+01
    -7.999E+01   -7.974E+01   -7.950E+01   -7.926E+01   -7.902E+01   -7.879E+01   -7.856E+01   -7.833E+01   -7.811E+01   -7.789E+01
    -7.767E+01   -7.745E+01   -7.724E+01   -7.702E+01   -7.681E+01   -7.660E+01   -7.639E+01   -7.617E+01   -7.596E+01   -7.575E+01
    -7.553E+01   -7.531E+01   -7.510E+01   -7.488E+01   -7.466E+01   -7.443E+01   -7.420E+01   -7.397E+01   -7.374E+01   -7.350E+01
    -7.326E+01   -7.302E+01   -7.277E+01   -7.251E+01   -7.226E+01   -7.200E+01   -7.173E+01   -7.147E+01   -7.120E+01   -7.093E+01
    -7.066E+01   -7.039E+01   -7.011E+01   -6.984E+01   -6.956E+01   -6.928E+01   -6.901E+01   -6.873E+01   -6.845E+01   -6.818E+01
    -6.790E+01   -6.763E+01   -6.735E+01   -6.708E+01   -6.681E+01   -6.655E+01   -6.628E+01   -6.602E+01   -6.576E+01   -6.550E+01
    -6.525E+01   -6.500E+01   -6.476E+01   -6.451E+01   -6.428E+01   -6.404E+01   -6.381E+01   -6.358E+01   -6.336E+01   -6.314E+01
    -6.292E+01   -6.271E+01   -6.250E+01   -6.229E+01   -6.209E+01   -6.188E+01   -6.169E+01   -6.149E+01   -6.130E+01   -6.112E+01
    -6.093E+01   -6.075E+01   -6.058E+01   -6.040E+01   -6.023E+01   -6.006E+01   -5.990E+01   -5.974E+01   -5.958E+01   -5.942E+01
    -5.927E+01   -5.912E+01   -5.898E+01   -5.883E+01   -5.869E+01   -5.855E+01   -5.842E+01   -5.828E+01   -5.815E+01   -5.801E+01
    -5.788E+01   -5.775E+01   -5.762E+01   -5.749E+01   -5.736E+01   -5.723E+01   -5.710E+01   -5.697E+01   -5.684E+01   -5.671E+01
    -5.657E+01   -5.644E+01   -5.630E+01   -5.616E+01   -5.602E+01   -5.588E+01   -5.574E+01   -5.559E+01   -5.544E+01   -5.528E+01
    -5.513E+01   -5.497E+01   -5.480E+01   -5.464E+01   -5.447E+01   -5.430E+01   -5.412E+01   -5.395E+01   -5.377E+01   -5.359E+01
    -5.341E+01   -5.322E+01   -5.304E+01   -5.286E+01   -5.267E+01   -5.249E+01   -5.230E+01   -5.211E+01   -5.193E+01   -5.174E+01
    -5.156E+01   -5.138E+01   -5.119E+01   -5.101E+01   -5.083E+01   -5.065E+01   -5.048E+01   -5.030E+01   -5.013E+01   -4.996E+01
    -4.980E+01   -4.963E+01   -4.947E+01   -4.931E+01   -4.915E+01   -4.900E+01   -4.884E+01   -4.869E+01   -4.853E+01   -4.837E+01
    -4.821E+01   -4.806E+01   -4.789E+01   -4.773E+01   -4.757E+01   -4.740E+01   -4.723E+01   -4.705E+01   -4.687E+01   -4.669E+01
    -4.650E+01   -4.631E+01   -4.611E+01   -4.590E+01   -4.569E+01   -4.547E+01   -4.524E+01   -4.501E+01   -4.477E+01   -4.452E+01
    -4.426E+01   -4.399E+01   -4.371E+01   -4.343E+01   -4.313E+01   -4.283E+01   -4.252E+01   -4.221E+01   -4.189E+01   -4.156E+01
    -4.122E+01   -4.088E+01   -4.053E+01   -4.018E+01   -3.982E+01   -3.946E+01   -3.909E+01   -3.872E+01   -3.834E+01   -3.797E+01
    -3.758E+01   -3.720E+01   -3.681E+01   -3.642E+01   -3.602E+01   -3.563E+01   -3.523E+01   -3.483E+01   -3.443E+01   -3.403E+01
    -3.362E+01   -3.322E+01   -3.282E+01   -3.242E+01   -3.203E+01   -3.164E+01   -3.125E+01   -3.087E+01   -3.050E+01   -3.013E+01
    -2.977E+01   -2.943E+01   -2.909E+01   -2.877E+01   -2.846E+01   -2.816E+01   -2.788E+01   -2.761E+01   -2.736E+01   -2.713E+01
    -2.692E+01   -2.673E+01   -2.656E+01   -2.641E+01   -2.628E+01   -2.618E+01   -2.610E+01   -2.605E+01   -2.602E+01   -2.602E+01
    -2.605E+01   -2.611E+01   -2.620E+01   -2.631E+01   -2.645E+01   -2.661E+01   -2.680E+01   -2.700E+01   -2.723E+01   -2.748E+01
    -2.775E+01   -2.803E+01   -2.833E+01   -2.865E+01   -2.898E+01   -2.932E+01   -2.968E+01   -3.005E+01   -3.043E+01   -3.082E+01
    -3.122E+01   -3.162E+01   -3.203E+01   -3.245E+01   -3.287E+01   -3.329E+01   -3.372E+01   -3.415E+01   -3.457E+01   -3.500E+01
    -3.542E+01   -3.584E+01   -3.626E+01   -3.667E+01   -3.709E+01   -3.749E+01   -3.790E+01   -3.830E+01   -3.870E+01   -3.909E+01
    -3.948E+01   -3.986E+01   -4.024E+01   -4.062E+01   -4.099E+01   -4.135E+01   -4.171E+01   -4.206E+01   -4.241E+01   -4.275E+01
    -4.309E+01   -4.342E+01   -4.374E+01   -4.406E+01   -4.436E+01   -4.467E+01   -4.496E+01   -4.525E+01   -4.553E+01   -4.580E+01
    -4.606E+01   -4.631E+01   -4.656E+01   -4.680E+01   -4.703E+01   -4.725E+01   -4.747E+01   -4.768E+01   -4.788E+01   -4.807E+01
    -4.826E+01   -4.844E+01   -4.861E+01   -4.878E+01   -4.893E+01   -4.909E+01   -4.923E+01   -4.937E+01   -4.950E+01   -4.963E+01
    -4.974E+01   -4.986E+01   -4.996E+01   -5.006E+01   -5.016E+01   -5.025E+01   -5.033E+01   -5.041E+01   -5.048E+01   -5.054E+01
    -5.060E+01   -5.066E+01   -5.071E+01   -5.075E+01   -5.079E+01   -5.083E+01   -5.086E+01   -5.088E+01   -5.091E+01   -5.092E+01
    -5.094E+01   -5.095E+01   -5.095E+01   -5.095E+01   -5.095E+01   -5.095E+01   -5.094E+01   -5.093E+01   -5.092E+01   -5.090E+01
    -5.088E+01   -5.086E+01   -5.083E+01   -5.081E+01   -5.078E+01   -5.075E+01   -5.071E+01   -5.068E+01   -5.064E+01   -5.061E+01
    -5.057E+01   -5.053E+01   -5.049E+01   -5.044E+01   -5.040E+01   -5.036E+01   -5.031E+01   -5.026E+01   -5.022E+01   -5.017E+01
    -5.012E+01   -5.007E+01   -5.002E+01   -4.997E+01   -4.992E+01   -4.987E+01   -4.982E+01   -4.976E+01   -4.971E+01   -4.966E+01
    -4.960E+01   -4.955E+01   -4.950E+01   -4.944E+01   -4.939E+01   -4.934E+01   -4.928E+01   -4.923E+01   -4.918E+01   -4.912E+01
 Mac      Conc. = 2.54E-04
  -1.46881E+02 -1.46696E+02 -1.46496E+02 -1.46337E+02 -1.46383E+02 -1.46750E+02 -1.47389E+02 -1.48142E+02 -1.48775E+02 -1.49103E+02
  -1.49085E+02 -1.48840E+02 -1.48587E+02 -1.48401E+02 -1.48230E+02 -1.47864E+02 -1.46846E+02 -1.44667E+02 -1.41206E+02 -1.36835E+02
  -1.32417E+02 -1.28679E+02 -1.25846E+02 -1.23647E+02 -1.21745E+02 -1.19993E+02 -1.18177E+02 -1.16094E+02 -1.13847E+02 -1.11719E+02
  -1.09884E+02 -1.08447E+02 -1.07366E+02 -1.06511E+02 -1.05653E+02 -1.04610E+02 -1.03236E+02 -1.01444E+02 -9.93793E+01 -9.73997E+01
  -9.58662E+01 -9.48313E+01 -9.39855E+01 -9.29501E+01 -9.16416E+01 -9.04014E+01 -8.96316E+01 -8.94766E+01 -8.98068E+01 -9.03722E+01
  -9.09284E+01 -9.13298E+01 -9.14900E+01 -9.13043E+01 -9.08059E+01 -9.00124E+01 -8.88990E+01 -8.74355E+01 -8.57443E+01 -8.40442E+01
  -8.25820E+01 -8.15066E+01 -8.08609E+01 -8.06204E+01 -8.07697E+01 -8.11391E+01 -8.13763E+01 -8.12195E+01 -8.06088E+01 -7.95278E+01
  -7.79592E+01 -7.60239E+01 -7.39320E+01 -7.21213E+01 -7.09540E+01 -7.05163E+01 -7.05747E+01 -7.08803E+01 -7.12670E+01 -7.15810E+01
  -7.17067E+01 -7.15573E+01 -7.11589E+01 -7.04853E+01 -6.95994E+01 -6.85707E+01 -6.75356E+01 -6.66183E+01 -6.58634E+01 -6.52314E+01
  -6.47404E+01 -6.44532E+01 -6.44108E+01 -6.47531E+01 -6.55528E+01 -6.68478E+01 -6.85284E+01 -7.04637E+01 -7.24496E+01 -7.43395E+01
  -7.61706E+01 -7.81957E+01 -8.07509E+01 -8.40734E+01 -8.81501E+01 -9.26944E+01 -9.71892E+01 -1.00991E+02 -1.03377E+02 -1.03867E+02
