 LCModel (Version 6.3-1N) Copyright: S.W. Provencher.          Ref.: Magn. Reson. Med. 30:672-679 (1993).                
 Slice_N1@15_24  28-Feb-2025 11:37:19
 27 lines in following concentration table = NCONC+1
    Conc.  %SD /Cr+PCr  Metabolite                                         
 3.56E-04   4% 3.1E-04 Mac                                                 
    1.426 336%   1.235 Cr                                                  
    7.809  63%   6.765 PCr                                                 
    5.157  26%   4.467 Ins                                                 
    9.465  15%   8.200 NAA                                                 
    7.134  22%   6.180 Tau                                                 
    0.000 999%   0.000 PCho                                                
    1.069  53%   0.926 GPC                                                 
   10.203  15%   8.839 Glu                                                 
    3.856  31%   3.341 Gln                                                 
   11.664  11%  10.104 Ala                                                 
    0.000 999%   0.000 Asc                                                 
    4.243  31%   3.675 Asp                                                 
    0.000 999%   0.000 GABA                                                
    0.832 107%   0.720 Glc                                                 
 1.82E-03 999% 1.6E-03 GSH                                                 
   11.629  11%  10.074 Lac                                                 
    6.017  20%   5.213 NAAG                                                
 2.22E-02 999% 1.9E-02 PE                                                  
    1.069  53%   0.926 GPC+PCho                                            
   15.483   7%  13.412 NAA+NAAG                                            
   14.059  13%  12.179 Glu+Gln                                             
    9.235  11%   8.000 Cr+PCr                                              
   15.483   7%  13.412 NAA+NAAG                                            
    9.235  11%   8.000 Cr+PCr                                              
   14.059  13%  12.179 Glu+Gln                                             
   6 lines in following misc. output table
  FWHM = 0.081 ppm    S/N =   3                                            
  Data shift =-0.024 ppm                                                   
  Ph: -47 deg       0.0 deg/ppm                                            
  alphaB,S = 7.4E-01,   9.2E+01                                            
   19 spline knots.   Ns = 8(1)                                            
  (12) 4 infls.   (10) 1 extrs.                                            
  480 points on ppm-axis = NY
      4.100000     4.091866     4.083733     4.075600     4.067466     4.059333     4.051199     4.043066     4.034933     4.026799
      4.018666     4.010532     4.002399     3.994265     3.986132     3.977998     3.969864     3.961731     3.953597     3.945463
      3.937330     3.929196     3.921062     3.912929     3.904795     3.896662     3.888528     3.880394     3.872261     3.864127
      3.855993     3.847860     3.839726     3.831592     3.823459     3.815325     3.807191     3.799058     3.790924     3.782790
      3.774657     3.766523     3.758389     3.750256     3.742122     3.733989     3.725855     3.717721     3.709588     3.701454
      3.693320     3.685187     3.677053     3.668919     3.660786     3.652652     3.644518     3.636385     3.628251     3.620117
      3.611984     3.603850     3.595716     3.587583     3.579449     3.571316     3.563182     3.555048     3.546915     3.538781
      3.530647     3.522514     3.514380     3.506246     3.498113     3.489979     3.481845     3.473712     3.465578     3.457444
      3.449311     3.441177     3.433043     3.424910     3.416776     3.408643     3.400509     3.392375     3.384242     3.376108
      3.367974     3.359841     3.351707     3.343573     3.335440     3.327306     3.319172     3.311039     3.302905     3.294771
      3.286638     3.278504     3.270370     3.262237     3.254103     3.245970     3.237836     3.229702     3.221569     3.213435
      3.205301     3.197168     3.189034     3.180900     3.172767     3.164633     3.156499     3.148366     3.140232     3.132098
      3.123965     3.115831     3.107697     3.099564     3.091430     3.083297     3.075163     3.067029     3.058896     3.050762
      3.042628     3.034495     3.026361     3.018227     3.010094     3.001960     2.993826     2.985693     2.977559     2.969425
      2.961292     2.953158     2.945024     2.936891     2.928757     2.920624     2.912490     2.904356     2.896223     2.888089
      2.879955     2.871822     2.863688     2.855554     2.847421     2.839287     2.831153     2.823020     2.814886     2.806752
      2.798619     2.790485     2.782351     2.774218     2.766084     2.757951     2.749817     2.741683     2.733550     2.725416
      2.717282     2.709149     2.701015     2.692881     2.684748     2.676614     2.668480     2.660347     2.652213     2.644079
      2.635946     2.627812     2.619678     2.611545     2.603411     2.595278     2.587144     2.579010     2.570877     2.562743
      2.554609     2.546476     2.538342     2.530208     2.522075     2.513941     2.505807     2.497674     2.489540     2.481406
      2.473273     2.465139     2.457006     2.448872     2.440738     2.432605     2.424471     2.416337     2.408204     2.400070
      2.391936     2.383803     2.375669     2.367535     2.359402     2.351268     2.343134     2.335001     2.326867     2.318733
      2.310600     2.302466     2.294333     2.286199     2.278065     2.269932     2.261798     2.253664     2.245531     2.237397
      2.229263     2.221130     2.212996     2.204862     2.196729     2.188595     2.180461     2.172328     2.164194     2.156060
      2.147927     2.139793     2.131660     2.123526     2.115392     2.107259     2.099125     2.090991     2.082858     2.074724
      2.066590     2.058457     2.050323     2.042189     2.034056     2.025922     2.017788     2.009655     2.001521     1.993387
      1.985254     1.977120     1.968987     1.960853     1.952719     1.944586     1.936452     1.928318     1.920185     1.912051
      1.903917     1.895784     1.887650     1.879516     1.871383     1.863249     1.855115     1.846982     1.838848     1.830714
      1.822581     1.814447     1.806314     1.798180     1.790046     1.781913     1.773779     1.765645     1.757512     1.749378
      1.741244     1.733111     1.724977     1.716843     1.708710     1.700576     1.692442     1.684309     1.676175     1.668041
      1.659908     1.651774     1.643641     1.635507     1.627373     1.619240     1.611106     1.602972     1.594839     1.586705
      1.578571     1.570438     1.562304     1.554170     1.546037     1.537903     1.529769     1.521636     1.513502     1.505368
      1.497235     1.489101     1.480968     1.472834     1.464700     1.456567     1.448433     1.440299     1.432166     1.424032
      1.415898     1.407765     1.399631     1.391497     1.383364     1.375230     1.367096     1.358963     1.350829     1.342695
      1.334562     1.326428     1.318295     1.310161     1.302027     1.293894     1.285760     1.277626     1.269493     1.261359
      1.253225     1.245092     1.236958     1.228824     1.220691     1.212557     1.204423     1.196290     1.188156     1.180022
      1.171889     1.163755     1.155622     1.147488     1.139354     1.131221     1.123087     1.114953     1.106820     1.098686
      1.090552     1.082419     1.074285     1.066151     1.058018     1.049884     1.041750     1.033617     1.025483     1.017349
      1.009216     1.001082     0.992949     0.984815     0.976681     0.968548     0.960414     0.952280     0.944147     0.936013
      0.927879     0.919746     0.911612     0.903478     0.895345     0.887211     0.879077     0.870944     0.862810     0.854676
      0.846543     0.838409     0.830276     0.822142     0.814008     0.805875     0.797741     0.789607     0.781474     0.773340
      0.765206     0.757073     0.748939     0.740805     0.732672     0.724538     0.716404     0.708271     0.700137     0.692003
      0.683870     0.675736     0.667603     0.659469     0.651335     0.643202     0.635068     0.626934     0.618801     0.610667
      0.602533     0.594400     0.586266     0.578132     0.569999     0.561865     0.553731     0.545598     0.537464     0.529330
      0.521197     0.513063     0.504930     0.496796     0.488662     0.480529     0.472395     0.464261     0.456128     0.447994
      0.439861     0.431727     0.423593     0.415460     0.407326     0.399192     0.391059     0.382925     0.374792     0.366658
      0.358524     0.350391     0.342257     0.334124     0.325990     0.317856     0.309723     0.301589     0.293455     0.285322
      0.277188     0.269055     0.260921     0.252787     0.244654     0.236520     0.228386     0.220253     0.212119     0.203986
 NY phased data points follow
   3.09978E+01  1.32648E+01 -6.78739E+00 -1.44031E+00 -5.55489E+00 -2.09425E+01  1.00883E+01 -1.36231E+01 -4.21773E+00  1.94362E+01
  -1.13927E+01 -1.38384E+01 -2.58053E+01 -1.31904E+01 -3.73861E+01 -4.76760E+01 -3.62884E+01 -4.48566E+01 -2.51063E+01 -4.44431E+01
  -3.07653E+01 -3.19562E+01 -9.35312E+00  8.10993E+00 -1.37091E+01  3.94996E+01  2.19211E+01  2.65582E+01  3.80247E+01  2.52870E+01
   4.24485E+01  1.60574E+01  3.42586E+01  1.64230E+01  1.24646E+01  3.16008E+01  2.09897E+01  2.28184E+01 -8.01974E+00  1.24739E+01
   6.05650E+00 -9.62145E+00  4.14830E+00 -8.79566E+00  2.35939E+01  4.53508E+01  6.41302E+01  7.95839E+01  6.86063E+01  6.38996E+01
   5.45817E+01  5.70175E+01  7.01469E+01  5.89896E+01  2.97992E+01  3.79725E+01  3.52945E+01  1.85589E+01  3.32740E+01  4.46686E+01
   5.01250E+01  3.65250E+01  4.79361E+01  8.21718E+01  6.93326E+01  5.01066E+01  4.12895E+01  4.48036E+01  5.25418E+01  4.69965E+01
   4.14059E+01  2.67582E+01  4.88006E+01  6.74341E+01  4.75263E+01  5.45697E+01  6.72091E+01  5.89812E+01  5.10181E+01  6.10233E+01
   5.57105E+01  4.52912E+01  4.17820E+01  4.30939E+01  3.84896E+01  3.30045E+01  4.59020E+01  4.02840E+01  5.71140E+01  5.76413E+01
   7.47935E+01  8.90876E+01  6.69261E+01  7.94768E+01  6.28217E+01  8.62704E+01  9.49359E+01  8.41981E+01  7.98461E+01  6.05800E+01
   7.33850E+01  4.82699E+01  5.48676E+01  3.48310E+01 -4.03682E+00  1.71340E-02 -1.44800E+01 -2.44468E+01 -3.29570E+01 -3.99515E+01
  -4.63240E+01 -3.73454E+01 -3.01626E+01 -1.28484E+01 -6.79491E+00  8.32004E+00  2.17736E+01  1.86281E+01  3.50124E+01  3.06462E+01
   5.46742E+01  5.14284E+01  4.59023E+01  6.10268E+01  6.68855E+01  7.81774E+01  7.02357E+01  7.57424E+01  8.14256E+01  1.00815E+02
   5.87501E+01  3.20193E+01  2.22872E+01 -3.60995E+01 -4.42150E+01 -6.99574E+01 -7.05052E+01 -6.70239E+01 -6.17564E+01 -3.06760E+01
  -3.59287E+01 -3.76814E+01 -3.15342E+01 -3.25216E+01 -4.34641E+01 -1.72716E+01 -2.25491E+01 -2.46300E+01  1.37209E+00 -8.60714E+00
   8.03223E+00 -1.47275E+01 -1.71583E+01  2.31620E+00 -1.17795E+01  1.49103E+01  2.04756E+01  9.20142E+00  1.00790E+01  5.34304E+00
   6.54244E+00  1.32614E+01  1.47829E+01  3.34732E+01  3.66505E+01  1.26008E+00  1.25571E+01  2.50153E+01  1.74630E+01  2.50143E+01
   3.61227E+01  4.36680E+01  4.37130E+01  6.60436E+01  4.67165E+01  2.11686E+01  3.98226E+01  2.01128E+01 -1.47912E+00 -6.38223E+00
  -3.07611E+01 -3.81417E+01 -1.25955E+01 -7.61446E+00 -4.09091E+01 -4.69964E+01 -1.59984E+01 -6.22481E+00 -1.42852E+01  1.06199E-01
   7.51224E+00 -2.65809E+01 -1.22324E+01  2.56584E+00 -2.39873E+01  1.28792E+01  8.29546E+00  9.61934E+00  3.21540E+01  2.47020E-02
   2.28205E+01  1.74999E+01 -3.20886E+00  2.45881E+01  1.94957E+01 -2.38809E+00  8.76570E+00  6.36763E+00 -3.85062E+00  1.51142E+01
   8.84759E+00  1.28927E+01  2.80583E+01  4.82872E+01  4.93824E+01  5.37239E+01  8.63016E+01  6.31523E+01  5.55899E+01  5.31895E+01
   5.27737E+01  5.55471E+01  2.60823E+01  1.46136E+01 -6.01582E+00  1.86333E+00  9.22269E+00 -8.47769E-01  1.12110E+01  7.80461E+00
   1.38976E+01 -1.25634E+00 -2.77764E+01 -1.46075E+01 -1.88893E+01 -4.61271E+01 -5.21006E+01 -3.94846E+01 -4.43618E+01 -5.95772E+01
  -6.32407E+01 -5.23477E+01 -3.46940E+01 -3.75077E+01 -3.32857E+01 -2.63585E+01 -3.28800E+01 -2.42743E+01 -1.89543E+01 -4.14331E+01
  -3.88751E+01 -1.71221E+01 -3.67339E+01 -3.66466E+01 -1.81398E+01  1.15188E+01  4.81224E+01  7.83737E+01  1.31715E+02  1.52655E+02
   1.84100E+02  2.04742E+02  1.56280E+02  1.42516E+02  1.61782E+02  1.38973E+02  1.09551E+02  9.84537E+01  1.14098E+02  1.24115E+02
   9.09897E+01  1.00697E+02  9.44193E+01  9.53131E+01  1.15799E+02  7.20023E+01  8.29115E+01  9.33494E+01  8.48029E+01  1.01674E+02
   9.46810E+01  9.65319E+01  8.86375E+01  7.84359E+01  8.33566E+01  7.19547E+01  7.14534E+01  6.66425E+01  5.42625E+01  7.64051E+01
   4.08064E+01  3.43812E+01  6.79801E+01  2.69798E+01  4.73490E+01  6.26129E+01  5.01998E+01  6.14015E+01  4.96225E+01  5.47296E+01
   5.56269E+01  7.11932E+01  9.06777E+01  1.01214E+02  1.13311E+02  1.27744E+02  1.43331E+02  1.36790E+02  1.59821E+02  1.80252E+02
   1.86254E+02  2.15775E+02  2.16178E+02  2.04535E+02  2.02742E+02  1.68358E+02  1.43185E+02  1.44525E+02  1.35055E+02  1.31298E+02
   1.11748E+02  9.91829E+01  9.26458E+01  8.97193E+01  1.00990E+02  6.68138E+01  5.19222E+01  4.28769E+01  1.67990E+01  1.25644E+01
  -4.01024E-01  8.64975E-01 -5.43065E+00 -2.65224E+01 -2.49113E+01 -2.62624E+01 -3.40246E+01 -1.01234E+01 -6.90878E-01  2.25212E+00
   1.09323E+01  2.40813E+00 -5.68319E-01 -1.37543E+01 -4.56311E+00 -2.26573E+01 -3.95539E+01 -3.85297E+01 -5.01451E+01 -3.52110E+01
  -2.92290E+01 -7.27690E+00 -1.63591E+01 -8.88131E+00  2.96311E+00 -1.91122E+01 -1.76429E+00  3.92797E+00 -3.09111E+00 -5.36234E+00
   1.63929E+01  8.22287E+00  3.49168E+00  8.67388E+00  1.52098E+01  4.44418E+01  2.70138E+01  3.42656E+01  4.57194E+01  5.60256E+01
   4.17846E+01  4.12405E+01  8.28539E+01  6.13771E+01  6.86893E+01  9.02883E+01  9.30663E+01  1.02224E+02  9.77599E+01  1.01719E+02
   1.10752E+02  1.03889E+02  1.02292E+02  1.14310E+02  1.24422E+02  1.40032E+02  1.34684E+02  1.26136E+02  1.29198E+02  1.13200E+02
   7.81223E+01  8.84485E+01  9.16503E+01  6.01466E+01  5.60077E+01  4.19043E+01  4.01554E+01  2.35859E+01  1.63491E+01  2.48495E+01
   1.96242E+01  1.29657E+01 -9.86871E+00 -2.38033E+00 -3.91375E+00 -1.88440E+01 -2.13222E+01 -5.73832E+00 -1.75784E+00 -9.01966E+00
  -7.88352E+00 -2.43787E+01 -3.81631E+01 -3.88872E+01 -1.18448E+01 -2.63405E+01 -3.82979E+01 -1.98054E+01 -1.18538E+01 -8.39106E+00
  -2.58134E+01 -7.70617E+00 -8.66772E+00 -8.16177E+00 -3.01073E+00 -1.58119E+01 -1.60203E+01 -2.87698E+01 -1.21495E+01 -3.84781E+00
  -8.33064E+00 -2.13430E+01 -2.20627E+01 -6.09644E-01 -7.02156E-01 -1.33787E+01 -1.15922E+01  1.50212E+01 -7.79831E+00 -1.36694E+01
  -1.52275E+01 -3.25387E+01 -6.92852E+00 -1.93677E+01 -1.50789E+01 -5.35132E+00 -4.26983E+00  3.87782E+00 -2.52570E+00  1.21153E+01
   4.80727E+00 -8.48865E+00 -2.22695E+00  6.73133E+00 -3.24265E+00 -3.86923E+00 -4.32654E+00 -9.52777E+00  6.06051E+00 -1.06564E+00
  -2.24898E+00 -9.12249E+00 -3.65180E+00 -2.38697E+00 -5.20075E+00  7.93982E+00 -5.38266E-01 -5.38435E-01 -2.20735E+01  1.14766E+01
   3.69216E+01 -8.74256E+00  1.77893E-01  1.12980E+01 -7.69229E+00 -1.15385E+01 -1.26824E+01 -2.60955E+01  1.82258E+00  1.65412E+01
 NY points of the fit to the data follow
   1.02056E+00  5.24811E+00  7.83491E+00  8.75892E+00  8.41652E+00  7.25673E+00  5.61276E+00  3.69694E+00  1.57385E+00 -9.99236E-01
  -4.53157E+00 -9.77021E+00 -1.71914E+01 -2.35332E+01 -2.78940E+01 -3.06325E+01 -3.23797E+01 -3.33259E+01 -3.30365E+01 -3.05600E+01
  -2.51068E+01 -1.64816E+01 -5.36556E+00  6.73368E+00  1.82920E+01  2.81533E+01  3.57537E+01  4.11597E+01  4.46513E+01  4.65667E+01
   4.70486E+01  4.59020E+01  4.26583E+01  3.76811E+01  3.17290E+01  2.54007E+01  1.94875E+01  1.42274E+01  9.64285E+00  5.80721E+00
   3.18232E+00  2.56193E+00  4.78184E+00  1.01579E+01  1.81827E+01  2.76157E+01  3.69151E+01  4.48562E+01  5.05705E+01  5.38719E+01
   5.50453E+01  5.40731E+01  5.17566E+01  4.92587E+01  4.67317E+01  4.44449E+01  4.27812E+01  4.18452E+01  4.15750E+01  4.18257E+01
   4.25274E+01  4.33171E+01  4.39634E+01  4.50472E+01  4.66855E+01  4.82764E+01  4.94987E+01  5.01657E+01  5.01744E+01  4.97408E+01
   4.93375E+01  4.95014E+01  5.06612E+01  5.25881E+01  5.51428E+01  5.72471E+01  5.86008E+01  5.89134E+01  5.81149E+01  5.63975E+01
   5.38383E+01  5.04174E+01  4.63919E+01  4.24185E+01  3.93824E+01  3.80773E+01  3.89458E+01  4.19630E+01  4.66682E+01  5.23062E+01
   5.81814E+01  6.36111E+01  6.80779E+01  7.17860E+01  7.47185E+01  7.61005E+01  7.62407E+01  7.43442E+01  7.07797E+01  6.60054E+01
   6.05197E+01  5.28912E+01  4.23874E+01  2.98809E+01  1.67063E+01  4.04758E+00 -7.31656E+00 -1.67717E+01 -2.39170E+01 -2.85000E+01
  -3.03275E+01 -2.93330E+01 -2.56124E+01 -1.95469E+01 -1.18271E+01 -3.09848E+00  6.10078E+00  1.54344E+01  2.44676E+01  3.29301E+01
   4.10405E+01  4.96135E+01  6.01296E+01  7.17677E+01  7.89763E+01  8.09133E+01  7.95178E+01  7.66527E+01  7.25346E+01  6.59256E+01
   5.53207E+01  4.00815E+01  2.08424E+01 -3.12886E-01 -2.02669E+01 -3.63428E+01 -4.71305E+01 -5.26683E+01 -5.40134E+01 -5.25018E+01
  -4.96674E+01 -4.67365E+01 -4.39278E+01 -4.11527E+01 -3.83217E+01 -3.54128E+01 -3.24222E+01 -2.93045E+01 -2.61065E+01 -2.30431E+01
  -2.03172E+01 -1.78980E+01 -1.55023E+01 -1.28396E+01 -1.00509E+01 -7.58672E+00 -5.62944E+00 -4.08196E+00 -2.63841E+00 -1.23060E+00
   4.67632E-02  1.04281E+00  1.86374E+00  3.12565E+00  5.21315E+00  7.61483E+00  9.60990E+00  1.13463E+01  1.35191E+01  1.66540E+01
   2.04339E+01  2.38504E+01  2.62385E+01  2.72229E+01  2.67218E+01  2.49566E+01  2.22429E+01  1.88318E+01  1.48594E+01  1.04244E+01
   5.72011E+00  1.07961E+00 -3.18571E+00 -6.61713E+00 -9.25305E+00 -1.10605E+01 -1.14841E+01 -1.09651E+01 -9.98730E+00 -8.49905E+00
  -6.51393E+00 -3.83921E+00 -8.98509E-01  2.02091E+00  5.08488E+00  8.23740E+00  1.11592E+01  1.34834E+01  1.49904E+01  1.56429E+01
   1.54193E+01  1.43695E+01  1.26270E+01  1.03117E+01  7.70737E+00  5.29418E+00  2.89269E+00  1.52539E+00  1.16413E+00  1.67440E+00
   3.44831E+00  6.43437E+00  1.07140E+01  1.64611E+01  2.35641E+01  3.15082E+01  3.93661E+01  4.59807E+01  5.04396E+01  5.22755E+01
   5.14259E+01  4.82963E+01  4.33472E+01  3.69317E+01  2.92861E+01  2.07686E+01  1.14856E+01  1.58345E+00 -8.07490E+00 -1.73824E+01
  -2.58662E+01 -3.31455E+01 -3.91213E+01 -4.36061E+01 -4.60883E+01 -4.65591E+01 -4.49460E+01 -4.18506E+01 -3.81828E+01 -3.45933E+01
  -3.17938E+01 -2.97750E+01 -2.85840E+01 -2.84325E+01 -2.97310E+01 -3.22522E+01 -3.29278E+01 -3.28572E+01 -3.54666E+01 -3.70341E+01
  -3.44830E+01 -2.77758E+01 -1.80353E+01 -5.86234E+00  9.07910E+00  2.73121E+01  4.84599E+01  7.14510E+01  9.45639E+01  1.15228E+02
   1.31223E+02  1.41272E+02  1.45543E+02  1.45462E+02  1.42280E+02  1.37410E+02  1.32422E+02  1.28000E+02  1.24225E+02  1.21089E+02
   1.18561E+02  1.16580E+02  1.15097E+02  1.14045E+02  1.13314E+02  1.12759E+02  1.12269E+02  1.11715E+02  1.10998E+02  1.10017E+02
   1.08665E+02  1.06920E+02  1.04772E+02  1.02229E+02  9.93314E+01  9.61726E+01  9.28700E+01  8.95683E+01  8.63806E+01  8.34085E+01
   8.07643E+01  7.86153E+01  7.71227E+01  7.64216E+01  7.65809E+01  7.75968E+01  7.93753E+01  8.17774E+01  8.46831E+01  8.79524E+01
   9.14440E+01  9.50382E+01  9.86574E+01  1.02288E+02  1.05936E+02  1.09587E+02  1.13221E+02  1.16827E+02  1.20338E+02  1.23686E+02
   1.26861E+02  1.29875E+02  1.32721E+02  1.35446E+02  1.38117E+02  1.40795E+02  1.41977E+02  1.39465E+02  1.34036E+02  1.24381E+02
   1.12054E+02  9.82312E+01  8.27814E+01  6.49167E+01  4.44474E+01  2.24327E+01  1.36629E+00 -1.57722E+01 -2.65583E+01 -2.95909E+01
  -2.49788E+01 -1.38474E+01 -2.01277E-01  1.26611E+01  2.30774E+01  2.95601E+01  3.29474E+01  3.41964E+01  3.30642E+01  2.86293E+01
   2.02630E+01  8.46639E+00 -4.90039E+00 -1.74266E+01 -2.69190E+01 -3.20205E+01 -3.27515E+01 -3.01363E+01 -2.57553E+01 -2.12587E+01
  -1.75629E+01 -1.49974E+01 -1.34451E+01 -1.23073E+01 -1.10964E+01 -9.46657E+00 -7.22787E+00 -4.33019E+00 -8.04860E-01  3.24460E+00
   7.66695E+00  1.22981E+01  1.70099E+01  2.17236E+01  2.63810E+01  3.10098E+01  3.56282E+01  4.02841E+01  4.50531E+01  5.00422E+01
   5.52992E+01  6.08832E+01  6.68872E+01  7.34013E+01  8.04501E+01  8.80049E+01  9.59330E+01  1.04032E+02  1.11941E+02  1.19272E+02
   1.25652E+02  1.30821E+02  1.34537E+02  1.36512E+02  1.36520E+02  1.34395E+02  1.30086E+02  1.23694E+02  1.15607E+02  1.06341E+02
   9.64395E+01  8.63886E+01  7.65301E+01  6.69691E+01  5.77046E+01  4.86909E+01  3.99715E+01  3.16428E+01  2.38744E+01  1.68435E+01
   1.06937E+01  5.51990E+00  1.32678E+00 -1.96849E+00 -4.53330E+00 -6.50362E+00 -8.00513E+00 -9.15131E+00 -1.00580E+01 -1.07746E+01
  -1.12841E+01 -1.16283E+01 -1.18517E+01 -1.19918E+01 -1.20595E+01 -1.20762E+01 -1.20653E+01 -1.20421E+01 -1.19956E+01 -1.18992E+01
  -1.17705E+01 -1.16322E+01 -1.15036E+01 -1.13796E+01 -1.12694E+01 -1.11414E+01 -1.09841E+01 -1.08072E+01 -1.06216E+01 -1.04509E+01
  -1.02996E+01 -1.01600E+01 -1.00055E+01 -9.83541E+00 -9.64473E+00 -9.45709E+00 -9.26875E+00 -9.06708E+00 -8.87597E+00 -8.70312E+00
  -8.54766E+00 -8.43892E+00 -8.36894E+00 -8.30798E+00 -8.22508E+00 -8.11897E+00 -7.97731E+00 -7.83050E+00 -7.67479E+00 -7.52318E+00
  -7.35310E+00 -7.18504E+00 -7.01993E+00 -6.86474E+00 -6.72290E+00 -6.60179E+00 -6.50482E+00 -6.41722E+00 -6.32401E+00 -6.23410E+00
  -6.16509E+00 -6.13512E+00 -6.12932E+00 -6.11575E+00 -6.06137E+00 -5.98228E+00 -5.90833E+00 -5.85826E+00 -5.87351E+00 -5.98343E+00
  -6.14925E+00 -6.34004E+00 -6.52100E+00 -6.65947E+00 -6.74790E+00 -6.79091E+00 -6.79434E+00 -6.75310E+00 -6.64837E+00 -6.47318E+00
 NY background values follow
     2.365E+01    2.372E+01    2.379E+01    2.386E+01    2.393E+01    2.400E+01    2.407E+01    2.414E+01    2.421E+01    2.428E+01
     2.435E+01    2.441E+01    2.448E+01    2.455E+01    2.462E+01    2.469E+01    2.476E+01    2.483E+01    2.490E+01    2.497E+01
     2.504E+01    2.511E+01    2.518E+01    2.525E+01    2.532E+01    2.539E+01    2.546E+01    2.553E+01    2.560E+01    2.567E+01
     2.573E+01    2.580E+01    2.587E+01    2.594E+01    2.601E+01    2.608E+01    2.615E+01    2.621E+01    2.628E+01    2.635E+01
     2.642E+01    2.649E+01    2.655E+01    2.662E+01    2.669E+01    2.675E+01    2.682E+01    2.689E+01    2.695E+01    2.702E+01
     2.708E+01    2.715E+01    2.721E+01    2.728E+01    2.734E+01    2.740E+01    2.747E+01    2.753E+01    2.759E+01    2.766E+01
     2.772E+01    2.778E+01    2.784E+01    2.790E+01    2.796E+01    2.802E+01    2.808E+01    2.814E+01    2.820E+01    2.826E+01
     2.831E+01    2.837E+01    2.843E+01    2.848E+01    2.854E+01    2.860E+01    2.865E+01    2.870E+01    2.876E+01    2.881E+01
     2.886E+01    2.892E+01    2.897E+01    2.902E+01    2.907E+01    2.912E+01    2.917E+01    2.922E+01    2.926E+01    2.931E+01
     2.936E+01    2.940E+01    2.945E+01    2.949E+01    2.954E+01    2.958E+01    2.963E+01    2.967E+01    2.971E+01    2.975E+01
     2.979E+01    2.983E+01    2.987E+01    2.991E+01    2.995E+01    2.998E+01    3.002E+01    3.005E+01    3.009E+01    3.012E+01
     3.016E+01    3.019E+01    3.022E+01    3.025E+01    3.028E+01    3.031E+01    3.034E+01    3.037E+01    3.040E+01    3.043E+01
     3.045E+01    3.048E+01    3.050E+01    3.053E+01    3.055E+01    3.057E+01    3.059E+01    3.061E+01    3.063E+01    3.065E+01
     3.067E+01    3.069E+01    3.071E+01    3.072E+01    3.074E+01    3.075E+01    3.076E+01    3.078E+01    3.079E+01    3.080E+01
     3.081E+01    3.082E+01    3.082E+01    3.083E+01    3.084E+01    3.084E+01    3.085E+01    3.085E+01    3.085E+01    3.085E+01
     3.085E+01    3.085E+01    3.085E+01    3.085E+01    3.084E+01    3.084E+01    3.083E+01    3.082E+01    3.082E+01    3.081E+01
     3.080E+01    3.079E+01    3.078E+01    3.076E+01    3.075E+01    3.074E+01    3.072E+01    3.070E+01    3.069E+01    3.067E+01
     3.065E+01    3.063E+01    3.061E+01    3.059E+01    3.057E+01    3.054E+01    3.052E+01    3.049E+01    3.047E+01    3.044E+01
     3.041E+01    3.039E+01    3.036E+01    3.033E+01    3.029E+01    3.026E+01    3.023E+01    3.020E+01    3.016E+01    3.013E+01
     3.009E+01    3.005E+01    3.002E+01    2.998E+01    2.994E+01    2.990E+01    2.986E+01    2.982E+01    2.977E+01    2.973E+01
     2.969E+01    2.964E+01    2.960E+01    2.955E+01    2.950E+01    2.946E+01    2.941E+01    2.936E+01    2.931E+01    2.926E+01
     2.921E+01    2.915E+01    2.910E+01    2.905E+01    2.899E+01    2.894E+01    2.888E+01    2.882E+01    2.877E+01    2.871E+01
     2.865E+01    2.859E+01    2.853E+01    2.847E+01    2.841E+01    2.835E+01    2.829E+01    2.822E+01    2.816E+01    2.810E+01
     2.803E+01    2.797E+01    2.790E+01    2.783E+01    2.777E+01    2.770E+01    2.763E+01    2.756E+01    2.750E+01    2.743E+01
     2.736E+01    2.729E+01    2.722E+01    2.714E+01    2.707E+01    2.700E+01    2.693E+01    2.685E+01    2.678E+01    2.671E+01
     2.663E+01    2.656E+01    2.649E+01    2.641E+01    2.633E+01    2.626E+01    2.618E+01    2.611E+01    2.603E+01    2.596E+01
     2.588E+01    2.580E+01    2.573E+01    2.565E+01    2.557E+01    2.549E+01    2.542E+01    2.534E+01    2.526E+01    2.518E+01
     2.511E+01    2.503E+01    2.495E+01    2.487E+01    2.480E+01    2.472E+01    2.464E+01    2.456E+01    2.449E+01    2.441E+01
     2.433E+01    2.425E+01    2.418E+01    2.410E+01    2.402E+01    2.394E+01    2.386E+01    2.379E+01    2.371E+01    2.363E+01
     2.355E+01    2.347E+01    2.339E+01    2.332E+01    2.324E+01    2.316E+01    2.308E+01    2.300E+01    2.292E+01    2.284E+01
     2.277E+01    2.269E+01    2.261E+01    2.253E+01    2.245E+01    2.237E+01    2.229E+01    2.221E+01    2.213E+01    2.205E+01
     2.197E+01    2.189E+01    2.181E+01    2.173E+01    2.165E+01    2.157E+01    2.149E+01    2.141E+01    2.133E+01    2.125E+01
     2.117E+01    2.109E+01    2.101E+01    2.093E+01    2.085E+01    2.077E+01    2.069E+01    2.060E+01    2.052E+01    2.044E+01
     2.036E+01    2.028E+01    2.019E+01    2.011E+01    2.003E+01    1.995E+01    1.987E+01    1.978E+01    1.970E+01    1.962E+01
     1.954E+01    1.945E+01    1.937E+01    1.929E+01    1.921E+01    1.912E+01    1.904E+01    1.896E+01    1.888E+01    1.880E+01
     1.871E+01    1.863E+01    1.855E+01    1.847E+01    1.839E+01    1.831E+01    1.823E+01    1.815E+01    1.807E+01    1.799E+01
     1.791E+01    1.783E+01    1.775E+01    1.767E+01    1.760E+01    1.752E+01    1.744E+01    1.736E+01    1.729E+01    1.721E+01
     1.714E+01    1.706E+01    1.699E+01    1.691E+01    1.684E+01    1.676E+01    1.669E+01    1.661E+01    1.654E+01    1.647E+01
     1.640E+01    1.632E+01    1.625E+01    1.618E+01    1.611E+01    1.604E+01    1.597E+01    1.590E+01    1.583E+01    1.576E+01
     1.569E+01    1.562E+01    1.556E+01    1.549E+01    1.542E+01    1.536E+01    1.529E+01    1.522E+01    1.516E+01    1.509E+01
     1.503E+01    1.496E+01    1.490E+01    1.484E+01    1.477E+01    1.471E+01    1.465E+01    1.458E+01    1.452E+01    1.446E+01
     1.440E+01    1.434E+01    1.428E+01    1.422E+01    1.416E+01    1.410E+01    1.404E+01    1.398E+01    1.392E+01    1.387E+01
     1.381E+01    1.375E+01    1.369E+01    1.364E+01    1.358E+01    1.352E+01    1.347E+01    1.341E+01    1.336E+01    1.330E+01
     1.325E+01    1.319E+01    1.314E+01    1.308E+01    1.303E+01    1.298E+01    1.292E+01    1.287E+01    1.282E+01    1.276E+01
     1.271E+01    1.266E+01    1.261E+01    1.255E+01    1.250E+01    1.245E+01    1.240E+01    1.235E+01    1.230E+01    1.224E+01
     1.219E+01    1.214E+01    1.209E+01    1.204E+01    1.199E+01    1.194E+01    1.189E+01    1.184E+01    1.178E+01    1.173E+01
     1.168E+01    1.163E+01    1.158E+01    1.153E+01    1.148E+01    1.143E+01    1.138E+01    1.133E+01    1.128E+01    1.123E+01
     1.118E+01    1.113E+01    1.108E+01    1.103E+01    1.098E+01    1.093E+01    1.088E+01    1.083E+01    1.078E+01    1.073E+01
 Mac      Conc. = 3.56E-04
  -3.09591E+00 -4.05012E+00 -5.05853E+00 -6.13085E+00 -7.29541E+00 -8.59388E+00 -1.00357E+01 -1.14908E+01 -1.26441E+01 -1.33746E+01
  -1.37237E+01 -1.37073E+01 -1.33279E+01 -1.25859E+01 -1.14489E+01 -9.83189E+00 -7.67272E+00 -5.00074E+00 -1.94018E+00  1.30106E+00
   4.48376E+00  7.43016E+00  1.00665E+01  1.23956E+01  1.44610E+01  1.63103E+01  1.79919E+01  1.95867E+01  2.11736E+01  2.27382E+01
   2.41625E+01  2.53630E+01  2.63798E+01  2.73287E+01  2.83633E+01  2.95502E+01  3.08517E+01  3.21633E+01  3.33719E+01  3.44032E+01
   3.52199E+01  3.58413E+01  3.62831E+01  3.65494E+01  3.66276E+01  3.64784E+01  3.60902E+01  3.55259E+01  3.49020E+01  3.42899E+01
   3.37906E+01  3.35252E+01  3.35241E+01  3.37725E+01  3.42309E+01  3.48361E+01  3.55599E+01  3.63490E+01  3.71231E+01  3.77529E+01
   3.81908E+01  3.85018E+01  3.87478E+01  3.89559E+01  3.91809E+01  3.94654E+01  3.98894E+01  4.04992E+01  4.13113E+01  4.23106E+01
   4.34229E+01  4.45132E+01  4.54301E+01  4.60894E+01  4.64865E+01  4.66349E+01  4.66106E+01  4.65176E+01  4.64630E+01  4.65077E+01
   4.67077E+01  4.70790E+01  4.76182E+01  4.82876E+01  4.90412E+01  4.97661E+01  5.03702E+01  5.07738E+01  5.09190E+01  5.07708E+01
   5.03445E+01  4.96163E+01  4.85235E+01  4.70283E+01  4.51127E+01  4.27650E+01  3.99388E+01  3.66254E+01  3.29208E+01  2.89844E+01
   2.49235E+01  2.07876E+01  1.66250E+01  1.25324E+01  8.65088E+00  5.22656E+00  2.53497E+00  8.53086E-01  3.21652E-01  9.02610E-01
