 LCModel (Version 6.3-1N) Copyright: S.W. Provencher.          Ref.: Magn. Reson. Med. 30:672-679 (1993).                
 Slice_N1@22_18  28-Feb-2025 11:43:23
 27 lines in following concentration table = NCONC+1
    Conc.  %SD /Cr+PCr  Metabolite                                         
 3.54E-04   4% 3.9E-04 Mac                                                 
    7.307  13%   8.000 Cr                                                  
    0.000 999%   0.000 PCr                                                 
    6.031  21%   6.603 Ins                                                 
    0.353 356%   0.386 NAA                                                 
    9.163  18%  10.032 Tau                                                 
    0.000 999%   0.000 PCho                                                
    2.113  17%   2.313 GPC                                                 
    7.872  18%   8.618 Glu                                                 
    3.408  33%   3.731 Gln                                                 
    0.000 999%   0.000 Ala                                                 
    0.000 999%   0.000 Asc                                                 
    1.875  51%   2.053 Asp                                                 
    0.627  89%   0.686 GABA                                                
    0.570 107%   0.624 Glc                                                 
    1.963  33%   2.150 GSH                                                 
   25.148   5%  27.533 Lac                                                 
    7.040  14%   7.708 NAAG                                                
    0.000 999%   0.000 PE                                                  
    2.113  17%   2.313 GPC+PCho                                            
    7.393  16%   8.094 NAA+NAAG                                            
   11.279  16%  12.349 Glu+Gln                                             
    7.307  13%   8.000 Cr+PCr                                              
    7.393  16%   8.094 NAA+NAAG                                            
    7.307  13%   8.000 Cr+PCr                                              
   11.279  16%  12.349 Glu+Gln                                             
   6 lines in following misc. output table
  FWHM = 0.081 ppm    S/N =   3                                            
  Data shift =-0.024 ppm                                                   
  Ph: -85 deg       0.0 deg/ppm                                            
  alphaB,S = 1.0E-01,   1.4E+02                                            
   19 spline knots.   Ns = 8(1)                                            
  (11) 4 infls.   ( 6) 1 extrs.                                            
  480 points on ppm-axis = NY
      4.100000     4.091866     4.083733     4.075600     4.067466     4.059333     4.051199     4.043066     4.034933     4.026799
      4.018666     4.010532     4.002399     3.994265     3.986132     3.977998     3.969864     3.961731     3.953597     3.945463
      3.937330     3.929196     3.921062     3.912929     3.904795     3.896662     3.888528     3.880394     3.872261     3.864127
      3.855993     3.847860     3.839726     3.831592     3.823459     3.815325     3.807191     3.799058     3.790924     3.782790
      3.774657     3.766523     3.758389     3.750256     3.742122     3.733989     3.725855     3.717721     3.709588     3.701454
      3.693320     3.685187     3.677053     3.668919     3.660786     3.652652     3.644518     3.636385     3.628251     3.620117
      3.611984     3.603850     3.595716     3.587583     3.579449     3.571316     3.563182     3.555048     3.546915     3.538781
      3.530647     3.522514     3.514380     3.506246     3.498113     3.489979     3.481845     3.473712     3.465578     3.457444
      3.449311     3.441177     3.433043     3.424910     3.416776     3.408643     3.400509     3.392375     3.384242     3.376108
      3.367974     3.359841     3.351707     3.343573     3.335440     3.327306     3.319172     3.311039     3.302905     3.294771
      3.286638     3.278504     3.270370     3.262237     3.254103     3.245970     3.237836     3.229702     3.221569     3.213435
      3.205301     3.197168     3.189034     3.180900     3.172767     3.164633     3.156499     3.148366     3.140232     3.132098
      3.123965     3.115831     3.107697     3.099564     3.091430     3.083297     3.075163     3.067029     3.058896     3.050762
      3.042628     3.034495     3.026361     3.018227     3.010094     3.001960     2.993826     2.985693     2.977559     2.969425
      2.961292     2.953158     2.945024     2.936891     2.928757     2.920624     2.912490     2.904356     2.896223     2.888089
      2.879955     2.871822     2.863688     2.855554     2.847421     2.839287     2.831153     2.823020     2.814886     2.806752
      2.798619     2.790485     2.782351     2.774218     2.766084     2.757951     2.749817     2.741683     2.733550     2.725416
      2.717282     2.709149     2.701015     2.692881     2.684748     2.676614     2.668480     2.660347     2.652213     2.644079
      2.635946     2.627812     2.619678     2.611545     2.603411     2.595278     2.587144     2.579010     2.570877     2.562743
      2.554609     2.546476     2.538342     2.530208     2.522075     2.513941     2.505807     2.497674     2.489540     2.481406
      2.473273     2.465139     2.457006     2.448872     2.440738     2.432605     2.424471     2.416337     2.408204     2.400070
      2.391936     2.383803     2.375669     2.367535     2.359402     2.351268     2.343134     2.335001     2.326867     2.318733
      2.310600     2.302466     2.294333     2.286199     2.278065     2.269932     2.261798     2.253664     2.245531     2.237397
      2.229263     2.221130     2.212996     2.204862     2.196729     2.188595     2.180461     2.172328     2.164194     2.156060
      2.147927     2.139793     2.131660     2.123526     2.115392     2.107259     2.099125     2.090991     2.082858     2.074724
      2.066590     2.058457     2.050323     2.042189     2.034056     2.025922     2.017788     2.009655     2.001521     1.993387
      1.985254     1.977120     1.968987     1.960853     1.952719     1.944586     1.936452     1.928318     1.920185     1.912051
      1.903917     1.895784     1.887650     1.879516     1.871383     1.863249     1.855115     1.846982     1.838848     1.830714
      1.822581     1.814447     1.806314     1.798180     1.790046     1.781913     1.773779     1.765645     1.757512     1.749378
      1.741244     1.733111     1.724977     1.716843     1.708710     1.700576     1.692442     1.684309     1.676175     1.668041
      1.659908     1.651774     1.643641     1.635507     1.627373     1.619240     1.611106     1.602972     1.594839     1.586705
      1.578571     1.570438     1.562304     1.554170     1.546037     1.537903     1.529769     1.521636     1.513502     1.505368
      1.497235     1.489101     1.480968     1.472834     1.464700     1.456567     1.448433     1.440299     1.432166     1.424032
      1.415898     1.407765     1.399631     1.391497     1.383364     1.375230     1.367096     1.358963     1.350829     1.342695
      1.334562     1.326428     1.318295     1.310161     1.302027     1.293894     1.285760     1.277626     1.269493     1.261359
      1.253225     1.245092     1.236958     1.228824     1.220691     1.212557     1.204423     1.196290     1.188156     1.180022
      1.171889     1.163755     1.155622     1.147488     1.139354     1.131221     1.123087     1.114953     1.106820     1.098686
      1.090552     1.082419     1.074285     1.066151     1.058018     1.049884     1.041750     1.033617     1.025483     1.017349
      1.009216     1.001082     0.992949     0.984815     0.976681     0.968548     0.960414     0.952280     0.944147     0.936013
      0.927879     0.919746     0.911612     0.903478     0.895345     0.887211     0.879077     0.870944     0.862810     0.854676
      0.846543     0.838409     0.830276     0.822142     0.814008     0.805875     0.797741     0.789607     0.781474     0.773340
      0.765206     0.757073     0.748939     0.740805     0.732672     0.724538     0.716404     0.708271     0.700137     0.692003
      0.683870     0.675736     0.667603     0.659469     0.651335     0.643202     0.635068     0.626934     0.618801     0.610667
      0.602533     0.594400     0.586266     0.578132     0.569999     0.561865     0.553731     0.545598     0.537464     0.529330
      0.521197     0.513063     0.504930     0.496796     0.488662     0.480529     0.472395     0.464261     0.456128     0.447994
      0.439861     0.431727     0.423593     0.415460     0.407326     0.399192     0.391059     0.382925     0.374792     0.366658
      0.358524     0.350391     0.342257     0.334124     0.325990     0.317856     0.309723     0.301589     0.293455     0.285322
      0.277188     0.269055     0.260921     0.252787     0.244654     0.236520     0.228386     0.220253     0.212119     0.203986
 NY phased data points follow
   1.21339E+01  3.06820E+01  1.60782E+01  3.00816E+01  1.41311E+01  9.88133E+00  2.22661E+01  5.70556E+00  1.62335E+01  1.79716E+01
   4.72146E+00  5.74374E+00 -3.13585E+00 -1.99902E+00 -5.82561E+00 -8.03751E+00 -1.03915E+01 -1.73033E+01 -8.39603E+00 -1.70974E+01
  -2.70459E+01 -4.21185E+01 -3.36008E+01 -3.08687E+01 -3.39599E+01 -2.15453E+01 -2.16295E+01  1.21970E+01  1.21461E+01  1.14191E+01
   3.03215E+01  3.30224E+01  2.64732E+01  1.23156E+01  2.23304E+01  1.80024E+01  2.09247E+00  7.34244E+00  2.80026E+01  2.89005E-01
  -6.47164E+00 -6.30350E+00 -2.59248E+01 -2.48080E+00 -1.60448E+00  7.77480E+00  1.25694E+01  2.51608E+01  3.96404E+01  4.07331E+01
   3.99467E+01  3.91818E+01  5.82869E+01  4.78371E+01  4.42884E+01  3.00431E+01  2.10652E+01  2.15572E+01  1.13584E+01  1.73313E+01
   2.68833E+01  2.31229E+01  1.31604E+01  3.09104E+01  1.76179E+01  2.00149E+01  3.80102E+01  1.90744E+01  1.48763E+01  2.03034E+01
   1.99637E+01  1.44548E+01  1.60733E+01  1.55260E+01  1.15887E+01  1.52789E+01  3.50173E+01  4.37099E+01  5.35463E+01  5.02347E+01
   4.62211E+01  6.26144E+01  4.43038E+01  4.28866E+01  2.68422E+01  1.65387E+01  3.69042E+01  3.03080E+01  2.85262E+01  3.31108E+01
   4.22373E+01  4.45227E+01  5.05566E+01  6.63304E+01  7.67115E+01  7.62241E+01  8.55450E+01  8.83247E+01  7.25353E+01  7.71201E+01
   8.17738E+01  8.06450E+01  7.34413E+01  6.06489E+01  4.79534E+01  3.92098E+01  2.75964E+01 -4.02575E+00 -2.77966E+01 -2.81075E+01
  -5.78399E+01 -9.01371E+01 -9.57519E+01 -1.02281E+02 -6.29905E+01 -5.80013E+01 -6.89444E+01 -3.42650E+01 -1.84193E+01 -9.52318E+00
  -3.19323E+00  1.44060E+01  1.33316E+01  2.73688E+01  4.31144E+01  2.70593E+01  4.71564E+01  6.08242E+01  6.36663E+01  7.17005E+01
   7.32248E+01  7.38346E+01  6.50832E+01  3.96152E+01  1.83385E+01  7.18701E+00 -1.51805E+00 -1.59631E+01 -5.32467E+01 -6.40385E+01
  -5.86787E+01 -5.33873E+01 -3.55635E+01 -2.85532E+01 -2.41998E+01 -2.90100E+01 -4.03499E+01 -3.31906E+01 -2.14271E+01 -2.24759E+01
  -1.72301E+01 -1.97874E+01 -1.96564E+01 -5.23790E+00  4.85876E+00  3.93871E+00 -7.55614E+00 -1.01734E+00 -5.38599E+00 -2.86261E+00
   7.49007E+00  4.99627E+00  2.36550E+01  1.46171E+01  1.79190E+00  6.43800E+00  4.20141E+00  1.11202E+01  1.11035E+01  6.78160E+00
   5.94342E+00  9.87463E+00  7.77520E+00  5.59623E+00  1.26954E+01  1.46279E+01  5.83169E+00 -2.08405E+00  1.19633E+01  9.13852E+00
  -1.57754E+01 -1.58831E+01 -7.82307E+00 -1.47785E+01 -2.73504E+01 -4.31559E+01 -4.67418E+01 -2.67171E+01 -2.77596E+01 -2.88158E+01
  -1.39309E+01 -2.34147E+01 -9.75471E+00 -7.91794E+00 -1.78059E+01 -6.18674E+00 -1.96114E+01 -3.89184E+00 -2.73720E+00 -1.82699E+00
   1.86385E+01 -6.21572E+00  4.47566E-01  1.10483E+01  1.35330E+01  1.12838E+01  1.85002E+00  4.24109E+00 -7.13530E+00 -2.26938E+00
  -1.81630E+01 -3.04516E+01 -1.24684E+01 -9.78489E+00 -1.32589E+01  7.80548E-01  2.34942E+01  1.98706E+01  1.10512E+01  2.34587E+01
   2.24455E+01  8.76503E+00  2.28248E+01  1.09495E+01  2.58745E+00  1.38248E+01  7.04506E+00  1.63929E+01  1.08186E+01  6.62926E+00
   5.17069E+00  4.64254E+00  1.48067E+01  1.42501E+01 -9.90148E-01  1.27432E+00  1.70488E+00 -1.88975E+01 -8.73737E+00 -1.94760E+01
  -1.60244E+01 -1.22855E+01 -1.39774E+01 -4.48629E+00 -1.18406E+01  1.91626E+01  1.79465E+01  1.07038E+01  6.55544E+00  3.26558E+00
   9.47337E+00  3.77135E+00  9.41167E+00 -4.15991E+00  6.79249E+00  8.82764E+00  1.28253E+01  2.91783E+01  6.48331E+01  1.15197E+02
   1.26332E+02  1.43490E+02  1.41233E+02  1.67272E+02  1.76119E+02  1.41521E+02  1.34951E+02  1.18098E+02  1.06870E+02  9.16280E+01
   9.70289E+01  1.02428E+02  9.38242E+01  9.70229E+01  8.68528E+01  9.95114E+01  1.09345E+02  1.01026E+02  8.90658E+01  8.66425E+01
   8.89741E+01  8.04017E+01  9.26898E+01  8.39261E+01  8.77677E+01  9.13087E+01  6.85013E+01  8.71951E+01  7.52337E+01  6.91928E+01
   7.53503E+01  5.51165E+01  6.18633E+01  4.52632E+01  3.68595E+01  3.79781E+01  2.97639E+01  4.66533E+01  4.26291E+01  3.47100E+01
   3.11834E+01  2.47712E+01  3.35544E+01  3.49974E+01  4.50054E+01  4.57093E+01  3.46497E+01  3.98820E+01  4.22077E+01  5.01857E+01
   3.52297E+01  2.39707E+01  4.48788E+01  4.29974E+01  3.91504E+01  3.92426E+01  3.45075E+01  4.16573E+01  4.12958E+01  3.98768E+01
   4.57480E+01  4.06353E+01  3.99274E+01  4.24796E+01  4.40261E+01  4.29385E+01  3.88679E+01  4.29584E+01  4.59657E+01  5.67251E+01
   5.96847E+01  4.79245E+01  4.14307E+01  4.89879E+01  5.44584E+01  6.85924E+01  7.78077E+01  5.97405E+01  6.26518E+01  6.84562E+01
   8.06881E+01  7.67722E+01  6.48672E+01  6.37725E+01  3.56895E+01  1.87804E+01  2.45934E+00 -1.03782E+01 -4.58612E+01 -8.65140E+01
  -1.01353E+02 -1.30249E+02 -1.43943E+02 -1.45763E+02 -1.41210E+02 -1.35568E+02 -1.40301E+02 -1.28684E+02 -1.07234E+02 -1.07456E+02
  -1.00469E+02 -8.55502E+01 -7.43917E+01 -6.98649E+01 -6.25467E+01 -3.97018E+01 -3.70332E+01 -2.12735E+01 -1.85405E+01 -1.11853E+01
   5.49707E-01  5.70045E+00  3.15391E+01  1.66046E+01  2.33941E+01  3.54047E+01  4.71365E+01  5.33330E+01  4.63124E+01  6.63222E+01
   5.98964E+01  6.63451E+01  7.51749E+01  7.93354E+01  7.18428E+01  8.77022E+01  1.09055E+02  9.48426E+01  1.19081E+02  1.05860E+02
   1.07907E+02  1.15220E+02  9.00110E+01  9.41453E+01  7.63924E+01  7.60698E+01  7.25967E+01  6.71907E+01  4.47341E+01  2.30260E+01
   3.96654E+01  1.23411E+01  1.44237E+01  6.91583E-01 -2.88505E+01 -5.36167E+00 -2.55291E+01 -2.87609E+01 -2.41626E+01 -4.65755E+01
  -3.80116E+01 -3.14365E+01 -2.58287E+01 -2.89547E+01 -4.01056E+01 -4.00530E+01 -3.36265E+01 -2.06129E+01 -2.39763E+01 -2.76622E+01
  -3.79349E+01 -3.79254E+01 -2.88366E+01 -3.77954E+01 -2.23948E+01 -2.59821E+01 -2.72796E+01 -2.09246E+01 -1.71533E+01 -7.83195E+00
  -2.50660E+01 -1.00834E+01 -1.82852E+01 -2.66852E+01 -1.78610E+01 -2.36731E+01 -2.12847E+01 -2.45536E+01 -9.78898E+00 -3.01959E+01
  -2.85295E+01 -1.63610E+01 -1.86998E+01 -1.20947E+01 -2.05309E+01 -7.63149E+00 -1.97233E+01 -1.51465E+01 -1.46399E+01 -2.07523E+01
  -1.83054E+01 -2.06855E+01  1.07330E+00 -2.00876E+01 -2.79002E+01 -9.97855E+00 -1.00370E+00 -1.39723E+01 -2.14269E+01 -9.75430E-02
  -1.07830E+01 -8.40936E+00 -4.21501E+00 -1.42226E+01 -7.16835E+00 -5.63959E+00 -5.81183E+00 -6.47907E+00 -1.69575E+01 -5.37186E+00
   2.77389E+00 -2.17235E+01 -6.40523E+00  6.59481E+00 -6.09924E+00  9.06124E+00  2.06465E+00 -1.14078E+01 -7.80878E+00 -8.10126E+00
 NY points of the fit to the data follow
  -3.76298E+01 -3.36658E+01 -2.82941E+01 -2.17657E+01 -1.43363E+01 -6.14430E+00  2.22478E+00  9.99714E+00  1.63263E+01  2.08288E+01
   2.25643E+01  2.20054E+01  1.89416E+01  1.37389E+01  6.65145E+00 -1.22528E+00 -8.23512E+00 -1.40036E+01 -1.86983E+01 -2.23877E+01
  -2.49742E+01 -2.62290E+01 -2.59615E+01 -2.41064E+01 -2.05899E+01 -1.52021E+01 -7.63423E+00  2.13245E+00  1.33688E+01  2.47103E+01
   3.41861E+01  3.95707E+01  4.00880E+01  3.89385E+01  3.69435E+01  3.42530E+01  3.11362E+01  2.76932E+01  2.40769E+01  2.04640E+01
   1.70661E+01  1.41047E+01  1.18293E+01  1.04823E+01  1.03131E+01  1.16530E+01  1.47975E+01  1.96069E+01  2.51676E+01  3.01632E+01
   3.32004E+01  3.42588E+01  3.35924E+01  3.15527E+01  2.86536E+01  2.52846E+01  2.22193E+01  1.98653E+01  1.84254E+01  1.79999E+01
   1.84935E+01  1.93317E+01  1.99756E+01  2.05499E+01  2.15577E+01  2.32890E+01  2.56018E+01  2.83307E+01  3.10724E+01  3.29620E+01
   3.41640E+01  3.49007E+01  3.47312E+01  3.40074E+01  3.36798E+01  3.40768E+01  3.56014E+01  3.81505E+01  4.11376E+01  4.34258E+01
   4.43268E+01  4.40545E+01  4.23139E+01  3.88438E+01  3.42025E+01  2.91926E+01  2.45491E+01  2.11494E+01  2.00126E+01  2.19357E+01
   2.70826E+01  3.46884E+01  4.38539E+01  5.26107E+01  6.05856E+01  6.67092E+01  7.13542E+01  7.46068E+01  7.66780E+01  7.77611E+01
   7.70960E+01  7.40469E+01  6.87001E+01  6.12247E+01  5.15659E+01  3.96082E+01  2.53209E+01  9.03149E+00 -8.42143E+00 -2.59209E+01
  -4.20976E+01 -5.51588E+01 -6.42214E+01 -6.92109E+01 -6.88763E+01 -6.38239E+01 -5.34092E+01 -3.92351E+01 -2.56941E+01 -1.43025E+01
  -4.22329E+00  5.19765E+00  1.46267E+01  2.44776E+01  3.35629E+01  4.13434E+01  4.78998E+01  5.33162E+01  5.74116E+01  5.97624E+01
   5.97929E+01  5.70667E+01  5.13561E+01  4.25671E+01  3.08009E+01  1.64939E+01  4.13250E-01 -1.62677E+01 -3.15127E+01 -4.24471E+01
  -4.66332E+01 -4.50685E+01 -4.33772E+01 -4.21115E+01 -4.10081E+01 -3.99582E+01 -3.88680E+01 -3.76325E+01 -3.61276E+01 -3.42672E+01
  -3.20359E+01 -2.95664E+01 -2.70467E+01 -2.44880E+01 -2.20060E+01 -1.96956E+01 -1.75327E+01 -1.54427E+01 -1.33299E+01 -1.12369E+01
  -9.25727E+00 -7.49951E+00 -5.92448E+00 -4.34158E+00 -2.62341E+00 -7.74294E-01  1.08024E+00  2.81436E+00  4.29214E+00  5.50540E+00
   6.51096E+00  7.34917E+00  7.85969E+00  7.82376E+00  7.25070E+00  6.30254E+00  5.10492E+00  3.40914E+00  9.96587E-01 -2.08449E+00
  -5.21508E+00 -7.60706E+00 -9.06081E+00 -9.76506E+00 -1.00574E+01 -1.00180E+01 -9.65543E+00 -8.91957E+00 -7.73407E+00 -6.13166E+00
  -4.11181E+00 -1.77786E+00  7.28421E-01  3.24684E+00  5.63871E+00  7.77676E+00  9.51297E+00  1.06415E+01  1.10948E+01  1.08610E+01
   1.02381E+01  9.52479E+00  8.41919E+00  7.15731E+00  5.98897E+00  4.67986E+00  3.36991E+00  1.80102E+00  3.79979E-01 -6.84733E-01
  -1.49724E+00 -1.99006E+00 -2.04570E+00 -1.41094E+00  1.96208E-01  2.93646E+00  6.91594E+00  1.19188E+01  1.77290E+01  2.39595E+01
   2.99833E+01  3.49673E+01  3.81583E+01  3.92034E+01  3.79492E+01  3.44221E+01  2.96193E+01  2.35102E+01  1.65825E+01  9.07310E+00
   8.28782E-01 -7.85866E+00 -1.66810E+01 -2.49997E+01 -3.22344E+01 -3.78569E+01 -4.13958E+01 -4.25718E+01 -4.13381E+01 -3.79097E+01
  -3.27801E+01 -2.67740E+01 -2.08257E+01 -1.56385E+01 -1.24190E+01 -1.13507E+01 -1.05693E+01 -9.96704E+00 -9.00195E+00 -7.48127E+00
  -5.60571E+00 -2.77078E+00  1.50197E+00  7.73062E+00  1.64625E+01  2.80421E+01  4.25875E+01  5.98297E+01  7.87592E+01  9.75363E+01
   1.13520E+02  1.23537E+02  1.25655E+02  1.21967E+02  1.17633E+02  1.13164E+02  1.08572E+02  1.04051E+02  9.98178E+01  9.59749E+01
   9.24954E+01  8.93966E+01  8.67681E+01  8.47194E+01  8.33087E+01  8.25152E+01  8.22494E+01  8.23098E+01  8.24748E+01  8.25474E+01
   8.23914E+01  8.18055E+01  8.07621E+01  7.92340E+01  7.71395E+01  7.45744E+01  7.15748E+01  6.82862E+01  6.47897E+01  6.11605E+01
   5.74765E+01  5.38325E+01  5.03345E+01  4.70783E+01  4.41910E+01  4.18334E+01  4.01342E+01  3.92168E+01  3.91303E+01  3.98629E+01
   4.13621E+01  4.34589E+01  4.59555E+01  4.86633E+01  5.14647E+01  5.42893E+01  5.71112E+01  5.98941E+01  6.26019E+01  6.52086E+01
   6.77060E+01  7.00650E+01  7.22348E+01  7.41404E+01  7.57020E+01  7.68352E+01  7.75075E+01  7.76989E+01  7.73356E+01  7.63442E+01
   7.46632E+01  7.22858E+01  6.92472E+01  6.55963E+01  6.14016E+01  5.68011E+01  5.19385E+01  4.69495E+01  4.20280E+01  3.74442E+01
   3.35067E+01  3.06195E+01  2.93444E+01  3.03692E+01  3.44740E+01  4.07743E+01  4.81435E+01  5.57761E+01  6.21871E+01  6.70968E+01
   7.02982E+01  7.10708E+01  6.82996E+01  6.08956E+01  4.78601E+01  2.85420E+01  2.89033E+00 -2.83103E+01 -6.28293E+01 -9.65936E+01
  -1.24072E+02 -1.39715E+02 -1.40951E+02 -1.32398E+02 -1.18419E+02 -1.03771E+02 -9.36755E+01 -8.62504E+01 -8.01110E+01 -7.44479E+01
  -6.87677E+01 -6.28565E+01 -5.67171E+01 -5.04342E+01 -4.40822E+01 -3.77633E+01 -3.15339E+01 -2.54371E+01 -1.94874E+01 -1.36495E+01
  -7.85731E+00 -2.04071E+00  3.91004E+00  1.00580E+01  1.64919E+01  2.32681E+01  3.04246E+01  3.79847E+01  4.59120E+01  5.40779E+01
   6.22994E+01  7.03549E+01  7.80272E+01  8.50662E+01  9.12163E+01  9.61473E+01  9.95747E+01  1.01223E+02  1.00839E+02  9.82462E+01
   9.34654E+01  8.67384E+01  7.84952E+01  6.93106E+01  5.97801E+01  5.03884E+01  4.14298E+01  3.29107E+01  2.47371E+01  1.68000E+01
   9.11522E+00  1.76784E+00 -5.05457E+00 -1.10880E+01 -1.61568E+01 -2.02242E+01 -2.33497E+01 -2.56333E+01 -2.72742E+01 -2.84399E+01
  -2.92444E+01 -2.97500E+01 -3.00605E+01 -3.02047E+01 -3.02057E+01 -3.00549E+01 -2.97881E+01 -2.94408E+01 -2.90552E+01 -2.86509E+01
  -2.82181E+01 -2.77535E+01 -2.72735E+01 -2.67987E+01 -2.63051E+01 -2.57937E+01 -2.52869E+01 -2.48090E+01 -2.43223E+01 -2.37979E+01
  -2.32705E+01 -2.27441E+01 -2.22131E+01 -2.16699E+01 -2.11448E+01 -2.06515E+01 -2.01843E+01 -1.97086E+01 -1.91956E+01 -1.86529E+01
  -1.80964E+01 -1.75514E+01 -1.70369E+01 -1.65749E+01 -1.61335E+01 -1.57135E+01 -1.53032E+01 -1.48893E+01 -1.44743E+01 -1.40456E+01
  -1.35912E+01 -1.30997E+01 -1.26028E+01 -1.21092E+01 -1.16415E+01 -1.11838E+01 -1.07218E+01 -1.02643E+01 -9.79867E+00 -9.33085E+00
  -8.89511E+00 -8.48764E+00 -8.10994E+00 -7.75426E+00 -7.41936E+00 -7.08565E+00 -6.76538E+00 -6.43580E+00 -6.09446E+00 -5.72814E+00
  -5.38175E+00 -5.06589E+00 -4.80191E+00 -4.60077E+00 -4.46195E+00 -4.35403E+00 -4.23183E+00 -4.04967E+00 -3.80735E+00 -3.51346E+00
 NY background values follow
     1.978E+01    1.938E+01    1.897E+01    1.857E+01    1.817E+01    1.776E+01    1.736E+01    1.697E+01    1.657E+01    1.618E+01
     1.579E+01    1.541E+01    1.503E+01    1.465E+01    1.428E+01    1.392E+01    1.356E+01    1.321E+01    1.286E+01    1.252E+01
     1.219E+01    1.187E+01    1.156E+01    1.125E+01    1.096E+01    1.067E+01    1.040E+01    1.013E+01    9.876E+00    9.633E+00
     9.402E+00    9.184E+00    8.977E+00    8.782E+00    8.599E+00    8.427E+00    8.268E+00    8.119E+00    7.983E+00    7.857E+00
     7.743E+00    7.640E+00    7.547E+00    7.466E+00    7.396E+00    7.336E+00    7.286E+00    7.248E+00    7.219E+00    7.201E+00
     7.193E+00    7.195E+00    7.207E+00    7.228E+00    7.260E+00    7.301E+00    7.352E+00    7.412E+00    7.481E+00    7.559E+00
     7.647E+00    7.744E+00    7.849E+00    7.963E+00    8.085E+00    8.215E+00    8.353E+00    8.499E+00    8.652E+00    8.813E+00
     8.980E+00    9.154E+00    9.335E+00    9.522E+00    9.715E+00    9.914E+00    1.012E+01    1.033E+01    1.054E+01    1.077E+01
     1.099E+01    1.122E+01    1.145E+01    1.169E+01    1.194E+01    1.218E+01    1.243E+01    1.268E+01    1.294E+01    1.320E+01
     1.346E+01    1.372E+01    1.399E+01    1.426E+01    1.453E+01    1.480E+01    1.507E+01    1.535E+01    1.562E+01    1.590E+01
     1.618E+01    1.647E+01    1.675E+01    1.703E+01    1.732E+01    1.760E+01    1.789E+01    1.818E+01    1.847E+01    1.876E+01
     1.905E+01    1.934E+01    1.963E+01    1.992E+01    2.021E+01    2.050E+01    2.079E+01    2.108E+01    2.137E+01    2.166E+01
     2.194E+01    2.223E+01    2.252E+01    2.280E+01    2.309E+01    2.337E+01    2.365E+01    2.393E+01    2.420E+01    2.447E+01
     2.474E+01    2.500E+01    2.527E+01    2.552E+01    2.577E+01    2.602E+01    2.626E+01    2.650E+01    2.673E+01    2.696E+01
     2.717E+01    2.739E+01    2.759E+01    2.779E+01    2.798E+01    2.817E+01    2.834E+01    2.851E+01    2.867E+01    2.882E+01
     2.896E+01    2.909E+01    2.922E+01    2.933E+01    2.944E+01    2.953E+01    2.962E+01    2.971E+01    2.978E+01    2.985E+01
     2.991E+01    2.997E+01    3.002E+01    3.007E+01    3.011E+01    3.014E+01    3.017E+01    3.020E+01    3.022E+01    3.024E+01
     3.025E+01    3.026E+01    3.027E+01    3.027E+01    3.028E+01    3.028E+01    3.028E+01    3.027E+01    3.027E+01    3.027E+01
     3.026E+01    3.026E+01    3.025E+01    3.025E+01    3.024E+01    3.024E+01    3.023E+01    3.022E+01    3.022E+01    3.021E+01
     3.020E+01    3.020E+01    3.019E+01    3.019E+01    3.018E+01    3.017E+01    3.017E+01    3.016E+01    3.016E+01    3.015E+01
     3.015E+01    3.014E+01    3.014E+01    3.014E+01    3.013E+01    3.013E+01    3.013E+01    3.013E+01    3.012E+01    3.012E+01
     3.012E+01    3.013E+01    3.013E+01    3.013E+01    3.012E+01    3.012E+01    3.012E+01    3.011E+01    3.009E+01    3.008E+01
     3.006E+01    3.003E+01    3.000E+01    2.996E+01    2.992E+01    2.987E+01    2.981E+01    2.974E+01    2.966E+01    2.958E+01
     2.948E+01    2.937E+01    2.925E+01    2.912E+01    2.898E+01    2.883E+01    2.866E+01    2.847E+01    2.828E+01    2.807E+01
     2.784E+01    2.759E+01    2.733E+01    2.706E+01    2.677E+01    2.646E+01    2.614E+01    2.580E+01    2.545E+01    2.508E+01
     2.470E+01    2.430E+01    2.389E+01    2.346E+01    2.301E+01    2.256E+01    2.208E+01    2.160E+01    2.109E+01    2.058E+01
     2.004E+01    1.950E+01    1.894E+01    1.836E+01    1.778E+01    1.717E+01    1.656E+01    1.592E+01    1.528E+01    1.462E+01
     1.395E+01    1.326E+01    1.257E+01    1.186E+01    1.114E+01    1.041E+01    9.667E+00    8.921E+00    8.167E+00    7.408E+00
     6.643E+00    5.874E+00    5.101E+00    4.326E+00    3.549E+00    2.772E+00    1.994E+00    1.218E+00    4.431E-01   -3.287E-01
    -1.097E+00   -1.860E+00   -2.619E+00   -3.370E+00   -4.115E+00   -4.851E+00   -5.579E+00   -6.296E+00   -7.003E+00   -7.698E+00
    -8.381E+00   -9.050E+00   -9.706E+00   -1.035E+01   -1.098E+01   -1.159E+01   -1.219E+01   -1.278E+01   -1.335E+01   -1.391E+01
    -1.445E+01   -1.498E+01   -1.549E+01   -1.599E+01   -1.647E+01   -1.693E+01   -1.738E+01   -1.781E+01   -1.823E+01   -1.863E+01
    -1.901E+01   -1.937E+01   -1.972E+01   -2.005E+01   -2.036E+01   -2.065E+01   -2.092E+01   -2.118E+01   -2.141E+01   -2.163E+01
    -2.183E+01   -2.201E+01   -2.217E+01   -2.231E+01   -2.243E+01   -2.254E+01   -2.263E+01   -2.270E+01   -2.275E+01   -2.278E+01
    -2.280E+01   -2.280E+01   -2.278E+01   -2.275E+01   -2.270E+01   -2.264E+01   -2.256E+01   -2.247E+01   -2.236E+01   -2.223E+01
    -2.209E+01   -2.194E+01   -2.177E+01   -2.159E+01   -2.140E+01   -2.119E+01   -2.097E+01   -2.073E+01   -2.048E+01   -2.023E+01
    -1.995E+01   -1.967E+01   -1.937E+01   -1.907E+01   -1.875E+01   -1.843E+01   -1.809E+01   -1.775E+01   -1.740E+01   -1.704E+01
    -1.667E+01   -1.630E+01   -1.592E+01   -1.554E+01   -1.515E+01   -1.476E+01   -1.436E+01   -1.396E+01   -1.355E+01   -1.315E+01
    -1.274E+01   -1.233E+01   -1.192E+01   -1.151E+01   -1.110E+01   -1.069E+01   -1.028E+01   -9.875E+00   -9.471E+00   -9.070E+00
    -8.671E+00   -8.276E+00   -7.885E+00   -7.497E+00   -7.112E+00   -6.731E+00   -6.353E+00   -5.979E+00   -5.607E+00   -5.240E+00
    -4.875E+00   -4.514E+00   -4.156E+00   -3.801E+00   -3.450E+00   -3.101E+00   -2.756E+00   -2.415E+00   -2.076E+00   -1.741E+00
    -1.409E+00   -1.080E+00   -7.542E-01   -4.316E-01   -1.122E-01    2.041E-01    5.173E-01    8.273E-01    1.134E+00    1.438E+00
     1.739E+00    2.037E+00    2.332E+00    2.624E+00    2.913E+00    3.200E+00    3.484E+00    3.766E+00    4.045E+00    4.322E+00
     4.597E+00    4.870E+00    5.141E+00    5.411E+00    5.678E+00    5.944E+00    6.208E+00    6.470E+00    6.732E+00    6.992E+00
     7.250E+00    7.508E+00    7.764E+00    8.020E+00    8.275E+00    8.529E+00    8.783E+00    9.035E+00    9.288E+00    9.540E+00
     9.792E+00    1.004E+01    1.029E+01    1.055E+01    1.080E+01    1.105E+01    1.130E+01    1.155E+01    1.180E+01    1.205E+01
     1.230E+01    1.255E+01    1.280E+01    1.305E+01    1.329E+01    1.354E+01    1.379E+01    1.404E+01    1.429E+01    1.454E+01
     1.479E+01    1.504E+01    1.528E+01    1.553E+01    1.578E+01    1.603E+01    1.628E+01    1.653E+01    1.678E+01    1.702E+01
 Mac      Conc. = 3.54E-04
  -3.89343E+00 -5.11857E+00 -6.38118E+00 -7.69682E+00 -9.07600E+00 -1.05155E+01 -1.20269E+01 -1.36452E+01 -1.53810E+01 -1.71317E+01
  -1.88132E+01 -2.03340E+01 -2.15981E+01 -2.25178E+01 -2.30615E+01 -2.32443E+01 -2.30818E+01 -2.25761E+01 -2.16814E+01 -2.03152E+01
  -1.84250E+01 -1.60163E+01 -1.32027E+01 -1.02305E+01 -7.42145E+00 -5.01650E+00 -3.01622E+00 -1.27552E+00  2.39388E-01  1.62646E+00
   3.00800E+00  4.37701E+00  5.66574E+00  6.81086E+00  7.81320E+00  8.68999E+00  9.49235E+00  1.02922E+01  1.11335E+01  1.20338E+01
   1.30060E+01  1.40307E+01  1.50175E+01  1.58372E+01  1.63859E+01  1.66731E+01  1.67943E+01  1.68386E+01  1.68000E+01  1.65898E+01
   1.61632E+01  1.55625E+01  1.48998E+01  1.43152E+01  1.38904E+01  1.36857E+01  1.37218E+01  1.40045E+01  1.45006E+01  1.51596E+01
   1.59293E+01  1.67345E+01  1.75329E+01  1.82680E+01  1.88679E+01  1.93207E+01  1.96575E+01  1.99228E+01  2.01621E+01  2.04971E+01
   2.10392E+01  2.18081E+01  2.27944E+01  2.39262E+01  2.51294E+01  2.63308E+01  2.74158E+01  2.82462E+01  2.87358E+01  2.89441E+01
   2.90195E+01  2.90764E+01  2.92043E+01  2.94895E+01  2.99458E+01  3.05938E+01  3.13693E+01  3.22133E+01  3.30709E+01  3.38617E+01
   3.45020E+01  3.49347E+01  3.51327E+01  3.50583E+01  3.46645E+01  3.39127E+01  3.27741E+01  3.11821E+01  2.91031E+01  2.65707E+01
   2.36539E+01  2.04604E+01  1.70922E+01  1.36248E+01  1.00729E+01  6.46342E+00  2.83369E+00 -7.12099E-01 -3.98104E+00 -6.71131E+00
