 
 $NMID
 ID=''
 FMTDAT='(2E13.5)'
 TRAMP=   1.00000E+0
 VOLUME=   1.00000E+0
 $END
  -1.36319E+3   2.47083E+4
   2.21140E+4   3.66687E+4
   4.68191E+4  -1.06881E+4
  -6.56613E+3  -4.18935E+4
  -4.69385E+4  -1.28215E+3
  -6.01476E+3   3.73148E+4
   3.52707E+4   1.43270E+4
   1.55969E+4  -2.16697E+4
  -1.98913E+4  -1.77025E+4
  -2.24747E+4   1.08519E+4
   2.47810E+3   1.99278E+4
   1.81786E+4  -4.20145E+2
   2.85625E+3  -1.43537E+4
  -1.38738E+4  -5.80843E+3
  -5.68279E+3   5.45797E+3
   8.45407E+3   6.05678E+3
   7.14195E+3   1.01248E+3
  -1.07865E+3  -4.70642E+3
  -4.51336E+3  -3.85427E+3
  -2.53156E+3   4.24183E+3
   1.59389E+3   5.13520E+3
   4.16567E+3  -3.19261E+2
   2.27291E+3  -2.09271E+3
  -3.06695E+3  -1.84686E+3
  -4.09318E+3  -2.38456E+2
   1.25235E+3   3.24047E+3
   3.75211E+3   3.20062E+3
  -3.54989E+2  -2.15018E+3
  -2.92701E+3  -4.26032E+3
  -7.92016E+2   5.33790E+2
   8.38547E+2   3.79662E+3
   1.04966E+3   1.34011E+3
  -4.76526E+2  -2.78869E+3
  -1.91463E+3  -3.33765E+3
   9.28086E+1  -9.52694E+2
   2.73866E+3   2.15896E+3
   1.27538E+3   2.22830E+3
  -1.31024E+3  -9.17636E+2
  -6.90477E+2  -1.66796E+3
  -3.11781E+2   6.66961E+2
  -1.17166E+3   8.93353E+2
   4.48164E+2  -1.44093E+3
   2.11172E+3  -1.46138E+3
   1.00390E+3   3.42737E+2
  -5.59511E+2   6.99029E+2
   6.07076E+2   1.16071E+3
   2.04775E+2   1.64281E+3
  -2.01485E+3  -1.22771E+2
  -1.86628E+3  -2.15422E+3
   7.16472E+2  -1.52259E+3
   8.96618E+2  -5.65958E+1
   9.75196E+1  -4.11656E+2
   3.68974E+2  -7.74579E+2
   7.96932E+2  -2.67722E+2
   1.81421E+2   9.02532E+2
  -6.18584E+2   3.97106E+2
  -9.31697E+2  -7.37999E+2
  -7.32915E+1  -1.17056E+3
   1.24892E+3  -5.24773E+2
   6.82888E+2   2.98452E+2
  -1.03326E+2   4.76261E+2
   5.98727E+2   4.07813E+2
   1.06544E+2   1.26025E+3
  -1.78888E+3   8.70915E+2
  -2.58867E+3  -4.66681E+2
  -6.15632E+2  -1.49978E+3
   7.27012E+2  -1.38706E+3
   8.35812E+2  -1.03405E+3
   4.05588E+2  -3.89202E+0
   6.66889E+1   6.78761E+2
  -3.43126E+2   7.69587E+1
   1.28932E+2  -8.52909E+2
   9.60573E+2  -3.13999E+2
   4.40713E+2   1.15372E+3
  -2.68483E+2   9.60712E+2
  -5.67329E+2  -2.29607E+2
   2.54174E+2  -2.14961E+2
   6.31666E+1   5.63718E+2
  -6.84841E+2   5.70772E+2
  -1.04505E+3  -1.01388E+0
  -7.48939E+2  -3.18461E+2
  -5.48674E+1  -4.24943E+2
   1.00103E+2  -1.11760E+2
  -3.78027E+2   2.86350E+0
  -3.78887E+2  -4.90703E+2
   2.58155E+2  -5.51225E+2
   7.73328E+2  -3.24695E+1
   2.34186E+2   5.51860E+2
  -4.68251E+2   3.94419E+2
   1.38086E+2   1.88603E+2
   5.63697E+2   2.85994E+2
   2.65900E+2   7.60807E+2
  -5.42862E+2   1.23836E+3
  -1.03611E+3   7.43876E+2
  -6.75158E+2  -4.77672E+2
   2.88540E+2  -8.72233E+2
   5.28530E+2  -7.93226E+1
   2.19832E+2   4.47002E+2
  -1.36899E+2   1.88753E+2
   5.89788E+2  -5.07203E+2
   1.05753E+3   2.79431E+2
   3.10827E+2   1.00147E+3
  -5.63484E+2   7.75409E+2
  -7.83356E+2  -3.65558E+2
   2.35895E+2  -5.14979E+2
   9.59761E+2   2.71218E+2
   2.64115E+2   7.33575E+2
  -9.54695E+2   3.00712E+2
  -6.81020E+2  -3.37920E+2
   3.13466E+2  -8.56228E+2
   8.91932E+2  -5.52501E+2
   6.57638E+2   2.16115E+2
   3.21199E+2   4.43968E+2
   3.29614E+2   2.90978E+2
   3.33718E+2  -4.15919E+1
   2.15494E+2   5.23191E+2
  -3.30776E+2   5.27515E+2
  -9.43610E+2   2.25201E+2
  -4.38491E+2  -7.63979E+2
   4.44278E+2  -1.13550E+3
   6.76685E+2  -3.49724E+2
   2.33078E+2   1.94813E+2
   2.72021E+2  -1.00597E+2
   4.26563E+2   2.59272E+2
   1.57319E+2   8.48334E+1
  -1.38399E+2   1.97280E+2
  -3.26216E+2  -4.70088E+2
   6.17647E+1  -3.40745E+2
   5.25112E+2   9.35236E+1
   4.01096E+2   2.76960E+2
  -2.01348E+0   7.23063E+2
  -5.59775E+2   2.25333E+2
  -3.78599E+2  -1.75790E+2
  -6.21830E+0  -2.55031E+2
   1.88083E+2  -1.51553E+2
  -2.17454E+2  -1.45180E+2
  -1.46426E+2  -2.83702E+2
   5.00989E+2  -3.34551E+2
   5.16175E+2   1.70492E+2
   2.28522E+2   5.16193E+2
  -3.70191E+2   4.14234E+2
  -5.31042E+2  -6.42872E+2
   3.05992E+2  -7.84074E+2
   9.67531E+2   2.17804E+2
   1.68930E+2   5.30303E+2
  -1.78023E+2   3.41001E+2
  -2.13944E+2  -4.97761E+0
   2.76134E+1   3.45918E+2
  -2.06001E+2   3.22831E+2
  -2.88367E+2   5.20914E+1
  -4.17311E+2  -2.83391E+2
   6.34346E+1  -4.94414E+2
   3.91707E+2  -1.78795E+2
   3.55895E+2   1.56966E+2
  -3.59827E+1   3.68904E+2
  -1.31954E+2  -7.87815E+1
   1.68280E+2  -1.85795E+1
   2.31249E+2  -5.34753E+1
   7.05126E+1  -8.26368E+0
   2.63034E+2   1.35125E+2
   5.57778E+1  -6.12608E+1
  -3.99136E+1   4.73925E+2
  -2.81339E+2   6.87235E+1
  -1.56842E+2   1.22158E+2
  -2.81267E+2   2.30206E+1
   4.58981E+1  -3.04147E+2
   3.08815E+2  -2.57765E+2
   3.74262E+2   9.96377E+1
   2.77917E+2   1.45095E+2
   2.88474E+1  -1.10081E+2
   4.93726E+0  -7.48831E+1
   6.85311E+1   3.60846E+1
   2.61222E+2   2.01174E+2
  -2.08564E+1   7.70304E+1
   4.03825E+1  -7.47903E+1
   2.37297E+2  -4.50908E+1
   3.05141E+2   2.94340E+2
  -2.50690E+2   4.65136E+2
  -2.96903E+2  -1.80195E+2
   5.95187E+1  -1.81831E+2
   3.38167E+2   3.22714E+1
   1.63258E+2   1.29515E+2
  -9.66949E+1   7.73110E+1
  -1.38012E+2   3.53494E+1
  -9.69376E+1   3.13337E+1
   2.70502E+0   1.21119E+1
  -2.94178E+1   1.18750E+2
  -1.63080E+2  -1.58696E+1
   8.67501E+1  -1.73054E+2
   2.90675E+2  -3.45895E+2
   4.59121E+2   5.45661E+1
   2.95763E+2   3.56279E+2
  -1.62566E+2   1.46639E+2
  -2.85114E+2  -1.79741E+2
   2.74407E+0  -3.88576E+2
  -5.89197E+1  -2.08140E+2
  -4.78830E+1  -2.71699E+1
  -1.76557E+2   1.67383E+2
  -2.62844E+1  -2.40280E+2
   1.64052E+2   2.30904E+2
  -8.96974E+1   1.92892E+2
  -3.68119E+2  -2.54257E+1
  -2.77355E+2  -1.68499E+2
  -4.50908E+1  -1.69228E+2
  -2.37670E+1  -1.89693E+2
   1.54174E+2  -1.98126E+2
   9.46019E+1  -1.18796E+2
  -1.14497E+2   1.73128E+2
   3.27058E+1  -1.74511E+2
   7.81661E+1  -3.43991E+1
  -2.90126E+1  -1.97465E+2
   1.32161E+2  -1.38543E+2
  -1.47708E+2  -4.14831E+2
   8.34069E+1   1.32417E+1
   5.40652E+1   2.31279E+2
  -9.93023E+1   1.45102E+2
  -4.91586E+2   8.28034E+1
  -7.61338E+1  -1.19291E+2
   5.26135E+1  -3.20108E+2
  -7.27472E+1  -2.01822E+2
  -1.66290E+2   1.91661E+2
  -1.35824E+2  -2.87888E+2
   1.09265E+2   6.06332E+1
  -1.37633E+2   2.47708E+2
  -1.34699E+2   1.14840E+2
  -8.27882E+0  -2.59406E+2
  -8.99313E+1  -1.57880E+2
  -7.45728E+1  -8.95745E+1
   5.02872E+1   2.62650E+2
   1.56377E+2   5.35441E+1
  -7.86615E+1   1.14182E+2
  -2.54215E+2   7.92470E+1
  -4.81074E+1  -2.09446E+2
  -1.70111E+2  -7.18407E+1
  -1.09256E+2   1.48170E+2
  -2.56921E+2   9.02154E+1
  -6.11166E+1  -1.40720E+2
  -1.10979E+2   1.12586E+2
  -4.58854E+1  -1.96906E+2
  -3.35330E+2   7.72429E+1
  -2.79197E+2  -1.26901E+2
  -9.82168E+1   2.07692E+2
  -1.55582E+2   1.22948E+2
   1.68881E+1   2.34314E+2
  -2.01921E+2  -5.66404E+1
   6.11735E-1   1.99902E+2
  -7.24996E+1  -1.65247E+2
  -8.14559E+1  -7.81897E+1
   1.38287E+2   8.22829E+1
  -2.04135E+2  -1.82908E+2
  -2.64232E+1  -4.00470E+1
   1.23958E+2   2.02452E+2
  -6.61543E+0   1.42358E+2
   5.47320E+1   5.13018E+1
  -3.11173E+1  -6.66972E+1
  -1.03515E+2  -4.15605E+1
  -1.39651E+2   2.87335E+2
  -2.12683E+2   2.46090E+2
   6.23819E+1   8.79078E+1
  -8.92278E+1  -9.24467E+1
  -1.15053E+1  -9.32508E+1
  -4.21067E+1  -2.20020E+2
  -2.10454E+2   1.53811E+2
  -1.35715E+1  -2.09293E+1
   1.11252E+0   1.16195E+2
  -6.64078E+1   1.14964E+2
  -8.37963E+1   6.57375E+1
  -1.33105E+2   4.44959E+1
  -1.58601E+2   1.17307E+2
   7.71733E+1  -5.86924E+1
   1.47192E+2  -1.43396E+2
  -4.37365E+1  -8.83516E+0
   1.64183E+1   1.15151E+2
  -7.17036E+1  -1.48826E+2
  -1.44247E+2   1.60335E+0
  -8.95823E+1   4.44844E+0
  -7.26595E+1   8.53302E+1
  -1.94041E+2   1.06351E+2
   1.10952E+2  -3.97702E+1
   5.35253E+0  -1.36955E+2
  -1.86850E+2  -7.73379E+1
   7.67918E+1   8.05893E+1
  -1.81092E+2   2.15661E+2
  -4.92877E+1   1.49672E+1
  -3.15142E+2  -8.80828E+1
  -1.64414E+2  -1.61382E+2
  -6.81287E+1  -2.78977E+2
   2.28577E+1   1.81416E+2
   1.59894E+1   2.80782E+1
  -2.73165E+2   2.25799E+2
  -9.02798E+1  -1.57995E+2
  -1.18023E+2  -1.07074E+1
   8.18894E+1  -3.61732E+0
  -2.02838E+2   2.65758E-1
  -9.24278E+1  -1.77734E+2
  -1.32760E+2   1.94724E+2
  -5.03540E+0  -2.83077E+2
   3.82428E+1  -2.80191E+1
  -3.10995E+1   7.31369E+1
  -1.80818E+2  -4.63391E+1
  -4.72722E+1  -5.25813E+1
  -2.89444E+1  -1.22751E+1
  -8.13952E+0   1.05850E+2
  -1.65066E+2   9.47647E+1
  -1.00220E+1   1.72835E+2
   1.30585E+2   1.70743E+1
  -1.36844E+2   2.21175E+2
  -9.72188E+1  -7.12086E+0
  -1.04305E+2   8.22519E+1
  -7.46118E+1   5.37754E+1
   2.14469E+1   6.37697E+1
   1.25547E+2   2.60517E+2
   1.86696E+1  -1.14142E+2
   1.18464E+2  -5.71672E+1
  -1.22524E+2  -7.25333E+1
   1.41081E+1  -1.60472E+2
  -5.04522E+1   6.70155E+1
   1.63358E+0   2.44682E+2
  -1.62934E+2  -5.50340E+1
  -6.19825E+1   1.70961E+2
   1.25145E+2  -2.78982E+1
   2.28409E+2  -2.21457E+2
  -9.10713E+1   4.30251E+1
  -3.78295E+1  -1.82511E+2
   1.57691E+2   7.71328E+1
  -6.40702E+1   7.79178E+1
  -7.80352E+1  -4.14913E+1
  -1.68284E+2   1.50537E+2
  -2.37941E+2   3.30985E+1
   6.42978E+1  -1.34824E+2
   2.05276E+2  -1.28564E+2
   6.83519E+1   8.49378E+1
  -3.56966E+1  -1.16445E+2
   7.83059E+1   3.83906E+0
  -2.59372E+2  -1.90248E+1
  -1.28823E+2   1.01211E+2
  -1.32348E+2  -4.01772E+1
   6.57131E+1  -9.82603E+1
   1.29058E+1  -1.45406E+2
  -6.45992E+1   4.17586E+1
  -4.41961E+1  -1.36313E+2
   1.07382E+1  -4.66773E+1
  -7.11635E+1  -1.36377E+1
  -7.96606E+1   1.14605E+2
   7.84047E+0  -6.34958E+1
  -7.03516E+0  -1.39773E+2
   1.04234E+2  -2.16594E+2
   3.09026E+1  -5.96030E+1
  -3.54946E+1   6.90331E+1
  -3.11255E+1  -3.52111E+1
   4.89606E-1  -1.87951E+1
   3.25167E+1  -4.74201E+1
   1.96472E+1  -3.38793E+2
  -1.24237E+2   9.10770E+0
   7.16344E+1  -9.89853E+1
  -3.73694E+1  -9.69496E+1
   1.23671E+2  -3.69770E+1
   1.21873E+1   8.82317E+1
   1.12359E+2   7.01711E+1
  -1.50640E+2  -1.71819E+2
  -3.40388E+2  -1.16077E+2
   9.43489E+1  -1.92884E+2
   2.71656E+1  -4.56001E+1
   3.46636E+1   4.59443E+1
   2.82047E+1   2.34547E+2
  -1.81098E+2   1.35516E+2
  -1.11700E+2  -1.35239E+2
