 
 $NMID
 ID=''
 FMTDAT='(2E13.5)'
 TRAMP=   1.00000E+0
 VOLUME=   1.00000E+0
 $END
  -3.16615E+5   6.54103E+5
  -1.42046E+6   1.27821E+6
  -1.28583E+6   1.37614E+6
  -1.31516E+6   1.26404E+6
  -1.36985E+6   1.29630E+6
  -1.30208E+6   1.24267E+6
  -1.34787E+6   1.13775E+6
  -1.40979E+6   1.18368E+6
  -1.34026E+6   1.18635E+6
  -1.34533E+6   1.09229E+6
  -1.39546E+6   1.07399E+6
  -1.37248E+6   1.07054E+6
  -1.36834E+6   1.03062E+6
  -1.37840E+6   1.01311E+6
  -1.35889E+6   9.79563E+5
  -1.36494E+6   9.46000E+5
  -1.37992E+6   9.43948E+5
  -1.36715E+6   9.07114E+5
  -1.37250E+6   8.56809E+5
  -1.37994E+6   8.43881E+5
  -1.37376E+6   8.14051E+5
  -1.37920E+6   7.74422E+5
  -1.37683E+6   7.56161E+5
  -1.36811E+6   7.26417E+5
  -1.37360E+6   6.89359E+5
  -1.36686E+6   6.76315E+5
  -1.35524E+6   6.53449E+5
  -1.35685E+6   6.27797E+5
  -1.35233E+6   6.07740E+5
  -1.33933E+6   5.83603E+5
  -1.33962E+6   5.56049E+5
  -1.33532E+6   5.35840E+5
  -1.32864E+6   5.06683E+5
  -1.32578E+6   4.79395E+5
  -1.31661E+6   4.57649E+5
  -1.31026E+6   4.33146E+5
  -1.31192E+6   4.07105E+5
  -1.30567E+6   3.82423E+5
  -1.29402E+6   3.56962E+5
  -1.29031E+6   3.36455E+5
  -1.28309E+6   3.16432E+5
  -1.27181E+6   2.94260E+5
  -1.26288E+6   2.77291E+5
  -1.25666E+6   2.60303E+5
  -1.24753E+6   2.39554E+5
  -1.24026E+6   2.21165E+5
  -1.23269E+6   2.01738E+5
  -1.22537E+6   1.77390E+5
  -1.21568E+6   1.55007E+5
  -1.20555E+6   1.35911E+5
  -1.19770E+6   1.15174E+5
  -1.19113E+6   9.37051E+4
  -1.18241E+6   7.36757E+4
  -1.17424E+6   5.39902E+4
  -1.16552E+6   3.48110E+4
  -1.15646E+6   1.55396E+4
  -1.14653E+6  -2.69980E+3
  -1.13548E+6  -1.93773E+4
  -1.12498E+6  -3.46184E+4
  -1.11689E+6  -5.06351E+4
  -1.10740E+6  -6.71964E+4
  -1.09705E+6  -8.32974E+4
  -1.08774E+6  -9.97838E+4
  -1.07811E+6  -1.17037E+5
  -1.06594E+6  -1.33280E+5
  -1.05341E+6  -1.48038E+5
  -1.04271E+6  -1.62860E+5
  -1.03245E+6  -1.77176E+5
  -1.02232E+6  -1.91145E+5
  -1.01171E+6  -2.05792E+5
  -1.00031E+6  -2.20296E+5
  -9.88743E+5  -2.32520E+5
  -9.78029E+5  -2.43669E+5
  -9.67077E+5  -2.56352E+5
  -9.55523E+5  -2.69341E+5
  -9.43762E+5  -2.80879E+5
  -9.32145E+5  -2.91764E+5
  -9.20592E+5  -3.03947E+5
  -9.08474E+5  -3.16324E+5
  -8.95908E+5  -3.28070E+5
  -8.82977E+5  -3.38869E+5
  -8.70455E+5  -3.49325E+5
  -8.58569E+5  -3.60158E+5
  -8.45918E+5  -3.70283E+5
  -8.32568E+5  -3.80079E+5
  -8.19698E+5  -3.88987E+5
  -8.07762E+5  -3.97189E+5
  -7.95980E+5  -4.05313E+5
  -7.83365E+5  -4.12674E+5
  -7.70939E+5  -4.19586E+5
  -7.59448E+5  -4.26489E+5
  -7.47690E+5  -4.33374E+5
  -7.35155E+5  -4.40559E+5
  -7.21821E+5  -4.47606E+5
  -7.08908E+5  -4.53375E+5
  -6.96951E+5  -4.59153E+5
  -6.84911E+5  -4.64925E+5
  -6.72842E+5  -4.71078E+5
  -6.60397E+5  -4.77271E+5
  -6.48432E+5  -4.82042E+5
  -6.36678E+5  -4.86957E+5
  -6.24964E+5  -4.92005E+5
  -6.12298E+5  -4.96909E+5
  -6.00073E+5  -5.00128E+5
  -5.88833E+5  -5.02952E+5
  -5.78328E+5  -5.06359E+5
  -5.67549E+5  -5.10107E+5
  -5.55720E+5  -5.13618E+5
  -5.43467E+5  -5.15727E+5
  -5.32978E+5  -5.17522E+5
  -5.22752E+5  -5.20334E+5
  -5.12100E+5  -5.23704E+5
  -5.00589E+5  -5.27133E+5
  -4.89412E+5  -5.29442E+5
  -4.78129E+5  -5.31950E+5
  -4.67148E+5  -5.34668E+5
  -4.55975E+5  -5.36782E+5
  -4.44911E+5  -5.38450E+5
  -4.34110E+5  -5.38632E+5
  -4.24573E+5  -5.39436E+5
  -4.15194E+5  -5.40958E+5
  -4.05459E+5  -5.42462E+5
  -3.95434E+5  -5.43381E+5
  -3.85825E+5  -5.44528E+5
  -3.75912E+5  -5.45211E+5
  -3.65832E+5  -5.45622E+5
  -3.56105E+5  -5.45386E+5
  -3.46737E+5  -5.45457E+5
  -3.37489E+5  -5.45870E+5
  -3.27938E+5  -5.46556E+5
  -3.17632E+5  -5.46844E+5
  -3.07366E+5  -5.46660E+5
  -2.97882E+5  -5.45995E+5
  -2.88444E+5  -5.45555E+5
  -2.79081E+5  -5.45125E+5
  -2.69667E+5  -5.44098E+5
  -2.60937E+5  -5.43520E+5
  -2.52359E+5  -5.42567E+5
  -2.43453E+5  -5.41812E+5
  -2.34460E+5  -5.40934E+5
  -2.25268E+5  -5.39473E+5
  -2.16842E+5  -5.36903E+5
  -2.09139E+5  -5.34890E+5
  -2.01246E+5  -5.33484E+5
  -1.92801E+5  -5.32225E+5
  -1.84067E+5  -5.29873E+5
  -1.76144E+5  -5.26956E+5
  -1.67986E+5  -5.24849E+5
  -1.60201E+5  -5.21889E+5
  -1.52468E+5  -5.18808E+5
  -1.45437E+5  -5.16098E+5
  -1.38445E+5  -5.12998E+5
  -1.31522E+5  -5.10043E+5
  -1.24765E+5  -5.07344E+5
  -1.17589E+5  -5.04031E+5
  -1.11249E+5  -5.00726E+5
  -1.04698E+5  -4.97484E+5
  -9.83479E+4  -4.94184E+5
  -9.19041E+4  -4.90539E+5
  -8.57687E+4  -4.86759E+5
  -7.94563E+4  -4.82949E+5
  -7.34183E+4  -4.79414E+5
  -6.71327E+4  -4.75298E+5
  -6.13120E+4  -4.71396E+5
  -5.52566E+4  -4.67247E+5
  -5.00058E+4  -4.63290E+5
  -4.49186E+4  -4.59877E+5
  -3.92129E+4  -4.56225E+5
  -3.34080E+4  -4.51982E+5
  -2.87190E+4  -4.47839E+5
  -2.37164E+4  -4.43667E+5
  -1.88467E+4  -4.40031E+5
  -1.38040E+4  -4.35780E+5
  -9.06639E+3  -4.31824E+5
  -4.14004E+3  -4.27470E+5
   7.36840E+2  -4.23601E+5
   5.65723E+3  -4.20147E+5
   1.10428E+4  -4.15671E+5
   1.58681E+4  -4.10940E+5
   1.99087E+4  -4.06467E+5
   2.42777E+4  -4.02821E+5
   2.90928E+4  -3.99156E+5
   3.39015E+4  -3.94897E+5
   3.86603E+4  -3.90319E+5
   4.26973E+4  -3.86425E+5
   4.69434E+4  -3.82040E+5
   5.05178E+4  -3.78037E+5
   5.44094E+4  -3.73491E+5
   5.78967E+4  -3.69647E+5
   6.11667E+4  -3.65901E+5
   6.56171E+4  -3.62400E+5
   6.99680E+4  -3.58386E+5
   7.41174E+4  -3.53590E+5
   7.75351E+4  -3.49161E+5
   8.15590E+4  -3.44883E+5
   8.44628E+4  -3.40385E+5
   8.85587E+4  -3.36549E+5
   9.21066E+4  -3.32003E+5
   9.59186E+4  -3.27888E+5
   9.95233E+4  -3.23894E+5
   1.02892E+5  -3.19309E+5
   1.06103E+5  -3.14416E+5
   1.08953E+5  -3.09677E+5
   1.11973E+5  -3.05943E+5
   1.14894E+5  -3.01785E+5
   1.18043E+5  -2.97318E+5
   1.20980E+5  -2.92739E+5
   1.23892E+5  -2.88012E+5
   1.26283E+5  -2.83634E+5
   1.28956E+5  -2.79320E+5
   1.31796E+5  -2.74374E+5
   1.34217E+5  -2.70114E+5
   1.36164E+5  -2.66035E+5
   1.38633E+5  -2.61651E+5
   1.41351E+5  -2.57109E+5
   1.43746E+5  -2.52347E+5
   1.45372E+5  -2.47570E+5
   1.46698E+5  -2.43380E+5
   1.48682E+5  -2.39085E+5
   1.50491E+5  -2.34768E+5
   1.52001E+5  -2.30389E+5
   1.53268E+5  -2.25818E+5
   1.54744E+5  -2.21996E+5
   1.56396E+5  -2.17470E+5
   1.57889E+5  -2.12973E+5
   1.58900E+5  -2.08529E+5
   1.59769E+5  -2.04385E+5
   1.60459E+5  -2.00293E+5
   1.62052E+5  -1.96502E+5
   1.62984E+5  -1.91886E+5
   1.63802E+5  -1.87689E+5
   1.64283E+5  -1.83596E+5
   1.64785E+5  -1.79857E+5
   1.65850E+5  -1.75984E+5
   1.66196E+5  -1.71984E+5
   1.66384E+5  -1.68432E+5
   1.66976E+5  -1.64689E+5
   1.67239E+5  -1.61248E+5
   1.67789E+5  -1.57093E+5
   1.67522E+5  -1.53466E+5
   1.67843E+5  -1.50183E+5
   1.68203E+5  -1.46780E+5
   1.68280E+5  -1.43690E+5
   1.68394E+5  -1.39880E+5
   1.68498E+5  -1.36313E+5
   1.68319E+5  -1.32812E+5
   1.68385E+5  -1.29852E+5
   1.68305E+5  -1.26411E+5
   1.68006E+5  -1.23268E+5
   1.67842E+5  -1.19930E+5
   1.67385E+5  -1.17160E+5
   1.67658E+5  -1.14362E+5
   1.67400E+5  -1.10981E+5
   1.67076E+5  -1.07788E+5
   1.66532E+5  -1.04916E+5
   1.66175E+5  -1.02451E+5
   1.66010E+5  -9.95364E+4
   1.65752E+5  -9.62026E+4
   1.65397E+5  -9.33481E+4
   1.65167E+5  -9.05574E+4
   1.64743E+5  -8.78277E+4
   1.64283E+5  -8.46974E+4
   1.63673E+5  -8.16057E+4
   1.62935E+5  -7.91560E+4
   1.62220E+5  -7.65203E+4
   1.61858E+5  -7.41219E+4
   1.61303E+5  -7.13812E+4
   1.60862E+5  -6.85861E+4
   1.59796E+5  -6.57199E+4
   1.58973E+5  -6.36071E+4
   1.58499E+5  -6.11162E+4
   1.57258E+5  -5.87094E+4
   1.56478E+5  -5.58785E+4
   1.55578E+5  -5.39436E+4
   1.55026E+5  -5.15717E+4
   1.54081E+5  -4.88851E+4
   1.53191E+5  -4.63120E+4
   1.51788E+5  -4.38857E+4
   1.51029E+5  -4.16335E+4
   1.49959E+5  -3.97253E+4
   1.48892E+5  -3.73746E+4
   1.48035E+5  -3.50731E+4
   1.46874E+5  -3.28202E+4
   1.45719E+5  -3.08244E+4
   1.44703E+5  -2.88495E+4
   1.43599E+5  -2.64847E+4
   1.42118E+5  -2.42696E+4
   1.40819E+5  -2.27289E+4
   1.39892E+5  -2.10137E+4
   1.38697E+5  -1.91501E+4
   1.37660E+5  -1.70547E+4
   1.36318E+5  -1.52140E+4
   1.34994E+5  -1.33317E+4
   1.33759E+5  -1.17492E+4
   1.32620E+5  -9.90938E+3
   1.31187E+5  -8.36027E+3
   1.30128E+5  -6.70586E+3
   1.28821E+5  -4.91947E+3
   1.27698E+5  -3.32443E+3
   1.26313E+5  -1.90471E+3
   1.24970E+5  -3.39444E+2
   1.23602E+5   1.14822E+3
   1.22375E+5   2.51205E+3
   1.21226E+5   3.82512E+3
   1.19823E+5   5.64455E+3
   1.18194E+5   6.81263E+3
   1.16883E+5   8.15040E+3
   1.15880E+5   9.32982E+3
   1.14577E+5   1.06212E+4
   1.12863E+5   1.17049E+4
   1.11886E+5   1.33030E+4
   1.10629E+5   1.43729E+4
   1.09248E+5   1.56296E+4
   1.08135E+5   1.68752E+4
   1.06731E+5   1.81024E+4
   1.05181E+5   1.90014E+4
   1.04105E+5   2.00117E+4
   1.02650E+5   2.10496E+4
   1.01509E+5   2.19331E+4
   1.00055E+5   2.29854E+4
   9.87764E+4   2.36773E+4
   9.77548E+4   2.47417E+4
   9.62467E+4   2.56508E+4
   9.46235E+4   2.66590E+4
   9.35125E+4   2.74648E+4
   9.21088E+4   2.79827E+4
   9.12272E+4   2.88738E+4
   8.99908E+4   2.98664E+4
   8.83069E+4   3.08556E+4
   8.68985E+4   3.15225E+4
   8.58042E+4   3.18795E+4
   8.45037E+4   3.24942E+4
   8.35926E+4   3.30936E+4
   8.23064E+4   3.37356E+4
   8.11060E+4   3.45971E+4
   7.98240E+4   3.50657E+4
   7.86938E+4   3.58153E+4
   7.72328E+4   3.66259E+4
   7.57537E+4   3.70587E+4
   7.45569E+4   3.72159E+4
   7.37289E+4   3.77875E+4
   7.25014E+4   3.84652E+4
   7.11058E+4   3.88440E+4
   6.98464E+4   3.93932E+4
   6.87198E+4   3.97480E+4
   6.74510E+4   4.01065E+4
   6.61992E+4   4.06538E+4
   6.48276E+4   4.09589E+4
   6.42168E+4   4.09617E+4
   6.34354E+4   4.16162E+4
   6.22446E+4   4.19579E+4
   6.08310E+4   4.23197E+4
   5.96871E+4   4.24762E+4
   5.86223E+4   4.26398E+4
   5.74996E+4   4.30086E+4
   5.67647E+4   4.29089E+4
   5.54390E+4   4.29941E+4
   5.42972E+4   4.32511E+4
   5.33476E+4   4.36248E+4
   5.24430E+4   4.37246E+4
   5.13848E+4   4.41237E+4
   5.02358E+4   4.41185E+4
   4.92721E+4   4.41861E+4
   4.84643E+4   4.39647E+4
   4.73857E+4   4.41943E+4
   4.63337E+4   4.43169E+4
   4.52794E+4   4.45080E+4
