 
 $NMID
 ID=''
 FMTDAT='(2E13.5)'
 TRAMP=   1.00000E+0
 VOLUME=   1.00000E+0
 $END
   6.31944E+5   4.15519E+5
   1.20264E+6   1.69649E+6
   1.37565E+6   1.52527E+6
   1.20490E+6   1.47684E+6
   1.18979E+6   1.58352E+6
   1.23492E+6   1.53846E+6
   1.18311E+6   1.50394E+6
   1.16216E+6   1.55067E+6
   1.14869E+6   1.54190E+6
   1.09819E+6   1.55252E+6
   1.08318E+6   1.57525E+6
   1.05448E+6   1.55981E+6
   1.00772E+6   1.57601E+6
   9.94579E+5   1.59588E+6
   9.58728E+5   1.57919E+6
   9.10845E+5   1.58932E+6
   9.00184E+5   1.61158E+6
   8.74420E+5   1.60116E+6
   8.33927E+5   1.60382E+6
   8.25078E+5   1.61323E+6
   8.00843E+5   1.60658E+6
   7.65181E+5   1.61037E+6
   7.48503E+5   1.61694E+6
   7.24307E+5   1.61333E+6
   6.87596E+5   1.61588E+6
   6.71548E+5   1.61510E+6
   6.46093E+5   1.61509E+6
   6.11711E+5   1.62101E+6
   5.83631E+5   1.61926E+6
   5.60513E+5   1.61324E+6
   5.35405E+5   1.61784E+6
   5.14509E+5   1.61598E+6
   4.88867E+5   1.61045E+6
   4.67423E+5   1.60961E+6
   4.51770E+5   1.60346E+6
   4.35674E+5   1.59889E+6
   4.18174E+5   1.60164E+6
   3.98245E+5   1.59765E+6
   3.75115E+5   1.58922E+6
   3.55779E+5   1.58821E+6
   3.35194E+5   1.58301E+6
   3.11923E+5   1.57486E+6
   2.92964E+5   1.56881E+6
   2.74441E+5   1.56455E+6
   2.50513E+5   1.55741E+6
   2.29103E+5   1.55355E+6
   2.09408E+5   1.54836E+6
   1.85762E+5   1.54104E+6
   1.64656E+5   1.53089E+6
   1.47640E+5   1.52328E+6
   1.29851E+5   1.51644E+6
   1.09981E+5   1.50986E+6
   9.20349E+4   1.50243E+6
   7.37226E+4   1.49489E+6
   5.41776E+4   1.48614E+6
   3.37792E+4   1.47757E+6
   1.31900E+4   1.46787E+6
  -5.52133E+3   1.45668E+6
  -2.30954E+4   1.44634E+6
  -4.09717E+4   1.43798E+6
  -6.00744E+4   1.42864E+6
  -7.86919E+4   1.41875E+6
  -9.65333E+4   1.40939E+6
  -1.15375E+5   1.39826E+6
  -1.33790E+5   1.38523E+6
  -1.49565E+5   1.37258E+6
  -1.65202E+5   1.36053E+6
  -1.81555E+5   1.34806E+6
  -1.98458E+5   1.33803E+6
  -2.16203E+5   1.32702E+6
  -2.33780E+5   1.31374E+6
  -2.49836E+5   1.30012E+6
  -2.64986E+5   1.28871E+6
  -2.81820E+5   1.27706E+6
  -2.98656E+5   1.26355E+6
  -3.13870E+5   1.24905E+6
  -3.28079E+5   1.23652E+6
  -3.43805E+5   1.22334E+6
  -3.59354E+5   1.20948E+6
  -3.73387E+5   1.19475E+6
  -3.87789E+5   1.18023E+6
  -4.01746E+5   1.16591E+6
  -4.15444E+5   1.15185E+6
  -4.30025E+5   1.13685E+6
  -4.44550E+5   1.12145E+6
  -4.57838E+5   1.10627E+6
  -4.70481E+5   1.09167E+6
  -4.83840E+5   1.07707E+6
  -4.96296E+5   1.06172E+6
  -5.07093E+5   1.04648E+6
  -5.17263E+5   1.03164E+6
  -5.28101E+5   1.01779E+6
  -5.39067E+5   1.00288E+6
  -5.48406E+5   9.86629E+5
  -5.56769E+5   9.70733E+5
  -5.64511E+5   9.56207E+5
  -5.73037E+5   9.42529E+5
  -5.82144E+5   9.27495E+5
  -5.90186E+5   9.12168E+5
  -5.97163E+5   8.97484E+5
  -6.05226E+5   8.83329E+5
  -6.14298E+5   8.68024E+5
  -6.21484E+5   8.51229E+5
  -6.26997E+5   8.35019E+5
  -6.32386E+5   8.20587E+5
  -6.38256E+5   8.06876E+5
  -6.44693E+5   7.92417E+5
  -6.50864E+5   7.76564E+5
  -6.55018E+5   7.60677E+5
  -6.57791E+5   7.46110E+5
  -6.61839E+5   7.32600E+5
  -6.67635E+5   7.18684E+5
  -6.72857E+5   7.02661E+5
  -6.77269E+5   6.86902E+5
  -6.81167E+5   6.72216E+5
  -6.85242E+5   6.56860E+5
  -6.89778E+5   6.40997E+5
  -6.92523E+5   6.24807E+5
  -6.94067E+5   6.09485E+5
  -6.95729E+5   5.96000E+5
  -6.99005E+5   5.82126E+5
  -7.01622E+5   5.67764E+5
  -7.03970E+5   5.53172E+5
  -7.06268E+5   5.38990E+5
  -7.08365E+5   5.23937E+5
  -7.09506E+5   5.08491E+5
  -7.10315E+5   4.93925E+5
  -7.11614E+5   4.79531E+5
  -7.13107E+5   4.65201E+5
  -7.14917E+5   4.50408E+5
  -7.16896E+5   4.34904E+5
  -7.17713E+5   4.18376E+5
  -7.18017E+5   4.03661E+5
  -7.18058E+5   3.89460E+5
  -7.18543E+5   3.74948E+5
  -7.18886E+5   3.60052E+5
  -7.18239E+5   3.45856E+5
  -7.17792E+5   3.32674E+5
  -7.17686E+5   3.19154E+5
  -7.17110E+5   3.04431E+5
  -7.15770E+5   2.90057E+5
  -7.13463E+5   2.76814E+5
  -7.11452E+5   2.65000E+5
  -7.11064E+5   2.51995E+5
  -7.10117E+5   2.38258E+5
  -7.07851E+5   2.24873E+5
  -7.05002E+5   2.11722E+5
  -7.02837E+5   1.99091E+5
  -6.99532E+5   1.86841E+5
  -6.96718E+5   1.74692E+5
  -6.93278E+5   1.62795E+5
  -6.89619E+5   1.51693E+5
  -6.86791E+5   1.41249E+5
  -6.83728E+5   1.30340E+5
  -6.80346E+5   1.19307E+5
  -6.75661E+5   1.08446E+5
  -6.71990E+5   9.92027E+4
  -6.68123E+5   8.90260E+4
  -6.63842E+5   7.89821E+4
  -6.59299E+5   6.97504E+4
  -6.54687E+5   6.02919E+4
  -6.49849E+5   5.10327E+4
  -6.44734E+5   4.16008E+4
  -6.39266E+5   3.23995E+4
  -6.33780E+5   2.40747E+4
  -6.28612E+5   1.62472E+4
  -6.24056E+5   8.34605E+3
  -6.19274E+5  -2.13106E+2
  -6.13666E+5  -8.43334E+3
  -6.07647E+5  -1.59081E+4
  -6.02146E+5  -2.27540E+4
  -5.96705E+5  -3.00936E+4
  -5.91214E+5  -3.71948E+4
  -5.85261E+5  -4.44174E+4
  -5.79058E+5  -5.14197E+4
  -5.73652E+5  -5.79130E+4
  -5.67903E+5  -6.51363E+4
  -5.61715E+5  -7.25575E+4
  -5.54703E+5  -7.90476E+4
  -5.48393E+5  -8.46725E+4
  -5.43030E+5  -9.09012E+4
  -5.37018E+5  -9.77824E+4
  -5.30480E+5  -1.04132E+5
  -5.24246E+5  -1.10090E+5
  -5.17226E+5  -1.15528E+5
  -5.10730E+5  -1.21009E+5
  -5.04503E+5  -1.26219E+5
  -4.97900E+5  -1.31329E+5
  -4.91265E+5  -1.36116E+5
  -4.85755E+5  -1.40807E+5
  -4.80120E+5  -1.46625E+5
  -4.73289E+5  -1.52472E+5
  -4.66121E+5  -1.57914E+5
  -4.59123E+5  -1.62282E+5
  -4.52362E+5  -1.67333E+5
  -4.46053E+5  -1.72087E+5
  -4.39217E+5  -1.76955E+5
  -4.32363E+5  -1.81815E+5
  -4.25801E+5  -1.86349E+5
  -4.19309E+5  -1.91476E+5
  -4.12174E+5  -1.96343E+5
  -4.04740E+5  -2.00482E+5
  -3.97786E+5  -2.03726E+5
  -3.91428E+5  -2.07435E+5
  -3.84843E+5  -2.11835E+5
  -3.78066E+5  -2.15594E+5
  -3.70988E+5  -2.19510E+5
  -3.64242E+5  -2.23032E+5
  -3.57482E+5  -2.26410E+5
  -3.50863E+5  -2.29914E+5
  -3.43752E+5  -2.33205E+5
  -3.36806E+5  -2.36040E+5
  -3.30851E+5  -2.38737E+5
  -3.24254E+5  -2.42068E+5
  -3.17523E+5  -2.45578E+5
  -3.10034E+5  -2.48166E+5
  -3.03539E+5  -2.49680E+5
  -2.97114E+5  -2.51720E+5
  -2.90849E+5  -2.53954E+5
  -2.84558E+5  -2.56160E+5
  -2.78127E+5  -2.57781E+5
  -2.72112E+5  -2.59053E+5
  -2.66080E+5  -2.60542E+5
  -2.59780E+5  -2.62660E+5
  -2.53095E+5  -2.64080E+5
  -2.46874E+5  -2.64780E+5
  -2.41233E+5  -2.65376E+5
  -2.35909E+5  -2.66555E+5
  -2.29783E+5  -2.67781E+5
  -2.23867E+5  -2.68896E+5
  -2.17688E+5  -2.69013E+5
  -2.12248E+5  -2.69312E+5
  -2.07170E+5  -2.69814E+5
  -2.01772E+5  -2.69922E+5
  -1.96302E+5  -2.69986E+5
  -1.91051E+5  -2.69814E+5
  -1.86407E+5  -2.69909E+5
  -1.81060E+5  -2.70076E+5
  -1.75727E+5  -2.69630E+5
  -1.70713E+5  -2.68986E+5
  -1.65880E+5  -2.68268E+5
  -1.61184E+5  -2.68341E+5
  -1.56404E+5  -2.68146E+5
  -1.51423E+5  -2.67768E+5
  -1.46727E+5  -2.66764E+5
  -1.42137E+5  -2.65760E+5
  -1.37554E+5  -2.65501E+5
  -1.32822E+5  -2.64741E+5
  -1.28025E+5  -2.63771E+5
  -1.23998E+5  -2.62388E+5
  -1.19985E+5  -2.62059E+5
  -1.15775E+5  -2.61137E+5
  -1.10960E+5  -2.60213E+5
  -1.06464E+5  -2.58857E+5
  -1.02602E+5  -2.57444E+5
  -9.86311E+4  -2.56273E+5
  -9.46617E+4  -2.55284E+5
  -9.00092E+4  -2.54395E+5
  -8.57539E+4  -2.53373E+5
  -8.15911E+4  -2.52048E+5
  -7.71058E+4  -2.51041E+5
  -7.29155E+4  -2.49513E+5
  -6.84588E+4  -2.48101E+5
  -6.46857E+4  -2.46074E+5
  -6.10616E+4  -2.44959E+5
  -5.74293E+4  -2.44064E+5
  -5.29482E+4  -2.42859E+5
  -4.90595E+4  -2.40647E+5
  -4.54428E+4  -2.39055E+5
  -4.20385E+4  -2.37505E+5
  -3.82846E+4  -2.35894E+5
  -3.46145E+4  -2.34292E+5
  -3.11189E+4  -2.32532E+5
  -2.79508E+4  -2.31003E+5
  -2.40532E+4  -2.29712E+5
  -2.03811E+4  -2.28102E+5
  -1.64268E+4  -2.25823E+5
  -1.32351E+4  -2.24158E+5
  -1.02363E+4  -2.21960E+5
  -6.88630E+3  -2.20413E+5
  -3.87194E+3  -2.18465E+5
  -5.64875E+2  -2.16586E+5
   2.19767E+3  -2.14596E+5
   5.35957E+3  -2.12697E+5
   8.37046E+3  -2.10859E+5
   1.14769E+4  -2.08185E+5
   1.40456E+4  -2.05962E+5
   1.64537E+4  -2.03960E+5
   1.87424E+4  -2.02484E+5
   2.18135E+4  -2.00302E+5
   2.44606E+4  -1.98551E+5
   2.69735E+4  -1.96188E+5
   2.92237E+4  -1.93857E+5
   3.14124E+4  -1.92052E+5
   3.39606E+4  -1.89855E+5
   3.60678E+4  -1.87700E+5
   3.80002E+4  -1.85665E+5
   4.01115E+4  -1.83853E+5
   4.25116E+4  -1.81627E+5
   4.50157E+4  -1.79221E+5
   4.68790E+4  -1.76862E+5
   4.87072E+4  -1.74689E+5
   5.00617E+4  -1.72954E+5
   5.20398E+4  -1.70690E+5
   5.44825E+4  -1.68704E+5
   5.59761E+4  -1.65955E+5
   5.75185E+4  -1.63719E+5
   5.90417E+4  -1.61846E+5
   6.08888E+4  -1.59706E+5
   6.25062E+4  -1.57030E+5
   6.39592E+4  -1.54889E+5
   6.52105E+4  -1.52869E+5
   6.66650E+4  -1.51107E+5
   6.87339E+4  -1.48803E+5
   6.98447E+4  -1.45908E+5
   7.09803E+4  -1.43994E+5
   7.21406E+4  -1.41800E+5
   7.36354E+4  -1.39676E+5
   7.46304E+4  -1.37139E+5
   7.56397E+4  -1.35040E+5
   7.66778E+4  -1.32953E+5
   7.79882E+4  -1.30886E+5
   7.91820E+4  -1.28666E+5
   8.00390E+4  -1.25901E+5
   8.07862E+4  -1.24195E+5
   8.18095E+4  -1.22223E+5
   8.29858E+4  -1.20033E+5
   8.38702E+4  -1.17753E+5
   8.49430E+4  -1.15239E+5
   8.55388E+4  -1.12818E+5
   8.59766E+4  -1.10739E+5
   8.65916E+4  -1.08586E+5
   8.73354E+4  -1.06658E+5
   8.77768E+4  -1.04634E+5
   8.86408E+4  -1.02500E+5
   8.94219E+4  -1.00363E+5
   9.02667E+4  -9.79086E+4
   9.07760E+4  -9.57284E+4
   9.09892E+4  -9.33757E+4
   9.11201E+4  -9.14641E+4
   9.17802E+4  -8.95894E+4
   9.24116E+4  -8.72957E+4
   9.28398E+4  -8.52657E+4
   9.30571E+4  -8.29446E+4
   9.35816E+4  -8.13055E+4
   9.36220E+4  -7.88157E+4
   9.40470E+4  -7.69557E+4
   9.41104E+4  -7.48280E+4
   9.41508E+4  -7.33458E+4
   9.48325E+4  -7.13198E+4
   9.48093E+4  -6.95879E+4
   9.53975E+4  -6.73547E+4
   9.49206E+4  -6.52560E+4
   9.48236E+4  -6.35656E+4
   9.50905E+4  -6.15798E+4
   9.53803E+4  -5.95207E+4
   9.50716E+4  -5.77896E+4
   9.48658E+4  -5.62231E+4
   9.50145E+4  -5.46137E+4
   9.54908E+4  -5.24627E+4
   9.49078E+4  -5.04410E+4
   9.45921E+4  -4.87928E+4
   9.43802E+4  -4.70665E+4
   9.39495E+4  -4.56291E+4
   9.43214E+4  -4.40337E+4
   9.39605E+4  -4.22327E+4
   9.37323E+4  -4.04890E+4
