 
 $NMID
 ID=''
 FMTDAT='(2E13.5)'
 TRAMP=   1.00000E+0
 VOLUME=   1.00000E+0
 $END
  -2.32126E+4   1.02876E+4
   8.73561E+3   2.73498E+4
   3.42757E+4  -9.95476E+3
  -5.11784E+1  -3.34355E+4
  -3.49612E+4  -2.50234E+3
  -1.02449E+4   2.58702E+4
   2.55506E+4   1.09169E+4
   1.71207E+4  -1.55016E+4
  -1.07005E+4  -1.55305E+4
  -1.67505E+4   6.23793E+3
   6.33612E+2   1.73765E+4
   1.25691E+4   2.47936E+3
   3.79759E+3  -1.14493E+4
  -8.83288E+3  -5.13363E+3
  -7.38608E+3   4.74362E+3
   2.79781E+3   4.57241E+3
   6.71726E+3  -2.65078E+2
   1.64187E+3  -3.68569E+3
  -4.33368E+3  -2.05764E+3
  -3.05621E+3   2.09562E+3
   1.54917E+3   1.86670E+3
   2.67792E+3  -9.18649E+2
   1.06077E+3  -8.26520E+2
  -1.83051E+3  -3.06508E+2
  -1.63820E+3  -6.53940E+2
   1.98320E+3   9.14305E+2
   2.13298E+3   1.84479E+3
  -1.61527E+3  -2.57914E+2
  -1.58365E+3  -1.29053E+3
   1.27426E+3   5.31234E+2
   5.21410E+2   1.50559E+3
  -1.26635E+3   4.36619E+1
  -7.49558E+2  -1.31232E+3
  -7.22343E+1  -8.35113E+2
   2.96116E+2  -5.71592E+2
   1.26027E+3  -5.74567E+2
   9.18697E+2   6.01001E+2
  -3.15657E+2   1.01437E+3
  -6.11287E+2   9.65769E+1
   1.15731E+2  -1.85177E+2
  -5.31983E+2   2.22215E+2
  -4.56804E+2  -6.61984E+2
   4.92897E+2  -6.18474E+2
   1.03810E+3   3.04846E+0
   7.59428E+2   5.14735E+2
   2.94361E+2   1.12116E+3
  -1.33309E+3   1.14569E+3
  -1.22255E+3  -1.80786E+2
  -5.54835E+2  -1.24593E+3
   4.54880E+2  -1.17412E+3
   2.32932E+2  -4.62331E+2
   1.99245E+2  -4.36075E+2
   4.99655E+2  -4.14099E+1
   1.81351E+2   8.25582E+2
  -1.13349E+2   7.53241E+2
  -1.11637E+2   1.56230E+1
  -7.89443E+2  -3.52536E+2
  -5.06748E+2  -6.68925E+2
   5.76915E+2  -7.04450E+2
   1.10234E+3  -2.38574E+1
   4.51328E+2   7.33670E+2
  -1.70628E+2   9.60466E+2
  -5.13154E+2   1.04491E+3
  -7.71636E+2   6.84584E+2
  -9.70593E+2  -5.49118E+2
  -7.34338E+2  -1.17477E+3
   3.56980E+2  -9.39538E+2
   9.88315E+2  -1.37978E+2
   1.03833E+3   6.09065E+2
   1.29482E+2   6.93521E+2
   1.79884E+0  -1.02181E+2
   5.37758E+2  -1.32600E+2
   5.50578E+2   5.29322E+2
  -2.70194E+2   7.22743E+2
  -4.16062E+2   1.12715E+2
  -1.98903E+1  -8.06195E+1
   2.79599E+2   1.85933E+2
  -1.77301E+2   3.51725E+2
  -1.24276E+2   7.09903E+1
  -3.89122E+2  -1.29370E+1
  -2.56667E+2  -2.67177E+2
   1.76366E+2  -3.46691E+2
   4.26770E+2  -1.78705E+2
   2.56313E+2  -6.44029E+1
  -8.03707E+1  -1.99476E+2
   5.23832E+2  -5.91622E+1
   6.22057E+2   3.46558E+2
   1.40026E+2   3.63827E+2
  -9.39765E+0   1.81004E+2
   3.00912E+1   1.98638E+2
   3.45936E+2   2.63403E+2
   6.64889E+1   4.92687E+2
  -3.48796E+2   1.81964E+1
  -5.27199E+2  -1.87716E+2
   2.07445E+2  -4.83628E+2
   6.06549E+2  -4.81892E+2
   3.19129E+2  -1.58332E+2
  -1.48956E+2   1.67950E+2
  -1.48144E+2  -2.26953E+2
   6.48916E+2  -1.05627E+2
   4.00527E+2   2.64568E+2
  -4.67016E+2   6.44892E+2
  -9.05978E+2  -9.77326E+1
   2.87447E+2  -3.73617E+2
   5.13070E+2  -3.03674E+1
   1.34301E+2   3.22823E+2
  -4.73322E+2   1.76551E+2
  -4.70710E+2  -3.70318E+2
  -4.47773E+2  -7.49140E+2
   5.91254E+2  -5.79908E+2
   6.45934E+2   7.83456E+1
   2.56827E+2   5.31221E+2
  -3.64690E+2   3.45421E+2
  -5.17010E+2   5.60675E+1
  -1.10886E+2   2.77236E+2
  -1.87131E+2   1.21746E+2
  -4.66065E+2  -3.94131E+2
  -3.87902E+2  -6.62657E+2
   3.97602E+2  -7.08855E+2
   6.10860E+2   1.84321E+2
   4.30944E+2   3.33112E+2
   1.46352E+2   4.03933E+2
  -4.87835E+1   3.20566E+2
  -3.92125E+2   2.97528E+2
  -3.95656E+2  -1.68116E+2
  -2.69488E+2  -1.94573E+2
   3.07052E+2  -1.44486E+2
   2.58770E+2  -1.78663E+2
   8.69513E+1   9.11172E+1
  -1.30495E+2   3.19265E+2
  -2.36547E+2   5.73290E+1
  -5.01195E+2  -5.73953E+1
  -3.38258E+2  -3.05097E+2
   2.60887E+2  -2.33776E+1
  -1.35355E+1  -6.62025E+1
   1.29124E+2  -1.18053E+2
   4.68139E+1  -8.36890E+1
   2.19387E+2   3.33461E+2
  -1.46392E+2   4.72392E+2
  -2.34571E+2  -2.78996E+1
  -4.07238E+2  -1.23928E+2
   2.28594E+2  -3.73817E+2
   3.25142E+2   9.93608E+1
   6.86885E+1   4.26118E+2
  -1.76378E+2   2.22570E+2
  -2.19564E+2  -1.58329E+2
  -8.64047E+1  -2.62579E+2
  -9.11699E+1  -1.40379E+2
  -1.39560E+2  -1.38005E+2
   1.80694E+2  -8.53337E+1
   2.02919E+2  -1.65891E+2
   4.52449E+2  -2.13017E+1
   3.99909E+2   1.26876E+2
  -1.34654E+2   3.02336E+2
   1.34773E+1  -1.29961E+2
   7.77297E+1  -2.27895E+2
  -1.84733E+2  -5.25589E+1
  -3.02143E+2   5.37406E+1
  -2.70985E+2   4.59568E+1
  -2.10684E+2  -2.22045E+2
   1.09983E+2   1.63956E+2
  -8.32246E+0  -1.82216E+1
  -8.10829E+1  -1.55509E+2
   2.05633E+2  -2.94025E+2
   1.96473E+2  -1.31113E+2
   7.31241E+1   2.64707E+2
   1.53726E+2   1.33560E+2
   6.53871E+1  -8.09529E+1
   5.52230E+1  -1.07756E+1
   3.69277E+1  -6.16339E+1
   1.79201E+2  -6.85602E+1
   3.45812E+1   9.26692E+1
  -7.73128E+1  -7.04951E+1
  -1.69596E+2   4.83510E+1
  -1.29660E+2  -9.36815E+1
  -5.73598E+0   4.58522E+1
  -1.28145E+2   1.32889E+2
  -1.10243E+2  -1.78220E+2
   2.96338E+2  -1.96685E+2
   2.72299E+2  -2.04874E+1
   6.54808E+1   1.46836E+2
  -3.06177E+2  -7.08133E+1
  -1.61099E+1  -2.23721E+2
  -8.79054E+1  -1.67197E+2
   8.77844E+0  -1.61861E+2
   2.05679E+2  -7.40447E+1
   2.87884E+2  -2.07723E+2
   1.88936E+2   2.04162E+2
   1.81025E+2   2.23776E+2
  -1.03473E+2   2.30375E+2
  -1.38539E+2   1.27342E+2
  -5.24069E+1  -2.12222E+2
   8.59294E+1  -1.67949E+2
   4.44879E-1  -2.15740E+2
   1.90005E+2  -6.36445E+1
   2.36889E+2   5.86351E+1
   1.96313E+1  -1.03407E+2
  -1.33032E+2   1.01380E+2
  -1.64437E+2   8.97649E+0
  -7.63342E+0  -6.50988E+1
  -7.02272E+1  -1.18548E+2
   2.07855E+1  -2.75978E+2
   3.83623E+2  -4.24508E+1
   1.12721E+2   2.37836E+2
  -6.65782E+1  -1.39254E+1
   1.29451E+2   1.69613E+2
   9.55156E+1  -1.16327E+2
   3.81363E+1   1.32548E+2
   4.52957E+1  -2.25796E+1
   3.55076E+1  -2.84483E+1
   4.80693E+0  -2.84129E+1
   1.24050E+2   2.70760E+1
   1.20471E+2   1.11296E+2
  -3.31853E+2   1.86425E+2
  -2.76917E+2  -2.48374E+2
   4.98944E+1  -3.51221E+2
   5.06604E+1  -1.79642E+2
   1.71866E+2  -9.92501E+1
   1.62896E+2  -6.53683E+1
   1.34201E+2  -1.36857E+1
   5.78338E+1  -1.82211E+2
  -1.44336E+2  -3.34233E+1
  -1.16437E+2   7.55753E+0
  -9.30620E+1  -1.73829E+2
   1.08834E+0  -5.31123E+2
  -9.08456E+1  -3.05753E+2
  -1.34255E+2  -8.09714E+1
  -5.86693E+1   2.24056E+2
   3.77844E+1  -3.72773E+0
   8.44027E+1  -8.45191E+1
   9.67059E+1  -9.95019E+1
   1.25753E+2  -2.82490E+2
   1.48428E+1  -3.76181E+1
  -5.15696E+1   5.54128E+1
   8.40527E+1  -2.16821E+2
  -9.34093E+1  -1.15645E+2
   4.24127E+1   7.75094E+0
  -9.17535E+1  -1.63404E+2
   5.14280E+1  -8.66780E+1
   1.41376E+2   5.02026E+1
   1.41641E+2  -5.96080E+1
   1.18838E+2   1.56712E+2
   1.83910E+2  -6.40915E+1
  -1.20487E+2   8.21926E+1
   2.84737E+2   3.73731E+1
   3.20124E+2   1.04050E+2
  -9.65508E+0   2.46642E+1
  -1.36348E+1  -7.20964E+1
   1.97937E+2  -2.89866E+1
  -2.18279E+2   2.76880E+1
  -9.34047E+1   1.43955E+2
   6.30982E+1  -9.30748E+1
   4.88460E+1  -3.26870E+2
  -7.71835E+1  -8.47137E+1
  -1.24225E+2   8.59573E+0
   1.51704E+2   1.93933E+2
   3.52213E+1   6.36144E+1
   2.46361E+1  -1.82148E+1
  -7.70988E+1  -1.03992E+2
  -2.14214E+2  -1.64822E+2
  -4.61814E+1   4.19058E+1
  -2.27527E+2  -9.93492E+1
   7.00209E+1  -5.55586E+1
  -3.29047E+1   1.89895E+2
   3.05527E+2   1.16333E+2
   9.01572E+1  -1.53431E+2
   4.21767E+1  -1.17904E+2
  -2.84276E+2  -2.11159E+2
   8.95933E+1  -1.81027E+2
  -3.87303E+1   2.93047E+1
  -8.89250E+1   1.15475E+2
  -1.88864E+1   6.17252E+1
  -2.45707E+2   1.68474E+2
  -1.01025E+2   7.21249E+1
   8.45420E+1  -3.52573E+1
  -5.03286E+1   6.21904E+1
   4.77289E+0  -1.16313E+2
  -8.23313E+1   1.48063E+2
  -1.56368E+2  -8.24134E+1
   8.90898E+1   2.35734E+2
  -1.64050E+2   1.71386E+2
   4.38993E+1   1.29803E+1
   8.04997E+1   1.44072E+2
   1.38597E+2   4.49805E+1
  -1.49343E+2   3.31574E+1
  -9.23314E+1  -2.42335E+1
  -8.13671E+1   3.09696E+1
   2.42440E+2   5.84920E+0
  -7.75859E+1   1.16728E+2
   1.83169E+1   2.04633E+2
  -1.23699E+2   1.40204E+2
   1.34049E+1  -6.41571E+1
   1.56685E+2   1.15473E+2
  -2.75316E+2   7.57546E+0
   7.65717E+1  -4.51602E+1
   3.51455E+1  -1.03533E+1
  -1.62130E+2   1.17338E+2
   6.25919E+1   2.69879E+2
   2.73019E+1   1.67882E+2
   9.98153E+1   4.37462E+1
   8.40951E+1  -1.58682E+2
  -2.20314E+2  -1.05390E+2
  -1.04392E+2   2.16288E+2
  -1.30495E+2  -7.16244E+1
  -2.71546E+2   2.78771E+1
   8.95563E+1  -1.24614E+2
   2.41277E+1   7.51022E+1
  -1.91092E+1   7.08047E+1
  -2.08764E+2   1.31432E+2
  -5.66975E+1   4.78282E+1
   1.54505E+2   1.55556E+2
   3.80921E+1   8.19073E+1
  -3.85002E+1  -1.67299E+2
  -4.39310E+1   1.39331E+1
  -1.27349E+2  -1.39603E+2
  -2.13289E+2  -3.59926E+1
  -7.78323E+1  -1.18758E+2
  -2.60526E+2   2.43700E+1
  -6.31631E+1  -1.04859E+1
  -1.48478E+2   9.75871E+1
  -1.55926E+2  -8.42742E+1
  -3.19944E+1   4.21412E+2
  -2.40023E+2   1.77093E+2
  -4.26262E+1   5.82640E+1
  -9.19279E+1   1.98821E+2
   4.53919E+1   4.62860E+2
  -1.00013E+2   3.04207E+2
  -2.85015E+2   1.48274E+2
  -7.29400E+1  -2.19636E+2
  -9.47614E+1   3.99502E+1
   1.86732E+2   4.63367E+1
  -2.33681E+2  -2.45695E+1
   1.41867E+2  -7.49450E+1
  -3.79722E+2   1.10333E+2
  -8.10627E+1   6.89807E+1
   1.30557E+2   1.55987E+2
  -2.02331E+2  -1.95250E+2
  -1.05103E+2   9.17625E+1
  -7.09665E+1   1.03991E+2
   6.05472E+1   3.47456E+0
   6.78639E+1   6.41249E+1
  -2.09230E+2   3.55428E+2
  -3.38514E+2   2.09181E+2
   7.59233E+1  -4.11274E+1
   5.00269E+1   1.68707E+1
  -3.08346E+2   1.19090E+2
  -1.76043E+2   1.15515E+2
   1.49940E+2   7.99540E+1
  -9.32297E+1   1.05720E+1
  -1.74913E+2  -8.05049E+1
  -1.36007E+2  -1.03254E+2
   2.80827E+1   1.10958E+2
  -6.38021E+1   7.01545E+1
  -4.40776E+1   1.20711E+2
   8.31881E+1   6.56307E+1
   4.12201E+1   1.08911E+2
   1.05173E+2  -9.82973E+1
   4.70576E+1   6.81700E+1
  -1.03069E+2   3.28819E+1
  -5.37490E+1   2.43411E+2
  -2.02425E+2   3.22367E+1
   6.69853E+1   1.00266E+2
   1.05530E+1  -1.22289E+2
   1.18183E+2   2.79779E+2
  -1.19956E+2   1.16172E+2
  -1.68473E+2   2.68195E+2
  -6.51089E+0  -9.11395E+0
