 
 $NMID
 ID=''
 FMTDAT='(2E13.5)'
 TRAMP=   1.00000E+0
 VOLUME=   1.00000E+0
 $END
   9.71524E+3  -4.48019E+3
   5.41694E+2  -1.58431E+3
  -1.73744E+0   2.51567E+3
   6.29148E+3  -2.07402E+2
  -5.34152E+1   1.47340E+3
  -3.51280E+3   3.00214E+3
   1.02583E+2  -1.73096E+3
   5.25842E+2  -1.49789E+3
   9.01372E+2   2.21157E+3
   1.00268E+3   1.23283E+3
  -3.10150E+3   7.78495E+2
  -2.32500E+3   8.24338E+2
   1.77472E+3  -1.20614E+3
   4.15552E+2  -5.67327E+1
  -2.42696E+3   9.96372E+2
  -1.24325E+3  -2.43484E+3
   1.29684E+3  -1.81554E+3
   2.25180E+3   1.54286E+3
   4.67913E+2  -9.92714E+1
   9.85959E+1  -9.69593E+2
   4.36700E+2   1.03274E+3
  -4.05667E+2   4.55045E+2
   7.20557E+1  -3.38112E+2
   1.48544E+3   1.74946E+3
  -1.10733E+3   1.13320E+3
  -2.24831E+3  -1.87388E+3
   6.48882E+2  -1.37425E+3
   1.20390E+3   1.98639E+3
  -1.54441E+3   1.16540E+3
  -4.77523E+2  -1.90979E+3
   1.51984E+3  -1.58055E+3
   3.43442E+2   9.72040E+2
  -6.93987E+2   5.37085E+2
  -2.12385E+2  -5.00606E+2
  -1.52803E+1   4.59003E+2
  -3.75376E+2  -5.69483E+2
   3.25200E+2  -1.84044E+3
   1.15388E+3  -1.79161E+2
   1.00796E+3   1.33387E+3
  -3.05643E+2   3.61490E+2
  -8.08882E+0  -1.33568E+2
   3.63983E+2   7.36156E+2
  -9.76239E+2   5.95140E+2
  -1.36482E+3  -2.76536E+2
  -8.61023E+2  -1.43241E+3
   6.26179E+2  -1.10269E+3
   1.29599E+3   9.17321E+1
   6.50560E+2   1.04791E+3
  -5.87766E+2   8.11262E+2
  -1.90417E+2   4.53388E+2
   3.68488E+1   1.95431E+2
  -6.00421E+2   6.93539E+1
  -3.60075E+2  -2.01921E+2
   5.88042E+2  -2.32737E+2
   3.67298E+2  -4.23204E+1
   2.41133E+1  -4.92317E+2
   1.25236E+2   1.85461E+2
   1.62197E+2   9.59314E+2
  -4.38777E+2   6.28107E+2
  -7.05206E+2  -3.58079E+2
  -3.44841E+2  -3.49309E+2
   2.75088E+1  -4.50031E+2
   3.49488E+2  -5.13828E+2
   7.08649E+2   2.76873E+2
   4.94633E+2   3.66805E+2
   3.58239E+2   3.98315E+2
   1.75351E+2   3.30193E+2
  -4.65915E+2   6.61425E+2
  -6.63687E+2   1.59591E+2
   9.18052E+1  -8.95469E+2
   6.34615E+2  -6.22290E+2
  -1.01489E+2   3.23831E+2
  -6.29595E+2   1.86449E+2
   2.11526E+1  -6.68453E+2
   5.72306E+2  -1.80621E+2
  -1.11731E+2   4.38714E+2
  -1.92430E+2   2.85569E+2
  -2.35293E+2  -1.72835E+2
  -5.43587E+1  -1.64210E+2
  -1.61249E+2   1.33547E+2
   2.26357E+2  -2.42887E+2
   5.71988E+2  -2.61644E+2
  -2.51784E+1  -4.76368E+1
  -2.93047E+2   3.51380E+2
  -1.29303E+2  -1.11933E+1
   1.45222E+2   7.75997E-1
  -2.75075E+2   1.03982E+2
  -3.00042E+2   2.22080E+1
  -4.24598E+2  -2.49119E+2
   6.98347E+1  -1.53143E+2
   1.90691E+2   3.25896E+2
  -3.29996E+2   1.61536E+2
  -4.11449E+1  -5.21634E+2
   5.42879E+1  -2.19589E+2
   1.35336E+2   2.86929E+2
   6.85843E+1   1.57967E+2
  -1.18656E+2   9.15096E+1
   2.45945E+2  -1.89730E+2
  -2.70771E+1  -3.14513E+1
   5.98438E+1   3.24771E+2
   1.42282E+2   1.03107E+2
   5.77943E+1  -2.07236E+1
  -1.25710E+2   1.34691E+2
  -2.27149E+2   1.96679E+2
   9.99385E+1   2.82533E+2
  -7.30434E+1   2.40778E+2
  -1.54502E+1  -2.93512E+1
   5.80231E+1  -1.58147E+2
   2.26121E+2  -1.93905E+2
   1.89394E+2   3.80338E+2
   4.63856E+1   3.90933E+2
   7.57113E+1  -4.32630E+1
   1.38799E+2   3.12561E+1
   2.29321E+2   4.12641E+1
   6.70942E+1   2.09807E+1
  -3.09538E+2  -1.90591E+2
   1.06529E+2   1.60902E+1
   1.25220E+1   9.94507E+1
   2.14690E+2  -5.18909E+1
  -9.91059E-1   1.62310E+2
  -2.21623E+2   2.78155E+2
  -1.12066E+2   2.32929E+2
   1.44086E+2  -1.08376E+2
  -1.16541E+2   7.11019E+1
  -2.32686E+2  -9.66483E+1
   2.78345E+2  -5.16386E+1
   1.20594E+2   5.02213E+1
  -1.29535E+1   1.84126E+2
   8.79728E+0  -1.64717E+2
  -6.20025E+1   3.25956E+1
   1.52132E+2   2.38207E+2
  -6.06671E+1   2.26915E+1
   8.11451E+0  -7.72055E+1
   1.36485E+2   2.24024E+2
  -8.38863E+1   1.78016E+2
  -3.16460E+1   1.37826E+2
  -1.71858E+1   1.10216E+2
   3.72231E+1   5.91295E+1
  -2.91535E+2   1.68408E+2
  -4.13091E+1  -2.06612E+2
  -2.83019E+2  -4.44841E+1
  -5.67136E+1  -1.69861E+2
   1.77976E+2   4.66779E+1
  -9.41213E+1   3.40186E+1
  -9.85692E+1   4.36725E+1
   2.82600E+0   2.79780E+2
  -3.01775E+2   6.11637E+1
  -1.03574E+2  -8.13641E+1
  -3.78050E+1   1.99555E+1
   2.89528E+1   1.45868E+2
  -2.19237E+2  -7.22654E+0
   1.39385E+2  -1.29705E+2
   7.96333E+1   3.97346E+1
   1.34649E+2   1.61192E+2
  -1.41500E+2   6.54254E+0
  -2.32264E+2  -8.73056E+1
   5.85565E+1   9.35271E+1
  -5.30085E+1   2.24367E+2
  -1.62762E+2   5.85504E+1
  -1.52269E+1   1.83625E+1
  -1.72526E+2   7.28931E+0
  -2.42303E+1  -1.47504E+2
   5.37088E+1  -5.75980E+1
  -7.66144E+1   1.00084E+2
   4.71099E+1  -3.76663E+2
  -1.73133E+2   1.18388E+1
  -1.70888E+2  -4.63275E+1
  -1.86848E+2   1.68733E+2
  -2.38896E+2  -6.16471E+1
  -3.21170E+2   8.60788E+0
   1.74986E+2  -1.21504E+2
  -9.96030E+0  -7.21377E+0
   3.21961E+1  -2.05047E+2
  -1.99629E+2  -1.61226E+2
  -2.58775E+2  -1.94089E+2
  -4.91121E+1  -4.00687E+1
  -1.38769E+2   8.47640E-1
  -1.74665E+2  -2.90587E+1
   4.49456E+1  -1.16292E+2
  -1.42433E+2   8.62991E+1
   9.46486E+1  -1.65406E+2
  -3.68517E+1   1.33824E+2
   3.03388E+1  -1.10160E+0
  -2.12980E+2   1.22305E+1
  -9.34593E+1  -4.49532E+1
  -3.65747E+2  -2.87571E+1
  -1.69524E+2   3.25639E+1
   5.39142E+1  -1.18891E+1
  -7.84255E+1   1.74297E+2
  -2.25748E+2  -1.37836E+2
   1.58102E+2   1.13823E+1
  -1.32442E+2   2.09848E+1
   1.67038E+1   5.10391E+0
  -5.85369E+1   2.05141E+2
  -3.93149E+1   1.53738E+2
  -1.22469E+2  -3.81805E+1
  -1.81931E+2  -1.40352E+2
   1.97419E+2  -6.59601E+0
   8.40215E+1  -1.32596E+2
   2.83732E+1   8.29535E+1
  -4.72261E+0   2.16871E+2
  -7.00211E+1  -8.25314E+1
   7.12171E+1  -1.40503E+2
  -1.59422E+2   1.78761E+2
   3.55882E+1   1.41372E+2
  -7.40217E+1  -2.99511E+1
   1.97498E+2  -2.72499E+1
  -2.53902E+2   1.45430E+1
   5.96789E+1   1.54748E+2
  -1.47674E+2   1.15743E+1
  -2.13198E+2   1.64379E+2
  -1.07030E+2  -6.03322E+1
   2.24979E+2   6.77252E+1
   2.04708E+2   1.51783E+2
   3.39994E+1  -4.71939E+1
  -9.21319E+1  -4.39550E+1
  -7.76120E+1  -9.35597E+1
  -1.42674E+2   1.23052E+2
  -1.64242E+2   3.99766E+1
   5.77659E+1   1.95031E-1
  -1.40411E+2   2.83604E+2
  -1.13169E+2   2.62722E+2
   1.96733E+1   2.24949E+2
   2.16815E+1   1.43740E+2
  -1.03879E+2  -1.38100E+1
  -1.81597E+1   9.31430E+1
   1.51542E+2  -2.58575E+2
   1.51261E+1  -8.99335E+1
   1.29748E+2  -9.40386E+1
  -9.83633E+1  -3.17654E+1
  -1.28787E+1   5.25889E+1
   9.43330E+1   7.21673E+1
  -2.30932E+2  -3.27924E+1
   1.27469E+2  -2.06812E+2
   1.63530E+2   5.77428E+1
  -2.17828E+2  -9.92122E+1
  -6.75012E+1  -1.62987E+2
  -6.11379E+1  -9.18388E+1
   4.07427E+1  -1.76000E+2
   1.38934E+2  -6.97823E+1
  -1.25815E+2  -1.30263E+2
  -2.30574E+1  -1.30318E+1
  -1.28197E+2   2.96490E+1
  -1.45951E+2   2.52023E+1
   1.51307E+2   1.48787E+2
   1.07963E+2   3.80418E+1
  -6.57585E+1   4.46349E+1
  -2.33602E+2  -1.22308E+2
   1.07818E+2  -4.86881E+1
  -4.84979E+1  -4.69846E+1
   2.21925E+2  -9.47069E+1
   5.29312E+1   9.20464E+1
  -2.29444E+2   1.02481E+2
  -6.39170E+1  -1.90335E+2
   8.81950E+1  -8.76389E+1
  -1.38797E+1   1.39627E+2
  -1.01233E+2  -8.85103E+0
   1.23714E+2   8.97534E+1
  -1.40635E+1  -1.00558E+2
   6.88603E+1   7.74224E+1
  -8.78633E+1   7.78761E+1
   2.34184E+1  -3.49400E+1
   9.90909E+1  -1.73590E+2
  -1.34823E+2  -1.05756E+2
  -2.46705E+1  -7.15824E+1
  -1.76420E+1  -1.13186E+2
   8.46363E+1   7.23963E+1
  -2.14551E+2  -5.68885E+1
  -3.49806E+1  -1.52255E+1
  -4.52006E+1   1.19079E+2
  -5.94703E+1  -3.00289E+2
   2.00569E+0  -6.27796E+1
  -2.24885E+2  -1.73303E+2
   2.66871E+1   1.54167E+2
   1.03379E+2   1.38969E+2
  -1.60491E+2   1.56993E+2
  -2.61024E+2   7.62458E+1
  -2.96343E+1   1.03407E+2
  -4.87183E+1  -2.16366E+2
   9.90988E+1  -4.01645E+1
   4.59063E+1   5.88020E+0
  -4.53738E+1   8.69391E+0
   1.04113E+2   4.35227E+1
  -1.55157E+2   2.57455E+2
  -2.85756E+2  -1.97418E+2
  -2.40902E+2   9.14210E+1
  -9.78868E+0  -5.62693E+1
  -2.11874E+2  -2.54651E+2
   2.23854E+2   3.11538E+1
   2.79390E+1   4.91305E+1
  -2.36539E+1   4.04908E+1
   2.22295E+2  -1.53880E+2
   1.63085E+1  -2.08565E+1
   2.39638E+1  -3.44851E+0
  -8.93012E+1  -1.03716E+2
  -1.22460E+2  -4.48135E+1
  -3.15396E+1  -7.23241E+1
  -1.13834E+2   7.08043E+1
   7.05055E+1  -8.82910E+0
  -1.01730E+2   1.25547E+1
   2.36087E+2  -1.06054E+2
   9.28639E+1  -9.87562E+1
   2.17750E+1   1.35801E+2
  -1.41169E+0  -1.32247E+2
   1.63266E+2   4.88346E+1
  -1.44171E+2   1.04671E+2
   4.68539E+0  -1.55652E+2
  -1.22121E+2   8.19090E+1
   1.86436E+2  -1.05345E+2
   1.03098E+2  -1.15396E+2
  -1.85588E+2  -7.75037E-1
  -6.19133E+1   6.83528E+1
   2.93605E+2  -1.37794E+2
   4.98643E+1   4.91943E+1
  -7.83273E+1  -1.36124E+2
   1.92662E+2  -1.10771E+2
   4.72943E+1  -2.24543E+2
   1.50571E+2  -3.58607E+1
   7.31491E+1  -2.63010E+2
   4.35919E+1   6.71930E+1
  -1.42086E+2  -8.92650E+1
  -1.10017E+2  -1.29623E+2
   6.88226E+1   3.25180E+1
   3.77054E+1  -1.40423E+2
   1.26419E+1  -2.97535E+1
   1.36437E+2  -1.03549E+2
  -1.50195E+2   2.37542E+1
  -6.06357E+1   4.37619E+1
  -1.08793E+2  -1.18651E+2
  -2.76499E+2   3.51255E+1
  -1.13841E+2   1.17249E+2
  -5.55882E+1  -5.76677E+1
  -1.48642E+2  -8.49595E+1
  -9.25608E+1  -2.16405E+0
  -1.18208E+2   1.68758E+2
   1.98304E+2   2.95902E+2
  -6.43558E+1  -1.18454E+2
  -4.17457E+1  -2.22631E+2
  -2.00780E+1  -1.37521E+2
   2.17674E+2  -2.78805E+1
  -1.36602E+2   3.28714E+1
  -1.78315E+2  -1.91139E+2
  -7.64366E+0   4.04884E+1
  -6.71931E+1  -2.18897E+1
  -2.23976E+2   1.90701E+2
  -1.13529E+2  -1.50296E+2
  -1.38943E+2   3.18181E+1
   4.19416E+1  -9.96421E+1
   3.47477E+1  -1.01972E+1
   2.02611E+2  -3.46261E+1
  -1.84840E+2   6.05853E+1
  -1.32998E+2  -5.86022E+1
  -1.01689E+1  -7.08160E+1
  -6.43642E+1   9.77468E+1
  -1.60828E+1   9.35051E+1
  -2.55710E+1  -4.02319E+2
   6.62975E+1   1.48923E+1
   1.36379E+2   6.63292E+1
  -7.58182E+1   1.57916E+2
  -1.38216E+2   1.39773E+1
  -3.86682E+1  -3.19824E+0
  -1.57437E+1  -3.28869E+1
   3.19796E+1   1.00503E+2
   7.96180E+1  -6.87013E+1
   1.05216E+2   1.76865E+2
  -6.78885E+1  -1.48693E+2
   8.57865E+1  -8.34028E+1
