 
 $NMID
 ID=''
 FMTDAT='(2E13.5)'
 TRAMP=   1.00000E+0
 VOLUME=   1.00000E+0
 $END
   4.47483E+4   7.73372E+5
  -6.23204E+5   2.01263E+6
  -3.85611E+5   2.01445E+6
  -4.87393E+5   1.84170E+6
  -5.81995E+5   1.91755E+6
  -4.97049E+5   1.92010E+6
  -5.17135E+5   1.83896E+6
  -5.82507E+5   1.85710E+6
  -5.69050E+5   1.83999E+6
  -6.08201E+5   1.79115E+6
  -6.50130E+5   1.78995E+6
  -6.54393E+5   1.75315E+6
  -6.93340E+5   1.71403E+6
  -7.24777E+5   1.71331E+6
  -7.37973E+5   1.67312E+6
  -7.74650E+5   1.63252E+6
  -7.95798E+5   1.63079E+6
  -8.04873E+5   1.59988E+6
  -8.38622E+5   1.56550E+6
  -8.50249E+5   1.56074E+6
  -8.52703E+5   1.53056E+6
  -8.79714E+5   1.50004E+6
  -8.98010E+5   1.48842E+6
  -9.06589E+5   1.45865E+6
  -9.29318E+5   1.42568E+6
  -9.38386E+5   1.41156E+6
  -9.51390E+5   1.38445E+6
  -9.75603E+5   1.35116E+6
  -9.88506E+5   1.32437E+6
  -9.95250E+5   1.29999E+6
  -1.01424E+6   1.27516E+6
  -1.02262E+6   1.24983E+6
  -1.02787E+6   1.22153E+6
  -1.03881E+6   1.20193E+6
  -1.04352E+6   1.18089E+6
  -1.04635E+6   1.15696E+6
  -1.05526E+6   1.14027E+6
  -1.06147E+6   1.12055E+6
  -1.06666E+6   1.09121E+6
  -1.07419E+6   1.06784E+6
  -1.07826E+6   1.04575E+6
  -1.08311E+6   1.01827E+6
  -1.08779E+6   9.92888E+5
  -1.09050E+6   9.70763E+5
  -1.09489E+6   9.44971E+5
  -1.10250E+6   9.20936E+5
  -1.10707E+6   8.96448E+5
  -1.10878E+6   8.69273E+5
  -1.10951E+6   8.45244E+5
  -1.11092E+6   8.24392E+5
  -1.11237E+6   8.01680E+5
  -1.11352E+6   7.79077E+5
  -1.11402E+6   7.59148E+5
  -1.11533E+6   7.37134E+5
  -1.11635E+6   7.13367E+5
  -1.11636E+6   6.90771E+5
  -1.11631E+6   6.66955E+5
  -1.11489E+6   6.42222E+5
  -1.11192E+6   6.19964E+5
  -1.11027E+6   5.99603E+5
  -1.10996E+6   5.77409E+5
  -1.10856E+6   5.54725E+5
  -1.10568E+6   5.32830E+5
  -1.10292E+6   5.11818E+5
  -1.09942E+6   4.89860E+5
  -1.09387E+6   4.68501E+5
  -1.08802E+6   4.48412E+5
  -1.08335E+6   4.29720E+5
  -1.08028E+6   4.09569E+5
  -1.07674E+6   3.88083E+5
  -1.07098E+6   3.67147E+5
  -1.06411E+6   3.47996E+5
  -1.05931E+6   3.28914E+5
  -1.05467E+6   3.09279E+5
  -1.04755E+6   2.89446E+5
  -1.04030E+6   2.70792E+5
  -1.03449E+6   2.52485E+5
  -1.02774E+6   2.34245E+5
  -1.02028E+6   2.15662E+5
  -1.01333E+6   1.97510E+5
  -1.00546E+6   1.79418E+5
  -9.96534E+5   1.61728E+5
  -9.88776E+5   1.45024E+5
  -9.81147E+5   1.27197E+5
  -9.72376E+5   1.08901E+5
  -9.62773E+5   9.16949E+4
  -9.53951E+5   7.59150E+4
  -9.45283E+5   5.97461E+4
  -9.35701E+5   4.31913E+4
  -9.25506E+5   2.82694E+4
  -9.15362E+5   1.49418E+4
  -9.06311E+5   9.44959E+2
  -8.96968E+5  -1.36664E+4
  -8.86389E+5  -2.73779E+4
  -8.75065E+5  -3.98748E+4
  -8.64425E+5  -5.18429E+4
  -8.54687E+5  -6.39843E+4
  -8.44749E+5  -7.60365E+4
  -8.34224E+5  -8.79171E+4
  -8.23791E+5  -9.93403E+4
  -8.13419E+5  -1.11045E+5
  -8.02869E+5  -1.22650E+5
  -7.91474E+5  -1.34134E+5
  -7.79954E+5  -1.45122E+5
  -7.68440E+5  -1.54520E+5
  -7.58047E+5  -1.63531E+5
  -7.48473E+5  -1.72983E+5
  -7.37031E+5  -1.83834E+5
  -7.24714E+5  -1.92653E+5
  -7.13352E+5  -1.99915E+5
  -7.03562E+5  -2.07136E+5
  -6.93672E+5  -2.16191E+5
  -6.82515E+5  -2.25110E+5
  -6.70935E+5  -2.33085E+5
  -6.60500E+5  -2.40838E+5
  -6.49660E+5  -2.49145E+5
  -6.38061E+5  -2.56939E+5
  -6.26060E+5  -2.64189E+5
  -6.14592E+5  -2.69957E+5
  -6.04039E+5  -2.75396E+5
  -5.93777E+5  -2.81471E+5
  -5.83387E+5  -2.87452E+5
  -5.72993E+5  -2.93346E+5
  -5.62271E+5  -2.98857E+5
  -5.51211E+5  -3.04586E+5
  -5.40004E+5  -3.09350E+5
  -5.29260E+5  -3.13956E+5
  -5.18137E+5  -3.18701E+5
  -5.07537E+5  -3.23168E+5
  -4.96839E+5  -3.27817E+5
  -4.86095E+5  -3.33425E+5
  -4.74149E+5  -3.38313E+5
  -4.62851E+5  -3.42062E+5
  -4.52645E+5  -3.45474E+5
  -4.42220E+5  -3.49132E+5
  -4.30690E+5  -3.52779E+5
  -4.20088E+5  -3.55245E+5
  -4.10305E+5  -3.57834E+5
  -4.00376E+5  -3.61061E+5
  -3.89662E+5  -3.63896E+5
  -3.78686E+5  -3.65972E+5
  -3.68719E+5  -3.67078E+5
  -3.58803E+5  -3.68333E+5
  -3.49377E+5  -3.70294E+5
  -3.39354E+5  -3.72168E+5
  -3.29097E+5  -3.73229E+5
  -3.18771E+5  -3.74463E+5
  -3.08685E+5  -3.74947E+5
  -2.98812E+5  -3.75500E+5
  -2.89186E+5  -3.75438E+5
  -2.79591E+5  -3.75163E+5
  -2.70585E+5  -3.74938E+5
  -2.61824E+5  -3.74691E+5
  -2.53520E+5  -3.74807E+5
  -2.44613E+5  -3.73992E+5
  -2.35466E+5  -3.73054E+5
  -2.27455E+5  -3.72182E+5
  -2.19440E+5  -3.71005E+5
  -2.11067E+5  -3.70023E+5
  -2.02978E+5  -3.68626E+5
  -1.95105E+5  -3.67054E+5
  -1.87496E+5  -3.65502E+5
  -1.79403E+5  -3.63820E+5
  -1.71430E+5  -3.61813E+5
  -1.64116E+5  -3.59247E+5
  -1.57287E+5  -3.57576E+5
  -1.50665E+5  -3.55569E+5
  -1.43407E+5  -3.53695E+5
  -1.36560E+5  -3.51392E+5
  -1.29883E+5  -3.48929E+5
  -1.23649E+5  -3.46233E+5
  -1.17454E+5  -3.43910E+5
  -1.11162E+5  -3.41479E+5
  -1.04954E+5  -3.38789E+5
  -9.90383E+4  -3.35871E+5
  -9.27986E+4  -3.32993E+5
  -8.72225E+4  -3.30594E+5
  -8.10441E+4  -3.27922E+5
  -7.50344E+4  -3.24455E+5
  -6.97226E+4  -3.21196E+5
  -6.48178E+4  -3.18562E+5
  -5.95154E+4  -3.15847E+5
  -5.37727E+4  -3.12875E+5
  -4.87097E+4  -3.09359E+5
  -4.36978E+4  -3.06269E+5
  -3.93455E+4  -3.02965E+5
  -3.46684E+4  -2.99393E+5
  -3.00827E+4  -2.95827E+5
  -2.61288E+4  -2.92424E+5
  -2.22810E+4  -2.89051E+5
  -1.80182E+4  -2.86461E+5
  -1.33786E+4  -2.83070E+5
  -9.02698E+3  -2.79184E+5
  -4.94201E+3  -2.75089E+5
  -1.19550E+3  -2.71488E+5
   2.30597E+3  -2.68138E+5
   6.31784E+3  -2.64708E+5
   1.01748E+4  -2.60821E+5
   1.37346E+4  -2.57040E+5
   1.75294E+4  -2.53474E+5
   2.13516E+4  -2.49840E+5
   2.47928E+4  -2.45810E+5
   2.79638E+4  -2.41560E+5
   3.06556E+4  -2.37985E+5
   3.38795E+4  -2.34249E+5
   3.66960E+4  -2.30297E+5
   3.98205E+4  -2.26106E+5
   4.24316E+4  -2.22317E+5
   4.50412E+4  -2.18788E+5
   4.80361E+4  -2.14776E+5
   5.06669E+4  -2.10485E+5
   5.28657E+4  -2.06735E+5
   5.49033E+4  -2.02867E+5
   5.70885E+4  -1.99552E+5
   5.97809E+4  -1.95281E+5
   6.19428E+4  -1.91348E+5
   6.37870E+4  -1.87276E+5
   6.54752E+4  -1.83386E+5
   6.70608E+4  -1.79834E+5
   6.87552E+4  -1.76041E+5
   7.00158E+4  -1.72233E+5
   7.13793E+4  -1.68493E+5
   7.28724E+4  -1.65005E+5
   7.41922E+4  -1.61494E+5
   7.55113E+4  -1.57737E+5
   7.65137E+4  -1.53792E+5
   7.73854E+4  -1.50261E+5
   7.77379E+4  -1.46925E+5
   7.90762E+4  -1.43747E+5
   8.00580E+4  -1.40202E+5
   8.06474E+4  -1.36612E+5
   8.09930E+4  -1.33160E+5
   8.14331E+4  -1.29981E+5
   8.20161E+4  -1.27209E+5
   8.26295E+4  -1.23598E+5
   8.25704E+4  -1.20854E+5
   8.30048E+4  -1.17945E+5
   8.30663E+4  -1.14941E+5
   8.32999E+4  -1.12215E+5
   8.32880E+4  -1.09196E+5
   8.31807E+4  -1.06445E+5
   8.29277E+4  -1.03925E+5
   8.29750E+4  -1.01384E+5
   8.29553E+4  -9.85354E+4
   8.28272E+4  -9.58460E+4
   8.25705E+4  -9.33683E+4
   8.22608E+4  -9.11009E+4
   8.23111E+4  -8.87382E+4
   8.17518E+4  -8.58259E+4
   8.11569E+4  -8.35080E+4
   8.07566E+4  -8.14300E+4
   8.05993E+4  -7.95185E+4
   8.02690E+4  -7.69993E+4
   7.96010E+4  -7.47562E+4
   7.89465E+4  -7.25088E+4
   7.84618E+4  -7.04925E+4
   7.80175E+4  -6.86842E+4
   7.74443E+4  -6.66211E+4
   7.69779E+4  -6.46058E+4
   7.65009E+4  -6.28634E+4
   7.59893E+4  -6.08717E+4
   7.57057E+4  -5.88658E+4
   7.48156E+4  -5.67950E+4
   7.41899E+4  -5.48917E+4
   7.32254E+4  -5.32299E+4
   7.25461E+4  -5.19140E+4
   7.21453E+4  -5.01456E+4
   7.15726E+4  -4.82715E+4
   7.07635E+4  -4.65494E+4
   7.00390E+4  -4.51557E+4
   6.91149E+4  -4.37851E+4
   6.84055E+4  -4.21076E+4
   6.75446E+4  -4.09009E+4
   6.66124E+4  -3.94397E+4
   6.63203E+4  -3.81522E+4
   6.56674E+4  -3.64457E+4
   6.47152E+4  -3.51340E+4
   6.36967E+4  -3.37171E+4
   6.29009E+4  -3.23578E+4
   6.22353E+4  -3.13146E+4
   6.14766E+4  -3.02588E+4
   6.07510E+4  -2.88904E+4
   5.97587E+4  -2.79143E+4
   5.90623E+4  -2.68831E+4
   5.79023E+4  -2.58469E+4
   5.74447E+4  -2.45523E+4
   5.63941E+4  -2.34634E+4
   5.52659E+4  -2.28197E+4
   5.45722E+4  -2.20388E+4
   5.37915E+4  -2.10800E+4
   5.30117E+4  -2.03145E+4
   5.22043E+4  -1.92639E+4
   5.12399E+4  -1.86214E+4
   5.05475E+4  -1.76977E+4
   4.97545E+4  -1.71674E+4
   4.88441E+4  -1.63896E+4
   4.79317E+4  -1.59487E+4
   4.70006E+4  -1.50417E+4
   4.65700E+4  -1.42226E+4
   4.57455E+4  -1.37975E+4
   4.49871E+4  -1.31144E+4
   4.40732E+4  -1.28624E+4
   4.33077E+4  -1.24865E+4
   4.25731E+4  -1.20540E+4
   4.18747E+4  -1.13501E+4
   4.12543E+4  -1.10390E+4
   4.02676E+4  -1.05187E+4
   3.93967E+4  -1.02450E+4
   3.89372E+4  -9.68559E+3
   3.81907E+4  -9.31685E+3
   3.75014E+4  -9.10164E+3
   3.67126E+4  -9.16403E+3
   3.64200E+4  -8.64867E+3
   3.54630E+4  -8.36759E+3
   3.50857E+4  -7.95446E+3
   3.38916E+4  -7.77235E+3
   3.34859E+4  -7.61918E+3
   3.26990E+4  -7.41974E+3
   3.24163E+4  -7.28096E+3
   3.16854E+4  -7.03211E+3
   3.09315E+4  -6.93063E+3
   3.04367E+4  -6.83309E+3
   2.97217E+4  -6.64938E+3
   2.92841E+4  -6.28590E+3
   2.86273E+4  -6.37076E+3
   2.82173E+4  -6.26409E+3
   2.75576E+4  -6.22432E+3
   2.74019E+4  -6.04978E+3
   2.65389E+4  -5.93773E+3
   2.60790E+4  -5.66739E+3
   2.54913E+4  -5.78035E+3
   2.50567E+4  -5.66001E+3
   2.46903E+4  -5.53175E+3
   2.41201E+4  -5.55977E+3
   2.35775E+4  -5.63228E+3
   2.31340E+4  -5.70168E+3
   2.27947E+4  -5.41280E+3
   2.24472E+4  -5.13728E+3
   2.19425E+4  -5.03633E+3
   2.12921E+4  -5.41750E+3
   2.09495E+4  -5.52470E+3
   2.07443E+4  -5.29073E+3
   2.02874E+4  -5.19858E+3
   1.96918E+4  -5.20856E+3
   1.94362E+4  -5.17218E+3
   1.89818E+4  -5.10500E+3
   1.87232E+4  -5.25345E+3
   1.82204E+4  -5.12160E+3
   1.79191E+4  -5.25033E+3
   1.77275E+4  -5.09609E+3
   1.76473E+4  -5.15534E+3
   1.69235E+4  -5.03500E+3
   1.67218E+4  -4.83056E+3
   1.65397E+4  -4.97710E+3
   1.59202E+4  -4.95828E+3
   1.59848E+4  -4.70256E+3
   1.57095E+4  -4.97032E+3
   1.53327E+4  -4.91017E+3
   1.49944E+4  -4.97944E+3
   1.47393E+4  -4.60770E+3
   1.47318E+4  -4.71042E+3
   1.44263E+4  -4.49902E+3
   1.42002E+4  -4.64369E+3
   1.39503E+4  -4.59861E+3
   1.39184E+4  -4.74442E+3
   1.36595E+4  -4.30720E+3
   1.35543E+4  -4.16727E+3
