 
 $NMID
 ID=''
 FMTDAT='(2E13.5)'
 TRAMP=   1.00000E+0
 VOLUME=   1.00000E+0
 $END
   2.29916E+4   1.22605E+3
   3.80557E+4  -2.00765E+4
  -8.45800E+3  -4.70420E+4
  -3.88588E+4   1.91518E+3
   3.95975E+3   3.93220E+4
   3.38162E+4  -2.16405E+3
   8.26862E+2  -3.26593E+4
  -2.25863E+4  -3.72709E+3
  -1.12077E+3   1.86058E+4
   1.76364E+4   4.88423E+3
   6.16142E+3  -1.01469E+4
  -1.09877E+4  -6.54290E+3
  -6.92301E+3   5.70033E+3
   6.22598E+3   8.76445E+3
   3.49631E+3  -1.25303E+3
  -4.93374E+3  -6.37291E+3
  -1.18279E+3  -6.10606E+2
   3.38005E+3   3.35598E+3
   1.79370E+2   1.12589E+3
  -7.33683E+2  -1.69090E+3
  -9.26325E+1  -1.40826E+3
  -3.69756E+2   2.69905E+2
   4.95731E+2   8.19975E+2
   1.08793E+3   8.96794E+1
  -8.31967E+2  -3.86394E+2
  -5.68373E+1  -9.11963E+2
   1.16537E+3  -5.64387E+2
   1.17495E+1   1.99841E+3
  -3.84771E+2   1.05602E+3
   7.64367E+2  -9.19623E+2
   6.65708E+2  -5.26177E+2
  -7.22713E+2   8.23318E+2
  -4.51859E+2   6.00767E+2
  -2.33441E+2   8.76606E+2
  -1.33899E+3  -3.10835E+2
  -9.30591E+2  -2.30022E+3
   1.13526E+3  -1.13670E+3
   1.25082E+3   1.35316E+3
  -6.63890E+2   7.08245E+2
  -5.09849E+2  -1.96968E+2
   3.24170E+2   6.56085E+2
  -7.07638E+2   6.77588E+2
  -1.19813E+3  -8.48548E+2
  -3.62234E+2  -1.14453E+3
   9.27407E+2  -5.11106E+2
   1.46219E+3  -2.63756E+1
   1.04617E+3   5.45145E+2
  -3.04202E+2   1.45463E+3
  -1.11030E+3   1.11630E+3
  -6.14431E+2   6.44299E+1
  -5.44788E+2  -3.19626E+2
  -5.63171E+2  -4.29545E+1
  -3.03490E+1  -4.30815E+2
   6.66705E+2  -5.04788E+2
   3.92547E+2   1.97129E+2
   4.40825E+1   5.51494E+2
  -3.44328E+2   7.82146E+2
  -4.34391E+2   4.40317E+2
  -7.59622E+2  -3.81107E+2
  -2.64918E+2  -7.98482E+2
   4.33060E+2  -5.54599E+2
   1.13714E+3  -1.01858E+2
   7.92294E+2   3.78222E+2
   5.24248E+2   8.96750E+2
  -6.73471E+1   1.23705E+3
  -4.27626E+2   1.05780E+3
  -1.23429E+3   8.53030E+1
  -1.05543E+3  -1.01460E+3
   3.17723E+2  -8.61849E+2
   9.77953E+2   2.95557E+2
  -6.56222E+1   9.38554E+2
  -1.01896E+3  -3.96271E+2
   4.74334E+2  -9.39487E+2
   1.02655E+3   4.98837E+1
   2.39680E+1   4.40907E+2
  -3.58319E+2  -1.27181E+2
   1.54738E+2  -5.39447E+2
   4.84645E+2  -4.93162E+1
   5.37077E+1   3.58142E+2
  -8.29398E+1   4.06678E+2
   1.24007E+2   4.10478E+2
  -1.29365E+1  -1.15609E+2
  -3.51278E+2  -2.54059E+2
   1.00676E+2  -4.20376E+2
   5.51317E+1   2.31126E+1
  -1.96460E+2  -5.22598E+2
  -1.17392E+1  -7.48766E+2
   4.79875E+2  -2.67798E+2
   3.89854E+2  -5.11935E+1
   6.45493E+1  -2.12761E+2
   1.81575E+2  -7.76567E+2
   6.98026E+2  -2.45114E+2
   7.55490E+2   9.70343E+1
   9.68495E+1   6.03372E+2
  -4.33337E+2   3.09155E+2
  -5.09058E+2  -1.36872E+2
  -1.14031E+2  -3.21165E+2
   5.98787E+0   5.14420E+1
  -5.25054E+2  -1.80986E+2
  -3.83956E+2  -3.28561E+2
   2.54543E+2  -5.73461E+2
   7.15052E+2  -1.81680E+2
   2.07019E+2   2.37816E+2
  -5.36640E+2   5.40578E+2
  -4.97364E+2  -2.09728E+2
   5.78106E+1  -8.61057E+2
   7.01935E+2  -2.26258E+2
   1.05268E+2   9.30085E+2
  -6.53628E+2   6.83795E+2
  -5.46124E+2  -8.09671E+2
  -3.23951E+2  -8.45233E+2
   3.27895E+2  -1.77086E+2
   2.54589E+2   1.19505E+2
   3.83708E+2  -3.24345E+2
   2.17008E+2  -9.75145E+1
  -1.60801E+1   1.14172E+2
   2.66706E+2   6.59625E+2
  -4.31597E+2   4.18858E+2
  -5.97191E+2   1.08395E+1
  -6.42761E+2  -4.48411E+2
   4.70447E+1  -5.19618E+2
   2.36672E+2  -5.49579E+2
   1.86574E+2  -1.37219E+2
   3.75664E+1  -1.76644E+2
   4.90092E+2   4.41804E+2
   3.38380E+1   2.05069E+2
  -2.82236E+2  -2.33389E+2
  -2.18126E+2   1.13764E+1
  -7.64809E+1  -1.72768E+2
   2.14681E+2  -1.91224E+2
   3.38530E+2   1.78681E+2
   1.59980E+2   5.35706E+2
  -1.18408E+2   1.54597E+2
  -2.91619E+2  -1.68952E+2
   6.92823E+1   1.71493E+2
  -1.18592E+2   1.95958E+2
  -1.85413E+2  -4.80635E+2
   2.20276E+2  -3.74202E+2
   5.93193E+2   4.18033E+1
   2.55887E+2   4.35993E+2
   3.11175E+0   5.82210E+2
  -2.83193E+2  -4.20287E-1
  -2.60511E+2  -7.13050E+2
   1.57404E+2  -3.55682E+2
   5.76720E+2   2.13873E+1
   2.35755E+2   2.46588E+2
  -1.49134E+2   1.92667E+2
   2.70585E+2   1.91890E+2
   4.08940E+1   1.47939E+2
  -2.76177E+2   1.33053E+2
  -4.96271E+2   1.07812E+2
  -1.82724E+2  -1.17434E+2
  -5.04136E+1  -4.47744E+2
   3.64247E+2  -1.87884E+2
   1.55499E+2  -6.33622E+1
  -9.13821E+0   3.10047E+2
  -2.75437E+1  -1.82684E+2
   1.86924E+2  -1.86875E+2
   2.55091E+2   7.49158E+1
  -3.48049E+1   4.97630E+1
   1.55491E+2  -2.75974E+1
   6.88276E+1  -9.29639E+1
  -3.38761E+1   2.26408E+2
  -2.88639E+1   2.63146E+2
  -1.84522E+2  -2.95326E+0
  -9.08825E+1  -3.01410E+2
   9.81047E+1  -1.43792E+2
  -1.01103E+2  -2.83127E-1
  -9.43000E+1  -4.73173E+1
  -1.85222E+2  -7.35849E+1
   8.03957E+1  -5.46675E+1
   3.12748E+1   1.75422E+2
   6.31876E+1   2.10135E+1
  -4.83469E+0  -2.47207E+1
  -2.22226E+2   2.92108E+2
  -1.26652E+2  -1.10998E+1
  -4.93415E+1   1.08539E+2
  -8.94120E+1  -1.00482E+2
  -2.47662E+2  -1.40892E+2
  -2.97722E+2  -1.12520E+2
   1.89692E+2  -1.50934E+2
   3.67368E+2  -2.49013E+1
   1.49266E+2   1.95870E+2
  -1.91424E+2   1.02947E+2
  -5.61339E+1   9.84190E+1
  -9.71833E+1   1.31748E+2
  -1.45876E+2   7.10744E+1
  -3.82931E+2   1.85394E+2
  -2.00632E+2  -4.44658E+1
   1.01824E+2  -3.93568E+2
   3.45027E+2   5.95699E+1
   4.41031E+2   4.49328E+2
   6.39113E+1   3.04993E+2
   1.87558E+1   1.93914E+2
   6.73148E+0  -9.76945E-1
  -2.03508E+1   1.77729E+2
   1.55837E+2  -7.01761E+1
  -7.37557E+0   5.17759E+0
   1.93173E+1  -2.76172E+1
   1.09264E+2   1.26495E+2
   6.61740E+1   2.70419E+2
   4.95780E+1   2.29201E+2
  -4.58957E+2  -1.58825E+2
  -1.34697E+2  -3.14847E+2
   1.30420E+2  -4.17629E+1
  -1.37046E+2   3.85872E+1
  -1.55060E+1   2.10526E+2
  -1.33504E+2   1.18226E+2
   1.22834E+2  -1.08885E+2
  -3.54914E+1   3.29509E+2
  -2.34560E+2   1.71160E+2
  -6.22109E+1  -1.60344E+2
  -2.81784E+1  -2.89248E+2
   2.20221E+2  -6.50218E+1
   1.21313E+2   3.34631E+2
   1.16769E+2   1.49519E+2
  -6.89688E+1   1.68162E+2
  -8.97873E+1  -1.69633E+2
   4.59530E+1   1.06434E+2
  -1.13303E+2   2.18044E+2
  -1.98955E+2  -1.60254E+2
  -1.62783E+2  -4.41114E-1
  -2.50202E+1   1.96349E+2
  -2.29190E+2   1.68490E+2
   5.84606E+1   1.61097E+2
  -2.71201E+2   1.34351E+2
   1.46108E+1   9.61813E+1
   9.99689E+1  -1.34276E+2
   2.09852E+1   5.82856E+1
   1.58399E+2   2.36272E+2
  -3.52038E+2   2.40822E+2
  -1.90048E+2   3.35714E+1
   1.03436E+2  -3.70621E+1
  -5.51429E+1  -4.28866E+1
  -1.66892E+2  -5.57673E+0
  -3.79499E+1   8.62136E+1
   5.87707E+1   4.04520E+1
   2.35382E+2   7.32234E+1
   2.38432E+2   1.34203E+2
  -1.26957E+2   1.35622E+1
  -2.37046E+1  -4.78241E+1
   1.10872E+2   1.17800E+2
   1.46244E+2   7.82291E+1
   1.84712E+2   2.36496E+2
  -7.07865E-1   2.44206E+1
  -1.72493E+2   1.63287E+1
  -1.23571E+2   1.40522E+2
   7.21196E+1   1.08213E+2
   3.39143E+1  -2.93570E+1
  -7.42818E+1  -1.92984E+1
  -1.19987E+2  -2.80103E+2
  -9.46378E+0  -5.63303E+1
  -1.10954E+2   2.88660E+2
  -2.45862E+2   8.37030E+1
  -1.55106E+2  -1.42917E+2
   1.09950E+2  -2.65192E+2
   3.53925E+1  -8.02974E+1
   3.74531E+2   1.25252E+2
   3.20790E+2   1.34170E+2
   8.97983E+1   2.05840E+2
   2.71413E+1   1.39449E+2
   8.31940E+1   2.59962E+2
  -9.16186E+1   3.51405E+2
  -2.17274E+2   5.02143E+1
  -9.32747E+1  -4.61436E+1
   3.77564E+2   1.93058E+2
  -7.78477E+0   1.42737E+2
  -4.78171E+0   1.59125E+2
  -7.22298E+1   6.37950E+1
  -3.54979E+2  -2.53579E+1
  -4.79323E+1  -2.43349E+1
  -1.69652E+2   1.28298E+0
  -5.78726E+1  -2.13340E+2
   9.90972E+1  -1.06372E+2
   8.96078E+1   9.26879E+1
  -7.77641E+1  -7.46918E+0
   1.37297E+2   9.57049E+1
   1.04457E+1  -1.65081E+2
  -7.28314E+1   1.46047E+2
   5.11280E+1   1.22772E+2
  -1.96321E+2   3.50142E+1
  -1.30327E+2   1.92216E+2
  -4.88724E+1   9.41672E+1
  -5.99431E+1   2.10578E+2
  -2.07599E+1   7.07084E+1
  -1.83856E+2   1.44352E+2
  -2.27234E+2   1.33122E+2
   9.67747E+1  -8.68207E+1
  -1.29373E+2  -8.97514E+0
   2.51237E+2   4.07572E+1
   2.45866E+0   9.26644E+1
  -2.30063E+1   1.33131E+2
  -1.26606E+2   6.86020E+1
   1.64231E+1   3.94622E+1
  -8.60821E+1   1.30609E+2
  -1.00961E+2   3.41875E+2
  -1.95970E+1   8.16991E+1
  -2.46354E+2   4.69722E+1
   9.38543E+1  -2.65272E+1
   1.87634E+1  -4.42290E+1
   1.11404E+2  -2.34663E+2
   2.25382E+2   5.55995E+1
   1.03840E+2   5.09700E+1
  -5.44335E+0   4.25308E+1
  -1.24078E+2   2.78979E+2
  -1.25113E+2   4.01919E+1
  -1.24470E+2  -3.09351E+1
   8.20815E+1   6.60364E+1
   6.45602E+1  -1.05819E+2
  -2.21569E+2  -2.24904E+1
  -1.09587E+2   5.88102E+1
   1.23019E+2  -1.04164E+2
  -3.57642E+0   1.73319E+2
   2.94044E+2   5.11838E+1
  -2.66405E+2   6.38919E+0
  -2.52867E+2  -1.28236E+2
   2.10703E+1   2.31820E+1
  -1.33310E+2   2.59931E+1
  -1.25199E+2  -2.00404E+1
  -4.15444E+2   2.24521E+2
  -5.68775E+0   8.89330E+1
   8.72478E+1  -1.44587E+1
   9.03808E+1   8.62658E+0
  -1.64128E+2   8.31874E+1
   2.89761E+1  -8.29694E+1
  -2.45989E+2  -1.32223E+2
   7.34659E+1   5.66931E+1
  -5.30092E+0   4.80672E+1
  -1.25084E+2   8.70724E+1
  -1.78420E+2   8.45038E+1
  -1.01023E+2   4.94414E+0
  -1.11386E+2  -1.32367E+2
   5.76187E+1  -1.31720E+2
   6.00481E+1  -3.46914E+2
  -1.42476E+2  -1.05321E+2
   1.83932E+2   2.48575E+2
   1.15617E+2   5.70924E+1
  -3.50664E+2   1.07136E+2
  -7.89217E+1   8.56813E+1
   4.20289E+1  -1.83054E+2
   3.84763E+1  -3.26223E+1
  -1.00062E+2   1.58612E+1
  -1.22585E+2  -2.38227E+2
   4.03681E+1   1.10357E+2
  -2.01276E+2  -2.07239E+2
  -1.02234E+2  -7.98920E+1
  -5.37700E+1  -1.45874E+2
  -3.58804E+1   1.14203E+1
  -1.76133E+1   4.18459E+1
   1.51121E+2  -1.91282E+2
   4.51806E+1   5.48079E+0
   3.72884E+1  -1.19362E+2
  -1.10156E+2  -8.84112E+1
  -2.88112E+1   5.74543E+1
   5.82671E+0   7.48835E+1
  -1.59198E+2  -1.59716E+2
  -8.43011E+1   1.41379E+2
  -2.12922E+1   7.42591E+1
  -1.55831E+1  -1.04512E+2
  -1.25197E+1  -7.51378E+1
  -1.01717E+2   2.95743E+2
  -3.62019E+2  -1.11983E+2
  -8.46533E+1   8.26190E+0
   2.26886E+2   7.83992E+1
   2.46566E+2   2.58198E+0
  -3.25591E+1   2.17129E+2
   3.14367E+1  -1.81431E+2
