 LCModel (Version 6.3-1N) Copyright: S.W. Provencher.          Ref.: Magn. Reson. Med. 30:672-679 (1993).                
 Slice_N1@16_24  28-Feb-2025 11:39:48
 27 lines in following concentration table = NCONC+1
    Conc.  %SD /Cr+PCr  Metabolite                                         
 1.28E-04  24% 9.2E-04 Mac                                                 
    1.118  36%   8.000 Cr                                                  
    0.000 999%   0.000 PCr                                                 
    0.904  59%   6.468 Ins                                                 
 4.32E-03 999% 3.1E-02 NAA                                                 
    0.856  62%   6.125 Tau                                                 
    0.000 999%   0.000 PCho                                                
 9.37E-02 163%   0.671 GPC                                                 
    0.000 999%   0.000 Glu                                                 
    1.853  28%  13.259 Gln                                                 
    4.814  25%  34.451 Ala                                                 
    0.000 999%   0.000 Asc                                                 
    0.211  37%   1.513 Asp                                                 
    0.116  40%   0.831 GABA                                                
    0.121  38%   0.868 Glc                                                 
    0.529  42%   3.787 GSH                                                 
    0.000 999%   0.000 Lac                                                 
    2.666  26%  19.080 NAAG                                                
    0.282 204%   2.022 PE                                                  
 9.37E-02 163%   0.671 GPC+PCho                                            
    2.670  27%  19.111 NAA+NAAG                                            
    1.853  28%  13.259 Glu+Gln                                             
    1.118  36%   8.000 Cr+PCr                                              
    2.670  27%  19.111 NAA+NAAG                                            
    1.118  36%   8.000 Cr+PCr                                              
    1.853  28%  13.259 Glu+Gln                                             
   6 lines in following misc. output table
  FWHM = 0.098 ppm    S/N =   3                                            
  Data shift =-0.016 ppm                                                   
  Ph:   6 deg       0.0 deg/ppm                                            
  alphaB,S = 6.3E-02,   6.3E+00                                            
   19 spline knots.   Ns =11(1)                                            
  ( 9) 5 infls.   ( 6) 4 extrs.                                            
  480 points on ppm-axis = NY
      4.100000     4.091866     4.083733     4.075600     4.067466     4.059333     4.051199     4.043066     4.034933     4.026799
      4.018666     4.010532     4.002399     3.994265     3.986132     3.977998     3.969864     3.961731     3.953597     3.945463
      3.937330     3.929196     3.921062     3.912929     3.904795     3.896662     3.888528     3.880394     3.872261     3.864127
      3.855993     3.847860     3.839726     3.831592     3.823459     3.815325     3.807191     3.799058     3.790924     3.782790
      3.774657     3.766523     3.758389     3.750256     3.742122     3.733989     3.725855     3.717721     3.709588     3.701454
      3.693320     3.685187     3.677053     3.668919     3.660786     3.652652     3.644518     3.636385     3.628251     3.620117
      3.611984     3.603850     3.595716     3.587583     3.579449     3.571316     3.563182     3.555048     3.546915     3.538781
      3.530647     3.522514     3.514380     3.506246     3.498113     3.489979     3.481845     3.473712     3.465578     3.457444
      3.449311     3.441177     3.433043     3.424910     3.416776     3.408643     3.400509     3.392375     3.384242     3.376108
      3.367974     3.359841     3.351707     3.343573     3.335440     3.327306     3.319172     3.311039     3.302905     3.294771
      3.286638     3.278504     3.270370     3.262237     3.254103     3.245970     3.237836     3.229702     3.221569     3.213435
      3.205301     3.197168     3.189034     3.180900     3.172767     3.164633     3.156499     3.148366     3.140232     3.132098
      3.123965     3.115831     3.107697     3.099564     3.091430     3.083297     3.075163     3.067029     3.058896     3.050762
      3.042628     3.034495     3.026361     3.018227     3.010094     3.001960     2.993826     2.985693     2.977559     2.969425
      2.961292     2.953158     2.945024     2.936891     2.928757     2.920624     2.912490     2.904356     2.896223     2.888089
      2.879955     2.871822     2.863688     2.855554     2.847421     2.839287     2.831153     2.823020     2.814886     2.806752
      2.798619     2.790485     2.782351     2.774218     2.766084     2.757951     2.749817     2.741683     2.733550     2.725416
      2.717282     2.709149     2.701015     2.692881     2.684748     2.676614     2.668480     2.660347     2.652213     2.644079
      2.635946     2.627812     2.619678     2.611545     2.603411     2.595278     2.587144     2.579010     2.570877     2.562743
      2.554609     2.546476     2.538342     2.530208     2.522075     2.513941     2.505807     2.497674     2.489540     2.481406
      2.473273     2.465139     2.457006     2.448872     2.440738     2.432605     2.424471     2.416337     2.408204     2.400070
      2.391936     2.383803     2.375669     2.367535     2.359402     2.351268     2.343134     2.335001     2.326867     2.318733
      2.310600     2.302466     2.294333     2.286199     2.278065     2.269932     2.261798     2.253664     2.245531     2.237397
      2.229263     2.221130     2.212996     2.204862     2.196729     2.188595     2.180461     2.172328     2.164194     2.156060
      2.147927     2.139793     2.131660     2.123526     2.115392     2.107259     2.099125     2.090991     2.082858     2.074724
      2.066590     2.058457     2.050323     2.042189     2.034056     2.025922     2.017788     2.009655     2.001521     1.993387
      1.985254     1.977120     1.968987     1.960853     1.952719     1.944586     1.936452     1.928318     1.920185     1.912051
      1.903917     1.895784     1.887650     1.879516     1.871383     1.863249     1.855115     1.846982     1.838848     1.830714
      1.822581     1.814447     1.806314     1.798180     1.790046     1.781913     1.773779     1.765645     1.757512     1.749378
      1.741244     1.733111     1.724977     1.716843     1.708710     1.700576     1.692442     1.684309     1.676175     1.668041
      1.659908     1.651774     1.643641     1.635507     1.627373     1.619240     1.611106     1.602972     1.594839     1.586705
      1.578571     1.570438     1.562304     1.554170     1.546037     1.537903     1.529769     1.521636     1.513502     1.505368
      1.497235     1.489101     1.480968     1.472834     1.464700     1.456567     1.448433     1.440299     1.432166     1.424032
      1.415898     1.407765     1.399631     1.391497     1.383364     1.375230     1.367096     1.358963     1.350829     1.342695
      1.334562     1.326428     1.318295     1.310161     1.302027     1.293894     1.285760     1.277626     1.269493     1.261359
      1.253225     1.245092     1.236958     1.228824     1.220691     1.212557     1.204423     1.196290     1.188156     1.180022
      1.171889     1.163755     1.155622     1.147488     1.139354     1.131221     1.123087     1.114953     1.106820     1.098686
      1.090552     1.082419     1.074285     1.066151     1.058018     1.049884     1.041750     1.033617     1.025483     1.017349
      1.009216     1.001082     0.992949     0.984815     0.976681     0.968548     0.960414     0.952280     0.944147     0.936013
      0.927879     0.919746     0.911612     0.903478     0.895345     0.887211     0.879077     0.870944     0.862810     0.854676
      0.846543     0.838409     0.830276     0.822142     0.814008     0.805875     0.797741     0.789607     0.781474     0.773340
      0.765206     0.757073     0.748939     0.740805     0.732672     0.724538     0.716404     0.708271     0.700137     0.692003
      0.683870     0.675736     0.667603     0.659469     0.651335     0.643202     0.635068     0.626934     0.618801     0.610667
      0.602533     0.594400     0.586266     0.578132     0.569999     0.561865     0.553731     0.545598     0.537464     0.529330
      0.521197     0.513063     0.504930     0.496796     0.488662     0.480529     0.472395     0.464261     0.456128     0.447994
      0.439861     0.431727     0.423593     0.415460     0.407326     0.399192     0.391059     0.382925     0.374792     0.366658
      0.358524     0.350391     0.342257     0.334124     0.325990     0.317856     0.309723     0.301589     0.293455     0.285322
      0.277188     0.269055     0.260921     0.252787     0.244654     0.236520     0.228386     0.220253     0.212119     0.203986
 NY phased data points follow
   1.03531E+02  8.46001E+01  6.43346E+01  7.74191E+01  5.00276E+01  6.81904E+01  6.09435E+01  4.35322E+01  6.77703E+01  5.35403E+01
   4.96198E+01  4.57897E+01  5.01802E+01  4.13425E+01  2.17962E+01  2.99310E+01  2.04462E+01  2.36641E+01  2.04935E+01 -9.03952E+00
  -6.34578E+00  1.56879E+01  2.13822E+01  3.58738E+00  1.40856E+01  3.74031E+01  4.16154E+01  4.36768E+01  4.62901E+01  7.50628E+01
   5.08310E+01  4.06474E+01  5.74084E+01  3.06501E+01  4.18730E+01  4.37605E+01  5.12592E+01  2.85451E+01  1.04894E+01  3.26396E+01
   1.39496E+01  1.18432E+01 -1.12136E+01 -5.81410E+00  2.88131E+01  2.30375E+01  5.48959E+01  8.17899E+01  6.52485E+01  6.80804E+01
   7.28149E+01  7.88136E+01  8.75401E+01  6.22618E+01  5.81835E+01  6.77801E+01  5.58765E+01  4.36508E+01  4.60873E+01  5.41700E+01
   4.98902E+01  5.49057E+01  7.14132E+01  7.36633E+01  8.85770E+01  9.04403E+01  5.56845E+01  7.24145E+01  7.07425E+01  5.55099E+01
   5.63521E+01  4.25014E+01  7.40583E+01  7.74191E+01  6.67595E+01  8.69345E+01  8.66855E+01  6.04375E+01  8.00267E+01  9.32321E+01
   7.41448E+01  7.45172E+01  7.08845E+01  7.88695E+01  4.32296E+01  5.32728E+01  6.78399E+01  5.74056E+01  7.74761E+01  7.32287E+01
   1.02674E+02  1.03029E+02  1.09052E+02  1.04732E+02  1.00922E+02  1.19621E+02  1.11974E+02  1.31450E+02  1.20797E+02  1.20499E+02
   1.32083E+02  1.25866E+02  1.13486E+02  1.03609E+02  9.55952E+01  7.63468E+01  6.54829E+01  4.67024E+01  2.96174E+01  2.25828E+01
   2.82290E+01  1.59813E+01  1.94190E+01  2.37812E+01  1.36771E+01  2.64793E+01  3.52741E+01  2.80787E+01  2.86897E+01  5.64824E+01
   4.51115E+01  6.16175E+01  7.80683E+01  6.83525E+01  1.01076E+02  1.08001E+02  1.10216E+02  1.09702E+02  1.41458E+02  1.59364E+02
   1.45335E+02  1.37919E+02  8.80503E+01  8.15197E+01  7.17898E+01  3.99984E+01  2.22817E+01 -1.86974E+01  4.25733E+00  2.77625E+01
   1.11018E+01  1.77261E+01 -1.03286E+00 -7.46595E+00  1.16626E+01  3.42662E+00  2.93242E+00  1.43742E+01 -3.57255E+00  1.76657E+01
   2.62845E+01  4.70044E-01  2.97880E+01  2.17381E+00  3.00189E+00  3.47449E+01  2.13279E+01  3.36646E+01  2.63494E+01  2.72145E+01
   2.01750E+01  2.07420E+01  3.02505E+01  3.06042E+01  2.35162E+01  2.24984E+01  3.69427E+01  2.04311E+01  3.82745E+01  4.99812E+01
   4.79018E+01  5.24562E+01  6.49046E+01  8.31877E+01  6.79620E+01  8.31550E+01  9.22171E+01  6.33886E+01  4.42942E+01  3.29112E+01
   1.74690E+01  2.60653E+01  3.85422E+01  2.62450E+01 -4.74898E+00 -7.49693E+00  5.51881E+00 -1.52641E+01  2.43783E+00  6.17680E+00
  -1.96814E+01 -2.03385E+01 -9.03100E+00 -2.29704E+01 -2.41908E+01  9.77236E-01 -1.00693E+01 -3.38408E+00 -9.76445E+00  4.99064E+00
   1.37450E+01 -1.33200E+00  1.28916E+01  1.06268E+01  2.52025E+01  9.72796E+00  4.42065E+00  1.51714E+01  4.96901E+00  1.67575E+00
  -2.26946E+00  1.36460E+00  2.01059E+01  4.97511E+01  4.59218E+01  6.29735E+01  8.05961E+01  8.91103E+01  8.85338E+01  7.60254E+01
   1.01850E+02  8.84222E+01  7.46348E+01  5.65083E+01  3.57813E+01  4.44569E+01  2.96515E+01  3.47729E+01  3.69583E+01  4.19656E+01
   3.89790E+01  1.93607E+00  3.29644E+00  1.04363E+01 -1.20816E+01 -4.44265E+01 -4.23096E+01 -2.63814E+01 -5.22963E+01 -6.24629E+01
  -5.51886E+01 -6.22160E+01 -7.66399E+01 -7.41055E+01 -7.21083E+01 -7.76372E+01 -6.86410E+01 -5.93459E+01 -6.26009E+01 -9.29866E+01
  -8.18130E+01 -8.80731E+01 -1.03388E+02 -9.80481E+01 -1.23275E+02 -8.11797E+01 -5.89244E+01 -3.41656E+01  1.33260E+01  3.81125E+01
   7.78877E+01  7.01521E+01  8.87150E+01  1.02642E+02  8.62457E+01  8.31879E+01  7.17146E+01  7.97306E+01  9.01828E+01  7.88552E+01
   6.54197E+01  6.95197E+01  7.13299E+01  7.70147E+01  5.49633E+01  4.08596E+01  6.43683E+01  4.74792E+01  4.25293E+01  5.79816E+01
   4.66368E+01  4.74211E+01  5.42507E+01  5.05324E+01  5.06113E+01  5.01010E+01  5.48976E+01  3.84158E+01  4.00841E+01  4.31630E+01
   8.80907E+00  3.01479E+01  2.18964E+01  3.81963E+00  1.00939E+01 -2.15287E+01 -1.62457E+01 -2.32640E+01 -3.08980E+01 -2.15091E+01
  -2.12119E+01 -1.24940E+01 -6.42188E+00  2.73494E+00  5.98368E+00  2.69554E+01  3.77313E+01  7.00712E+01  1.15312E+02  1.43363E+02
   2.17387E+02  2.56322E+02  2.73172E+02  3.05851E+02  3.04574E+02  3.00926E+02  3.03149E+02  2.98455E+02  2.92119E+02  2.78268E+02
   2.52640E+02  2.31732E+02  2.19213E+02  2.14150E+02  1.92361E+02  1.75735E+02  1.82976E+02  1.54724E+02  1.29317E+02  1.25838E+02
   1.12223E+02  1.18049E+02  1.08797E+02  7.57842E+01  6.13652E+01  4.24485E+01  5.19932E+01  5.82255E+01  5.09359E+01  7.29132E+01
   5.61235E+01  6.32075E+01  7.32469E+01  5.14626E+01  6.32423E+01  6.34875E+01  5.21202E+01  5.29316E+01  5.53201E+01  5.43572E+01
   7.70570E+01  6.49705E+01  5.92569E+01  8.12454E+01  5.55203E+01  6.34354E+01  7.17964E+01  6.07637E+01  5.89167E+01  6.77485E+01
   6.42950E+01  5.06687E+01  4.57568E+01  3.73308E+01  5.82363E+01  4.00333E+01  3.47773E+01  3.90841E+01  4.33471E+01  5.34579E+01
   2.81179E+01  6.13650E+01  5.00600E+01  4.24683E+01  6.28824E+01  4.53233E+01  7.41830E+01  8.13171E+01  8.27984E+01  9.78300E+01
   1.03189E+02  9.97973E+01  9.15836E+01  1.16993E+02  1.45782E+02  1.57448E+02  1.53763E+02  1.62084E+02  1.77999E+02  1.54596E+02
   1.47241E+02  1.61156E+02  1.58842E+02  1.54496E+02  1.37016E+02  1.40185E+02  1.30910E+02  1.15063E+02  1.15384E+02  1.04671E+02
   1.07173E+02  9.83701E+01  1.00926E+02  9.10216E+01  7.79478E+01  7.05350E+01  6.10344E+01  6.59161E+01  5.56115E+01  7.67355E+01
   7.22043E+01  4.12095E+01  3.23570E+01  4.67764E+01  5.16511E+01  2.91297E+01  3.29657E+01  3.52396E+01  4.42863E+01  3.28627E+01
   1.81000E+01  2.82008E+01  4.14440E+01  4.48090E+01  4.78641E+01  4.42077E+01  1.84227E+01  3.81535E+01  4.02262E+01  4.66689E+01
   4.85911E+01  3.69093E+01  4.51559E+01  3.53955E+01  3.93705E+01  9.69340E+00  4.07988E+01  5.63570E+01  2.46749E+01  4.23305E+01
   1.23438E+01  1.97937E+01  3.48214E+01  1.62167E+01  2.54326E+01  2.16643E+01  2.82135E+01  3.84497E+01  1.98330E+01  4.05328E+01
   3.69606E+01  2.35896E+00  2.70549E+01  3.92327E+01  4.24938E+01  2.18216E+01  1.79557E+01  3.16958E+01  3.08558E+01  4.00840E+01
   2.11226E+01  2.88410E+01  3.28721E+01  3.77471E+01  3.63825E+01  2.58623E+01  3.37353E+01  1.72745E+01  1.61119E+01  3.31345E+01
   3.59206E+01  2.61174E+01  3.01691E+01  1.89274E+01  3.51208E+01  4.01292E+01  3.36030E+00  1.78748E+01  3.11483E+01  2.85073E+01
 NY points of the fit to the data follow
   5.46554E+01  5.79600E+01  5.82151E+01  5.63119E+01  5.41330E+01  5.23125E+01  5.07096E+01  4.93599E+01  4.86703E+01  4.85867E+01
   4.97906E+01  5.43834E+01  5.27346E+01  4.22218E+01  3.00748E+01  2.26583E+01  2.07099E+01  2.10936E+01  2.05565E+01  1.92022E+01
   1.85797E+01  1.93023E+01  2.17959E+01  2.73305E+01  3.47340E+01  4.71628E+01  5.79381E+01  6.75315E+01  7.48125E+01  7.72287E+01
   7.90978E+01  7.30186E+01  6.35918E+01  5.52024E+01  4.97420E+01  4.32436E+01  3.71012E+01  3.16235E+01  2.64742E+01  2.23105E+01
   1.94659E+01  1.81786E+01  1.80514E+01  1.90871E+01  2.08248E+01  2.33368E+01  2.64359E+01  3.00600E+01  3.73681E+01  4.42376E+01
   5.06074E+01  5.79840E+01  6.55995E+01  7.18420E+01  7.25523E+01  7.08365E+01  6.69887E+01  6.35238E+01  6.33879E+01  6.65558E+01
   6.82818E+01  6.82862E+01  6.85696E+01  6.84212E+01  6.73578E+01  6.60186E+01  6.49047E+01  6.35998E+01  6.18146E+01  5.97220E+01
   5.89116E+01  5.98263E+01  6.21775E+01  6.60864E+01  7.07145E+01  7.44500E+01  7.58326E+01  7.48343E+01  7.20914E+01  6.94576E+01
   6.82285E+01  6.89086E+01  7.01356E+01  7.07674E+01  7.16051E+01  7.24928E+01  7.29779E+01  7.34425E+01  7.49918E+01  7.81646E+01
   8.15819E+01  8.57454E+01  9.21894E+01  9.75584E+01  1.03217E+02  1.08600E+02  1.12028E+02  1.12714E+02  1.13381E+02  1.15493E+02
   1.16332E+02  1.13075E+02  1.05966E+02  9.69052E+01  8.77042E+01  7.91026E+01  7.04549E+01  6.12781E+01  5.17387E+01  4.16576E+01
   3.10681E+01  2.02806E+01  1.14975E+01  8.33037E+00  1.17612E+01  1.82212E+01  2.39283E+01  2.87316E+01  3.10575E+01  2.96487E+01
   2.30118E+01  3.17208E+01  5.50104E+01  7.88162E+01  9.45177E+01  1.01605E+02  1.03992E+02  1.05918E+02  1.08011E+02  1.09266E+02
   1.09223E+02  1.07769E+02  1.03932E+02  9.61386E+01  8.56308E+01  7.50606E+01  6.63981E+01  5.99304E+01  5.59595E+01  5.36868E+01
   5.03973E+01  4.29735E+01  3.07211E+01  1.91426E+01  1.63712E+01  1.66871E+01  1.72404E+01  1.76096E+01  1.78326E+01  1.78045E+01
   1.73278E+01  1.68775E+01  1.75511E+01  1.89259E+01  1.91813E+01  1.65103E+01  1.28951E+01  1.24392E+01  1.49920E+01  1.66673E+01
   1.42890E+01  1.02998E+01  1.05263E+01  1.55831E+01  2.18105E+01  2.64338E+01  2.96345E+01  3.24876E+01  3.57999E+01  3.87975E+01
   4.08028E+01  4.16626E+01  4.15062E+01  4.09306E+01  4.09200E+01  4.08976E+01  4.05666E+01  3.93730E+01  3.72103E+01  3.38948E+01
   2.94837E+01  2.62414E+01  2.13882E+01  1.35974E+01  6.48666E+00  2.44288E+00  2.25790E+00  3.42130E+00  5.21859E+00  8.51762E+00
   1.16393E+01  1.37958E+01  1.37129E+01  1.08844E+01  6.55126E+00  1.89619E+00 -1.98335E+00 -2.92273E+00 -1.61126E+00  1.22345E+00
   4.68566E+00  8.25209E+00  1.17754E+01  1.59890E+01  2.05565E+01  2.28038E+01  2.27607E+01  2.13842E+01  1.91175E+01  1.67065E+01
   1.42675E+01  1.38341E+01  1.58682E+01  1.95597E+01  2.50191E+01  3.08787E+01  3.65909E+01  4.23202E+01  4.83655E+01  5.53132E+01
   6.35123E+01  7.16455E+01  7.46828E+01  7.57260E+01  7.20633E+01  6.16638E+01  5.19341E+01  4.02979E+01  2.85488E+01  1.85658E+01
   1.12675E+01  1.76109E+00 -8.28500E+00 -1.92720E+01 -3.07242E+01 -4.00896E+01 -4.69190E+01 -4.98913E+01 -5.19455E+01 -5.13612E+01
  -4.30393E+01 -1.65893E+01 -4.42021E+00 -2.58061E+01 -5.79970E+01 -8.03080E+01 -8.46216E+01 -8.03674E+01 -7.69372E+01 -7.66126E+01
  -7.83835E+01 -7.66215E+01 -7.13579E+01 -6.35869E+01 -5.40021E+01 -4.09417E+01 -2.61426E+01 -1.06190E+01  4.04959E+00  1.35112E+01
   1.77818E+01  2.02181E+01  2.87715E+01  4.82684E+01  7.07881E+01  7.81296E+01  7.47465E+01  7.09750E+01  6.71023E+01  6.41724E+01
   6.17850E+01  6.00778E+01  5.92996E+01  5.94228E+01  6.06837E+01  6.26995E+01  6.52727E+01  6.82851E+01  7.16935E+01  7.50956E+01
   7.77184E+01  7.93556E+01  7.99510E+01  7.98483E+01  7.90068E+01  7.72514E+01  7.47824E+01  7.14234E+01  6.77415E+01  6.37133E+01
   5.97173E+01  5.58628E+01  5.20007E+01  4.81776E+01  4.47933E+01  4.19931E+01  3.99740E+01  3.85295E+01  3.74263E+01  3.71160E+01
   3.78742E+01  3.94354E+01  4.18199E+01  4.48387E+01  4.78066E+01  5.02343E+01  5.19866E+01  5.23215E+01  5.25743E+01  7.65923E+01
   1.19010E+02  1.66080E+02  2.20387E+02  2.58067E+02  2.72719E+02  2.73783E+02  2.71466E+02  2.69226E+02  2.65860E+02  2.57803E+02
   2.42694E+02  2.22001E+02  1.98196E+02  1.73524E+02  1.49533E+02  1.28797E+02  1.12433E+02  9.83184E+01  8.29678E+01  6.30078E+01
   3.80618E+01  1.51732E+01  3.98786E+00  4.12767E-01  7.28264E+00  2.26217E+01  3.34827E+01  4.31584E+01  5.33075E+01  6.39188E+01
   7.42415E+01  8.33798E+01  9.06676E+01  9.57978E+01  9.90831E+01  1.00692E+02  1.01059E+02  1.00264E+02  9.84803E+01  9.57008E+01
   9.20554E+01  8.76565E+01  8.28826E+01  7.79973E+01  7.32128E+01  6.86354E+01  6.41618E+01  5.97804E+01  5.56274E+01  5.16023E+01
   4.80755E+01  4.51008E+01  4.23856E+01  3.94136E+01  3.64774E+01  3.35567E+01  3.02945E+01  2.64317E+01  2.22528E+01  1.81998E+01
   1.51770E+01  1.41997E+01  1.66911E+01  2.33746E+01  3.40667E+01  4.71432E+01  6.11123E+01  7.53968E+01  8.93537E+01  1.02861E+02
   1.16263E+02  1.30163E+02  1.43877E+02  1.57059E+02  1.69087E+02  1.78977E+02  1.86154E+02  1.91124E+02  1.93865E+02  1.94388E+02
   1.92421E+02  1.88035E+02  1.81115E+02  1.72078E+02  1.61667E+02  1.50780E+02  1.39999E+02  1.29784E+02  1.20438E+02  1.11739E+02
   1.03337E+02  9.49392E+01  8.70762E+01  7.98989E+01  7.31068E+01  6.70212E+01  6.20929E+01  5.82633E+01  5.50452E+01  5.23548E+01
   5.02719E+01  4.86373E+01  4.72105E+01  4.55676E+01  4.40204E+01  4.27325E+01  4.18645E+01  4.12257E+01  4.07530E+01  4.01552E+01
   3.94633E+01  3.88520E+01  3.80849E+01  3.73689E+01  3.68151E+01  3.64458E+01  3.58903E+01  3.52830E+01  3.48887E+01  3.47427E+01
   3.45708E+01  3.41300E+01  3.37462E+01  3.34538E+01  3.31411E+01  3.29600E+01  3.27820E+01  3.24963E+01  3.20371E+01  3.16524E+01
   3.12183E+01  3.09794E+01  3.06587E+01  3.04043E+01  2.99969E+01  2.97173E+01  2.95695E+01  2.94905E+01  2.93842E+01  2.92033E+01
   2.90631E+01  2.88170E+01  2.84262E+01  2.79340E+01  2.75857E+01  2.75846E+01  2.77136E+01  2.78205E+01  2.77837E+01  2.76979E+01
   2.76452E+01  2.75297E+01  2.75376E+01  2.77834E+01  2.80120E+01  2.80668E+01  2.79703E+01  2.75163E+01  2.69479E+01  2.63163E+01
   2.58051E+01  2.54346E+01  2.51602E+01  2.49951E+01  2.48945E+01  2.46144E+01  2.41101E+01  2.36957E+01  2.38068E+01  2.41300E+01
 NY background values follow
     5.907E+01    5.897E+01    5.886E+01    5.876E+01    5.866E+01    5.856E+01    5.846E+01    5.837E+01    5.828E+01    5.820E+01
     5.812E+01    5.804E+01    5.797E+01    5.791E+01    5.785E+01    5.779E+01    5.775E+01    5.771E+01    5.768E+01    5.765E+01
     5.764E+01    5.763E+01    5.763E+01    5.764E+01    5.767E+01    5.770E+01    5.774E+01    5.779E+01    5.785E+01    5.793E+01
     5.802E+01    5.812E+01    5.823E+01    5.835E+01    5.848E+01    5.862E+01    5.877E+01    5.894E+01    5.910E+01    5.928E+01
     5.946E+01    5.965E+01    5.985E+01    6.005E+01    6.026E+01    6.047E+01    6.068E+01    6.090E+01    6.112E+01    6.134E+01
     6.156E+01    6.178E+01    6.200E+01    6.223E+01    6.245E+01    6.267E+01    6.288E+01    6.310E+01    6.331E+01    6.352E+01
     6.372E+01    6.392E+01    6.411E+01    6.429E+01    6.447E+01    6.465E+01    6.482E+01    6.498E+01    6.513E+01    6.528E+01
     6.542E+01    6.555E+01    6.567E+01    6.578E+01    6.589E+01    6.598E+01    6.607E+01    6.615E+01    6.622E+01    6.627E+01
     6.632E+01    6.636E+01    6.638E+01    6.639E+01    6.640E+01    6.639E+01    6.637E+01    6.633E+01    6.628E+01    6.622E+01
     6.615E+01    6.606E+01    6.597E+01    6.585E+01    6.573E+01    6.559E+01    6.544E+01    6.528E+01    6.510E+01    6.492E+01
     6.472E+01    6.451E+01    6.429E+01    6.406E+01    6.382E+01    6.357E+01    6.331E+01    6.304E+01    6.276E+01    6.247E+01
     6.217E+01    6.186E+01    6.155E+01    6.122E+01    6.089E+01    6.055E+01    6.020E+01    5.984E+01    5.948E+01    5.911E+01
     5.873E+01    5.835E+01    5.795E+01    5.756E+01    5.716E+01    5.675E+01    5.634E+01    5.592E+01    5.550E+01    5.508E+01
     5.465E+01    5.422E+01    5.379E+01    5.335E+01    5.292E+01    5.248E+01    5.204E+01    5.160E+01    5.116E+01    5.072E+01
     5.028E+01    4.984E+01    4.940E+01    4.897E+01    4.853E+01    4.810E+01    4.767E+01    4.725E+01    4.682E+01    4.640E+01
     4.599E+01    4.558E+01    4.517E+01    4.477E+01    4.437E+01    4.397E+01    4.358E+01    4.319E+01    4.280E+01    4.242E+01
     4.204E+01    4.165E+01    4.127E+01    4.089E+01    4.052E+01    4.014E+01    3.976E+01    3.938E+01    3.901E+01    3.863E+01
     3.825E+01    3.787E+01    3.749E+01    3.711E+01    3.672E+01    3.634E+01    3.595E+01    3.556E+01    3.516E+01    3.477E+01
     3.437E+01    3.396E+01    3.356E+01    3.315E+01    3.274E+01    3.232E+01    3.191E+01    3.149E+01    3.107E+01    3.066E+01
     3.024E+01    2.982E+01    2.940E+01    2.898E+01    2.857E+01    2.816E+01    2.774E+01    2.733E+01    2.693E+01    2.652E+01
     2.612E+01    2.572E+01    2.533E+01    2.494E+01    2.455E+01    2.417E+01    2.380E+01    2.343E+01    2.307E+01    2.271E+01
     2.236E+01    2.202E+01    2.168E+01    2.136E+01    2.104E+01    2.073E+01    2.043E+01    2.013E+01    1.985E+01    1.958E+01
     1.931E+01    1.906E+01    1.882E+01    1.859E+01    1.837E+01    1.817E+01    1.798E+01    1.780E+01    1.763E+01    1.748E+01
     1.734E+01    1.721E+01    1.710E+01    1.700E+01    1.692E+01    1.686E+01    1.681E+01    1.678E+01    1.676E+01    1.677E+01
     1.679E+01    1.682E+01    1.688E+01    1.695E+01    1.705E+01    1.716E+01    1.730E+01    1.745E+01    1.763E+01    1.783E+01
     1.805E+01    1.829E+01    1.856E+01    1.885E+01    1.916E+01    1.950E+01    1.986E+01    2.025E+01    2.067E+01    2.111E+01
     2.158E+01    2.208E+01    2.260E+01    2.316E+01    2.374E+01    2.435E+01    2.499E+01    2.567E+01    2.637E+01    2.710E+01
     2.787E+01    2.867E+01    2.950E+01    3.036E+01    3.125E+01    3.216E+01    3.311E+01    3.408E+01    3.508E+01    3.611E+01
     3.716E+01    3.824E+01    3.934E+01    4.046E+01    4.161E+01    4.278E+01    4.397E+01    4.518E+01    4.641E+01    4.766E+01
     4.893E+01    5.021E+01    5.151E+01    5.283E+01    5.417E+01    5.552E+01    5.688E+01    5.826E+01    5.965E+01    6.105E+01
     6.247E+01    6.389E+01    6.532E+01    6.676E+01    6.820E+01    6.963E+01    7.107E+01    7.249E+01    7.391E+01    7.532E+01
     7.671E+01    7.809E+01    7.944E+01    8.078E+01    8.209E+01    8.337E+01    8.462E+01    8.584E+01    8.703E+01    8.817E+01
     8.928E+01    9.034E+01    9.136E+01    9.233E+01    9.325E+01    9.412E+01    9.492E+01    9.567E+01    9.636E+01    9.699E+01
     9.754E+01    9.803E+01    9.846E+01    9.882E+01    9.913E+01    9.937E+01    9.955E+01    9.968E+01    9.975E+01    9.978E+01
     9.974E+01    9.966E+01    9.954E+01    9.936E+01    9.914E+01    9.888E+01    9.858E+01    9.824E+01    9.786E+01    9.744E+01
     9.699E+01    9.651E+01    9.600E+01    9.546E+01    9.489E+01    9.429E+01    9.367E+01    9.303E+01    9.236E+01    9.168E+01
     9.098E+01    9.027E+01    8.953E+01    8.879E+01    8.803E+01    8.726E+01    8.648E+01    8.568E+01    8.488E+01    8.407E+01
     8.325E+01    8.243E+01    8.160E+01    8.076E+01    7.992E+01    7.908E+01    7.824E+01    7.740E+01    7.655E+01    7.571E+01
     7.487E+01    7.403E+01    7.320E+01    7.238E+01    7.155E+01    7.074E+01    6.993E+01    6.914E+01    6.835E+01    6.757E+01
     6.681E+01    6.605E+01    6.531E+01    6.459E+01    6.387E+01    6.316E+01    6.247E+01    6.178E+01    6.111E+01    6.045E+01
     5.980E+01    5.916E+01    5.853E+01    5.791E+01    5.730E+01    5.670E+01    5.612E+01    5.554E+01    5.497E+01    5.441E+01
     5.386E+01    5.332E+01    5.279E+01    5.227E+01    5.175E+01    5.125E+01    5.075E+01    5.027E+01    4.979E+01    4.932E+01
     4.885E+01    4.840E+01    4.795E+01    4.751E+01    4.708E+01    4.666E+01    4.624E+01    4.583E+01    4.543E+01    4.503E+01
     4.464E+01    4.426E+01    4.388E+01    4.351E+01    4.314E+01    4.278E+01    4.242E+01    4.207E+01    4.172E+01    4.138E+01
     4.105E+01    4.071E+01    4.039E+01    4.006E+01    3.974E+01    3.943E+01    3.911E+01    3.880E+01    3.850E+01    3.819E+01
     3.789E+01    3.759E+01    3.730E+01    3.700E+01    3.671E+01    3.642E+01    3.614E+01    3.585E+01    3.557E+01    3.529E+01
     3.501E+01    3.473E+01    3.446E+01    3.418E+01    3.391E+01    3.363E+01    3.336E+01    3.309E+01    3.282E+01    3.255E+01
     3.228E+01    3.201E+01    3.174E+01    3.147E+01    3.120E+01    3.094E+01    3.067E+01    3.040E+01    3.013E+01    2.986E+01
 Mac      Conc. = 1.28E-04
   6.45650E+01  6.54092E+01  6.39404E+01  6.03591E+01  5.60184E+01  5.14508E+01  4.69268E+01  4.28277E+01  3.94024E+01  3.64414E+01
   3.36376E+01  3.07738E+01  2.77762E+01  2.50566E+01  2.32254E+01  2.24203E+01  2.23792E+01  2.28897E+01  2.38373E+01  2.52112E+01
   2.67918E+01  2.83735E+01  2.97593E+01  3.11644E+01  3.30138E+01  3.53382E+01  3.80545E+01  4.03272E+01  4.12831E+01  4.14412E+01
   4.17694E+01  4.27396E+01  4.43757E+01  4.64810E+01  4.89887E+01  5.15608E+01  5.40902E+01  5.64018E+01  5.82329E+01  5.97645E+01
   6.12661E+01  6.26976E+01  6.37295E+01  6.44733E+01  6.45178E+01  6.34546E+01  6.20825E+01  6.12483E+01  6.11406E+01  6.17409E+01
   6.24217E+01  6.27842E+01  6.29292E+01  6.34149E+01  6.39092E+01  6.35324E+01  6.22605E+01  6.08408E+01  5.96222E+01  5.89946E+01
   5.87904E+01  5.90717E+01  5.98865E+01  6.09401E+01  6.19789E+01  6.30833E+01  6.44423E+01  6.55465E+01  6.60052E+01  6.63084E+01
   6.64248E+01  6.64392E+01  6.63063E+01  6.61070E+01  6.59612E+01  6.61601E+01  6.67236E+01  6.72695E+01  6.74430E+01  6.79147E+01
   6.88935E+01  7.03429E+01  7.22847E+01  7.45271E+01  7.66510E+01  7.86159E+01  8.07869E+01  8.33364E+01  8.63742E+01  9.01021E+01
   9.48804E+01  1.00667E+02  1.06386E+02  1.10400E+02  1.12217E+02  1.11985E+02  1.10129E+02  1.06889E+02  1.02798E+02  9.78239E+01
   9.21342E+01  8.55609E+01  7.84744E+01  7.12904E+01  6.44254E+01  5.80336E+01  5.18778E+01  4.58580E+01  3.98208E+01  3.33431E+01
