 
 $NMID
 ID=''
 FMTDAT='(2E13.5)'
 TRAMP=   1.00000E+0
 VOLUME=   1.00000E+0
 $END
   7.14792E+5   3.13787E+5
   1.49711E+6   1.41558E+6
   1.56229E+6   1.21829E+6
   1.39441E+6   1.26357E+6
   1.47084E+6   1.34323E+6
   1.49565E+6   1.23044E+6
   1.41962E+6   1.23581E+6
   1.45273E+6   1.29754E+6
   1.44273E+6   1.25090E+6
   1.36934E+6   1.27573E+6
   1.37884E+6   1.31639E+6
   1.35599E+6   1.28466E+6
   1.29606E+6   1.30627E+6
   1.29181E+6   1.33958E+6
   1.25676E+6   1.32460E+6
   1.20272E+6   1.34528E+6
   1.20190E+6   1.36860E+6
   1.18107E+6   1.35185E+6
   1.14410E+6   1.36134E+6
   1.14745E+6   1.36644E+6
   1.12434E+6   1.35227E+6
   1.09050E+6   1.36280E+6
   1.08452E+6   1.37087E+6
   1.06034E+6   1.36278E+6
   1.02309E+6   1.37231E+6
   1.01199E+6   1.37358E+6
   9.83565E+5   1.37376E+6
   9.44569E+5   1.39038E+6
   9.18771E+5   1.39369E+6
   8.93474E+5   1.38616E+6
   8.68241E+5   1.39586E+6
   8.50490E+5   1.39670E+6
   8.25240E+5   1.38847E+6
   8.05474E+5   1.38912E+6
   7.94114E+5   1.38384E+6
   7.79488E+5   1.37555E+6
   7.64504E+5   1.37635E+6
   7.49706E+5   1.37363E+6
   7.26917E+5   1.36695E+6
   7.05778E+5   1.36772E+6
   6.84957E+5   1.36535E+6
   6.60306E+5   1.36037E+6
   6.38404E+5   1.35759E+6
   6.17683E+5   1.35564E+6
   5.92150E+5   1.35243E+6
   5.69488E+5   1.35151E+6
   5.48721E+5   1.34877E+6
   5.25112E+5   1.34433E+6
   5.04659E+5   1.33679E+6
   4.88518E+5   1.32990E+6
   4.71497E+5   1.32463E+6
   4.53237E+5   1.31977E+6
   4.36033E+5   1.31314E+6
   4.18536E+5   1.30762E+6
   3.99868E+5   1.30175E+6
   3.79693E+5   1.29581E+6
   3.58255E+5   1.28914E+6
   3.38310E+5   1.28145E+6
   3.20038E+5   1.27340E+6
   3.01116E+5   1.26707E+6
   2.82060E+5   1.26085E+6
   2.63532E+5   1.25317E+6
   2.45757E+5   1.24604E+6
   2.27110E+5   1.23798E+6
   2.09197E+5   1.22815E+6
   1.93522E+5   1.21721E+6
   1.78110E+5   1.20773E+6
   1.62171E+5   1.19852E+6
   1.45937E+5   1.19026E+6
   1.29014E+5   1.18199E+6
   1.11482E+5   1.17213E+6
   9.46650E+4   1.16158E+6
   7.97074E+4   1.15227E+6
   6.32139E+4   1.14342E+6
   4.68246E+4   1.13307E+6
   3.13366E+4   1.12225E+6
   1.69072E+4   1.11231E+6
   2.30241E+3   1.10251E+6
  -1.22213E+4   1.09168E+6
  -2.63661E+4   1.08043E+6
  -4.01961E+4   1.06941E+6
  -5.33320E+4   1.05785E+6
  -6.65927E+4   1.04770E+6
  -8.07958E+4   1.03681E+6
  -9.53331E+4   1.02524E+6
  -1.08765E+5   1.01394E+6
  -1.21753E+5   1.00319E+6
  -1.35100E+5   9.92372E+5
  -1.47639E+5   9.80704E+5
  -1.59420E+5   9.69145E+5
  -1.69517E+5   9.57865E+5
  -1.79686E+5   9.47265E+5
  -1.90080E+5   9.36357E+5
  -1.99644E+5   9.25093E+5
  -2.07713E+5   9.12700E+5
  -2.14851E+5   9.01359E+5
  -2.22423E+5   8.91079E+5
  -2.30771E+5   8.80687E+5
  -2.38386E+5   8.69557E+5
  -2.45027E+5   8.58219E+5
  -2.52229E+5   8.47815E+5
  -2.60349E+5   8.37161E+5
  -2.67974E+5   8.24996E+5
  -2.74163E+5   8.12487E+5
  -2.79578E+5   8.01445E+5
  -2.84819E+5   7.91595E+5
  -2.90383E+5   7.81185E+5
  -2.96305E+5   7.69551E+5
  -3.01200E+5   7.57559E+5
  -3.04114E+5   7.46383E+5
  -3.07454E+5   7.36361E+5
  -3.12157E+5   7.25696E+5
  -3.17099E+5   7.14699E+5
  -3.20903E+5   7.03453E+5
  -3.24684E+5   6.92262E+5
  -3.29162E+5   6.81544E+5
  -3.32970E+5   6.70301E+5
  -3.36190E+5   6.58133E+5
  -3.38411E+5   6.46206E+5
  -3.40061E+5   6.36165E+5
  -3.42360E+5   6.25989E+5
  -3.45239E+5   6.15701E+5
  -3.47770E+5   6.05168E+5
  -3.49753E+5   5.94276E+5
  -3.52075E+5   5.83709E+5
  -3.53998E+5   5.72523E+5
  -3.55491E+5   5.61362E+5
  -3.57245E+5   5.50632E+5
  -3.59155E+5   5.40571E+5
  -3.61381E+5   5.29984E+5
  -3.64000E+5   5.19054E+5
  -3.66404E+5   5.07079E+5
  -3.68055E+5   4.96282E+5
  -3.69290E+5   4.85626E+5
  -3.70781E+5   4.74926E+5
  -3.72442E+5   4.64566E+5
  -3.73241E+5   4.54213E+5
  -3.74146E+5   4.44949E+5
  -3.75236E+5   4.35301E+5
  -3.76224E+5   4.25076E+5
  -3.76933E+5   4.14796E+5
  -3.76663E+5   4.04788E+5
  -3.76385E+5   3.96030E+5
  -3.76680E+5   3.87223E+5
  -3.77788E+5   3.78057E+5
  -3.78267E+5   3.68480E+5
  -3.78041E+5   3.58864E+5
  -3.77993E+5   3.49550E+5
  -3.77521E+5   3.40641E+5
  -3.76962E+5   3.32011E+5
  -3.76019E+5   3.23277E+5
  -3.75271E+5   3.15054E+5
  -3.74362E+5   3.07679E+5
  -3.73776E+5   2.99759E+5
  -3.72497E+5   2.91749E+5
  -3.71335E+5   2.84395E+5
  -3.69337E+5   2.77161E+5
  -3.68348E+5   2.70468E+5
  -3.66867E+5   2.63323E+5
  -3.65195E+5   2.56213E+5
  -3.63337E+5   2.49795E+5
  -3.61545E+5   2.42817E+5
  -3.59600E+5   2.35925E+5
  -3.57605E+5   2.29280E+5
  -3.55399E+5   2.23085E+5
  -3.53084E+5   2.17150E+5
  -3.50723E+5   2.11487E+5
  -3.49135E+5   2.05788E+5
  -3.46859E+5   1.99717E+5
  -3.44519E+5   1.94413E+5
  -3.41714E+5   1.88889E+5
  -3.39303E+5   1.83969E+5
  -3.37007E+5   1.78595E+5
  -3.34298E+5   1.73360E+5
  -3.31566E+5   1.68019E+5
  -3.29292E+5   1.63179E+5
  -3.26976E+5   1.58186E+5
  -3.24505E+5   1.52754E+5
  -3.21620E+5   1.48004E+5
  -3.18164E+5   1.43131E+5
  -3.15946E+5   1.38689E+5
  -3.13703E+5   1.34213E+5
  -3.11200E+5   1.29217E+5
  -3.07886E+5   1.24837E+5
  -3.05118E+5   1.20431E+5
  -3.02236E+5   1.15994E+5
  -2.99201E+5   1.12157E+5
  -2.95993E+5   1.08095E+5
  -2.93201E+5   1.04334E+5
  -2.90424E+5   1.00734E+5
  -2.87820E+5   9.67545E+4
  -2.85602E+5   9.23506E+4
  -2.82697E+5   8.78492E+4
  -2.79225E+5   8.40617E+4
  -2.76625E+5   8.02481E+4
  -2.73956E+5   7.63393E+4
  -2.71039E+5   7.24641E+4
  -2.68281E+5   6.87771E+4
  -2.65559E+5   6.52019E+4
  -2.62975E+5   6.09995E+4
  -2.60314E+5   5.72326E+4
  -2.56890E+5   5.36347E+4
  -2.53848E+5   5.06472E+4
  -2.51203E+5   4.71938E+4
  -2.48604E+5   4.39794E+4
  -2.45693E+5   4.03020E+4
  -2.42877E+5   3.70099E+4
  -2.40078E+5   3.37331E+4
  -2.37032E+5   3.05552E+4
  -2.34421E+5   2.74772E+4
  -2.31696E+5   2.43757E+4
  -2.28828E+5   2.15871E+4
  -2.25947E+5   1.87484E+4
  -2.23411E+5   1.58713E+4
  -2.21062E+5   1.27204E+4
  -2.17754E+5   9.84315E+3
  -2.14957E+5   7.44290E+3
  -2.11961E+5   5.13190E+3
  -2.09535E+5   2.89919E+3
  -2.06738E+5   3.99909E+2
  -2.03921E+5  -1.86930E+3
  -2.01196E+5  -4.10473E+3
  -1.98641E+5  -6.02582E+3
  -1.96107E+5  -8.40829E+3
  -1.93329E+5  -1.05272E+4
  -1.90645E+5  -1.25380E+4
  -1.87787E+5  -1.40363E+4
  -1.85505E+5  -1.55623E+4
  -1.82964E+5  -1.76836E+4
  -1.80889E+5  -1.95265E+4
  -1.77784E+5  -2.12842E+4
  -1.75059E+5  -2.25374E+4
  -1.72885E+5  -2.38897E+4
  -1.70547E+5  -2.52266E+4
  -1.67847E+5  -2.64876E+4
  -1.65799E+5  -2.77984E+4
  -1.63248E+5  -2.87466E+4
  -1.61076E+5  -3.00838E+4
  -1.58663E+5  -3.12341E+4
  -1.56204E+5  -3.22304E+4
  -1.53960E+5  -3.27176E+4
  -1.51754E+5  -3.38158E+4
  -1.49452E+5  -3.48404E+4
  -1.47054E+5  -3.61792E+4
  -1.44738E+5  -3.67958E+4
  -1.42536E+5  -3.72515E+4
  -1.40513E+5  -3.81121E+4
  -1.38224E+5  -3.90446E+4
  -1.35844E+5  -3.96957E+4
  -1.33584E+5  -4.01344E+4
  -1.31736E+5  -4.07788E+4
  -1.29933E+5  -4.15265E+4
  -1.27567E+5  -4.20140E+4
  -1.25259E+5  -4.28944E+4
  -1.23100E+5  -4.32752E+4
  -1.21272E+5  -4.35054E+4
  -1.19276E+5  -4.41544E+4
  -1.17259E+5  -4.47071E+4
  -1.14972E+5  -4.53819E+4
  -1.13234E+5  -4.61347E+4
  -1.11415E+5  -4.67062E+4
  -1.09135E+5  -4.71927E+4
  -1.06753E+5  -4.75871E+4
  -1.04721E+5  -4.79698E+4
  -1.02934E+5  -4.81164E+4
  -1.01206E+5  -4.85853E+4
  -9.92303E+4  -4.93619E+4
  -9.72222E+4  -4.98217E+4
  -9.51522E+4  -4.97558E+4
  -9.35310E+4  -4.99869E+4
  -9.16992E+4  -5.04624E+4
  -8.99725E+4  -5.06692E+4
  -8.81222E+4  -5.07711E+4
  -8.64997E+4  -5.12687E+4
  -8.47567E+4  -5.16322E+4
  -8.28896E+4  -5.20720E+4
  -8.11318E+4  -5.22737E+4
  -7.93233E+4  -5.25246E+4
  -7.77368E+4  -5.24027E+4
  -7.62288E+4  -5.30238E+4
  -7.43316E+4  -5.28842E+4
  -7.31118E+4  -5.30853E+4
  -7.14096E+4  -5.32495E+4
  -7.00051E+4  -5.32335E+4
  -6.84062E+4  -5.35944E+4
  -6.69508E+4  -5.36177E+4
  -6.51805E+4  -5.32496E+4
  -6.38359E+4  -5.32136E+4
  -6.25275E+4  -5.32047E+4
  -6.13525E+4  -5.32001E+4
  -6.01121E+4  -5.32881E+4
  -5.83787E+4  -5.35147E+4
  -5.73594E+4  -5.32006E+4
  -5.60224E+4  -5.32300E+4
  -5.47338E+4  -5.32047E+4
  -5.34572E+4  -5.29485E+4
  -5.24162E+4  -5.27557E+4
  -5.11347E+4  -5.28446E+4
  -5.01603E+4  -5.26141E+4
  -4.86488E+4  -5.26155E+4
  -4.74246E+4  -5.26123E+4
  -4.63736E+4  -5.20677E+4
  -4.53639E+4  -5.19861E+4
  -4.41851E+4  -5.18897E+4
  -4.31618E+4  -5.17839E+4
  -4.19745E+4  -5.13615E+4
  -4.08448E+4  -5.10768E+4
  -4.01765E+4  -5.07860E+4
  -3.89637E+4  -5.06437E+4
  -3.78768E+4  -5.02844E+4
  -3.67284E+4  -5.01754E+4
  -3.62505E+4  -4.98401E+4
  -3.49549E+4  -4.96382E+4
  -3.39749E+4  -4.95736E+4
  -3.29630E+4  -4.91432E+4
  -3.19408E+4  -4.86895E+4
  -3.12902E+4  -4.82319E+4
  -3.03722E+4  -4.78793E+4
  -2.93184E+4  -4.76874E+4
  -2.86014E+4  -4.75573E+4
  -2.78121E+4  -4.74305E+4
  -2.67904E+4  -4.68875E+4
  -2.60588E+4  -4.66908E+4
  -2.52505E+4  -4.63405E+4
  -2.43588E+4  -4.56084E+4
  -2.39564E+4  -4.56162E+4
  -2.30076E+4  -4.54372E+4
  -2.20559E+4  -4.51383E+4
  -2.10586E+4  -4.47739E+4
  -2.05625E+4  -4.42814E+4
  -2.00233E+4  -4.39932E+4
  -1.92472E+4  -4.38377E+4
  -1.85735E+4  -4.34684E+4
  -1.79295E+4  -4.27730E+4
  -1.73699E+4  -4.25058E+4
  -1.67218E+4  -4.23067E+4
  -1.57264E+4  -4.20496E+4
  -1.48567E+4  -4.18122E+4
  -1.42486E+4  -4.11379E+4
  -1.37393E+4  -4.10947E+4
  -1.33011E+4  -4.08134E+4
  -1.26059E+4  -4.03860E+4
  -1.20339E+4  -3.98467E+4
  -1.11722E+4  -3.95980E+4
  -1.08420E+4  -3.95331E+4
  -1.02802E+4  -3.93849E+4
  -9.61031E+3  -3.87190E+4
  -9.23753E+3  -3.84203E+4
  -8.57506E+3  -3.80304E+4
  -8.23850E+3  -3.78681E+4
  -7.52165E+3  -3.76433E+4
  -7.12348E+3  -3.72329E+4
  -6.33561E+3  -3.68883E+4
  -5.97740E+3  -3.61952E+4
  -5.87382E+3  -3.63374E+4
  -5.29221E+3  -3.58826E+4
  -4.86020E+3  -3.54875E+4
  -4.25949E+3  -3.50362E+4
  -3.96607E+3  -3.49552E+4
  -3.44614E+3  -3.45119E+4
  -3.08106E+3  -3.40269E+4
  -2.62638E+3  -3.36481E+4
  -2.65911E+3  -3.34222E+4
  -2.29772E+3  -3.30651E+4
  -1.85696E+3  -3.27407E+4
  -1.48797E+3  -3.25186E+4
  -1.29586E+3  -3.20507E+4
