 
 $NMID
 ID=''
 FMTDAT='(2E13.5)'
 TRAMP=   1.00000E+0
 VOLUME=   1.00000E+0
 $END
   6.15836E+3  -6.78187E+3
   2.33809E+3  -5.40235E+1
  -1.91618E+3   2.38358E+3
   5.01062E+3  -3.44354E+3
   2.06002E+3   8.16361E+2
  -2.63220E+3   5.10885E+3
  -1.19760E+3  -1.65754E+3
   8.06746E+2  -3.73119E+3
   3.22044E+3   2.20335E+3
   1.88516E+3   3.31849E+3
  -4.28999E+3   9.96188E+2
  -2.63163E+3  -6.36735E+2
   2.88309E+3  -9.92422E+2
   5.25981E+2   1.47899E+3
  -3.26477E+3   4.77783E+2
  -1.40278E+3  -3.06125E+3
   6.78335E+2  -5.42213E+2
   6.68233E+1   1.69061E+3
   2.12612E+2  -2.33325E+3
   2.20010E+3  -1.84949E+3
   7.39240E+2   2.33840E+3
  -2.05748E+3   1.33798E+2
   5.20802E+2  -2.17336E+3
   3.51237E+3   2.41979E+3
  -1.60886E+3   3.05016E+3
  -3.63690E+3  -2.66610E+3
   2.31944E+3  -2.61036E+3
   2.59137E+3   3.59433E+3
  -2.93595E+3   3.00070E+3
  -1.30908E+3  -2.74310E+3
   2.68117E+3  -1.78941E+3
   5.72218E+2   2.62923E+3
  -2.31440E+3   5.53741E+2
  -3.72417E+2  -2.23730E+3
   1.26627E+3   5.04098E+2
  -5.64233E+2   7.43742E+2
  -8.37468E+2  -2.37885E+3
   1.52773E+3  -1.72529E+3
   1.74914E+3   1.59359E+3
  -6.87252E+2   1.32268E+3
  -5.41790E+2  -7.56284E+2
   1.07558E+3   5.20604E+1
  -5.72781E+2   1.49816E+3
  -2.36782E+3   2.36877E+2
  -1.21921E+3  -1.98157E+3
   1.56216E+3  -1.08605E+3
   1.63313E+3   1.30541E+3
  -3.14270E+2   1.32780E+3
  -8.70853E+2  -1.14379E+2
   4.58811E+2   5.77626E+2
  -2.00963E+2   1.19012E+3
  -1.46845E+3  -5.11279E+2
   1.06458E+2  -1.59630E+3
   1.18055E+3  -9.97896E+1
   8.20135E+0   6.13326E+2
  -1.44772E+2  -8.66969E+2
   1.01159E+3  -3.33566E+2
   3.19514E+2   1.59009E+3
  -1.54255E+3   9.41371E+2
  -1.31131E+3  -9.21357E+2
   2.06116E+2  -4.16974E+2
   2.23702E+2   1.15277E+2
  -4.43446E+2  -6.98652E+2
   3.79241E+2  -6.95125E+2
   7.06247E+2   4.51574E+2
   3.11818E+2   1.19648E+3
  -5.65112E+1   6.14367E+2
  -4.23118E+2   2.20869E+2
  -6.33717E+2   2.26740E+2
  -3.79022E+2  -3.89829E+2
   2.30401E+2  -7.82102E+2
   3.07289E+2  -1.96039E+2
  -1.03232E+2  -2.79894E+1
   1.76401E+2  -7.74005E+2
   5.70485E+2  -4.03759E+2
   4.72981E+2   5.11590E+2
  -1.23838E+2   7.10851E+2
  -6.16988E+2  -1.97272E+2
  -9.43420E+1  -7.65892E+2
  -2.09114E+2   2.03877E+1
   1.31374E+1   1.00526E+2
   2.62066E+2  -4.41441E+2
   2.27183E+2  -2.89941E+2
   2.60929E+1   3.55277E+2
  -4.00947E+2   4.86418E+1
   3.35778E+2  -1.43471E+2
   1.29029E+2   2.68112E+2
  -1.84574E+2   1.23945E+2
  -3.33761E+2  -3.37838E+2
   2.59736E+2  -5.91735E+2
   3.23340E+2   2.84613E+2
  -2.55636E+2   3.75346E+2
  -4.44620E+1  -4.88434E+2
   2.77819E+2  -2.46588E+2
   2.29069E+2   3.02203E+2
  -2.24485E+2   9.18098E+1
  -1.74102E+2  -2.00755E+1
   3.69429E+2  -1.25496E+2
  -1.37425E+2   2.23745E+1
  -1.23933E+2   7.62152E+1
   4.83515E+1  -1.29619E+2
  -3.38467E+1  -1.20611E+2
  -3.46860E+2  -1.55792E+0
  -1.50976E+2  -1.31658E+2
   3.38786E+1   9.37092E+1
   1.85705E+1   4.31623E+1
  -6.27958E+1  -1.66925E+2
   1.08947E+2  -4.43679E+2
   4.38668E+2  -2.13843E+2
   1.29199E+2   3.96555E+2
  -1.58438E+2   3.24890E+2
  -1.50760E+2  -1.10889E+2
  -5.56823E+1  -9.57205E+1
  -1.35848E+2  -6.85333E+0
  -3.69968E+2   6.78964E+1
  -1.59035E+2  -3.81058E+2
  -7.07565E+1  -1.38315E+2
  -1.08150E+1  -1.33261E+2
   7.48842E+1  -1.38320E+2
   1.35754E+2   6.37488E+1
   5.58091E+1   2.27399E+2
  -3.26260E+2   1.77457E+2
   4.40609E+1  -2.70041E+2
  -3.53343E+1  -1.36937E+2
  -1.46810E+2   2.10767E+0
   2.09023E+2   1.97865E+1
   2.47771E+2   2.77349E+1
   2.86604E+2   1.35201E+2
  -1.40769E+2  -2.64111E+1
  -4.50348E+1   3.98074E+1
   9.16188E+1   2.69684E+2
   1.84263E+2  -6.11485E+1
  -1.10259E+2  -1.48405E+2
   8.37792E+1  -1.25406E+2
   3.27078E+1  -2.20780E+0
  -1.16306E+0   1.52363E+2
  -1.44266E+1   4.79459E+1
   2.54310E+1  -1.37502E+2
  -2.58216E+1   1.63189E+2
  -2.92260E+2   8.43629E+1
  -3.25869E+2   4.15023E+0
  -3.08222E+1  -3.17829E+2
   3.33761E+2  -2.10363E+2
   1.78308E+2   5.31467E+1
   2.83270E+1   8.55337E+1
   8.35524E+1   7.39042E+1
  -1.60222E+1   3.29628E+1
   5.11990E+1  -1.11020E+2
   7.30981E+1  -1.56910E+2
  -2.80828E-1  -1.97546E-1
  -6.87176E+1   1.35964E+2
   9.12510E+1  -2.02300E+2
   2.76696E+2  -2.05595E+1
   2.20057E+2   1.06982E+2
  -7.47294E+1   2.48234E+1
  -2.85695E+2  -1.49566E+2
   1.60543E+2   2.50715E+1
   2.68168E+2   1.06641E+2
  -5.63722E+1  -2.17121E+1
   8.65790E+0   4.32787E+1
  -2.28867E+1   5.68109E+1
   1.12128E+2  -1.83777E+2
   1.35375E+1  -1.90135E+2
  -1.59508E+1  -2.03817E+1
  -1.13156E+2  -3.13947E+2
  -2.25293E+1  -1.65586E+2
  -9.79912E+1   1.06711E+2
  -1.28725E+2   9.50263E+1
  -1.79478E+2  -1.12724E+1
  -2.75268E+2  -1.87819E+1
   2.46141E+1  -9.32437E+1
  -7.87839E+1   1.72718E+2
  -3.65794E+1  -1.79571E+2
  -2.09888E+2  -1.31639E+2
  -1.68302E+2  -2.45880E+2
   1.28515E+2   6.37496E+1
  -6.67308E+1  -4.25748E+1
  -1.80022E+1  -3.21460E+1
   1.40205E+2  -1.03996E+2
   4.86196E+1   2.79916E+1
   2.50399E+2   1.76231E+2
  -1.41029E+2   3.30426E+2
   8.94566E+1   6.91624E+1
  -2.04407E+2   2.37638E+2
  -6.22901E+1   6.28588E-2
  -1.87513E+2  -1.14438E+1
  -8.63393E+0   1.35824E+2
   7.42442E+1   2.57122E+1
   1.63564E+1  -9.49533E+0
   8.22845E+1  -2.20334E+2
   1.25322E+2   1.77657E+1
  -5.15007E+1   1.37719E+2
  -7.70871E+1   2.94808E+1
  -2.25403E+1   2.04209E+2
   5.25085E+1   2.50601E+2
  -8.17691E+1   7.70958E+1
  -1.87086E+2  -6.49580E+1
   3.70372E+2  -1.13032E+2
   2.69879E+2  -1.32237E+2
   3.93217E+1   2.24134E+2
   3.58777E+1   3.26683E+2
   3.59163E+1   1.10429E+2
   3.16624E+2  -1.35389E+2
   1.60237E+2   3.04801E+2
   1.86327E+2   2.12299E+2
   9.93851E+1   2.59352E+1
   2.04572E+2   8.89336E+1
  -8.59547E+1  -2.51126E+1
   4.76124E+1   1.69850E+2
   1.42375E+1   1.11405E+2
   6.09417E+1   2.08053E+2
   1.11466E+2   9.18405E+1
   1.88297E+2  -1.04772E+2
   1.94521E+2   1.52125E+2
   1.02432E+2   7.89416E+1
  -2.01044E+2   7.39059E-1
   3.16966E+1   2.48172E+1
  -9.49153E+1   1.14519E+2
   7.77422E+1   1.58947E+2
   1.56838E+2   7.28414E+1
   1.50088E+2   2.16037E+2
   1.81168E+2   2.88989E+2
   2.70942E+2   3.24412E+2
  -4.28512E+1   2.82236E+2
  -1.16708E+2  -7.56529E+1
  -1.48991E+2   1.56685E+2
   2.24773E+2  -1.62885E+2
   1.03640E+2   9.55474E+0
   1.29897E+2   9.35442E+1
  -2.45776E+1  -3.45901E+1
   1.52500E+2  -2.60175E+0
   2.05588E+2   9.32704E+1
   6.48858E+1   4.54603E+1
   3.50687E+1  -3.64480E+2
   2.07595E+2  -1.86464E+1
  -1.36827E+2  -2.88766E+1
   2.05458E+2  -3.58562E+1
   1.42996E+2  -2.33628E+1
   2.72219E+2  -9.97367E+1
   1.50149E+2  -1.16416E+2
   6.95568E+1  -1.35279E+2
  -9.89297E+0   4.81613E+1
   4.11020E+1   1.02825E+2
  -1.35707E+2  -6.72489E+1
   1.28632E+2  -1.44573E+1
   1.77823E+2  -5.99261E+1
   1.43941E+2   9.28070E+1
  -7.76824E-1  -2.91200E+2
   1.29295E+0  -2.57769E+2
   1.54575E+2  -1.42231E+2
   3.48023E+2  -1.71556E+2
   1.11392E+2  -2.76798E+1
  -2.23169E+2   2.07770E+2
  -1.03974E+2   1.50676E+1
   4.12743E+1  -1.39238E+2
   1.77475E+2  -6.19412E+0
   1.53174E+2  -6.34062E+1
   1.31461E+2   1.52910E+2
   4.32268E+1  -1.52183E+2
   8.05558E+1  -5.93870E+1
  -1.59219E+2   8.53321E+1
  -1.22960E+2  -6.37086E+1
  -7.13721E+0  -1.06065E+2
   8.11949E-1  -3.11923E+2
   1.48308E+2  -6.74432E+1
   7.04131E+0  -8.37748E+1
  -1.00934E+2   1.44669E+2
  -2.03849E+2   8.58651E+1
  -1.17752E+2   7.23487E+1
   8.52472E+1   1.38614E+2
  -1.40256E+2  -1.64108E+2
  -6.91735E+1   2.28805E+1
  -3.09511E+2  -6.14107E+1
   8.52996E+1   9.40308E+0
   6.71780E+1   1.04449E+2
  -8.37373E+1   2.64036E+2
  -1.74981E+2   1.73380E+2
   5.14580E+1  -2.50784E+2
   1.00654E+2  -2.01823E+2
   1.18160E+2  -3.47954E+1
   1.11361E+2  -5.17854E+1
  -5.88321E+0  -5.49013E+1
   4.34553E+1  -9.60358E+0
   5.23358E+1   4.19562E+2
  -1.26004E+2   6.39586E+1
  -2.34267E+2   1.68678E+2
  -1.79716E+1  -3.01480E+1
  -1.04976E+2  -2.71163E+1
   4.06826E+2  -9.26229E+0
   2.85748E+2   7.92474E+1
  -1.96546E+1   9.18285E+0
   2.87421E+2  -2.30633E+2
   3.39763E+2   3.20553E+1
   1.41328E+2  -1.65746E+2
  -1.68658E+2  -1.42454E+2
  -4.03807E+1   8.33846E+1
   9.93661E+1   4.48132E+1
   4.79528E+1   1.76981E+2
   1.84604E+2   2.59083E+1
  -9.41542E+1   8.94970E+1
   2.35632E+2  -9.09283E+1
   3.29715E+2  -1.30749E+2
   1.77238E+1   1.93289E+2
   1.56652E+2   7.60331E+1
   5.50358E+1   9.46909E+1
  -1.39001E+2   1.49886E+2
   1.10920E+2  -2.30378E+2
   1.54192E+1   9.11661E+1
   2.19031E+2  -1.39755E+2
   1.76137E+2  -7.48588E+0
  -8.01861E+0  -5.30595E+1
  -1.81122E+1   3.68740E+0
   3.21061E+2  -9.61183E+1
   1.25981E+2   3.05685E+1
  -1.26468E+2  -9.76389E+1
   8.90813E+1  -8.32993E+1
   4.69204E+1  -1.68141E+2
   1.85379E+2   9.32602E+1
   1.67321E+1  -4.20651E+1
  -9.61914E+0   4.53836E+1
   5.83374E+0  -8.18739E+1
  -7.29892E+1   5.85468E+1
   1.14370E+2   3.25785E+1
   4.81864E+1   4.75418E+1
   1.67352E+2  -6.23329E+1
   5.82909E+1  -7.66042E+1
   5.11931E+1   1.20329E+2
  -1.82551E+2   1.94176E+2
  -1.82107E+2  -5.93700E+1
  -2.05886E+2   9.65837E+1
  -1.44758E+1   2.33764E+2
  -1.11433E+2  -5.30314E+1
   1.16531E+1  -8.80204E+0
   4.01343E+1  -4.50051E+1
   2.12955E+2   1.66582E+2
   1.96955E+2   8.44102E+1
  -1.16667E+2   1.11961E+2
  -4.05974E+1  -2.87444E+2
   6.10894E+1  -9.12755E+1
   5.39984E+1  -7.42844E+1
  -2.23655E+1   7.30701E+1
   1.79080E+1  -1.62288E+2
  -4.27708E+1   5.21066E+1
  -1.96982E+2  -6.83691E+1
  -2.67238E+2   1.23035E+2
  -1.13519E+1   1.93300E+1
  -2.08758E+2   1.98258E+1
   9.95548E-1  -3.33111E+1
  -5.73997E+1  -3.10665E+1
   1.56699E+2  -9.26749E+1
  -2.76148E+2   1.08764E+2
  -8.80814E+1   1.13004E+2
  -7.54251E+1   2.65752E+1
  -2.16016E+1   3.22510E+1
   1.89404E+1   1.02101E+2
  -5.33086E+1  -3.20975E+2
   5.47498E+1   1.75080E+2
   6.86051E+1   3.01823E+1
   4.93453E+1   2.01831E+2
  -8.01292E+1   7.45546E+1
  -7.63945E+1   9.69053E+1
  -1.08399E+2   2.61633E+1
   3.51911E+1  -1.59580E+1
   1.58120E+2  -1.24548E+2
   1.61546E+2   1.83971E+2
  -1.66078E+2   2.10864E+2
   8.79866E+1   1.45460E+2
