 
 $NMID
 ID=''
 FMTDAT='(2E13.5)'
 TRAMP=   1.00000E+0
 VOLUME=   1.00000E+0
 $END
   1.27473E+4   1.30366E+4
   2.90466E+4   5.17550E+3
   1.19310E+4  -3.12155E+4
  -2.71118E+4  -1.04486E+4
  -1.57810E+4   3.11215E+4
   2.42499E+4   1.45433E+4
   1.94635E+4  -2.25102E+4
  -1.42172E+4  -1.50012E+4
  -1.67258E+4   1.46935E+4
   5.70152E+3   1.89209E+4
   1.34754E+4  -1.13742E+3
  -1.24748E+2  -1.30758E+4
  -1.05958E+4  -1.38216E+3
  -5.02803E+3   9.88604E+3
   4.56064E+3   1.71640E+3
   5.09100E+3  -6.46217E+3
  -4.61350E+2  -1.98246E+3
  -3.73120E+3   3.08907E+3
  -8.93363E+2   2.23042E+3
   3.47218E+3   1.26606E+1
   1.86082E+3  -1.89483E+3
  -1.22723E+3  -1.59695E+3
  -2.40785E+2   1.48020E+3
   1.86575E+2   1.76844E+3
   3.00727E+2  -6.54437E+2
   1.98626E+3  -1.14910E+3
   7.19789E+2   1.33145E+3
  -2.32140E+3   1.32165E+3
  -8.74981E+2  -6.32338E+2
   1.60766E+3  -3.48877E+2
   1.86988E+2   5.55596E+2
  -1.49353E+3  -7.68683E+0
  -7.35132E+2  -6.70295E+2
  -2.68873E+2  -8.33881E+2
   4.55437E+2  -1.67827E+3
   1.82226E+3  -1.07200E+3
   9.18901E+2   1.42676E+3
  -7.62406E+2   1.39220E+3
  -3.51642E+2  -7.46634E+2
   4.51045E+2  -5.68857E+2
  -8.07062E+2   4.88770E+2
  -9.28659E+2  -8.60511E+2
   1.04186E+3  -1.12851E+3
   1.68194E+3   6.88865E+1
   6.02906E+2   8.43291E+2
  -1.59058E+2   9.07541E+2
  -5.33209E+2   9.98655E+2
  -1.09139E+3  -1.60531E+2
  -9.79480E+2  -1.53212E+3
   2.16133E+2  -1.52667E+3
   6.87210E+2  -5.62954E+2
   7.28184E+2  -3.56983E+2
   5.01422E+2  -3.49672E+2
   2.21652E+2   2.46346E+2
   1.38191E+2   5.61434E+2
  -2.60148E+2   2.06314E+2
  -8.13654E+2  -6.60235E+2
  -3.59175E+2  -1.48144E+3
   1.22623E+3  -9.82458E+2
   1.31181E+3   3.54298E+2
   2.77273E+2   6.25541E+2
  -4.29478E+2   4.98300E+2
  -3.39133E+2   8.96776E+2
  -7.81081E+2   7.14103E+2
  -1.55322E+3  -8.12472E+2
  -7.95684E+2  -1.86539E+3
   7.04819E+2  -1.22193E+3
   1.21824E+3  -1.87433E+2
   8.57209E+2   6.08197E+2
  -3.39719E+2   4.06568E+2
  -1.27555E+2  -3.82230E+2
   6.65576E+2  -1.33764E+2
   6.62222E+2   5.73925E+2
  -1.67853E+2   4.61727E+2
  -5.87082E+2   8.54934E+1
  -9.04335E+1  -3.29448E+1
  -1.30956E+2   1.59006E+2
  -1.17568E+2   3.78637E+2
  -4.70124E+2   1.51590E+2
  -6.95423E+2  -3.51064E+2
  -5.39874E+2  -5.22970E+2
   3.58922E+2  -6.76352E+2
   6.42225E+2  -1.32707E+2
  -7.42496E+1   6.93360E+1
  -1.37274E+2  -2.66397E+2
   5.17077E+2  -3.68044E+2
   7.05444E+2   5.72559E+2
  -2.13184E+2   5.49782E+2
  -3.12634E+2   1.58638E+2
   2.06523E+2  -8.51143E+1
   6.01131E+2   5.51455E+2
  -3.65700E+2   7.15359E+2
  -5.78999E+2   4.15169E+2
  -7.39534E+2  -1.04426E+2
  -1.45910E+2  -7.82533E+2
   3.82270E+2  -6.28803E+2
   4.43479E+2  -7.51666E+1
  -2.77520E+2   1.15065E+2
  -9.36193E+1  -1.78566E+2
   4.50571E+2  -2.66573E+2
   3.17833E+2   4.82208E+2
  -5.16637E+2   6.55797E+2
  -1.05472E+3  -2.59263E+2
   3.16468E+2  -5.68360E+2
   6.42041E+2  -1.73034E+2
   6.88119E+0   5.43407E+2
  -3.69014E+2   3.11024E+2
  -6.29865E+2  -5.98028E+2
  -2.43850E+2  -9.79914E+2
   7.98267E+2  -2.73872E+2
   2.57538E+2   3.80735E+2
   5.13304E+1   7.43581E+2
  -4.38682E+2   5.10969E+2
  -3.65173E+2   3.64585E+2
  -1.22849E+2   3.09567E+1
  -3.75471E+2   1.94228E+2
  -8.10583E+2  -2.45142E+2
  -3.96629E+2  -8.82332E+2
   6.30267E+2  -7.38509E+2
   8.90372E+2  -1.08113E+2
   4.89909E+2   5.29497E+2
   1.07888E+2   5.98158E+2
   1.55893E+2   2.34959E+2
  -3.09496E+2   3.05337E+2
  -4.57372E+2  -2.69712E+1
  -3.52953E+2  -2.58571E+1
   6.16213E+1  -1.70185E+2
   3.95371E+2  -2.80221E+1
  -9.75522E+1   2.14632E+2
  -7.05717E+1   4.93453E+2
  -4.16867E+2   5.27239E+1
  -3.97523E+2  -2.28569E+2
  -5.17406E+1  -3.12996E+2
   3.26750E+2   5.24810E+1
  -1.58540E+2   5.72905E+1
   1.04767E+2  -2.11380E+2
   1.25832E+2  -1.18538E+1
   2.48423E+2   4.90557E+2
  -2.30141E+2   2.88548E+2
  -7.07554E+2  -4.39471E+1
  -3.55357E+2  -3.97799E+2
   3.70483E+2  -5.02565E+2
   4.62611E+2   2.42834E+2
   5.64491E+1   5.66740E+2
  -4.87604E+2   2.50605E+2
  -5.85468E+2  -2.57534E+2
  -2.36173E+2  -1.94662E+2
  -2.12146E+2  -2.34180E+2
  -4.41579E+1  -4.46149E+2
  -1.27404E+2  -3.86057E+2
   6.23885E+1  -3.43055E+2
   5.34941E+2   6.02148E+0
   2.47487E+2   5.10091E+2
  -2.86457E+2   2.51018E+2
  -3.85667E+2   3.95145E+1
  -1.97535E+2  -4.53793E+2
  -3.02627E+2   7.30979E+1
  -4.13702E+2   2.93987E+2
  -3.55987E+2  -3.24001E+1
  -1.77670E+2  -2.27423E+2
  -1.48099E+2   1.93891E+2
  -4.66731E+2   1.95793E+2
  -2.04548E+2  -1.73939E+2
   9.53597E+1  -2.62926E+2
   1.36348E+2  -9.05841E+1
   7.54776E+1   3.22097E+2
   3.77865E+1   1.93637E+2
  -1.69924E+2   1.70538E+2
  -3.07387E+2  -1.17619E+2
   3.12930E+0  -1.04120E+2
  -3.28467E+1  -5.45794E+1
  -1.57096E+2   1.78052E+2
  -3.60414E+2  -3.18880E+1
  -1.32316E+2   3.91210E+1
  -1.97884E+1  -1.09971E+2
  -7.65301E+1   2.42879E+2
  -2.77778E+2   2.26860E+2
  -3.78030E+2  -1.50242E+2
   2.55795E+2  -1.02299E+2
   1.85141E+2   1.12250E+2
   7.34081E+1   3.55096E+2
  -5.19187E+2   2.46577E+2
  -2.99388E+2  -2.24752E+2
  -1.81171E+2  -2.01575E+2
  -1.29679E+2  -5.60861E+0
   1.15763E+2   1.04590E+2
   1.83859E+2  -1.10467E+1
   1.76420E+2   6.10426E+1
   3.41287E+2   2.96631E+2
  -1.77287E+2   7.49966E+2
  -5.38737E+2   5.02314E+2
  -5.37698E+2   1.79424E+1
  -3.01877E+1  -1.48963E+2
   1.48765E+2  -1.42326E+2
   2.73369E+2   8.46323E+1
   1.21541E+2   1.32687E+2
  -1.69498E+2   1.96890E+2
  -1.22777E+2   1.93675E+2
  -3.25798E+2   6.12237E+1
  -1.59671E+2   5.56973E+1
  -1.57782E+2  -8.09531E+1
   1.79849E+2  -3.23842E+2
   4.42492E+2   1.23097E+1
   5.63095E+1   6.24549E+1
   1.38576E+1   8.13133E+1
  -9.34120E+1   1.17681E+2
   1.05022E+2  -1.68917E+2
   1.14149E+1   2.64463E+1
   1.15483E+2  -4.97072E+1
  -1.73733E+2  -3.39877E+1
  -1.03136E+2  -3.26420E+0
   9.70739E+1   1.18546E+2
   3.98006E+1   2.44878E+2
  -5.85346E+2   3.71180E+2
  -6.64233E+2  -1.38782E+2
  -1.52555E+2  -4.15031E+2
   1.24452E+2  -3.68418E+2
   1.67750E+2  -4.17749E+1
   8.12146E+1  -4.50869E+1
  -7.87035E+1  -2.93625E+2
  -3.56097E+1  -7.71388E+0
   3.54377E+1   7.75868E+1
  -3.57846E+2  -2.36403E+1
  -2.80014E+2   1.33169E+2
  -2.53546E+2  -4.14335E+2
  -1.10518E+2  -2.31899E+2
   1.15166E+2   1.67791E+2
  -1.72638E+2   2.48556E+2
  -5.48688E+1   1.14569E+2
  -1.76025E+2  -1.82648E+2
  -5.20790E+1  -3.63795E+2
   2.85980E+2  -7.58294E+1
  -9.09301E+1   3.05471E+1
  -1.48067E+2   2.60144E+2
   1.22224E+2  -6.83501E+1
  -2.06338E+2  -2.58118E+2
   6.64455E+1  -6.60200E+1
  -2.09400E+2  -1.50397E+2
  -2.91253E+0  -3.32361E+2
   1.45104E+2   1.76856E+2
   3.68083E+1  -1.36810E+2
   2.80485E+1   1.82340E+2
  -1.18682E+2  -1.46085E+2
  -3.05688E+2  -8.58495E+1
  -3.00614E+1   5.69488E+1
   1.80373E+2   1.23944E+2
  -2.27933E+2   3.59389E+0
  -9.05463E+1  -1.15108E+2
   1.32290E+1  -1.88019E+2
  -5.28554E+0   8.58609E+1
  -2.77496E+0  -7.90514E+1
  -2.15298E+2   1.76389E+2
  -4.37894E+1  -4.10934E+2
  -4.78454E+1  -2.86783E+2
   1.01961E+2   1.16828E+2
  -2.34124E+1   6.77292E+1
   9.81421E+1   1.94675E+2
  -5.01435E+1   4.77314E+1
  -2.55250E+2   5.09616E+1
  -2.37681E+2   7.37602E+1
  -1.13878E+2   1.08847E+2
  -4.44129E+1  -6.28325E+1
  -2.75211E+1  -2.76948E+2
   7.96742E+1   1.13654E+2
   1.66160E+2   1.33636E+2
   3.00189E+1  -1.69890E+1
  -4.75240E+1  -1.23607E+2
  -2.15096E+2  -6.98033E+1
   5.33508E+1   1.42536E+2
   1.55794E+2   1.06950E+2
  -3.70768E+1   7.63149E+1
   1.50458E+2   2.08506E+2
  -1.19161E+2  -8.37880E+1
  -1.09538E+2   1.44497E+2
   5.48830E+1  -6.92991E+0
   9.89097E-1   1.11535E+1
  -4.05618E+1   7.09901E+1
  -4.52573E+1   1.23963E+2
   3.61992E+1   8.31678E+1
  -1.79967E+2   1.66667E+2
  -2.02931E+2   9.32674E+1
  -5.94555E+1   3.63645E+1
   1.87513E+1   2.42074E+1
  -1.36148E+2   4.74405E+1
  -1.60535E+2  -9.36760E+1
  -1.41179E+2   3.02168E+0
  -6.97711E+1   1.18721E+1
   2.05267E+2   3.90195E+1
  -7.47648E+1   2.25732E+2
  -1.38349E+1   1.40265E+2
  -1.83290E+2   9.08488E+1
  -1.13969E+1  -2.96697E+2
   8.31763E+1   3.37679E+2
  -6.60722E+1   5.10166E+1
  -2.14322E+1  -2.89119E+2
   1.58151E+2   2.41741E+2
   5.33369E+1   1.46384E+2
   1.85729E+2   1.28475E+2
   5.01731E+1   5.51538E+1
  -7.01196E+1   5.42793E+1
  -2.63001E+1  -1.83899E+2
  -2.31528E+2   1.77630E+2
   2.07231E+1   2.13692E+2
  -1.68066E+2   9.16181E+1
  -1.54128E+2  -1.49007E+2
   1.04351E+2  -1.27100E+2
   3.30166E+0   2.33377E+2
   4.68015E+1   1.83269E+1
  -2.51720E+2  -4.93458E+0
   5.19346E+1  -4.23609E+1
   1.90305E+2   2.27768E+2
  -1.41223E+1  -1.41295E+1
  -3.63451E+0  -1.18484E+2
  -6.97887E+1  -6.27489E+1
  -5.79942E+1  -2.61672E+2
  -1.85007E+2  -5.58925E+1
   8.27588E+1  -7.74129E+1
  -3.30357E+2   1.69461E+2
  -1.61122E+2  -2.10466E+2
  -2.37425E+2   1.22026E+2
  -5.16384E+1   1.10134E+2
  -1.56021E+2   9.14095E+1
  -2.12557E+2  -4.29080E+1
  -8.08436E+1   3.84130E+1
  -1.46317E+2   3.85886E+1
  -1.68302E+2   3.17637E+2
  -1.28843E+2   7.51318E+1
  -1.64917E+2   4.97801E+1
   3.49745E+1  -2.05886E+2
  -5.07478E+1   2.44717E+1
   2.35746E+1  -9.08831E+0
  -2.26870E+1   1.53774E+1
   1.21834E+2   1.44250E+2
  -2.32273E+2   3.13921E+1
   3.34435E+1   4.66248E+1
  -5.13718E+1   1.48390E+2
  -6.33261E+1  -1.63436E+2
   2.97066E+1  -4.95835E+1
  -1.88074E+1   7.30626E+1
  -2.50252E+1   3.14247E+1
  -1.02590E+2   2.48580E+2
  -2.24628E+2   3.93893E+2
  -1.46533E+2   1.54398E+2
  -1.64444E+1   4.71499E+1
  -1.12492E+2   4.36598E+1
  -2.25926E+2   1.06062E+2
  -1.67191E+2   1.33319E+1
   2.51319E+1   2.38121E+1
   1.37379E+2   1.75842E+2
  -2.07262E+2  -1.03392E+2
   5.31005E+1  -1.20166E+2
  -2.33520E+1   1.77880E+1
   7.58976E+0   1.18126E+2
  -1.03943E+1   2.28926E+1
   1.09095E+2   1.72772E+2
  -1.62444E+1   7.42326E+1
   1.81321E+1  -2.21346E+1
   1.36693E+2   1.17576E+2
  -1.05395E+2  -1.39911E+2
  -1.00624E+2   1.31468E+2
  -1.00071E+2  -2.13913E+2
   1.83228E+2   7.80724E+1
   6.28433E+1  -1.97438E+2
   1.03541E+2   2.32582E+2
   5.77993E+1   1.39191E+2
  -4.10592E+1   9.32251E+1
   1.33249E+2  -1.18637E+2
