 
 $NMID
 ID=''
 FMTDAT='(2E13.5)'
 TRAMP=   1.00000E+0
 VOLUME=   1.00000E+0
 $END
  -9.48019E+3  -1.28216E+4
  -1.12943E+4   9.27759E+3
   1.14438E+4   3.67477E+3
   5.36613E+3  -1.50697E+4
  -1.12601E+4   2.25264E+3
   1.42284E+3   1.12015E+4
   7.08777E+3  -8.53418E+3
  -6.26427E+3  -5.94064E+3
  -1.27840E+3   7.24808E+3
   8.38502E+3  -1.32473E+3
  -6.43871E+2  -3.67841E+3
  -3.46303E+3   5.62313E+3
   2.49792E+3   9.49890E+2
   1.08521E+3  -1.67428E+3
  -2.10003E+3   4.31613E+3
  -1.10095E+3   6.35755E+2
  -7.15460E+2  -3.88678E+3
   9.59417E+2   7.12606E+2
   1.04502E+3   9.68337E+2
  -1.00442E+3  -1.13535E+3
  -6.69173E+2  -1.42068E+1
   1.53583E+2  -6.14927E+2
   3.58094E+2  -9.62683E+2
   1.30103E+3   1.33944E+3
  -8.17630E+2   5.45903E+2
  -2.03253E+3  -1.64641E+3
   1.78111E+3  -7.27220E+2
   2.30153E+3   1.43968E+3
  -1.85978E+3   1.16920E+3
  -8.51041E+2  -1.08777E+3
   1.95948E+3  -1.63208E+3
   3.96831E+2   6.75997E+2
  -8.18342E+2   1.75363E+3
  -4.26009E+2   6.65532E+2
  -6.58913E+2  -4.38475E+2
  -3.89011E+2  -1.49689E+3
   7.28267E+2  -1.09438E+3
   5.46893E+2   4.92416E+2
   3.80945E+2   3.45646E+2
   9.12296E+1  -2.88765E+2
  -4.04546E+2   8.37805E+2
  -1.56789E+2   5.11137E+2
  -7.62976E+2  -1.44787E+3
  -7.84764E+2  -4.41724E+2
  -3.00230E+2   4.84672E+2
   5.80409E+2  -1.45579E+3
   1.35878E+3  -1.04867E+3
   8.03021E+2   1.78088E+3
  -4.11325E+2   1.63112E+3
  -1.24302E+3  -5.21479E+2
  -4.28905E+2  -6.51199E+2
   2.04756E+2   3.63264E+2
  -2.08620E+2  -3.14717E+2
  -4.51449E+2  -9.64610E+2
   2.06546E+2   8.82662E+1
   9.37620E+2   3.64243E+2
  -6.38386E+1   5.52651E+2
  -7.98468E+2   1.72360E+2
  -1.58633E+2  -4.15487E+2
   1.76269E+2  -4.67119E+2
   1.63699E+2   2.28532E+2
   1.16256E+2  -4.47848E+2
   1.24106E+3  -6.32203E+2
   1.17513E+3   4.92633E+2
   1.80491E+2   1.39252E+3
  -5.67374E+2   4.97656E+2
  -5.49936E+2  -4.43444E+1
  -9.37835E+1  -2.52049E+2
  -2.21145E+1  -7.22800E+0
   1.13742E+2  -2.69214E+2
   8.57023E+1   9.81248E+1
  -9.46951E+1   2.31980E+2
   1.80505E+2  -2.31826E+2
   2.49770E+2  -2.00550E+2
   4.22013E+2  -1.26380E+2
   1.91164E+2   1.81117E+2
   1.43076E+2  -9.31144E+0
   2.14072E+2   6.39063E+1
   8.12658E+1  -1.65199E+2
   2.51181E+2   9.90023E+1
   1.50221E+2   4.43683E+2
  -4.37078E+2  -1.04655E+1
  -6.43730E+1  -2.06735E+2
   1.09762E+2  -7.53290E+1
   7.97639E+1   2.33752E+1
  -2.92956E+2  -1.98043E+2
  -4.28217E+2  -3.51301E+2
   1.73946E+2  -1.63060E+2
   3.47181E+2  -4.90786E+1
  -2.81273E+2   1.22966E+2
  -8.50105E+1  -2.26941E+2
   3.63830E+2  -3.34826E+2
   4.39568E+2   5.56860E+1
  -1.57730E+1   2.09569E+2
  -1.72491E+2  -2.71821E+1
  -2.15281E+2  -1.38369E+2
   7.07361E+1   2.95835E+1
  -2.88812E+2   9.90704E+1
  -3.09201E+2  -3.42725E+2
  -3.02402E+2  -4.81996E+0
  -4.12149E+1   8.95068E+1
   9.43900E+0   2.03094E+2
   1.68895E+1   1.37820E+2
  -1.07597E+2   4.04438E+1
  -1.77361E+2  -8.98905E+1
  -1.96539E+2  -5.60648E+1
   8.83218E+1  -1.95722E+1
  -5.96995E+1   4.77249E+1
  -9.49500E+1   3.12077E+2
  -2.34099E+2   2.12158E+1
  -1.91578E+2  -1.66032E+2
  -2.69536E+2  -5.96806E+1
   7.26286E+1   2.65302E+2
  -6.68608E+0   1.54355E+2
  -7.73995E+1   3.85622E+1
  -7.91163E+1  -1.24694E+2
   1.95184E+2   2.93459E+2
   2.83606E+1   1.63011E+2
  -2.84381E+2   3.78705E+2
  -2.93239E+1   2.42190E+2
  -1.12968E+1   1.15193E+2
  -4.28083E+1   1.38484E+2
  -3.32667E+1   3.59337E+1
   1.80721E+2   1.33367E+2
   1.06100E+2   1.01328E+2
   7.96013E+1   1.91259E+1
  -6.00272E+1   6.62480E+1
  -3.01844E+1  -1.00491E+2
  -7.60305E+1  -6.29153E+1
   2.91957E+1   9.32215E+0
  -2.02364E+1   9.73650E+1
   1.35754E+2   1.52902E+2
  -2.61383E+2   1.08073E+2
   1.04151E+2  -4.81145E+1
  -8.10553E+1   7.27349E+1
  -1.25032E+1  -4.14891E+1
  -2.98289E+1   5.70834E+1
   4.16776E+1   1.93438E+2
  -4.61244E+0  -1.01200E+2
  -1.68625E+2  -9.97697E+1
  -1.30477E+2  -2.01268E+1
   1.19656E+2   7.43238E+1
   5.90407E+1  -3.83859E+1
  -1.65972E+2   1.64131E+2
   1.25289E+2  -9.36998E+1
  -1.38211E+2   2.90810E+1
  -2.57275E+2   1.03086E+2
  -2.34004E+2   6.58188E+0
  -1.88115E+2  -3.88620E+0
   2.37047E+2   9.99980E+1
  -1.07122E+2  -7.81464E+0
   1.38336E+2   9.48245E+1
   1.04575E+2   1.23802E+2
  -1.53913E+2   1.15855E+2
  -1.46057E+2   4.96854E+1
   7.33947E+1   2.10274E+1
   1.01681E+0  -1.92696E+2
   1.08836E+2   1.42859E+2
  -2.32462E-1   2.61700E+2
  -2.12187E+2   1.01088E+0
   2.07140E+2  -7.60462E+1
  -6.63073E+1   1.71078E+2
  -1.81951E+2   1.07236E+0
  -5.47348E+1  -1.66715E+2
   2.82269E+2   1.58535E+2
  -1.02492E+2   7.92827E+1
  -4.79693E+2  -8.46545E+1
   3.05480E+1   2.06994E+1
  -1.71314E+2   2.97965E+1
   7.69349E+1   1.87005E+2
  -1.12409E+2   8.30095E+0
  -1.48124E+2  -4.10435E+1
  -6.61699E+1   1.83054E+2
  -3.85728E+1   1.30570E+2
   1.26717E+1   1.76883E+2
   3.05091E+2   1.33318E+2
   7.44247E+1  -1.31250E+2
  -9.54901E+1   7.11388E-1
   2.04497E+2   6.62088E+1
   2.67862E+1   1.12923E+2
  -9.92351E+0  -3.60778E+0
  -2.24330E+1   4.14696E+1
   1.23924E+2  -3.62784E+1
   3.60640E+1  -1.21834E+2
   2.15804E+2   9.66140E+1
  -1.65170E+1   2.35532E+2
   8.22217E+1   8.10223E+1
   8.90216E+1  -7.36067E+1
  -1.01502E+2   1.13649E+2
  -4.61585E+1  -9.46440E+1
   3.80251E+1   1.10567E+2
   9.18866E+1  -2.99633E+2
   2.56295E+1  -6.04149E+1
   1.52139E+2  -1.06653E+2
   2.25415E+1   1.06487E+2
  -1.55693E+2  -1.56031E+2
   1.73514E+1   4.84121E+1
   1.03182E+2   8.39666E+1
   6.26553E+1   9.49140E+1
  -2.14934E+2  -8.82262E+1
   9.88735E+1  -2.85924E+2
  -8.70054E+0   1.45839E+2
   2.03806E+1  -7.72301E+1
  -1.08331E+2  -1.25055E+2
  -6.98385E+0   7.12638E+1
  -5.02731E+1   3.58141E+1
   1.88642E+1   1.19210E+2
  -1.00938E+2  -1.11190E+2
   8.34322E+1  -1.48581E+2
   8.56671E+1  -4.51869E+1
  -1.60618E+2   1.05317E+2
  -1.18678E+2   1.92099E+2
  -1.01300E+2  -8.63637E+1
  -2.47328E+1  -4.10514E+0
  -2.70386E+1  -9.14460E+1
  -1.37135E+2  -2.29403E+2
  -4.75993E+1  -1.16082E+2
   1.64600E+2   4.97465E+1
   2.35169E+2   1.83662E+2
  -3.25155E-1  -1.17269E+2
  -1.26478E+2   1.08195E+2
  -5.03201E+1   1.54000E+2
  -7.39334E+0  -1.06291E+1
  -7.61672E+0   8.76775E+1
  -6.49579E+1   4.88865E+1
  -1.19932E+1  -4.91088E+1
  -8.34927E+1  -1.08162E+1
  -7.70278E+1  -6.77091E+1
  -2.19672E+2  -2.10344E+2
   6.88159E+1  -1.15621E+2
   7.36701E+0  -7.55909E+1
  -1.61362E+2   6.78487E+1
  -2.08095E+2  -4.77718E+1
   6.87885E+1  -1.55375E+1
   5.62002E+1   2.69416E+1
  -8.30805E+1   5.77092E+0
  -2.25515E+2  -5.39426E+0
  -6.17673E+1  -1.43508E+2
  -7.91234E+1  -2.38468E+2
  -6.20194E+1   7.14088E+1
  -2.76671E+1   1.37315E+2
  -3.56093E+1  -8.92481E+1
   3.62138E+1  -1.22073E+2
  -6.35723E+1  -9.35149E+1
   1.80315E+2   1.29391E+2
  -1.16494E+2   1.19147E+2
  -9.80530E+0   5.93255E+1
   9.52734E+0  -3.74844E+1
  -8.59188E+1   3.15352E+1
  -2.69189E+1  -1.12561E+2
  -5.06897E+1  -1.21176E+2
  -5.74067E+1   5.32171E+1
  -9.97201E+0  -4.65464E+0
   1.14108E+1   3.16794E+1
   1.44839E+2   5.06698E+1
   6.27186E+1   1.47351E+2
   5.08803E+1  -5.44886E+1
   1.29021E+1   1.14460E+2
  -1.28039E+1   1.23090E+2
   1.55374E+2  -1.62060E+2
   1.34044E+1  -1.13734E+2
   2.26893E+2  -3.10204E+2
  -3.02900E+0   2.37321E+1
   1.52638E+2  -2.86349E+1
   9.02972E+1  -3.82530E+1
   1.46235E+2  -1.65749E+2
  -5.96838E+1  -8.59192E+1
  -3.71407E+1  -6.86611E+0
   1.55147E+2   9.56067E+1
   2.46761E+1   1.26514E+2
  -1.37548E+2  -1.98588E+1
  -1.61668E+2  -3.87428E+1
  -3.39361E+1   2.86809E+2
   1.95676E+2   3.61134E+1
  -1.06381E+2  -1.61851E+2
  -1.33191E+1  -6.83137E+1
   2.75170E+2   4.44621E+1
  -9.96048E+1  -1.08428E+2
   3.65388E+1   9.68490E+1
   1.58568E+1  -1.07578E+2
   5.46376E+0  -1.72862E+2
   2.49512E+2   1.05186E+2
   2.90773E+2  -3.08210E+1
   2.21164E+0   1.26601E+2
   1.39516E+2  -7.53496E+1
   1.92108E+2  -9.01828E+1
  -6.65710E+1  -5.44621E+1
   9.16561E+1   1.32012E+2
   3.36075E+1   3.97926E+1
  -5.11219E+1  -3.13696E+2
   7.89500E+1   9.68116E+1
  -4.37878E+1  -1.67348E+1
   1.07663E+2  -5.50697E+1
   1.49081E+2  -2.44633E+2
   1.03000E+1  -4.65668E+0
   3.96488E+2  -1.18130E+2
   1.44378E+1   1.10206E+2
   1.09025E+2   4.25749E+0
  -2.65255E+2  -8.04209E+1
  -1.58676E+2  -1.04339E+2
   2.57628E+1  -1.06470E+2
  -1.11080E+2  -7.39322E+1
  -5.66282E+1   6.37124E+1
   5.82124E+1  -1.89836E+1
   4.53243E+1   7.98716E+1
   7.53314E+1   3.95139E+1
   1.03468E+2  -4.06093E+1
   1.51436E+2   2.91488E+1
   1.74579E+1   1.94181E+1
   5.30659E+1  -3.43639E+1
   3.36732E+1  -4.44650E+1
  -9.83326E+1  -1.92895E+2
   2.16533E+2   1.94386E+2
   1.20381E+2  -1.24046E+2
  -1.33213E+2   1.66035E+2
   7.54118E+1  -4.62872E+1
   2.07328E+2  -4.66376E+1
   7.71438E+0   1.61424E+1
   1.82030E+2  -6.34637E+1
   7.58062E+1   1.35670E+2
   1.25329E+1  -3.41788E+1
  -1.26647E+1   9.02795E+0
  -6.54718E+1   6.78397E+1
   1.41154E+2  -3.06492E+1
   6.78253E+1  -8.74662E+1
  -2.04597E+2  -2.04173E+2
  -1.55582E+2  -4.93776E+1
   5.45836E+1  -1.21673E+2
   1.89488E+2  -7.52053E+1
   9.86007E+1  -6.40939E+1
   2.04697E+2   2.47756E+1
   9.55847E+1  -1.30791E+2
   3.06731E+1  -4.19160E+1
  -3.90712E+2   2.58946E+1
   4.88760E+1   5.88098E+1
  -4.04029E+1  -5.38372E+1
  -2.00165E+2   3.65426E+1
   6.03441E+1  -6.45906E+1
   1.72725E+2  -9.17931E+1
  -1.83865E+2   7.66362E+1
  -2.66330E+1  -9.12875E+0
  -1.37238E+2  -1.39721E+2
   1.56338E+2  -1.58007E+2
   2.29002E+2  -2.97152E+1
  -1.38562E+2   1.76551E+2
  -7.26225E+1   1.22458E+2
   6.10757E+1   1.51536E+1
   4.27346E+1  -4.58355E+1
  -8.77276E+1   1.63592E+2
  -1.70227E+2   1.31926E+2
  -1.43783E+2   2.17131E+2
   6.72388E+1   1.75117E+0
   2.10654E+2   9.26856E+1
   3.91934E+1  -7.21892E+1
   3.37916E+1  -6.25848E+1
   4.87518E+1   8.20227E+0
  -1.17037E+2  -1.35445E+2
   3.51366E+1  -8.91130E+0
  -8.54317E+1   5.08761E+1
   7.83675E+1  -1.99550E+2
  -2.38473E+1  -2.29267E+2
   1.62520E+2  -1.48503E+2
   8.25812E+1  -1.98947E+2
   1.12267E+2   2.40684E+1
   1.08435E+2   5.89707E+1
   9.70798E+1   1.38672E+2
  -7.36614E+1  -3.96568E+1
