 
 $NMID
 ID=''
 FMTDAT='(2E13.5)'
 TRAMP=   1.00000E+0
 VOLUME=   1.00000E+0
 $END
   1.94729E+4  -1.18409E+4
   7.74615E+3  -2.81373E+4
  -2.20452E+4  -7.08451E+3
  -5.52634E+3   2.55018E+4
   1.84063E+4   3.06881E+3
   1.16244E+3  -1.89032E+4
  -1.01186E+4   3.66234E+3
   4.89689E+3   1.12519E+4
   4.39626E+3  -5.11283E+3
  -6.10659E+3  -2.86507E+3
  -1.75443E+3   4.38517E+3
   1.97127E+3  -4.92451E+2
  -9.96022E+2  -9.10271E+2
  -2.35491E+1   2.03681E+2
   4.57795E+2  -3.17610E+3
  -4.73483E+1  -1.06398E+3
   1.00242E+3   2.27147E+3
   3.42233E+1   9.07129E+1
  -7.24822E+1  -6.34742E+2
   9.87921E+2   2.07815E+2
  -6.82556E+2  -3.65608E+2
  -7.01356E+2  -2.22001E+2
   1.20552E+3   1.19236E+3
   2.53045E+2   5.92249E+2
  -8.88129E+2  -8.11146E+2
   1.01491E+3  -1.01401E+3
   4.64327E+1   8.45201E+2
  -2.29842E+3   1.77298E+3
  -7.83053E+2  -3.28060E+1
   1.39830E+3  -1.14229E+3
   1.20947E+3   1.87968E+2
  -4.08792E+2   2.97277E+2
  -1.74084E+3   1.04031E+0
  -1.08464E+3   2.82049E+2
   7.08429E+2  -5.81693E+2
   1.70429E+3  -6.26951E+2
   5.07173E+2   7.26647E+2
  -1.02254E+3   4.12461E+2
  -4.54182E+2  -3.72243E+2
   2.98370E+2   1.54431E+2
  -2.29714E+2   5.83644E+2
  -4.65248E+2  -6.76225E+2
   8.34737E+2  -8.08109E+2
   7.69567E+2  -2.85187E+2
   3.41342E+2   7.63112E+0
   2.16755E+2   2.05162E+2
   3.72413E+2   1.13901E+3
  -7.03885E+2   6.50790E+2
  -1.10497E+3  -5.38213E+2
  -5.04904E+2  -8.75528E+2
   4.05387E+2  -3.57912E+2
  -3.31979E+0   1.60867E+1
  -5.96840E+0  -4.34104E+2
  -2.43886E+1  -2.92872E+2
   2.36933E+2   2.01040E+1
  -5.07470E+1   7.19047E+2
  -8.12975E+2   3.54559E+2
  -3.32998E+2  -6.13748E+2
   2.85253E+2  -6.42886E+2
   1.43840E+2   5.45727E+1
   7.50074E+1   3.64133E+2
   4.53091E+2   6.49185E+1
   7.24190E+2   3.37408E+2
   6.86638E+0   7.58265E+2
  -8.56572E+2   6.65912E+2
  -6.66282E+2  -9.57054E+0
   3.84097E+1  -6.94510E+2
   1.30107E+2  -7.50400E+2
   1.10713E+2  -4.52509E+2
   3.28871E+2   5.45952E+1
   8.69274E+1   3.39512E+2
  -9.16216E+1   3.82217E+1
   3.35818E+2  -3.12037E+2
   4.35258E+2  -2.54024E+2
  -4.40173E+1   4.59079E+2
  -1.25794E+2   3.95617E+2
   7.78965E+1  -1.20871E+2
   3.41758E+2  -3.87882E+2
   1.77622E+2   1.59865E+2
   4.51660E+1   2.69607E+2
  -3.51721E+2   1.17901E+2
  -1.63372E+2  -1.87301E+2
  -8.92094E+0  -1.93049E+0
  -2.09415E+1  -3.56167E+1
  -4.08434E+2   1.07378E+2
  -2.86452E+2  -3.89684E+2
   1.00040E+2  -2.99135E+2
   2.80875E+2   2.06512E+2
  -1.90545E+2   8.49297E+1
  -2.11179E+1  -4.01005E+2
   1.38317E+2   2.32398E+1
   3.78073E+2   4.12191E+1
   1.36560E+2   2.00345E+2
  -9.12572E+1   1.51955E+2
  -3.14625E+1   1.81906E+2
  -3.77484E+2   9.98668E+1
  -1.74351E+2  -1.73325E+2
   1.74334E+2  -3.13477E+1
   1.58337E+1  -8.76275E+0
  -1.21006E+2   5.62024E+1
  -1.41540E+2  -1.60757E+2
   1.96743E+2   3.46843E+1
   2.81429E+2   5.96272E+2
  -1.55967E+2   3.02023E+2
  -2.75965E+2  -2.11967E+2
  -1.82853E+2  -5.15006E+2
   2.37688E+2   8.32983E+1
   1.15908E+2   3.82332E+2
  -2.53835E+1   2.67827E+2
   1.43138E+2  -3.24169E+2
  -1.05129E+2  -2.40439E+2
  -1.27580E+2   5.29579E+1
  -1.18551E+2   1.50391E+2
  -9.90007E+0   4.07240E+1
  -1.03755E+2  -1.63775E+2
   8.13235E+1   3.22390E+1
   1.14244E+2  -1.33678E+1
  -5.40316E+1   7.55754E+1
  -1.10738E+2   2.42801E+2
  -2.69708E+2   4.28785E+2
  -3.86561E+1  -3.86268E+1
   5.61957E+1  -4.46511E+1
   1.20295E+2   4.64230E+1
  -1.26799E+2  -1.09111E+2
  -9.49187E+1  -1.63441E+2
   1.19916E+2  -1.68893E+2
   1.14723E+2   7.86733E+1
  -1.71182E+2   4.50189E+1
  -1.72123E+2   6.78322E+1
  -2.46608E+2  -1.58998E+2
   3.91466E+1  -2.04540E+2
   1.87757E+2  -1.07958E+2
  -7.00788E+1   1.08983E+2
  -2.15683E+2  -3.67435E+0
   1.14733E+2  -8.47415E+1
  -3.86154E+1  -2.64541E+0
  -2.27043E+2  -6.08758E+1
  -2.49208E+2  -2.36893E+2
   2.14910E+1  -1.56813E+2
  -2.00599E+2  -1.12009E+2
  -9.65406E+1  -1.53639E+2
   6.60748E+1   2.60100E+2
   1.65405E+2  -2.79339E+1
  -2.45280E+1   1.24996E+2
  -5.63476E+0   2.42770E+1
   2.39782E+2  -2.38818E+1
  -1.85691E+2  -3.33722E+1
   3.68461E+1   4.39904E+1
   2.82111E+2  -1.76640E+2
   1.24882E+2   1.19172E+2
  -7.15177E+1   1.19205E+1
   1.16745E+2   9.64829E+1
   9.39131E+1   2.04998E+2
  -2.52533E+2   5.64772E+0
  -2.93444E+0  -7.00421E+1
   7.50554E+1   7.63678E+1
  -7.46836E+1   1.07478E+2
   2.73201E+1   2.08468E+2
   2.49285E+1  -5.02105E+0
  -2.74740E+1  -1.44958E+2
  -7.34183E+1   9.29963E+0
  -8.43112E+1  -2.80677E+1
   9.11356E+1   8.28491E+1
   8.54236E+1   9.81596E+1
   1.35613E+2  -1.17730E+2
   1.02692E+2   2.85330E+2
   2.61829E+1  -5.67786E+1
   1.60866E+1  -3.02697E+1
   1.42806E+2  -7.61510E+1
  -1.29470E+2  -1.11984E+2
   7.65672E+1   3.33699E+2
   3.18148E+1  -1.85642E+2
   9.04761E+1   9.16336E+1
  -6.84731E+1   1.54671E+0
   3.34366E+1  -2.98565E+1
  -7.72608E+1   1.03377E+2
  -3.51067E+1   6.45298E+1
  -1.84534E+1  -1.21749E+2
  -8.29344E+1  -4.31063E+1
   9.02031E+1   4.56034E+1
  -1.98204E+2  -6.06819E+1
  -1.39788E+2   2.94194E+1
   2.47918E+1   5.54237E+1
   2.10639E+1  -1.89720E+2
  -8.11325E+1  -2.30704E+1
  -2.61883E+1  -5.38171E+0
  -1.66308E+2  -1.23128E+2
  -3.72631E+1  -9.82513E+0
   1.76817E+2  -8.05629E+0
   1.31831E+2  -3.53264E+1
  -1.88782E+2  -6.53567E+1
  -1.40787E+2  -1.51801E+2
  -1.33457E+2  -5.35464E+1
   1.87228E+2   1.77267E+2
  -7.74952E+1   1.37893E+2
  -7.19918E+1  -1.30686E+2
  -4.75025E+1  -3.94815E+1
   6.49094E+1  -9.57211E+1
   1.77717E+2   2.79714E+2
   7.78342E+0  -1.04432E+2
  -1.54698E+2  -1.20607E+2
   2.12351E+2   1.35021E+1
   1.05894E+2  -5.72155E+1
   2.44475E+2   9.50847E+1
  -1.15119E+2   1.14169E+2
   1.35493E+1   1.39308E+2
   8.43831E+1   4.32546E+1
   2.81223E+1   1.15175E+2
  -1.26829E+2   9.26294E+1
  -3.58800E+0  -2.25248E+2
   6.50976E+1   1.00746E+2
   8.89651E+1  -9.08268E+1
  -1.05575E+2   3.76550E+2
   7.10832E+1   3.90433E+2
   6.06858E+1   2.48064E+2
  -2.55975E+1  -2.46705E+2
   7.23161E+1   3.37970E+1
   4.49183E+1   2.13175E+2
  -4.78714E+1   2.37618E+2
  -7.01828E+1   1.26800E+2
   1.08258E+2   1.50279E+2
  -3.68554E+1   4.75304E+1
   2.65967E+1  -1.40140E+2
   6.62837E+1  -1.26827E+2
  -1.84402E+2   4.92544E+1
  -5.05722E+1   1.92839E+1
   3.59222E+1   1.54133E+2
  -2.09271E+2   4.08822E+1
   2.23581E+1  -2.58795E+1
  -7.34693E+1  -4.93605E-1
  -1.07048E+1  -1.28581E+2
  -9.96598E+1  -1.74021E+2
   6.12381E+1  -9.84910E+1
  -5.55901E+1  -5.54771E+1
  -9.37277E+1  -1.52333E+2
   1.60631E+2   4.74137E+1
  -3.96674E+1  -4.27397E+1
   7.20732E+1   5.09203E+1
  -2.93582E+2  -1.25526E+2
   1.30439E+2  -2.26764E+2
  -9.43612E+1   8.56057E+1
  -1.09184E+2   1.71411E+2
   1.16090E+2  -1.26508E+2
  -2.88088E+1  -2.91304E+1
  -7.86066E+1  -1.28124E+2
   6.70934E+1   9.78698E+1
  -8.86074E+1   4.15732E+1
   1.42362E+2  -1.78613E+0
  -1.11959E+2   3.04157E+1
   1.50047E+1   2.05940E+2
  -1.90663E+2   1.60547E+2
   2.14428E+1  -1.24720E+2
   2.01052E+2  -1.23694E+2
   4.91054E+1  -6.73999E+1
   1.09596E+2  -7.36649E+1
  -8.47407E+1   5.79081E+1
   1.92173E+2  -3.64105E+1
  -1.49817E+2  -1.72558E+2
  -9.23817E+0   2.63208E+0
   3.31270E+1   5.85042E+1
   1.85106E+1  -6.06465E+0
   2.04130E+2  -8.65929E+1
   9.94473E+1  -7.68604E+1
  -2.04570E+1   3.58686E+1
   1.98703E+2   2.29488E+2
   1.23479E+2  -2.92001E+1
  -3.20053E+1  -1.07965E+1
   5.21078E+0  -1.00387E+2
   3.68988E+1  -6.00155E+1
  -1.63964E+1  -2.25189E+2
  -1.82149E+1  -6.62875E+1
  -2.80427E+1  -7.68672E+1
   1.18802E+1   1.22936E+1
   1.62963E+2  -1.39544E+2
  -2.64657E+1   1.32251E+2
   9.87054E+1  -1.01004E+2
   2.34930E+1  -7.02743E+1
   3.33295E+2  -2.29745E+1
  -6.09088E+0  -6.70934E+1
  -1.20263E+2   8.23130E+1
   4.63170E+0   4.95292E+1
   4.48339E+1  -9.62586E+1
  -1.38893E+1  -6.16649E+0
  -4.15631E+1   5.36174E+0
   1.66303E+2   5.71728E+1
  -8.80945E+1  -1.77693E+2
   1.12540E+2   1.31547E+2
   2.39923E+1   1.34823E+2
   2.76377E+2  -8.38881E+1
   8.16845E+1   2.77283E+2
  -1.45296E+1   1.78704E+1
   2.67083E+0   9.05166E-1
  -6.63836E+1   6.97795E+0
   2.14922E+2  -1.29555E+2
  -5.60531E+1   9.03875E+1
  -2.42425E+2  -1.26514E+2
  -5.23379E+1   7.19595E+0
   4.78923E+1  -3.78296E+1
   3.72473E+1  -1.72352E+1
  -1.78719E+2   6.23057E+1
  -8.79020E+1  -4.75615E+1
  -3.00549E+1   2.75875E+1
   4.31697E+1   2.73521E+2
   1.32870E+2   3.32986E+1
  -1.38815E+2  -7.24126E+1
   3.98121E+1  -1.56449E+2
  -7.34891E+0  -2.27019E+2
   6.12038E+1  -8.10953E+1
   9.69324E+0  -3.99129E+1
   1.06527E+2   6.09031E+0
   2.06716E+2  -5.25263E+1
   3.76224E+1   1.78437E+2
  -1.15577E+1  -2.25898E+1
   4.61648E+1   3.54311E+1
   1.09290E+2   9.15132E+1
   6.88410E+1  -5.99719E+1
   1.23608E+2  -8.60124E+1
   1.25015E+2   3.46963E+2
  -1.57240E+2  -1.46514E+2
  -5.58914E+1   1.04155E+1
  -8.64330E+1  -2.27960E+2
   2.47399E+1   5.54103E+1
  -9.69726E+1   1.01479E+2
  -7.43579E+1  -2.55856E+2
   2.47658E+2  -6.36093E+1
   6.05277E-1  -7.65242E+0
  -2.36974E+1   1.35485E+2
  -6.97580E+1  -8.63994E+1
   6.78614E+1  -1.32679E+2
   7.80700E+1   2.71152E+1
   2.65719E+2   1.23517E+2
  -2.31305E+1  -3.14404E+2
   6.99590E+1  -9.39417E+1
   1.37977E+2   1.19550E+2
   1.03077E+2   7.15610E+1
  -1.40490E+1  -5.92232E+1
  -5.66335E+1  -5.21103E+1
  -8.62902E+1  -7.59210E+0
   3.80771E+1  -2.26654E+2
   1.28396E+2  -1.19724E+2
   8.93713E+0  -1.26835E+2
  -2.26921E+1  -8.94849E+1
   1.80972E+2   1.50972E+2
  -1.34133E+2  -2.64663E+2
   6.88215E+0   7.06498E+1
   1.26210E+2  -1.68121E+2
   1.14723E+2   8.71168E+1
   4.25184E+1   2.12300E+1
   9.74306E+1  -3.47215E+2
   1.57583E+2  -6.47857E+1
  -1.18930E+2  -7.91854E+1
  -2.19933E+2  -1.24503E+2
   2.01077E+0   2.86061E+1
   1.91479E+1   7.62296E+1
   1.30579E+2   5.44193E+1
   1.86504E+2   1.02712E+1
   7.44273E+1   8.17665E+1
  -1.89322E+1  -1.32342E+2
   6.71368E+1   9.11756E+1
   4.92353E+1   2.08532E+1
  -1.95144E+2  -5.61436E+1
   9.74420E+0   6.84580E+1
  -3.89665E+1   5.05078E+1
  -1.16098E+2   5.17080E+1
   2.89234E+2  -7.90973E+1
   6.06552E+1  -5.39951E+1
  -7.46200E+1  -3.82344E+1
