 
 $NMID
 ID=''
 FMTDAT='(2E13.5)'
 TRAMP=   1.00000E+0
 VOLUME=   1.00000E+0
 $END
  -5.59785E+5   4.10082E+5
  -1.70404E+6   4.91086E+5
  -1.56609E+6   6.28724E+5
  -1.55302E+6   4.50980E+5
  -1.69494E+6   4.49622E+5
  -1.62056E+6   5.16882E+5
  -1.53612E+6   4.30753E+5
  -1.59153E+6   3.73930E+5
  -1.59642E+6   3.85883E+5
  -1.58746E+6   3.70189E+5
  -1.58195E+6   3.78397E+5
  -1.53014E+6   3.58400E+5
  -1.52825E+6   2.97435E+5
  -1.55994E+6   3.05003E+5
  -1.52948E+6   3.28078E+5
  -1.49903E+6   3.03307E+5
  -1.50340E+6   2.82794E+5
  -1.49062E+6   2.59826E+5
  -1.49007E+6   2.30121E+5
  -1.49216E+6   2.27626E+5
  -1.46493E+6   2.11284E+5
  -1.45291E+6   1.78646E+5
  -1.45496E+6   1.67861E+5
  -1.44270E+6   1.54428E+5
  -1.43171E+6   1.31829E+5
  -1.42079E+6   1.34246E+5
  -1.40434E+6   1.27165E+5
  -1.39833E+6   1.09989E+5
  -1.38985E+6   1.04112E+5
  -1.37342E+6   1.01445E+5
  -1.36670E+6   8.69687E+4
  -1.35605E+6   7.52803E+4
  -1.34061E+6   5.79750E+4
  -1.33263E+6   4.37591E+4
  -1.32283E+6   3.69388E+4
  -1.30908E+6   2.37682E+4
  -1.30073E+6   5.66699E+3
  -1.28978E+6  -7.06662E+3
  -1.27583E+6  -1.65725E+4
  -1.26773E+6  -2.55176E+4
  -1.25506E+6  -3.18103E+4
  -1.24026E+6  -3.93242E+4
  -1.23032E+6  -4.46795E+4
  -1.22149E+6  -4.94847E+4
  -1.20809E+6  -5.55136E+4
  -1.19825E+6  -6.07785E+4
  -1.18824E+6  -6.88745E+4
  -1.17511E+6  -8.21095E+4
  -1.16095E+6  -9.20480E+4
  -1.14880E+6  -9.91193E+4
  -1.13825E+6  -1.08887E+5
  -1.12636E+6  -1.20510E+5
  -1.11374E+6  -1.30001E+5
  -1.10311E+6  -1.39066E+5
  -1.09246E+6  -1.47747E+5
  -1.07967E+6  -1.56208E+5
  -1.06691E+6  -1.63841E+5
  -1.05544E+6  -1.69993E+5
  -1.04412E+6  -1.75365E+5
  -1.03316E+6  -1.82022E+5
  -1.02159E+6  -1.88899E+5
  -1.01020E+6  -1.95288E+5
  -9.99832E+5  -2.03393E+5
  -9.87176E+5  -2.11523E+5
  -9.73606E+5  -2.19068E+5
  -9.60840E+5  -2.24878E+5
  -9.48502E+5  -2.32275E+5
  -9.36489E+5  -2.39110E+5
  -9.25720E+5  -2.45517E+5
  -9.15198E+5  -2.51972E+5
  -9.02495E+5  -2.58759E+5
  -8.90048E+5  -2.63717E+5
  -8.80253E+5  -2.68288E+5
  -8.70616E+5  -2.74275E+5
  -8.58328E+5  -2.79993E+5
  -8.45878E+5  -2.84830E+5
  -8.35214E+5  -2.89620E+5
  -8.24380E+5  -2.95913E+5
  -8.11937E+5  -3.02172E+5
  -7.99582E+5  -3.08003E+5
  -7.87552E+5  -3.13265E+5
  -7.75991E+5  -3.18447E+5
  -7.64925E+5  -3.23516E+5
  -7.53542E+5  -3.29000E+5
  -7.42106E+5  -3.33659E+5
  -7.31177E+5  -3.37174E+5
  -7.20724E+5  -3.40568E+5
  -7.10445E+5  -3.44173E+5
  -7.00335E+5  -3.47276E+5
  -6.90525E+5  -3.49388E+5
  -6.80970E+5  -3.51271E+5
  -6.71066E+5  -3.54125E+5
  -6.60559E+5  -3.57628E+5
  -6.49503E+5  -3.60496E+5
  -6.39129E+5  -3.62537E+5
  -6.29419E+5  -3.64483E+5
  -6.19606E+5  -3.67174E+5
  -6.09469E+5  -3.69784E+5
  -5.99051E+5  -3.71846E+5
  -5.89833E+5  -3.72932E+5
  -5.80987E+5  -3.74408E+5
  -5.71850E+5  -3.76322E+5
  -5.61961E+5  -3.77023E+5
  -5.52348E+5  -3.76921E+5
  -5.44413E+5  -3.76484E+5
  -5.36672E+5  -3.76587E+5
  -5.28184E+5  -3.77329E+5
  -5.18685E+5  -3.77572E+5
  -5.09556E+5  -3.76728E+5
  -5.01527E+5  -3.75664E+5
  -4.93559E+5  -3.74951E+5
  -4.85248E+5  -3.75639E+5
  -4.76404E+5  -3.76064E+5
  -4.67593E+5  -3.75924E+5
  -4.59009E+5  -3.75421E+5
  -4.50630E+5  -3.75117E+5
  -4.41947E+5  -3.74979E+5
  -4.32799E+5  -3.73787E+5
  -4.24553E+5  -3.72111E+5
  -4.17199E+5  -3.70745E+5
  -4.09962E+5  -3.69755E+5
  -4.02238E+5  -3.68828E+5
  -3.94112E+5  -3.67671E+5
  -3.86324E+5  -3.66752E+5
  -3.78500E+5  -3.65686E+5
  -3.70249E+5  -3.64280E+5
  -3.62753E+5  -3.62392E+5
  -3.54906E+5  -3.60842E+5
  -3.47345E+5  -3.59989E+5
  -3.39601E+5  -3.58983E+5
  -3.31512E+5  -3.58482E+5
  -3.23319E+5  -3.57205E+5
  -3.15582E+5  -3.55334E+5
  -3.08243E+5  -3.54113E+5
  -3.00818E+5  -3.53054E+5
  -2.93121E+5  -3.51764E+5
  -2.86048E+5  -3.50306E+5
  -2.78982E+5  -3.48817E+5
  -2.72141E+5  -3.47968E+5
  -2.64577E+5  -3.47030E+5
  -2.56792E+5  -3.45293E+5
  -2.50309E+5  -3.42934E+5
  -2.44012E+5  -3.41093E+5
  -2.37378E+5  -3.40309E+5
  -2.30788E+5  -3.39301E+5
  -2.23904E+5  -3.37178E+5
  -2.17893E+5  -3.35332E+5
  -2.11611E+5  -3.33676E+5
  -2.05585E+5  -3.31502E+5
  -1.99830E+5  -3.29617E+5
  -1.94225E+5  -3.27982E+5
  -1.88830E+5  -3.25647E+5
  -1.84088E+5  -3.23895E+5
  -1.78664E+5  -3.22345E+5
  -1.73462E+5  -3.20326E+5
  -1.68178E+5  -3.17831E+5
  -1.63882E+5  -3.15761E+5
  -1.58866E+5  -3.14101E+5
  -1.53989E+5  -3.11703E+5
  -1.49494E+5  -3.09570E+5
  -1.44931E+5  -3.06965E+5
  -1.40744E+5  -3.04987E+5
  -1.36047E+5  -3.02491E+5
  -1.31720E+5  -2.99940E+5
  -1.28110E+5  -2.97410E+5
  -1.24567E+5  -2.94977E+5
  -1.20856E+5  -2.93107E+5
  -1.17016E+5  -2.91069E+5
  -1.13358E+5  -2.88415E+5
  -1.09939E+5  -2.86022E+5
  -1.06687E+5  -2.83701E+5
  -1.03334E+5  -2.81241E+5
  -1.00279E+5  -2.78805E+5
  -9.70543E+4  -2.76287E+5
  -9.37871E+4  -2.73968E+5
  -9.10626E+4  -2.71691E+5
  -8.81157E+4  -2.69641E+5
  -8.41791E+4  -2.67035E+5
  -8.15965E+4  -2.64114E+5
  -7.87882E+4  -2.61662E+5
  -7.60206E+4  -2.59732E+5
  -7.29945E+4  -2.57477E+5
  -6.98647E+4  -2.55006E+5
  -6.69775E+4  -2.52475E+5
  -6.46651E+4  -2.50151E+5
  -6.16222E+4  -2.47464E+5
  -5.89677E+4  -2.44863E+5
  -5.66804E+4  -2.42342E+5
  -5.47937E+4  -2.40009E+5
  -5.26705E+4  -2.37993E+5
  -4.98975E+4  -2.35980E+5
  -4.68799E+4  -2.33555E+5
  -4.41281E+4  -2.30965E+5
  -4.19875E+4  -2.28242E+5
  -3.99117E+4  -2.26098E+5
  -3.75364E+4  -2.23775E+5
  -3.48450E+4  -2.21473E+5
  -3.25499E+4  -2.19217E+5
  -3.04876E+4  -2.16684E+5
  -2.76923E+4  -2.14377E+5
  -2.51279E+4  -2.11980E+5
  -2.28322E+4  -2.09332E+5
  -2.08200E+4  -2.07152E+5
  -1.88788E+4  -2.04680E+5
  -1.68312E+4  -2.02536E+5
  -1.45160E+4  -2.00342E+5
  -1.20769E+4  -1.97831E+5
  -1.01108E+4  -1.95553E+5
  -8.38053E+3  -1.92950E+5
  -6.15577E+3  -1.90694E+5
  -4.37226E+3  -1.88338E+5
  -2.35927E+3  -1.86009E+5
  -5.43733E+2  -1.84073E+5
   1.53846E+3  -1.82027E+5
   3.50633E+3  -1.79698E+5
   5.44506E+3  -1.76986E+5
   6.84017E+3  -1.74470E+5
   8.32936E+3  -1.72311E+5
   9.72852E+3  -1.70193E+5
   1.18293E+4  -1.68113E+5
   1.28739E+4  -1.65888E+5
   1.43232E+4  -1.63953E+5
   1.58948E+4  -1.61730E+5
   1.73946E+4  -1.59516E+5
   1.89949E+4  -1.57254E+5
   1.99414E+4  -1.54884E+5
   2.10007E+4  -1.53176E+5
   2.22704E+4  -1.51319E+5
   2.36998E+4  -1.49199E+5
   2.46483E+4  -1.47165E+5
   2.55619E+4  -1.44960E+5
   2.65681E+4  -1.42851E+5
   2.75767E+4  -1.41173E+5
   2.87447E+4  -1.39296E+5
   2.92201E+4  -1.37362E+5
   2.99239E+4  -1.35215E+5
   3.05645E+4  -1.33549E+5
   3.16410E+4  -1.32010E+5
   3.24364E+4  -1.30029E+5
   3.28180E+4  -1.28176E+5
   3.31588E+4  -1.26484E+5
   3.39090E+4  -1.24568E+5
   3.46729E+4  -1.22846E+5
   3.53856E+4  -1.21169E+5
   3.58033E+4  -1.19224E+5
   3.63005E+4  -1.17547E+5
   3.66685E+4  -1.15944E+5
   3.71860E+4  -1.14217E+5
   3.73844E+4  -1.12254E+5
   3.78497E+4  -1.10829E+5
   3.82252E+4  -1.09296E+5
   3.87965E+4  -1.07564E+5
   3.91236E+4  -1.05736E+5
   3.95000E+4  -1.04371E+5
   3.94848E+4  -1.02575E+5
   3.98622E+4  -1.01292E+5
   4.03945E+4  -9.97395E+4
   4.07532E+4  -9.81901E+4
   4.11636E+4  -9.64493E+4
   4.14755E+4  -9.47640E+4
   4.18611E+4  -9.35186E+4
   4.21640E+4  -9.16540E+4
   4.22801E+4  -8.98822E+4
   4.24220E+4  -8.83649E+4
   4.27752E+4  -8.71776E+4
   4.32762E+4  -8.57124E+4
   4.35347E+4  -8.40562E+4
   4.37399E+4  -8.24954E+4
   4.38528E+4  -8.10645E+4
   4.39543E+4  -7.95879E+4
   4.42887E+4  -7.81294E+4
   4.46206E+4  -7.67122E+4
   4.46202E+4  -7.54002E+4
   4.47588E+4  -7.38636E+4
   4.52740E+4  -7.27127E+4
   4.54944E+4  -7.09775E+4
   4.56600E+4  -6.95751E+4
   4.56004E+4  -6.81882E+4
   4.58201E+4  -6.70679E+4
   4.59273E+4  -6.59825E+4
   4.60508E+4  -6.42187E+4
   4.63190E+4  -6.29311E+4
   4.62142E+4  -6.18936E+4
   4.59790E+4  -6.05329E+4
   4.63400E+4  -5.91491E+4
   4.61827E+4  -5.76944E+4
   4.64579E+4  -5.65842E+4
   4.60168E+4  -5.55062E+4
   4.60927E+4  -5.44012E+4
   4.61226E+4  -5.33380E+4
   4.59081E+4  -5.22656E+4
   4.59316E+4  -5.09138E+4
   4.57037E+4  -5.01062E+4
   4.57460E+4  -4.86515E+4
   4.52565E+4  -4.76689E+4
   4.54756E+4  -4.64493E+4
   4.51838E+4  -4.56060E+4
   4.49538E+4  -4.46219E+4
   4.49786E+4  -4.35252E+4
   4.48373E+4  -4.23884E+4
   4.43179E+4  -4.13984E+4
   4.40501E+4  -4.04162E+4
   4.36858E+4  -3.98026E+4
   4.35829E+4  -3.85378E+4
   4.33019E+4  -3.77087E+4
   4.30411E+4  -3.64474E+4
   4.26444E+4  -3.57416E+4
   4.24066E+4  -3.48607E+4
   4.19905E+4  -3.41230E+4
   4.17342E+4  -3.29690E+4
   4.14806E+4  -3.21394E+4
   4.10003E+4  -3.12951E+4
   4.07328E+4  -3.04684E+4
   4.02240E+4  -2.95276E+4
   3.99688E+4  -2.87379E+4
   3.96217E+4  -2.80110E+4
   3.94102E+4  -2.72882E+4
   3.89948E+4  -2.61304E+4
   3.82255E+4  -2.55307E+4
   3.81854E+4  -2.47216E+4
   3.78580E+4  -2.40825E+4
   3.73679E+4  -2.32202E+4
   3.69360E+4  -2.24333E+4
   3.65484E+4  -2.16950E+4
   3.59699E+4  -2.13181E+4
   3.59563E+4  -2.04345E+4
   3.52544E+4  -1.97415E+4
   3.49930E+4  -1.87457E+4
   3.46749E+4  -1.85528E+4
   3.42969E+4  -1.74449E+4
   3.36267E+4  -1.69201E+4
   3.36599E+4  -1.63182E+4
   3.27427E+4  -1.58134E+4
   3.25708E+4  -1.50700E+4
   3.21835E+4  -1.45929E+4
   3.19018E+4  -1.39544E+4
   3.15493E+4  -1.34714E+4
   3.08003E+4  -1.25810E+4
   3.02705E+4  -1.21298E+4
   3.00003E+4  -1.18120E+4
   2.96962E+4  -1.12998E+4
   2.93356E+4  -1.05091E+4
   2.89630E+4  -9.97924E+3
   2.81984E+4  -9.38667E+3
   2.80579E+4  -8.80555E+3
   2.73470E+4  -8.53545E+3
   2.71784E+4  -7.93623E+3
   2.64915E+4  -7.53506E+3
   2.61635E+4  -6.96937E+3
   2.57802E+4  -6.56387E+3
   2.53689E+4  -6.05377E+3
   2.50606E+4  -5.73659E+3
   2.45999E+4  -5.24115E+3
   2.42266E+4  -5.09262E+3
   2.36881E+4  -4.73010E+3
   2.33514E+4  -4.16321E+3
   2.30270E+4  -3.84129E+3
   2.23915E+4  -3.64443E+3
   2.22423E+4  -2.97319E+3
   2.17709E+4  -2.74146E+3
   2.14681E+4  -2.49299E+3
   2.10767E+4  -1.92851E+3
   2.07080E+4  -1.76575E+3
   2.02928E+4  -1.13968E+3
   1.98992E+4  -8.26594E+2
   1.96682E+4  -7.22911E+2
   1.91733E+4  -3.28897E+2
