 LCModel (Version 6.3-1N) Copyright: S.W. Provencher.          Ref.: Magn. Reson. Med. 30:672-679 (1993).                
 Slice_N1@19_23  28-Feb-2025 11:41:36
 27 lines in following concentration table = NCONC+1
    Conc.  %SD /Cr+PCr  Metabolite                                         
 3.12E-04   6% 3.6E-04 Mac                                                 
    0.465 999%   0.543 Cr                                                  
    6.391  76%   7.457 PCr                                                 
    6.739  24%   7.864 Ins                                                 
    8.745  19%  10.205 NAA                                                 
    6.791  29%   7.924 Tau                                                 
    0.000 999%   0.000 PCho                                                
    1.253  49%   1.462 GPC                                                 
   12.887  15%  15.037 Glu                                                 
    3.701  38%   4.318 Gln                                                 
    0.000 999%   0.000 Ala                                                 
    0.000 999%   0.000 Asc                                                 
    1.523  84%   1.777 Asp                                                 
 3.30E-02 999% 3.9E-02 GABA                                                
    0.507 160%   0.592 Glc                                                 
    2.098  40%   2.448 GSH                                                 
    0.000 999%   0.000 Lac                                                 
    2.966  44%   3.461 NAAG                                                
    0.540 445%   0.630 PE                                                  
    1.253  49%   1.462 GPC+PCho                                            
   11.711  12%  13.665 NAA+NAAG                                            
   16.587  14%  19.355 Glu+Gln                                             
    6.856  18%   8.000 Cr+PCr                                              
   11.711  12%  13.665 NAA+NAAG                                            
    6.856  18%   8.000 Cr+PCr                                              
   16.587  14%  19.355 Glu+Gln                                             
   6 lines in following misc. output table
  FWHM = 0.065 ppm    S/N =   2                                            
  Data shift = 0.000 ppm                                                   
  Ph: -35 deg       0.0 deg/ppm                                            
  alphaB,S = 2.0E-01,   8.3E+01                                            
   19 spline knots.   Ns = 9(1)                                            
  (11) 2 infls.   (10) 1 extrs.                                            
  480 points on ppm-axis = NY
      4.100000     4.091866     4.083733     4.075600     4.067466     4.059333     4.051199     4.043066     4.034933     4.026799
      4.018666     4.010532     4.002399     3.994265     3.986132     3.977998     3.969864     3.961731     3.953597     3.945463
      3.937330     3.929196     3.921062     3.912929     3.904795     3.896662     3.888528     3.880394     3.872261     3.864127
      3.855993     3.847860     3.839726     3.831592     3.823459     3.815325     3.807191     3.799058     3.790924     3.782790
      3.774657     3.766523     3.758389     3.750256     3.742122     3.733989     3.725855     3.717721     3.709588     3.701454
      3.693320     3.685187     3.677053     3.668919     3.660786     3.652652     3.644518     3.636385     3.628251     3.620117
      3.611984     3.603850     3.595716     3.587583     3.579449     3.571316     3.563182     3.555048     3.546915     3.538781
      3.530647     3.522514     3.514380     3.506246     3.498113     3.489979     3.481845     3.473712     3.465578     3.457444
      3.449311     3.441177     3.433043     3.424910     3.416776     3.408643     3.400509     3.392375     3.384242     3.376108
      3.367974     3.359841     3.351707     3.343573     3.335440     3.327306     3.319172     3.311039     3.302905     3.294771
      3.286638     3.278504     3.270370     3.262237     3.254103     3.245970     3.237836     3.229702     3.221569     3.213435
      3.205301     3.197168     3.189034     3.180900     3.172767     3.164633     3.156499     3.148366     3.140232     3.132098
      3.123965     3.115831     3.107697     3.099564     3.091430     3.083297     3.075163     3.067029     3.058896     3.050762
      3.042628     3.034495     3.026361     3.018227     3.010094     3.001960     2.993826     2.985693     2.977559     2.969425
      2.961292     2.953158     2.945024     2.936891     2.928757     2.920624     2.912490     2.904356     2.896223     2.888089
      2.879955     2.871822     2.863688     2.855554     2.847421     2.839287     2.831153     2.823020     2.814886     2.806752
      2.798619     2.790485     2.782351     2.774218     2.766084     2.757951     2.749817     2.741683     2.733550     2.725416
      2.717282     2.709149     2.701015     2.692881     2.684748     2.676614     2.668480     2.660347     2.652213     2.644079
      2.635946     2.627812     2.619678     2.611545     2.603411     2.595278     2.587144     2.579010     2.570877     2.562743
      2.554609     2.546476     2.538342     2.530208     2.522075     2.513941     2.505807     2.497674     2.489540     2.481406
      2.473273     2.465139     2.457006     2.448872     2.440738     2.432605     2.424471     2.416337     2.408204     2.400070
      2.391936     2.383803     2.375669     2.367535     2.359402     2.351268     2.343134     2.335001     2.326867     2.318733
      2.310600     2.302466     2.294333     2.286199     2.278065     2.269932     2.261798     2.253664     2.245531     2.237397
      2.229263     2.221130     2.212996     2.204862     2.196729     2.188595     2.180461     2.172328     2.164194     2.156060
      2.147927     2.139793     2.131660     2.123526     2.115392     2.107259     2.099125     2.090991     2.082858     2.074724
      2.066590     2.058457     2.050323     2.042189     2.034056     2.025922     2.017788     2.009655     2.001521     1.993387
      1.985254     1.977120     1.968987     1.960853     1.952719     1.944586     1.936452     1.928318     1.920185     1.912051
      1.903917     1.895784     1.887650     1.879516     1.871383     1.863249     1.855115     1.846982     1.838848     1.830714
      1.822581     1.814447     1.806314     1.798180     1.790046     1.781913     1.773779     1.765645     1.757512     1.749378
      1.741244     1.733111     1.724977     1.716843     1.708710     1.700576     1.692442     1.684309     1.676175     1.668041
      1.659908     1.651774     1.643641     1.635507     1.627373     1.619240     1.611106     1.602972     1.594839     1.586705
      1.578571     1.570438     1.562304     1.554170     1.546037     1.537903     1.529769     1.521636     1.513502     1.505368
      1.497235     1.489101     1.480968     1.472834     1.464700     1.456567     1.448433     1.440299     1.432166     1.424032
      1.415898     1.407765     1.399631     1.391497     1.383364     1.375230     1.367096     1.358963     1.350829     1.342695
      1.334562     1.326428     1.318295     1.310161     1.302027     1.293894     1.285760     1.277626     1.269493     1.261359
      1.253225     1.245092     1.236958     1.228824     1.220691     1.212557     1.204423     1.196290     1.188156     1.180022
      1.171889     1.163755     1.155622     1.147488     1.139354     1.131221     1.123087     1.114953     1.106820     1.098686
      1.090552     1.082419     1.074285     1.066151     1.058018     1.049884     1.041750     1.033617     1.025483     1.017349
      1.009216     1.001082     0.992949     0.984815     0.976681     0.968548     0.960414     0.952280     0.944147     0.936013
      0.927879     0.919746     0.911612     0.903478     0.895345     0.887211     0.879077     0.870944     0.862810     0.854676
      0.846543     0.838409     0.830276     0.822142     0.814008     0.805875     0.797741     0.789607     0.781474     0.773340
      0.765206     0.757073     0.748939     0.740805     0.732672     0.724538     0.716404     0.708271     0.700137     0.692003
      0.683870     0.675736     0.667603     0.659469     0.651335     0.643202     0.635068     0.626934     0.618801     0.610667
      0.602533     0.594400     0.586266     0.578132     0.569999     0.561865     0.553731     0.545598     0.537464     0.529330
      0.521197     0.513063     0.504930     0.496796     0.488662     0.480529     0.472395     0.464261     0.456128     0.447994
      0.439861     0.431727     0.423593     0.415460     0.407326     0.399192     0.391059     0.382925     0.374792     0.366658
      0.358524     0.350391     0.342257     0.334124     0.325990     0.317856     0.309723     0.301589     0.293455     0.285322
      0.277188     0.269055     0.260921     0.252787     0.244654     0.236520     0.228386     0.220253     0.212119     0.203986
 NY phased data points follow
  -2.75028E+01 -3.86574E+01 -3.10136E+01 -3.67619E+01 -5.05670E+01 -4.69317E+01 -5.00785E+01 -4.31812E+01 -3.64903E+01 -4.05858E+01
  -5.70170E+01 -4.67604E+01 -5.00192E+01 -4.20087E+01 -4.48815E+01 -7.09786E+01 -4.84078E+01 -6.50120E+01 -7.27488E+01 -6.18450E+01
  -7.73350E+01 -8.62388E+01 -8.04706E+01 -7.10293E+01 -7.75620E+01 -6.23178E+01 -5.49412E+01 -5.85240E+01 -2.76345E+01 -8.69880E+00
  -1.10778E+01 -1.13769E+01 -1.74216E+01 -3.82004E+00 -6.89268E+00 -1.48784E+01 -1.32395E+01 -2.24777E+01 -2.11143E+01 -4.08066E+01
  -4.59451E+01 -4.81680E+01 -5.18985E+01 -5.00837E+01 -5.58172E+01 -5.29909E+01 -5.63175E+01 -3.68278E+01 -1.34058E+01 -1.44291E+01
  -7.36066E+00  2.42650E+01  1.61216E+01  1.42853E+01  1.87679E+01 -8.76141E+00  1.19928E+01  1.95625E+01  4.37261E+00 -5.77373E-01
  -1.18300E+01 -2.42346E+01 -7.73874E+00 -7.69680E+00 -2.79610E+01 -8.42365E+00 -2.72448E+00  6.21990E+00 -4.50091E+00 -1.33821E+01
   1.01008E+00 -3.93381E+00  3.04187E+00 -4.35526E+00 -2.55053E+01 -2.01436E+01 -1.22152E+00 -7.26983E+00  1.64692E+00  1.25724E+01
   1.23789E+01  2.45224E+01  8.95354E+00  7.42481E+00  1.24566E+01 -8.72855E-01 -3.42979E+00  5.74645E+00  1.77611E+01  6.48794E+00
   5.95166E+00  1.28486E+01  8.64401E+00  2.61813E+01  3.26543E+01  4.35288E+01  4.84069E+01  5.08176E+01  5.86859E+01  4.01099E+01
   6.16908E+01  5.89092E+01  3.91000E+01  4.21387E+01  2.86769E+01  3.46430E+01  1.11154E+01 -1.14819E+01 -1.88528E+01 -4.67675E+01
  -5.72538E+01 -7.53321E+01 -9.35648E+01 -7.98164E+01 -8.56936E+01 -9.69513E+01 -9.70986E+01 -9.16128E+01 -6.58688E+01 -7.35531E+01
  -5.85186E+01 -3.96194E+01 -4.13999E+01 -1.32636E+01 -1.23595E+01 -1.78406E+00  1.20710E+01  3.87434E+00  2.32629E+00  2.86322E+01
   5.49707E+01  3.87683E+01  5.67173E+01  4.45302E+01  4.78040E-01  2.03625E+01  3.14374E+00 -2.18192E+01 -4.13896E+01 -8.22130E+01
  -7.81617E+01 -8.97078E+01 -9.52370E+01 -8.20348E+01 -8.13671E+01 -7.61184E+01 -7.79404E+01 -7.66060E+01 -7.68584E+01 -7.33692E+01
  -7.73267E+01 -7.52066E+01 -6.79530E+01 -7.15566E+01 -6.44672E+01 -5.17660E+01 -5.61808E+01 -5.59833E+01 -4.25855E+01 -4.67311E+01
  -4.31562E+01 -4.78027E+01 -4.31009E+01 -4.20096E+01 -5.06285E+01 -4.22413E+01 -3.79099E+01 -2.46525E+01 -3.88863E+01 -3.53464E+01
  -3.24446E+01 -3.35291E+01 -1.31493E+01 -1.74309E+01 -1.37182E+01 -1.95367E+01 -1.15178E+01 -3.06862E+00  6.01808E-01  1.07697E+01
  -7.87488E+00 -1.60266E+01 -7.49853E+00 -2.10295E+01 -3.95998E+01 -3.85620E+01 -4.83820E+01 -4.34261E+01 -3.72771E+01 -3.71313E+01
  -3.10519E+01 -3.10950E+01 -2.08314E+01 -2.49802E+01 -2.48007E+01 -1.99276E+01 -1.83782E+01 -1.61480E+01 -1.35285E+01 -2.22895E+01
  -2.74426E+01 -1.16120E+01 -2.01063E+01 -1.87070E+01 -2.05944E+01 -3.25700E+01 -1.90992E+01 -1.62406E+01 -2.34724E+01 -3.77214E+01
  -5.33518E+01 -4.84609E+01 -4.84700E+01 -4.92631E+01 -3.55267E+01 -3.58077E+01 -2.46848E+01 -1.64746E+01 -1.80361E+01 -8.38204E+00
   2.05013E+00  1.71885E+01  1.90999E+01  3.06575E+01  1.94310E+01  3.61023E+00  1.28181E+01  2.70086E+00  2.82526E-01 -8.29497E+00
  -1.05415E+01 -8.78349E-01  9.65494E+00 -5.32568E+00 -3.27946E+01 -1.91246E+01 -3.00367E+01 -4.43392E+01 -5.48483E+01 -6.67775E+01
  -6.35917E+01 -7.30676E+01 -6.33311E+01 -7.27609E+01 -7.47894E+01 -6.61761E+01 -6.93682E+01 -4.79804E+01 -6.20161E+01 -6.36134E+01
  -4.15187E+01 -4.60177E+01 -5.58485E+01 -6.55300E+01 -5.57635E+01 -5.64479E+01 -5.62262E+01 -4.77103E+01 -2.88668E+01  9.01694E+00
   8.24513E+00  1.15234E+01  4.56984E+01  7.92956E+01  1.13009E+02  1.32333E+02  1.22543E+02  1.10912E+02  1.14281E+02  1.04287E+02
   9.31772E+01  8.84959E+01  9.05988E+01  9.47989E+01  9.59148E+01  9.39566E+01  9.99649E+01  1.05602E+02  9.10668E+01  9.44901E+01
   8.68087E+01  8.08885E+01  9.16249E+01  9.27455E+01  9.28929E+01  8.99097E+01  9.79692E+01  9.35597E+01  8.59302E+01  8.72143E+01
   9.97960E+01  9.74559E+01  9.08024E+01  8.84745E+01  7.80166E+01  8.81633E+01  7.57103E+01  7.40429E+01  6.43836E+01  6.16740E+01
   6.25409E+01  1.96769E+01 -5.41293E-02 -2.16299E+01 -1.71842E+01 -1.33280E+01 -4.19660E+01 -5.90371E+01 -6.80839E+01 -9.43386E+01
  -1.15644E+02 -9.92643E+01 -9.50831E+01 -7.77408E+01 -6.03379E+01 -6.03804E+01 -4.80081E+01 -1.88272E+01  1.87160E+00 -5.05913E+00
  -4.08834E+00  1.70115E+00  5.36433E-01  1.17646E+01  2.73092E+01  1.84676E+01  2.97736E+01  2.07853E+01  6.21828E+00  2.37898E+01
   1.65553E+01  1.13218E+01  8.32252E+00  1.29399E+01  3.70947E-01  3.50993E+00  4.75857E+00 -1.97053E+01 -1.52702E+01 -3.64825E+01
  -3.89336E+01 -1.49162E+01 -2.74018E+01 -3.26945E+01 -1.24589E+01 -6.57136E+00 -1.51322E+01 -2.79171E+01 -2.92402E+01 -2.34906E+01
  -1.09300E+01 -7.00313E+00 -1.50594E+01 -7.72981E+00 -3.63726E+00  4.47866E+00 -3.09607E+01 -2.04188E+01 -7.05719E+00 -3.68181E+01
  -1.09303E+01 -1.82839E+01 -8.15598E+00 -3.72179E+00 -5.81592E+00 -5.68097E+00 -2.15679E+00  1.42064E+01 -3.08829E+00  8.82017E+00
   8.03948E+00  2.06233E+01  1.92635E+01  5.65145E+00  1.51357E+01  2.34241E+01  2.25728E+01  2.96046E+01  5.47215E+01  4.21764E+01
   5.01362E+01  5.75529E+01  7.90811E+01  7.87793E+01  7.85914E+01  9.35088E+01  7.72346E+01  9.97743E+01  1.05035E+02  1.20017E+02
   1.16397E+02  1.27097E+02  1.26871E+02  1.13243E+02  1.22685E+02  9.32324E+01  1.01554E+02  8.62303E+01  9.43923E+01  8.28333E+01
   5.40185E+01  6.23443E+01  3.21383E+01  4.11181E+01  2.34769E+01  2.68599E+00  1.14049E+01 -6.89593E+00 -3.00980E+00  7.27956E+00
  -1.75432E+01 -2.56342E+01 -1.62685E+01 -2.88508E+01 -2.31405E+01 -1.01021E+01 -1.23996E+01 -1.80266E+01 -1.65090E+01 -1.95695E+01
  -1.66758E+01 -1.73069E+01 -1.38595E+01 -1.75150E+01 -2.74851E+01 -9.32928E+00 -2.82161E+01 -2.14706E+01 -1.02567E+01 -2.82868E+01
  -1.36206E+01 -2.19944E+01 -2.72839E+01 -2.41732E+01 -2.70270E+01 -3.01897E+01 -3.09786E+01 -1.84783E+01 -1.89112E+01 -1.25396E+01
  -1.15457E+01 -1.84833E+01 -1.18707E+01 -2.42394E+01 -3.05799E+01 -2.39530E+01 -2.18505E+01 -1.04079E+01 -4.50994E+00 -1.32958E+01
  -2.16792E+01 -1.80125E+01 -2.73350E+01 -1.62226E+01 -1.08833E+01 -2.42130E+01  4.22178E+00 -1.24692E+00 -1.85576E+01 -1.13827E+01
  -1.24145E+01 -1.58025E+01 -2.25109E+01 -2.58915E+01 -2.24170E+01 -1.20536E+01 -1.98683E+01 -4.24938E+00  3.16981E+00 -1.09315E+01
  -5.27118E+00 -2.12328E+01 -7.06222E+00 -6.11152E+00 -1.86670E+01 -1.90666E+00 -1.56331E+01 -5.47323E+00  5.62408E+00 -1.24743E+01
 NY points of the fit to the data follow
  -4.58826E+01 -4.65265E+01 -4.72137E+01 -4.80346E+01 -4.90046E+01 -4.99875E+01 -5.07746E+01 -5.12164E+01 -5.10982E+01 -5.02239E+01
  -4.83600E+01 -4.56725E+01 -4.32592E+01 -4.24059E+01 -4.40633E+01 -4.85833E+01 -5.50647E+01 -6.18975E+01 -6.81926E+01 -7.35900E+01
  -7.75608E+01 -7.95988E+01 -7.93655E+01 -7.68025E+01 -7.17436E+01 -6.37857E+01 -5.28429E+01 -3.97458E+01 -2.61896E+01 -1.43147E+01
  -6.18306E+00 -2.56462E+00 -5.03567E-01  1.16934E+00  1.98290E+00  1.45381E+00 -8.23521E-01 -4.98205E+00 -1.08590E+01 -1.80607E+01
  -2.59793E+01 -3.38745E+01 -4.09658E+01 -4.64980E+01 -4.97788E+01 -5.00940E+01 -4.67985E+01 -3.95936E+01 -2.89478E+01 -1.62771E+01
  -3.69956E+00  6.10848E+00  1.23196E+01  1.48762E+01  1.39761E+01  1.07133E+01  6.10097E+00  9.21388E-01 -4.38098E+00 -9.31735E+00
  -1.32585E+01 -1.57310E+01 -1.67524E+01 -1.65703E+01 -1.53458E+01 -1.31869E+01 -1.03119E+01 -7.20719E+00 -4.08222E+00 -1.73643E+00
  -1.40123E+00 -2.35366E+00 -4.13350E+00 -7.20736E+00 -1.01393E+01 -1.15063E+01 -1.03619E+01 -6.48864E+00 -4.03297E-01  6.47125E+00
   1.18002E+01  1.45252E+01  1.50638E+01  1.30857E+01  8.61519E+00  2.79676E+00 -3.30300E+00 -8.81824E+00 -1.27384E+01 -1.40583E+01
  -1.20672E+01 -6.85503E+00  5.57137E-01  9.08892E+00  1.69816E+01  2.41784E+01  3.01326E+01  3.53080E+01  3.97758E+01  4.33013E+01
   4.59389E+01  4.73640E+01  4.70066E+01  4.43338E+01  3.89683E+01  3.08501E+01  1.99489E+01  6.39351E+00 -9.33689E+00 -2.62716E+01
  -4.30208E+01 -5.77990E+01 -6.91729E+01 -7.76820E+01 -8.36505E+01 -8.63901E+01 -8.60745E+01 -8.15281E+01 -7.30258E+01 -6.18341E+01
  -5.18705E+01 -4.36587E+01 -3.65402E+01 -2.90758E+01 -2.05766E+01 -1.09130E+01 -2.75020E-01  1.08277E+01  2.18031E+01  3.18464E+01
   3.98740E+01  4.46657E+01  4.54121E+01  4.18004E+01  3.39400E+01  2.18787E+01  5.40085E+00 -1.46887E+01 -3.59570E+01 -5.49824E+01
  -6.84209E+01 -7.39606E+01 -7.22695E+01 -7.03243E+01 -6.94281E+01 -6.92576E+01 -6.95227E+01 -6.99056E+01 -7.00700E+01 -6.97050E+01
  -6.87832E+01 -6.72589E+01 -6.52340E+01 -6.28892E+01 -6.02725E+01 -5.76587E+01 -5.51718E+01 -5.28619E+01 -5.07379E+01 -4.87315E+01
  -4.68444E+01 -4.50906E+01 -4.35630E+01 -4.23712E+01 -4.14162E+01 -4.04720E+01 -3.94065E+01 -3.82315E+01 -3.70032E+01 -3.56201E+01
  -3.38214E+01 -3.14834E+01 -2.87058E+01 -2.57788E+01 -2.28795E+01 -1.99728E+01 -1.70649E+01 -1.45113E+01 -1.30407E+01 -1.32978E+01
  -1.52466E+01 -1.82440E+01 -2.15060E+01 -2.46807E+01 -2.83456E+01 -3.29266E+01 -3.78062E+01 -4.18532E+01 -4.42060E+01 -4.49339E+01
  -4.47077E+01 -4.36366E+01 -4.17652E+01 -3.92776E+01 -3.63645E+01 -3.32155E+01 -3.00049E+01 -2.68689E+01 -2.38967E+01 -2.11455E+01
  -1.88066E+01 -1.68655E+01 -1.52990E+01 -1.44394E+01 -1.43183E+01 -1.47050E+01 -1.59737E+01 -1.87647E+01 -2.27648E+01 -2.76622E+01
  -3.30597E+01 -3.84773E+01 -4.31161E+01 -4.57537E+01 -4.55622E+01 -4.22823E+01 -3.59453E+01 -2.66610E+01 -1.50278E+01 -2.00269E+00
   1.12532E+01  2.32274E+01  3.22788E+01  3.71171E+01  3.75915E+01  3.39408E+01  2.79040E+01  2.15775E+01  1.48035E+01  8.75701E+00
   2.50950E+00 -4.74141E+00 -1.32195E+01 -2.28962E+01 -3.33211E+01 -4.40199E+01 -5.43287E+01 -6.35793E+01 -7.12455E+01 -7.68811E+01
  -8.01768E+01 -8.11800E+01 -7.99678E+01 -7.68148E+01 -7.22469E+01 -6.73512E+01 -6.25165E+01 -5.77420E+01 -5.40472E+01 -5.20765E+01
  -5.20765E+01 -5.38783E+01 -5.68518E+01 -5.97542E+01 -6.19210E+01 -6.19423E+01 -5.85793E+01 -5.04796E+01 -3.71520E+01 -1.97369E+01
   1.05899E-01  2.15425E+01  4.33876E+01  6.46100E+01  8.41941E+01  1.00095E+02  1.08183E+02  1.06040E+02  9.87636E+01  9.21047E+01
   8.65806E+01  8.20350E+01  7.82732E+01  7.51322E+01  7.25523E+01  7.05354E+01  6.90233E+01  6.79013E+01  6.69758E+01  6.61197E+01
   6.51630E+01  6.40473E+01  6.27357E+01  6.12203E+01  5.95082E+01  5.75850E+01  5.54651E+01  5.30911E+01  5.04797E+01  4.76222E+01
   4.45385E+01  4.12185E+01  3.76663E+01  3.39188E+01  3.00884E+01  2.63057E+01  2.27081E+01  1.94897E+01  1.68383E+01  1.49192E+01
   1.38581E+01  1.36933E+01  1.43946E+01  1.58568E+01  1.78479E+01  2.01557E+01  2.26173E+01  2.51396E+01  2.76677E+01  3.01799E+01
   3.26455E+01  3.50308E+01  3.73469E+01  3.96031E+01  4.17721E+01  4.37890E+01  4.55616E+01  4.69879E+01  4.80026E+01  4.85920E+01
   4.87378E+01  4.83736E+01  4.74362E+01  4.58288E+01  4.35003E+01  4.04130E+01  3.64859E+01  3.16620E+01  2.59842E+01  1.94946E+01
   1.23133E+01  4.65646E+00 -3.18154E+00 -1.08999E+01 -1.80682E+01 -2.42356E+01 -2.90122E+01 -3.21194E+01 -3.35100E+01 -3.32970E+01
  -3.16960E+01 -2.90128E+01 -2.56303E+01 -2.19391E+01 -1.82188E+01 -1.46315E+01 -1.11790E+01 -7.83165E+00 -4.63931E+00 -1.72988E+00
   6.46325E-01  2.22403E+00  2.81484E+00  2.39486E+00  1.04658E+00 -1.05124E+00 -3.64330E+00 -6.52651E+00 -9.47318E+00 -1.21841E+01
  -1.43297E+01 -1.56385E+01 -1.59281E+01 -1.51252E+01 -1.33217E+01 -1.07284E+01 -7.59411E+00 -4.09873E+00 -4.29133E-01  3.28463E+00
   6.95822E+00  1.05359E+01  1.40378E+01  1.75046E+01  2.09993E+01  2.46239E+01  2.84480E+01  3.25677E+01  3.70817E+01  4.20974E+01
   4.77520E+01  5.41145E+01  6.11616E+01  6.87811E+01  7.67305E+01  8.46681E+01  9.22079E+01  9.89265E+01  1.04334E+02  1.08049E+02
   1.09777E+02  1.09265E+02  1.06393E+02  1.01267E+02  9.42026E+01  8.56877E+01  7.63581E+01  6.68169E+01  5.74923E+01  4.85691E+01
   3.99728E+01  3.15681E+01  2.32869E+01  1.52003E+01  7.45325E+00  3.31802E-01 -5.87804E+00 -1.10128E+01 -1.50844E+01 -1.81627E+01
  -2.04064E+01 -2.20484E+01 -2.32260E+01 -2.40709E+01 -2.46695E+01 -2.51044E+01 -2.53847E+01 -2.55075E+01 -2.54801E+01 -2.53299E+01
  -2.51020E+01 -2.48418E+01 -2.45732E+01 -2.42963E+01 -2.39897E+01 -2.36693E+01 -2.33298E+01 -2.29666E+01 -2.25831E+01 -2.22277E+01
  -2.19051E+01 -2.15630E+01 -2.12043E+01 -2.08493E+01 -2.04956E+01 -2.01242E+01 -1.97372E+01 -1.93640E+01 -1.90192E+01 -1.86796E+01
  -1.83000E+01 -1.78869E+01 -1.74441E+01 -1.69956E+01 -1.65748E+01 -1.61940E+01 -1.58607E+01 -1.55551E+01 -1.52862E+01 -1.50223E+01
  -1.47591E+01 -1.44781E+01 -1.41667E+01 -1.38053E+01 -1.34015E+01 -1.29945E+01 -1.25947E+01 -1.21988E+01 -1.17944E+01 -1.13795E+01
  -1.09642E+01 -1.05464E+01 -1.01580E+01 -9.80589E+00 -9.46596E+00 -9.13363E+00 -8.80187E+00 -8.45914E+00 -8.10947E+00 -7.75068E+00
  -7.37137E+00 -6.96713E+00 -6.54069E+00 -6.11365E+00 -5.73027E+00 -5.40634E+00 -5.15581E+00 -4.97250E+00 -4.80014E+00 -4.59905E+00
 NY background values follow
    -1.933E+01   -1.920E+01   -1.906E+01   -1.893E+01   -1.880E+01   -1.866E+01   -1.853E+01   -1.840E+01   -1.826E+01   -1.813E+01
    -1.799E+01   -1.786E+01   -1.773E+01   -1.759E+01   -1.746E+01   -1.732E+01   -1.718E+01   -1.705E+01   -1.691E+01   -1.677E+01
    -1.664E+01   -1.650E+01   -1.636E+01   -1.622E+01   -1.608E+01   -1.594E+01   -1.580E+01   -1.565E+01   -1.551E+01   -1.537E+01
    -1.522E+01   -1.508E+01   -1.493E+01   -1.479E+01   -1.464E+01   -1.449E+01   -1.434E+01   -1.419E+01   -1.404E+01   -1.389E+01
    -1.374E+01   -1.359E+01   -1.344E+01   -1.329E+01   -1.314E+01   -1.298E+01   -1.283E+01   -1.268E+01   -1.253E+01   -1.237E+01
    -1.222E+01   -1.207E+01   -1.191E+01   -1.176E+01   -1.161E+01   -1.145E+01   -1.130E+01   -1.115E+01   -1.100E+01   -1.085E+01
    -1.069E+01   -1.054E+01   -1.039E+01   -1.024E+01   -1.009E+01   -9.945E+00   -9.796E+00   -9.648E+00   -9.501E+00   -9.354E+00
    -9.208E+00   -9.063E+00   -8.919E+00   -8.775E+00   -8.632E+00   -8.490E+00   -8.349E+00   -8.209E+00   -8.070E+00   -7.932E+00
    -7.795E+00   -7.658E+00   -7.523E+00   -7.390E+00   -7.257E+00   -7.125E+00   -6.995E+00   -6.866E+00   -6.738E+00   -6.612E+00
    -6.486E+00   -6.363E+00   -6.240E+00   -6.119E+00   -5.999E+00   -5.881E+00   -5.763E+00   -5.647E+00   -5.532E+00   -5.417E+00
    -5.304E+00   -5.192E+00   -5.081E+00   -4.970E+00   -4.861E+00   -4.752E+00   -4.644E+00   -4.536E+00   -4.430E+00   -4.323E+00
    -4.218E+00   -4.113E+00   -4.009E+00   -3.905E+00   -3.801E+00   -3.698E+00   -3.595E+00   -3.492E+00   -3.390E+00   -3.288E+00
    -3.186E+00   -3.084E+00   -2.983E+00   -2.881E+00   -2.780E+00   -2.679E+00   -2.578E+00   -2.477E+00   -2.377E+00   -2.277E+00
    -2.177E+00   -2.078E+00   -1.978E+00   -1.880E+00   -1.781E+00   -1.683E+00   -1.585E+00   -1.488E+00   -1.391E+00   -1.295E+00
    -1.199E+00   -1.103E+00   -1.008E+00   -9.137E-01   -8.197E-01   -7.263E-01   -6.334E-01   -5.411E-01   -4.493E-01   -3.582E-01
    -2.677E-01   -1.778E-01   -8.871E-02   -3.962E-04    8.703E-02    1.735E-01    2.589E-01    3.432E-01    4.263E-01    5.082E-01
     5.887E-01    6.677E-01    7.453E-01    8.213E-01    8.956E-01    9.683E-01    1.039E+00    1.108E+00    1.175E+00    1.240E+00
     1.303E+00    1.363E+00    1.422E+00    1.478E+00    1.531E+00    1.582E+00    1.631E+00    1.677E+00    1.720E+00    1.760E+00
     1.798E+00    1.832E+00    1.864E+00    1.893E+00    1.918E+00    1.941E+00    1.961E+00    1.978E+00    1.992E+00    2.003E+00
     2.011E+00    2.017E+00    2.019E+00    2.018E+00    2.015E+00    2.008E+00    1.999E+00    1.987E+00    1.971E+00    1.953E+00
     1.932E+00    1.908E+00    1.881E+00    1.851E+00    1.818E+00    1.782E+00    1.743E+00    1.702E+00    1.657E+00    1.609E+00
     1.559E+00    1.506E+00    1.449E+00    1.390E+00    1.327E+00    1.262E+00    1.193E+00    1.122E+00    1.047E+00    9.697E-01
     8.889E-01    8.050E-01    7.179E-01    6.277E-01    5.343E-01    4.377E-01    3.378E-01    2.347E-01    1.284E-01    1.879E-02
    -9.412E-02   -2.103E-01   -3.299E-01   -4.528E-01   -5.791E-01   -7.088E-01   -8.418E-01   -9.783E-01   -1.118E+00   -1.262E+00
    -1.409E+00   -1.559E+00   -1.713E+00   -1.870E+00   -2.031E+00   -2.196E+00   -2.364E+00   -2.537E+00   -2.712E+00   -2.892E+00
    -3.075E+00   -3.262E+00   -3.453E+00   -3.648E+00   -3.847E+00   -4.050E+00   -4.256E+00   -4.467E+00   -4.682E+00   -4.900E+00
    -5.123E+00   -5.350E+00   -5.581E+00   -5.817E+00   -6.056E+00   -6.300E+00   -6.548E+00   -6.800E+00   -7.057E+00   -7.318E+00
    -7.584E+00   -7.853E+00   -8.127E+00   -8.404E+00   -8.685E+00   -8.968E+00   -9.255E+00   -9.543E+00   -9.834E+00   -1.013E+01
    -1.042E+01   -1.072E+01   -1.101E+01   -1.131E+01   -1.161E+01   -1.190E+01   -1.220E+01   -1.249E+01   -1.279E+01   -1.308E+01
    -1.337E+01   -1.366E+01   -1.395E+01   -1.424E+01   -1.452E+01   -1.480E+01   -1.507E+01   -1.535E+01   -1.561E+01   -1.588E+01
    -1.614E+01   -1.639E+01   -1.664E+01   -1.688E+01   -1.712E+01   -1.735E+01   -1.758E+01   -1.780E+01   -1.802E+01   -1.823E+01
    -1.843E+01   -1.862E+01   -1.881E+01   -1.900E+01   -1.917E+01   -1.934E+01   -1.950E+01   -1.965E+01   -1.980E+01   -1.994E+01
    -2.006E+01   -2.019E+01   -2.030E+01   -2.040E+01   -2.050E+01   -2.058E+01   -2.066E+01   -2.073E+01   -2.079E+01   -2.084E+01
    -2.088E+01   -2.091E+01   -2.093E+01   -2.094E+01   -2.094E+01   -2.093E+01   -2.092E+01   -2.089E+01   -2.086E+01   -2.082E+01
    -2.077E+01   -2.072E+01   -2.065E+01   -2.058E+01   -2.050E+01   -2.042E+01   -2.033E+01   -2.023E+01   -2.013E+01   -2.002E+01
    -1.990E+01   -1.978E+01   -1.965E+01   -1.952E+01   -1.938E+01   -1.924E+01   -1.910E+01   -1.894E+01   -1.879E+01   -1.863E+01
    -1.847E+01   -1.830E+01   -1.813E+01   -1.796E+01   -1.778E+01   -1.760E+01   -1.742E+01   -1.723E+01   -1.704E+01   -1.685E+01
    -1.666E+01   -1.646E+01   -1.627E+01   -1.607E+01   -1.587E+01   -1.567E+01   -1.546E+01   -1.526E+01   -1.506E+01   -1.485E+01
    -1.464E+01   -1.444E+01   -1.423E+01   -1.402E+01   -1.381E+01   -1.361E+01   -1.340E+01   -1.319E+01   -1.299E+01   -1.278E+01
    -1.258E+01   -1.237E+01   -1.217E+01   -1.197E+01   -1.177E+01   -1.157E+01   -1.137E+01   -1.117E+01   -1.098E+01   -1.078E+01
    -1.059E+01   -1.040E+01   -1.021E+01   -1.002E+01   -9.831E+00   -9.645E+00   -9.460E+00   -9.278E+00   -9.096E+00   -8.917E+00
    -8.739E+00   -8.563E+00   -8.389E+00   -8.216E+00   -8.045E+00   -7.877E+00   -7.710E+00   -7.545E+00   -7.382E+00   -7.221E+00
    -7.063E+00   -6.906E+00   -6.751E+00   -6.599E+00   -6.448E+00   -6.299E+00   -6.152E+00   -6.006E+00   -5.862E+00   -5.720E+00
    -5.579E+00   -5.440E+00   -5.302E+00   -5.165E+00   -5.030E+00   -4.896E+00   -4.764E+00   -4.632E+00   -4.502E+00   -4.372E+00
    -4.244E+00   -4.116E+00   -3.990E+00   -3.864E+00   -3.739E+00   -3.615E+00   -3.491E+00   -3.368E+00   -3.245E+00   -3.123E+00
    -3.001E+00   -2.880E+00   -2.759E+00   -2.638E+00   -2.518E+00   -2.398E+00   -2.279E+00   -2.160E+00   -2.041E+00   -1.922E+00
    -1.803E+00   -1.685E+00   -1.567E+00   -1.449E+00   -1.332E+00   -1.214E+00   -1.097E+00   -9.800E-01   -8.629E-01   -7.460E-01
    -6.291E-01   -5.124E-01   -3.956E-01   -2.789E-01   -1.622E-01   -4.557E-02    7.112E-02    1.878E-01    3.046E-01    4.215E-01
 Mac      Conc. = 3.12E-04
  -3.88428E+01 -3.91739E+01 -3.95056E+01 -3.98775E+01 -4.03091E+01 -4.08001E+01 -4.13731E+01 -4.20358E+01 -4.27524E+01 -4.35550E+01
  -4.44984E+01 -4.56156E+01 -4.68719E+01 -4.82027E+01 -4.94845E+01 -5.05949E+01 -5.14095E+01 -5.18409E+01 -5.18492E+01 -5.14461E+01
  -5.06392E+01 -4.93944E+01 -4.75978E+01 -4.52024E+01 -4.22293E+01 -3.88724E+01 -3.54496E+01 -3.22998E+01 -2.96154E+01 -2.73043E+01
  -2.52670E+01 -2.34850E+01 -2.18298E+01 -2.02011E+01 -1.86357E+01 -1.71943E+01 -1.59297E+01 -1.48102E+01 -1.38229E+01 -1.29006E+01
  -1.19744E+01 -1.09679E+01 -9.81739E+00 -8.50165E+00 -7.06778E+00 -5.69267E+00 -4.54528E+00 -3.71729E+00 -3.16419E+00 -2.77595E+00
  -2.50301E+00 -2.41901E+00 -2.64316E+00 -3.18107E+00 -3.94914E+00 -4.78755E+00 -5.50145E+00 -5.98609E+00 -6.15862E+00 -6.00517E+00
  -5.52917E+00 -4.80858E+00 -3.91837E+00 -2.94020E+00 -2.00030E+00 -1.19049E+00 -5.97633E-01 -2.64180E-01 -1.51853E-01 -1.61341E-01
  -2.17056E-01 -1.93032E-01  7.20413E-02  6.45542E-01  1.50585E+00  2.61712E+00  3.86732E+00  5.15659E+00  6.35077E+00  7.30427E+00
   7.86454E+00  8.01222E+00  7.87003E+00  7.60517E+00  7.34103E+00  7.17890E+00  7.21535E+00  7.47109E+00  7.96250E+00  8.65461E+00
   9.49516E+00  1.04143E+01  1.13035E+01  1.20560E+01  1.25996E+01  1.29049E+01  1.29221E+01  1.26531E+01  1.20760E+01  1.11986E+01
   9.95433E+00  8.31240E+00  6.24021E+00  3.73266E+00  8.08194E-01 -2.47511E+00 -6.11126E+00 -1.00660E+01 -1.42661E+01 -1.86095E+01
