 
 $NMID
 ID=''
 FMTDAT='(2E13.5)'
 TRAMP=   1.00000E+0
 VOLUME=   1.00000E+0
 $END
  -4.55957E+5   4.57935E+5
  -1.58886E+6   7.75716E+5
  -1.42510E+6   9.56238E+5
  -1.35717E+6   8.09689E+5
  -1.45655E+6   8.23191E+5
  -1.38455E+6   9.20149E+5
  -1.31855E+6   8.80401E+5
  -1.36814E+6   8.72952E+5
  -1.33942E+6   9.10803E+5
  -1.30541E+6   8.80188E+5
  -1.32387E+6   8.71381E+5
  -1.30120E+6   8.86833E+5
  -1.27974E+6   8.66584E+5
  -1.29040E+6   8.60503E+5
  -1.26995E+6   8.62158E+5
  -1.25049E+6   8.45045E+5
  -1.25543E+6   8.47579E+5
  -1.23891E+6   8.53652E+5
  -1.22071E+6   8.44553E+5
  -1.21262E+6   8.53895E+5
  -1.19410E+6   8.59801E+5
  -1.18037E+6   8.52758E+5
  -1.17470E+6   8.55227E+5
  -1.15964E+6   8.56468E+5
  -1.14732E+6   8.46559E+5
  -1.13638E+6   8.49083E+5
  -1.12731E+6   8.46329E+5
  -1.12114E+6   8.34659E+5
  -1.11148E+6   8.28185E+5
  -1.09726E+6   8.27721E+5
  -1.09031E+6   8.23729E+5
  -1.07852E+6   8.22827E+5
  -1.06481E+6   8.21300E+5
  -1.05398E+6   8.21750E+5
  -1.03860E+6   8.24747E+5
  -1.02192E+6   8.28483E+5
  -1.01268E+6   8.32803E+5
  -1.00143E+6   8.33912E+5
  -9.85686E+5   8.29400E+5
  -9.75830E+5   8.29010E+5
  -9.65109E+5   8.27748E+5
  -9.52652E+5   8.21938E+5
  -9.41226E+5   8.18283E+5
  -9.31161E+5   8.17056E+5
  -9.21843E+5   8.11439E+5
  -9.14231E+5   8.07113E+5
  -9.04438E+5   8.03550E+5
  -8.93894E+5   7.97749E+5
  -8.82367E+5   7.93392E+5
  -8.71089E+5   7.92061E+5
  -8.60012E+5   7.89942E+5
  -8.50268E+5   7.87489E+5
  -8.39601E+5   7.85179E+5
  -8.29746E+5   7.81939E+5
  -8.20586E+5   7.77539E+5
  -8.11115E+5   7.73607E+5
  -8.01567E+5   7.66998E+5
  -7.92563E+5   7.60637E+5
  -7.82397E+5   7.55537E+5
  -7.73823E+5   7.51406E+5
  -7.66505E+5   7.46191E+5
  -7.58540E+5   7.40235E+5
  -7.49969E+5   7.34396E+5
  -7.41967E+5   7.28037E+5
  -7.32816E+5   7.22023E+5
  -7.23450E+5   7.15596E+5
  -7.13568E+5   7.10354E+5
  -7.05191E+5   7.05361E+5
  -6.98281E+5   7.00572E+5
  -6.92541E+5   6.93733E+5
  -6.84740E+5   6.85873E+5
  -6.76494E+5   6.79761E+5
  -6.69502E+5   6.73870E+5
  -6.63883E+5   6.66888E+5
  -6.56866E+5   6.59221E+5
  -6.48772E+5   6.52192E+5
  -6.42128E+5   6.46261E+5
  -6.36043E+5   6.39385E+5
  -6.28986E+5   6.32236E+5
  -6.22121E+5   6.25045E+5
  -6.15483E+5   6.17901E+5
  -6.08775E+5   6.10721E+5
  -6.02643E+5   6.03456E+5
  -5.97442E+5   5.95733E+5
  -5.92098E+5   5.87158E+5
  -5.85933E+5   5.79626E+5
  -5.79987E+5   5.71835E+5
  -5.75016E+5   5.63860E+5
  -5.69760E+5   5.55528E+5
  -5.63252E+5   5.47777E+5
  -5.57259E+5   5.40706E+5
  -5.51899E+5   5.33932E+5
  -5.46376E+5   5.26486E+5
  -5.40135E+5   5.18644E+5
  -5.33475E+5   5.11489E+5
  -5.26735E+5   5.05351E+5
  -5.21911E+5   4.99046E+5
  -5.16451E+5   4.91957E+5
  -5.10621E+5   4.84955E+5
  -5.04897E+5   4.78334E+5
  -5.00460E+5   4.71315E+5
  -4.96234E+5   4.64357E+5
  -4.90406E+5   4.55722E+5
  -4.84771E+5   4.48403E+5
  -4.79049E+5   4.42148E+5
  -4.74327E+5   4.35688E+5
  -4.69986E+5   4.28775E+5
  -4.65311E+5   4.21178E+5
  -4.59561E+5   4.14114E+5
  -4.53206E+5   4.08140E+5
  -4.48893E+5   4.02376E+5
  -4.45027E+5   3.95799E+5
  -4.40588E+5   3.88387E+5
  -4.36336E+5   3.81143E+5
  -4.31677E+5   3.74332E+5
  -4.28054E+5   3.67758E+5
  -4.24016E+5   3.60154E+5
  -4.19291E+5   3.52838E+5
  -4.13854E+5   3.46411E+5
  -4.09423E+5   3.40990E+5
  -4.05698E+5   3.35201E+5
  -4.01959E+5   3.28803E+5
  -3.98044E+5   3.22058E+5
  -3.93973E+5   3.15634E+5
  -3.90435E+5   3.09404E+5
  -3.86154E+5   3.02922E+5
  -3.81654E+5   2.96688E+5
  -3.78206E+5   2.90246E+5
  -3.74897E+5   2.84414E+5
  -3.71799E+5   2.77679E+5
  -3.68846E+5   2.70244E+5
  -3.65655E+5   2.63633E+5
  -3.61815E+5   2.57034E+5
  -3.58595E+5   2.51348E+5
  -3.55681E+5   2.44987E+5
  -3.52372E+5   2.38518E+5
  -3.48603E+5   2.32539E+5
  -3.45636E+5   2.26989E+5
  -3.42664E+5   2.21305E+5
  -3.39614E+5   2.14825E+5
  -3.35973E+5   2.08978E+5
  -3.31888E+5   2.03932E+5
  -3.28416E+5   1.98563E+5
  -3.25528E+5   1.93089E+5
  -3.23131E+5   1.87107E+5
  -3.19932E+5   1.81325E+5
  -3.16009E+5   1.75972E+5
  -3.12729E+5   1.70770E+5
  -3.09338E+5   1.65366E+5
  -3.05957E+5   1.60251E+5
  -3.03021E+5   1.55104E+5
  -2.99318E+5   1.50500E+5
  -2.96139E+5   1.45922E+5
  -2.93397E+5   1.41560E+5
  -2.90020E+5   1.36482E+5
  -2.86157E+5   1.32173E+5
  -2.83267E+5   1.28228E+5
  -2.80042E+5   1.24025E+5
  -2.76820E+5   1.19505E+5
  -2.73501E+5   1.15560E+5
  -2.70231E+5   1.11667E+5
  -2.67253E+5   1.07713E+5
  -2.63846E+5   1.03476E+5
  -2.60535E+5   9.96749E+4
  -2.57010E+5   9.59843E+4
  -2.53914E+5   9.27945E+4
  -2.51176E+5   8.92590E+4
  -2.48287E+5   8.55779E+4
  -2.44958E+5   8.20183E+4
  -2.41888E+5   7.86584E+4
  -2.38998E+5   7.58154E+4
  -2.36203E+5   7.25680E+4
  -2.33065E+5   6.90888E+4
  -2.29985E+5   6.57734E+4
  -2.27113E+5   6.29355E+4
  -2.24573E+5   6.00714E+4
  -2.21900E+5   5.66355E+4
  -2.18949E+5   5.36583E+4
  -2.16071E+5   5.03065E+4
  -2.13343E+5   4.77915E+4
  -2.10963E+5   4.49234E+4
  -2.08264E+5   4.20701E+4
  -2.05480E+5   3.88340E+4
  -2.02925E+5   3.61440E+4
  -2.00331E+5   3.35466E+4
  -1.97963E+5   3.11253E+4
  -1.95388E+5   2.87277E+4
  -1.92779E+5   2.62933E+4
  -1.90473E+5   2.40046E+4
  -1.88428E+5   2.17895E+4
  -1.86411E+5   1.89872E+4
  -1.83808E+5   1.63424E+4
  -1.81169E+5   1.37705E+4
  -1.78692E+5   1.15444E+4
  -1.76477E+5   9.49564E+3
  -1.74244E+5   7.07645E+3
  -1.72531E+5   4.80470E+3
  -1.69800E+5   2.70850E+3
  -1.67840E+5   6.15374E+2
  -1.65673E+5  -1.87281E+3
  -1.63340E+5  -3.97607E+3
  -1.61024E+5  -6.02087E+3
  -1.58801E+5  -7.43797E+3
  -1.57183E+5  -9.42648E+3
  -1.54781E+5  -1.11785E+4
  -1.52646E+5  -1.33834E+4
  -1.50523E+5  -1.47732E+4
  -1.48194E+5  -1.67139E+4
  -1.46298E+5  -1.83299E+4
  -1.44313E+5  -2.03448E+4
  -1.42250E+5  -2.14515E+4
  -1.40052E+5  -2.28385E+4
  -1.38225E+5  -2.42737E+4
  -1.36233E+5  -2.58814E+4
  -1.34244E+5  -2.73644E+4
  -1.31929E+5  -2.87819E+4
  -1.29657E+5  -2.96348E+4
  -1.27661E+5  -3.04914E+4
  -1.25896E+5  -3.16972E+4
  -1.23826E+5  -3.27174E+4
  -1.21832E+5  -3.38482E+4
  -1.20048E+5  -3.44831E+4
  -1.17964E+5  -3.55462E+4
  -1.15595E+5  -3.64750E+4
  -1.13708E+5  -3.72073E+4
  -1.11519E+5  -3.79378E+4
  -1.09859E+5  -3.85829E+4
  -1.08242E+5  -3.96130E+4
  -1.06156E+5  -4.01480E+4
  -1.04266E+5  -4.11324E+4
  -1.02208E+5  -4.16410E+4
  -1.00227E+5  -4.20893E+4
  -9.84899E+4  -4.24668E+4
  -9.66216E+4  -4.29813E+4
  -9.46896E+4  -4.33390E+4
  -9.31971E+4  -4.38131E+4
  -9.14441E+4  -4.39179E+4
  -8.95002E+4  -4.46739E+4
  -8.76123E+4  -4.49530E+4
  -8.61130E+4  -4.51311E+4
  -8.44548E+4  -4.53367E+4
  -8.29220E+4  -4.56857E+4
  -8.11931E+4  -4.59855E+4
  -7.93700E+4  -4.64282E+4
  -7.76970E+4  -4.62762E+4
  -7.62653E+4  -4.64487E+4
  -7.48334E+4  -4.65566E+4
  -7.29589E+4  -4.65695E+4
  -7.14740E+4  -4.66975E+4
  -6.96706E+4  -4.68664E+4
  -6.86750E+4  -4.70899E+4
  -6.68430E+4  -4.71109E+4
  -6.53719E+4  -4.73768E+4
  -6.37111E+4  -4.72084E+4
  -6.27142E+4  -4.71419E+4
  -6.12365E+4  -4.71673E+4
  -5.97923E+4  -4.74051E+4
  -5.85919E+4  -4.75028E+4
  -5.69219E+4  -4.72738E+4
  -5.57198E+4  -4.76722E+4
  -5.42547E+4  -4.76394E+4
  -5.29909E+4  -4.75271E+4
  -5.14343E+4  -4.73495E+4
  -5.06186E+4  -4.70770E+4
  -4.93186E+4  -4.69391E+4
  -4.80545E+4  -4.70876E+4
  -4.67502E+4  -4.68567E+4
  -4.55366E+4  -4.68308E+4
  -4.44544E+4  -4.63753E+4
  -4.33656E+4  -4.63837E+4
  -4.24602E+4  -4.61048E+4
  -4.09473E+4  -4.58362E+4
  -3.99040E+4  -4.54810E+4
  -3.90837E+4  -4.52550E+4
  -3.77530E+4  -4.50741E+4
  -3.66718E+4  -4.49213E+4
  -3.56752E+4  -4.46320E+4
  -3.47839E+4  -4.41238E+4
  -3.34465E+4  -4.37967E+4
  -3.26845E+4  -4.37358E+4
  -3.20336E+4  -4.32986E+4
  -3.10226E+4  -4.28028E+4
  -2.99741E+4  -4.26200E+4
  -2.87997E+4  -4.23270E+4
  -2.80523E+4  -4.19898E+4
  -2.71644E+4  -4.12983E+4
  -2.64595E+4  -4.10421E+4
  -2.59534E+4  -4.05579E+4
  -2.50041E+4  -4.01334E+4
  -2.44347E+4  -3.97040E+4
  -2.33014E+4  -3.95209E+4
  -2.27195E+4  -3.85797E+4
  -2.20290E+4  -3.80841E+4
  -2.13681E+4  -3.81151E+4
  -2.05583E+4  -3.73359E+4
  -1.97755E+4  -3.68704E+4
  -1.94811E+4  -3.64964E+4
  -1.88444E+4  -3.58447E+4
  -1.82866E+4  -3.53851E+4
  -1.74456E+4  -3.48099E+4
  -1.69210E+4  -3.43489E+4
  -1.66106E+4  -3.39095E+4
  -1.59135E+4  -3.34177E+4
  -1.52675E+4  -3.29382E+4
  -1.45751E+4  -3.24203E+4
  -1.38740E+4  -3.16121E+4
  -1.37664E+4  -3.13356E+4
  -1.32760E+4  -3.08810E+4
  -1.27773E+4  -3.03930E+4
  -1.24148E+4  -2.97834E+4
  -1.18900E+4  -2.95212E+4
  -1.15465E+4  -2.87301E+4
  -1.10085E+4  -2.82195E+4
  -1.07193E+4  -2.76439E+4
  -1.01885E+4  -2.70076E+4
  -9.88028E+3  -2.64620E+4
  -9.46758E+3  -2.58332E+4
  -8.97243E+3  -2.55847E+4
  -8.89919E+3  -2.49498E+4
  -8.54878E+3  -2.45223E+4
  -8.15363E+3  -2.40133E+4
  -7.84263E+3  -2.35176E+4
  -7.34550E+3  -2.30438E+4
  -7.31817E+3  -2.23549E+4
  -6.99729E+3  -2.21476E+4
  -6.89597E+3  -2.13421E+4
  -6.65239E+3  -2.11539E+4
  -6.02507E+3  -2.07727E+4
  -5.86523E+3  -1.98916E+4
  -5.78483E+3  -1.96225E+4
  -5.55552E+3  -1.89741E+4
  -5.38837E+3  -1.86543E+4
  -5.23975E+3  -1.83818E+4
  -5.13338E+3  -1.76349E+4
  -4.81183E+3  -1.72747E+4
  -4.50966E+3  -1.69527E+4
  -4.28957E+3  -1.64973E+4
  -4.31378E+3  -1.60519E+4
  -4.17680E+3  -1.56170E+4
  -4.07821E+3  -1.49112E+4
  -4.19618E+3  -1.46712E+4
  -3.81051E+3  -1.43061E+4
  -3.70964E+3  -1.39315E+4
  -3.79141E+3  -1.31914E+4
  -3.74222E+3  -1.30230E+4
  -3.55084E+3  -1.26349E+4
  -3.52833E+3  -1.20347E+4
  -3.41509E+3  -1.18543E+4
  -3.51931E+3  -1.13891E+4
  -3.38224E+3  -1.10113E+4
  -3.24784E+3  -1.07681E+4
  -3.30818E+3  -1.00426E+4
  -3.19511E+3  -9.62348E+3
  -3.09860E+3  -9.28135E+3
  -3.49573E+3  -8.93433E+3
  -3.39807E+3  -8.71417E+3
  -3.38392E+3  -8.32866E+3
  -3.33870E+3  -7.88523E+3
  -3.27512E+3  -7.67743E+3
  -3.15921E+3  -7.29247E+3
  -3.42032E+3  -6.66725E+3
  -3.45646E+3  -6.48258E+3
  -3.50094E+3  -6.21276E+3
  -3.70640E+3  -6.08357E+3
  -3.62937E+3  -5.72477E+3
  -3.64795E+3  -5.42018E+3
  -3.66123E+3  -5.02419E+3
