 LCModel (Version 6.3-1N) Copyright: S.W. Provencher.          Ref.: Magn. Reson. Med. 30:672-679 (1993).                
 Slice_N1@21_10  28-Feb-2025 11:42:40
 27 lines in following concentration table = NCONC+1
    Conc.  %SD /Cr+PCr  Metabolite                                         
 1.84E-04  19% 1.0E-04 Mac                                                 
    7.728  74%   4.254 Cr                                                  
    6.806  83%   3.746 PCr                                                 
   51.179   8%  28.170 Ins                                                 
   15.259  16%   8.399 NAA                                                 
    8.502  44%   4.680 Tau                                                 
    0.000 999%   0.000 PCho                                                
    5.346  15%   2.942 GPC                                                 
   22.755  15%  12.525 Glu                                                 
    9.462  30%   5.208 Gln                                                 
    0.000 999%   0.000 Ala                                                 
  115.498   4%  63.572 Asc                                                 
    1.050 301%   0.578 Asp                                                 
    2.942  58%   1.619 GABA                                                
    4.543  46%   2.501 Glc                                                 
    6.508  29%   3.582 GSH                                                 
    7.509  33%   4.133 Lac                                                 
    3.418  67%   1.881 NAAG                                                
    0.000 999%   0.000 PE                                                  
    5.346  15%   2.942 GPC+PCho                                            
   18.677  13%  10.280 NAA+NAAG                                            
   32.217  14%  17.733 Glu+Gln                                             
   14.534  15%   8.000 Cr+PCr                                              
   18.677  13%  10.280 NAA+NAAG                                            
   14.534  15%   8.000 Cr+PCr                                              
   32.217  14%  17.733 Glu+Gln                                             
   6 lines in following misc. output table
  FWHM = 0.089 ppm    S/N =   6                                            
  Data shift = 0.016 ppm                                                   
  Ph: 174 deg       0.0 deg/ppm                                            
  alphaB,S = 8.8E-02,   2.8E-01                                            
   19 spline knots.   Ns = 5(1)                                            
   6 inflections.     5 extrema                                            
  480 points on ppm-axis = NY
      4.100000     4.091866     4.083733     4.075600     4.067466     4.059333     4.051199     4.043066     4.034933     4.026799
      4.018666     4.010532     4.002399     3.994265     3.986132     3.977998     3.969864     3.961731     3.953597     3.945463
      3.937330     3.929196     3.921062     3.912929     3.904795     3.896662     3.888528     3.880394     3.872261     3.864127
      3.855993     3.847860     3.839726     3.831592     3.823459     3.815325     3.807191     3.799058     3.790924     3.782790
      3.774657     3.766523     3.758389     3.750256     3.742122     3.733989     3.725855     3.717721     3.709588     3.701454
      3.693320     3.685187     3.677053     3.668919     3.660786     3.652652     3.644518     3.636385     3.628251     3.620117
      3.611984     3.603850     3.595716     3.587583     3.579449     3.571316     3.563182     3.555048     3.546915     3.538781
      3.530647     3.522514     3.514380     3.506246     3.498113     3.489979     3.481845     3.473712     3.465578     3.457444
      3.449311     3.441177     3.433043     3.424910     3.416776     3.408643     3.400509     3.392375     3.384242     3.376108
      3.367974     3.359841     3.351707     3.343573     3.335440     3.327306     3.319172     3.311039     3.302905     3.294771
      3.286638     3.278504     3.270370     3.262237     3.254103     3.245970     3.237836     3.229702     3.221569     3.213435
      3.205301     3.197168     3.189034     3.180900     3.172767     3.164633     3.156499     3.148366     3.140232     3.132098
      3.123965     3.115831     3.107697     3.099564     3.091430     3.083297     3.075163     3.067029     3.058896     3.050762
      3.042628     3.034495     3.026361     3.018227     3.010094     3.001960     2.993826     2.985693     2.977559     2.969425
      2.961292     2.953158     2.945024     2.936891     2.928757     2.920624     2.912490     2.904356     2.896223     2.888089
      2.879955     2.871822     2.863688     2.855554     2.847421     2.839287     2.831153     2.823020     2.814886     2.806752
      2.798619     2.790485     2.782351     2.774218     2.766084     2.757951     2.749817     2.741683     2.733550     2.725416
      2.717282     2.709149     2.701015     2.692881     2.684748     2.676614     2.668480     2.660347     2.652213     2.644079
      2.635946     2.627812     2.619678     2.611545     2.603411     2.595278     2.587144     2.579010     2.570877     2.562743
      2.554609     2.546476     2.538342     2.530208     2.522075     2.513941     2.505807     2.497674     2.489540     2.481406
      2.473273     2.465139     2.457006     2.448872     2.440738     2.432605     2.424471     2.416337     2.408204     2.400070
      2.391936     2.383803     2.375669     2.367535     2.359402     2.351268     2.343134     2.335001     2.326867     2.318733
      2.310600     2.302466     2.294333     2.286199     2.278065     2.269932     2.261798     2.253664     2.245531     2.237397
      2.229263     2.221130     2.212996     2.204862     2.196729     2.188595     2.180461     2.172328     2.164194     2.156060
      2.147927     2.139793     2.131660     2.123526     2.115392     2.107259     2.099125     2.090991     2.082858     2.074724
      2.066590     2.058457     2.050323     2.042189     2.034056     2.025922     2.017788     2.009655     2.001521     1.993387
      1.985254     1.977120     1.968987     1.960853     1.952719     1.944586     1.936452     1.928318     1.920185     1.912051
      1.903917     1.895784     1.887650     1.879516     1.871383     1.863249     1.855115     1.846982     1.838848     1.830714
      1.822581     1.814447     1.806314     1.798180     1.790046     1.781913     1.773779     1.765645     1.757512     1.749378
      1.741244     1.733111     1.724977     1.716843     1.708710     1.700576     1.692442     1.684309     1.676175     1.668041
      1.659908     1.651774     1.643641     1.635507     1.627373     1.619240     1.611106     1.602972     1.594839     1.586705
      1.578571     1.570438     1.562304     1.554170     1.546037     1.537903     1.529769     1.521636     1.513502     1.505368
      1.497235     1.489101     1.480968     1.472834     1.464700     1.456567     1.448433     1.440299     1.432166     1.424032
      1.415898     1.407765     1.399631     1.391497     1.383364     1.375230     1.367096     1.358963     1.350829     1.342695
      1.334562     1.326428     1.318295     1.310161     1.302027     1.293894     1.285760     1.277626     1.269493     1.261359
      1.253225     1.245092     1.236958     1.228824     1.220691     1.212557     1.204423     1.196290     1.188156     1.180022
      1.171889     1.163755     1.155622     1.147488     1.139354     1.131221     1.123087     1.114953     1.106820     1.098686
      1.090552     1.082419     1.074285     1.066151     1.058018     1.049884     1.041750     1.033617     1.025483     1.017349
      1.009216     1.001082     0.992949     0.984815     0.976681     0.968548     0.960414     0.952280     0.944147     0.936013
      0.927879     0.919746     0.911612     0.903478     0.895345     0.887211     0.879077     0.870944     0.862810     0.854676
      0.846543     0.838409     0.830276     0.822142     0.814008     0.805875     0.797741     0.789607     0.781474     0.773340
      0.765206     0.757073     0.748939     0.740805     0.732672     0.724538     0.716404     0.708271     0.700137     0.692003
      0.683870     0.675736     0.667603     0.659469     0.651335     0.643202     0.635068     0.626934     0.618801     0.610667
      0.602533     0.594400     0.586266     0.578132     0.569999     0.561865     0.553731     0.545598     0.537464     0.529330
      0.521197     0.513063     0.504930     0.496796     0.488662     0.480529     0.472395     0.464261     0.456128     0.447994
      0.439861     0.431727     0.423593     0.415460     0.407326     0.399192     0.391059     0.382925     0.374792     0.366658
      0.358524     0.350391     0.342257     0.334124     0.325990     0.317856     0.309723     0.301589     0.293455     0.285322
      0.277188     0.269055     0.260921     0.252787     0.244654     0.236520     0.228386     0.220253     0.212119     0.203986
 NY phased data points follow
   1.88715E+02  1.99226E+02  2.20308E+02  2.08244E+02  2.03585E+02  1.97678E+02  2.04851E+02  2.10347E+02  2.08310E+02  2.16372E+02
   2.01924E+02  2.00777E+02  1.94757E+02  1.90671E+02  2.02581E+02  2.01162E+02  2.09376E+02  1.91963E+02  1.68881E+02  1.60807E+02
   1.35054E+02  1.32247E+02  1.37056E+02  1.28037E+02  1.68533E+02  2.08280E+02  1.98503E+02  1.90027E+02  1.73844E+02  1.54582E+02
   1.21041E+02  6.75505E+01  1.78508E+01 -6.16067E+01 -1.43332E+02 -2.11839E+02 -3.05259E+02 -3.84080E+02 -4.43206E+02 -5.04266E+02
  -5.60088E+02 -5.98589E+02 -6.09045E+02 -6.22691E+02 -6.10390E+02 -5.88995E+02 -5.76256E+02 -5.36486E+02 -5.25697E+02 -5.15883E+02
  -4.82236E+02 -4.69033E+02 -4.60381E+02 -4.49376E+02 -4.39683E+02 -4.32848E+02 -4.24162E+02 -4.06007E+02 -4.01192E+02 -3.87567E+02
  -3.69261E+02 -3.67535E+02 -3.39839E+02 -3.20566E+02 -3.08638E+02 -2.90617E+02 -2.74674E+02 -2.62593E+02 -2.84808E+02 -2.98491E+02
  -2.96386E+02 -2.80259E+02 -2.69357E+02 -2.70352E+02 -2.40692E+02 -2.21688E+02 -2.19448E+02 -2.10805E+02 -2.15001E+02 -2.00082E+02
  -1.94878E+02 -2.18854E+02 -2.11359E+02 -2.20899E+02 -2.30997E+02 -2.47063E+02 -2.57235E+02 -2.29467E+02 -2.33826E+02 -2.11602E+02
  -1.89069E+02 -1.87556E+02 -1.92514E+02 -1.90242E+02 -1.65998E+02 -1.59907E+02 -1.46298E+02 -1.55445E+02 -1.50036E+02 -1.64555E+02
  -1.86550E+02 -1.56674E+02 -1.75660E+02 -1.87167E+02 -1.94441E+02 -2.22712E+02 -2.19911E+02 -2.38036E+02 -2.49165E+02 -2.51811E+02
  -2.92649E+02 -3.19587E+02 -3.16277E+02 -2.80960E+02 -2.46194E+02 -2.46733E+02 -2.30455E+02 -1.98584E+02 -1.88043E+02 -1.81497E+02
  -1.72037E+02 -1.76097E+02 -1.62969E+02 -1.47485E+02 -1.37274E+02 -1.26893E+02 -1.23407E+02 -1.14992E+02 -1.07706E+02 -7.71998E+01
  -5.15030E+01 -2.95335E+01 -7.70411E+01 -1.88675E+02 -2.36410E+02 -2.52041E+02 -2.42317E+02 -2.35878E+02 -2.39708E+02 -2.27213E+02
  -2.18016E+02 -2.16319E+02 -2.31966E+02 -2.18712E+02 -2.05151E+02 -2.31726E+02 -2.09736E+02 -1.83296E+02 -2.01083E+02 -1.77630E+02
  -1.77985E+02 -1.93513E+02 -1.69112E+02 -1.59885E+02 -1.55095E+02 -1.47864E+02 -1.50524E+02 -1.49691E+02 -1.41070E+02 -1.46768E+02
  -1.33256E+02 -1.28171E+02 -1.40746E+02 -1.32805E+02 -1.35129E+02 -1.42861E+02 -1.34567E+02 -1.23128E+02 -1.38651E+02 -1.22153E+02
  -1.17992E+02 -1.27062E+02 -9.14873E+01 -7.71130E+01 -8.33119E+01 -9.95225E+01 -9.50087E+01 -9.02019E+01 -8.55141E+01 -1.02687E+02
  -1.31719E+02 -1.25872E+02 -1.35106E+02 -1.41972E+02 -1.48626E+02 -1.38874E+02 -1.37981E+02 -1.44160E+02 -1.37770E+02 -1.26865E+02
  -1.11664E+02 -1.28547E+02 -1.14582E+02 -1.09336E+02 -1.16851E+02 -1.02120E+02 -1.03228E+02 -1.00794E+02 -1.07369E+02 -1.02026E+02
  -9.67821E+01 -1.00337E+02 -9.99321E+01 -9.95251E+01 -8.56529E+01 -9.63912E+01 -1.05566E+02 -1.03891E+02 -1.08849E+02 -1.06221E+02
  -1.20857E+02 -1.24577E+02 -1.18071E+02 -1.03512E+02 -9.11186E+01 -6.96837E+01 -3.19253E+01 -2.81633E+01 -2.42214E+01 -4.13410E+01
  -3.55628E+01 -4.80079E+01 -9.62511E+01 -7.94091E+01 -7.94759E+01 -7.40925E+01 -7.74738E+01 -7.81149E+01 -6.34478E+01 -8.25559E+01
  -7.39739E+01 -8.15576E+01 -9.79309E+01 -1.00823E+02 -1.16484E+02 -1.28662E+02 -1.44665E+02 -1.60141E+02 -1.54229E+02 -1.54844E+02
  -1.48948E+02 -1.40075E+02 -1.42897E+02 -1.14395E+02 -1.15836E+02 -1.17318E+02 -9.92013E+01 -8.08615E+01 -7.67877E+01 -1.06492E+02
  -8.91009E+01 -9.28805E+01 -9.54907E+01 -8.79000E+01 -1.11120E+02 -9.55878E+01 -1.36861E+02 -1.41424E+02 -4.20376E+00  1.05702E+02
   1.31563E+02  1.12254E+02  1.06138E+02  9.08136E+01  5.83636E+01  5.69668E+01  4.20339E+01  4.88286E+01  4.65411E+01  2.31741E+01
   3.10921E+01  2.54899E+01  1.59363E+01  9.07541E+00  1.29598E+01  3.15692E+00 -3.42805E+00  8.48428E+00  7.59462E+00  9.33670E+00
   1.60702E+00 -2.31304E+00 -1.04399E+01 -7.65558E+00 -8.70823E+00 -1.75062E+01 -1.66147E+01 -2.53643E+01 -1.89185E+01 -3.06555E+01
  -3.69281E+01 -3.22645E+01 -3.60469E+01 -4.48988E+01 -6.18480E+01 -5.93544E+01 -8.16309E+01 -8.57391E+01 -7.94094E+01 -9.35268E+01
  -7.83088E+01 -7.78873E+01 -7.40432E+01 -6.17422E+01 -5.37799E+01 -4.87486E+01 -4.77845E+01 -2.97190E+01 -2.51208E+01 -1.45975E+01
  -2.03415E+00  1.75987E+01  2.62832E+01  1.88992E+01  4.03212E+01  3.17661E+01  3.80068E+01  5.33950E+01  3.66463E+01  3.41679E+01
   2.97417E+01  2.64631E+01  1.52459E+01  2.70632E+00 -4.70456E+00  2.93716E+00  6.81381E+00 -9.05580E+00 -4.94192E+00  5.21520E-01
   8.56015E+00  5.41247E+00 -1.35582E+01 -2.21796E+01 -3.66050E+01 -5.28969E+01 -5.59362E+01 -6.19478E+01 -6.53632E+01 -5.69287E+01
  -6.55652E+01 -6.03609E+01 -5.38107E+01 -6.28575E+01 -5.90099E+01 -5.73527E+01 -4.56413E+01 -4.17019E+01 -3.70102E+01 -4.16735E+01
  -5.34654E+01 -4.73178E+01 -5.83154E+01 -5.42148E+01 -5.63270E+01 -6.10464E+01 -6.77696E+01 -8.57173E+01 -7.40101E+01 -7.81457E+01
  -8.28006E+01 -7.51783E+01 -6.89039E+01 -6.76594E+01 -4.84735E+01 -3.16131E+01 -4.63434E+01 -4.38679E+01 -3.87137E+01 -3.56994E+01
  -3.43448E+01 -6.32995E+00 -5.82829E+00 -1.37706E+01  7.10101E+00 -6.95235E+00 -5.08068E+00 -2.57918E+00  1.32942E+01  1.26899E+01
   2.17430E+01  2.55316E+01  1.11038E+01  4.38963E+01  3.40044E+01  4.58222E+01  4.98359E+01  5.18504E+01  6.76061E+01  5.43761E+01
   4.76273E+01  3.21323E+01  3.93815E+01  1.07566E+01 -4.25197E+00 -1.45285E+01 -4.35194E+01 -4.43364E+01 -4.34329E+01 -6.30827E+01
  -9.02636E+01 -7.69827E+01 -9.78610E+01 -1.02456E+02 -9.94508E+01 -1.22061E+02 -1.19477E+02 -1.11624E+02 -1.07506E+02 -1.17026E+02
  -1.09428E+02 -1.00335E+02 -9.78679E+01 -1.10076E+02 -1.00696E+02 -1.04369E+02 -9.51675E+01 -7.96628E+01 -1.09380E+02 -8.13159E+01
  -8.35687E+01 -8.57077E+01 -7.35125E+01 -6.79813E+01 -5.93320E+01 -7.15973E+01 -5.51849E+01 -5.83729E+01 -4.47348E+01 -5.07945E+01
  -5.48119E+01 -4.24757E+01 -5.05443E+01 -3.77743E+01 -3.61365E+01 -3.42939E+01 -3.97259E+01 -4.02576E+01 -4.43828E+01 -4.18834E+01
  -3.83863E+01 -4.38225E+01 -4.67870E+01 -5.10084E+01 -4.33487E+01 -4.58804E+01 -3.58244E+01 -4.40479E+01 -4.39424E+01 -3.18762E+01
  -4.30006E+01 -5.61302E+01 -6.24387E+01 -4.75272E+01 -5.34480E+01 -5.48467E+01 -5.86634E+01 -5.17857E+01 -4.93659E+01 -6.46705E+01
  -4.07117E+01 -5.48352E+01 -6.02080E+01 -4.48173E+01 -5.72765E+01 -6.07240E+01 -6.53743E+01 -5.27346E+01 -5.56286E+01 -6.20309E+01
  -5.65507E+01 -5.84326E+01 -4.87565E+01 -5.44695E+01 -5.19324E+01 -4.46786E+01 -4.13563E+01 -4.66053E+01 -4.92035E+01 -3.19351E+01
 NY points of the fit to the data follow
   2.07604E+02  1.86461E+02  1.92994E+02  1.90252E+02  1.58693E+02  1.27006E+02  9.53583E+01  1.40259E+02  1.37074E+02  1.39930E+02
   1.39803E+02  1.36312E+02  1.47760E+02  1.68597E+02  1.80156E+02  1.89542E+02  1.94947E+02  2.06289E+02  2.04174E+02  2.09177E+02
   1.89571E+02  1.64565E+02  1.51720E+02  1.41555E+02  1.35224E+02  1.25365E+02  1.20675E+02  1.10087E+02  1.01794E+02  9.29456E+01
   7.08646E+01  4.81124E+01  2.28335E+01 -1.28177E+01 -6.31752E+01 -1.31890E+02 -1.99129E+02 -2.51564E+02 -3.75856E+02 -4.85556E+02
  -5.82869E+02 -5.70119E+02 -6.01670E+02 -5.83601E+02 -6.16722E+02 -6.21524E+02 -5.77803E+02 -5.20941E+02 -4.75933E+02 -4.27481E+02
  -4.47656E+02 -3.59784E+02 -3.28428E+02 -3.35284E+02 -3.13813E+02 -3.27240E+02 -3.16247E+02 -2.92517E+02 -2.81375E+02 -2.94089E+02
  -3.64748E+02 -3.60489E+02 -3.06122E+02 -3.38237E+02 -3.53225E+02 -3.68164E+02 -3.91867E+02 -3.77599E+02 -3.59173E+02 -3.65290E+02
  -3.79201E+02 -3.48550E+02 -2.87821E+02 -2.67527E+02 -2.54005E+02 -2.22227E+02 -2.01421E+02 -1.94731E+02 -1.90618E+02 -1.98872E+02
  -1.92253E+02 -2.00560E+02 -1.95279E+02 -1.95497E+02 -1.93937E+02 -1.92037E+02 -1.85654E+02 -1.76807E+02 -1.59930E+02 -1.47711E+02
  -1.46068E+02 -1.50051E+02 -1.26039E+02 -1.46963E+02 -1.57521E+02 -1.53286E+02 -1.72078E+02 -1.73108E+02 -1.82462E+02 -1.98765E+02
  -2.07430E+02 -2.11540E+02 -1.89761E+02 -1.87170E+02 -2.20963E+02 -2.85464E+02 -2.85836E+02 -2.74470E+02 -2.51785E+02 -2.72585E+02
  -3.19279E+02 -3.42936E+02 -3.17466E+02 -2.95225E+02 -3.01020E+02 -3.16860E+02 -2.81896E+02 -2.54041E+02 -2.32156E+02 -2.13301E+02
  -1.97802E+02 -1.83980E+02 -1.68871E+02 -1.50718E+02 -1.27746E+02 -9.40466E+01 -4.44987E+01 -9.75053E+01 -1.26987E+02 -1.27169E+02
  -1.08516E+02 -9.45636E+01 -1.19751E+02 -1.71170E+02 -1.87859E+02 -1.83553E+02 -1.74647E+02 -2.18228E+02 -2.33554E+02 -2.21216E+02
  -2.17049E+02 -2.12282E+02 -2.09546E+02 -2.05715E+02 -2.02839E+02 -2.01638E+02 -2.00296E+02 -1.97838E+02 -1.94875E+02 -1.90905E+02
  -1.89228E+02 -1.85141E+02 -1.81978E+02 -1.78535E+02 -1.75487E+02 -1.71632E+02 -1.67729E+02 -1.65031E+02 -1.63098E+02 -1.60944E+02
  -1.57939E+02 -1.54129E+02 -1.51927E+02 -1.50643E+02 -1.49479E+02 -1.46084E+02 -1.38118E+02 -1.27757E+02 -1.25389E+02 -1.29080E+02
  -1.28488E+02 -1.19176E+02 -1.03161E+02 -9.74420E+01 -1.07641E+02 -1.14395E+02 -1.13734E+02 -1.07204E+02 -1.07912E+02 -1.17501E+02
  -1.26609E+02 -1.28888E+02 -1.29583E+02 -1.32220E+02 -1.38365E+02 -1.41296E+02 -1.35914E+02 -1.37328E+02 -1.35003E+02 -1.23674E+02
  -1.19287E+02 -1.16587E+02 -1.13719E+02 -1.07607E+02 -1.00204E+02 -9.66859E+01 -9.53240E+01 -9.35857E+01 -8.49230E+01 -7.67303E+01
  -7.98012E+01 -8.29132E+01 -8.27475E+01 -8.22822E+01 -8.58023E+01 -9.42112E+01 -1.02110E+02 -1.10228E+02 -1.10511E+02 -1.13711E+02
  -1.19595E+02 -8.98919E+01 -9.61419E+01 -7.70614E+01 -6.86028E+01 -6.19216E+01 -4.53211E+01 -3.33977E+01 -1.94621E+01 -1.12793E+01
  -1.49585E+01 -7.61461E+00 -2.32634E+01 -2.76292E+01 -3.76053E+01 -5.43340E+01 -6.69116E+01 -8.15194E+01 -9.12537E+01 -1.05392E+02
  -1.18875E+02 -1.28678E+02 -1.42719E+02 -1.54493E+02 -1.57447E+02 -1.66248E+02 -1.69090E+02 -1.63215E+02 -1.66071E+02 -1.54319E+02
  -1.47205E+02 -1.38377E+02 -1.27429E+02 -1.20202E+02 -1.13774E+02 -1.01873E+02 -1.03488E+02 -1.00121E+02 -1.03048E+02 -9.23133E+01
  -1.04595E+02 -1.50217E+02 -1.46016E+02 -7.98088E+01 -5.79259E+01 -4.69930E+01 -7.07494E+01 -6.52981E+01 -1.46804E+01  3.51497E+01
   3.93119E+01  2.33765E+01  3.77876E+01  7.18556E+01  6.29812E+01  5.38915E+01  4.20606E+01  3.52252E+01  2.81619E+01  2.20600E+01
   1.90056E+01  1.49493E+01  1.29011E+01  1.12832E+01  9.68619E+00  1.00830E+01  8.69716E+00  8.45799E+00  7.64221E+00  5.79100E+00
   4.88423E+00  2.18169E+00 -3.98398E-01 -3.26500E+00 -6.42773E+00 -9.49008E+00 -1.27182E+01 -1.56066E+01 -1.81421E+01 -2.02587E+01
  -2.21573E+01 -2.37896E+01 -2.49591E+01 -2.53672E+01 -2.55064E+01 -2.52075E+01 -2.47250E+01 -2.39162E+01 -2.28960E+01 -2.15281E+01
  -2.00159E+01 -1.86402E+01 -1.71602E+01 -1.58359E+01 -1.43992E+01 -1.27921E+01 -1.13095E+01 -1.00795E+01 -8.86339E+00 -7.81501E+00
  -6.94858E+00 -6.38278E+00 -5.90370E+00 -5.90457E+00 -6.04082E+00 -6.45411E+00 -7.37309E+00 -8.30239E+00 -9.91380E+00 -1.22274E+01
  -1.50026E+01 -1.77774E+01 -2.05760E+01 -2.36452E+01 -2.66032E+01 -2.93262E+01 -3.11307E+01 -3.20839E+01 -3.24819E+01 -3.22273E+01
  -3.10463E+01 -2.86308E+01 -2.49314E+01 -1.92385E+01 -1.11365E+01 -2.17625E+00 -1.49458E+01 -1.36892E+01 -2.64774E+01 -3.08793E+01
  -2.96554E+01 -3.52624E+01 -4.52095E+01 -5.42514E+01 -6.31611E+01 -6.55657E+01 -7.28807E+01 -7.07013E+01 -7.46444E+01 -7.49208E+01
  -6.94423E+01 -6.60682E+01 -6.37350E+01 -6.17113E+01 -5.99402E+01 -5.79612E+01 -5.61414E+01 -5.37847E+01 -5.14971E+01 -4.90559E+01
  -4.63540E+01 -4.37436E+01 -4.12051E+01 -3.87058E+01 -3.63500E+01 -3.37809E+01 -3.13644E+01 -2.85675E+01 -2.61942E+01 -2.34218E+01
  -2.03636E+01 -1.70633E+01 -1.37727E+01 -1.01283E+01 -6.22278E+00 -1.97175E+00  2.34194E+00  6.53022E+00  9.90402E+00  1.29736E+01
   1.46417E+01  1.54306E+01  1.50704E+01  1.43754E+01  1.26042E+01  9.80870E+00  6.20308E+00  1.88673E+00 -3.13846E+00 -8.51234E+00
  -1.41844E+01 -1.99579E+01 -2.53089E+01 -3.04279E+01 -3.52088E+01 -4.00297E+01 -4.41653E+01 -4.82429E+01 -5.17240E+01 -5.49357E+01
  -5.75802E+01 -6.00878E+01 -6.19219E+01 -6.32954E+01 -6.42335E+01 -6.52698E+01 -6.60630E+01 -6.66200E+01 -6.69253E+01 -6.73153E+01
  -6.77541E+01 -6.79367E+01 -6.79428E+01 -6.80346E+01 -6.80806E+01 -6.82107E+01 -6.81210E+01 -6.79537E+01 -6.78587E+01 -6.78676E+01
  -6.76541E+01 -6.72444E+01 -6.69041E+01 -6.67848E+01 -6.65805E+01 -6.61530E+01 -6.58165E+01 -6.52898E+01 -6.49982E+01 -6.45110E+01
  -6.40528E+01 -6.35959E+01 -6.31387E+01 -6.25982E+01 -6.20744E+01 -6.16375E+01 -6.11623E+01 -6.07125E+01 -6.01912E+01 -5.96001E+01
  -5.91979E+01 -5.87238E+01 -5.83072E+01 -5.79623E+01 -5.74247E+01 -5.70358E+01 -5.65213E+01 -5.61666E+01 -5.57010E+01 -5.54030E+01
  -5.49613E+01 -5.46286E+01 -5.41422E+01 -5.40114E+01 -5.36944E+01 -5.34595E+01 -5.31679E+01 -5.29640E+01 -5.26443E+01 -5.24577E+01
  -5.20168E+01 -5.18385E+01 -5.15045E+01 -5.14629E+01 -5.11030E+01 -5.07050E+01 -5.02763E+01 -5.00220E+01 -4.96040E+01 -4.91802E+01
  -4.86912E+01 -4.82713E+01 -4.75390E+01 -4.69514E+01 -4.58480E+01 -4.48080E+01 -4.35120E+01 -4.21130E+01 -4.03257E+01 -3.82373E+01
 NY background values follow
     3.626E+02    3.502E+02    3.377E+02    3.253E+02    3.128E+02    3.003E+02    2.878E+02    2.753E+02    2.628E+02    2.503E+02
     2.378E+02    2.254E+02    2.130E+02    2.007E+02    1.884E+02    1.761E+02    1.639E+02    1.518E+02    1.398E+02    1.278E+02
     1.159E+02    1.042E+02    9.250E+01    8.095E+01    6.952E+01    5.821E+01    4.704E+01    3.600E+01    2.511E+01    1.437E+01
     3.796E+00   -6.614E+00   -1.685E+01   -2.692E+01   -3.681E+01   -4.653E+01   -5.606E+01   -6.540E+01   -7.456E+01   -8.352E+01
    -9.230E+01   -1.009E+02   -1.092E+02   -1.174E+02   -1.254E+02   -1.331E+02   -1.407E+02   -1.480E+02   -1.551E+02   -1.620E+02
    -1.687E+02   -1.751E+02   -1.813E+02   -1.873E+02   -1.931E+02   -1.986E+02   -2.038E+02   -2.088E+02   -2.136E+02   -2.181E+02
    -2.224E+02   -2.264E+02   -2.301E+02   -2.336E+02   -2.369E+02   -2.399E+02   -2.427E+02   -2.453E+02   -2.477E+02   -2.498E+02
    -2.517E+02   -2.535E+02   -2.550E+02   -2.563E+02   -2.574E+02   -2.584E+02   -2.591E+02   -2.597E+02   -2.602E+02   -2.604E+02
    -2.605E+02   -2.605E+02   -2.602E+02   -2.599E+02   -2.594E+02   -2.588E+02   -2.580E+02   -2.571E+02   -2.561E+02   -2.550E+02
    -2.538E+02   -2.524E+02   -2.510E+02   -2.495E+02   -2.478E+02   -2.461E+02   -2.443E+02   -2.425E+02   -2.405E+02   -2.385E+02
    -2.364E+02   -2.343E+02   -2.321E+02   -2.298E+02   -2.275E+02   -2.252E+02   -2.228E+02   -2.204E+02   -2.179E+02   -2.154E+02
    -2.129E+02   -2.104E+02   -2.079E+02   -2.053E+02   -2.028E+02   -2.003E+02   -1.977E+02   -1.952E+02   -1.927E+02   -1.902E+02
    -1.877E+02   -1.853E+02   -1.828E+02   -1.804E+02   -1.781E+02   -1.757E+02   -1.734E+02   -1.711E+02   -1.688E+02   -1.666E+02
    -1.644E+02   -1.622E+02   -1.601E+02   -1.580E+02   -1.559E+02   -1.538E+02   -1.518E+02   -1.498E+02   -1.478E+02   -1.459E+02
    -1.440E+02   -1.421E+02   -1.403E+02   -1.385E+02   -1.367E+02   -1.350E+02   -1.333E+02   -1.316E+02   -1.300E+02   -1.284E+02
    -1.269E+02   -1.254E+02   -1.239E+02   -1.224E+02   -1.210E+02   -1.196E+02   -1.183E+02   -1.170E+02   -1.157E+02   -1.145E+02
    -1.133E+02   -1.121E+02   -1.110E+02   -1.099E+02   -1.088E+02   -1.078E+02   -1.068E+02   -1.058E+02   -1.049E+02   -1.040E+02
    -1.032E+02   -1.024E+02   -1.016E+02   -1.008E+02   -1.001E+02   -9.941E+01   -9.875E+01   -9.814E+01   -9.755E+01   -9.700E+01
    -9.648E+01   -9.599E+01   -9.553E+01   -9.510E+01   -9.470E+01   -9.432E+01   -9.397E+01   -9.364E+01   -9.332E+01   -9.303E+01
    -9.275E+01   -9.248E+01   -9.223E+01   -9.198E+01   -9.175E+01   -9.152E+01   -9.129E+01   -9.107E+01   -9.085E+01   -9.063E+01
    -9.041E+01   -9.018E+01   -8.994E+01   -8.970E+01   -8.945E+01   -8.918E+01   -8.891E+01   -8.861E+01   -8.830E+01   -8.797E+01
    -8.762E+01   -8.725E+01   -8.686E+01   -8.645E+01   -8.602E+01   -8.559E+01   -8.514E+01   -8.468E+01   -8.421E+01   -8.374E+01
    -8.327E+01   -8.279E+01   -8.231E+01   -8.184E+01   -8.137E+01   -8.091E+01   -8.045E+01   -8.001E+01   -7.958E+01   -7.916E+01
    -7.876E+01   -7.837E+01   -7.801E+01   -7.767E+01   -7.735E+01   -7.706E+01   -7.679E+01   -7.656E+01   -7.636E+01   -7.619E+01
    -7.606E+01   -7.596E+01   -7.590E+01   -7.587E+01   -7.588E+01   -7.592E+01   -7.599E+01   -7.609E+01   -7.622E+01   -7.638E+01
    -7.657E+01   -7.678E+01   -7.702E+01   -7.729E+01   -7.757E+01   -7.789E+01   -7.822E+01   -7.857E+01   -7.895E+01   -7.934E+01
    -7.975E+01   -8.018E+01   -8.062E+01   -8.108E+01   -8.156E+01   -8.204E+01   -8.254E+01   -8.305E+01   -8.358E+01   -8.411E+01
    -8.464E+01   -8.519E+01   -8.574E+01   -8.630E+01   -8.685E+01   -8.740E+01   -8.795E+01   -8.850E+01   -8.904E+01   -8.957E+01
    -9.008E+01   -9.059E+01   -9.108E+01   -9.155E+01   -9.200E+01   -9.243E+01   -9.284E+01   -9.322E+01   -9.358E+01   -9.390E+01
    -9.420E+01   -9.446E+01   -9.468E+01   -9.487E+01   -9.502E+01   -9.512E+01   -9.519E+01   -9.520E+01   -9.517E+01   -9.509E+01
    -9.496E+01   -9.478E+01   -9.455E+01   -9.427E+01   -9.395E+01   -9.360E+01   -9.320E+01   -9.278E+01   -9.232E+01   -9.183E+01
    -9.132E+01   -9.079E+01   -9.023E+01   -8.966E+01   -8.908E+01   -8.848E+01   -8.788E+01   -8.727E+01   -8.666E+01   -8.605E+01
    -8.544E+01   -8.484E+01   -8.424E+01   -8.366E+01   -8.309E+01   -8.254E+01   -8.201E+01   -8.150E+01   -8.101E+01   -8.056E+01
    -8.013E+01   -7.974E+01   -7.938E+01   -7.904E+01   -7.874E+01   -7.846E+01   -7.820E+01   -7.797E+01   -7.776E+01   -7.757E+01
    -7.740E+01   -7.725E+01   -7.712E+01   -7.700E+01   -7.690E+01   -7.681E+01   -7.673E+01   -7.667E+01   -7.661E+01   -7.656E+01
    -7.652E+01   -7.649E+01   -7.646E+01   -7.644E+01   -7.641E+01   -7.639E+01   -7.637E+01   -7.634E+01   -7.632E+01   -7.628E+01
    -7.625E+01   -7.621E+01   -7.616E+01   -7.611E+01   -7.606E+01   -7.601E+01   -7.595E+01   -7.590E+01   -7.584E+01   -7.579E+01
    -7.574E+01   -7.570E+01   -7.566E+01   -7.562E+01   -7.559E+01   -7.556E+01   -7.555E+01   -7.554E+01   -7.554E+01   -7.555E+01
    -7.557E+01   -7.561E+01   -7.565E+01   -7.571E+01   -7.579E+01   -7.587E+01   -7.598E+01   -7.610E+01   -7.624E+01   -7.640E+01
    -7.657E+01   -7.677E+01   -7.698E+01   -7.720E+01   -7.744E+01   -7.769E+01   -7.794E+01   -7.821E+01   -7.848E+01   -7.875E+01
    -7.903E+01   -7.931E+01   -7.958E+01   -7.985E+01   -8.012E+01   -8.038E+01   -8.063E+01   -8.087E+01   -8.110E+01   -8.131E+01
    -8.151E+01   -8.169E+01   -8.186E+01   -8.200E+01   -8.212E+01   -8.221E+01   -8.228E+01   -8.232E+01   -8.233E+01   -8.231E+01
    -8.225E+01   -8.217E+01   -8.205E+01   -8.191E+01   -8.174E+01   -8.154E+01   -8.133E+01   -8.110E+01   -8.085E+01   -8.058E+01
    -8.030E+01   -8.002E+01   -7.972E+01   -7.941E+01   -7.910E+01   -7.879E+01   -7.848E+01   -7.817E+01   -7.786E+01   -7.756E+01
    -7.727E+01   -7.699E+01   -7.672E+01   -7.646E+01   -7.622E+01   -7.600E+01   -7.580E+01   -7.562E+01   -7.546E+01   -7.534E+01
    -7.524E+01   -7.517E+01   -7.512E+01   -7.510E+01   -7.510E+01   -7.513E+01   -7.518E+01   -7.525E+01   -7.533E+01   -7.544E+01
    -7.555E+01   -7.569E+01   -7.584E+01   -7.600E+01   -7.617E+01   -7.635E+01   -7.653E+01   -7.673E+01   -7.693E+01   -7.713E+01
    -7.734E+01   -7.755E+01   -7.776E+01   -7.796E+01   -7.817E+01   -7.837E+01   -7.857E+01   -7.876E+01   -7.894E+01   -7.912E+01
 Mac      Conc. = 1.84E-04
   3.47545E+02  3.34464E+02  3.21616E+02  3.08553E+02  2.95583E+02  2.82451E+02  2.69243E+02  2.55838E+02  2.42459E+02  2.30014E+02
   2.18449E+02  2.06307E+02  1.94328E+02  1.82618E+02  1.71382E+02  1.60669E+02  1.49738E+02  1.38840E+02  1.28063E+02  1.17946E+02
   1.07922E+02  9.73046E+01  8.66848E+01  7.63149E+01  6.58896E+01  5.53538E+01  4.47790E+01  3.41932E+01  2.38463E+01  1.40606E+01
   4.54893E+00 -5.26768E+00 -1.54980E+01 -2.53429E+01 -3.45822E+01 -4.34448E+01 -5.20683E+01 -6.11531E+01 -7.00155E+01 -7.86569E+01
  -8.69685E+01 -9.54377E+01 -1.03979E+02 -1.12257E+02 -1.20512E+02 -1.28490E+02 -1.36290E+02 -1.44144E+02 -1.51539E+02 -1.58495E+02
  -1.65223E+02 -1.71827E+02 -1.77848E+02 -1.83382E+02 -1.88871E+02 -1.93960E+02 -1.99169E+02 -2.04031E+02 -2.08440E+02 -2.12615E+02
  -2.16961E+02 -2.21271E+02 -2.24877E+02 -2.27792E+02 -2.30716E+02 -2.33504E+02 -2.36092E+02 -2.38518E+02 -2.40126E+02 -2.41826E+02
  -2.43487E+02 -2.44984E+02 -2.46245E+02 -2.47370E+02 -2.48562E+02 -2.49543E+02 -2.50253E+02 -2.50904E+02 -2.51344E+02 -2.51523E+02
  -2.51543E+02 -2.51158E+02 -2.50638E+02 -2.50050E+02 -2.49272E+02 -2.48275E+02 -2.47362E+02 -2.46634E+02 -2.45884E+02 -2.45244E+02
  -2.44608E+02 -2.43936E+02 -2.43178E+02 -2.42815E+02 -2.42490E+02 -2.42206E+02 -2.42102E+02 -2.42225E+02 -2.42917E+02 -2.43547E+02
  -2.43734E+02 -2.43452E+02 -2.42865E+02 -2.42517E+02 -2.41694E+02 -2.40317E+02 -2.38414E+02 -2.35980E+02 -2.33317E+02 -2.29979E+02
