 
 $NMID
 ID=''
 FMTDAT='(2E13.5)'
 TRAMP=   1.00000E+0
 VOLUME=   1.00000E+0
 $END
  -4.16621E+5   5.04568E+5
  -1.45522E+6   8.95139E+5
  -1.26875E+6   1.02735E+6
  -1.24803E+6   8.28524E+5
  -1.39565E+6   7.80255E+5
  -1.38959E+6   7.94280E+5
  -1.36737E+6   7.36301E+5
  -1.38942E+6   7.26045E+5
  -1.34670E+6   6.98162E+5
  -1.36169E+6   6.17965E+5
  -1.40998E+6   6.10963E+5
  -1.38393E+6   6.17398E+5
  -1.36314E+6   5.77219E+5
  -1.36464E+6   5.58209E+5
  -1.34687E+6   5.33285E+5
  -1.35405E+6   4.99284E+5
  -1.37174E+6   4.95086E+5
  -1.35194E+6   4.69880E+5
  -1.34701E+6   4.19098E+5
  -1.35621E+6   3.90587E+5
  -1.34954E+6   3.57403E+5
  -1.35125E+6   3.22269E+5
  -1.34993E+6   3.07966E+5
  -1.33586E+6   2.80276E+5
  -1.33061E+6   2.41780E+5
  -1.32586E+6   2.30305E+5
  -1.31589E+6   2.15858E+5
  -1.31247E+6   1.97153E+5
  -1.30215E+6   1.84030E+5
  -1.28735E+6   1.66792E+5
  -1.28553E+6   1.40788E+5
  -1.28028E+6   1.21929E+5
  -1.26927E+6   9.75928E+4
  -1.26245E+6   7.38256E+4
  -1.25358E+6   5.40435E+4
  -1.24384E+6   2.91811E+4
  -1.24046E+6   2.81795E+3
  -1.23108E+6  -1.86922E+4
  -1.21792E+6  -3.72180E+4
  -1.20969E+6  -5.40256E+4
  -1.19864E+6  -6.86439E+4
  -1.18576E+6  -8.38440E+4
  -1.17656E+6  -9.49113E+4
  -1.16734E+6  -1.05309E+5
  -1.15449E+6  -1.18212E+5
  -1.14522E+6  -1.30236E+5
  -1.13537E+6  -1.44400E+5
  -1.12318E+6  -1.63394E+5
  -1.10847E+6  -1.79913E+5
  -1.09562E+6  -1.94196E+5
  -1.08403E+6  -2.10310E+5
  -1.07173E+6  -2.27354E+5
  -1.05913E+6  -2.42499E+5
  -1.04646E+6  -2.57476E+5
  -1.03341E+6  -2.71471E+5
  -1.01939E+6  -2.84950E+5
  -1.00562E+6  -2.97173E+5
  -9.92449E+5  -3.07249E+5
  -9.78940E+5  -3.16447E+5
  -9.66379E+5  -3.27186E+5
  -9.53424E+5  -3.37644E+5
  -9.40072E+5  -3.48271E+5
  -9.26768E+5  -3.59471E+5
  -9.11735E+5  -3.71308E+5
  -8.95603E+5  -3.82469E+5
  -8.79627E+5  -3.92391E+5
  -8.64619E+5  -4.02216E+5
  -8.49230E+5  -4.11829E+5
  -8.34805E+5  -4.21328E+5
  -8.20623E+5  -4.30926E+5
  -8.05125E+5  -4.39747E+5
  -7.90325E+5  -4.46906E+5
  -7.77039E+5  -4.53728E+5
  -7.62787E+5  -4.62016E+5
  -7.47542E+5  -4.69151E+5
  -7.32567E+5  -4.75858E+5
  -7.17984E+5  -4.82484E+5
  -7.02684E+5  -4.90000E+5
  -6.86265E+5  -4.97265E+5
  -6.70056E+5  -5.04584E+5
  -6.53453E+5  -5.11407E+5
  -6.38042E+5  -5.17233E+5
  -6.22305E+5  -5.22535E+5
  -6.06804E+5  -5.28220E+5
  -5.90590E+5  -5.33364E+5
  -5.75814E+5  -5.37063E+5
  -5.61798E+5  -5.40542E+5
  -5.47860E+5  -5.44050E+5
  -5.33728E+5  -5.46827E+5
  -5.19587E+5  -5.48706E+5
  -5.05968E+5  -5.50982E+5
  -4.92265E+5  -5.54088E+5
  -4.77635E+5  -5.56937E+5
  -4.62682E+5  -5.58493E+5
  -4.47719E+5  -5.60270E+5
  -4.32989E+5  -5.62244E+5
  -4.18624E+5  -5.64178E+5
  -4.04469E+5  -5.66079E+5
  -3.90114E+5  -5.67290E+5
  -3.76575E+5  -5.67946E+5
  -3.63097E+5  -5.68845E+5
  -3.49724E+5  -5.69761E+5
  -3.36364E+5  -5.70014E+5
  -3.23339E+5  -5.69211E+5
  -3.11344E+5  -5.68341E+5
  -3.00002E+5  -5.67625E+5
  -2.87827E+5  -5.67810E+5
  -2.74441E+5  -5.67269E+5
  -2.62132E+5  -5.65615E+5
  -2.51180E+5  -5.63603E+5
  -2.39551E+5  -5.62919E+5
  -2.27030E+5  -5.62538E+5
  -2.14368E+5  -5.61623E+5
  -2.02182E+5  -5.60362E+5
  -1.90380E+5  -5.58767E+5
  -1.78613E+5  -5.57576E+5
  -1.66407E+5  -5.55526E+5
  -1.54732E+5  -5.53492E+5
  -1.43992E+5  -5.50796E+5
  -1.33762E+5  -5.48406E+5
  -1.23728E+5  -5.46332E+5
  -1.13142E+5  -5.44552E+5
  -1.02479E+5  -5.42275E+5
  -9.21901E+4  -5.40142E+5
  -8.15424E+4  -5.37311E+5
  -7.15330E+4  -5.34117E+5
  -6.18661E+4  -5.30658E+5
  -5.19500E+4  -5.27787E+5
  -4.20717E+4  -5.24822E+5
  -3.24654E+4  -5.22275E+5
  -2.23900E+4  -5.19126E+5
  -1.24492E+4  -5.15443E+5
  -2.89627E+3  -5.11337E+5
   6.11298E+3  -5.07751E+5
   1.52565E+4  -5.04016E+5
   2.42851E+4  -4.99653E+5
   3.25991E+4  -4.95592E+5
   4.07409E+4  -4.91561E+5
   4.98767E+4  -4.87803E+5
   5.86830E+4  -4.83397E+5
   6.66873E+4  -4.78269E+5
   7.41174E+4  -4.73241E+5
   8.14569E+4  -4.68571E+5
   8.90189E+4  -4.64201E+5
   9.66922E+4  -4.59591E+5
   1.03765E+5  -4.54342E+5
   1.10727E+5  -4.49033E+5
   1.17550E+5  -4.43465E+5
   1.23761E+5  -4.38046E+5
   1.29819E+5  -4.32546E+5
   1.35611E+5  -4.27373E+5
   1.41005E+5  -4.21939E+5
   1.46668E+5  -4.16662E+5
   1.51947E+5  -4.11431E+5
   1.58026E+5  -4.05921E+5
   1.63032E+5  -3.99807E+5
   1.67838E+5  -3.94199E+5
   1.72818E+5  -3.88530E+5
   1.77661E+5  -3.82906E+5
   1.81884E+5  -3.76812E+5
   1.86203E+5  -3.71359E+5
   1.90948E+5  -3.65750E+5
   1.95018E+5  -3.59740E+5
   1.98793E+5  -3.53463E+5
   2.02390E+5  -3.47630E+5
   2.05889E+5  -3.42012E+5
   2.09653E+5  -3.36492E+5
   2.13361E+5  -3.30928E+5
   2.16556E+5  -3.25121E+5
   2.19706E+5  -3.19211E+5
   2.22664E+5  -3.13828E+5
   2.25386E+5  -3.08377E+5
   2.28207E+5  -3.02778E+5
   2.31279E+5  -2.97233E+5
   2.33440E+5  -2.91420E+5
   2.36386E+5  -2.85990E+5
   2.39073E+5  -2.80816E+5
   2.41574E+5  -2.74729E+5
   2.43766E+5  -2.68617E+5
   2.45664E+5  -2.63271E+5
   2.48099E+5  -2.58055E+5
   2.50507E+5  -2.52714E+5
   2.52540E+5  -2.46649E+5
   2.54513E+5  -2.41207E+5
   2.56309E+5  -2.35982E+5
   2.57925E+5  -2.30660E+5
   2.58986E+5  -2.24892E+5
   2.60040E+5  -2.20088E+5
   2.61457E+5  -2.15031E+5
   2.62921E+5  -2.10557E+5
   2.64434E+5  -2.05369E+5
   2.66015E+5  -1.99910E+5
   2.66877E+5  -1.94371E+5
   2.67784E+5  -1.88989E+5
   2.68273E+5  -1.83928E+5
   2.69187E+5  -1.78523E+5
   2.69905E+5  -1.73547E+5
   2.70821E+5  -1.68330E+5
   2.71281E+5  -1.63241E+5
   2.71995E+5  -1.57906E+5
   2.72490E+5  -1.52343E+5
   2.72529E+5  -1.47043E+5
   2.72304E+5  -1.41877E+5
   2.72403E+5  -1.37332E+5
   2.72807E+5  -1.32361E+5
   2.72690E+5  -1.26910E+5
   2.72399E+5  -1.21960E+5
   2.72032E+5  -1.16710E+5
   2.71476E+5  -1.11875E+5
   2.71132E+5  -1.06775E+5
   2.70408E+5  -1.01559E+5
   2.69524E+5  -9.66793E+4
   2.69000E+5  -9.19860E+4
   2.68836E+5  -8.72539E+4
   2.67675E+5  -8.17741E+4
   2.66471E+5  -7.69967E+4
   2.65293E+5  -7.19693E+4
   2.63759E+5  -6.78005E+4
   2.62526E+5  -6.33509E+4
   2.61005E+5  -5.85148E+4
   2.59765E+5  -5.42937E+4
   2.58512E+5  -4.98407E+4
   2.56912E+5  -4.56651E+4
   2.55377E+5  -4.12314E+4
   2.53772E+5  -3.67305E+4
   2.51441E+5  -3.23629E+4
   2.49701E+5  -2.87227E+4
   2.48005E+5  -2.48134E+4
   2.46274E+5  -2.06456E+4
   2.44141E+5  -1.66760E+4
   2.42110E+5  -1.27146E+4
   2.39867E+5  -9.07000E+3
   2.37849E+5  -5.48102E+3
   2.35822E+5  -1.91222E+3
   2.33323E+5   1.58609E+3
   2.31170E+5   4.82250E+3
   2.29276E+5   8.11441E+3
   2.27040E+5   1.14948E+4
   2.24832E+5   1.47440E+4
   2.22432E+5   1.79370E+4
   2.20043E+5   2.06811E+4
   2.17842E+5   2.37117E+4
   2.15513E+5   2.67458E+4
   2.13234E+5   3.02009E+4
   2.10318E+5   3.26703E+4
   2.07974E+5   3.55915E+4
   2.05789E+5   3.83537E+4
   2.02999E+5   4.10876E+4
   2.00678E+5   4.34782E+4
   1.98023E+5   4.61060E+4
   1.96435E+5   4.83723E+4
   1.93562E+5   5.11724E+4
   1.91083E+5   5.35301E+4
   1.88295E+5   5.58200E+4
   1.85867E+5   5.78731E+4
   1.83537E+5   6.03346E+4
   1.81047E+5   6.24909E+4
   1.78683E+5   6.50066E+4
   1.75928E+5   6.72043E+4
   1.73380E+5   6.94725E+4
   1.70674E+5   7.16846E+4
   1.67900E+5   7.39454E+4
   1.64841E+5   7.58164E+4
   1.62258E+5   7.76072E+4
   1.59692E+5   7.92521E+4
   1.57398E+5   8.16757E+4
   1.54700E+5   8.34650E+4
   1.51691E+5   8.53728E+4
   1.48856E+5   8.68391E+4
   1.46220E+5   8.88991E+4
   1.43368E+5   9.01776E+4
   1.40887E+5   9.16941E+4
   1.37957E+5   9.30886E+4
   1.35412E+5   9.47373E+4
   1.32594E+5   9.62082E+4
   1.29920E+5   9.77799E+4
   1.26914E+5   9.91688E+4
   1.23927E+5   1.00234E+5
   1.21316E+5   1.01196E+5
   1.18881E+5   1.02279E+5
   1.15757E+5   1.03570E+5
   1.13183E+5   1.04791E+5
   1.10240E+5   1.05513E+5
   1.07575E+5   1.06484E+5
   1.04784E+5   1.07720E+5
   1.02048E+5   1.08415E+5
   9.90424E+4   1.09101E+5
   9.63585E+4   1.09567E+5
   9.40196E+4   1.10206E+5
   9.13297E+4   1.11041E+5
   8.84770E+4   1.11644E+5
   8.57397E+4   1.12474E+5
   8.31968E+4   1.13101E+5
   8.04412E+4   1.13136E+5
   7.79169E+4   1.13844E+5
   7.52871E+4   1.14119E+5
   7.27093E+4   1.14315E+5
   7.04144E+4   1.14757E+5
   6.76704E+4   1.14932E+5
   6.52079E+4   1.15279E+5
   6.27489E+4   1.15109E+5
   6.05266E+4   1.15281E+5
   5.80704E+4   1.15614E+5
   5.54810E+4   1.15710E+5
   5.30553E+4   1.15695E+5
   5.03222E+4   1.15593E+5
   4.80366E+4   1.15319E+5
   4.58880E+4   1.15164E+5
   4.37334E+4   1.15343E+5
   4.12946E+4   1.15086E+5
   3.91699E+4   1.15042E+5
   3.69583E+4   1.14856E+5
   3.44749E+4   1.14620E+5
   3.21236E+4   1.14288E+5
   3.01259E+4   1.13805E+5
   2.81500E+4   1.13345E+5
   2.58347E+4   1.13289E+5
   2.36900E+4   1.12765E+5
   2.17218E+4   1.12059E+5
   1.96267E+4   1.11673E+5
   1.76411E+4   1.11505E+5
   1.55694E+4   1.10910E+5
   1.36408E+4   1.10127E+5
   1.13987E+4   1.09355E+5
   9.66920E+3   1.08773E+5
   7.72839E+3   1.08023E+5
   5.85904E+3   1.07601E+5
   3.80329E+3   1.06813E+5
   1.96315E+3   1.05961E+5
   5.99995E+1   1.04968E+5
  -1.68880E+3   1.04348E+5
  -3.10838E+3   1.03505E+5
  -4.95731E+3   1.02898E+5
  -6.56588E+3   1.01724E+5
  -8.32748E+3   1.01187E+5
  -1.01513E+4   1.00257E+5
  -1.16604E+4   9.90983E+4
  -1.35406E+4   9.78876E+4
  -1.50737E+4   9.67856E+4
  -1.66731E+4   9.57677E+4
  -1.81043E+4   9.50230E+4
  -1.94712E+4   9.37486E+4
  -2.11804E+4   9.30494E+4
  -2.27303E+4   9.18006E+4
  -2.40058E+4   9.05779E+4
  -2.56082E+4   8.92974E+4
  -2.70785E+4   8.81537E+4
  -2.82850E+4   8.70256E+4
  -2.94255E+4   8.58223E+4
  -3.05132E+4   8.47995E+4
  -3.23210E+4   8.36193E+4
  -3.34075E+4   8.24817E+4
  -3.47662E+4   8.13018E+4
  -3.57945E+4   7.97941E+4
  -3.67673E+4   7.87493E+4
  -3.79575E+4   7.74865E+4
  -3.91606E+4   7.61107E+4
  -3.99841E+4   7.48326E+4
  -4.12295E+4   7.39035E+4
  -4.22152E+4   7.27278E+4
  -4.31065E+4   7.11686E+4
  -4.41545E+4   6.99541E+4
  -4.50514E+4   6.84870E+4
  -4.55700E+4   6.77425E+4
  -4.69107E+4   6.63560E+4
  -4.77135E+4   6.49237E+4
  -4.83041E+4   6.37495E+4
