 LCModel (Version 6.3-1N) Copyright: S.W. Provencher.          Ref.: Magn. Reson. Med. 30:672-679 (1993).                
 Slice_N1@8_20  28-Feb-2025 11:44:24
 27 lines in following concentration table = NCONC+1
    Conc.  %SD /Cr+PCr  Metabolite                                         
 3.35E-04   4% 4.5E-04 Mac                                                 
    1.678 127%   2.244 Cr                                                  
    4.303  48%   5.756 PCr                                                 
    4.295  23%   5.745 Ins                                                 
    6.933  15%   9.272 NAA                                                 
    5.024  22%   6.720 Tau                                                 
    0.000 999%   0.000 PCho                                                
    0.898  40%   1.201 GPC                                                 
   11.651  11%  15.582 Glu                                                 
    5.126  18%   6.856 Gln                                                 
    0.000 999%   0.000 Ala                                                 
    0.000 999%   0.000 Asc                                                 
    1.599  56%   2.139 Asp                                                 
    0.272 188%   0.363 GABA                                                
    0.607  96%   0.812 Glc                                                 
    1.188  50%   1.589 GSH                                                 
    0.000 999%   0.000 Lac                                                 
    5.302  15%   7.091 NAAG                                                
    1.367 101%   1.828 PE                                                  
    0.898  40%   1.201 GPC+PCho                                            
   12.234   8%  16.363 NAA+NAAG                                            
   16.777   9%  22.438 Glu+Gln                                             
    5.982  13%   8.000 Cr+PCr                                              
   12.234   8%  16.363 NAA+NAAG                                            
    5.982  13%   8.000 Cr+PCr                                              
   16.777   9%  22.438 Glu+Gln                                             
   6 lines in following misc. output table
  FWHM = 0.049 ppm    S/N =   3                                            
  Data shift = 0.049 ppm                                                   
  Ph:-128 deg       0.0 deg/ppm                                            
  alphaB,S = 1.3E-01,   1.3E+01                                            
   19 spline knots.   Ns = 6(1)                                            
  ( 9) 5 infls.   ( 8) 2 extrs.                                            
  480 points on ppm-axis = NY
      4.100000     4.091866     4.083733     4.075600     4.067466     4.059333     4.051199     4.043066     4.034933     4.026799
      4.018666     4.010532     4.002399     3.994265     3.986132     3.977998     3.969864     3.961731     3.953597     3.945463
      3.937330     3.929196     3.921062     3.912929     3.904795     3.896662     3.888528     3.880394     3.872261     3.864127
      3.855993     3.847860     3.839726     3.831592     3.823459     3.815325     3.807191     3.799058     3.790924     3.782790
      3.774657     3.766523     3.758389     3.750256     3.742122     3.733989     3.725855     3.717721     3.709588     3.701454
      3.693320     3.685187     3.677053     3.668919     3.660786     3.652652     3.644518     3.636385     3.628251     3.620117
      3.611984     3.603850     3.595716     3.587583     3.579449     3.571316     3.563182     3.555048     3.546915     3.538781
      3.530647     3.522514     3.514380     3.506246     3.498113     3.489979     3.481845     3.473712     3.465578     3.457444
      3.449311     3.441177     3.433043     3.424910     3.416776     3.408643     3.400509     3.392375     3.384242     3.376108
      3.367974     3.359841     3.351707     3.343573     3.335440     3.327306     3.319172     3.311039     3.302905     3.294771
      3.286638     3.278504     3.270370     3.262237     3.254103     3.245970     3.237836     3.229702     3.221569     3.213435
      3.205301     3.197168     3.189034     3.180900     3.172767     3.164633     3.156499     3.148366     3.140232     3.132098
      3.123965     3.115831     3.107697     3.099564     3.091430     3.083297     3.075163     3.067029     3.058896     3.050762
      3.042628     3.034495     3.026361     3.018227     3.010094     3.001960     2.993826     2.985693     2.977559     2.969425
      2.961292     2.953158     2.945024     2.936891     2.928757     2.920624     2.912490     2.904356     2.896223     2.888089
      2.879955     2.871822     2.863688     2.855554     2.847421     2.839287     2.831153     2.823020     2.814886     2.806752
      2.798619     2.790485     2.782351     2.774218     2.766084     2.757951     2.749817     2.741683     2.733550     2.725416
      2.717282     2.709149     2.701015     2.692881     2.684748     2.676614     2.668480     2.660347     2.652213     2.644079
      2.635946     2.627812     2.619678     2.611545     2.603411     2.595278     2.587144     2.579010     2.570877     2.562743
      2.554609     2.546476     2.538342     2.530208     2.522075     2.513941     2.505807     2.497674     2.489540     2.481406
      2.473273     2.465139     2.457006     2.448872     2.440738     2.432605     2.424471     2.416337     2.408204     2.400070
      2.391936     2.383803     2.375669     2.367535     2.359402     2.351268     2.343134     2.335001     2.326867     2.318733
      2.310600     2.302466     2.294333     2.286199     2.278065     2.269932     2.261798     2.253664     2.245531     2.237397
      2.229263     2.221130     2.212996     2.204862     2.196729     2.188595     2.180461     2.172328     2.164194     2.156060
      2.147927     2.139793     2.131660     2.123526     2.115392     2.107259     2.099125     2.090991     2.082858     2.074724
      2.066590     2.058457     2.050323     2.042189     2.034056     2.025922     2.017788     2.009655     2.001521     1.993387
      1.985254     1.977120     1.968987     1.960853     1.952719     1.944586     1.936452     1.928318     1.920185     1.912051
      1.903917     1.895784     1.887650     1.879516     1.871383     1.863249     1.855115     1.846982     1.838848     1.830714
      1.822581     1.814447     1.806314     1.798180     1.790046     1.781913     1.773779     1.765645     1.757512     1.749378
      1.741244     1.733111     1.724977     1.716843     1.708710     1.700576     1.692442     1.684309     1.676175     1.668041
      1.659908     1.651774     1.643641     1.635507     1.627373     1.619240     1.611106     1.602972     1.594839     1.586705
      1.578571     1.570438     1.562304     1.554170     1.546037     1.537903     1.529769     1.521636     1.513502     1.505368
      1.497235     1.489101     1.480968     1.472834     1.464700     1.456567     1.448433     1.440299     1.432166     1.424032
      1.415898     1.407765     1.399631     1.391497     1.383364     1.375230     1.367096     1.358963     1.350829     1.342695
      1.334562     1.326428     1.318295     1.310161     1.302027     1.293894     1.285760     1.277626     1.269493     1.261359
      1.253225     1.245092     1.236958     1.228824     1.220691     1.212557     1.204423     1.196290     1.188156     1.180022
      1.171889     1.163755     1.155622     1.147488     1.139354     1.131221     1.123087     1.114953     1.106820     1.098686
      1.090552     1.082419     1.074285     1.066151     1.058018     1.049884     1.041750     1.033617     1.025483     1.017349
      1.009216     1.001082     0.992949     0.984815     0.976681     0.968548     0.960414     0.952280     0.944147     0.936013
      0.927879     0.919746     0.911612     0.903478     0.895345     0.887211     0.879077     0.870944     0.862810     0.854676
      0.846543     0.838409     0.830276     0.822142     0.814008     0.805875     0.797741     0.789607     0.781474     0.773340
      0.765206     0.757073     0.748939     0.740805     0.732672     0.724538     0.716404     0.708271     0.700137     0.692003
      0.683870     0.675736     0.667603     0.659469     0.651335     0.643202     0.635068     0.626934     0.618801     0.610667
      0.602533     0.594400     0.586266     0.578132     0.569999     0.561865     0.553731     0.545598     0.537464     0.529330
      0.521197     0.513063     0.504930     0.496796     0.488662     0.480529     0.472395     0.464261     0.456128     0.447994
      0.439861     0.431727     0.423593     0.415460     0.407326     0.399192     0.391059     0.382925     0.374792     0.366658
      0.358524     0.350391     0.342257     0.334124     0.325990     0.317856     0.309723     0.301589     0.293455     0.285322
      0.277188     0.269055     0.260921     0.252787     0.244654     0.236520     0.228386     0.220253     0.212119     0.203986
 NY phased data points follow
  -4.63008E+01 -4.39652E+01 -3.58690E+01 -5.05301E+01 -7.36178E+01 -2.97299E+01 -4.69644E+01 -6.14341E+01 -5.42582E+01 -5.33821E+01
  -4.32853E+01 -5.74446E+01 -5.29658E+01 -5.89362E+01 -5.65417E+01 -8.83497E+01 -8.87951E+01 -9.45337E+01 -1.00873E+02 -9.37504E+01
  -9.74272E+01 -7.41407E+01 -1.01787E+02 -8.19471E+01 -6.25531E+01 -3.79842E+01 -2.74512E+01 -4.14268E+01 -2.05447E+01 -1.33705E+01
  -1.65428E+01 -2.54195E+01 -7.69676E+00 -3.42341E+01 -2.10035E+01 -1.67135E+01 -7.35690E+00  5.92708E+00 -4.53538E+01 -3.04419E+01
  -6.15291E+01 -7.14628E+01 -5.58347E+01 -8.22466E+01 -7.14602E+01 -3.67885E+01 -2.79065E+01 -1.08074E+01  2.38069E+01  2.10861E+01
   2.71991E+01  8.43352E+00  5.95771E+00  1.11055E+01  6.29199E+00 -8.95132E-01  7.37157E+00  1.35226E+01 -2.33975E+01 -1.40542E+01
  -2.76954E+01 -2.59915E+01 -9.21432E+00  3.43787E+00  1.74829E+01  2.96964E+00  1.82071E+01  2.76356E+01  7.37177E+00 -1.78309E+01
   3.89244E+00 -2.16630E+01 -2.41162E+01 -9.22720E-01 -1.01947E+01  2.11933E+01  2.59842E+00  1.62763E+01  1.04703E+01  3.00134E+00
   2.37675E+01  7.57496E+00  1.87222E+01 -5.48038E+00 -1.35545E+01 -2.78998E+01 -2.33873E+01  7.06663E+00 -3.93433E+00  8.89527E+00
   1.93026E+01  2.86124E+01  2.98948E+01  3.27861E+01  3.15918E+01  2.54799E+01  3.63294E+01  5.82514E+01  5.13817E+01  3.69902E+01
   7.35810E+01  4.39410E+01  2.72727E+01  1.59439E+01 -1.48519E+00  4.01635E+01 -8.75490E+00 -3.08623E+01 -3.01564E+01 -7.04665E+01
  -8.47685E+01 -1.05661E+02 -9.27216E+01 -7.65470E+01 -9.61545E+01 -7.71351E+01 -4.73498E+01 -5.11062E+01 -3.58298E+01 -4.35352E+01
  -3.59833E+01 -3.44968E+01 -3.39387E+01 -5.51402E+00 -3.05867E+01 -1.88409E+01  6.52517E+00  4.43384E+01  5.56886E+01  3.45817E+01
   7.04181E+01  7.20616E+01  3.58530E+01 -7.73921E+00 -2.76944E+01 -3.06692E+01 -5.96505E+01 -8.63542E+01 -7.87765E+01 -6.82547E+01
  -6.79112E+01 -8.70934E+01 -9.56457E+01 -7.85148E+01 -8.07557E+01 -7.09684E+01 -8.58833E+01 -8.53470E+01 -7.50845E+01 -7.06160E+01
  -6.07492E+01 -8.01325E+01 -6.17776E+01 -6.38228E+01 -8.33059E+01 -6.62091E+01 -5.87828E+01 -5.45372E+01 -4.61749E+01 -5.97508E+01
  -4.15322E+01 -3.30691E+01 -3.87985E+01 -3.02111E+01 -4.54104E+01 -2.93058E+01 -4.45327E+01 -4.01625E+01 -4.42297E+01 -5.35199E+01
  -2.53260E+01 -1.98449E+01 -6.66487E+00 -3.34383E+01 -2.42405E+01 -1.64319E+01 -1.24418E+01 -1.71730E+01 -1.07502E+01  1.90198E+00
  -3.67561E+01 -2.59447E+01 -5.16909E+01 -4.03176E+01 -4.33276E+01 -4.91443E+01 -1.43912E+01 -6.04907E+01 -8.42492E+01 -7.12687E+01
  -3.23986E+01 -4.13619E+01 -4.59046E+01 -2.93637E+01 -4.26445E+01 -4.79632E+01 -5.90175E+01 -4.14086E+01 -2.95204E+01 -3.69999E+01
  -4.78942E+01 -2.95623E+01 -2.25563E+01 -2.43371E+01 -8.79832E+00 -2.83523E+01 -4.39439E+01 -5.01084E+01 -4.85277E+01 -5.72795E+01
  -6.59907E+01 -6.01211E+01 -6.65058E+01 -4.31209E+01 -2.10102E+01 -1.07722E+01  2.65639E+01  2.02550E+01 -7.53457E+00  4.49549E+00
   4.76562E+00 -2.86254E-01  1.38712E+01 -2.35283E-01 -1.28308E+01 -2.07058E+01 -3.46753E+01  2.11705E-01  5.84101E+00 -1.89434E+01
  -4.14633E+01 -4.63942E+01 -4.25809E+01 -4.46720E+01 -3.85271E+01 -7.21699E+01 -7.49055E+01 -8.89741E+01 -8.73423E+01 -7.66740E+01
  -9.43751E+01 -7.99891E+01 -9.29553E+01 -8.07814E+01 -6.24167E+01 -3.96198E+01 -2.98452E+01 -6.49621E+01 -8.50588E+01 -4.93298E+01
  -4.40224E+01 -5.68455E+01 -6.14828E+01 -1.20080E+02 -5.77958E+01 -4.88351E+01 -7.44194E+01 -1.25032E+01  1.44850E+01  8.74533E+01
   1.20733E+02  1.20688E+02  1.31140E+02  1.13115E+02  9.01870E+01  1.12227E+02  9.81660E+01  9.55214E+01  1.09310E+02  7.61734E+01
   1.01047E+02  8.19491E+01  7.64970E+01  8.17777E+01  8.83610E+01  1.06389E+02  7.63386E+01  7.23659E+01  7.91705E+01  9.05854E+01
   7.97030E+01  8.44797E+01  9.77206E+01  9.41126E+01  8.70515E+01  9.10247E+01  8.73446E+01  9.31869E+01  8.09831E+01  5.51084E+01
   9.32623E+01  7.53705E+01  6.41011E+01  6.30684E+01  6.23599E+01  4.27954E+01  2.82546E+01  3.13156E+01 -1.82602E+01 -8.82049E+00
  -2.78247E+01 -4.34381E+00 -1.66519E+01 -3.49831E+01  2.90556E+00 -3.04918E+01  2.12180E+00  8.19412E+00  1.65853E+01  7.75292E+00
  -1.30638E+01  1.23075E+01 -9.03263E+00 -1.22127E+01  9.54354E+00  6.33221E+00  3.26669E+00  2.53180E+01  9.74498E+00  1.02138E+01
  -5.49706E+00 -1.89988E+01  8.02761E+00  6.93751E+00  8.26986E+00 -1.91645E+00  2.63702E+00 -6.12156E+00  3.07811E+00  9.28142E+00
  -2.43016E+01 -2.97692E+01 -3.77316E+01 -6.09972E+01 -6.47045E+01 -6.79858E+01 -9.59498E+01 -7.57795E+01 -5.63039E+01 -5.07112E+01
  -4.29209E+01 -5.26269E+01 -4.52024E+01 -4.74365E+01 -4.56700E+01 -4.51098E+01 -3.46943E+01 -2.10139E+01 -1.17143E+01 -9.25441E+00
  -1.68680E+01 -1.00409E+01 -8.49924E+00 -1.09949E+01 -1.63141E+01 -1.92132E+01 -3.47016E+01 -3.57000E+01 -2.80757E+01 -3.74918E+01
  -2.82555E+01 -2.52116E+01 -3.98328E+01 -3.31256E+01 -1.58516E+01 -3.04019E+01 -2.08817E+01 -2.49533E+01 -3.37318E+01  6.65253E+00
  -6.61064E+00 -9.22437E+00  2.87567E+00  6.34024E+00  1.83596E+01 -4.28521E+00  7.64494E+00  1.99303E+01  2.07462E+01  2.04843E+01
   3.12006E+01  6.35611E+01  4.32709E+01  5.02275E+01  7.55372E+01  6.88340E+01  9.78682E+01  1.19522E+02  1.06301E+02  1.14393E+02
   1.12660E+02  9.72233E+01  9.63257E+01  7.12410E+01  6.40518E+01  6.70194E+01  6.33721E+01  5.80380E+01  3.07376E+01  2.32461E+01
   2.64136E+01  1.14882E+01  1.32710E-01  4.33436E+00 -1.06705E+01 -2.13854E+01 -3.96465E+01 -3.85341E+01 -3.19019E+01 -4.79375E+01
  -1.00896E+01 -2.58306E+01 -4.49572E+01 -4.78915E+01 -4.85348E+01 -2.52075E+01 -5.04765E+01 -2.84348E+01 -3.36974E+01 -2.17412E+01
  -1.81817E+01 -4.92314E+01  1.52471E+00 -2.52373E+01 -3.66230E+01 -3.03736E+01 -5.02853E+01 -3.47355E+01 -4.17592E+01 -2.26730E+01
  -2.90494E+01 -3.45260E+01 -3.03403E+01 -4.13411E+01 -2.82856E+01 -3.63618E+01 -2.76548E+01 -2.02914E+01 -3.50384E+01 -1.77243E+01
  -1.55126E+01 -3.73057E+01 -3.85983E+01 -4.84507E+01 -3.86033E+01 -1.66654E+01 -2.90251E+01 -3.58928E+01 -2.75941E+01 -3.06874E+01
  -4.73473E+01 -4.02903E+01 -3.82316E+01 -2.27082E+01 -2.31071E+01 -4.28315E+01 -2.27781E+01 -3.30366E+01 -2.08133E+01 -3.17821E+01
  -4.57247E+01 -1.86914E+01 -2.71016E+01 -2.47612E+01 -2.02746E+01 -1.01858E+01 -2.75110E+01 -2.67498E+01 -2.24475E+01 -3.55163E+01
  -2.89057E+01 -4.68858E+01 -2.83203E+01 -2.52355E+01 -3.23334E+01 -2.95514E+01 -3.06069E+01 -1.23811E+01 -2.39921E+01 -4.13644E+01
 NY points of the fit to the data follow
  -4.79454E+01 -4.93919E+01 -5.15840E+01 -5.43816E+01 -5.71071E+01 -5.77084E+01 -5.58659E+01 -5.34440E+01 -5.24105E+01 -5.26287E+01
  -5.32637E+01 -5.46676E+01 -5.78229E+01 -6.15176E+01 -6.37399E+01 -6.99880E+01 -7.78725E+01 -8.34668E+01 -8.92880E+01 -9.61966E+01
  -9.84790E+01 -9.26961E+01 -8.12597E+01 -6.90066E+01 -5.75407E+01 -4.57779E+01 -3.35823E+01 -2.28546E+01 -1.66614E+01 -1.16291E+01
  -8.37158E+00 -6.58348E+00 -5.01864E+00 -3.05275E+00 -1.03847E+00 -8.80392E-01 -4.94811E+00 -1.28576E+01 -2.47362E+01 -4.12321E+01
  -5.86158E+01 -7.05105E+01 -7.32429E+01 -6.73632E+01 -5.58008E+01 -4.12491E+01 -2.52011E+01 -9.67766E+00  2.57337E+00  9.97656E+00
   1.35261E+01  1.28920E+01  9.67662E+00  7.24798E+00  3.38817E+00 -1.94838E+00 -4.80915E+00 -7.34361E+00 -1.21427E+01 -1.64619E+01
  -1.76950E+01 -1.65677E+01 -1.41913E+01 -9.19781E+00 -2.66642E+00  2.62209E+00  6.82326E+00  8.24922E+00  5.11528E+00 -1.27223E+00
  -7.56116E+00 -1.05532E+01 -1.15076E+01 -1.14965E+01 -8.72639E+00 -1.72091E+00  7.07262E+00  1.55585E+01  2.08824E+01  2.43905E+01
   2.41846E+01  1.88714E+01  9.99806E+00  3.29412E-01 -8.29633E+00 -1.40152E+01 -1.60142E+01 -1.44935E+01 -1.03955E+01 -4.85735E+00
   2.22892E+00  8.60074E+00  1.49166E+01  2.00290E+01  2.39143E+01  2.62931E+01  2.93489E+01  3.34328E+01  3.60406E+01  3.92310E+01
   4.16806E+01  4.12788E+01  3.64147E+01  3.11212E+01  2.37501E+01  1.12661E+01 -3.79093E+00 -1.86444E+01 -3.61323E+01 -5.67151E+01
  -7.56043E+01 -8.65674E+01 -8.83610E+01 -8.73755E+01 -8.45876E+01 -7.92030E+01 -6.90603E+01 -5.87840E+01 -5.04428E+01 -4.37076E+01
  -3.78382E+01 -3.22652E+01 -2.62011E+01 -1.90901E+01 -1.23485E+01 -5.72229E+00  1.19039E+01  3.32997E+01  4.77671E+01  5.87696E+01
   6.80208E+01  6.37241E+01  4.06915E+01  9.22868E+00 -1.67760E+01 -3.51959E+01 -5.20517E+01 -6.86332E+01 -7.93297E+01 -7.88334E+01
  -7.71822E+01 -7.65765E+01 -7.67251E+01 -7.72269E+01 -7.76744E+01 -7.77494E+01 -7.71436E+01 -7.58263E+01 -7.39955E+01 -7.18061E+01
  -6.94028E+01 -6.68596E+01 -6.42645E+01 -6.17217E+01 -5.92060E+01 -5.69130E+01 -5.48123E+01 -5.28105E+01 -5.10327E+01 -4.96750E+01
  -4.87170E+01 -4.74758E+01 -4.57196E+01 -4.40860E+01 -4.29143E+01 -4.19618E+01 -4.11121E+01 -3.97596E+01 -3.80152E+01 -3.60193E+01
  -3.22306E+01 -2.66381E+01 -2.18518E+01 -1.96759E+01 -1.99119E+01 -2.01511E+01 -1.86136E+01 -1.74041E+01 -1.96444E+01 -2.48898E+01
  -3.01104E+01 -3.42900E+01 -3.85658E+01 -4.35565E+01 -4.89098E+01 -5.33304E+01 -5.49103E+01 -5.53191E+01 -5.61096E+01 -5.56075E+01
  -5.23665E+01 -4.86452E+01 -4.64705E+01 -4.40024E+01 -3.93060E+01 -3.48040E+01 -3.31304E+01 -3.28778E+01 -3.12461E+01 -2.85611E+01
  -2.76841E+01 -2.78187E+01 -2.55117E+01 -2.16011E+01 -1.91728E+01 -1.89227E+01 -2.10133E+01 -2.51856E+01 -3.19708E+01 -4.38742E+01
  -5.39001E+01 -5.98014E+01 -6.11287E+01 -5.50183E+01 -4.08208E+01 -2.22967E+01 -3.54234E+00  1.19356E+01  2.23536E+01  2.68463E+01
   2.69976E+01  2.43675E+01  1.98114E+01  1.67875E+01  1.29497E+01  1.03511E+01  8.29391E+00  4.13066E+00 -1.82426E+00 -1.04417E+01
  -2.30825E+01 -3.69252E+01 -5.13604E+01 -6.58420E+01 -7.78542E+01 -8.62825E+01 -9.22361E+01 -9.51946E+01 -9.55395E+01 -9.42817E+01
  -9.19415E+01 -8.76279E+01 -8.09376E+01 -7.34444E+01 -6.42424E+01 -5.58164E+01 -4.68130E+01 -4.53025E+01 -5.44007E+01 -6.29436E+01
  -6.60530E+01 -7.60400E+01 -9.18367E+01 -9.15771E+01 -7.44112E+01 -5.89645E+01 -4.81400E+01 -2.33020E+01  1.79899E+01  5.90596E+01
   8.15747E+01  9.20956E+01  1.03522E+02  1.13904E+02  1.14400E+02  1.06102E+02  9.76636E+01  8.98673E+01  8.30268E+01  7.71073E+01
   7.21534E+01  6.82616E+01  6.55281E+01  6.38520E+01  6.30876E+01  6.29519E+01  6.32085E+01  6.34331E+01  6.36024E+01  6.34738E+01
   6.27109E+01  6.14791E+01  5.98001E+01  5.78704E+01  5.56718E+01  5.31288E+01  5.03649E+01  4.75017E+01  4.43811E+01  4.06386E+01
   3.62539E+01  3.13271E+01  2.60442E+01  2.06294E+01  1.55460E+01  1.11693E+01  8.01721E+00  6.24619E+00  5.61691E+00  6.00669E+00
   7.33104E+00  9.38956E+00  1.17432E+01  1.41607E+01  1.65519E+01  1.89370E+01  2.13158E+01  2.37169E+01  2.61757E+01  2.87346E+01
   3.11781E+01  3.34033E+01  3.56392E+01  3.79081E+01  3.98315E+01  4.12366E+01  4.22839E+01  4.27760E+01  4.25548E+01  4.15517E+01
   4.00175E+01  3.81745E+01  3.58611E+01  3.27908E+01  2.89913E+01  2.43442E+01  1.81886E+01  1.01366E+01  4.20477E-01 -1.02899E+01
  -2.13828E+01 -3.20318E+01 -4.14327E+01 -4.85935E+01 -5.28964E+01 -5.45327E+01 -5.41642E+01 -5.23287E+01 -4.97637E+01 -4.68747E+01
  -4.36341E+01 -4.00558E+01 -3.61689E+01 -3.20732E+01 -2.77387E+01 -2.34565E+01 -1.95419E+01 -1.60246E+01 -1.31111E+01 -1.12304E+01
  -1.06926E+01 -1.16873E+01 -1.40991E+01 -1.78053E+01 -2.23711E+01 -2.71930E+01 -3.16353E+01 -3.52625E+01 -3.77187E+01 -3.87602E+01
  -3.83126E+01 -3.65181E+01 -3.36967E+01 -3.01933E+01 -2.62974E+01 -2.22430E+01 -1.81981E+01 -1.42499E+01 -1.03690E+01 -6.66641E+00
  -3.12246E+00  4.02340E-01  3.87686E+00  7.41222E+00  1.13109E+01  1.55659E+01  2.01250E+01  2.51663E+01  3.10223E+01  3.77018E+01
   4.52533E+01  5.38540E+01  6.37878E+01  7.48312E+01  8.60137E+01  9.60890E+01  1.03994E+02  1.08794E+02  1.09460E+02  1.05965E+02
   9.94009E+01  9.10624E+01  8.16319E+01  7.19190E+01  6.24974E+01  5.34443E+01  4.42292E+01  3.47816E+01  2.49310E+01  1.48086E+01
   4.67124E+00 -4.97352E+00 -1.36232E+01 -2.10512E+01 -2.71321E+01 -3.18927E+01 -3.53678E+01 -3.79018E+01 -3.97900E+01 -4.12898E+01
  -4.23915E+01 -4.31084E+01 -4.34129E+01 -4.36331E+01 -4.38513E+01 -4.37967E+01 -4.34545E+01 -4.31646E+01 -4.30328E+01 -4.27510E+01
  -4.22463E+01 -4.17357E+01 -4.14475E+01 -4.12137E+01 -4.08241E+01 -4.03556E+01 -4.00003E+01 -3.96859E+01 -3.91222E+01 -3.85340E+01
  -3.80452E+01 -3.76723E+01 -3.73675E+01 -3.70774E+01 -3.67431E+01 -3.63836E+01 -3.60289E+01 -3.55755E+01 -3.50741E+01 -3.45004E+01
  -3.39502E+01 -3.34574E+01 -3.30258E+01 -3.26603E+01 -3.24636E+01 -3.22457E+01 -3.19122E+01 -3.15807E+01 -3.12716E+01 -3.09317E+01
  -3.06168E+01 -3.03084E+01 -2.99648E+01 -2.95646E+01 -2.91716E+01 -2.86969E+01 -2.82484E+01 -2.78004E+01 -2.73027E+01 -2.68074E+01
  -2.63966E+01 -2.61483E+01 -2.60384E+01 -2.59382E+01 -2.57167E+01 -2.54242E+01 -2.50116E+01 -2.44988E+01 -2.38894E+01 -2.33475E+01
  -2.29743E+01 -2.27938E+01 -2.25982E+01 -2.22836E+01 -2.20786E+01 -2.19607E+01 -2.18073E+01 -2.16712E+01 -2.15747E+01 -2.14777E+01
 NY background values follow
    -2.653E+01   -2.632E+01   -2.611E+01   -2.590E+01   -2.569E+01   -2.548E+01   -2.527E+01   -2.506E+01   -2.485E+01   -2.464E+01
    -2.443E+01   -2.422E+01   -2.401E+01   -2.380E+01   -2.358E+01   -2.337E+01   -2.316E+01   -2.294E+01   -2.273E+01   -2.252E+01
    -2.230E+01   -2.209E+01   -2.187E+01   -2.165E+01   -2.144E+01   -2.122E+01   -2.100E+01   -2.078E+01   -2.056E+01   -2.034E+01
    -2.012E+01   -1.990E+01   -1.968E+01   -1.946E+01   -1.923E+01   -1.901E+01   -1.879E+01   -1.856E+01   -1.834E+01   -1.812E+01
    -1.789E+01   -1.767E+01   -1.745E+01   -1.722E+01   -1.700E+01   -1.678E+01   -1.656E+01   -1.634E+01   -1.612E+01   -1.591E+01
    -1.569E+01   -1.547E+01   -1.526E+01   -1.505E+01   -1.484E+01   -1.463E+01   -1.442E+01   -1.421E+01   -1.401E+01   -1.381E+01
    -1.361E+01   -1.341E+01   -1.321E+01   -1.302E+01   -1.283E+01   -1.264E+01   -1.245E+01   -1.227E+01   -1.209E+01   -1.191E+01
    -1.173E+01   -1.156E+01   -1.139E+01   -1.122E+01   -1.105E+01   -1.089E+01   -1.073E+01   -1.057E+01   -1.041E+01   -1.026E+01
    -1.011E+01   -9.963E+00   -9.819E+00   -9.678E+00   -9.540E+00   -9.404E+00   -9.272E+00   -9.143E+00   -9.017E+00   -8.894E+00
    -8.775E+00   -8.658E+00   -8.545E+00   -8.435E+00   -8.327E+00   -8.223E+00   -8.121E+00   -8.023E+00   -7.927E+00   -7.833E+00
    -7.742E+00   -7.654E+00   -7.568E+00   -7.484E+00   -7.403E+00   -7.324E+00   -7.247E+00   -7.172E+00   -7.099E+00   -7.028E+00
    -6.959E+00   -6.892E+00   -6.826E+00   -6.762E+00   -6.700E+00   -6.639E+00   -6.579E+00   -6.521E+00   -6.464E+00   -6.409E+00
    -6.354E+00   -6.301E+00   -6.249E+00   -6.197E+00   -6.147E+00   -6.098E+00   -6.049E+00   -6.002E+00   -5.955E+00   -5.909E+00
    -5.864E+00   -5.819E+00   -5.776E+00   -5.732E+00   -5.690E+00   -5.648E+00   -5.607E+00   -5.566E+00   -5.526E+00   -5.486E+00
    -5.447E+00   -5.408E+00   -5.369E+00   -5.331E+00   -5.293E+00   -5.255E+00   -5.218E+00   -5.181E+00   -5.143E+00   -5.106E+00
    -5.069E+00   -5.032E+00   -4.996E+00   -4.959E+00   -4.923E+00   -4.886E+00   -4.850E+00   -4.815E+00   -4.779E+00   -4.744E+00
    -4.710E+00   -4.676E+00   -4.642E+00   -4.609E+00   -4.576E+00   -4.544E+00   -4.513E+00   -4.482E+00   -4.452E+00   -4.423E+00
    -4.394E+00   -4.367E+00   -4.340E+00   -4.314E+00   -4.289E+00   -4.265E+00   -4.242E+00   -4.220E+00   -4.199E+00   -4.179E+00
    -4.160E+00   -4.143E+00   -4.126E+00   -4.111E+00   -4.097E+00   -4.084E+00   -4.072E+00   -4.061E+00   -4.051E+00   -4.042E+00
    -4.034E+00   -4.027E+00   -4.021E+00   -4.016E+00   -4.011E+00   -4.008E+00   -4.005E+00   -4.003E+00   -4.002E+00   -4.002E+00
    -4.003E+00   -4.004E+00   -4.006E+00   -4.009E+00   -4.012E+00   -4.016E+00   -4.021E+00   -4.026E+00   -4.032E+00   -4.038E+00
    -4.045E+00   -4.053E+00   -4.061E+00   -4.070E+00   -4.081E+00   -4.092E+00   -4.106E+00   -4.120E+00   -4.137E+00   -4.156E+00
    -4.176E+00   -4.199E+00   -4.225E+00   -4.253E+00   -4.284E+00   -4.318E+00   -4.355E+00   -4.396E+00   -4.440E+00   -4.488E+00
    -4.539E+00   -4.595E+00   -4.655E+00   -4.719E+00   -4.788E+00   -4.861E+00   -4.939E+00   -5.023E+00   -5.111E+00   -5.205E+00
    -5.305E+00   -5.410E+00   -5.521E+00   -5.639E+00   -5.762E+00   -5.892E+00   -6.029E+00   -6.173E+00   -6.324E+00   -6.481E+00
    -6.647E+00   -6.820E+00   -7.000E+00   -7.189E+00   -7.386E+00   -7.591E+00   -7.804E+00   -8.027E+00   -8.258E+00   -8.498E+00
    -8.747E+00   -9.006E+00   -9.275E+00   -9.553E+00   -9.841E+00   -1.014E+01   -1.045E+01   -1.077E+01   -1.110E+01   -1.144E+01
    -1.179E+01   -1.215E+01   -1.253E+01   -1.291E+01   -1.330E+01   -1.371E+01   -1.412E+01   -1.454E+01   -1.496E+01   -1.540E+01
    -1.584E+01   -1.628E+01   -1.674E+01   -1.719E+01   -1.766E+01   -1.813E+01   -1.860E+01   -1.907E+01   -1.955E+01   -2.004E+01
    -2.052E+01   -2.101E+01   -2.149E+01   -2.198E+01   -2.247E+01   -2.296E+01   -2.345E+01   -2.393E+01   -2.442E+01   -2.490E+01
    -2.539E+01   -2.587E+01   -2.634E+01   -2.682E+01   -2.728E+01   -2.775E+01   -2.821E+01   -2.866E+01   -2.911E+01   -2.956E+01
    -2.999E+01   -3.042E+01   -3.085E+01   -3.126E+01   -3.167E+01   -3.207E+01   -3.246E+01   -3.284E+01   -3.321E+01   -3.357E+01
    -3.392E+01   -3.426E+01   -3.459E+01   -3.490E+01   -3.521E+01   -3.550E+01   -3.578E+01   -3.604E+01   -3.629E+01   -3.653E+01
    -3.675E+01   -3.696E+01   -3.715E+01   -3.733E+01   -3.750E+01   -3.765E+01   -3.779E+01   -3.791E+01   -3.802E+01   -3.812E+01
    -3.821E+01   -3.828E+01   -3.834E+01   -3.839E+01   -3.843E+01   -3.845E+01   -3.846E+01   -3.847E+01   -3.846E+01   -3.844E+01
    -3.840E+01   -3.836E+01   -3.831E+01   -3.825E+01   -3.818E+01   -3.809E+01   -3.800E+01   -3.790E+01   -3.779E+01   -3.767E+01
    -3.755E+01   -3.741E+01   -3.727E+01   -3.711E+01   -3.695E+01   -3.679E+01   -3.661E+01   -3.643E+01   -3.624E+01   -3.605E+01
    -3.584E+01   -3.564E+01   -3.542E+01   -3.520E+01   -3.498E+01   -3.475E+01   -3.452E+01   -3.428E+01   -3.403E+01   -3.379E+01
    -3.353E+01   -3.328E+01   -3.302E+01   -3.276E+01   -3.249E+01   -3.223E+01   -3.196E+01   -3.168E+01   -3.141E+01   -3.113E+01
    -3.086E+01   -3.058E+01   -3.030E+01   -3.002E+01   -2.974E+01   -2.945E+01   -2.917E+01   -2.889E+01   -2.861E+01   -2.833E+01
    -2.805E+01   -2.777E+01   -2.749E+01   -2.721E+01   -2.693E+01   -2.666E+01   -2.638E+01   -2.611E+01   -2.584E+01   -2.558E+01
    -2.532E+01   -2.505E+01   -2.480E+01   -2.454E+01   -2.429E+01   -2.405E+01   -2.380E+01   -2.357E+01   -2.333E+01   -2.310E+01
    -2.288E+01   -2.266E+01   -2.244E+01   -2.223E+01   -2.202E+01   -2.182E+01   -2.162E+01   -2.143E+01   -2.124E+01   -2.106E+01
    -2.088E+01   -2.070E+01   -2.052E+01   -2.035E+01   -2.019E+01   -2.002E+01   -1.986E+01   -1.971E+01   -1.955E+01   -1.940E+01
    -1.926E+01   -1.911E+01   -1.897E+01   -1.883E+01   -1.870E+01   -1.856E+01   -1.843E+01   -1.830E+01   -1.818E+01   -1.805E+01
    -1.793E+01   -1.781E+01   -1.769E+01   -1.757E+01   -1.746E+01   -1.734E+01   -1.723E+01   -1.712E+01   -1.701E+01   -1.690E+01
    -1.680E+01   -1.669E+01   -1.659E+01   -1.649E+01   -1.638E+01   -1.628E+01   -1.618E+01   -1.608E+01   -1.598E+01   -1.588E+01
    -1.579E+01   -1.569E+01   -1.559E+01   -1.549E+01   -1.540E+01   -1.530E+01   -1.520E+01   -1.511E+01   -1.501E+01   -1.491E+01
 Mac      Conc. = 3.35E-04
  -4.87212E+01 -4.89169E+01 -4.89807E+01 -4.90993E+01 -4.94462E+01 -5.01038E+01 -5.10860E+01 -5.24438E+01 -5.39062E+01 -5.51439E+01
  -5.60378E+01 -5.69271E+01 -5.82534E+01 -5.96403E+01 -6.09353E+01 -6.25470E+01 -6.39834E+01 -6.39708E+01 -6.22067E+01 -5.94515E+01
  -5.62272E+01 -5.24220E+01 -4.82354E+01 -4.42926E+01 -4.10359E+01 -3.84390E+01 -3.59801E+01 -3.35513E+01 -3.11560E+01 -2.87246E+01
  -2.64154E+01 -2.44441E+01 -2.29235E+01 -2.17789E+01 -2.09114E+01 -2.02250E+01 -1.94000E+01 -1.80679E+01 -1.64132E+01 -1.48487E+01
  -1.35726E+01 -1.23963E+01 -1.10009E+01 -9.34774E+00 -7.69430E+00 -6.36199E+00 -5.36959E+00 -4.66062E+00 -4.36742E+00 -4.55259E+00
  -5.20365E+00 -6.32320E+00 -7.62704E+00 -8.75847E+00 -9.70955E+00 -1.05208E+01 -1.07746E+01 -1.02557E+01 -9.22651E+00 -7.83089E+00
  -6.22062E+00 -4.52281E+00 -2.98218E+00 -1.89483E+00 -1.52974E+00 -1.86587E+00 -2.46702E+00 -3.13270E+00 -3.89758E+00 -4.32405E+00
  -3.95452E+00 -2.52541E+00 -4.16591E-01  1.68584E+00  3.56323E+00  5.24369E+00  6.58229E+00  7.18050E+00  7.03297E+00  6.60936E+00
   6.06982E+00  5.41254E+00  4.91261E+00  4.78305E+00  5.05197E+00  5.58353E+00  6.29786E+00  7.21033E+00  8.22058E+00  9.37101E+00
   1.05314E+01  1.16229E+01  1.26155E+01  1.33182E+01  1.34340E+01  1.29063E+01  1.18365E+01  1.02428E+01  8.34035E+00  6.42415E+00
   4.72675E+00  2.99229E+00  7.62183E-01 -2.36337E+00 -6.46550E+00 -1.17816E+01 -1.83706E+01 -2.55296E+01 -3.19407E+01 -3.69109E+01
