 LCModel (Version 6.3-1N) Copyright: S.W. Provencher.          Ref.: Magn. Reson. Med. 30:672-679 (1993).                
 Slice_N1@11_16  28-Feb-2025 11:40:50
 27 lines in following concentration table = NCONC+1
    Conc.  %SD /Cr+PCr  Metabolite                                         
 1.65E-04  10% 1.5E-04 Mac                                                 
    3.896  43%   3.430 Cr                                                  
    5.192  32%   4.570 PCr                                                 
   11.368  12%  10.008 Ins                                                 
   13.411   8%  11.806 NAA                                                 
    6.876  18%   6.053 Tau                                                 
    1.654  87%   1.456 PCho                                                
    1.650  84%   1.452 GPC                                                 
   12.047  12%  10.606 Glu                                                 
    5.927  20%   5.218 Gln                                                 
    0.000 999%   0.000 Ala                                                 
    9.745  18%   8.579 Asc                                                 
    0.812 190%   0.715 Asp                                                 
    2.547  31%   2.242 GABA                                                
    1.163  97%   1.024 Glc                                                 
    3.345  23%   2.945 GSH                                                 
    0.000 999%   0.000 Lac                                                 
    2.543  32%   2.239 NAAG                                                
    0.000 999%   0.000 PE                                                  
    3.304  10%   2.909 GPC+PCho                                            
   15.954   7%  14.045 NAA+NAAG                                            
   17.974  11%  15.824 Glu+Gln                                             
    9.087  10%   8.000 Cr+PCr                                              
   15.954   7%  14.045 NAA+NAAG                                            
    9.087  10%   8.000 Cr+PCr                                              
   17.974  11%  15.824 Glu+Gln                                             
   6 lines in following misc. output table
  FWHM = 0.024 ppm    S/N =   3                                            
  Data shift = 0.024 ppm                                                   
  Ph:-141 deg       0.0 deg/ppm                                            
  alphaB,S = 1.2E-01,   3.7E-01                                            
   19 spline knots.   Ns = 5(1)                                            
   2 inflections.     1 extrema                                            
  480 points on ppm-axis = NY
      4.100000     4.091866     4.083733     4.075600     4.067466     4.059333     4.051199     4.043066     4.034933     4.026799
      4.018666     4.010532     4.002399     3.994265     3.986132     3.977998     3.969864     3.961731     3.953597     3.945463
      3.937330     3.929196     3.921062     3.912929     3.904795     3.896662     3.888528     3.880394     3.872261     3.864127
      3.855993     3.847860     3.839726     3.831592     3.823459     3.815325     3.807191     3.799058     3.790924     3.782790
      3.774657     3.766523     3.758389     3.750256     3.742122     3.733989     3.725855     3.717721     3.709588     3.701454
      3.693320     3.685187     3.677053     3.668919     3.660786     3.652652     3.644518     3.636385     3.628251     3.620117
      3.611984     3.603850     3.595716     3.587583     3.579449     3.571316     3.563182     3.555048     3.546915     3.538781
      3.530647     3.522514     3.514380     3.506246     3.498113     3.489979     3.481845     3.473712     3.465578     3.457444
      3.449311     3.441177     3.433043     3.424910     3.416776     3.408643     3.400509     3.392375     3.384242     3.376108
      3.367974     3.359841     3.351707     3.343573     3.335440     3.327306     3.319172     3.311039     3.302905     3.294771
      3.286638     3.278504     3.270370     3.262237     3.254103     3.245970     3.237836     3.229702     3.221569     3.213435
      3.205301     3.197168     3.189034     3.180900     3.172767     3.164633     3.156499     3.148366     3.140232     3.132098
      3.123965     3.115831     3.107697     3.099564     3.091430     3.083297     3.075163     3.067029     3.058896     3.050762
      3.042628     3.034495     3.026361     3.018227     3.010094     3.001960     2.993826     2.985693     2.977559     2.969425
      2.961292     2.953158     2.945024     2.936891     2.928757     2.920624     2.912490     2.904356     2.896223     2.888089
      2.879955     2.871822     2.863688     2.855554     2.847421     2.839287     2.831153     2.823020     2.814886     2.806752
      2.798619     2.790485     2.782351     2.774218     2.766084     2.757951     2.749817     2.741683     2.733550     2.725416
      2.717282     2.709149     2.701015     2.692881     2.684748     2.676614     2.668480     2.660347     2.652213     2.644079
      2.635946     2.627812     2.619678     2.611545     2.603411     2.595278     2.587144     2.579010     2.570877     2.562743
      2.554609     2.546476     2.538342     2.530208     2.522075     2.513941     2.505807     2.497674     2.489540     2.481406
      2.473273     2.465139     2.457006     2.448872     2.440738     2.432605     2.424471     2.416337     2.408204     2.400070
      2.391936     2.383803     2.375669     2.367535     2.359402     2.351268     2.343134     2.335001     2.326867     2.318733
      2.310600     2.302466     2.294333     2.286199     2.278065     2.269932     2.261798     2.253664     2.245531     2.237397
      2.229263     2.221130     2.212996     2.204862     2.196729     2.188595     2.180461     2.172328     2.164194     2.156060
      2.147927     2.139793     2.131660     2.123526     2.115392     2.107259     2.099125     2.090991     2.082858     2.074724
      2.066590     2.058457     2.050323     2.042189     2.034056     2.025922     2.017788     2.009655     2.001521     1.993387
      1.985254     1.977120     1.968987     1.960853     1.952719     1.944586     1.936452     1.928318     1.920185     1.912051
      1.903917     1.895784     1.887650     1.879516     1.871383     1.863249     1.855115     1.846982     1.838848     1.830714
      1.822581     1.814447     1.806314     1.798180     1.790046     1.781913     1.773779     1.765645     1.757512     1.749378
      1.741244     1.733111     1.724977     1.716843     1.708710     1.700576     1.692442     1.684309     1.676175     1.668041
      1.659908     1.651774     1.643641     1.635507     1.627373     1.619240     1.611106     1.602972     1.594839     1.586705
      1.578571     1.570438     1.562304     1.554170     1.546037     1.537903     1.529769     1.521636     1.513502     1.505368
      1.497235     1.489101     1.480968     1.472834     1.464700     1.456567     1.448433     1.440299     1.432166     1.424032
      1.415898     1.407765     1.399631     1.391497     1.383364     1.375230     1.367096     1.358963     1.350829     1.342695
      1.334562     1.326428     1.318295     1.310161     1.302027     1.293894     1.285760     1.277626     1.269493     1.261359
      1.253225     1.245092     1.236958     1.228824     1.220691     1.212557     1.204423     1.196290     1.188156     1.180022
      1.171889     1.163755     1.155622     1.147488     1.139354     1.131221     1.123087     1.114953     1.106820     1.098686
      1.090552     1.082419     1.074285     1.066151     1.058018     1.049884     1.041750     1.033617     1.025483     1.017349
      1.009216     1.001082     0.992949     0.984815     0.976681     0.968548     0.960414     0.952280     0.944147     0.936013
      0.927879     0.919746     0.911612     0.903478     0.895345     0.887211     0.879077     0.870944     0.862810     0.854676
      0.846543     0.838409     0.830276     0.822142     0.814008     0.805875     0.797741     0.789607     0.781474     0.773340
      0.765206     0.757073     0.748939     0.740805     0.732672     0.724538     0.716404     0.708271     0.700137     0.692003
      0.683870     0.675736     0.667603     0.659469     0.651335     0.643202     0.635068     0.626934     0.618801     0.610667
      0.602533     0.594400     0.586266     0.578132     0.569999     0.561865     0.553731     0.545598     0.537464     0.529330
      0.521197     0.513063     0.504930     0.496796     0.488662     0.480529     0.472395     0.464261     0.456128     0.447994
      0.439861     0.431727     0.423593     0.415460     0.407326     0.399192     0.391059     0.382925     0.374792     0.366658
      0.358524     0.350391     0.342257     0.334124     0.325990     0.317856     0.309723     0.301589     0.293455     0.285322
      0.277188     0.269055     0.260921     0.252787     0.244654     0.236520     0.228386     0.220253     0.212119     0.203986
 NY phased data points follow
   5.23991E+01  6.50161E+01  4.94619E+01  5.82083E+01  6.13703E+01  6.31947E+01  6.61431E+01  5.51554E+01  8.00757E+01  7.28121E+01
   5.72703E+01  5.77154E+01  5.96325E+01  4.88027E+01  4.83034E+01  6.09078E+01  4.22867E+01  5.04265E+01  3.50404E+01 -1.13938E+01
  -1.76262E+01  3.38259E+00  2.10275E+01  3.77320E+01  5.58931E+01  6.48280E+01  6.47017E+01  4.74091E+01  5.49694E+01  5.82250E+01
   3.59886E+01  4.12983E+01  4.25602E+01  2.45406E+01  2.46377E+01  1.50214E+01  2.56772E+00 -1.98416E+00 -3.37933E+01 -4.71211E+01
  -6.85714E+01 -8.95672E+01 -7.74679E+01 -7.53927E+01 -6.38839E+01 -4.26768E+01 -5.37204E+00  1.81288E+01  1.83021E+01  1.42076E+01
   6.49692E+00  1.08294E+01  6.07658E-01  5.26625E+00 -1.15517E+00 -2.71774E+01 -8.40493E+00 -8.72315E+00 -4.09059E+01 -3.94475E+01
  -1.92185E+01 -2.58170E+01 -2.33261E+01  1.25759E+00  1.97025E+01  4.26009E+01  3.54246E+01  1.57359E+01 -3.60917E+00 -2.82037E+01
  -3.01142E+01 -2.10477E+01 -1.20753E+01  5.61444E+00  2.62090E+01  3.53572E+01  6.32868E+01  6.80343E+01  7.20120E+01  6.58856E+01
   3.92772E+01  5.85965E+01  3.52833E+01  2.34271E+01  6.53869E+00 -1.15057E+01  1.24051E+00 -3.03541E+00  5.07500E+01  5.43507E+01
   4.08437E+01  5.26833E+01  6.59294E+01  7.91162E+01  6.02696E+01  1.01642E+02  1.06736E+02  1.00040E+02  1.18829E+02  9.18533E+01
   9.17734E+01  8.46421E+01  6.59002E+01  5.50103E+01  3.63792E+01  2.93666E+01  2.46048E+01  3.12219E+01  1.60866E+01 -7.55876E+01
  -1.56311E+02 -1.47879E+02 -1.06711E+02 -6.77419E+01 -5.05692E+01 -4.78704E+01 -3.10529E+01 -2.00984E+01 -8.60946E+00 -7.16818E+00
  -1.30807E+01 -3.79097E-01  1.36130E+01  1.78609E+01  1.84229E+01  3.86974E+01  4.76082E+01  6.17208E+01  9.48241E+01  1.16568E+02
   1.73072E+02  1.73248E+02  5.93357E+01 -3.57606E+01 -5.47291E+01 -4.74347E+01 -5.71190E+01 -5.84899E+01 -3.96575E+01 -5.91627E+01
  -5.29902E+01 -2.93678E+01 -6.03042E+01 -4.51889E+01 -4.98759E+01 -5.91374E+01 -4.12011E+01 -5.47667E+01 -4.05778E+01 -5.30843E+01
  -4.03292E+01 -1.74940E+01 -3.51294E+01 -3.30413E+01 -2.60229E+01 -1.90719E+01 -2.50727E+01 -2.24610E+01 -1.64080E+01 -1.70980E+01
  -2.43670E+01 -1.73982E+01 -9.25367E+00 -2.53149E+01 -3.19747E+01 -2.38800E+01 -8.45609E+00 -2.47515E+01 -3.10848E+01 -1.97732E+01
  -1.57113E+01  2.00286E+00  1.93664E+01  3.34196E+01  1.48505E+01 -5.12822E+00  1.11366E+01  3.63142E+01  2.73642E+01 -5.19060E+00
  -1.16823E+01 -1.81939E+01 -2.91893E+01 -2.98828E+01 -2.89623E+01 -2.93611E+01 -3.35223E+01 -3.34901E+01 -3.37865E+01 -1.56796E+01
  -8.42555E+00 -2.50547E+01 -2.04624E+01 -1.90873E+01 -2.52161E+00  3.73532E+00 -1.67501E+01 -1.52034E+01  1.00969E+00 -3.45029E-01
  -1.51398E+01  1.05734E+01  2.79084E+01  3.44423E+01  1.83359E+01  3.48171E+00  1.59559E+01 -1.98219E+01 -4.02944E+01 -4.47206E+01
  -3.24866E+01 -3.67369E+01 -3.80588E+01 -6.88492E+00 -8.60524E+00  1.51646E+01  3.59758E+01  5.11779E+01  4.82712E+01  2.96667E+01
   1.01894E+01 -1.26276E+01 -2.14956E+00 -1.77055E+01 -1.34413E+01  5.07429E+00 -2.93912E+00  9.50630E-01  6.17016E+00  7.25902E+00
   3.31121E+00  4.72008E+00  8.19467E+00 -7.14905E+00 -3.05913E+01 -4.25150E+01 -5.03878E+01 -5.21331E+01 -5.99153E+01 -6.95104E+01
  -6.43774E+01 -4.54668E+01 -2.58135E+01 -1.84065E+01 -8.92491E+00  1.90139E+00 -3.47328E+00 -1.19085E+01 -8.18326E+00 -3.43124E+01
  -4.89882E+01 -5.27194E+01 -5.37961E+01 -3.66595E+01 -6.52592E+01 -1.05978E+02 -1.39421E+02 -5.16079E+01  1.07578E+02  1.50696E+02
   1.59697E+02  1.60496E+02  1.45276E+02  1.30861E+02  1.15275E+02  1.07111E+02  9.73662E+01  9.33040E+01  8.20921E+01  7.42331E+01
   8.57485E+01  7.95548E+01  7.36267E+01  8.52546E+01  7.51091E+01  7.52577E+01  8.63160E+01  9.56798E+01  9.02298E+01  7.91592E+01
   8.35131E+01  8.10729E+01  9.62367E+01  8.84496E+01  7.44470E+01  8.01515E+01  7.07481E+01  7.65147E+01  8.61594E+01  7.10256E+01
   5.71789E+01  7.00378E+01  6.98053E+01  5.85081E+01  5.65520E+01  5.54217E+01  4.09046E+01  2.45343E+01  3.06034E+01  3.24147E+01
   2.85880E+01  1.80164E+01  3.27519E+01  3.65366E+01  2.26045E+01  4.13885E+01  3.39721E+01  3.49292E+01  2.93469E+01  2.11649E+01
   3.91133E+01  1.37456E+01 -2.20154E+00  2.44759E+00 -1.22397E+01 -3.18786E+01 -3.70141E+01 -2.62448E+01 -1.31733E+01 -1.55413E+01
  -1.76971E+01 -1.08189E+01 -1.98732E+01  3.17173E+00  5.35771E+00 -9.66186E+00  1.50372E+01  3.52801E+00 -3.82456E+00  2.19289E+01
   2.74269E+01  1.41034E+01  1.36557E+01  6.50764E+00  1.34340E+01  3.06029E+01  1.44337E+01  2.94873E+01  6.21540E+01  6.70175E+01
   5.73917E+01  6.30672E+01  5.13130E+01  3.27768E+01  3.53107E+01  2.99746E+01  4.72539E+01  5.27996E+01  5.28096E+01  6.01908E+01
   6.88698E+01  6.07321E+01  5.49948E+01  6.00895E+01  4.81261E+01  6.09770E+01  3.97972E+01  3.76705E+01  3.41808E+01  8.25901E+00
   1.23276E+01  8.91858E+00  1.23469E+01 -1.16934E+01  5.79073E+00  1.76497E+01  4.55876E+00  1.48383E+01  3.11016E+01  4.40015E+01
   1.80599E+01  4.05252E+01  4.56655E+01  3.47313E+01  4.89034E+01  5.16612E+01  5.69552E+01  5.84190E+01  7.12707E+01  7.01581E+01
   8.95901E+01  9.75510E+01  9.84604E+01  1.04619E+02  1.05330E+02  1.26960E+02  1.29032E+02  1.37272E+02  1.52502E+02  1.50751E+02
   1.29399E+02  1.41841E+02  1.42020E+02  9.44674E+01  8.84450E+01  9.81987E+01  9.31224E+01  7.93317E+01  7.58433E+01  7.54654E+01
   6.26888E+01  3.99493E+01  3.48270E+01  3.29774E+01  1.89824E+01  1.69581E+01  4.53770E+00  5.51326E+00  2.62144E+00 -4.76921E+00
  -3.86699E+00  2.85066E+00  2.95766E+00 -6.04468E+00  1.25640E+01  2.62173E+00 -5.76167E-01  1.79598E+01  4.50661E+00  4.29296E+00
   9.86670E+00  5.69088E-01 -2.69407E-01 -8.90895E-01  6.83289E-01  4.42017E+00  9.06700E+00  1.05149E+01  2.96093E-01  8.31149E+00
  -7.31358E-01 -7.62413E+00  7.66269E+00  6.63268E+00 -3.27800E+00  4.70588E-02  5.70997E+00 -1.45697E+01  4.90549E+00  2.03054E+00
  -1.54414E+01  3.08997E+00  5.65254E+00  6.18755E+00  4.62227E-01  1.41534E+01 -2.59507E+00  1.43619E+00  1.03254E+01 -3.39037E+00
   1.69030E+01  3.61789E+00  1.51771E+00 -1.45369E+00  6.97572E+00  7.79856E+00 -9.73103E+00  1.90732E+00  1.03100E+01  1.70519E+01
   5.84515E+00  9.63565E+00  5.50985E+00 -2.93425E+00 -1.47777E+00 -7.56162E-01  4.52914E+00  6.40559E+00  1.72443E+01  1.38722E+01
   1.60146E+01  8.01229E+00 -2.18789E+00 -5.52745E+00 -5.18614E+00 -6.48774E-01 -4.22827E+00 -4.43340E+00 -6.44872E+00 -4.00807E+00
 NY points of the fit to the data follow
   4.37182E+01  3.31830E+01  2.01728E+01  1.00419E+01  1.54335E+01  4.10541E+01  6.11659E+01  6.03053E+01  4.74678E+01  3.65032E+01
   3.06222E+01  2.87631E+01  3.37349E+01  3.98947E+01  4.17794E+01  4.07772E+01  3.90945E+01  2.85871E+01  1.34693E+01 -7.21192E+00
  -2.44105E+01 -1.03314E+01  1.41507E+01  3.40987E+01  6.01931E+01  7.31155E+01  7.37181E+01  7.54081E+01  7.40551E+01  7.16488E+01
   6.87875E+01  6.53976E+01  6.13286E+01  5.56913E+01  4.88549E+01  3.95780E+01  3.45840E+01  1.80156E+01 -7.28347E+00 -4.43565E+01
  -7.80288E+01 -7.79885E+01 -6.29806E+01 -5.66878E+01 -5.01098E+01 -3.17069E+01 -4.11635E+00  1.74336E+01  3.48375E+01  4.75764E+01
   5.02353E+01  4.91906E+01  4.20577E+01  2.70254E+01  1.26323E+01  4.68348E-01 -4.72903E+00 -7.63547E+00 -2.60192E+01 -2.78371E+01
  -8.59797E+00 -5.84158E+00  1.07215E+00  2.41120E+01  4.07538E+01  4.98847E+01  4.68638E+01  2.87852E+01 -6.49453E+00 -3.52159E+01
  -2.85883E+01 -1.82462E+01 -1.92061E+01 -4.32133E+00  1.88980E+01  3.41133E+01  4.23293E+01  4.76939E+01  5.09687E+01  5.37428E+01
   5.10528E+01  4.13321E+01  2.96687E+01  1.22306E+01 -3.63933E-01 -1.33376E+00  3.98617E+00  1.68222E+01  3.05888E+01  3.94544E+01
   4.72195E+01  5.35479E+01  5.97687E+01  6.50962E+01  6.98985E+01  7.69453E+01  8.14962E+01  8.55714E+01  8.47154E+01  8.11639E+01
   8.24405E+01  8.12054E+01  6.75147E+01  5.96581E+01  4.07888E+01  2.84082E+01  3.24856E+01  4.43673E+01  2.02784E+01 -7.65489E+01
  -1.54231E+02 -1.40244E+02 -1.05445E+02 -8.26395E+01 -6.39230E+01 -4.96592E+01 -3.75021E+01 -2.75716E+01 -1.89924E+01 -1.10082E+01
  -3.32917E+00  4.51838E+00  1.26306E+01  2.16397E+01  3.20168E+01  4.37769E+01  5.61664E+01  5.51684E+01  7.38270E+01  1.01044E+02
   1.38287E+02  1.41322E+02  5.21006E+01 -3.98468E+01 -5.41496E+01 -5.11657E+01 -5.21567E+01 -5.06209E+01 -4.70017E+01 -4.60346E+01
  -4.41179E+01 -4.49941E+01 -4.76574E+01 -4.78039E+01 -4.83546E+01 -4.88854E+01 -4.68868E+01 -4.43952E+01 -4.23789E+01 -4.12124E+01
  -4.01217E+01 -3.84825E+01 -3.67997E+01 -3.50103E+01 -3.31242E+01 -3.11332E+01 -2.95144E+01 -2.90706E+01 -2.90321E+01 -2.84182E+01
  -2.68622E+01 -2.49058E+01 -2.43005E+01 -2.47413E+01 -2.40205E+01 -2.17996E+01 -1.95294E+01 -1.91849E+01 -2.05056E+01 -1.86473E+01
  -9.52309E+00  5.77373E+00  1.82894E+01  1.49685E+01  1.59147E+00  5.72962E-02  1.19124E+01  2.42570E+01  2.02926E+01  9.03831E-01
  -1.46950E+01 -2.19026E+01 -2.70880E+01 -2.94928E+01 -3.12149E+01 -3.15955E+01 -3.16884E+01 -3.26188E+01 -3.08731E+01 -2.83481E+01
  -2.55473E+01 -2.15250E+01 -1.94710E+01 -1.12462E+01  3.53630E+00  6.83139E+00  2.55927E+00  6.90011E+00  1.35734E+01  1.44490E+01
   1.00197E+01  9.57193E+00  1.74931E+01  2.55508E+01  2.41598E+01  1.77806E+01  1.10891E+01  1.80505E+00 -9.25429E+00 -2.04967E+01
  -2.68025E+01 -3.47145E+01 -3.47045E+01 -1.98966E+01 -7.61900E+00  2.02814E+01  4.58913E+01  5.20857E+01  5.94916E+01  5.42830E+01
   3.70133E+01  3.22361E+01  2.80694E+01  2.86387E+01  3.13776E+01  2.86005E+01  2.34571E+01  1.60111E+01  4.41648E+00 -7.46971E+00
  -1.84832E+01 -2.98391E+01 -4.09558E+01 -4.86530E+01 -5.73064E+01 -6.44617E+01 -6.52710E+01 -6.88630E+01 -6.76926E+01 -5.93610E+01
  -5.81028E+01 -4.78147E+01 -3.48524E+01 -2.66977E+01 -1.48640E+01 -9.48838E+00 -1.04696E+01 -1.07463E+01 -1.83246E+01 -2.49560E+01
  -3.84485E+01 -5.83982E+01 -5.70914E+01 -5.19820E+01 -6.23877E+01 -1.08246E+02 -1.47671E+02 -5.81178E+01  8.75585E+01  1.40306E+02
   1.36196E+02  1.30376E+02  1.21518E+02  1.14116E+02  1.05807E+02  9.85490E+01  9.04908E+01  8.30127E+01  7.65466E+01  6.97415E+01
   6.66700E+01  6.39157E+01  6.32879E+01  6.56155E+01  6.70853E+01  6.95996E+01  7.22408E+01  7.25432E+01  7.26171E+01  7.14082E+01
   6.98128E+01  6.80076E+01  6.61056E+01  6.38431E+01  6.16427E+01  5.95279E+01  5.71654E+01  5.47411E+01  5.19829E+01  4.91054E+01
   4.63160E+01  4.34468E+01  4.08514E+01  3.90597E+01  3.81212E+01  3.80066E+01  3.84894E+01  3.92007E+01  3.99482E+01  4.09623E+01
   4.21452E+01  4.32748E+01  4.42794E+01  4.51442E+01  4.59766E+01  4.67950E+01  4.79536E+01  4.92563E+01  5.03118E+01  5.11701E+01
   5.18764E+01  5.25097E+01  5.32297E+01  5.35364E+01  5.35177E+01  5.33400E+01  5.27529E+01  5.15329E+01  5.02029E+01  4.87823E+01
   4.67551E+01  4.45325E+01  4.22293E+01  3.95134E+01  3.62453E+01  3.18984E+01  2.66815E+01  2.14597E+01  1.68220E+01  1.27740E+01
   9.64250E+00  7.95294E+00  7.73228E+00  9.05524E+00  1.13646E+01  1.38084E+01  1.59340E+01  1.75792E+01  1.89268E+01  2.03008E+01
   2.23473E+01  2.48055E+01  2.73250E+01  2.97776E+01  3.13982E+01  3.22245E+01  3.27948E+01  3.31242E+01  3.29590E+01  3.21849E+01
   3.08350E+01  2.89908E+01  2.65574E+01  2.43429E+01  2.31140E+01  2.25845E+01  2.27733E+01  2.38151E+01  2.52101E+01  2.71518E+01
   2.93044E+01  3.15635E+01  3.40091E+01  3.62082E+01  3.82635E+01  4.02767E+01  4.21415E+01  4.42266E+01  4.63154E+01  4.83234E+01
   5.02966E+01  5.24618E+01  5.47675E+01  5.74962E+01  6.05300E+01  6.35517E+01  6.70239E+01  7.11234E+01  7.51934E+01  7.92613E+01
   8.37390E+01  8.84754E+01  9.27351E+01  9.64027E+01  9.87195E+01  9.90011E+01  9.67468E+01  9.20841E+01  8.60594E+01  8.00856E+01
   7.47633E+01  7.01125E+01  6.60272E+01  6.23488E+01  5.83221E+01  5.33640E+01  4.81152E+01  4.27735E+01  3.76113E+01  3.31841E+01
   2.98043E+01  2.70713E+01  2.48532E+01  2.31826E+01  2.20629E+01  2.10960E+01  2.01932E+01  1.92294E+01  1.83783E+01  1.77121E+01
   1.73127E+01  1.69983E+01  1.65911E+01  1.62370E+01  1.60414E+01  1.57996E+01  1.52952E+01  1.48430E+01  1.48487E+01  1.47714E+01
   1.43305E+01  1.39473E+01  1.37843E+01  1.35686E+01  1.31889E+01  1.27552E+01  1.25563E+01  1.25450E+01  1.23803E+01  1.21200E+01
   1.17013E+01  1.13076E+01  1.09241E+01  1.06353E+01  1.04807E+01  1.03381E+01  1.01683E+01  9.98479E+00  9.71240E+00  9.42710E+00
   9.21794E+00  8.91053E+00  8.41320E+00  8.02442E+00  7.69244E+00  7.46164E+00  7.31577E+00  7.03635E+00  6.81911E+00  6.48581E+00
   6.08228E+00  5.87414E+00  5.74702E+00  5.53168E+00  5.36964E+00  5.11040E+00  4.84004E+00  4.60635E+00  4.38602E+00  4.13815E+00
   3.78406E+00  3.32463E+00  3.05319E+00  2.72921E+00  2.48296E+00  2.35745E+00  2.38816E+00  2.31351E+00  2.00838E+00  1.52243E+00
   1.03242E+00  6.36166E-01  4.22968E-01  1.29195E-01 -1.30238E-01 -3.28916E-01 -5.34011E-01 -1.02079E+00 -1.28600E+00 -1.36145E+00
 NY background values follow
     7.361E+01    7.246E+01    7.130E+01    7.014E+01    6.897E+01    6.781E+01    6.665E+01    6.548E+01    6.432E+01    6.316E+01
     6.200E+01    6.085E+01    5.970E+01    5.856E+01    5.742E+01    5.628E+01    5.516E+01    5.404E+01    5.293E+01    5.183E+01
     5.074E+01    4.966E+01    4.859E+01    4.753E+01    4.648E+01    4.545E+01    4.443E+01    4.343E+01    4.244E+01    4.146E+01
     4.051E+01    3.957E+01    3.865E+01    3.774E+01    3.685E+01    3.599E+01    3.513E+01    3.430E+01    3.349E+01    3.269E+01
     3.191E+01    3.115E+01    3.041E+01    2.968E+01    2.898E+01    2.829E+01    2.763E+01    2.698E+01    2.635E+01    2.574E+01
     2.515E+01    2.459E+01    2.403E+01    2.350E+01    2.299E+01    2.250E+01    2.203E+01    2.158E+01    2.115E+01    2.074E+01
     2.036E+01    1.999E+01    1.964E+01    1.931E+01    1.900E+01    1.871E+01    1.844E+01    1.818E+01    1.794E+01    1.772E+01
     1.751E+01    1.732E+01    1.714E+01    1.698E+01    1.683E+01    1.669E+01    1.656E+01    1.645E+01    1.635E+01    1.626E+01
     1.617E+01    1.610E+01    1.604E+01    1.598E+01    1.594E+01    1.590E+01    1.586E+01    1.584E+01    1.581E+01    1.580E+01
     1.579E+01    1.578E+01    1.577E+01    1.577E+01    1.577E+01    1.578E+01    1.579E+01    1.580E+01    1.582E+01    1.584E+01
     1.586E+01    1.588E+01    1.590E+01    1.593E+01    1.596E+01    1.599E+01    1.602E+01    1.605E+01    1.609E+01    1.612E+01
     1.616E+01    1.619E+01    1.623E+01    1.627E+01    1.631E+01    1.634E+01    1.638E+01    1.642E+01    1.645E+01    1.649E+01
     1.652E+01    1.656E+01    1.659E+01    1.662E+01    1.665E+01    1.668E+01    1.671E+01    1.673E+01    1.676E+01    1.678E+01
     1.681E+01    1.683E+01    1.685E+01    1.686E+01    1.688E+01    1.689E+01    1.691E+01    1.692E+01    1.692E+01    1.693E+01
     1.693E+01    1.694E+01    1.694E+01    1.694E+01    1.693E+01    1.692E+01    1.692E+01    1.690E+01    1.689E+01    1.687E+01
     1.686E+01    1.683E+01    1.681E+01    1.678E+01    1.676E+01    1.673E+01    1.669E+01    1.666E+01    1.662E+01    1.658E+01
     1.654E+01    1.650E+01    1.646E+01    1.642E+01    1.637E+01    1.632E+01    1.628E+01    1.623E+01    1.618E+01    1.613E+01
     1.608E+01    1.603E+01    1.598E+01    1.592E+01    1.587E+01    1.582E+01    1.577E+01    1.572E+01    1.567E+01    1.561E+01
     1.556E+01    1.551E+01    1.546E+01    1.542E+01    1.537E+01    1.532E+01    1.528E+01    1.523E+01    1.519E+01    1.515E+01
     1.512E+01    1.508E+01    1.505E+01    1.502E+01    1.499E+01    1.496E+01    1.494E+01    1.492E+01    1.491E+01    1.489E+01
     1.488E+01    1.488E+01    1.488E+01    1.488E+01    1.489E+01    1.490E+01    1.492E+01    1.494E+01    1.496E+01    1.500E+01
     1.503E+01    1.507E+01    1.512E+01    1.517E+01    1.523E+01    1.528E+01    1.535E+01    1.541E+01    1.548E+01    1.555E+01
     1.562E+01    1.569E+01    1.577E+01    1.584E+01    1.592E+01    1.599E+01    1.607E+01    1.614E+01    1.621E+01    1.628E+01
     1.635E+01    1.642E+01    1.649E+01    1.655E+01    1.661E+01    1.666E+01    1.671E+01    1.676E+01    1.680E+01    1.684E+01
     1.687E+01    1.689E+01    1.691E+01    1.693E+01    1.693E+01    1.693E+01    1.693E+01    1.691E+01    1.689E+01    1.686E+01
     1.683E+01    1.678E+01    1.673E+01    1.667E+01    1.661E+01    1.653E+01    1.644E+01    1.635E+01    1.625E+01    1.613E+01
     1.601E+01    1.588E+01    1.574E+01    1.558E+01    1.542E+01    1.525E+01    1.507E+01    1.487E+01    1.467E+01    1.445E+01
     1.422E+01    1.398E+01    1.373E+01    1.347E+01    1.320E+01    1.293E+01    1.264E+01    1.236E+01    1.206E+01    1.176E+01
     1.146E+01    1.115E+01    1.084E+01    1.054E+01    1.023E+01    9.917E+00    9.609E+00    9.303E+00    8.999E+00    8.700E+00
     8.404E+00    8.114E+00    7.830E+00    7.554E+00    7.284E+00    7.024E+00    6.772E+00    6.531E+00    6.301E+00    6.083E+00
     5.877E+00    5.684E+00    5.504E+00    5.338E+00    5.185E+00    5.044E+00    4.918E+00    4.804E+00    4.705E+00    4.618E+00
     4.546E+00    4.487E+00    4.441E+00    4.410E+00    4.392E+00    4.389E+00    4.399E+00    4.423E+00    4.462E+00    4.515E+00
     4.582E+00    4.663E+00    4.759E+00    4.870E+00    4.994E+00    5.134E+00    5.288E+00    5.457E+00    5.641E+00    5.840E+00
     6.053E+00    6.281E+00    6.523E+00    6.778E+00    7.046E+00    7.326E+00    7.616E+00    7.918E+00    8.229E+00    8.549E+00
     8.878E+00    9.215E+00    9.558E+00    9.909E+00    1.026E+01    1.063E+01    1.099E+01    1.136E+01    1.173E+01    1.211E+01
     1.249E+01    1.287E+01    1.324E+01    1.362E+01    1.400E+01    1.438E+01    1.475E+01    1.512E+01    1.549E+01    1.586E+01
     1.621E+01    1.657E+01    1.692E+01    1.726E+01    1.759E+01    1.792E+01    1.824E+01    1.855E+01    1.886E+01    1.915E+01
     1.944E+01    1.972E+01    1.998E+01    2.024E+01    2.049E+01    2.072E+01    2.094E+01    2.115E+01    2.135E+01    2.154E+01
     2.171E+01    2.186E+01    2.201E+01    2.213E+01    2.225E+01    2.234E+01    2.243E+01    2.249E+01    2.254E+01    2.257E+01
     2.258E+01    2.258E+01    2.256E+01    2.252E+01    2.246E+01    2.239E+01    2.231E+01    2.221E+01    2.210E+01    2.197E+01
     2.183E+01    2.168E+01    2.151E+01    2.133E+01    2.115E+01    2.095E+01    2.074E+01    2.052E+01    2.029E+01    2.006E+01
     1.981E+01    1.956E+01    1.930E+01    1.903E+01    1.876E+01    1.848E+01    1.819E+01    1.790E+01    1.761E+01    1.731E+01
     1.700E+01    1.670E+01    1.639E+01    1.608E+01    1.576E+01    1.544E+01    1.512E+01    1.480E+01    1.448E+01    1.415E+01
     1.382E+01    1.349E+01    1.316E+01    1.282E+01    1.249E+01    1.215E+01    1.182E+01    1.148E+01    1.114E+01    1.081E+01
     1.047E+01    1.013E+01    9.790E+00    9.452E+00    9.115E+00    8.778E+00    8.442E+00    8.107E+00    7.773E+00    7.440E+00
     7.108E+00    6.779E+00    6.450E+00    6.123E+00    5.796E+00    5.471E+00    5.147E+00    4.824E+00    4.501E+00    4.180E+00
     3.859E+00    3.539E+00    3.219E+00    2.900E+00    2.581E+00    2.262E+00    1.944E+00    1.626E+00    1.308E+00    9.901E-01
     6.721E-01    3.539E-01    3.546E-02   -2.832E-01   -6.023E-01   -9.218E-01   -1.242E+00   -1.562E+00   -1.884E+00   -2.206E+00
 Mac      Conc. = 1.65E-04
   6.17167E+01  6.04093E+01  5.89948E+01  5.73522E+01  5.55063E+01  5.33132E+01  5.11181E+01  4.89842E+01  4.71960E+01  4.57720E+01
   4.44823E+01  4.33588E+01  4.18905E+01  3.96972E+01  3.74893E+01  3.61497E+01  3.68391E+01  3.85740E+01  3.94807E+01  4.03359E+01
   4.13232E+01  4.16203E+01  4.12587E+01  4.08223E+01  4.05985E+01  4.05021E+01  4.05484E+01  4.07210E+01  4.06943E+01  4.03523E+01
   3.99711E+01  3.95268E+01  3.86503E+01  3.74778E+01  3.65324E+01  3.63793E+01  3.69868E+01  3.75756E+01  3.73340E+01  3.62847E+01
   3.54788E+01  3.51213E+01  3.51555E+01  3.52197E+01  3.48559E+01  3.40842E+01  3.30486E+01  3.18283E+01  3.03676E+01  2.89971E+01
   2.80075E+01  2.70152E+01  2.60922E+01  2.54163E+01  2.49325E+01  2.49051E+01  2.52519E+01  2.54737E+01  2.55338E+01  2.60081E+01
   2.62396E+01  2.58847E+01  2.51952E+01  2.43293E+01  2.35704E+01  2.31362E+01  2.26748E+01  2.21883E+01  2.21191E+01  2.29271E+01
   2.43164E+01  2.52487E+01  2.57995E+01  2.61238E+01  2.59522E+01  2.55563E+01  2.50141E+01  2.44228E+01  2.40519E+01  2.37463E+01
   2.34079E+01  2.34513E+01  2.37613E+01  2.42202E+01  2.46194E+01  2.50013E+01  2.54170E+01  2.57312E+01  2.59085E+01  2.61867E+01
   2.62890E+01  2.62543E+01  2.61457E+01  2.55688E+01  2.44880E+01  2.31411E+01  2.16728E+01  2.02997E+01  1.92457E+01  1.82244E+01
   1.67163E+01  1.50306E+01  1.30401E+01  1.03306E+01  6.87777E+00  2.95675E+00 -2.01630E-03 -1.36771E+00 -1.41745E+00 -4.92398E-01
