 LCModel (Version 6.3-1N) Copyright: S.W. Provencher.          Ref.: Magn. Reson. Med. 30:672-679 (1993).                
 Slice_N1@21_9  28-Feb-2025 11:41:12
 27 lines in following concentration table = NCONC+1
    Conc.  %SD /Cr+PCr  Metabolite                                         
 2.94E-04  12% 1.4E-04 Mac                                                 
    3.206 249%   1.563 Cr                                                  
   13.204  60%   6.437 PCr                                                 
   57.322   7%  27.945 Ins                                                 
   11.702  23%   5.705 NAA                                                 
   20.267  20%   9.880 Tau                                                 
    0.000 999%   0.000 PCho                                                
    3.768  23%   1.837 GPC                                                 
   19.486  17%   9.500 Glu                                                 
    7.790  35%   3.798 Gln                                                 
    0.000 999%   0.000 Ala                                                 
  125.909   4%  61.382 Asc                                                 
    1.949 149%   0.950 Asp                                                 
    0.762 210%   0.372 GABA                                                
    3.043  62%   1.483 Glc                                                 
    3.109  55%   1.515 GSH                                                 
    9.101  28%   4.437 Lac                                                 
    4.343  58%   2.117 NAAG                                                
    0.000 999%   0.000 PE                                                  
    3.768  23%   1.837 GPC+PCho                                            
   16.044  16%   7.822 NAA+NAAG                                            
   27.276  16%  13.298 Glu+Gln                                             
   16.410  14%   8.000 Cr+PCr                                              
   16.044  16%   7.822 NAA+NAAG                                            
   16.410  14%   8.000 Cr+PCr                                              
   27.276  16%  13.298 Glu+Gln                                             
   6 lines in following misc. output table
  FWHM = 0.081 ppm    S/N =   6                                            
  Data shift = 0.024 ppm                                                   
  Ph: 165 deg       0.0 deg/ppm                                            
  alphaB,S = 8.2E-02,   3.2E+01                                            
   19 spline knots.   Ns = 7(1)                                            
  (14) 6 infls.   ( 9) 5 extrs.                                            
  480 points on ppm-axis = NY
      4.100000     4.091866     4.083733     4.075600     4.067466     4.059333     4.051199     4.043066     4.034933     4.026799
      4.018666     4.010532     4.002399     3.994265     3.986132     3.977998     3.969864     3.961731     3.953597     3.945463
      3.937330     3.929196     3.921062     3.912929     3.904795     3.896662     3.888528     3.880394     3.872261     3.864127
      3.855993     3.847860     3.839726     3.831592     3.823459     3.815325     3.807191     3.799058     3.790924     3.782790
      3.774657     3.766523     3.758389     3.750256     3.742122     3.733989     3.725855     3.717721     3.709588     3.701454
      3.693320     3.685187     3.677053     3.668919     3.660786     3.652652     3.644518     3.636385     3.628251     3.620117
      3.611984     3.603850     3.595716     3.587583     3.579449     3.571316     3.563182     3.555048     3.546915     3.538781
      3.530647     3.522514     3.514380     3.506246     3.498113     3.489979     3.481845     3.473712     3.465578     3.457444
      3.449311     3.441177     3.433043     3.424910     3.416776     3.408643     3.400509     3.392375     3.384242     3.376108
      3.367974     3.359841     3.351707     3.343573     3.335440     3.327306     3.319172     3.311039     3.302905     3.294771
      3.286638     3.278504     3.270370     3.262237     3.254103     3.245970     3.237836     3.229702     3.221569     3.213435
      3.205301     3.197168     3.189034     3.180900     3.172767     3.164633     3.156499     3.148366     3.140232     3.132098
      3.123965     3.115831     3.107697     3.099564     3.091430     3.083297     3.075163     3.067029     3.058896     3.050762
      3.042628     3.034495     3.026361     3.018227     3.010094     3.001960     2.993826     2.985693     2.977559     2.969425
      2.961292     2.953158     2.945024     2.936891     2.928757     2.920624     2.912490     2.904356     2.896223     2.888089
      2.879955     2.871822     2.863688     2.855554     2.847421     2.839287     2.831153     2.823020     2.814886     2.806752
      2.798619     2.790485     2.782351     2.774218     2.766084     2.757951     2.749817     2.741683     2.733550     2.725416
      2.717282     2.709149     2.701015     2.692881     2.684748     2.676614     2.668480     2.660347     2.652213     2.644079
      2.635946     2.627812     2.619678     2.611545     2.603411     2.595278     2.587144     2.579010     2.570877     2.562743
      2.554609     2.546476     2.538342     2.530208     2.522075     2.513941     2.505807     2.497674     2.489540     2.481406
      2.473273     2.465139     2.457006     2.448872     2.440738     2.432605     2.424471     2.416337     2.408204     2.400070
      2.391936     2.383803     2.375669     2.367535     2.359402     2.351268     2.343134     2.335001     2.326867     2.318733
      2.310600     2.302466     2.294333     2.286199     2.278065     2.269932     2.261798     2.253664     2.245531     2.237397
      2.229263     2.221130     2.212996     2.204862     2.196729     2.188595     2.180461     2.172328     2.164194     2.156060
      2.147927     2.139793     2.131660     2.123526     2.115392     2.107259     2.099125     2.090991     2.082858     2.074724
      2.066590     2.058457     2.050323     2.042189     2.034056     2.025922     2.017788     2.009655     2.001521     1.993387
      1.985254     1.977120     1.968987     1.960853     1.952719     1.944586     1.936452     1.928318     1.920185     1.912051
      1.903917     1.895784     1.887650     1.879516     1.871383     1.863249     1.855115     1.846982     1.838848     1.830714
      1.822581     1.814447     1.806314     1.798180     1.790046     1.781913     1.773779     1.765645     1.757512     1.749378
      1.741244     1.733111     1.724977     1.716843     1.708710     1.700576     1.692442     1.684309     1.676175     1.668041
      1.659908     1.651774     1.643641     1.635507     1.627373     1.619240     1.611106     1.602972     1.594839     1.586705
      1.578571     1.570438     1.562304     1.554170     1.546037     1.537903     1.529769     1.521636     1.513502     1.505368
      1.497235     1.489101     1.480968     1.472834     1.464700     1.456567     1.448433     1.440299     1.432166     1.424032
      1.415898     1.407765     1.399631     1.391497     1.383364     1.375230     1.367096     1.358963     1.350829     1.342695
      1.334562     1.326428     1.318295     1.310161     1.302027     1.293894     1.285760     1.277626     1.269493     1.261359
      1.253225     1.245092     1.236958     1.228824     1.220691     1.212557     1.204423     1.196290     1.188156     1.180022
      1.171889     1.163755     1.155622     1.147488     1.139354     1.131221     1.123087     1.114953     1.106820     1.098686
      1.090552     1.082419     1.074285     1.066151     1.058018     1.049884     1.041750     1.033617     1.025483     1.017349
      1.009216     1.001082     0.992949     0.984815     0.976681     0.968548     0.960414     0.952280     0.944147     0.936013
      0.927879     0.919746     0.911612     0.903478     0.895345     0.887211     0.879077     0.870944     0.862810     0.854676
      0.846543     0.838409     0.830276     0.822142     0.814008     0.805875     0.797741     0.789607     0.781474     0.773340
      0.765206     0.757073     0.748939     0.740805     0.732672     0.724538     0.716404     0.708271     0.700137     0.692003
      0.683870     0.675736     0.667603     0.659469     0.651335     0.643202     0.635068     0.626934     0.618801     0.610667
      0.602533     0.594400     0.586266     0.578132     0.569999     0.561865     0.553731     0.545598     0.537464     0.529330
      0.521197     0.513063     0.504930     0.496796     0.488662     0.480529     0.472395     0.464261     0.456128     0.447994
      0.439861     0.431727     0.423593     0.415460     0.407326     0.399192     0.391059     0.382925     0.374792     0.366658
      0.358524     0.350391     0.342257     0.334124     0.325990     0.317856     0.309723     0.301589     0.293455     0.285322
      0.277188     0.269055     0.260921     0.252787     0.244654     0.236520     0.228386     0.220253     0.212119     0.203986
 NY phased data points follow
   2.34516E+02  2.57641E+02  2.52408E+02  2.50656E+02  2.53181E+02  2.64206E+02  2.68874E+02  2.69170E+02  2.79623E+02  2.68826E+02
   2.63225E+02  2.58977E+02  2.69388E+02  2.79582E+02  2.58465E+02  2.67647E+02  2.70781E+02  2.49795E+02  2.41594E+02  2.39028E+02
   2.45535E+02  2.50064E+02  2.59714E+02  3.01553E+02  3.34610E+02  3.28087E+02  3.16900E+02  2.93038E+02  2.81485E+02  2.59102E+02
   2.19686E+02  1.96027E+02  1.28885E+02  7.15240E+01  8.20079E+00 -7.94374E+01 -1.52950E+02 -2.41016E+02 -3.12609E+02 -3.84202E+02
  -4.29153E+02 -4.59457E+02 -4.85531E+02 -4.74638E+02 -4.80445E+02 -4.61270E+02 -4.42651E+02 -4.49060E+02 -4.30336E+02 -4.13296E+02
  -4.00637E+02 -4.11391E+02 -4.11697E+02 -3.84451E+02 -3.79974E+02 -3.61606E+02 -3.51212E+02 -3.67739E+02 -3.51037E+02 -3.40979E+02
  -3.46051E+02 -3.12353E+02 -2.87168E+02 -2.85692E+02 -2.64927E+02 -2.48139E+02 -2.43679E+02 -2.40713E+02 -2.60120E+02 -2.57316E+02
  -2.36199E+02 -2.44989E+02 -2.20935E+02 -1.88382E+02 -1.89184E+02 -1.76013E+02 -1.72650E+02 -1.79604E+02 -1.59605E+02 -1.62146E+02
  -1.85192E+02 -1.92080E+02 -2.13354E+02 -2.24167E+02 -2.48670E+02 -2.49577E+02 -2.23654E+02 -2.41311E+02 -2.15477E+02 -1.94518E+02
  -2.04995E+02 -2.07962E+02 -1.96572E+02 -1.81447E+02 -1.79995E+02 -1.64306E+02 -1.81395E+02 -1.56804E+02 -1.65312E+02 -2.06881E+02
  -1.73117E+02 -1.92687E+02 -2.06988E+02 -2.18331E+02 -2.44811E+02 -2.53111E+02 -2.78355E+02 -2.78938E+02 -2.78443E+02 -3.02130E+02
  -3.39304E+02 -3.37935E+02 -3.08367E+02 -2.74963E+02 -2.65636E+02 -2.67506E+02 -2.32308E+02 -2.25733E+02 -2.06872E+02 -1.96986E+02
  -2.01821E+02 -1.97931E+02 -1.90575E+02 -1.47369E+02 -1.55434E+02 -1.47938E+02 -1.35797E+02 -1.29823E+02 -9.09596E+01 -8.45349E+01
  -7.17646E+01 -1.26130E+02 -2.18541E+02 -2.72064E+02 -2.87786E+02 -2.62786E+02 -2.49165E+02 -2.50971E+02 -2.44687E+02 -2.31036E+02
  -2.41377E+02 -2.45882E+02 -2.39705E+02 -2.25710E+02 -2.44723E+02 -2.38133E+02 -2.02830E+02 -2.31802E+02 -1.98401E+02 -1.87062E+02
  -2.16783E+02 -1.92651E+02 -1.85100E+02 -1.80993E+02 -1.69212E+02 -1.70718E+02 -1.66015E+02 -1.62599E+02 -1.77173E+02 -1.53693E+02
  -1.45996E+02 -1.57374E+02 -1.58050E+02 -1.53841E+02 -1.55184E+02 -1.58804E+02 -1.41523E+02 -1.58153E+02 -1.35613E+02 -1.38525E+02
  -1.42683E+02 -9.96954E+01 -9.28659E+01 -9.50318E+01 -1.07524E+02 -1.03801E+02 -1.22168E+02 -9.77023E+01 -1.14707E+02 -1.63568E+02
  -1.44522E+02 -1.62783E+02 -1.56346E+02 -1.56354E+02 -1.55194E+02 -1.52932E+02 -1.57666E+02 -1.65239E+02 -1.55703E+02 -1.17995E+02
  -1.62323E+02 -1.53730E+02 -1.24352E+02 -1.41786E+02 -1.19720E+02 -1.21121E+02 -1.20526E+02 -1.22807E+02 -1.34858E+02 -1.24452E+02
  -1.26044E+02 -1.19688E+02 -1.10283E+02 -1.03596E+02 -1.18317E+02 -1.31936E+02 -1.19206E+02 -1.28691E+02 -1.22640E+02 -1.35442E+02
  -1.25680E+02 -1.00196E+02 -1.11861E+02 -9.44494E+01 -7.78586E+01 -4.43468E+01 -3.51888E+01 -5.17391E+01 -5.45294E+01 -5.74121E+01
  -8.49154E+01 -1.05418E+02 -1.00660E+02 -1.10227E+02 -8.67414E+01 -9.00591E+01 -8.89491E+01 -9.12971E+01 -1.11560E+02 -9.97974E+01
  -9.54720E+01 -1.05241E+02 -1.24158E+02 -1.20826E+02 -1.52595E+02 -1.68958E+02 -1.77314E+02 -1.85377E+02 -1.69032E+02 -1.72967E+02
  -1.66091E+02 -1.54528E+02 -1.24904E+02 -1.40385E+02 -1.27764E+02 -1.09982E+02 -1.15364E+02 -9.96289E+01 -1.29185E+02 -1.19114E+02
  -1.22338E+02 -1.21381E+02 -1.20691E+02 -1.39587E+02 -1.11544E+02 -1.36994E+02 -1.23917E+02 -1.01874E+01  8.13927E+01  1.15541E+02
   8.71601E+01  6.67831E+01  6.10435E+01  3.72086E+01  3.37237E+01  1.85862E+01  3.45785E+01  1.98872E+01 -3.70306E-01  2.34900E+01
  -7.37251E+00 -8.54337E+00 -8.67161E+00 -1.76880E+00 -5.51125E+00 -2.71056E+01 -1.18541E+01 -8.77110E+00 -6.09893E+00 -2.57304E+01
  -2.14732E+01 -2.04369E+01 -3.09257E+01 -3.33456E+01 -4.42960E+01 -5.35619E+01 -5.79735E+01 -4.96569E+01 -7.19373E+01 -6.19982E+01
  -6.48047E+01 -7.25369E+01 -6.73611E+01 -1.05670E+02 -1.06322E+02 -1.06508E+02 -1.20629E+02 -1.23970E+02 -1.13687E+02 -1.02405E+02
  -9.34444E+01 -8.71016E+01 -7.69388E+01 -4.53519E+01 -4.85348E+01 -3.05911E+01 -1.44702E+01 -6.42211E+00  2.16356E+01  1.76174E+01
   4.83279E+01  5.33735E+01  4.80185E+01  6.43956E+01  4.84934E+01  5.52174E+01  5.33305E+01  4.74425E+01  3.86069E+01  3.56329E+01
   3.13161E+01  2.11211E+01  4.07115E+01  3.61738E+01  4.51594E+01  4.14325E+01  9.27531E+00 -3.76972E+00 -1.07970E+01 -2.46650E+00
  -4.26454E+00 -1.53310E+01 -2.15062E+01 -3.12363E+01 -4.33399E+01 -3.41353E+01 -3.58132E+01 -4.34926E+01 -3.84720E+01 -4.96036E+01
  -4.29484E+01 -4.09740E+01 -5.32734E+01 -5.17022E+01 -4.10701E+01 -4.03707E+01 -3.47728E+01 -2.61958E+01 -4.28004E+01 -4.29223E+01
  -4.03855E+01 -4.17210E+01 -4.31112E+01 -6.60363E+01 -6.13685E+01 -7.12316E+01 -9.56085E+01 -7.09355E+01 -7.79766E+01 -8.87064E+01
  -7.14574E+01 -7.13086E+01 -7.04641E+01 -5.69203E+01 -3.95615E+01 -4.61833E+01 -4.44184E+01 -3.83055E+01 -2.58442E+01 -1.44710E+01
  -3.37854E+00  1.06326E+00 -3.51281E+00  1.68537E+01 -1.94998E+00  2.97224E+00  1.00009E+01  6.93222E+00  3.02375E+01  2.90474E+01
   3.14324E+01  2.99091E+01  4.42516E+01  4.53353E+01  4.83644E+01  5.34264E+01  5.18063E+01  6.05324E+01  5.75810E+01  5.06795E+01
   3.88670E+01  4.09023E+01  1.52164E+01 -3.73118E+00 -1.55841E+01 -3.81861E+01 -5.16236E+01 -4.85031E+01 -5.83154E+01 -8.27564E+01
  -7.61887E+01 -1.06514E+02 -1.01205E+02 -9.98210E+01 -1.26778E+02 -1.20527E+02 -1.17052E+02 -1.18883E+02 -1.33515E+02 -1.21086E+02
  -1.22475E+02 -1.15968E+02 -1.22873E+02 -1.21368E+02 -1.12361E+02 -1.16190E+02 -9.23675E+01 -1.22475E+02 -1.01462E+02 -8.47029E+01
  -1.07972E+02 -8.91810E+01 -7.58735E+01 -7.57827E+01 -9.96893E+01 -8.20898E+01 -7.16925E+01 -7.62329E+01 -6.54719E+01 -8.21528E+01
  -7.20217E+01 -6.52831E+01 -6.59460E+01 -5.66509E+01 -7.35960E+01 -6.05356E+01 -5.81973E+01 -6.70463E+01 -5.49872E+01 -7.00237E+01
  -6.29397E+01 -6.65784E+01 -6.45287E+01 -6.50276E+01 -7.10629E+01 -4.30581E+01 -5.69000E+01 -6.60984E+01 -6.82481E+01 -6.79698E+01
  -6.92034E+01 -6.78335E+01 -5.85514E+01 -7.54199E+01 -6.48235E+01 -6.35991E+01 -5.91389E+01 -6.43586E+01 -7.22192E+01 -4.94063E+01
  -7.43884E+01 -7.17374E+01 -6.00282E+01 -7.03380E+01 -6.44328E+01 -7.74141E+01 -6.84939E+01 -7.03086E+01 -6.50181E+01 -6.70163E+01
  -8.61689E+01 -6.17343E+01 -6.21787E+01 -5.34665E+01 -5.01369E+01 -5.99948E+01 -7.27264E+01 -7.55071E+01 -4.37995E+01 -5.49064E+01
 NY points of the fit to the data follow
   2.74873E+02  2.68417E+02  2.60010E+02  2.46475E+02  2.18323E+02  1.95563E+02  1.86310E+02  1.91551E+02  2.11899E+02  2.25570E+02
   2.25438E+02  2.27363E+02  2.38022E+02  2.45001E+02  2.54980E+02  2.69014E+02  2.79277E+02  2.83427E+02  2.81594E+02  2.83251E+02
   2.84914E+02  2.90331E+02  2.91803E+02  2.82893E+02  2.68424E+02  2.49941E+02  2.32842E+02  2.22617E+02  2.17754E+02  2.05875E+02
   1.86784E+02  1.62521E+02  1.31045E+02  8.95750E+01  4.06357E+01 -1.23657E+01 -8.70598E+01 -1.88660E+02 -2.96650E+02 -3.63879E+02
  -4.06139E+02 -4.29375E+02 -4.50497E+02 -4.78484E+02 -5.01381E+02 -5.04144E+02 -4.71306E+02 -4.20039E+02 -3.99555E+02 -3.91362E+02
  -3.77870E+02 -3.68765E+02 -3.43827E+02 -3.04766E+02 -2.73426E+02 -2.43348E+02 -2.26559E+02 -2.22447E+02 -2.46017E+02 -2.80104E+02
  -2.87038E+02 -2.88467E+02 -2.98126E+02 -3.04819E+02 -3.26988E+02 -3.44570E+02 -3.36906E+02 -3.24693E+02 -3.10869E+02 -2.94710E+02
  -2.80893E+02 -2.71380E+02 -2.56964E+02 -2.27009E+02 -1.99463E+02 -1.89479E+02 -1.75013E+02 -1.67693E+02 -1.66533E+02 -1.71596E+02
  -1.75139E+02 -1.77463E+02 -1.81396E+02 -1.87419E+02 -1.91638E+02 -1.89266E+02 -1.79270E+02 -1.63419E+02 -1.53734E+02 -1.51580E+02
  -1.43764E+02 -1.45065E+02 -1.48409E+02 -1.47169E+02 -1.44581E+02 -1.47017E+02 -1.52181E+02 -1.64535E+02 -1.78482E+02 -1.97116E+02
  -2.08580E+02 -2.14583E+02 -2.21273E+02 -2.51063E+02 -2.86358E+02 -3.10823E+02 -3.13619E+02 -3.12102E+02 -3.19311E+02 -3.30861E+02
  -3.42797E+02 -3.45651E+02 -3.36179E+02 -3.20500E+02 -3.01549E+02 -2.91827E+02 -2.85768E+02 -2.73843E+02 -2.48628E+02 -2.28003E+02
  -2.10351E+02 -1.92364E+02 -1.71516E+02 -1.43859E+02 -1.05355E+02 -1.03112E+02 -1.26940E+02 -1.44299E+02 -1.42579E+02 -1.31874E+02
  -1.30239E+02 -1.49333E+02 -1.82627E+02 -2.11799E+02 -2.25701E+02 -2.25581E+02 -2.20229E+02 -2.21772E+02 -2.38095E+02 -2.58902E+02
  -2.56723E+02 -2.48566E+02 -2.42025E+02 -2.36319E+02 -2.30853E+02 -2.25636E+02 -2.20849E+02 -2.16567E+02 -2.12155E+02 -2.07943E+02
  -2.04073E+02 -2.00562E+02 -1.97030E+02 -1.92710E+02 -1.88184E+02 -1.84155E+02 -1.81277E+02 -1.78988E+02 -1.76556E+02 -1.73196E+02
  -1.69522E+02 -1.66551E+02 -1.64791E+02 -1.63301E+02 -1.59726E+02 -1.53143E+02 -1.47114E+02 -1.44962E+02 -1.44756E+02 -1.42706E+02
  -1.36114E+02 -1.28078E+02 -1.24885E+02 -1.26667E+02 -1.30100E+02 -1.31585E+02 -1.30403E+02 -1.28491E+02 -1.29024E+02 -1.33274E+02
  -1.39490E+02 -1.43769E+02 -1.44988E+02 -1.45155E+02 -1.45004E+02 -1.46923E+02 -1.49295E+02 -1.47688E+02 -1.44239E+02 -1.41603E+02
  -1.39550E+02 -1.36483E+02 -1.32618E+02 -1.29134E+02 -1.26763E+02 -1.24099E+02 -1.19859E+02 -1.15194E+02 -1.12346E+02 -1.10908E+02
  -1.09135E+02 -1.08290E+02 -1.09532E+02 -1.11389E+02 -1.13857E+02 -1.18819E+02 -1.23758E+02 -1.26612E+02 -1.28457E+02 -1.20866E+02
  -1.13721E+02 -1.06283E+02 -9.75836E+01 -8.95755E+01 -8.14868E+01 -7.15972E+01 -6.03833E+01 -5.13599E+01 -4.62572E+01 -4.51524E+01
  -4.67161E+01 -4.97039E+01 -5.26529E+01 -5.68534E+01 -6.68750E+01 -7.74766E+01 -9.07591E+01 -1.04657E+02 -1.17056E+02 -1.27296E+02
  -1.37304E+02 -1.47263E+02 -1.55251E+02 -1.61906E+02 -1.68103E+02 -1.70364E+02 -1.71822E+02 -1.70925E+02 -1.68093E+02 -1.64528E+02
  -1.59709E+02 -1.54642E+02 -1.50115E+02 -1.44302E+02 -1.40167E+02 -1.38459E+02 -1.37531E+02 -1.31034E+02 -1.25699E+02 -1.34381E+02
  -1.43186E+02 -1.27346E+02 -1.02249E+02 -8.28484E+01 -7.43210E+01 -7.13247E+01 -6.25134E+01 -4.28903E+01 -1.95334E+01  4.18481E-01
   1.16980E+01  1.26619E+01  7.87076E+00  1.08049E+01  2.32137E+01  2.95725E+01  2.40896E+01  1.78729E+01  1.25946E+01  8.09856E+00
   4.36640E+00  1.16643E+00 -1.56346E+00 -3.80281E+00 -5.75464E+00 -7.61540E+00 -9.40149E+00 -1.11606E+01 -1.30412E+01 -1.49237E+01
  -1.71277E+01 -1.95555E+01 -2.22037E+01 -2.52277E+01 -2.83381E+01 -3.14405E+01 -3.43353E+01 -3.69195E+01 -3.91841E+01 -4.10908E+01
  -4.25757E+01 -4.34623E+01 -4.36554E+01 -4.32464E+01 -4.23022E+01 -4.09289E+01 -3.92780E+01 -3.72125E+01 -3.46242E+01 -3.16285E+01
  -2.84273E+01 -2.52142E+01 -2.20475E+01 -1.87581E+01 -1.53443E+01 -1.20006E+01 -8.83623E+00 -5.85494E+00 -3.21362E+00 -9.17728E-01
   1.18074E+00  3.03565E+00  4.44590E+00  5.35245E+00  5.71431E+00  5.67147E+00  5.08279E+00  3.64817E+00  1.30613E+00 -1.65153E+00
  -5.01972E+00 -8.79374E+00 -1.28010E+01 -1.68683E+01 -2.06423E+01 -2.38181E+01 -2.60794E+01 -2.73894E+01 -2.77885E+01 -2.71695E+01
  -2.54396E+01 -2.19064E+01 -1.59062E+01 -7.37954E+00 -4.39573E+00 -6.09690E+00 -9.99593E+00 -1.65339E+01 -1.98436E+01 -2.05237E+01
  -2.33284E+01 -3.09529E+01 -4.16833E+01 -5.20137E+01 -5.84982E+01 -6.03521E+01 -6.09145E+01 -6.36384E+01 -6.86759E+01 -7.20679E+01
  -7.44697E+01 -7.37133E+01 -6.95796E+01 -6.63831E+01 -6.37989E+01 -6.14048E+01 -5.90933E+01 -5.67096E+01 -5.40089E+01 -5.09999E+01
  -4.78480E+01 -4.46288E+01 -4.13922E+01 -3.80937E+01 -3.47322E+01 -3.11677E+01 -2.75768E+01 -2.39141E+01 -2.00865E+01 -1.58853E+01
  -1.14706E+01 -6.73685E+00 -1.54800E+00  4.07177E+00  1.00383E+01  1.61931E+01  2.21679E+01  2.76922E+01  3.22005E+01  3.54915E+01
   3.74642E+01  3.84755E+01  3.83784E+01  3.69073E+01  3.40875E+01  3.00209E+01  2.47350E+01  1.83919E+01  1.14525E+01  4.00842E+00
  -3.87966E+00 -1.20792E+01 -2.03875E+01 -2.86238E+01 -3.65284E+01 -4.38915E+01 -5.05677E+01 -5.65017E+01 -6.17705E+01 -6.65988E+01
  -7.09681E+01 -7.47320E+01 -7.78413E+01 -8.04289E+01 -8.25451E+01 -8.42098E+01 -8.54660E+01 -8.64402E+01 -8.72064E+01 -8.77916E+01
  -8.80904E+01 -8.83471E+01 -8.85539E+01 -8.87099E+01 -8.87175E+01 -8.86283E+01 -8.85127E+01 -8.83802E+01 -8.81460E+01 -8.77624E+01
  -8.73898E+01 -8.70509E+01 -8.66981E+01 -8.62372E+01 -8.58125E+01 -8.52939E+01 -8.46658E+01 -8.40455E+01 -8.34574E+01 -8.29129E+01
  -8.23104E+01 -8.16108E+01 -8.08133E+01 -8.00835E+01 -7.94056E+01 -7.87988E+01 -7.81732E+01 -7.74389E+01 -7.67117E+01 -7.59688E+01
  -7.52882E+01 -7.46888E+01 -7.41026E+01 -7.34555E+01 -7.27293E+01 -7.20460E+01 -7.13891E+01 -7.08517E+01 -7.02862E+01 -6.97254E+01
  -6.90458E+01 -6.84658E+01 -6.79810E+01 -6.75397E+01 -6.71589E+01 -6.67926E+01 -6.63762E+01 -6.59550E+01 -6.55019E+01 -6.51085E+01
  -6.47814E+01 -6.45835E+01 -6.43467E+01 -6.40596E+01 -6.36899E+01 -6.34187E+01 -6.31940E+01 -6.30231E+01 -6.29061E+01 -6.28160E+01
  -6.25791E+01 -6.22911E+01 -6.19615E+01 -6.16165E+01 -6.12091E+01 -6.07390E+01 -6.01133E+01 -5.93103E+01 -5.83224E+01 -5.71964E+01
 NY background values follow
     4.448E+02    4.327E+02    4.206E+02    4.085E+02    3.964E+02    3.843E+02    3.721E+02    3.600E+02    3.478E+02    3.357E+02
     3.236E+02    3.114E+02    2.994E+02    2.873E+02    2.753E+02    2.633E+02    2.514E+02    2.395E+02    2.276E+02    2.158E+02
     2.041E+02    1.925E+02    1.809E+02    1.694E+02    1.580E+02    1.467E+02    1.355E+02    1.243E+02    1.133E+02    1.024E+02
     9.158E+01    8.090E+01    7.034E+01    5.991E+01    4.961E+01    3.944E+01    2.941E+01    1.953E+01    9.789E+00    1.996E-01
    -9.237E+00   -1.852E+01   -2.763E+01   -3.659E+01   -4.537E+01   -5.398E+01   -6.241E+01   -7.067E+01   -7.874E+01   -8.662E+01
    -9.431E+01   -1.018E+02   -1.091E+02   -1.162E+02   -1.231E+02   -1.298E+02   -1.362E+02   -1.425E+02   -1.485E+02   -1.543E+02
    -1.598E+02   -1.652E+02   -1.703E+02   -1.751E+02   -1.798E+02   -1.842E+02   -1.884E+02   -1.924E+02   -1.962E+02   -1.998E+02
    -2.032E+02   -2.064E+02   -2.094E+02   -2.122E+02   -2.148E+02   -2.172E+02   -2.194E+02   -2.214E+02   -2.233E+02   -2.250E+02
    -2.265E+02   -2.278E+02   -2.290E+02   -2.300E+02   -2.309E+02   -2.316E+02   -2.322E+02   -2.326E+02   -2.328E+02   -2.329E+02
    -2.329E+02   -2.327E+02   -2.324E+02   -2.320E+02   -2.315E+02   -2.308E+02   -2.300E+02   -2.291E+02   -2.282E+02   -2.271E+02
    -2.259E+02   -2.246E+02   -2.233E+02   -2.218E+02   -2.203E+02   -2.187E+02   -2.171E+02   -2.154E+02   -2.136E+02   -2.118E+02
    -2.099E+02   -2.080E+02   -2.061E+02   -2.041E+02   -2.021E+02   -2.001E+02   -1.981E+02   -1.960E+02   -1.940E+02   -1.919E+02
    -1.898E+02   -1.878E+02   -1.857E+02   -1.837E+02   -1.816E+02   -1.796E+02   -1.776E+02   -1.756E+02   -1.736E+02   -1.716E+02
    -1.696E+02   -1.677E+02   -1.657E+02   -1.638E+02   -1.619E+02   -1.600E+02   -1.581E+02   -1.562E+02   -1.544E+02   -1.526E+02
    -1.508E+02   -1.490E+02   -1.473E+02   -1.456E+02   -1.439E+02   -1.422E+02   -1.406E+02   -1.390E+02   -1.374E+02   -1.359E+02
    -1.344E+02   -1.329E+02   -1.314E+02   -1.300E+02   -1.286E+02   -1.273E+02   -1.259E+02   -1.247E+02   -1.234E+02   -1.222E+02
    -1.210E+02   -1.198E+02   -1.187E+02   -1.176E+02   -1.165E+02   -1.155E+02   -1.145E+02   -1.135E+02   -1.126E+02   -1.117E+02
    -1.108E+02   -1.099E+02   -1.091E+02   -1.083E+02   -1.076E+02   -1.068E+02   -1.062E+02   -1.055E+02   -1.049E+02   -1.043E+02
    -1.037E+02   -1.032E+02   -1.026E+02   -1.022E+02   -1.017E+02   -1.013E+02   -1.009E+02   -1.005E+02   -1.001E+02   -9.975E+01
    -9.942E+01   -9.910E+01   -9.880E+01   -9.851E+01   -9.824E+01   -9.797E+01   -9.772E+01   -9.747E+01   -9.723E+01   -9.700E+01
    -9.676E+01   -9.653E+01   -9.631E+01   -9.608E+01   -9.585E+01   -9.561E+01   -9.538E+01   -9.513E+01   -9.488E+01   -9.462E+01
    -9.435E+01   -9.407E+01   -9.378E+01   -9.349E+01   -9.319E+01   -9.289E+01   -9.258E+01   -9.228E+01   -9.197E+01   -9.167E+01
    -9.138E+01   -9.109E+01   -9.081E+01   -9.054E+01   -9.028E+01   -9.004E+01   -8.981E+01   -8.960E+01   -8.940E+01   -8.923E+01
    -8.908E+01   -8.895E+01   -8.885E+01   -8.877E+01   -8.872E+01   -8.870E+01   -8.872E+01   -8.877E+01   -8.885E+01   -8.897E+01
    -8.913E+01   -8.933E+01   -8.956E+01   -8.983E+01   -9.013E+01   -9.046E+01   -9.082E+01   -9.121E+01   -9.163E+01   -9.207E+01
    -9.253E+01   -9.300E+01   -9.350E+01   -9.401E+01   -9.454E+01   -9.508E+01   -9.563E+01   -9.619E+01   -9.675E+01   -9.732E+01
    -9.789E+01   -9.846E+01   -9.903E+01   -9.960E+01   -1.002E+02   -1.007E+02   -1.013E+02   -1.018E+02   -1.023E+02   -1.028E+02
    -1.033E+02   -1.038E+02   -1.043E+02   -1.047E+02   -1.051E+02   -1.055E+02   -1.059E+02   -1.062E+02   -1.065E+02   -1.068E+02
    -1.070E+02   -1.072E+02   -1.073E+02   -1.075E+02   -1.075E+02   -1.076E+02   -1.076E+02   -1.075E+02   -1.074E+02   -1.072E+02
    -1.070E+02   -1.067E+02   -1.064E+02   -1.060E+02   -1.056E+02   -1.051E+02   -1.045E+02   -1.038E+02   -1.031E+02   -1.024E+02
    -1.015E+02   -1.006E+02   -9.962E+01   -9.858E+01   -9.748E+01   -9.634E+01   -9.515E+01   -9.392E+01   -9.266E+01   -9.137E+01
    -9.005E+01   -8.872E+01   -8.737E+01   -8.601E+01   -8.465E+01   -8.328E+01   -8.193E+01   -8.058E+01   -7.925E+01   -7.794E+01
    -7.665E+01   -7.539E+01   -7.417E+01   -7.299E+01   -7.186E+01   -7.077E+01   -6.974E+01   -6.877E+01   -6.787E+01   -6.703E+01
    -6.627E+01   -6.559E+01   -6.498E+01   -6.443E+01   -6.396E+01   -6.355E+01   -6.320E+01   -6.291E+01   -6.268E+01   -6.250E+01
    -6.237E+01   -6.229E+01   -6.226E+01   -6.228E+01   -6.233E+01   -6.243E+01   -6.256E+01   -6.272E+01   -6.292E+01   -6.314E+01
    -6.339E+01   -6.367E+01   -6.396E+01   -6.428E+01   -6.461E+01   -6.495E+01   -6.530E+01   -6.566E+01   -6.603E+01   -6.640E+01
    -6.677E+01   -6.715E+01   -6.752E+01   -6.789E+01   -6.826E+01   -6.863E+01   -6.900E+01   -6.937E+01   -6.974E+01   -7.011E+01
    -7.047E+01   -7.084E+01   -7.121E+01   -7.157E+01   -7.193E+01   -7.230E+01   -7.266E+01   -7.302E+01   -7.338E+01   -7.373E+01
    -7.409E+01   -7.444E+01   -7.480E+01   -7.515E+01   -7.550E+01   -7.584E+01   -7.619E+01   -7.653E+01   -7.687E+01   -7.721E+01
    -7.755E+01   -7.788E+01   -7.821E+01   -7.854E+01   -7.885E+01   -7.916E+01   -7.946E+01   -7.975E+01   -8.003E+01   -8.029E+01
    -8.054E+01   -8.078E+01   -8.100E+01   -8.120E+01   -8.138E+01   -8.154E+01   -8.168E+01   -8.179E+01   -8.188E+01   -8.195E+01
    -8.199E+01   -8.200E+01   -8.199E+01   -8.194E+01   -8.186E+01   -8.175E+01   -8.161E+01   -8.143E+01   -8.121E+01   -8.096E+01
    -8.066E+01   -8.033E+01   -7.997E+01   -7.957E+01   -7.914E+01   -7.869E+01   -7.820E+01   -7.769E+01   -7.716E+01   -7.660E+01
    -7.603E+01   -7.544E+01   -7.483E+01   -7.421E+01   -7.358E+01   -7.294E+01   -7.230E+01   -7.165E+01   -7.099E+01   -7.034E+01
    -6.968E+01   -6.903E+01   -6.838E+01   -6.774E+01   -6.711E+01   -6.649E+01   -6.588E+01   -6.529E+01   -6.472E+01   -6.416E+01
    -6.362E+01   -6.311E+01   -6.261E+01   -6.213E+01   -6.167E+01   -6.123E+01   -6.080E+01   -6.038E+01   -5.998E+01   -5.959E+01
    -5.921E+01   -5.884E+01   -5.848E+01   -5.813E+01   -5.779E+01   -5.745E+01   -5.712E+01   -5.679E+01   -5.646E+01   -5.614E+01
    -5.582E+01   -5.550E+01   -5.518E+01   -5.485E+01   -5.453E+01   -5.420E+01   -5.387E+01   -5.353E+01   -5.318E+01   -5.283E+01
 Mac      Conc. = 2.94E-04
   4.21209E+02  4.08320E+02  3.95306E+02  3.82219E+02  3.69068E+02  3.55724E+02  3.42249E+02  3.29106E+02  3.16885E+02  3.05051E+02
   2.93170E+02  2.81413E+02  2.69991E+02  2.59060E+02  2.48610E+02  2.38577E+02  2.28704E+02  2.18824E+02  2.08932E+02  1.99100E+02
   1.89408E+02  1.79887E+02  1.70347E+02  1.60600E+02  1.50838E+02  1.40865E+02  1.30658E+02  1.20600E+02  1.10908E+02  1.01369E+02
   9.15467E+01  8.15229E+01  7.16216E+01  6.20927E+01  5.30673E+01  4.41923E+01  3.50931E+01  2.56818E+01  1.62401E+01  7.01346E+00
  -1.92722E+00 -1.07075E+01 -1.96618E+01 -2.88573E+01 -3.80883E+01 -4.71795E+01 -5.60404E+01 -6.45326E+01 -7.26756E+01 -8.07077E+01
  -8.84593E+01 -9.57991E+01 -1.02854E+02 -1.09658E+02 -1.16255E+02 -1.22681E+02 -1.28852E+02 -1.34716E+02 -1.40450E+02 -1.46206E+02
  -1.51733E+02 -1.56734E+02 -1.61287E+02 -1.65567E+02 -1.69595E+02 -1.73606E+02 -1.77398E+02 -1.80858E+02 -1.84062E+02 -1.87026E+02
  -1.89888E+02 -1.92802E+02 -1.95718E+02 -1.98372E+02 -2.00635E+02 -2.02733E+02 -2.04780E+02 -2.06651E+02 -2.08333E+02 -2.09849E+02
  -2.11060E+02 -2.12070E+02 -2.12821E+02 -2.13384E+02 -2.13832E+02 -2.14332E+02 -2.14863E+02 -2.15452E+02 -2.16136E+02 -2.16865E+02
  -2.17528E+02 -2.18328E+02 -2.19412E+02 -2.20696E+02 -2.22160E+02 -2.23854E+02 -2.25983E+02 -2.28525E+02 -2.31142E+02 -2.33492E+02
  -2.35444E+02 -2.37195E+02 -2.38670E+02 -2.39733E+02 -2.40249E+02 -2.40022E+02 -2.38959E+02 -2.37145E+02 -2.34858E+02 -2.32296E+02
