 
 $NMID
 ID=''
 FMTDAT='(2E13.5)'
 TRAMP=   1.00000E+0
 VOLUME=   1.00000E+0
 $END
  -5.53375E+5   3.07682E+5
  -1.59462E+6   2.50804E+5
  -1.49372E+6   4.02011E+5
  -1.46966E+6   2.80735E+5
  -1.58395E+6   3.18036E+5
  -1.50119E+6   4.19844E+5
  -1.41214E+6   3.59421E+5
  -1.47116E+6   3.27931E+5
  -1.47691E+6   3.85019E+5
  -1.44651E+6   4.03810E+5
  -1.42995E+6   4.20775E+5
  -1.38771E+6   4.24479E+5
  -1.38538E+6   4.04376E+5
  -1.40564E+6   4.38618E+5
  -1.36570E+6   4.78580E+5
  -1.33007E+6   4.73059E+5
  -1.33630E+6   4.79230E+5
  -1.32419E+6   4.89100E+5
  -1.31272E+6   4.87734E+5
  -1.30612E+6   5.08609E+5
  -1.27967E+6   5.18020E+5
  -1.26551E+6   5.09068E+5
  -1.26422E+6   5.20865E+5
  -1.24920E+6   5.33423E+5
  -1.23439E+6   5.33518E+5
  -1.21849E+6   5.52270E+5
  -1.19833E+6   5.63223E+5
  -1.18872E+6   5.63913E+5
  -1.17816E+6   5.75679E+5
  -1.15648E+6   5.91267E+5
  -1.14501E+6   5.95236E+5
  -1.13284E+6   6.00179E+5
  -1.11770E+6   6.01466E+5
  -1.10797E+6   6.05323E+5
  -1.09485E+6   6.15623E+5
  -1.07718E+6   6.20943E+5
  -1.06846E+6   6.20211E+5
  -1.05951E+6   6.23154E+5
  -1.04370E+6   6.28342E+5
  -1.03119E+6   6.35003E+5
  -1.01643E+6   6.40267E+5
  -1.00085E+6   6.42684E+5
  -9.87678E+5   6.47794E+5
  -9.74998E+5   6.55851E+5
  -9.59435E+5   6.60215E+5
  -9.46989E+5   6.64651E+5
  -9.36566E+5   6.67012E+5
  -9.25029E+5   6.65321E+5
  -9.11270E+5   6.64567E+5
  -8.98497E+5   6.67106E+5
  -8.87888E+5   6.67807E+5
  -8.77465E+5   6.66712E+5
  -8.65393E+5   6.66918E+5
  -8.54191E+5   6.67464E+5
  -8.44175E+5   6.66924E+5
  -8.32561E+5   6.66295E+5
  -8.20427E+5   6.65435E+5
  -8.07998E+5   6.65002E+5
  -7.95781E+5   6.64849E+5
  -7.84449E+5   6.65009E+5
  -7.73022E+5   6.64492E+5
  -7.62031E+5   6.63721E+5
  -7.51837E+5   6.61535E+5
  -7.41050E+5   6.58562E+5
  -7.29167E+5   6.55227E+5
  -7.17538E+5   6.52674E+5
  -7.06046E+5   6.49485E+5
  -6.94414E+5   6.47150E+5
  -6.84176E+5   6.45445E+5
  -6.75576E+5   6.42911E+5
  -6.65133E+5   6.38097E+5
  -6.52585E+5   6.35047E+5
  -6.41228E+5   6.34156E+5
  -6.32289E+5   6.31493E+5
  -6.22148E+5   6.26561E+5
  -6.10544E+5   6.22982E+5
  -6.00009E+5   6.20451E+5
  -5.90182E+5   6.16050E+5
  -5.80010E+5   6.10268E+5
  -5.69699E+5   6.05543E+5
  -5.60129E+5   6.00728E+5
  -5.49614E+5   5.96236E+5
  -5.39383E+5   5.91340E+5
  -5.29634E+5   5.86160E+5
  -5.20809E+5   5.80898E+5
  -5.10552E+5   5.76381E+5
  -5.00218E+5   5.72552E+5
  -4.90220E+5   5.68094E+5
  -4.80699E+5   5.63053E+5
  -4.70030E+5   5.58463E+5
  -4.59472E+5   5.54567E+5
  -4.49702E+5   5.50890E+5
  -4.40168E+5   5.45827E+5
  -4.30460E+5   5.39551E+5
  -4.19900E+5   5.34123E+5
  -4.09999E+5   5.29978E+5
  -4.00433E+5   5.25970E+5
  -3.91424E+5   5.20895E+5
  -3.81733E+5   5.15440E+5
  -3.72049E+5   5.11044E+5
  -3.62911E+5   5.07550E+5
  -3.54177E+5   5.02705E+5
  -3.44440E+5   4.96874E+5
  -3.34815E+5   4.91748E+5
  -3.24913E+5   4.88517E+5
  -3.15207E+5   4.85098E+5
  -3.06705E+5   4.80895E+5
  -2.97958E+5   4.75869E+5
  -2.88549E+5   4.70603E+5
  -2.78260E+5   4.66559E+5
  -2.69298E+5   4.63594E+5
  -2.61591E+5   4.59456E+5
  -2.54013E+5   4.54387E+5
  -2.45574E+5   4.49557E+5
  -2.37167E+5   4.45587E+5
  -2.29615E+5   4.41451E+5
  -2.22097E+5   4.36478E+5
  -2.13790E+5   4.31812E+5
  -2.05051E+5   4.27536E+5
  -1.96763E+5   4.24085E+5
  -1.89586E+5   4.20906E+5
  -1.81881E+5   4.16896E+5
  -1.74240E+5   4.12787E+5
  -1.67078E+5   4.08871E+5
  -1.60176E+5   4.05072E+5
  -1.52652E+5   4.00796E+5
  -1.45305E+5   3.96699E+5
  -1.38615E+5   3.92996E+5
  -1.31662E+5   3.89137E+5
  -1.25615E+5   3.85624E+5
  -1.20056E+5   3.81690E+5
  -1.14305E+5   3.77173E+5
  -1.07464E+5   3.73221E+5
  -1.01301E+5   3.69792E+5
  -9.62529E+4   3.66271E+5
  -9.03582E+4   3.62232E+5
  -8.43719E+4   3.58265E+5
  -7.84225E+4   3.55493E+5
  -7.31413E+4   3.52334E+5
  -6.82805E+4   3.48355E+5
  -6.29759E+4   3.44326E+5
  -5.73467E+4   3.40936E+5
  -5.15259E+4   3.37755E+5
  -4.68530E+4   3.34821E+5
  -4.22356E+4   3.31388E+5
  -3.74576E+4   3.27764E+5
  -3.25838E+4   3.24281E+5
  -2.77991E+4   3.20758E+5
  -2.33240E+4   3.17871E+5
  -1.89910E+4   3.14878E+5
  -1.45411E+4   3.11021E+5
  -9.79746E+3   3.08063E+5
  -5.18550E+3   3.05429E+5
  -1.20067E+3   3.02670E+5
   2.66128E+3   2.99284E+5
   6.96082E+3   2.95986E+5
   1.13425E+4   2.93149E+5
   1.50564E+4   2.90321E+5
   1.88737E+4   2.87271E+5
   2.25611E+4   2.83819E+5
   2.63248E+4   2.81018E+5
   2.98543E+4   2.78214E+5
   3.32195E+4   2.75111E+5
   3.65095E+4   2.71980E+5
   4.00677E+4   2.69000E+5
   4.33889E+4   2.66483E+5
   4.64762E+4   2.64036E+5
   4.95286E+4   2.60987E+5
   5.25011E+4   2.58443E+5
   5.51544E+4   2.55304E+5
   5.81292E+4   2.52547E+5
   6.11775E+4   2.49641E+5
   6.34926E+4   2.46947E+5
   6.60539E+4   2.43960E+5
   6.82893E+4   2.41304E+5
   7.06101E+4   2.38785E+5
   7.26647E+4   2.36805E+5
   7.42994E+4   2.33847E+5
   7.61059E+4   2.30557E+5
   7.82042E+4   2.28332E+5
   8.02988E+4   2.25901E+5
   8.19527E+4   2.23615E+5
   8.28203E+4   2.20970E+5
   8.45960E+4   2.18329E+5
   8.63097E+4   2.15965E+5
   8.75890E+4   2.13402E+5
   8.90831E+4   2.11226E+5
   9.02263E+4   2.08459E+5
   9.17296E+4   2.06233E+5
   9.33447E+4   2.04130E+5
   9.40721E+4   2.02069E+5
   9.49509E+4   1.99608E+5
   9.55410E+4   1.97515E+5
   9.64135E+4   1.95158E+5
   9.71511E+4   1.92979E+5
   9.79744E+4   1.90941E+5
   9.84054E+4   1.88945E+5
   9.87788E+4   1.86875E+5
   9.92710E+4   1.84755E+5
   9.99036E+4   1.83040E+5
   1.00063E+5   1.81205E+5
   1.00225E+5   1.79042E+5
   1.00534E+5   1.76756E+5
   1.00716E+5   1.74888E+5
   1.01078E+5   1.73343E+5
   1.01195E+5   1.71198E+5
   1.01158E+5   1.69350E+5
   1.01296E+5   1.67564E+5
   1.01241E+5   1.65656E+5
   1.01057E+5   1.63749E+5
   1.00757E+5   1.62201E+5
   1.00942E+5   1.60016E+5
   1.00757E+5   1.58360E+5
   1.00880E+5   1.56428E+5
   1.00408E+5   1.55065E+5
   1.00032E+5   1.53017E+5
   9.96715E+4   1.50998E+5
   9.97131E+4   1.49185E+5
   9.96042E+4   1.47409E+5
   9.92111E+4   1.45594E+5
   9.86620E+4   1.43532E+5
   9.84833E+4   1.41785E+5
   9.84990E+4   1.39912E+5
   9.80427E+4   1.38674E+5
   9.73370E+4   1.36604E+5
   9.68623E+4   1.34153E+5
   9.69418E+4   1.32345E+5
   9.66552E+4   1.30652E+5
   9.60988E+4   1.28954E+5
   9.54540E+4   1.27068E+5
   9.49647E+4   1.25103E+5
   9.43951E+4   1.23163E+5
   9.41188E+4   1.21230E+5
   9.37537E+4   1.19556E+5
   9.31158E+4   1.17576E+5
   9.29432E+4   1.15905E+5
   9.20274E+4   1.13937E+5
   9.13194E+4   1.12196E+5
   9.09816E+4   1.10369E+5
   9.02972E+4   1.08443E+5
   9.00751E+4   1.06328E+5
   8.94096E+4   1.04555E+5
   8.86913E+4   1.03059E+5
   8.77795E+4   1.01297E+5
   8.73002E+4   9.94645E+4
   8.65921E+4   9.76367E+4
   8.60330E+4   9.62069E+4
   8.51458E+4   9.43330E+4
   8.43907E+4   9.25919E+4
   8.38562E+4   9.09859E+4
   8.32896E+4   8.94616E+4
   8.25257E+4   8.79946E+4
   8.14022E+4   8.65118E+4
   8.05067E+4   8.46446E+4
   8.00914E+4   8.31446E+4
   7.93742E+4   8.15561E+4
   7.88132E+4   8.02359E+4
   7.77299E+4   7.89936E+4
   7.65896E+4   7.75028E+4
   7.59753E+4   7.62278E+4
   7.50847E+4   7.49222E+4
   7.40253E+4   7.34342E+4
   7.28553E+4   7.23295E+4
   7.21817E+4   7.07940E+4
   7.13904E+4   6.98296E+4
   7.07382E+4   6.85468E+4
   6.95104E+4   6.76007E+4
   6.85885E+4   6.63925E+4
   6.75425E+4   6.49344E+4
   6.68170E+4   6.39562E+4
   6.56898E+4   6.26884E+4
   6.52303E+4   6.15583E+4
   6.41656E+4   6.06361E+4
   6.33010E+4   5.95235E+4
   6.25452E+4   5.85933E+4
   6.15509E+4   5.78971E+4
   6.06194E+4   5.68796E+4
   5.94648E+4   5.55409E+4
   5.88424E+4   5.47122E+4
   5.79710E+4   5.38865E+4
   5.72667E+4   5.29005E+4
   5.59247E+4   5.16710E+4
   5.51232E+4   5.09283E+4
   5.44667E+4   5.01484E+4
   5.32963E+4   4.92917E+4
   5.24445E+4   4.86428E+4
   5.15827E+4   4.73331E+4
   5.06073E+4   4.62886E+4
   4.99755E+4   4.54133E+4
   4.91873E+4   4.48800E+4
   4.79796E+4   4.41085E+4
   4.71152E+4   4.32450E+4
   4.63424E+4   4.23300E+4
   4.54762E+4   4.16830E+4
   4.46880E+4   4.10393E+4
   4.37624E+4   4.01489E+4
   4.32418E+4   3.92034E+4
   4.21711E+4   3.84092E+4
   4.11733E+4   3.78153E+4
   4.02879E+4   3.71402E+4
   3.95121E+4   3.62201E+4
   3.85792E+4   3.52493E+4
   3.80840E+4   3.49476E+4
   3.72225E+4   3.43191E+4
   3.61567E+4   3.33402E+4
   3.53562E+4   3.27063E+4
   3.42142E+4   3.22275E+4
   3.34845E+4   3.13898E+4
   3.25133E+4   3.07142E+4
   3.17289E+4   3.01262E+4
   3.09348E+4   2.94165E+4
   3.02363E+4   2.87491E+4
   2.94252E+4   2.83613E+4
   2.85534E+4   2.74743E+4
   2.76131E+4   2.69132E+4
   2.67951E+4   2.62563E+4
   2.59785E+4   2.55494E+4
   2.54755E+4   2.50067E+4
   2.43240E+4   2.44315E+4
   2.36968E+4   2.36801E+4
   2.28774E+4   2.31734E+4
   2.18805E+4   2.28674E+4
   2.11167E+4   2.21568E+4
   2.06830E+4   2.15715E+4
   1.97095E+4   2.10967E+4
   1.88904E+4   2.01803E+4
   1.82975E+4   1.96588E+4
   1.73844E+4   1.93963E+4
   1.65685E+4   1.87174E+4
   1.60669E+4   1.82514E+4
   1.54660E+4   1.76621E+4
   1.46971E+4   1.73069E+4
   1.38079E+4   1.67157E+4
   1.30809E+4   1.63005E+4
   1.23132E+4   1.57613E+4
   1.17644E+4   1.52445E+4
   1.10603E+4   1.46895E+4
   1.02667E+4   1.44141E+4
   9.29979E+3   1.34577E+4
   8.77163E+3   1.30740E+4
   8.26888E+3   1.26677E+4
   7.78985E+3   1.22676E+4
   6.88961E+3   1.18691E+4
   6.18920E+3   1.13987E+4
   5.86077E+3   1.09849E+4
   4.86278E+3   1.03207E+4
   4.43860E+3   9.93258E+3
   3.77230E+3   9.55169E+3
   3.34439E+3   8.94322E+3
   2.85612E+3   8.75998E+3
   2.11149E+3   8.16255E+3
   1.25979E+3   7.79213E+3
   1.00139E+3   7.18471E+3
   5.19081E+2   6.93501E+3
   1.39688E+1   6.65723E+3
  -2.50159E+2   5.92253E+3
  -9.95046E+2   5.55709E+3
  -1.39810E+3   4.99661E+3
  -1.92741E+3   4.72972E+3
  -2.53805E+3   4.29602E+3
  -2.84513E+3   3.76995E+3
  -3.28331E+3   3.41394E+3
  -3.85157E+3   2.91617E+3
  -4.25862E+3   2.59645E+3
  -4.52565E+3   2.24138E+3
  -4.96728E+3   1.72925E+3
  -5.55765E+3   1.45793E+3
