 
 $NMID
 ID=''
 FMTDAT='(2E13.5)'
 TRAMP=   1.00000E+0
 VOLUME=   1.00000E+0
 $END
  -1.25094E+4   1.73253E+4
   8.31949E+3   1.69766E+4
   1.72350E+4  -1.09966E+4
  -9.87852E+3  -5.60585E+3
  -7.62980E+3   1.51391E+4
   9.77018E+3  -2.14044E+3
  -7.39937E+2  -9.89787E+3
  -2.95387E+3   8.07192E+3
   6.13305E+3   3.55260E+3
  -3.22269E+3  -4.45668E+3
  -6.55470E+3   4.62809E+3
   3.75140E+3   1.25501E+3
  -4.39769E+2  -4.59319E+3
  -5.68586E+3   2.56828E+3
   1.40906E+3  -4.23573E+2
   2.33554E+3  -5.46052E+3
  -2.98182E+2   2.35884E+3
   4.96015E+2   2.95434E+3
   4.10099E+1  -2.44180E+3
   3.72888E+2   1.12632E+3
   1.43334E+3   1.04516E+3
  -4.61035E+2  -2.36356E+3
   4.04827E+2   7.29119E+2
   1.32362E+3   1.99919E+3
  -1.34274E+3  -1.84219E+3
   5.31547E+2  -1.30137E+3
   2.61650E+3   1.33173E+3
  -1.95621E+3   1.04201E+3
  -2.60198E+3  -5.94283E+2
   1.47425E+3  -1.48675E+3
   1.04140E+3  -3.97594E+1
  -1.39560E+3   1.35179E+3
  -1.82742E+3  -4.12056E+2
  -1.45904E+3  -2.17856E+3
   8.23027E+2  -2.08396E+3
   2.71778E+3  -7.96149E+2
   3.39890E+2   1.18065E+3
  -1.32784E+3   1.08067E+3
  -2.32372E+2  -6.17988E+2
  -4.64086E+0   5.95065E+1
  -1.45082E+3   5.09193E+2
  -8.74028E+2  -1.70428E+3
   7.28331E+2  -1.47082E+3
   9.50168E+2   5.44806E+2
  -2.57742E+1   2.63634E+2
   4.32902E+2   5.83210E+2
  -7.98767E+1   1.91580E+3
  -2.25198E+3   1.18745E+3
  -2.21067E+3  -1.24742E+3
   5.51886E+2  -1.52791E+3
   8.73811E+2  -3.61267E+1
  -6.86980E+0  -1.32138E+2
   3.53206E+2  -4.58571E+2
   8.89181E+2   2.30466E+2
   3.87909E+2   1.03772E+3
  -5.34584E+2   7.40235E+2
  -8.90413E+2  -1.68778E+2
  -2.05027E+2  -1.11552E+3
   9.61501E+2  -5.55057E+2
   1.02062E+3   1.18215E+2
   2.38112E+2   3.16249E+2
   8.18927E+2   7.67306E+2
   1.92307E+2   1.64003E+3
  -1.53229E+3   1.29633E+3
  -1.60363E+3  -2.95215E+2
  -5.36111E+2  -1.45310E+3
   6.60638E+2  -9.73284E+2
   4.39016E+2  -7.04757E+2
   9.06383E+2  -3.31294E+2
   8.53171E+2   5.12987E+2
  -6.07741E+1   4.68672E+2
  -1.16065E+2  -5.67433E+2
   7.32620E+2  -6.66524E+2
   8.26007E+2   6.24291E+2
  -1.76245E+2   7.29451E+2
  -4.04386E+2  -3.81640E+2
   2.72047E+2  -3.68025E+2
   2.53234E+2   3.99382E+2
  -1.98340E+2   5.26224E+2
  -7.39795E+2  -4.07446E+2
  -1.00005E+2  -5.43228E+2
   2.21855E+2  -3.01696E+2
   3.23971E+2   4.24917E+1
  -3.84086E+2  -3.10865E+2
   1.64191E+1  -9.38238E+2
   4.62991E+2  -5.42753E+2
   8.40433E+2  -2.61392E+1
   1.75600E+1   2.65511E+2
  -3.27361E+2   6.56906E+0
   1.98882E+2   1.85026E+2
   4.68603E+2   1.82362E+2
   1.08587E+2   4.11713E+2
  -4.39364E+2   5.03277E+2
  -9.48593E+2   4.74106E+2
  -8.14104E+2  -6.97907E+2
   1.44242E+2  -9.18179E+2
   4.86416E+2  -3.16579E+2
   1.81652E+2   7.49268E+2
  -1.51846E+2   1.74334E+2
   4.61764E+2  -5.30781E+2
   7.40322E+2   3.40131E+2
   3.78428E+1   9.98963E+2
  -9.56125E+2   4.91254E+2
  -5.00933E+2  -5.67166E+2
   4.09638E+2  -6.04080E+2
   4.24620E+2   5.51371E+2
   4.30692E+1   6.91890E+2
  -3.60851E+2   4.25900E+1
  -7.14129E+2  -3.63528E+2
   2.49321E+2  -3.97126E+2
   1.03093E+3  -6.76372E+1
   8.85457E+2   5.24931E+2
   5.11235E+1   6.12556E+2
  -1.15620E+2   4.04939E+2
   1.44002E+2   5.57321E+2
  -1.15142E+2   3.25298E+2
  -6.24708E+2   2.61755E+2
  -7.93237E+2  -2.47545E+2
   4.95872E+1  -8.68348E+2
   6.47524E+2  -6.33437E+2
   5.11981E+2   3.94540E+2
   4.08632E+2   7.28587E+2
   2.58108E+2   2.90978E+2
   2.64332E+2   3.35758E+2
  -4.87813E+2   6.00383E+2
  -4.22782E+2   2.09756E+2
   2.14029E+2  -1.59969E+2
   4.41367E+2  -4.56287E+1
   3.13940E+2   2.19244E+2
   3.97277E+2   2.74795E+2
  -9.98964E+1   4.77661E+2
  -3.83100E+2   2.81560E+2
  -1.34626E+2  -3.23884E+2
   1.85427E+2  -1.67264E+1
   5.34954E+1   4.04081E+1
   1.33805E+2  -1.29006E+2
   2.43781E+2  -1.37706E+2
   6.47800E+2  -8.03784E+1
   1.74882E+2   5.32423E+2
  -3.69636E+1   1.50357E+2
  -4.29829E+2  -2.71702E+2
   9.98735E+0  -2.67929E+2
   8.69190E+2  -3.48231E+2
   6.91115E+2   2.17411E+2
   5.58814E+1   4.86140E+2
  -2.64437E+2   3.32709E+2
  -1.41328E+1  -4.70521E+1
   1.19990E+2  -2.02650E+2
  -1.59686E+2  -1.07505E+2
  -8.42835E+1  -2.02315E+2
  -1.71077E+2  -2.66130E+2
   4.46756E+2  -4.14936E+2
   3.99229E+2   4.10630E+1
   2.61093E+2   3.30191E+2
  -1.43476E+2   1.54438E+2
  -1.52544E+0  -2.00575E+2
   3.48608E+2  -1.80491E+2
   9.21375E+1   1.06575E+2
  -1.10401E+2   8.09094E+1
   7.32782E+1  -1.65470E+2
   3.40955E+1   1.56919E+2
  -1.43447E+2   1.68297E+2
  -2.00610E+2   1.11774E+2
  -2.65687E+2  -1.31205E+2
  -8.09835E+0  -1.51734E+2
   1.45662E+2  -1.90368E+2
   4.01932E+2   1.49576E+2
  -2.13281E+2   9.40453E+1
  -3.59136E+2   8.68982E+1
   1.60039E+2  -3.05505E+2
   5.36688E+1  -2.33769E+2
   1.35185E+2   6.37461E+1
  -3.73565E+1   4.01307E+2
  -3.23144E+2  -3.12506E+1
  -2.33617E+2  -1.41915E+2
   2.26623E+2  -2.29925E+2
  -2.42228E+2   2.52256E+2
  -2.86012E+2   9.01853E+1
  -2.52263E+2  -2.65424E+2
   1.01345E+2  -2.59487E+2
   6.41560E+1   1.02526E+2
  -2.30098E+2   3.81476E+2
  -1.37077E+2  -6.47457E+1
  -7.46940E+1  -3.10960E+2
  -1.50613E+2  -3.05181E+2
  -6.89345E+1  -1.79050E+2
  -9.02426E+1  -1.34976E+2
   5.55123E+1  -1.58273E+2
   3.42469E+2  -1.28579E+2
   2.57784E+2  -1.07331E+1
  -1.08305E+2   4.34904E+2
  -5.26490E+2   1.81998E+2
  -4.00650E+2   1.73663E+1
  -2.48681E+2  -1.10115E+2
  -4.39338E+1  -1.48831E+2
   1.20293E+2  -3.05146E+1
  -2.90103E+1  -2.40603E+1
   1.03801E+2  -2.77759E+2
   1.40242E+2  -2.44609E+2
   4.37441E+0   7.85692E+1
  -2.64021E+2   5.59912E+1
  -3.09235E+2  -3.77140E+2
  -1.91771E+2  -2.99700E+2
  -2.77103E+1   5.53014E+1
   1.71946E+2   3.34382E+1
  -1.66768E+2   9.02619E+1
  -2.02594E+2  -1.62835E+2
  -2.18881E+2  -1.57671E+2
  -1.76761E+2   2.73603E+1
  -1.38057E+2   2.16928E+2
  -1.82172E+2  -3.44242E+1
   9.43453E+1  -5.13136E+1
   2.99644E+2   1.00358E+2
   1.64005E+2   2.55967E+2
  -2.38536E+2   3.01924E+2
  -2.54744E+2   2.53732E+2
  -1.31921E+2   2.90220E+1
   9.70155E+1  -1.78364E+2
   1.16623E+2  -8.44985E+1
   6.87639E+0   3.93517E+1
  -2.43968E+1   1.61559E+1
  -1.69523E+2  -3.97570E+1
   4.13664E+1   3.39565E+1
  -1.20651E+2   1.91099E+2
  -1.80781E+2   1.59330E+2
  -2.17809E+2  -2.01549E+2
   1.21079E+2  -2.20485E+2
   4.42731E+1   2.24093E+2
  -7.91187E+1   1.65119E+2
  -2.22362E+2  -1.50776E+2
  -2.48867E+2  -2.39555E+2
  -1.51026E+2  -1.28115E+2
  -2.89255E+1  -4.31806E+1
  -3.03139E+2  -7.92104E+0
  -1.63402E+2   5.22037E+1
  -3.18861E+2   8.49340E+1
  -6.88023E+1  -7.64393E+1
  -3.03406E+2   2.53394E+2
  -8.21118E+1   7.55735E+0
  -1.59584E+2  -1.53938E+2
  -1.86799E+1  -9.59286E+1
   1.15611E+2   1.59866E+2
  -1.99745E+2   4.92902E+1
  -2.80912E+2   1.57286E+1
   2.24433E+1  -1.69863E+2
   2.25258E+2   4.90134E+1
  -4.83206E+1   7.29534E+1
  -3.10522E+2   4.11100E+1
  -1.47940E+2  -2.28146E+2
   1.10594E+2  -1.36048E+2
  -6.29687E+1  -1.44626E+2
  -1.09158E+2   1.07189E+2
  -4.02775E+2   1.65651E+2
  -2.02410E+2  -1.34204E+1
  -3.92387E+1  -3.06612E+2
   6.49214E+0   8.93303E+1
   2.11652E+2   2.09984E+2
  -1.17839E+2  -2.10259E+1
   8.20005E+1   1.08087E+2
   5.51304E+1   2.16518E+2
  -1.60358E+2   3.00338E+2
  -2.10177E+2   1.06366E+2
  -2.70266E+2  -1.52621E+2
   4.96235E+1  -1.82949E+2
   1.72561E+2  -8.83425E+1
   8.26751E+0   1.03890E+2
  -1.04334E+1  -8.19927E+1
  -2.01789E+2  -8.92426E+1
   6.61158E+1  -3.70190E+2
   2.23053E+2   1.12596E+2
  -2.32678E+2  -3.13161E+1
  -2.47990E+1   1.19022E+1
   3.66918E+1   1.37155E+1
   7.36373E+1  -1.50484E+2
   4.26555E+1   2.65664E+2
  -2.43197E+2   2.16311E+2
  -2.46898E+1  -5.46561E+1
  -1.08138E+1  -1.21689E+2
   9.81191E+1  -1.92560E+2
  -6.43977E+1   3.36617E+1
  -3.90930E+1  -8.18962E+1
  -3.18525E+1   2.37159E+1
  -2.06167E+0  -7.35399E+1
  -4.94400E+1   3.75660E+1
  -2.41535E+2   2.04555E+2
  -1.68092E+2  -5.79968E+1
   5.79184E+1   1.87646E+1
   4.96783E+1   4.01555E+1
   4.14156E+1   6.10823E+1
  -1.41501E+1   4.23699E+1
  -1.74050E+2   1.21907E+2
  -1.10236E+2  -2.02770E+2
  -1.93675E+2   1.96197E+2
  -4.49505E+1  -1.24995E+2
   1.02058E+2  -2.72827E+2
   4.79240E+1   9.92900E+1
  -6.23000E+1  -6.08409E+1
   3.64365E+1   1.46565E+2
  -2.26412E+2   7.08169E+1
  -3.64612E+1   1.33597E+2
  -2.62645E+2  -6.44144E+1
   1.29645E+2   1.65045E+2
   2.70014E+2   6.03082E+1
   3.42955E+1   5.41961E+1
  -8.00564E+1  -5.00643E+1
   7.60789E+1  -3.79494E+2
   4.55854E+1   1.98068E+2
  -4.35604E+1   1.57546E+2
   1.59378E+2  -1.91764E+1
   6.80932E+0   1.55336E+2
   1.04497E+2  -3.97848E+1
  -1.03984E+2   1.39452E+2
   5.45562E+1   2.00824E+2
   2.37520E+1   1.37621E+2
  -6.10787E+1  -1.84714E+2
  -2.32805E+1  -4.98837E+1
   2.23649E+2  -1.39198E+1
  -7.82739E+0   1.18749E+2
  -6.63050E+1   1.18296E+2
  -3.00344E+1  -2.09030E+2
   1.26496E+2   1.58440E+2
   8.06880E+1  -1.07406E+1
  -2.05191E+2  -9.75811E+1
   2.33365E+2  -8.19589E+1
   1.48586E+2  -4.87231E+2
   1.27606E+2  -4.96266E+1
  -1.27735E+1   3.79067E+2
  -1.35130E+1  -1.20247E+2
   8.81810E+1  -2.32051E+2
  -2.34103E+1  -2.10091E+2
   4.71039E+1   8.97710E+1
   2.78907E+2  -2.65130E+2
  -1.15336E+2  -1.34989E+1
  -1.27814E+2   9.35389E+0
  -1.29556E+2   1.51555E+2
   3.75364E+1   2.39244E+2
  -1.38291E+2  -9.99313E+1
  -3.16716E+2   1.15658E+1
   1.83178E+2  -1.45236E+2
   1.15330E+2  -7.12687E+1
   6.45127E+1  -1.04041E+2
  -1.94375E+2  -1.17762E+2
  -8.53840E+0   1.44195E+2
  -4.97205E+1  -1.38402E+2
   1.50018E+2  -2.09374E+0
  -5.02050E+1   7.20013E+1
   4.51986E+1  -9.57584E+1
  -9.78311E+1   3.88902E+1
  -7.57905E+1   9.57381E+1
   2.26957E+2  -9.29540E+1
  -2.71455E+2   1.37406E+2
  -5.06362E+1   6.43331E+1
   1.49598E+2  -1.96437E+2
  -2.95094E+1  -2.96188E+2
   3.39550E+1  -7.84317E+1
   6.11897E+1  -8.13252E+1
   1.00682E+2  -2.05712E+2
   3.77077E+2  -5.74919E+1
   1.20361E+1  -4.03702E+1
  -1.96848E+2  -2.25783E+2
  -5.95311E+1   4.07157E+1
   1.94897E+1   7.26943E+1
   2.80203E+2  -2.80884E+2
   6.59153E+1   5.87998E+1
  -4.32806E+1   9.28082E+1
  -5.10862E+1   4.04026E+2
  -7.73921E+1   1.63549E+2
