 
 $NMID
 ID=''
 FMTDAT='(2E13.5)'
 TRAMP=   1.00000E+0
 VOLUME=   1.00000E+0
 $END
  -2.78792E+5   6.80600E+5
  -1.39053E+6   1.40542E+6
  -1.24030E+6   1.52953E+6
  -1.23571E+6   1.40515E+6
  -1.29912E+6   1.39790E+6
  -1.27634E+6   1.36183E+6
  -1.31153E+6   1.31165E+6
  -1.32997E+6   1.34428E+6
  -1.27983E+6   1.30201E+6
  -1.32758E+6   1.22461E+6
  -1.36702E+6   1.23735E+6
  -1.32387E+6   1.21749E+6
  -1.33531E+6   1.15804E+6
  -1.36637E+6   1.14772E+6
  -1.34767E+6   1.12033E+6
  -1.34849E+6   1.08016E+6
  -1.36769E+6   1.07164E+6
  -1.36697E+6   1.03664E+6
  -1.37687E+6   9.92156E+5
  -1.38155E+6   9.81271E+5
  -1.37851E+6   9.50660E+5
  -1.39102E+6   9.11913E+5
  -1.39356E+6   8.93550E+5
  -1.38916E+6   8.63692E+5
  -1.39873E+6   8.28164E+5
  -1.39567E+6   8.13514E+5
  -1.39110E+6   7.86870E+5
  -1.39831E+6   7.59111E+5
  -1.39675E+6   7.37160E+5
  -1.38910E+6   7.10735E+5
  -1.39537E+6   6.82001E+5
  -1.39391E+6   6.62435E+5
  -1.39081E+6   6.34191E+5
  -1.39299E+6   6.06923E+5
  -1.38787E+6   5.85333E+5
  -1.38411E+6   5.63602E+5
  -1.39032E+6   5.40784E+5
  -1.38954E+6   5.15992E+5
  -1.38192E+6   4.90167E+5
  -1.38094E+6   4.70626E+5
  -1.37787E+6   4.48864E+5
  -1.37167E+6   4.24769E+5
  -1.36578E+6   4.07219E+5
  -1.36244E+6   3.89752E+5
  -1.35751E+6   3.66558E+5
  -1.35434E+6   3.46348E+5
  -1.35015E+6   3.26646E+5
  -1.34627E+6   3.02038E+5
  -1.33997E+6   2.79008E+5
  -1.33314E+6   2.60118E+5
  -1.32874E+6   2.40071E+5
  -1.32550E+6   2.19020E+5
  -1.32033E+6   1.99297E+5
  -1.31560E+6   1.79613E+5
  -1.30971E+6   1.59992E+5
  -1.30369E+6   1.39829E+5
  -1.29696E+6   1.19718E+5
  -1.28821E+6   1.01760E+5
  -1.27977E+6   8.56214E+4
  -1.27416E+6   6.85140E+4
  -1.26787E+6   5.03406E+4
  -1.25988E+6   3.28590E+4
  -1.25299E+6   1.52577E+4
  -1.24609E+6  -3.49868E+3
  -1.23624E+6  -2.11671E+4
  -1.22541E+6  -3.68111E+4
  -1.21639E+6  -5.26503E+4
  -1.20850E+6  -6.81583E+4
  -1.20044E+6  -8.37410E+4
  -1.19208E+6  -9.99326E+4
  -1.18259E+6  -1.16491E+5
  -1.17222E+6  -1.30593E+5
  -1.16327E+6  -1.43938E+5
  -1.15394E+6  -1.58607E+5
  -1.14402E+6  -1.73695E+5
  -1.13334E+6  -1.87368E+5
  -1.12335E+6  -2.00527E+5
  -1.11304E+6  -2.14625E+5
  -1.10269E+6  -2.28988E+5
  -1.09131E+6  -2.42979E+5
  -1.07956E+6  -2.56354E+5
  -1.06814E+6  -2.68604E+5
  -1.05740E+6  -2.81456E+5
  -1.04586E+6  -2.94738E+5
  -1.03306E+6  -3.07703E+5
  -1.02087E+6  -3.19064E+5
  -1.00968E+6  -3.29822E+5
  -9.98593E+5  -3.41012E+5
  -9.85694E+5  -3.51741E+5
  -9.73513E+5  -3.61137E+5
  -9.62412E+5  -3.70323E+5
  -9.51276E+5  -3.79768E+5
  -9.39161E+5  -3.90032E+5
  -9.26252E+5  -3.99251E+5
  -9.13151E+5  -4.07471E+5
  -9.01279E+5  -4.15128E+5
  -8.89703E+5  -4.22951E+5
  -8.78173E+5  -4.31416E+5
  -8.65883E+5  -4.40037E+5
  -8.53468E+5  -4.47009E+5
  -8.41891E+5  -4.54213E+5
  -8.29904E+5  -4.61819E+5
  -8.17045E+5  -4.69479E+5
  -8.03582E+5  -4.75427E+5
  -7.91794E+5  -4.80084E+5
  -7.81198E+5  -4.85345E+5
  -7.70387E+5  -4.91335E+5
  -7.57510E+5  -4.97566E+5
  -7.44468E+5  -5.01978E+5
  -7.33199E+5  -5.05446E+5
  -7.22504E+5  -5.09835E+5
  -7.11126E+5  -5.15471E+5
  -6.99065E+5  -5.21036E+5
  -6.86827E+5  -5.25525E+5
  -6.74905E+5  -5.30080E+5
  -6.62953E+5  -5.34899E+5
  -6.50486E+5  -5.39427E+5
  -6.37969E+5  -5.43067E+5
  -6.25733E+5  -5.45001E+5
  -6.15043E+5  -5.47461E+5
  -6.04756E+5  -5.50452E+5
  -5.93752E+5  -5.53897E+5
  -5.82492E+5  -5.56498E+5
  -5.71363E+5  -5.59233E+5
  -5.59990E+5  -5.61712E+5
  -5.48159E+5  -5.63988E+5
  -5.36677E+5  -5.65094E+5
  -5.25776E+5  -5.66722E+5
  -5.14654E+5  -5.68792E+5
  -5.03267E+5  -5.71323E+5
  -4.91101E+5  -5.73599E+5
  -4.78488E+5  -5.75221E+5
  -4.66810E+5  -5.76174E+5
  -4.55477E+5  -5.77139E+5
  -4.44076E+5  -5.78351E+5
  -4.32402E+5  -5.78892E+5
  -4.21263E+5  -5.79250E+5
  -4.10841E+5  -5.79783E+5
  -3.99758E+5  -5.80600E+5
  -3.88407E+5  -5.81308E+5
  -3.76796E+5  -5.80857E+5
  -3.65816E+5  -5.79468E+5
  -3.55906E+5  -5.78691E+5
  -3.45875E+5  -5.78345E+5
  -3.34989E+5  -5.78628E+5
  -3.23671E+5  -5.77615E+5
  -3.13024E+5  -5.75813E+5
  -3.01976E+5  -5.74815E+5
  -2.91946E+5  -5.73218E+5
  -2.82048E+5  -5.71134E+5
  -2.72249E+5  -5.69255E+5
  -2.62571E+5  -5.66996E+5
  -2.53347E+5  -5.65258E+5
  -2.44036E+5  -5.63601E+5
  -2.34398E+5  -5.61210E+5
  -2.25302E+5  -5.58598E+5
  -2.16646E+5  -5.55798E+5
  -2.07965E+5  -5.53507E+5
  -1.99004E+5  -5.50800E+5
  -1.90278E+5  -5.47569E+5
  -1.81765E+5  -5.44555E+5
  -1.73184E+5  -5.41844E+5
  -1.64684E+5  -5.38221E+5
  -1.56363E+5  -5.34889E+5
  -1.47949E+5  -5.31225E+5
  -1.40671E+5  -5.27805E+5
  -1.33407E+5  -5.24900E+5
  -1.25304E+5  -5.22194E+5
  -1.17411E+5  -5.18378E+5
  -1.10210E+5  -5.14562E+5
  -1.03310E+5  -5.10760E+5
  -9.63765E+4  -5.07449E+5
  -8.94455E+4  -5.03764E+5
  -8.22748E+4  -5.00086E+5
  -7.52682E+4  -4.96015E+5
  -6.86103E+4  -4.92369E+5
  -6.16513E+4  -4.89197E+5
  -5.42418E+4  -4.85234E+5
  -4.73402E+4  -4.80629E+5
  -4.15740E+4  -4.76650E+5
  -3.49851E+4  -4.73115E+5
  -2.86869E+4  -4.69725E+5
  -2.17078E+4  -4.65331E+5
  -1.53127E+4  -4.61063E+5
  -9.40230E+3  -4.57229E+5
  -3.70045E+3  -4.52768E+5
   1.84708E+3  -4.48631E+5
   7.48814E+3  -4.44073E+5
   1.24539E+4  -4.39974E+5
   1.72429E+4  -4.36285E+5
   2.33732E+4  -4.32795E+5
   2.95356E+4  -4.28617E+5
   3.54614E+4  -4.23721E+5
   4.05105E+4  -4.19079E+5
   4.60793E+4  -4.14452E+5
   5.06770E+4  -4.09903E+5
   5.62786E+4  -4.05893E+5
   6.13851E+4  -4.00950E+5
   6.69707E+4  -3.96481E+5
   7.18671E+4  -3.92441E+5
   7.70983E+4  -3.87484E+5
   8.19592E+4  -3.82075E+5
   8.61082E+4  -3.77077E+5
   9.03480E+4  -3.72873E+5
   9.48500E+4  -3.68442E+5
   9.95778E+4  -3.63415E+5
   1.03946E+5  -3.58465E+5
   1.08164E+5  -3.53376E+5
   1.11794E+5  -3.48224E+5
   1.16010E+5  -3.43565E+5
   1.20321E+5  -3.38048E+5
   1.23922E+5  -3.32926E+5
   1.27249E+5  -3.28635E+5
   1.30962E+5  -3.23787E+5
   1.35091E+5  -3.18765E+5
   1.38663E+5  -3.13152E+5
   1.41249E+5  -3.07669E+5
   1.43981E+5  -3.02800E+5
   1.46894E+5  -2.97935E+5
   1.49829E+5  -2.93079E+5
   1.52423E+5  -2.88038E+5
   1.54874E+5  -2.82789E+5
   1.57445E+5  -2.78308E+5
   1.60017E+5  -2.73035E+5
   1.62378E+5  -2.67784E+5
   1.64424E+5  -2.62639E+5
   1.66041E+5  -2.57896E+5
   1.67709E+5  -2.53152E+5
   1.70222E+5  -2.48504E+5
   1.72122E+5  -2.43205E+5
   1.73703E+5  -2.38036E+5
   1.74919E+5  -2.33280E+5
   1.76313E+5  -2.28906E+5
   1.77973E+5  -2.24393E+5
   1.78938E+5  -2.19410E+5
   1.79882E+5  -2.15203E+5
   1.81202E+5  -2.10894E+5
   1.82202E+5  -2.06666E+5
   1.83395E+5  -2.01746E+5
   1.83628E+5  -1.97401E+5
   1.84387E+5  -1.93487E+5
   1.85201E+5  -1.89273E+5
   1.86154E+5  -1.85260E+5
   1.86970E+5  -1.80793E+5
   1.87297E+5  -1.76532E+5
   1.87512E+5  -1.72442E+5
   1.88234E+5  -1.68625E+5
   1.88581E+5  -1.64570E+5
   1.88881E+5  -1.60358E+5
   1.88952E+5  -1.56676E+5
   1.88860E+5  -1.53103E+5
   1.89642E+5  -1.49781E+5
   1.89762E+5  -1.45530E+5
   1.89726E+5  -1.41615E+5
   1.89358E+5  -1.38131E+5
   1.89423E+5  -1.34918E+5
   1.89674E+5  -1.31257E+5
   1.89601E+5  -1.27114E+5
   1.89668E+5  -1.23814E+5
   1.89845E+5  -1.20257E+5
   1.89767E+5  -1.16836E+5
   1.89516E+5  -1.12766E+5
   1.89067E+5  -1.09138E+5
   1.88507E+5  -1.05803E+5
   1.88080E+5  -1.02631E+5
   1.88074E+5  -9.94134E+4
   1.87733E+5  -9.59813E+4
   1.87617E+5  -9.25288E+4
   1.86677E+5  -8.91382E+4
   1.85887E+5  -8.60426E+4
   1.85359E+5  -8.30314E+4
   1.84566E+5  -7.97328E+4
   1.83786E+5  -7.65844E+4
   1.83082E+5  -7.39755E+4
   1.82813E+5  -7.09375E+4
   1.82000E+5  -6.74276E+4
   1.81139E+5  -6.40248E+4
   1.79728E+5  -6.10891E+4
   1.79217E+5  -5.85147E+4
   1.78125E+5  -5.56474E+4
   1.77233E+5  -5.26762E+4
   1.76441E+5  -4.96855E+4
   1.75088E+5  -4.69289E+4
   1.74084E+5  -4.44637E+4
   1.73123E+5  -4.14823E+4
   1.71981E+5  -3.88053E+4
   1.70386E+5  -3.59928E+4
   1.69150E+5  -3.39729E+4
   1.68358E+5  -3.17084E+4
   1.67177E+5  -2.91363E+4
   1.66044E+5  -2.62918E+4
   1.64695E+5  -2.40426E+4
   1.63129E+5  -2.17437E+4
   1.61806E+5  -1.94642E+4
   1.60486E+5  -1.72526E+4
   1.58934E+5  -1.49155E+4
   1.57804E+5  -1.30413E+4
   1.56668E+5  -1.08617E+4
   1.55354E+5  -8.63521E+3
   1.53667E+5  -6.36835E+3
   1.52140E+5  -4.47371E+3
   1.50806E+5  -2.80327E+3
   1.49584E+5  -1.05008E+3
   1.48253E+5   9.93053E+2
   1.46642E+5   3.24397E+3
   1.44912E+5   4.96328E+3
   1.43388E+5   6.49827E+3
   1.42364E+5   8.29792E+3
   1.40663E+5   9.77000E+3
   1.39069E+5   1.14384E+4
   1.37762E+5   1.32664E+4
   1.36433E+5   1.44683E+4
   1.34963E+5   1.61561E+4
   1.33561E+5   1.78103E+4
   1.31925E+5   1.93772E+4
   1.30186E+5   2.06049E+4
   1.28781E+5   2.19955E+4
   1.26968E+5   2.33621E+4
   1.25732E+5   2.46013E+4
   1.23938E+5   2.61918E+4
   1.22489E+5   2.70789E+4
   1.21324E+5   2.84781E+4
   1.19590E+5   2.94782E+4
   1.17617E+5   3.07977E+4
   1.16234E+5   3.16636E+4
   1.14692E+5   3.28402E+4
   1.13411E+5   3.38880E+4
   1.11926E+5   3.51381E+4
   1.10076E+5   3.63405E+4
   1.08370E+5   3.71814E+4
   1.06948E+5   3.78597E+4
   1.05653E+5   3.88099E+4
   1.04131E+5   3.93557E+4
   1.02448E+5   4.03417E+4
   1.01171E+5   4.12826E+4
   9.96858E+4   4.22245E+4
   9.82832E+4   4.30382E+4
   9.63585E+4   4.40386E+4
   9.46544E+4   4.44478E+4
   9.31636E+4   4.49296E+4
   9.20057E+4   4.56338E+4
   9.04271E+4   4.63205E+4
   8.87416E+4   4.68694E+4
   8.71360E+4   4.76120E+4
   8.57754E+4   4.79493E+4
   8.41817E+4   4.85000E+4
   8.25945E+4   4.92099E+4
   8.07073E+4   4.96475E+4
   7.97796E+4   4.95415E+4
   7.88612E+4   5.04052E+4
   7.72724E+4   5.08332E+4
   7.55750E+4   5.12928E+4
   7.40253E+4   5.14625E+4
   7.24802E+4   5.15520E+4
   7.13224E+4   5.20203E+4
   6.98834E+4   5.20326E+4
   6.83855E+4   5.22968E+4
   6.70335E+4   5.25016E+4
   6.58157E+4   5.25893E+4
   6.45510E+4   5.28082E+4
   6.30876E+4   5.33260E+4
   6.19478E+4   5.32932E+4
   6.04920E+4   5.30745E+4
   5.92622E+4   5.31096E+4
   5.81496E+4   5.33333E+4
   5.66500E+4   5.33779E+4
   5.53128E+4   5.35254E+4
