 LCModel (Version 6.3-1N) Copyright: S.W. Provencher.          Ref.: Magn. Reson. Med. 30:672-679 (1993).                
 Slice_N1@8_18  28-Feb-2025 11:44:24
 27 lines in following concentration table = NCONC+1
    Conc.  %SD /Cr+PCr  Metabolite                                         
 3.11E-04   4% 3.6E-04 Mac                                                 
    6.887  13%   8.000 Cr                                                  
    0.000 999%   0.000 PCr                                                 
    6.757  18%   7.849 Ins                                                 
   10.536  12%  12.239 NAA                                                 
    4.326  31%   5.025 Tau                                                 
    0.000 999%   0.000 PCho                                                
    1.934  21%   2.247 GPC                                                 
   12.414  11%  14.421 Glu                                                 
    8.482  14%   9.852 Gln                                                 
    0.000 999%   0.000 Ala                                                 
    3.191  55%   3.707 Asc                                                 
    5.049  24%   5.866 Asp                                                 
    0.806  88%   0.937 GABA                                                
    1.226  72%   1.425 Glc                                                 
    2.552  30%   2.965 GSH                                                 
    0.000 999%   0.000 Lac                                                 
    2.669  36%   3.100 NAAG                                                
    2.429  60%   2.821 PE                                                  
    1.934  21%   2.247 GPC+PCho                                            
   13.204   8%  15.339 NAA+NAAG                                            
   20.896   8%  24.273 Glu+Gln                                             
    6.887  13%   8.000 Cr+PCr                                              
   13.204   8%  15.339 NAA+NAAG                                            
    6.887  13%   8.000 Cr+PCr                                              
   20.896   8%  24.273 Glu+Gln                                             
   6 lines in following misc. output table
  FWHM = 0.057 ppm    S/N =   3                                            
  Data shift = 0.016 ppm                                                   
  Ph:-147 deg       0.0 deg/ppm                                            
  alphaB,S = 2.6E+00,   7.4E+01                                            
   19 spline knots.   Ns =10(1)                                            
  ( 8) 3 infls.   ( 5) 1 extrs.                                            
  480 points on ppm-axis = NY
      4.100000     4.091866     4.083733     4.075600     4.067466     4.059333     4.051199     4.043066     4.034933     4.026799
      4.018666     4.010532     4.002399     3.994265     3.986132     3.977998     3.969864     3.961731     3.953597     3.945463
      3.937330     3.929196     3.921062     3.912929     3.904795     3.896662     3.888528     3.880394     3.872261     3.864127
      3.855993     3.847860     3.839726     3.831592     3.823459     3.815325     3.807191     3.799058     3.790924     3.782790
      3.774657     3.766523     3.758389     3.750256     3.742122     3.733989     3.725855     3.717721     3.709588     3.701454
      3.693320     3.685187     3.677053     3.668919     3.660786     3.652652     3.644518     3.636385     3.628251     3.620117
      3.611984     3.603850     3.595716     3.587583     3.579449     3.571316     3.563182     3.555048     3.546915     3.538781
      3.530647     3.522514     3.514380     3.506246     3.498113     3.489979     3.481845     3.473712     3.465578     3.457444
      3.449311     3.441177     3.433043     3.424910     3.416776     3.408643     3.400509     3.392375     3.384242     3.376108
      3.367974     3.359841     3.351707     3.343573     3.335440     3.327306     3.319172     3.311039     3.302905     3.294771
      3.286638     3.278504     3.270370     3.262237     3.254103     3.245970     3.237836     3.229702     3.221569     3.213435
      3.205301     3.197168     3.189034     3.180900     3.172767     3.164633     3.156499     3.148366     3.140232     3.132098
      3.123965     3.115831     3.107697     3.099564     3.091430     3.083297     3.075163     3.067029     3.058896     3.050762
      3.042628     3.034495     3.026361     3.018227     3.010094     3.001960     2.993826     2.985693     2.977559     2.969425
      2.961292     2.953158     2.945024     2.936891     2.928757     2.920624     2.912490     2.904356     2.896223     2.888089
      2.879955     2.871822     2.863688     2.855554     2.847421     2.839287     2.831153     2.823020     2.814886     2.806752
      2.798619     2.790485     2.782351     2.774218     2.766084     2.757951     2.749817     2.741683     2.733550     2.725416
      2.717282     2.709149     2.701015     2.692881     2.684748     2.676614     2.668480     2.660347     2.652213     2.644079
      2.635946     2.627812     2.619678     2.611545     2.603411     2.595278     2.587144     2.579010     2.570877     2.562743
      2.554609     2.546476     2.538342     2.530208     2.522075     2.513941     2.505807     2.497674     2.489540     2.481406
      2.473273     2.465139     2.457006     2.448872     2.440738     2.432605     2.424471     2.416337     2.408204     2.400070
      2.391936     2.383803     2.375669     2.367535     2.359402     2.351268     2.343134     2.335001     2.326867     2.318733
      2.310600     2.302466     2.294333     2.286199     2.278065     2.269932     2.261798     2.253664     2.245531     2.237397
      2.229263     2.221130     2.212996     2.204862     2.196729     2.188595     2.180461     2.172328     2.164194     2.156060
      2.147927     2.139793     2.131660     2.123526     2.115392     2.107259     2.099125     2.090991     2.082858     2.074724
      2.066590     2.058457     2.050323     2.042189     2.034056     2.025922     2.017788     2.009655     2.001521     1.993387
      1.985254     1.977120     1.968987     1.960853     1.952719     1.944586     1.936452     1.928318     1.920185     1.912051
      1.903917     1.895784     1.887650     1.879516     1.871383     1.863249     1.855115     1.846982     1.838848     1.830714
      1.822581     1.814447     1.806314     1.798180     1.790046     1.781913     1.773779     1.765645     1.757512     1.749378
      1.741244     1.733111     1.724977     1.716843     1.708710     1.700576     1.692442     1.684309     1.676175     1.668041
      1.659908     1.651774     1.643641     1.635507     1.627373     1.619240     1.611106     1.602972     1.594839     1.586705
      1.578571     1.570438     1.562304     1.554170     1.546037     1.537903     1.529769     1.521636     1.513502     1.505368
      1.497235     1.489101     1.480968     1.472834     1.464700     1.456567     1.448433     1.440299     1.432166     1.424032
      1.415898     1.407765     1.399631     1.391497     1.383364     1.375230     1.367096     1.358963     1.350829     1.342695
      1.334562     1.326428     1.318295     1.310161     1.302027     1.293894     1.285760     1.277626     1.269493     1.261359
      1.253225     1.245092     1.236958     1.228824     1.220691     1.212557     1.204423     1.196290     1.188156     1.180022
      1.171889     1.163755     1.155622     1.147488     1.139354     1.131221     1.123087     1.114953     1.106820     1.098686
      1.090552     1.082419     1.074285     1.066151     1.058018     1.049884     1.041750     1.033617     1.025483     1.017349
      1.009216     1.001082     0.992949     0.984815     0.976681     0.968548     0.960414     0.952280     0.944147     0.936013
      0.927879     0.919746     0.911612     0.903478     0.895345     0.887211     0.879077     0.870944     0.862810     0.854676
      0.846543     0.838409     0.830276     0.822142     0.814008     0.805875     0.797741     0.789607     0.781474     0.773340
      0.765206     0.757073     0.748939     0.740805     0.732672     0.724538     0.716404     0.708271     0.700137     0.692003
      0.683870     0.675736     0.667603     0.659469     0.651335     0.643202     0.635068     0.626934     0.618801     0.610667
      0.602533     0.594400     0.586266     0.578132     0.569999     0.561865     0.553731     0.545598     0.537464     0.529330
      0.521197     0.513063     0.504930     0.496796     0.488662     0.480529     0.472395     0.464261     0.456128     0.447994
      0.439861     0.431727     0.423593     0.415460     0.407326     0.399192     0.391059     0.382925     0.374792     0.366658
      0.358524     0.350391     0.342257     0.334124     0.325990     0.317856     0.309723     0.301589     0.293455     0.285322
      0.277188     0.269055     0.260921     0.252787     0.244654     0.236520     0.228386     0.220253     0.212119     0.203986
 NY phased data points follow
  -8.43789E+01 -9.07801E+01 -1.10426E+02 -1.01899E+02 -1.32072E+02 -1.08112E+02 -1.01665E+02 -1.31421E+02 -1.12850E+02 -1.05180E+02
  -1.06709E+02 -1.11732E+02 -1.34044E+02 -1.43001E+02 -1.19752E+02 -1.22699E+02 -1.30872E+02 -1.45945E+02 -1.25984E+02 -1.27486E+02
  -1.37662E+02 -9.95892E+01 -1.19019E+02 -1.19327E+02 -1.03024E+02 -8.05063E+01 -6.13650E+01 -5.90123E+01 -7.35006E+01 -8.16439E+01
  -7.08287E+01 -8.95004E+01 -7.12910E+01 -8.27626E+01 -9.87145E+01 -1.02850E+02 -1.15576E+02 -1.05537E+02 -1.11709E+02 -1.11224E+02
  -1.13898E+02 -1.14183E+02 -1.10403E+02 -9.50459E+01 -8.56419E+01 -6.18682E+01 -5.17381E+01 -4.81534E+01 -3.19735E+01 -4.77452E+01
  -3.89581E+01 -5.29661E+01 -4.07598E+01 -4.58724E+01 -7.96145E+01 -5.65308E+01 -6.68999E+01 -6.60755E+01 -6.99472E+01 -7.24936E+01
  -3.87554E+01 -4.29368E+01 -6.07185E+01 -4.74291E+01 -3.84155E+01 -4.72860E+01 -5.18025E+01 -6.64341E+01 -8.42130E+01 -7.52079E+01
  -7.50325E+01 -7.15013E+01 -3.08246E+01 -5.66957E+01 -5.46222E+01 -2.07285E+01 -4.49784E+01 -2.94319E+01 -3.11444E+01 -3.87536E+01
  -4.26065E+01 -4.21357E+01 -5.40578E+01 -6.27100E+01 -3.71968E+01 -4.91231E+01 -2.57408E+01 -3.63667E+01 -3.35266E+01  3.35602E+00
  -1.75564E+01  2.71937E+00  8.36581E+00  1.21347E+01  2.69117E+01 -6.56957E+00 -1.20185E+01 -1.66418E+00 -2.32306E+01  3.43926E-02
   6.21824E+00 -4.71372E+01 -5.59618E+01 -5.08670E+01 -5.93425E+01 -8.27176E+01 -9.15309E+01 -1.02015E+02 -1.26896E+02 -1.35326E+02
  -1.46046E+02 -1.35164E+02 -1.34294E+02 -1.24151E+02 -1.06382E+02 -1.12484E+02 -9.35553E+01 -7.24189E+01 -7.44327E+01 -6.82060E+01
  -5.96030E+01 -5.08760E+01 -2.83883E+01 -3.36218E+01 -4.63024E+01 -3.27897E+01 -2.40450E+01 -3.71935E+01 -2.82311E+01 -1.28122E+01
  -2.62128E+01 -2.99611E+01 -5.63729E+01 -1.03115E+02 -1.18956E+02 -9.95405E+01 -1.10422E+02 -1.28768E+02 -1.20327E+02 -1.25645E+02
  -1.15978E+02 -1.14559E+02 -1.14119E+02 -1.18059E+02 -1.14949E+02 -1.09235E+02 -1.28421E+02 -1.14284E+02 -1.00464E+02 -1.06989E+02
  -1.17577E+02 -1.09329E+02 -8.66291E+01 -1.01737E+02 -1.09885E+02 -8.03460E+01 -7.83259E+01 -9.36084E+01 -8.17982E+01 -6.21180E+01
  -7.01502E+01 -7.80694E+01 -6.76162E+01 -9.36576E+01 -7.97382E+01 -6.22726E+01 -7.64958E+01 -6.86422E+01 -7.62964E+01 -6.13325E+01
  -6.84157E+01 -6.47731E+01 -4.54646E+01 -6.29810E+01 -5.94467E+01 -4.89918E+01 -6.34542E+01 -6.56056E+01 -5.00844E+01 -8.41626E+01
  -8.68404E+01 -8.19184E+01 -9.15899E+01 -9.39407E+01 -1.17975E+02 -8.79875E+01 -9.82861E+01 -1.06612E+02 -8.53552E+01 -8.88031E+01
  -8.52160E+01 -1.19488E+02 -1.11253E+02 -8.28644E+01 -6.99435E+01 -7.24131E+01 -8.39471E+01 -6.06688E+01 -7.99222E+01 -8.04958E+01
  -6.10397E+01 -6.01616E+01 -4.78271E+01 -6.64734E+01 -6.15658E+01 -4.11316E+01 -5.87936E+01 -8.65266E+01 -6.62596E+01 -5.11858E+01
  -7.42303E+01 -6.28368E+01 -5.47915E+01 -3.08679E+01 -1.54225E+01 -2.23825E+01 -9.23239E+00 -5.95785E+00 -5.02382E+00 -2.10807E+01
  -4.33589E+01 -5.61527E+01 -4.57581E+01 -5.13214E+01 -7.45693E+01 -5.32078E+01 -4.71673E+01 -6.86973E+01 -7.11284E+01 -9.09376E+01
  -1.15137E+02 -9.78117E+01 -8.95758E+01 -1.08075E+02 -1.22450E+02 -1.10938E+02 -1.19491E+02 -1.30872E+02 -1.33727E+02 -1.48710E+02
  -1.09623E+02 -9.89751E+01 -1.05886E+02 -8.65033E+01 -8.21109E+01 -9.04227E+01 -8.41902E+01 -8.63921E+01 -1.04276E+02 -6.26570E+01
  -7.03093E+01 -8.56014E+01 -6.94240E+01 -7.05227E+01 -6.41772E+01 -6.10079E+01 -1.28874E+01  2.33111E+01  5.22886E+01  6.94842E+01
   5.84347E+01  5.72504E+01  7.90340E+01  7.83350E+01  5.28082E+01  4.87063E+01  2.91639E+01  4.24721E+01  2.49007E+01  2.40878E+01
   3.46136E+01  5.65284E+00  3.50507E+01  3.42199E+01  4.22832E+01  2.67035E+01  9.67498E+00  4.44699E+01  2.08451E+01  2.17097E+01
   2.55126E+01  5.38889E+00  2.17469E+01  2.65652E+01  2.13371E+01  1.74125E+01  7.95420E+00  1.87275E+00 -1.18023E+01 -2.32729E+01
  -3.09888E+01 -2.49996E+01 -2.65134E+01 -4.55231E+01 -4.36145E+01 -4.00883E+01 -2.95178E+01 -2.66960E+01 -2.15371E+01 -2.38592E+00
  -8.31801E-01  1.75657E+01  3.20023E+01  4.25124E+01  6.52662E+01  5.70489E+01  5.74823E+01  8.78474E+01  9.54888E+01  7.58361E+01
   7.30487E+01  8.73231E+01  6.72547E+01  3.40988E+01  3.59547E+01  4.88996E+01  2.88090E+01  1.85914E+01  2.17116E+01 -5.68756E-01
   1.28700E+00  6.46587E+00  6.97481E+00  1.13488E+01  1.92238E+01  1.03000E+01 -1.11091E+01  7.54711E-01 -1.47323E+01 -2.10122E+01
  -1.01177E+01 -2.62708E+01 -3.56274E+01 -3.30530E+01 -4.94424E+01 -4.85906E+01 -2.25192E+01 -3.63791E+01 -3.68442E+01 -4.27069E+01
  -1.67385E+01  1.39897E+01 -1.77354E+01 -1.36759E+01 -9.56020E+00  6.39995E+00  1.94008E+01 -8.11674E+00 -7.85161E+00  5.95499E+00
   1.11009E+00  7.01065E+00  6.26569E+00  4.65791E+00  6.08434E-01 -3.78971E+01 -3.34636E+01 -2.83866E+01 -4.00722E+01 -3.55448E+01
  -3.25467E+01 -2.60818E+01 -1.82917E+01 -5.39338E+00 -1.98863E+01 -1.07731E+01 -1.09056E+01 -1.69211E+01  5.79138E+00 -8.59849E+00
  -1.40822E+01  2.68777E+00  1.92237E+01  1.16833E+01  1.33960E+01  3.13142E+01  1.70497E+01  2.66472E+01  5.51208E+01  5.25790E+01
   5.33139E+01  7.58269E+01  7.14582E+01  5.97235E+01  7.85703E+01  8.12725E+01  7.71976E+01  7.92771E+01  6.91481E+01  6.39766E+01
   4.60690E+01  4.16111E+01  3.79945E+01  1.44541E+01  6.93270E+00  2.80276E+00  1.76371E+01  2.38154E+00 -1.19770E+01  4.49652E+00
  -2.06055E+01 -4.29707E+01 -5.21274E+01 -5.12309E+01 -4.15163E+01 -3.91329E+01 -4.60840E+01 -4.24911E+01 -3.67457E+01 -5.72562E+01
  -5.11785E+01 -5.41719E+01 -5.95157E+01 -4.46488E+01 -6.39697E+01 -7.47711E+01 -7.20185E+01 -6.97880E+01 -5.50997E+01 -5.69084E+01
  -6.83548E+01 -4.44173E+01 -4.98319E+01 -7.13276E+01 -3.45282E+01 -3.77526E+01 -5.38850E+01 -4.69867E+01 -4.66519E+01 -5.19592E+01
  -5.46929E+01 -4.41862E+01 -6.47772E+01 -4.46838E+01 -4.10754E+01 -6.38626E+01 -5.60687E+01 -6.34135E+01 -3.69615E+01 -4.72976E+01
  -6.79398E+01 -5.55676E+01 -6.12770E+01 -5.33991E+01 -4.11610E+01 -5.48490E+01 -5.17793E+01 -3.41447E+01 -4.74557E+01 -4.86616E+01
  -5.40187E+01 -4.39316E+01 -5.92340E+01 -7.16305E+01 -3.83671E+01 -5.59240E+01 -4.79473E+01 -3.87515E+01 -5.47688E+01 -5.01476E+01
  -5.34455E+01 -6.46286E+01 -5.10021E+01 -3.99016E+01 -5.33092E+01 -5.67959E+01 -4.79367E+01 -2.09713E+01 -3.14154E+01 -3.72712E+01
  -4.16171E+01 -4.44764E+01 -2.73886E+01 -5.07832E+01 -4.38049E+01 -2.38946E+01 -3.30131E+01 -4.18223E+01 -3.80361E+01 -4.41705E+01
 NY points of the fit to the data follow
  -1.04101E+02 -1.06645E+02 -1.08612E+02 -1.09508E+02 -1.09254E+02 -1.08320E+02 -1.07494E+02 -1.07406E+02 -1.08301E+02 -1.09980E+02
  -1.12056E+02 -1.14146E+02 -1.16135E+02 -1.17898E+02 -1.18370E+02 -1.17652E+02 -1.17123E+02 -1.17892E+02 -1.19735E+02 -1.21598E+02
  -1.22069E+02 -1.19505E+02 -1.12707E+02 -1.01862E+02 -8.87272E+01 -7.57055E+01 -6.45978E+01 -5.62247E+01 -5.10465E+01 -4.94941E+01
  -5.16526E+01 -5.62081E+01 -6.15550E+01 -6.72279E+01 -7.42457E+01 -8.34489E+01 -9.38046E+01 -1.04323E+02 -1.13361E+02 -1.18780E+02
  -1.18878E+02 -1.13332E+02 -1.03354E+02 -9.09379E+01 -7.80664E+01 -6.64104E+01 -5.74008E+01 -5.17668E+01 -4.93936E+01 -4.97156E+01
  -5.15140E+01 -5.38160E+01 -5.66545E+01 -5.95109E+01 -6.18369E+01 -6.34897E+01 -6.46782E+01 -6.53136E+01 -6.50813E+01 -6.39541E+01
  -6.19764E+01 -5.90911E+01 -5.56334E+01 -5.23444E+01 -4.99789E+01 -4.92665E+01 -5.06426E+01 -5.37154E+01 -5.72371E+01 -5.95644E+01
  -5.97857E+01 -5.80803E+01 -5.44474E+01 -4.94687E+01 -4.42110E+01 -3.96110E+01 -3.64753E+01 -3.51901E+01 -3.55928E+01 -3.72167E+01
  -3.95555E+01 -4.22741E+01 -4.46216E+01 -4.55473E+01 -4.47026E+01 -4.22230E+01 -3.83768E+01 -3.36424E+01 -2.85810E+01 -2.37660E+01
  -1.95354E+01 -1.58714E+01 -1.28167E+01 -1.05030E+01 -8.60348E+00 -7.40978E+00 -6.88795E+00 -7.18809E+00 -8.33210E+00 -1.16500E+01
  -1.79197E+01 -2.64586E+01 -3.62789E+01 -4.70538E+01 -5.89262E+01 -7.21428E+01 -8.68516E+01 -1.02572E+02 -1.17566E+02 -1.29064E+02
  -1.34749E+02 -1.34321E+02 -1.29184E+02 -1.20946E+02 -1.10928E+02 -1.00255E+02 -9.00354E+01 -8.16415E+01 -7.48714E+01 -6.83014E+01
  -6.03383E+01 -5.13374E+01 -4.21747E+01 -3.46897E+01 -2.92854E+01 -2.52634E+01 -2.21742E+01 -2.04566E+01 -2.10794E+01 -2.54154E+01
  -3.48461E+01 -4.96146E+01 -6.78408E+01 -8.59398E+01 -1.00764E+02 -1.11175E+02 -1.17576E+02 -1.20586E+02 -1.20766E+02 -1.19374E+02
  -1.18261E+02 -1.18605E+02 -1.19964E+02 -1.20578E+02 -1.19559E+02 -1.18002E+02 -1.15999E+02 -1.13712E+02 -1.11372E+02 -1.09055E+02
  -1.06660E+02 -1.04019E+02 -1.01156E+02 -9.83671E+01 -9.59120E+01 -9.37972E+01 -9.20082E+01 -9.05041E+01 -8.92186E+01 -8.81928E+01
  -8.75780E+01 -8.74342E+01 -8.74804E+01 -8.74851E+01 -8.73654E+01 -8.68841E+01 -8.56590E+01 -8.31531E+01 -7.91480E+01 -7.42224E+01
  -6.93395E+01 -6.54335E+01 -6.30484E+01 -6.20733E+01 -6.21625E+01 -6.32232E+01 -6.54970E+01 -6.92303E+01 -7.41596E+01 -7.95592E+01
  -8.47016E+01 -8.92514E+01 -9.32216E+01 -9.63161E+01 -9.78951E+01 -9.80216E+01 -9.74025E+01 -9.65063E+01 -9.53528E+01 -9.36785E+01
  -9.14746E+01 -8.89587E+01 -8.60596E+01 -8.27983E+01 -7.94886E+01 -7.64617E+01 -7.37056E+01 -7.10165E+01 -6.83644E+01 -6.57603E+01
  -6.31164E+01 -6.05498E+01 -5.84075E+01 -5.72343E+01 -5.78813E+01 -6.00305E+01 -6.31697E+01 -6.67890E+01 -6.99904E+01 -7.16067E+01
  -7.04077E+01 -6.56900E+01 -5.76550E+01 -4.73420E+01 -3.63859E+01 -2.65946E+01 -1.95248E+01 -1.59905E+01 -1.58247E+01 -1.82456E+01
  -2.23296E+01 -2.72456E+01 -3.26237E+01 -3.85434E+01 -4.52759E+01 -5.31453E+01 -6.24686E+01 -7.27762E+01 -8.39127E+01 -9.52772E+01
  -1.06102E+02 -1.16027E+02 -1.24478E+02 -1.31157E+02 -1.35763E+02 -1.38166E+02 -1.38422E+02 -1.36597E+02 -1.32837E+02 -1.27130E+02
  -1.19730E+02 -1.11203E+02 -1.02405E+02 -9.41921E+01 -8.69936E+01 -8.17717E+01 -8.00047E+01 -8.09710E+01 -8.18278E+01 -8.16344E+01
  -8.07170E+01 -7.88970E+01 -7.52698E+01 -6.88048E+01 -5.82407E+01 -4.24407E+01 -2.09988E+01  3.57865E+00  2.65678E+01  4.39131E+01
   5.44521E+01  5.94862E+01  6.01780E+01  5.71616E+01  5.17012E+01  4.63244E+01  4.34524E+01  4.26221E+01  4.14360E+01  3.93774E+01
   3.77200E+01  3.65613E+01  3.57777E+01  3.51959E+01  3.46675E+01  3.40592E+01  3.32701E+01  3.22263E+01  3.08978E+01  2.92804E+01
   2.74061E+01  2.52738E+01  2.29036E+01  2.02910E+01  1.74861E+01  1.45177E+01  1.13918E+01  8.18574E+00  4.99523E+00  1.99592E+00
  -6.18936E-01 -2.65450E+00 -3.95450E+00 -4.42614E+00 -4.08123E+00 -3.03269E+00 -1.41858E+00  6.17008E-01  2.92767E+00  5.38846E+00
   7.88999E+00  1.03831E+01  1.28787E+01  1.53780E+01  1.78675E+01  2.03278E+01  2.27104E+01  2.49450E+01  2.69730E+01  2.87536E+01
   3.02120E+01  3.12762E+01  3.18783E+01  3.19662E+01  3.15035E+01  3.04416E+01  2.87238E+01  2.63159E+01  2.32234E+01  1.94552E+01
   1.49935E+01  9.83216E+00  3.96796E+00 -2.53565E+00 -9.50677E+00 -1.66751E+01 -2.36661E+01 -3.00466E+01 -3.54272E+01 -3.94934E+01
  -4.20237E+01 -4.29658E+01 -4.25036E+01 -4.09660E+01 -3.87537E+01 -3.62135E+01 -3.35450E+01 -3.08236E+01 -2.80646E+01 -2.52816E+01
  -2.25228E+01 -1.99129E+01 -1.76485E+01 -1.59391E+01 -1.49355E+01 -1.47135E+01 -1.52795E+01 -1.65911E+01 -1.85428E+01 -2.09651E+01
  -2.36310E+01 -2.62718E+01 -2.85857E+01 -3.03060E+01 -3.12294E+01 -3.12433E+01 -3.03639E+01 -2.86946E+01 -2.63911E+01 -2.36362E+01
  -2.06062E+01 -1.74385E+01 -1.42096E+01 -1.09488E+01 -7.65086E+00 -4.31773E+00 -9.08479E-01  2.63287E+00  6.36236E+00  1.03345E+01
   1.46172E+01  1.93056E+01  2.44597E+01  3.01087E+01  3.62574E+01  4.28555E+01  4.97935E+01  5.68770E+01  6.38539E+01  7.04479E+01
   7.63351E+01  8.10945E+01  8.42730E+01  8.54635E+01  8.44032E+01  8.10545E+01  7.56764E+01  6.87545E+01  6.08881E+01  5.26472E+01
   4.44054E+01  3.63173E+01  2.83590E+01  2.04282E+01  1.24332E+01  4.40366E+00 -3.48811E+00 -1.09683E+01 -1.77536E+01 -2.36483E+01
  -2.85715E+01 -3.25489E+01 -3.56989E+01 -3.82031E+01 -4.02247E+01 -4.18834E+01 -4.32647E+01 -4.44218E+01 -4.53404E+01 -4.60248E+01
  -4.65325E+01 -4.69032E+01 -4.71623E+01 -4.73273E+01 -4.74393E+01 -4.75243E+01 -4.75809E+01 -4.75902E+01 -4.75583E+01 -4.75084E+01
  -4.74570E+01 -4.74027E+01 -4.73385E+01 -4.72626E+01 -4.71759E+01 -4.70734E+01 -4.69453E+01 -4.68062E+01 -4.66918E+01 -4.66143E+01
  -4.65348E+01 -4.64272E+01 -4.62948E+01 -4.61424E+01 -4.59658E+01 -4.57639E+01 -4.55592E+01 -4.53849E+01 -4.52557E+01 -4.51714E+01
  -4.51331E+01 -4.51146E+01 -4.50860E+01 -4.50302E+01 -4.49421E+01 -4.48350E+01 -4.47188E+01 -4.46058E+01 -4.44865E+01 -4.43591E+01
  -4.42231E+01 -4.40883E+01 -4.39532E+01 -4.38196E+01 -4.37028E+01 -4.36072E+01 -4.35384E+01 -4.34952E+01 -4.34846E+01 -4.34987E+01
  -4.35175E+01 -4.35233E+01 -4.35016E+01 -4.34513E+01 -4.33967E+01 -4.33622E+01 -4.33754E+01 -4.34680E+01 -4.36440E+01 -4.38742E+01
  -4.41334E+01 -4.43929E+01 -4.46426E+01 -4.48800E+01 -4.51034E+01 -4.53131E+01 -4.55030E+01 -4.56519E+01 -4.57474E+01 -4.57657E+01
 NY background values follow
    -6.649E+01   -6.638E+01   -6.628E+01   -6.617E+01   -6.606E+01   -6.595E+01   -6.585E+01   -6.574E+01   -6.563E+01   -6.552E+01
    -6.542E+01   -6.531E+01   -6.520E+01   -6.509E+01   -6.499E+01   -6.488E+01   -6.477E+01   -6.466E+01   -6.456E+01   -6.445E+01
    -6.434E+01   -6.423E+01   -6.413E+01   -6.402E+01   -6.391E+01   -6.380E+01   -6.370E+01   -6.359E+01   -6.348E+01   -6.337E+01
    -6.327E+01   -6.316E+01   -6.305E+01   -6.295E+01   -6.284E+01   -6.273E+01   -6.262E+01   -6.252E+01   -6.241E+01   -6.230E+01
    -6.219E+01   -6.209E+01   -6.198E+01   -6.187E+01   -6.177E+01   -6.166E+01   -6.155E+01   -6.144E+01   -6.134E+01   -6.123E+01
    -6.112E+01   -6.102E+01   -6.091E+01   -6.080E+01   -6.070E+01   -6.059E+01   -6.048E+01   -6.038E+01   -6.027E+01   -6.016E+01
    -6.006E+01   -5.995E+01   -5.984E+01   -5.974E+01   -5.963E+01   -5.952E+01   -5.942E+01   -5.931E+01   -5.920E+01   -5.910E+01
    -5.899E+01   -5.889E+01   -5.878E+01   -5.868E+01   -5.857E+01   -5.846E+01   -5.836E+01   -5.825E+01   -5.815E+01   -5.804E+01
    -5.794E+01   -5.783E+01   -5.773E+01   -5.762E+01   -5.752E+01   -5.741E+01   -5.731E+01   -5.720E+01   -5.710E+01   -5.699E+01
    -5.689E+01   -5.678E+01   -5.668E+01   -5.658E+01   -5.647E+01   -5.637E+01   -5.626E+01   -5.616E+01   -5.606E+01   -5.595E+01
    -5.585E+01   -5.575E+01   -5.564E+01   -5.554E+01   -5.544E+01   -5.533E+01   -5.523E+01   -5.513E+01   -5.503E+01   -5.492E+01
    -5.482E+01   -5.472E+01   -5.462E+01   -5.452E+01   -5.441E+01   -5.431E+01   -5.421E+01   -5.411E+01   -5.401E+01   -5.391E+01
    -5.381E+01   -5.370E+01   -5.360E+01   -5.350E+01   -5.340E+01   -5.330E+01   -5.320E+01   -5.310E+01   -5.300E+01   -5.290E+01
    -5.280E+01   -5.270E+01   -5.260E+01   -5.250E+01   -5.240E+01   -5.231E+01   -5.221E+01   -5.211E+01   -5.201E+01   -5.191E+01
    -5.181E+01   -5.171E+01   -5.162E+01   -5.152E+01   -5.142E+01   -5.132E+01   -5.123E+01   -5.113E+01   -5.103E+01   -5.094E+01
    -5.084E+01   -5.074E+01   -5.065E+01   -5.055E+01   -5.045E+01   -5.036E+01   -5.026E+01   -5.017E+01   -5.007E+01   -4.998E+01
    -4.988E+01   -4.979E+01   -4.969E+01   -4.960E+01   -4.950E+01   -4.941E+01   -4.932E+01   -4.922E+01   -4.913E+01   -4.904E+01
    -4.894E+01   -4.885E+01   -4.876E+01   -4.866E+01   -4.857E+01   -4.848E+01   -4.839E+01   -4.830E+01   -4.820E+01   -4.811E+01
    -4.802E+01   -4.793E+01   -4.784E+01   -4.775E+01   -4.766E+01   -4.757E+01   -4.748E+01   -4.739E+01   -4.730E+01   -4.721E+01
    -4.712E+01   -4.703E+01   -4.694E+01   -4.685E+01   -4.677E+01   -4.668E+01   -4.659E+01   -4.650E+01   -4.641E+01   -4.633E+01
    -4.624E+01   -4.615E+01   -4.607E+01   -4.598E+01   -4.589E+01   -4.581E+01   -4.572E+01   -4.563E+01   -4.555E+01   -4.546E+01
    -4.538E+01   -4.529E+01   -4.521E+01   -4.512E+01   -4.504E+01   -4.496E+01   -4.487E+01   -4.479E+01   -4.470E+01   -4.462E+01
    -4.454E+01   -4.445E+01   -4.437E+01   -4.429E+01   -4.421E+01   -4.412E+01   -4.404E+01   -4.396E+01   -4.388E+01   -4.380E+01
    -4.372E+01   -4.363E+01   -4.355E+01   -4.347E+01   -4.339E+01   -4.331E+01   -4.323E+01   -4.315E+01   -4.307E+01   -4.299E+01
    -4.292E+01   -4.284E+01   -4.276E+01   -4.268E+01   -4.260E+01   -4.252E+01   -4.245E+01   -4.237E+01   -4.229E+01   -4.221E+01
    -4.214E+01   -4.206E+01   -4.198E+01   -4.191E+01   -4.183E+01   -4.175E+01   -4.168E+01   -4.160E+01   -4.153E+01   -4.145E+01
    -4.138E+01   -4.130E+01   -4.123E+01   -4.115E+01   -4.108E+01   -4.100E+01   -4.093E+01   -4.086E+01   -4.078E+01   -4.071E+01
    -4.064E+01   -4.056E+01   -4.049E+01   -4.042E+01   -4.035E+01   -4.027E+01   -4.020E+01   -4.013E+01   -4.006E+01   -3.999E+01
    -3.992E+01   -3.985E+01   -3.978E+01   -3.970E+01   -3.963E+01   -3.956E+01   -3.949E+01   -3.942E+01   -3.936E+01   -3.929E+01
    -3.922E+01   -3.915E+01   -3.908E+01   -3.901E+01   -3.894E+01   -3.887E+01   -3.881E+01   -3.874E+01   -3.867E+01   -3.860E+01
    -3.854E+01   -3.847E+01   -3.840E+01   -3.833E+01   -3.827E+01   -3.820E+01   -3.814E+01   -3.807E+01   -3.800E+01   -3.794E+01
    -3.787E+01   -3.781E+01   -3.774E+01   -3.768E+01   -3.762E+01   -3.755E+01   -3.749E+01   -3.742E+01   -3.736E+01   -3.730E+01
    -3.723E+01   -3.717E+01   -3.711E+01   -3.704E+01   -3.698E+01   -3.692E+01   -3.686E+01   -3.680E+01   -3.673E+01   -3.667E+01
    -3.661E+01   -3.655E+01   -3.649E+01   -3.643E+01   -3.637E+01   -3.631E+01   -3.625E+01   -3.619E+01   -3.613E+01   -3.607E+01
    -3.601E+01   -3.595E+01   -3.589E+01   -3.583E+01   -3.577E+01   -3.571E+01   -3.565E+01   -3.560E+01   -3.554E+01   -3.548E+01
    -3.542E+01   -3.536E+01   -3.531E+01   -3.525E+01   -3.519E+01   -3.513E+01   -3.508E+01   -3.502E+01   -3.496E+01   -3.491E+01
    -3.485E+01   -3.479E+01   -3.474E+01   -3.468E+01   -3.462E+01   -3.457E+01   -3.451E+01   -3.446E+01   -3.440E+01   -3.435E+01
    -3.429E+01   -3.423E+01   -3.418E+01   -3.412E+01   -3.407E+01   -3.401E+01   -3.396E+01   -3.390E+01   -3.385E+01   -3.379E+01
    -3.374E+01   -3.368E+01   -3.363E+01   -3.358E+01   -3.352E+01   -3.347E+01   -3.341E+01   -3.336E+01   -3.330E+01   -3.325E+01
    -3.320E+01   -3.314E+01   -3.309E+01   -3.303E+01   -3.298E+01   -3.293E+01   -3.287E+01   -3.282E+01   -3.277E+01   -3.271E+01
    -3.266E+01   -3.261E+01   -3.255E+01   -3.250E+01   -3.244E+01   -3.239E+01   -3.234E+01   -3.228E+01   -3.223E+01   -3.218E+01
    -3.213E+01   -3.207E+01   -3.202E+01   -3.197E+01   -3.191E+01   -3.186E+01   -3.181E+01   -3.175E+01   -3.170E+01   -3.165E+01
    -3.159E+01   -3.154E+01   -3.149E+01   -3.143E+01   -3.138E+01   -3.133E+01   -3.128E+01   -3.122E+01   -3.117E+01   -3.112E+01
    -3.106E+01   -3.101E+01   -3.096E+01   -3.090E+01   -3.085E+01   -3.080E+01   -3.075E+01   -3.069E+01   -3.064E+01   -3.059E+01
    -3.053E+01   -3.048E+01   -3.043E+01   -3.038E+01   -3.032E+01   -3.027E+01   -3.022E+01   -3.016E+01   -3.011E+01   -3.006E+01
    -3.000E+01   -2.995E+01   -2.990E+01   -2.984E+01   -2.979E+01   -2.974E+01   -2.969E+01   -2.963E+01   -2.958E+01   -2.953E+01
    -2.947E+01   -2.942E+01   -2.937E+01   -2.931E+01   -2.926E+01   -2.921E+01   -2.916E+01   -2.910E+01   -2.905E+01   -2.900E+01
    -2.894E+01   -2.889E+01   -2.884E+01   -2.878E+01   -2.873E+01   -2.868E+01   -2.862E+01   -2.857E+01   -2.852E+01   -2.846E+01
 Mac      Conc. = 3.11E-04
  -8.94484E+01 -9.02541E+01 -9.12011E+01 -9.22963E+01 -9.35118E+01 -9.47904E+01 -9.59991E+01 -9.70000E+01 -9.77683E+01 -9.83293E+01
  -9.86912E+01 -9.88301E+01 -9.86710E+01 -9.80651E+01 -9.68403E+01 -9.49355E+01 -9.24524E+01 -8.96148E+01 -8.66720E+01 -8.38337E+01
  -8.12550E+01 -7.89959E+01 -7.70390E+01 -7.52627E+01 -7.35433E+01 -7.18224E+01 -7.01296E+01 -6.85445E+01 -6.71119E+01 -6.58800E+01
  -6.48708E+01 -6.40010E+01 -6.31228E+01 -6.21129E+01 -6.09302E+01 -5.96331E+01 -5.83370E+01 -5.71543E+01 -5.61306E+01 -5.52478E+01
  -5.44748E+01 -5.38333E+01 -5.33744E+01 -5.31317E+01 -5.31266E+01 -5.33561E+01 -5.37948E+01 -5.43924E+01 -5.50409E+01 -5.55841E+01
  -5.59045E+01 -5.59701E+01 -5.57704E+01 -5.53255E+01 -5.46611E+01 -5.38321E+01 -5.29341E+01 -5.20816E+01 -5.13732E+01 -5.08550E+01
  -5.05500E+01 -5.04433E+01 -5.04569E+01 -5.04691E+01 -5.03593E+01 -5.00353E+01 -4.94396E+01 -4.85411E+01 -4.73678E+01 -4.60669E+01
  -4.48377E+01 -4.38281E+01 -4.31045E+01 -4.26876E+01 -4.25350E+01 -4.25910E+01 -4.27293E+01 -4.28247E+01 -4.27719E+01 -4.25349E+01
  -4.21115E+01 -4.15189E+01 -4.07878E+01 -3.99928E+01 -3.92134E+01 -3.85030E+01 -3.79201E+01 -3.75098E+01 -3.73103E+01 -3.73549E+01
  -3.76952E+01 -3.83870E+01 -3.94636E+01 -4.09287E+01 -4.27510E+01 -4.49111E+01 -4.73540E+01 -5.00410E+01 -5.29686E+01 -5.61837E+01
  -5.97271E+01 -6.35800E+01 -6.76407E+01 -7.16836E+01 -7.53560E+01 -7.82684E+01 -8.01150E+01 -8.07799E+01 -8.03583E+01 -7.90585E+01
