 
 $NMID
 ID=''
 FMTDAT='(2E13.5)'
 TRAMP=   1.00000E+0
 VOLUME=   1.00000E+0
 $END
  -2.08576E+4  -9.58810E+3
  -1.94167E+4   1.43221E+4
   1.96303E+4   1.74825E+4
   1.24842E+4  -1.27927E+4
  -2.22097E+4  -4.29744E+3
  -2.01319E+3   1.50614E+4
   1.72782E+4  -3.31422E+3
  -5.92838E+3  -7.82295E+3
  -6.34364E+3   9.84053E+3
   7.68420E+3   2.94971E+3
  -4.46987E+3  -7.41041E+3
  -6.54110E+3   1.86328E+3
   4.95798E+3   1.82327E+3
  -1.84857E+3  -3.45364E+3
  -4.93664E+3  -6.66286E+2
   4.50297E+3  -7.94410E+2
   2.12739E+3   2.04899E+2
  -3.10481E+3   3.40137E+3
   7.03263E+2  -3.90329E+2
   5.56082E+2  -1.61153E+3
  -4.01907E+2   1.45564E+3
   1.24863E+3  -3.45425E+2
  -9.83678E+0  -1.30562E+2
  -8.91472E+2   2.11894E+3
   7.26094E+2  -1.45811E+3
   1.54660E+3  -1.22122E+3
   5.13204E+2   2.76995E+3
  -1.57812E+3   2.39900E+2
  -1.66757E+3  -2.02854E+3
   8.95798E+2   7.39120E+2
   3.53096E+2   8.77461E+2
  -1.76951E+3  -2.91698E+2
  -8.22088E+2  -5.08551E+2
  -4.22494E+2  -1.76827E+3
   1.99085E+2  -2.22349E+3
   2.84408E+3   1.28823E+2
   1.24426E+3   1.88309E+3
  -2.05597E+3   9.31610E+2
  -6.41649E+2  -5.96523E+2
   4.25464E+2  -1.68144E+2
  -1.58971E+3   2.30455E+2
  -3.11878E+2  -1.06041E+3
   2.01852E+3  -1.33222E+3
   1.63649E+3   2.67297E+2
   3.85693E+2   1.19777E+3
   4.22605E+2   1.10980E+3
  -9.73831E+2   1.61667E+3
  -1.89772E+3   3.05112E+2
  -8.76526E+2  -1.88902E+3
   5.60271E+2  -1.52911E+3
   6.10452E+2   3.09363E+1
   5.94217E+2  -1.87506E+2
   8.18810E+2  -1.98280E+2
   4.26551E+2   6.56805E+2
   2.42555E+2   6.74024E+2
  -8.30162E+2   1.17424E+2
  -1.04143E+3  -6.36553E+2
   1.01463E+2  -1.03303E+3
   1.58693E+3  -6.46937E+2
   1.57472E+3   1.54858E+2
   3.76708E+2   8.66162E+2
   1.29314E+2   8.86469E+2
  -5.01556E+2   1.38297E+3
  -1.72124E+3   6.40001E+2
  -1.76596E+3  -7.77041E+2
  -5.01572E+2  -1.97983E+3
   9.12187E+2  -1.77200E+3
   1.08969E+3  -9.46308E+2
   1.25086E+3   6.35357E+2
   1.80571E+2   7.32109E+2
  -4.99634E+2  -3.71146E+2
   5.90531E+2  -8.26338E+2
   1.14612E+3   3.32276E+2
  -6.19620E+1   1.27693E+3
  -5.17950E+2   1.86997E+1
  -6.17371E+1  -5.28295E+2
  -4.67350E+0  -1.83933E+1
  -5.64069E+2   5.51942E+2
  -4.53679E+2   1.75935E+2
  -3.57992E+2  -4.94561E+2
  -2.51516E+2  -7.73263E+2
   1.39549E+1  -7.16138E+2
   3.84757E+2  -1.13640E+2
   1.01363E+2  -2.51290E+2
   3.15959E+2  -5.17943E+2
   9.29738E+2  -5.84165E+2
   8.59833E+2   1.05516E+2
   6.57122E+1   6.61302E+2
  -2.64884E+2   7.60542E+1
   3.27552E+2  -8.67154E+1
   5.50880E+2   5.04543E+2
   2.56567E+1   8.81975E+2
  -9.87308E+2   8.52830E+1
  -1.30891E+3  -4.17829E+2
  -1.89666E+2  -1.22067E+3
   6.99627E+2  -9.75778E+2
   7.98383E+2  -1.49061E+2
  -1.34858E+1   1.05104E+2
  -8.59463E+1  -3.08352E+2
   8.29780E+2  -1.25780E+2
   6.05447E+2   9.87532E+2
  -6.31097E+2   8.18952E+2
  -1.18327E+3  -1.53585E+2
  -2.01315E+2  -8.10239E+2
   6.45457E+2  -6.43818E+2
   6.28693E+2   3.87464E+2
  -3.13853E+2   8.18730E+2
  -8.41772E+2  -4.16577E+2
  -3.04951E+2  -1.34423E+3
   9.25912E+2  -7.19970E+2
   1.42147E+3   3.66387E+2
   4.26012E+2   9.09773E+2
  -1.10700E+2   4.49635E+2
  -7.24826E+1   6.36403E+1
  -5.34068E+0   1.52525E+2
  -4.79734E+2   9.44449E+1
  -1.07946E+3  -2.92358E+2
  -6.31064E+2  -1.20475E+3
   5.85490E+2  -1.58806E+3
   1.38161E+3  -6.43942E+2
   7.03669E+2   3.67817E+2
   1.38161E+2   5.66464E+2
   1.85061E+2   3.45942E+2
  -3.03075E+2   4.01174E+2
  -7.86185E+2   2.13346E+2
  -4.86431E+2  -3.06594E+2
   2.26833E+2  -4.50512E+2
   4.83496E+2  -3.34314E+2
   1.25416E+2   2.35752E+2
  -1.39610E+0   4.72395E+2
  -5.32234E+2   3.83738E+2
  -7.55786E+2  -4.52533E+2
  -5.84836E+1  -6.50231E+2
   7.59278E+1  -2.30681E+1
  -1.03500E+2   8.12399E+1
  -1.65450E+2  -5.86986E+2
   2.98065E+2  -3.58520E+2
   5.50903E+2   2.92171E+2
  -1.11608E+2   5.79177E+2
  -6.50823E+2  -8.93075E+0
  -5.21749E+2  -7.29685E+2
   3.30595E+2  -9.30676E+2
   1.01179E+3  -1.29912E+2
   3.21271E+2   7.92265E+2
  -6.57847E+2   6.48032E+2
  -9.78076E+2  -9.71652E+1
  -5.39848E+2  -2.11885E+2
  -6.86733E+1  -3.21730E+2
  -1.50318E+2  -3.64326E+2
  -1.89311E+2  -3.50179E+2
   1.81127E+2  -4.14481E+2
   6.31612E+2  -3.53539E+2
   7.27542E+2   3.47036E+2
   6.02605E+1   8.84821E+2
  -5.14716E+2   2.78313E+2
   1.81211E+1  -4.12441E+2
   1.73966E+2   3.65762E+1
  -3.54230E+2   4.80704E+2
  -5.92077E+2   1.27844E+2
  -7.75767E+1  -2.64838E+1
  -3.20205E+2   7.95638E+1
  -4.24534E+2   3.95968E+2
  -4.97711E+2   3.98567E+1
  -2.14158E+2  -3.91280E+2
   1.51680E+1  -5.22930E+2
   6.20737E+2  -6.69328E+1
   2.40735E+2   3.50761E+2
  -5.11391E+2   3.73671E+2
  -4.10287E+2   1.32980E+2
   3.17673E+2  -2.62295E+1
   3.28647E+2   1.21137E+2
  -1.75273E+2   1.83922E+2
  -2.10006E+2   5.97494E+2
  -2.14978E+2  -8.61851E+0
   3.46001E+1  -2.77939E+1
   1.67054E+2   3.50392E+2
  -3.62293E+2   6.46364E+2
  -4.26549E+2  -8.43501E+1
   1.41193E+2  -4.94124E+2
   7.34446E+2   5.89101E+0
   9.46224E+1   6.27292E+2
  -2.53609E+2   4.51929E+2
  -4.00160E+2  -2.55135E+1
  -3.55630E+2  -3.50429E+2
   1.62023E+1  -2.32430E+2
  -3.59847E+1  -1.96276E+2
  -6.57032E+1  -3.33365E+2
   3.04109E+2  -4.79128E+2
   6.55888E+2   1.39908E+2
   5.73933E+2   6.34552E+2
  -3.44643E+2   8.43154E+2
  -8.67256E+2   3.82165E+2
  -6.60712E+2  -1.94035E+2
  -6.05682E+1  -5.77801E+2
   2.54753E+2  -6.33396E+1
   2.31715E+2  -9.81955E+1
  -1.02504E+2  -5.49489E+1
   1.91475E+1   2.48075E+1
   8.70416E+0   3.38834E+1
  -5.19795E+2   1.71152E+2
  -4.03116E+2  -1.66885E+2
  -9.86947E+1  -6.60426E+2
   2.45456E+2  -4.84511E+2
   3.83141E+2   9.41759E+1
   2.96805E+1   3.11123E+2
  -4.74127E+2   1.88279E+1
  -1.75650E+2  -1.21773E+2
  -7.60848E+1  -1.73398E+2
  -1.54759E+0   1.87244E+1
  -1.54179E+2   1.55802E+2
  -1.63913E+2  -2.58899E+2
   3.16638E+2  -1.23249E+2
   4.23733E+2   3.53530E+2
  -1.68097E+2   7.04013E+2
  -8.88762E+2   2.89474E+2
  -4.89581E+2  -1.21388E+2
  -1.43880E+2  -4.98429E+2
   2.95683E+2  -4.02071E+2
   3.80429E+2  -1.52504E+2
  -1.04867E+2   1.20172E+2
  -9.04853E+0  -1.10509E+1
   2.66584E+2   5.56755E+1
  -2.35513E+0   4.07939E+2
  -4.35358E+2   4.20352E+2
  -5.49738E+2  -8.72351E+1
  -2.70498E+2  -3.31647E+2
   4.03257E+2  -2.50790E+2
   2.25911E+2   6.01745E+2
  -3.00902E+2   2.95381E+2
  -6.30455E+2  -1.33887E+2
  -3.81377E+2  -3.05320E+2
   5.21618E+1  -3.66936E+1
  -5.81947E+1   1.56516E+2
  -7.87396E+1  -2.61294E+2
  -2.28909E+2  -5.09359E+1
  -9.08492E+0   4.80542E+1
   5.01061E+1   2.41648E+2
  -2.53572E+2   3.13106E+2
  -2.17447E+2  -8.26454E+1
   1.01157E+2  -2.75367E+2
   2.15963E+2   3.20097E+1
   2.56725E+1   3.79764E+2
  -3.13565E+2   2.03367E+2
  -3.14569E+2   2.52701E+1
   9.60846E+1  -2.82904E+2
   2.17789E+2  -5.45137E+0
   8.09597E+1   2.93619E+2
  -5.03074E+2  -2.53486E+1
  -1.24322E+1  -5.04492E+2
   4.78437E+2  -7.71124E+1
   5.85814E+1   2.94086E+2
  -1.10211E+2   3.04036E+2
  -5.27311E+2  -1.64850E+2
  -2.86639E+2  -2.85540E+2
   3.02146E+2  -3.04761E+2
   5.50993E+2   2.08538E+2
   3.20466E+2   4.75640E+2
  -1.12227E+2   2.26347E+2
   4.18026E+1   1.76941E+2
  -1.23060E+2   2.86896E+2
  -4.62484E+2   2.72035E+2
  -4.60648E+2  -1.25218E+1
  -2.18901E+2  -5.77219E+2
   4.85913E+2  -4.33156E+2
   5.50470E+2   8.80908E+1
   8.27260E+1   4.39625E+2
  -3.57526E+2   1.66709E+2
  -3.55530E+2  -3.64266E+2
   1.87012E+2  -2.83710E+2
   1.53843E+2   6.84347E+0
  -1.96074E+2  -2.83493E+0
   4.48963E+1  -5.25694E+1
   3.40410E+2  -7.65430E+1
   2.66808E+2   1.41351E+2
  -1.62416E+1   3.99813E+2
  -3.38254E+2   2.20510E+2
  -2.58925E+2  -1.96265E+2
   2.96007E+2  -3.00934E+2
   3.74190E+2   5.15230E+1
  -2.60118E+0   1.39830E+2
  -2.63253E+1  -1.51435E+2
  -1.11464E+2  -1.69186E+2
  -2.74900E+0   3.61187E+1
  -2.37024E+2   3.39302E+2
  -3.40669E+2   1.75185E+1
  -4.70184E+2  -3.44021E+2
   7.52710E+1  -3.64275E+2
   4.98520E+2  -1.17896E+2
   3.74181E+2   1.77082E+2
  -3.12063E+0   5.09710E+2
  -1.89830E+2   5.69105E+1
   1.05777E+2  -8.11030E+1
  -2.09669E+1  -7.65772E+1
  -1.16996E+2   3.27219E+1
  -2.18648E+2  -3.28946E+2
   3.43253E+1  -1.26527E+2
   1.38258E+2  -6.45021E+1
   5.52825E+1   3.03792E+2
  -3.01052E+2   2.78968E+2
  -3.78010E+2   6.79607E+1
  -1.08528E+2  -3.78118E+2
   3.10536E+2   2.28857E+0
   2.16736E+2   3.58774E+2
  -1.82837E+2   4.59737E+2
  -1.63818E+2  -2.15440E+2
  -6.59001E+1  -3.56993E+2
   2.90642E+2  -1.18711E+2
  -1.28531E+2   1.73274E+2
  -8.65625E+1   1.35926E+2
  -4.25153E+1  -3.83331E+1
   2.60705E+2  -9.12256E+1
   1.53508E+2   3.67243E+2
  -1.04564E+2   4.62808E+2
  -1.32722E+2   3.28780E+1
  -2.25756E+2  -1.43874E+2
   7.33184E+1  -1.13320E+2
   1.91475E+2   1.57693E+2
  -6.78303E+1   2.63802E+2
  -1.32296E+2  -1.25279E+2
  -9.76290E+0  -1.67739E+2
   8.86711E+1   1.39170E+2
  -6.41646E+1   1.00369E+1
  -1.32961E+2   1.77946E+2
   6.89462E+0  -9.11986E+1
   5.74650E+1  -2.49932E+2
   2.64461E+2   2.57817E+2
  -1.99030E+2   6.43155E+2
  -3.43295E+2   1.33541E+2
  -1.35354E+2  -2.91630E+2
  -1.11868E+2  -4.30069E+2
   5.03794E+1  -6.64318E+1
   1.75059E+2   1.02057E+1
  -2.12463E+2  -2.21523E+2
   1.48260E+2   1.08828E+2
   9.03580E+1   4.54889E+2
  -1.16970E+2   5.53342E+2
  -4.46397E+2  -1.17166E+2
  -5.60928E+2  -4.78486E+2
   1.60443E+2  -3.69830E+2
   2.45910E+2   1.78940E+2
   1.23642E+2   3.09955E+2
  -1.96504E+2   1.43357E+2
   3.17635E+1  -6.11423E+1
  -5.30281E+1  -5.45086E+1
   1.31680E+2   1.99160E+1
   1.49976E+0   1.02457E+2
   1.40896E+2  -2.14815E+2
   2.43998E+2   6.80440E+1
   2.75171E+2   2.92720E+2
   2.35119E+2   1.15790E+2
  -3.36537E+2   1.58389E+2
  -2.29081E+2   2.46116E+1
   1.60138E+2  -1.85555E+2
   2.70453E+1  -2.41433E+2
   1.16422E+2   7.61825E+1
   1.09875E+2   2.83746E+1
   2.50019E+2  -1.02780E+2
   3.36670E+2   3.17927E+1
   1.46060E+2   2.19330E+2
  -7.87174E+1   7.12210E+1
  -3.55190E+2   7.87641E+1
  -8.92969E+1  -1.85531E+2
   3.87079E+2  -3.10465E+2
   4.15817E+2   3.42392E+2
   6.37388E+1   2.62941E+2
  -1.66776E+2   1.74254E+2
  -1.76713E+2   9.89053E+1
