 
 $NMID
 ID=''
 FMTDAT='(2E13.5)'
 TRAMP=   1.00000E+0
 VOLUME=   1.00000E+0
 $END
   5.86245E+5   4.88695E+5
   9.33748E+5   1.75892E+6
   1.05750E+6   1.64343E+6
   9.26188E+5   1.65005E+6
   9.42748E+5   1.72091E+6
   9.17965E+5   1.64498E+6
   8.24116E+5   1.66899E+6
   8.58402E+5   1.73550E+6
   8.61707E+5   1.66500E+6
   7.63639E+5   1.66139E+6
   7.48056E+5   1.71382E+6
   7.46946E+5   1.68124E+6
   6.91682E+5   1.66987E+6
   6.70440E+5   1.68904E+6
   6.46077E+5   1.66816E+6
   6.04319E+5   1.66538E+6
   5.91679E+5   1.68035E+6
   5.59570E+5   1.66313E+6
   5.10944E+5   1.66343E+6
   4.97382E+5   1.66953E+6
   4.67575E+5   1.65349E+6
   4.25401E+5   1.65167E+6
   4.06288E+5   1.65324E+6
   3.78671E+5   1.64119E+6
   3.40640E+5   1.63650E+6
   3.28251E+5   1.62889E+6
   3.02250E+5   1.61778E+6
   2.70148E+5   1.61711E+6
   2.50504E+5   1.60730E+6
   2.28501E+5   1.59197E+6
   1.97198E+5   1.59050E+6
   1.76289E+5   1.58238E+6
   1.49619E+5   1.56866E+6
   1.22974E+5   1.56245E+6
   1.01681E+5   1.55180E+6
   7.97658E+4   1.54025E+6
   5.53602E+4   1.53757E+6
   3.06149E+4   1.52788E+6
   5.52396E+3   1.51176E+6
  -1.48085E+4   1.50422E+6
  -3.45076E+4   1.49296E+6
  -5.77956E+4   1.47800E+6
  -7.59014E+4   1.46629E+6
  -9.21649E+4   1.45683E+6
  -1.13560E+5   1.44390E+6
  -1.34338E+5   1.43348E+6
  -1.54498E+5   1.42191E+6
  -1.77940E+5   1.40853E+6
  -2.00015E+5   1.39327E+6
  -2.19692E+5   1.37987E+6
  -2.39832E+5   1.36825E+6
  -2.60817E+5   1.35594E+6
  -2.80876E+5   1.34226E+6
  -3.01188E+5   1.33000E+6
  -3.20443E+5   1.31702E+6
  -3.39280E+5   1.30248E+6
  -3.58864E+5   1.28738E+6
  -3.75911E+5   1.27244E+6
  -3.90110E+5   1.25787E+6
  -4.05974E+5   1.24510E+6
  -4.23855E+5   1.23126E+6
  -4.40524E+5   1.21677E+6
  -4.56640E+5   1.20288E+6
  -4.74110E+5   1.18769E+6
  -4.90722E+5   1.17044E+6
  -5.04434E+5   1.15372E+6
  -5.17965E+5   1.13768E+6
  -5.32412E+5   1.12139E+6
  -5.47563E+5   1.10721E+6
  -5.62316E+5   1.09192E+6
  -5.76037E+5   1.07491E+6
  -5.88314E+5   1.05787E+6
  -6.00227E+5   1.04360E+6
  -6.12919E+5   1.02854E+6
  -6.25796E+5   1.01082E+6
  -6.36837E+5   9.93706E+5
  -6.47693E+5   9.77997E+5
  -6.59288E+5   9.61496E+5
  -6.70982E+5   9.43769E+5
  -6.81813E+5   9.26120E+5
  -6.92440E+5   9.08580E+5
  -7.01977E+5   8.90796E+5
  -7.11411E+5   8.73542E+5
  -7.21216E+5   8.55949E+5
  -7.30285E+5   8.37832E+5
  -7.38159E+5   8.20070E+5
  -7.45716E+5   8.03372E+5
  -7.52967E+5   7.86492E+5
  -7.60168E+5   7.69342E+5
  -7.65768E+5   7.52142E+5
  -7.70918E+5   7.36137E+5
  -7.76758E+5   7.20006E+5
  -7.83172E+5   7.03103E+5
  -7.87779E+5   6.85342E+5
  -7.91167E+5   6.68014E+5
  -7.94610E+5   6.52393E+5
  -7.98773E+5   6.36832E+5
  -8.02844E+5   6.20087E+5
  -8.06044E+5   6.03459E+5
  -8.08623E+5   5.87865E+5
  -8.11739E+5   5.72521E+5
  -8.15055E+5   5.55971E+5
  -8.16913E+5   5.38936E+5
  -8.17170E+5   5.23164E+5
  -8.17527E+5   5.08058E+5
  -8.18572E+5   4.94284E+5
  -8.19973E+5   4.79607E+5
  -8.20675E+5   4.63995E+5
  -8.19707E+5   4.48003E+5
  -8.17838E+5   4.34353E+5
  -8.17460E+5   4.21331E+5
  -8.18359E+5   4.06832E+5
  -8.18493E+5   3.90989E+5
  -8.17308E+5   3.75722E+5
  -8.16436E+5   3.61639E+5
  -8.15426E+5   3.46728E+5
  -8.14555E+5   3.31264E+5
  -8.11689E+5   3.15875E+5
  -8.08324E+5   3.02303E+5
  -8.05831E+5   2.89825E+5
  -8.04192E+5   2.76934E+5
  -8.01936E+5   2.63586E+5
  -7.99489E+5   2.50285E+5
  -7.96952E+5   2.36710E+5
  -7.93795E+5   2.22777E+5
  -7.89973E+5   2.09167E+5
  -7.85720E+5   1.96141E+5
  -7.82342E+5   1.83137E+5
  -7.79087E+5   1.70080E+5
  -7.75702E+5   1.56940E+5
  -7.72254E+5   1.42597E+5
  -7.67570E+5   1.28082E+5
  -7.62689E+5   1.15078E+5
  -7.58341E+5   1.02783E+5
  -7.53828E+5   8.98213E+4
  -7.48757E+5   7.67173E+4
  -7.43480E+5   6.44778E+4
  -7.38726E+5   5.30708E+4
  -7.34279E+5   4.06361E+4
  -7.28886E+5   2.78797E+4
  -7.22592E+5   1.56479E+4
  -7.16289E+5   4.86710E+3
  -7.10344E+5  -5.57836E+3
  -7.05197E+5  -1.67415E+4
  -7.00148E+5  -2.83220E+4
  -6.93582E+5  -3.93916E+4
  -6.86451E+5  -5.01628E+4
  -6.79912E+5  -6.03467E+4
  -6.73249E+5  -7.02952E+4
  -6.66486E+5  -8.01435E+4
  -6.59504E+5  -8.94903E+4
  -6.52415E+5  -9.82001E+4
  -6.46347E+5  -1.06528E+5
  -6.39933E+5  -1.15052E+5
  -6.32764E+5  -1.24211E+5
  -6.25217E+5  -1.32554E+5
  -6.18579E+5  -1.39878E+5
  -6.11709E+5  -1.47660E+5
  -6.04405E+5  -1.55129E+5
  -5.97269E+5  -1.62432E+5
  -5.90225E+5  -1.69593E+5
  -5.83018E+5  -1.76541E+5
  -5.75234E+5  -1.83592E+5
  -5.67662E+5  -1.90215E+5
  -5.60310E+5  -1.96089E+5
  -5.52955E+5  -2.01353E+5
  -5.46047E+5  -2.07383E+5
  -5.38998E+5  -2.13586E+5
  -5.31643E+5  -2.19376E+5
  -5.24141E+5  -2.24192E+5
  -5.16758E+5  -2.28902E+5
  -5.09619E+5  -2.34049E+5
  -5.02358E+5  -2.39011E+5
  -4.94841E+5  -2.43810E+5
  -4.87449E+5  -2.48263E+5
  -4.80200E+5  -2.52610E+5
  -4.73027E+5  -2.57724E+5
  -4.64841E+5  -2.62638E+5
  -4.56520E+5  -2.66425E+5
  -4.48776E+5  -2.70113E+5
  -4.42103E+5  -2.73851E+5
  -4.34833E+5  -2.78651E+5
  -4.26780E+5  -2.82763E+5
  -4.18669E+5  -2.86363E+5
  -4.11130E+5  -2.89565E+5
  -4.03498E+5  -2.92850E+5
  -3.96074E+5  -2.96067E+5
  -3.88250E+5  -2.98663E+5
  -3.81239E+5  -3.01216E+5
  -3.74359E+5  -3.04102E+5
  -3.67343E+5  -3.07429E+5
  -3.58969E+5  -3.10905E+5
  -3.50803E+5  -3.13920E+5
  -3.42900E+5  -3.16237E+5
  -3.35326E+5  -3.18593E+5
  -3.27854E+5  -3.21418E+5
  -3.20183E+5  -3.24221E+5
  -3.12319E+5  -3.26018E+5
  -3.04623E+5  -3.28573E+5
  -2.96629E+5  -3.31167E+5
  -2.88331E+5  -3.33314E+5
  -2.80349E+5  -3.34931E+5
  -2.72604E+5  -3.36076E+5
  -2.65696E+5  -3.37558E+5
  -2.58248E+5  -3.39749E+5
  -2.50383E+5  -3.41189E+5
  -2.42388E+5  -3.42678E+5
  -2.35059E+5  -3.43676E+5
  -2.27392E+5  -3.44780E+5
  -2.20335E+5  -3.45855E+5
  -2.11961E+5  -3.46626E+5
  -2.04633E+5  -3.46997E+5
  -1.97882E+5  -3.47713E+5
  -1.90722E+5  -3.48660E+5
  -1.82860E+5  -3.49774E+5
  -1.75023E+5  -3.49616E+5
  -1.67987E+5  -3.49376E+5
  -1.61440E+5  -3.48994E+5
  -1.54774E+5  -3.48919E+5
  -1.47889E+5  -3.48891E+5
  -1.41286E+5  -3.48441E+5
  -1.34685E+5  -3.47785E+5
  -1.28397E+5  -3.47505E+5
  -1.21499E+5  -3.47267E+5
  -1.14868E+5  -3.46493E+5
  -1.08570E+5  -3.44849E+5
  -1.02706E+5  -3.43636E+5
  -9.70874E+4  -3.42894E+5
  -9.08693E+4  -3.42222E+5
  -8.45931E+4  -3.40915E+5
  -7.83881E+4  -3.39469E+5
  -7.33341E+4  -3.37723E+5
  -6.77297E+4  -3.36423E+5
  -6.24900E+4  -3.34904E+5
  -5.69201E+4  -3.32979E+5
  -5.19509E+4  -3.31068E+5
  -4.70891E+4  -3.29892E+5
  -4.18803E+4  -3.28038E+5
  -3.69237E+4  -3.25882E+5
  -3.22149E+4  -3.23774E+5
  -2.75469E+4  -3.21476E+5
  -2.30264E+4  -3.19586E+5
  -1.85670E+4  -3.17980E+5
  -1.35226E+4  -3.15680E+5
  -9.21503E+3  -3.13037E+5
  -5.03138E+3  -3.10802E+5
  -5.82736E+2  -3.08677E+5
   3.99124E+3  -3.06488E+5
   8.02921E+3  -3.03862E+5
   1.16912E+4  -3.01245E+5
   1.53022E+4  -2.99137E+5
   1.92594E+4  -2.97037E+5
   2.39972E+4  -2.94188E+5
   2.77516E+4  -2.91260E+5
   3.07939E+4  -2.88491E+5
   3.47752E+4  -2.86128E+5
   3.83832E+4  -2.83505E+5
   4.23401E+4  -2.81228E+5
   4.61063E+4  -2.78230E+5
   4.99734E+4  -2.75662E+5
   5.39691E+4  -2.73080E+5
   5.77665E+4  -2.69733E+5
   6.11648E+4  -2.66655E+5
   6.45825E+4  -2.63411E+5
   6.72319E+4  -2.60867E+5
   7.06401E+4  -2.58151E+5
   7.44647E+4  -2.55288E+5
   7.77410E+4  -2.51988E+5
   8.07489E+4  -2.48625E+5
   8.36768E+4  -2.45684E+5
   8.64127E+4  -2.42700E+5
   8.96845E+4  -2.39524E+5
   9.25089E+4  -2.36443E+5
   9.51124E+4  -2.33462E+5
   9.82607E+4  -2.30546E+5
   1.01051E+5  -2.27446E+5
   1.03835E+5  -2.23627E+5
   1.06194E+5  -2.20241E+5
   1.08587E+5  -2.17112E+5
   1.11370E+5  -2.13969E+5
   1.13701E+5  -2.10310E+5
   1.16275E+5  -2.07048E+5
   1.18345E+5  -2.03959E+5
   1.20556E+5  -2.00618E+5
   1.22613E+5  -1.97427E+5
   1.24872E+5  -1.93887E+5
   1.26526E+5  -1.90283E+5
   1.27908E+5  -1.87155E+5
   1.29509E+5  -1.84306E+5
   1.31733E+5  -1.81267E+5
   1.33786E+5  -1.77762E+5
   1.35084E+5  -1.74013E+5
   1.36354E+5  -1.70892E+5
   1.37838E+5  -1.67475E+5
   1.39315E+5  -1.64026E+5
   1.40674E+5  -1.60755E+5
   1.41947E+5  -1.57702E+5
   1.43034E+5  -1.54753E+5
   1.44419E+5  -1.51019E+5
   1.45669E+5  -1.47823E+5
   1.46280E+5  -1.44390E+5
   1.46933E+5  -1.41454E+5
   1.48020E+5  -1.38439E+5
   1.49052E+5  -1.35226E+5
   1.50049E+5  -1.31898E+5
   1.50477E+5  -1.28141E+5
   1.50997E+5  -1.25306E+5
   1.51613E+5  -1.22418E+5
   1.52299E+5  -1.19158E+5
   1.52832E+5  -1.15959E+5
   1.52832E+5  -1.13097E+5
   1.53732E+5  -1.10098E+5
   1.54067E+5  -1.07249E+5
   1.54763E+5  -1.03889E+5
   1.54774E+5  -1.00319E+5
   1.54781E+5  -9.77725E+4
   1.54720E+5  -9.49808E+4
   1.55130E+5  -9.19790E+4
   1.54963E+5  -8.90030E+4
   1.55154E+5  -8.58393E+4
   1.54863E+5  -8.30418E+4
   1.55029E+5  -8.06505E+4
   1.54763E+5  -7.71575E+4
   1.54451E+5  -7.42684E+4
   1.54203E+5  -7.15774E+4
   1.54038E+5  -6.91350E+4
   1.53993E+5  -6.62841E+4
   1.53942E+5  -6.34199E+4
   1.53386E+5  -6.01648E+4
   1.52646E+5  -5.74809E+4
   1.52142E+5  -5.50626E+4
   1.51590E+5  -5.25478E+4
   1.50928E+5  -5.01627E+4
   1.50372E+5  -4.76040E+4
   1.49897E+5  -4.49726E+4
   1.49558E+5  -4.23510E+4
   1.48880E+5  -3.95469E+4
   1.48195E+5  -3.68697E+4
   1.47119E+5  -3.45161E+4
   1.46217E+5  -3.20828E+4
   1.45639E+5  -2.99369E+4
   1.44804E+5  -2.72082E+4
   1.43898E+5  -2.45371E+4
   1.42709E+5  -2.25938E+4
   1.41891E+5  -2.02551E+4
   1.41051E+5  -1.78514E+4
   1.39789E+5  -1.58325E+4
   1.38772E+5  -1.36281E+4
   1.37698E+5  -1.17178E+4
   1.36905E+5  -9.59817E+3
   1.36006E+5  -7.30170E+3
   1.34851E+5  -5.06086E+3
   1.33267E+5  -3.05638E+3
   1.32190E+5  -1.35830E+3
   1.30998E+5   7.42367E+2
   1.29739E+5   2.65988E+3
   1.28481E+5   4.50840E+3
   1.27240E+5   6.13457E+3
   1.26196E+5   7.74495E+3
   1.25274E+5   9.83192E+3
   1.23518E+5   1.18242E+4
   1.21898E+5   1.36125E+4
   1.20562E+5   1.47785E+4
   1.19361E+5   1.62355E+4
   1.18337E+5   1.79220E+4
   1.16774E+5   1.95296E+4
   1.15496E+5   2.11998E+4
