 
 $NMID
 ID=''
 FMTDAT='(2E13.5)'
 TRAMP=   1.00000E+0
 VOLUME=   1.00000E+0
 $END
   5.58021E+5   4.72867E+5
   9.72653E+5   1.63345E+6
   1.10681E+6   1.42871E+6
   8.95136E+5   1.42245E+6
   8.92115E+5   1.58066E+6
   9.44440E+5   1.51865E+6
   8.53133E+5   1.45847E+6
   8.09253E+5   1.51418E+6
   8.09937E+5   1.50756E+6
   7.73206E+5   1.50576E+6
   7.67984E+5   1.51190E+6
   7.38354E+5   1.46928E+6
   6.78150E+5   1.47517E+6
   6.79146E+5   1.49932E+6
   6.74372E+5   1.46636E+6
   6.30781E+5   1.44938E+6
   6.11046E+5   1.46361E+6
   5.83622E+5   1.45246E+6
   5.40200E+5   1.45159E+6
   5.22230E+5   1.45351E+6
   4.91517E+5   1.43621E+6
   4.51446E+5   1.43453E+6
   4.34157E+5   1.43483E+6
   4.07943E+5   1.41944E+6
   3.71771E+5   1.41365E+6
   3.62100E+5   1.40754E+6
   3.43919E+5   1.39261E+6
   3.18784E+5   1.38656E+6
   3.02849E+5   1.37740E+6
   2.85234E+5   1.36373E+6
   2.58732E+5   1.35975E+6
   2.39369E+5   1.35032E+6
   2.14782E+5   1.33677E+6
   1.89344E+5   1.33126E+6
   1.68982E+5   1.32151E+6
   1.46237E+5   1.30911E+6
   1.21775E+5   1.30527E+6
   9.99134E+4   1.29603E+6
   7.80909E+4   1.28076E+6
   6.03794E+4   1.27256E+6
   4.48992E+4   1.26269E+6
   2.76577E+4   1.24915E+6
   1.45720E+4   1.23639E+6
   2.64963E+3   1.22634E+6
  -1.36823E+4   1.21543E+6
  -2.84213E+4   1.20586E+6
  -4.31856E+4   1.19369E+6
  -6.20942E+4   1.18058E+6
  -8.14309E+4   1.16736E+6
  -9.77594E+4   1.15490E+6
  -1.13992E+5   1.14310E+6
  -1.31403E+5   1.13083E+6
  -1.48267E+5   1.11800E+6
  -1.64719E+5   1.10620E+6
  -1.79546E+5   1.09351E+6
  -1.93808E+5   1.07977E+6
  -2.07966E+5   1.06596E+6
  -2.20769E+5   1.05209E+6
  -2.31334E+5   1.03882E+6
  -2.42960E+5   1.02655E+6
  -2.55576E+5   1.01293E+6
  -2.67856E+5   9.99538E+5
  -2.80618E+5   9.86078E+5
  -2.93701E+5   9.71901E+5
  -3.06441E+5   9.55533E+5
  -3.18103E+5   9.39941E+5
  -3.29399E+5   9.24748E+5
  -3.40633E+5   9.10446E+5
  -3.51662E+5   8.96210E+5
  -3.63283E+5   8.81354E+5
  -3.74302E+5   8.65960E+5
  -3.83319E+5   8.51043E+5
  -3.91560E+5   8.37872E+5
  -4.01616E+5   8.23351E+5
  -4.11439E+5   8.07813E+5
  -4.20107E+5   7.92735E+5
  -4.28814E+5   7.78695E+5
  -4.38351E+5   7.63517E+5
  -4.47638E+5   7.47909E+5
  -4.56708E+5   7.31979E+5
  -4.65402E+5   7.16215E+5
  -4.73083E+5   7.00748E+5
  -4.80897E+5   6.85701E+5
  -4.89166E+5   6.70669E+5
  -4.95964E+5   6.55249E+5
  -5.01670E+5   6.40463E+5
  -5.07440E+5   6.26149E+5
  -5.13441E+5   6.12033E+5
  -5.18444E+5   5.98157E+5
  -5.22609E+5   5.84154E+5
  -5.26636E+5   5.70713E+5
  -5.31492E+5   5.57205E+5
  -5.36716E+5   5.43200E+5
  -5.40625E+5   5.28956E+5
  -5.43820E+5   5.14885E+5
  -5.47323E+5   5.01544E+5
  -5.50950E+5   4.88336E+5
  -5.54541E+5   4.74847E+5
  -5.57612E+5   4.61498E+5
  -5.59599E+5   4.48757E+5
  -5.62253E+5   4.36366E+5
  -5.64578E+5   4.23920E+5
  -5.65976E+5   4.11274E+5
  -5.66600E+5   3.98440E+5
  -5.66906E+5   3.87302E+5
  -5.67622E+5   3.76757E+5
  -5.68803E+5   3.65276E+5
  -5.68983E+5   3.53058E+5
  -5.68356E+5   3.41285E+5
  -5.67324E+5   3.31120E+5
  -5.67377E+5   3.21142E+5
  -5.67919E+5   3.09689E+5
  -5.68051E+5   2.98457E+5
  -5.67206E+5   2.87198E+5
  -5.66187E+5   2.76449E+5
  -5.65610E+5   2.65193E+5
  -5.64706E+5   2.54547E+5
  -5.63033E+5   2.43693E+5
  -5.60398E+5   2.33987E+5
  -5.58093E+5   2.24473E+5
  -5.56542E+5   2.15621E+5
  -5.55052E+5   2.05933E+5
  -5.53088E+5   1.96599E+5
  -5.50963E+5   1.86918E+5
  -5.48359E+5   1.76891E+5
  -5.45332E+5   1.67530E+5
  -5.42003E+5   1.58257E+5
  -5.39247E+5   1.49123E+5
  -5.36333E+5   1.40016E+5
  -5.33603E+5   1.30894E+5
  -5.30639E+5   1.20766E+5
  -5.27110E+5   1.11132E+5
  -5.23148E+5   1.02206E+5
  -5.19813E+5   9.34326E+4
  -5.16154E+5   8.44941E+4
  -5.12187E+5   7.56551E+4
  -5.08043E+5   6.73009E+4
  -5.04661E+5   5.93647E+4
  -5.01040E+5   5.06171E+4
  -4.96556E+5   4.19091E+4
  -4.92429E+5   3.32435E+4
  -4.87338E+5   2.57397E+4
  -4.82539E+5   1.84850E+4
  -4.78848E+5   1.12183E+4
  -4.74670E+5   3.46462E+3
  -4.69317E+5  -4.16826E+3
  -4.64321E+5  -1.10705E+4
  -4.59569E+5  -1.81160E+4
  -4.54552E+5  -2.51536E+4
  -4.49347E+5  -3.14944E+4
  -4.44019E+5  -3.76695E+4
  -4.38967E+5  -4.34946E+4
  -4.34119E+5  -4.91021E+4
  -4.29241E+5  -5.48788E+4
  -4.24207E+5  -6.05604E+4
  -4.18808E+5  -6.62375E+4
  -4.13729E+5  -7.13029E+4
  -4.08734E+5  -7.59931E+4
  -4.03802E+5  -8.11993E+4
  -3.98640E+5  -8.58516E+4
  -3.93440E+5  -9.04674E+4
  -3.88267E+5  -9.48179E+4
  -3.83170E+5  -9.92960E+4
  -3.77763E+5  -1.03651E+5
  -3.72071E+5  -1.07171E+5
  -3.67219E+5  -1.10457E+5
  -3.62366E+5  -1.14073E+5
  -3.57223E+5  -1.18003E+5
  -3.52160E+5  -1.21497E+5
  -3.46815E+5  -1.24372E+5
  -3.41975E+5  -1.27496E+5
  -3.36998E+5  -1.30438E+5
  -3.31721E+5  -1.33147E+5
  -3.26807E+5  -1.35663E+5
  -3.21537E+5  -1.38731E+5
  -3.16829E+5  -1.41442E+5
  -3.11664E+5  -1.44268E+5
  -3.05967E+5  -1.46866E+5
  -3.00852E+5  -1.49114E+5
  -2.95562E+5  -1.51193E+5
  -2.91073E+5  -1.53391E+5
  -2.86071E+5  -1.56150E+5
  -2.80613E+5  -1.58549E+5
  -2.75320E+5  -1.60369E+5
  -2.70320E+5  -1.62556E+5
  -2.65204E+5  -1.64082E+5
  -2.59764E+5  -1.65775E+5
  -2.54727E+5  -1.66866E+5
  -2.50246E+5  -1.68113E+5
  -2.45403E+5  -1.69742E+5
  -2.40643E+5  -1.71674E+5
  -2.35446E+5  -1.73590E+5
  -2.29743E+5  -1.74911E+5
  -2.24417E+5  -1.76203E+5
  -2.19601E+5  -1.77208E+5
  -2.14509E+5  -1.78556E+5
  -2.09556E+5  -1.79857E+5
  -2.04367E+5  -1.80947E+5
  -1.99334E+5  -1.82221E+5
  -1.94136E+5  -1.83518E+5
  -1.89023E+5  -1.84647E+5
  -1.83724E+5  -1.85300E+5
  -1.78751E+5  -1.85894E+5
  -1.74135E+5  -1.86572E+5
  -1.69403E+5  -1.87449E+5
  -1.64569E+5  -1.88081E+5
  -1.59462E+5  -1.88623E+5
  -1.54570E+5  -1.89010E+5
  -1.49896E+5  -1.89679E+5
  -1.45174E+5  -1.89714E+5
  -1.40472E+5  -1.90203E+5
  -1.35885E+5  -1.90229E+5
  -1.31523E+5  -1.90311E+5
  -1.27076E+5  -1.90793E+5
  -1.22489E+5  -1.91155E+5
  -1.17764E+5  -1.90890E+5
  -1.13027E+5  -1.90489E+5
  -1.09165E+5  -1.90072E+5
  -1.05405E+5  -1.90169E+5
  -1.01027E+5  -1.89522E+5
  -9.74499E+4  -1.89296E+5
  -9.33449E+4  -1.88884E+5
  -8.95181E+4  -1.88635E+5
  -8.55479E+4  -1.88161E+5
  -8.18863E+4  -1.87524E+5
  -7.81339E+4  -1.86494E+5
  -7.44896E+4  -1.85693E+5
  -7.15255E+4  -1.85022E+5
  -6.78498E+4  -1.84381E+5
  -6.43806E+4  -1.83748E+5
  -6.09042E+4  -1.82649E+5
  -5.78091E+4  -1.81549E+5
  -5.49807E+4  -1.80657E+5
  -5.20547E+4  -1.79759E+5
  -4.88228E+4  -1.78779E+5
  -4.62265E+4  -1.77455E+5
  -4.34285E+4  -1.76443E+5
  -4.05460E+4  -1.75453E+5
  -3.79147E+4  -1.73983E+5
  -3.54719E+4  -1.72780E+5
  -3.28857E+4  -1.71543E+5
  -3.05371E+4  -1.70764E+5
  -2.77310E+4  -1.69486E+5
  -2.51553E+4  -1.68053E+5
  -2.28393E+4  -1.66219E+5
  -2.06113E+4  -1.65379E+5
  -1.84451E+4  -1.63989E+5
  -1.56421E+4  -1.62664E+5
  -1.38131E+4  -1.61028E+5
  -1.19548E+4  -1.59336E+5
  -1.00213E+4  -1.58363E+5
  -7.57526E+3  -1.57261E+5
  -5.38314E+3  -1.55815E+5
  -3.32814E+3  -1.53888E+5
  -1.57054E+3  -1.52423E+5
   7.46595E+1  -1.50977E+5
   2.15046E+3  -1.49531E+5
   4.30855E+3  -1.48317E+5
   6.21783E+3  -1.46683E+5
   8.19209E+3  -1.45436E+5
   1.02734E+4  -1.43787E+5
   1.23692E+4  -1.42030E+5
   1.40090E+4  -1.40122E+5
   1.56790E+4  -1.38601E+5
   1.72809E+4  -1.37093E+5
   1.89149E+4  -1.35989E+5
   2.09688E+4  -1.34240E+5
   2.28781E+4  -1.32389E+5
   2.42664E+4  -1.30796E+5
   2.57467E+4  -1.29357E+5
   2.74015E+4  -1.27754E+5
   2.87748E+4  -1.26051E+5
   3.04590E+4  -1.24587E+5
   3.18769E+4  -1.22804E+5
   3.34584E+4  -1.21483E+5
   3.50844E+4  -1.19615E+5
   3.67121E+4  -1.17771E+5
   3.80767E+4  -1.16028E+5
   3.93252E+4  -1.14601E+5
   4.07044E+4  -1.13036E+5
   4.19241E+4  -1.11282E+5
   4.34093E+4  -1.09707E+5
   4.43758E+4  -1.07908E+5
   4.57895E+4  -1.06536E+5
   4.70986E+4  -1.04539E+5
   4.81572E+4  -1.02707E+5
   4.91905E+4  -1.00866E+5
   4.98972E+4  -9.95664E+4
   5.10249E+4  -9.81305E+4
   5.24907E+4  -9.65222E+4
   5.34749E+4  -9.48826E+4
   5.44024E+4  -9.31599E+4
   5.52796E+4  -9.14085E+4
   5.59698E+4  -8.98137E+4
   5.69707E+4  -8.80874E+4
   5.80292E+4  -8.66019E+4
   5.87303E+4  -8.52344E+4
   5.93063E+4  -8.34642E+4
   6.04296E+4  -8.20514E+4
   6.11012E+4  -8.04884E+4
   6.15905E+4  -7.88447E+4
   6.21434E+4  -7.72343E+4
   6.29685E+4  -7.59970E+4
   6.38119E+4  -7.45222E+4
   6.42161E+4  -7.25165E+4
   6.45950E+4  -7.11123E+4
   6.49923E+4  -6.96781E+4
   6.56034E+4  -6.83717E+4
   6.63164E+4  -6.69409E+4
   6.64327E+4  -6.53103E+4
   6.70315E+4  -6.39802E+4
   6.71263E+4  -6.28586E+4
   6.77865E+4  -6.14151E+4
   6.81976E+4  -5.96609E+4
   6.82524E+4  -5.82798E+4
   6.84313E+4  -5.70035E+4
   6.85412E+4  -5.56793E+4
   6.88263E+4  -5.42198E+4
   6.90909E+4  -5.28676E+4
   6.91841E+4  -5.13658E+4
   6.90655E+4  -5.04500E+4
   6.94858E+4  -4.90335E+4
   6.95214E+4  -4.77507E+4
   6.94468E+4  -4.63834E+4
   6.93417E+4  -4.49205E+4
   6.95536E+4  -4.37579E+4
   6.96042E+4  -4.25343E+4
   6.98106E+4  -4.11734E+4
   6.95090E+4  -3.95902E+4
   6.93773E+4  -3.89350E+4
   6.92746E+4  -3.76922E+4
   6.92139E+4  -3.61576E+4
   6.92400E+4  -3.49808E+4
   6.90209E+4  -3.41816E+4
   6.90132E+4  -3.30097E+4
   6.90889E+4  -3.16636E+4
   6.88397E+4  -3.02670E+4
   6.85082E+4  -2.90817E+4
   6.84477E+4  -2.78862E+4
   6.79673E+4  -2.69382E+4
   6.77494E+4  -2.58194E+4
   6.77278E+4  -2.50041E+4
   6.74206E+4  -2.38202E+4
   6.72307E+4  -2.27943E+4
   6.67042E+4  -2.15848E+4
   6.65361E+4  -2.07066E+4
   6.61685E+4  -1.96312E+4
   6.58703E+4  -1.84887E+4
   6.50711E+4  -1.77590E+4
   6.50321E+4  -1.66817E+4
   6.51160E+4  -1.56743E+4
   6.45485E+4  -1.44146E+4
   6.40587E+4  -1.37524E+4
   6.37000E+4  -1.30829E+4
   6.35937E+4  -1.21407E+4
   6.29468E+4  -1.10913E+4
   6.25397E+4  -1.02990E+4
   6.19143E+4  -9.56910E+3
   6.17536E+4  -8.75403E+3
   6.13940E+4  -7.81795E+3
   6.10488E+4  -7.01534E+3
   6.04635E+4  -6.21946E+3
   5.97786E+4  -5.49558E+3
   5.93402E+4  -4.85592E+3
   5.91604E+4  -4.18988E+3
   5.87804E+4  -3.42129E+3
   5.81672E+4  -2.51345E+3
