 
 $NMID
 ID=''
 FMTDAT='(2E13.5)'
 TRAMP=   1.00000E+0
 VOLUME=   1.00000E+0
 $END
   7.15275E+3   2.04044E+4
   3.29344E+4   1.88901E+4
   2.43811E+4  -3.32516E+4
  -2.67417E+4  -3.02487E+4
  -3.17427E+4   2.61157E+4
   1.43695E+4   3.13639E+4
   2.69483E+4  -1.32033E+4
  -3.70379E+3  -2.53831E+4
  -1.90985E+4   1.01644E+3
  -3.39032E+3   1.88713E+4
   1.28382E+4   9.15483E+3
   7.77023E+3  -9.70732E+3
  -6.37326E+3  -9.04468E+3
  -7.80778E+3   6.43054E+3
   4.05213E+1   7.51840E+3
   3.55809E+3  -3.98826E+3
   1.70960E+3  -4.98832E+3
  -9.29431E+2   8.91484E+2
  -1.77519E+3   1.55492E+3
   5.93199E+2  -3.32389E+2
   9.94361E+2  -7.65324E+2
  -5.40639E+2  -8.70596E+2
   7.14605E+2  -4.53421E+2
   1.17854E+3  -6.72891E+1
  -1.52079E+3  -4.02946E+2
  -4.66705E+2  -8.37529E+2
   2.43754E+3  -2.86698E+2
   1.15619E+3   1.33780E+3
  -1.57097E+3  -2.91439E+1
  -8.24013E+2  -1.27548E+3
   1.01131E+3   9.53633E+1
   8.52181E+2   1.44970E+3
  -4.84136E+0   1.16626E+2
  -1.44519E+3  -2.72598E+2
  -2.02504E+3  -5.03027E+2
   7.17786E+1  -1.21374E+3
   2.07012E+3  -6.63227E+2
   1.00144E+3   6.53379E+2
  -5.99887E+2   4.89080E+0
  -4.57286E+2  -1.33368E+2
  -2.17734E+1   1.06080E+3
  -5.44278E+2   6.77249E+2
  -4.64819E+2  -1.10400E+3
  -1.09112E+2  -1.37264E+3
   4.34758E+2  -4.50804E+2
   1.12155E+3   3.42780E+2
   1.10219E+3   1.03796E+3
  -2.66177E+2   1.70900E+3
  -1.34017E+3   6.90639E+2
  -9.40213E+2  -3.38152E+2
  -4.30780E+2  -3.99444E+2
  -4.68896E+2   3.36086E+2
  -9.17851E+0  -3.02716E+2
   8.35741E+2  -5.87948E+2
   4.30891E+2   1.91929E+2
  -2.33093E+2   9.34455E+2
  -6.23431E+2   1.05948E+3
  -3.48717E+2   3.77385E+2
  -5.01153E+1  -6.93651E+2
  -6.08369E+0  -7.69576E+2
   2.90311E+2  -1.25107E+2
   9.12649E+2   3.60144E+2
   1.26597E+3   7.30378E+2
   6.34158E+2   1.14509E+3
  -6.47479E+2   1.17614E+3
  -8.68438E+2   6.75629E+2
  -8.17893E+2  -2.65673E+2
  -4.86657E+2  -9.23387E+2
   4.26113E+2  -7.12519E+2
   7.53606E+2  -4.44950E+1
  -1.23638E+1   7.89664E+2
  -7.81723E+2  -4.29144E+2
   3.17620E+2  -1.12428E+3
   8.54739E+2  -1.41098E+1
   2.37046E+2   5.21357E+2
  -3.96862E+2  -1.95178E+1
  -3.75680E+1  -4.19207E+2
   3.91645E+2   8.20859E+1
   1.14032E+2   1.84966E+2
  -2.61785E+2   4.10991E+2
  -3.38205E+2   8.86093E+1
  -2.24466E+2  -1.90713E+2
  -1.55317E+2  -3.73027E+2
  -1.13513E+2  -1.23746E+2
  -4.06715E+2  -3.05457E+1
  -3.13131E+2  -6.33566E+2
   1.45339E+2  -7.82584E+2
   2.88621E+2  -5.87410E+1
   4.63170E+1  -9.67316E+1
  -8.68861E+1  -2.53034E+2
   3.41580E+2  -5.24732E+2
   4.77422E+2  -7.89927E+1
   4.26168E+2   2.90680E+2
  -9.21301E+0   8.23617E+2
  -8.26562E+2   3.19878E+2
  -6.06559E+2  -6.42336E+2
  -3.25833E+2  -3.71097E+2
  -2.04282E+2   3.23834E+2
  -5.69275E+2  -4.22765E+1
  -4.18969E+2  -6.27205E+2
   3.80613E+2  -5.57482E+2
   5.45592E+2   1.75867E+2
  -3.29472E+1   4.39713E+2
  -8.64225E+2   2.25434E+2
  -5.02657E+2  -3.70388E+2
   1.62979E+2  -5.38940E+2
   5.23420E+2   1.83750E+2
  -2.75367E+2   8.78758E+2
  -7.60478E+2   5.71510E+2
  -4.71804E+2  -6.40446E+2
  -8.12824E+1  -8.65457E+2
   4.12154E+2  -1.45617E+2
   2.88194E+2   4.25825E+2
   4.13332E+2   3.89857E+2
   3.04388E+2   4.13437E+1
   2.16066E+2   6.60848E+1
  -5.60267E+0   7.88835E+2
  -5.95481E+2   6.55262E+2
  -6.35580E+2  -1.26820E+0
  -4.40907E+2  -6.28050E+2
   2.40004E+2  -4.48357E+2
   2.88956E+2  -2.62517E+2
   2.45950E+2  -5.77477E+1
   1.94627E+2  -1.33641E+2
   3.18191E+2   4.83429E+2
  -1.24823E+2   2.87671E+2
  -2.01745E+2  -1.07063E+2
  -9.87473E+1   2.54659E+2
   6.58991E+1  -1.27364E+2
   4.64925E+2  -9.84289E+1
   2.68590E+2   2.26264E+2
  -6.66882E+1   5.22612E+2
  -2.95265E+2  -7.81308E+1
  -7.76552E+1  -2.46374E+1
   1.43133E+2   1.65958E+2
  -4.75571E+1   2.76145E+2
  -7.64316E+1  -3.24008E+2
   4.64292E+2  -2.83094E+2
   6.42435E+2   2.09609E+2
   2.61223E+2   4.96105E+2
  -1.38867E+2   5.60403E+2
  -3.34121E+2   1.02292E+2
   1.11844E+2  -6.27071E+2
   4.56022E+2  -1.96942E+2
   7.14202E+2   1.18607E+2
   1.19576E+2   3.92620E+2
  -1.66052E+2   1.30445E+2
   2.26317E+2   1.01937E+2
   1.68888E+2   1.52932E+2
  -1.60077E+2   1.20282E+2
  -2.05732E+2  -1.23636E+2
  -9.24384E+1  -2.56951E+2
   2.98426E+2  -5.57693E+2
   5.83570E+2   5.35594E+1
   3.82697E+2   8.57979E+0
   8.96662E+1   2.47930E+2
   3.57140E+2  -1.31823E+2
   2.96517E+2  -1.62827E+2
   3.73106E+2   1.44589E+2
   3.26877E+1  -5.21425E+1
   2.63422E+2  -8.95469E+0
   1.80642E+2   4.61174E+0
  -9.21384E+1   1.92367E+2
  -1.25895E+2   1.24175E+2
  -1.72342E+1  -1.57135E+2
  -5.13331E+1  -3.48070E+2
   2.23209E+2  -2.25453E+2
  -5.41165E+0  -7.73302E+1
   1.53996E+0  -1.62027E+1
   6.93844E+1  -2.94108E+2
   5.16508E+1  -1.43248E+2
   2.38659E+2   7.86283E+1
   2.75286E+1   9.67251E+1
  -2.77981E+1  -1.67512E+2
  -5.07126E+1   9.50096E+1
   9.53861E+1   1.51134E+2
   1.04283E+1   4.27524E+1
  -5.92527E+1  -3.75676E+1
  -1.93104E+2  -4.51760E+2
  -1.86027E+2  -2.81685E+2
   2.57216E+2  -4.54264E+2
   2.12303E+2   4.37021E+1
   1.41752E+2   1.03715E+2
  -2.42327E+2   1.11916E+1
  -1.28583E+2  -1.63325E+2
  -1.02021E+2  -6.60282E+0
  -1.76188E+2  -1.95542E+2
  -4.17998E+2  -6.74555E+1
  -5.14621E+1  -3.23872E+2
   3.08287E+2  -5.12638E+2
   5.10082E+2   1.52772E+2
   2.65403E+2   4.83562E+2
  -1.56459E+2   3.50505E+1
  -5.11370E+1   7.79184E+1
   9.50908E+1  -2.12818E+2
  -1.12188E+2   1.14325E+2
   2.93443E+2   1.71885E+1
   3.69725E+1  -6.05346E+1
  -9.10604E-1  -1.36839E+2
  -4.30875E+0   1.37922E+2
  -6.49548E+0   4.91929E+2
  -6.33032E+1  -4.60198E+1
  -3.60837E+2  -2.31305E+2
   2.95811E+1  -3.20345E+2
   1.70808E+2  -1.05686E+2
  -2.11579E+2   2.80399E+1
   7.64107E+0   1.88084E+2
  -5.00059E+0   1.67982E+2
   1.38830E+2  -1.50803E+1
  -6.76499E+1   1.39901E+2
  -7.32567E+1  -1.52043E+2
  -3.01167E+1  -3.31064E+2
   8.58213E+1  -3.06197E+2
   2.30318E+2   1.52467E+2
   5.91040E+1   1.65140E+2
  -9.64437E+1   2.51987E+2
  -7.91369E+1  -4.22640E+1
  -4.33208E+1  -1.79237E+2
   1.13556E+1  -3.64980E+1
   1.87514E+2   1.02780E+2
  -1.16048E+2  -7.73609E+1
  -9.48092E+1  -2.91467E+2
  -3.74490E+1   2.44530E+1
  -7.08502E+1   1.26792E+2
  -8.87143E+1   1.47936E+2
  -3.51867E+2  -1.64100E+1
   1.27649E+2  -1.12084E+2
   4.10486E+1  -1.44936E+2
  -9.45099E+0   1.00694E+2
   7.63142E+1   6.43513E+1
  -2.00301E+2   7.41499E+1
  -2.36849E+2  -6.81577E+1
  -4.08607E+1  -6.37193E+0
  -1.33901E+1  -7.70995E+1
  -7.02125E+1  -9.44270E+1
  -9.66162E+1   1.44264E+2
  -1.78180E+2   1.30051E+1
   3.05001E+1   1.25412E+2
   1.11887E+2   1.17408E+2
  -2.44617E+2  -2.84534E+1
  -9.26707E+1  -2.67905E+2
   1.05875E+2  -6.61497E+1
   6.89425E+1   1.38925E+2
  -5.63463E+1   6.48882E+1
  -9.20371E+1  -1.16840E+2
  -1.39284E+1   2.50912E+0
  -1.87116E+2   4.18795E+1
  -5.60033E+1   8.76289E+1
   3.88400E+0  -1.37485E+2
  -1.25986E+2  -1.44924E+2
   8.03330E+1  -1.84862E+2
  -1.87070E+2  -1.86764E+1
  -4.71121E+1   1.15481E+2
  -1.17821E+2  -2.72764E+1
  -8.96135E+1  -1.83990E+2
   5.79535E+0  -7.06131E+1
  -7.23014E+1  -1.37495E+2
   1.83115E+2   4.31736E+1
   2.85069E+2   1.67594E+2
  -1.13102E+2   8.63793E+1
   2.02159E+0   5.92051E+1
  -8.88040E+0   2.36118E+2
  -3.24499E+2   1.48607E+2
  -2.57998E+2  -1.51489E+2
   8.11278E+1  -8.32988E+1
   1.32880E+2   3.58901E+2
  -2.67679E+1  -1.23953E+1
  -1.34306E+2   3.63975E+2
  -4.55837E+1   1.11701E+2
  -3.04590E+2  -1.20606E+2
  -8.18221E+1  -8.31241E+1
  -1.27565E+2  -1.07963E+2
  -8.67928E+1  -3.10838E+2
  -2.17962E+0   1.55513E+2
  -1.31958E+1  -1.53459E+1
  -2.54125E+2   9.45703E+0
  -6.22292E+1  -1.87813E+0
  -1.21487E+2  -5.34642E+1
   6.47890E+1   3.33794E+1
  -4.62366E+1   1.80728E+2
  -1.69380E+2   4.15599E+1
  -2.64447E+2  -7.14923E+1
  -9.48024E+1   2.04103E+2
  -3.51847E+1   1.82851E+2
  -1.52193E+2   2.26974E+2
  -3.32419E+2   9.96235E+1
  -1.99783E+2   1.42958E+2
   6.96855E+1   1.05927E+2
  -9.50933E+1   2.35604E+1
   2.53607E+2   8.00383E+1
  -1.39290E+2   1.80921E+2
  -3.15553E+1   7.75537E+1
  -1.52192E+2  -5.83561E+1
  -4.58197E+1  -1.20878E+2
  -2.87173E+2   1.28440E+2
  -1.77442E+2   2.30332E+2
   7.84321E+1   8.25661E+1
  -2.05287E+2   6.16303E+1
   6.68984E+1  -1.48437E+1
  -9.68876E+1  -2.90283E+1
  -1.42254E+2  -2.94944E+2
   2.31605E+2   1.48979E+1
   1.10318E+2   3.51275E+1
  -1.10025E+2   9.68488E+1
  -2.09626E+2   3.84139E+1
  -1.48403E+2  -7.18051E+1
  -1.98208E+2   1.54567E+2
   4.27309E+1   5.44376E+1
   6.40898E+1  -8.10654E+1
  -2.64000E+2  -9.56472E+1
  -1.93023E+2  -4.48256E+1
   1.60522E+2   7.47203E+1
  -8.20747E+1  -2.87577E+1
   1.32887E+2   1.88600E+1
  -1.53641E+2  -3.00721E+1
  -1.29123E+2  -1.81420E+2
   7.63897E-1  -6.34569E+1
  -8.23816E+1  -1.16303E+2
  -8.12474E-1  -1.12134E+2
  -2.55452E+2  -3.52233E+1
  -1.51117E+2   3.58020E+1
   6.93859E+1   7.46401E+1
  -2.66198E+1  -5.64557E+1
  -2.59526E+2  -5.36765E+1
   5.11294E+1  -2.24156E+2
  -2.40528E+1   5.44882E+1
  -5.34611E+1  -6.46822E+0
  -3.63905E+1   1.86401E+2
  -4.26048E+1   9.61996E+1
  -2.26426E+2  -5.11646E+1
  -8.41115E+1   2.03618E+2
  -2.78592E+2  -8.15950E+1
  -9.42131E+1  -1.14001E+2
   1.07921E+2  -3.54188E+2
   1.38694E+1  -6.86780E+0
   1.26806E+2   1.51370E+2
  -3.66044E+1   1.35896E+2
  -4.58980E+2  -2.38545E+1
  -1.51539E+2  -8.65282E+1
   1.08953E+2   1.52211E+2
   1.93646E+2  -1.98787E+2
   2.87621E+1  -9.88077E+1
  -1.99419E+2  -2.57495E+2
   2.81625E+1   6.11324E+1
  -7.14288E+1  -2.19168E+2
  -1.58081E+0   1.00736E+0
   1.42371E+2   4.22264E+1
   2.10075E+2  -1.11610E+2
  -4.28962E+1  -2.05382E+2
   1.72156E+2  -1.07636E+2
  -1.44281E+2   8.16844E+1
   5.69755E+0   1.18156E+2
  -3.00529E+2  -1.03696E+2
   3.37892E+1   1.02217E+2
  -3.49542E+0  -2.89096E+1
  -7.28680E+1  -1.81070E+2
   1.34964E+1   5.07672E+1
   5.26151E+1   7.59580E+1
  -1.03086E+2   8.04545E+1
  -1.04129E+2   4.24851E+1
  -9.54889E+1   3.49212E+2
  -2.11066E+2  -3.30952E+2
  -1.48867E+1  -8.66233E+1
   2.57988E+2  -1.19563E+1
   3.21950E+2   6.21995E+1
  -3.06704E+1  -5.26159E+1
   4.22573E+1  -1.54783E+2
