 LCModel (Version 6.3-1N) Copyright: S.W. Provencher.          Ref.: Magn. Reson. Med. 30:672-679 (1993).                
 Slice_N1@24_19  28-Feb-2025 11:43:23
 27 lines in following concentration table = NCONC+1
    Conc.  %SD /Cr+PCr  Metabolite                                         
 2.24E-04   4% 2.8E-04 Mac                                                 
    6.388  13%   8.000 Cr                                                  
    0.000 999%   0.000 PCr                                                 
    3.784  27%   4.739 Ins                                                 
    2.567  39%   3.215 NAA                                                 
    4.119  31%   5.158 Tau                                                 
    0.000 999%   0.000 PCho                                                
    1.918  14%   2.401 GPC                                                 
    8.964  12%  11.226 Glu                                                 
    3.319  29%   4.156 Gln                                                 
    0.000 999%   0.000 Ala                                                 
    1.937  77%   2.425 Asc                                                 
    2.151  52%   2.694 Asp                                                 
    0.959  66%   1.201 GABA                                                
    0.961  81%   1.204 Glc                                                 
    2.199  27%   2.753 GSH                                                 
   10.549   8%  13.211 Lac                                                 
    5.355  15%   6.705 NAAG                                                
    0.000 999%   0.000 PE                                                  
    1.918  14%   2.401 GPC+PCho                                            
    7.922  11%   9.920 NAA+NAAG                                            
   12.283  11%  15.382 Glu+Gln                                             
    6.388  13%   8.000 Cr+PCr                                              
    7.922  11%   9.920 NAA+NAAG                                            
    6.388  13%   8.000 Cr+PCr                                              
   12.283  11%  15.382 Glu+Gln                                             
   6 lines in following misc. output table
  FWHM = 0.098 ppm    S/N =   3                                            
  Data shift =-0.041 ppm                                                   
  Ph: -47 deg       0.0 deg/ppm                                            
  alphaB,S = 3.1E-01,   2.1E+02                                            
   19 spline knots.   Ns =11(1)                                            
  (16) 2 infls.   (16) 1 extrs.                                            
  480 points on ppm-axis = NY
      4.100000     4.091866     4.083733     4.075600     4.067466     4.059333     4.051199     4.043066     4.034933     4.026799
      4.018666     4.010532     4.002399     3.994265     3.986132     3.977998     3.969864     3.961731     3.953597     3.945463
      3.937330     3.929196     3.921062     3.912929     3.904795     3.896662     3.888528     3.880394     3.872261     3.864127
      3.855993     3.847860     3.839726     3.831592     3.823459     3.815325     3.807191     3.799058     3.790924     3.782790
      3.774657     3.766523     3.758389     3.750256     3.742122     3.733989     3.725855     3.717721     3.709588     3.701454
      3.693320     3.685187     3.677053     3.668919     3.660786     3.652652     3.644518     3.636385     3.628251     3.620117
      3.611984     3.603850     3.595716     3.587583     3.579449     3.571316     3.563182     3.555048     3.546915     3.538781
      3.530647     3.522514     3.514380     3.506246     3.498113     3.489979     3.481845     3.473712     3.465578     3.457444
      3.449311     3.441177     3.433043     3.424910     3.416776     3.408643     3.400509     3.392375     3.384242     3.376108
      3.367974     3.359841     3.351707     3.343573     3.335440     3.327306     3.319172     3.311039     3.302905     3.294771
      3.286638     3.278504     3.270370     3.262237     3.254103     3.245970     3.237836     3.229702     3.221569     3.213435
      3.205301     3.197168     3.189034     3.180900     3.172767     3.164633     3.156499     3.148366     3.140232     3.132098
      3.123965     3.115831     3.107697     3.099564     3.091430     3.083297     3.075163     3.067029     3.058896     3.050762
      3.042628     3.034495     3.026361     3.018227     3.010094     3.001960     2.993826     2.985693     2.977559     2.969425
      2.961292     2.953158     2.945024     2.936891     2.928757     2.920624     2.912490     2.904356     2.896223     2.888089
      2.879955     2.871822     2.863688     2.855554     2.847421     2.839287     2.831153     2.823020     2.814886     2.806752
      2.798619     2.790485     2.782351     2.774218     2.766084     2.757951     2.749817     2.741683     2.733550     2.725416
      2.717282     2.709149     2.701015     2.692881     2.684748     2.676614     2.668480     2.660347     2.652213     2.644079
      2.635946     2.627812     2.619678     2.611545     2.603411     2.595278     2.587144     2.579010     2.570877     2.562743
      2.554609     2.546476     2.538342     2.530208     2.522075     2.513941     2.505807     2.497674     2.489540     2.481406
      2.473273     2.465139     2.457006     2.448872     2.440738     2.432605     2.424471     2.416337     2.408204     2.400070
      2.391936     2.383803     2.375669     2.367535     2.359402     2.351268     2.343134     2.335001     2.326867     2.318733
      2.310600     2.302466     2.294333     2.286199     2.278065     2.269932     2.261798     2.253664     2.245531     2.237397
      2.229263     2.221130     2.212996     2.204862     2.196729     2.188595     2.180461     2.172328     2.164194     2.156060
      2.147927     2.139793     2.131660     2.123526     2.115392     2.107259     2.099125     2.090991     2.082858     2.074724
      2.066590     2.058457     2.050323     2.042189     2.034056     2.025922     2.017788     2.009655     2.001521     1.993387
      1.985254     1.977120     1.968987     1.960853     1.952719     1.944586     1.936452     1.928318     1.920185     1.912051
      1.903917     1.895784     1.887650     1.879516     1.871383     1.863249     1.855115     1.846982     1.838848     1.830714
      1.822581     1.814447     1.806314     1.798180     1.790046     1.781913     1.773779     1.765645     1.757512     1.749378
      1.741244     1.733111     1.724977     1.716843     1.708710     1.700576     1.692442     1.684309     1.676175     1.668041
      1.659908     1.651774     1.643641     1.635507     1.627373     1.619240     1.611106     1.602972     1.594839     1.586705
      1.578571     1.570438     1.562304     1.554170     1.546037     1.537903     1.529769     1.521636     1.513502     1.505368
      1.497235     1.489101     1.480968     1.472834     1.464700     1.456567     1.448433     1.440299     1.432166     1.424032
      1.415898     1.407765     1.399631     1.391497     1.383364     1.375230     1.367096     1.358963     1.350829     1.342695
      1.334562     1.326428     1.318295     1.310161     1.302027     1.293894     1.285760     1.277626     1.269493     1.261359
      1.253225     1.245092     1.236958     1.228824     1.220691     1.212557     1.204423     1.196290     1.188156     1.180022
      1.171889     1.163755     1.155622     1.147488     1.139354     1.131221     1.123087     1.114953     1.106820     1.098686
      1.090552     1.082419     1.074285     1.066151     1.058018     1.049884     1.041750     1.033617     1.025483     1.017349
      1.009216     1.001082     0.992949     0.984815     0.976681     0.968548     0.960414     0.952280     0.944147     0.936013
      0.927879     0.919746     0.911612     0.903478     0.895345     0.887211     0.879077     0.870944     0.862810     0.854676
      0.846543     0.838409     0.830276     0.822142     0.814008     0.805875     0.797741     0.789607     0.781474     0.773340
      0.765206     0.757073     0.748939     0.740805     0.732672     0.724538     0.716404     0.708271     0.700137     0.692003
      0.683870     0.675736     0.667603     0.659469     0.651335     0.643202     0.635068     0.626934     0.618801     0.610667
      0.602533     0.594400     0.586266     0.578132     0.569999     0.561865     0.553731     0.545598     0.537464     0.529330
      0.521197     0.513063     0.504930     0.496796     0.488662     0.480529     0.472395     0.464261     0.456128     0.447994
      0.439861     0.431727     0.423593     0.415460     0.407326     0.399192     0.391059     0.382925     0.374792     0.366658
      0.358524     0.350391     0.342257     0.334124     0.325990     0.317856     0.309723     0.301589     0.293455     0.285322
      0.277188     0.269055     0.260921     0.252787     0.244654     0.236520     0.228386     0.220253     0.212119     0.203986
 NY phased data points follow
   1.95154E+00 -4.90067E+00 -8.25054E+00 -1.48350E+01 -8.53854E+00 -6.03875E+00 -2.55646E+01 -1.29549E+01 -4.93252E+00 -1.18666E+01
  -2.21057E+01 -1.47726E+01 -3.36193E+00 -2.44266E+01 -1.80929E+01 -2.58033E+01 -5.10456E+01 -3.92010E+01 -2.85879E+01 -4.69528E+01
  -4.53681E+01 -4.36751E+01 -5.39734E+01 -3.26349E+01 -3.54038E+01 -3.19191E+01 -2.15425E+01 -2.71631E+01 -2.74001E+01 -2.18231E+01
  -1.60745E+01 -1.85574E+01 -1.50631E+01 -1.20332E+01 -3.79060E+00 -2.16059E+01 -2.72073E+01 -3.21280E+01 -3.65008E+01 -2.16394E+01
  -4.20478E+01 -3.40196E+01 -2.60956E+01 -3.54262E+01 -3.78543E+01 -2.49180E+01 -1.23888E+01 -1.48086E+01 -8.48750E+00 -7.45457E+00
  -3.71395E+00 -1.06448E+01 -5.03904E+00  6.36956E+00  5.11043E+00 -1.56711E+01 -1.92120E+01 -8.35353E+00 -4.74147E+00  9.52502E+00
  -1.01543E+01 -3.65068E+00  6.74785E+00  9.78567E+00  1.08748E+01  6.53970E+00  7.41884E+00 -1.54728E+01 -1.95648E+00  7.19177E-01
  -2.82263E+00  4.79674E+00  2.78874E+00  7.61483E+00  1.03687E+01  2.16438E+01  2.65675E+01  2.13487E+01  1.06877E+01  9.91173E+00
   1.08129E+01  9.17001E+00  1.12811E+01  2.01858E+01  1.79290E+01  1.61164E+01  8.21621E+00  9.55344E+00  2.78670E+01  1.19705E+01
   2.66423E+01  3.06385E+01  2.35220E+01  3.32631E+01  2.91172E+01  4.60999E+01  4.12817E+01  2.59892E+01  3.90247E+01  3.94614E+01
   1.83052E+01  1.79812E+01  7.18898E+00  1.43769E+01  1.21986E+01 -1.24852E+01 -1.70363E+01 -4.48238E+01 -4.30918E+01 -4.53046E+01
  -6.03103E+01 -7.38268E+01 -8.12769E+01 -7.15302E+01 -4.97919E+01 -3.15807E+01 -5.00638E+01 -3.43489E+01 -2.06743E+01 -8.20413E+00
  -1.27685E+01 -9.71266E+00  2.86027E+01  1.27933E+01  1.24756E+01  2.65195E+01  2.03156E+01  2.06897E+01  3.44773E+01  4.02313E+01
   2.36781E+01  1.24024E+01  4.31087E+00 -1.07865E+01 -1.58658E+01 -3.32687E+01 -5.76760E+01 -4.76888E+01 -5.01492E+01 -5.66376E+01
  -5.44331E+01 -5.68262E+01 -6.42922E+01 -4.76360E+01 -3.90116E+01 -5.52498E+01 -4.63194E+01 -5.53002E+01 -5.55878E+01 -5.83203E+01
  -6.02319E+01 -4.33604E+01 -3.09068E+01 -4.12863E+01 -5.05345E+01 -3.06561E+01 -3.61279E+01 -3.37291E+01 -4.05011E+01 -3.13610E+01
  -2.14740E+01 -3.09656E+01 -2.35697E+01 -3.44822E+01 -3.59921E+01 -2.63009E+01 -2.37008E+01 -3.24333E+01 -1.77646E+01 -1.51718E+01
  -1.86958E+01 -2.32220E+01 -1.81819E+01  2.88919E+00 -6.26747E+00 -3.72162E+00 -2.13957E+01 -9.75520E+00 -2.20648E+01 -3.82325E+01
  -1.43077E+01 -2.48136E+01 -2.35853E+01 -3.99054E+01 -3.92022E+01 -4.23090E+01 -4.13729E+01 -2.79622E+01 -3.49832E+01 -3.84882E+01
  -3.33783E+01 -2.26036E+01 -2.58254E+01 -2.04253E+01 -3.82216E+01 -3.39735E+01 -2.70602E+01 -2.10988E+01 -1.32055E+01 -3.54232E+01
  -2.23632E+01 -2.27460E+01 -2.06665E+01 -1.70310E+01 -2.79887E+01 -2.24565E+01 -2.49816E+01 -3.42417E+01 -2.11339E+01 -2.05526E+01
  -3.58387E+01 -2.78869E+01 -2.69616E+01 -1.15093E+01 -1.15886E+01 -1.16749E+01  7.12488E+00  9.49281E+00 -2.14147E-01 -7.80242E+00
   3.22748E+00 -1.39215E-02 -5.89494E+00 -1.03946E+01 -5.23326E+00 -2.36350E+01 -3.15953E+01 -9.26566E+00 -1.76618E+01 -1.05348E+01
  -2.06984E+01 -3.36908E+01 -2.66052E+01 -2.94800E+01 -3.71237E+01 -4.79787E+01 -4.48157E+01 -3.90712E+01 -3.94814E+01 -4.28729E+01
  -3.71199E+01 -3.21867E+01 -3.68053E+01 -3.72256E+01 -2.66256E+01 -2.89200E+01 -4.32460E+01 -2.77020E+01 -1.89002E+01 -3.33962E+01
  -3.08324E+01 -2.56024E+01 -2.55383E+01 -1.91789E+01  4.74045E+00  1.29003E+01  3.37398E+00  4.64102E+01  5.75240E+01  5.74674E+01
   9.62049E+01  8.22043E+01  6.46578E+01  7.54847E+01  8.30837E+01  6.77476E+01  5.91111E+01  5.83963E+01  5.95164E+01  6.64438E+01
   6.40047E+01  6.54268E+01  5.09646E+01  5.17162E+01  6.05207E+01  6.16187E+01  5.09912E+01  5.45977E+01  4.28472E+01  3.43346E+01
   6.82470E+01  3.74560E+01  4.95247E+01  5.57942E+01  2.62995E+01  5.63484E+01  5.42889E+01  5.02435E+01  3.19784E+01  2.13890E+01
   3.33176E+01  3.60293E+01  5.03697E+01  3.42995E+01  1.80623E+01  3.11770E+01  1.79581E+01  3.38799E+00  2.31326E+01  4.29451E+01
   3.13864E+01  3.40616E+00  2.37399E+01  3.59335E+01  2.78444E+01  3.46444E+01  4.28525E+01  4.59812E+01  3.96927E+01  5.21896E+01
   3.35730E+01  4.39458E+01  5.69696E+01  3.50165E+01  4.41981E+01  4.47395E+01  5.20964E+01  4.89586E+01  5.18200E+01  5.87712E+01
   4.97536E+01  4.67638E+01  6.82056E+01  7.96424E+01  5.89905E+01  6.48373E+01  7.07104E+01  8.17021E+01  6.93351E+01  5.56954E+01
   5.79537E+01  4.56447E+01  4.50620E+01  4.32858E+01  4.70121E+01  4.62287E+01  5.06596E+01  2.73868E+01  2.77971E+01  4.09037E+01
   2.58389E+01  2.93847E+01  1.01968E+00  3.85034E+00  1.00072E+01  1.74559E+00  1.49949E+01  1.87456E+00 -6.17659E+00  1.07424E+00
  -1.82252E+01 -2.80697E+01 -1.40009E+01 -3.79834E+01 -2.45082E+01 -1.35918E+01 -2.52008E+01 -2.50475E+01 -4.11627E+01 -1.65749E+01
  -1.34197E+01 -2.55935E+01 -1.99596E+01 -1.04735E+01 -1.13222E+01 -1.48836E+00  1.59453E+01  2.72504E+00  4.55947E+00  1.31790E+01
   3.02031E+01  1.70640E+01  1.78596E+01  3.39587E+01  2.95720E+01  4.10626E+01  3.33523E+01  4.64769E+01  4.64716E+01  3.71091E+01
   4.24257E+01  6.05731E+01  7.67321E+01  6.53189E+01  6.70655E+01  6.97122E+01  7.99382E+01  6.67960E+01  6.73258E+01  7.30102E+01
   5.37146E+01  5.36534E+01  4.33505E+01  4.34197E+01  4.16560E+01  2.74728E+01  1.87225E+01  1.58276E+01  1.46601E+01  1.28783E+01
  -6.35402E+00 -1.81186E+01 -1.30682E+01 -2.29078E+01 -2.12553E+01 -4.10102E+01 -4.36888E+01 -2.33256E+01 -2.25582E+01 -2.48125E+01
  -3.32696E+01 -3.81980E+01 -4.00355E+01 -2.66841E+01 -2.39091E+01 -3.22742E+01 -4.92843E+01 -4.34369E+01 -3.58345E+01 -4.12610E+01
  -2.18883E+01 -4.08664E+01 -3.34384E+01 -2.16575E+01 -4.25612E+01 -2.94283E+01 -3.57362E+01 -4.36814E+01 -2.36563E+01 -1.93424E+01
  -2.38880E+01 -3.75167E+01 -4.63913E+01 -2.08873E+01 -3.59466E+01 -3.33143E+01 -6.52036E+00 -3.79899E+01 -4.27531E+01 -3.15636E+01
  -2.85295E+01 -3.36456E+01 -3.49315E+01 -2.52064E+01 -3.30455E+01 -3.25548E+01 -2.80735E+01 -2.25197E+01 -1.65728E+01 -2.43135E+01
  -2.90494E+01 -7.39656E+00 -1.25829E+01 -4.17709E+01 -3.15283E+01 -2.56910E+01 -3.81432E+01 -2.21624E+01 -2.06077E+01 -3.91526E+01
  -2.15423E+01 -1.91953E+01 -3.40640E+01 -2.46464E+01 -1.59016E+00 -1.69505E+01 -2.63206E+01 -3.04459E+00 -2.85385E+01 -1.28491E+01
  -1.35209E+01 -3.07932E+01  7.79574E+00 -1.99893E+01 -2.21930E+01 -2.56303E+00 -2.84229E+01 -2.72032E+01 -2.19009E+01 -6.46981E+00
 NY points of the fit to the data follow
  -3.02764E+01 -2.74276E+01 -2.47647E+01 -2.24282E+01 -2.05469E+01 -1.92237E+01 -1.85361E+01 -1.85044E+01 -1.90846E+01 -2.02472E+01
  -2.19402E+01 -2.41897E+01 -2.68896E+01 -2.99036E+01 -3.30529E+01 -3.61367E+01 -3.90570E+01 -4.16512E+01 -4.37008E+01 -4.48759E+01
  -4.48354E+01 -4.33409E+01 -4.03490E+01 -3.60391E+01 -3.07482E+01 -2.48671E+01 -1.88249E+01 -1.30792E+01 -8.04710E+00 -4.03877E+00
  -1.21831E+00  3.55858E-01  6.88492E-01 -2.69060E-01 -2.62421E+00 -6.33099E+00 -1.08471E+01 -1.54763E+01 -1.97723E+01 -2.33079E+01
  -2.57718E+01 -2.69828E+01 -2.68875E+01 -2.55762E+01 -2.32645E+01 -2.02906E+01 -1.70271E+01 -1.38002E+01 -1.08650E+01 -8.33416E+00
  -6.24705E+00 -4.66339E+00 -3.63989E+00 -3.18964E+00 -3.06937E+00 -3.11099E+00 -3.17891E+00 -3.10463E+00 -2.82171E+00 -2.27634E+00
  -1.47261E+00 -4.23736E-01  8.03755E-01  2.08948E+00  3.23484E+00  4.08045E+00  4.60596E+00  4.92592E+00  5.20097E+00  5.55241E+00
   6.07898E+00  6.81266E+00  7.71759E+00  8.83443E+00  9.99076E+00  1.09667E+01  1.16969E+01  1.21174E+01  1.21875E+01  1.19080E+01
   1.13103E+01  1.04501E+01  9.42941E+00  8.50697E+00  7.94653E+00  7.85908E+00  8.33418E+00  9.43393E+00  1.11175E+01  1.32745E+01
   1.57893E+01  1.85546E+01  2.14508E+01  2.43662E+01  2.71309E+01  2.96208E+01  3.16632E+01  3.30184E+01  3.33497E+01  3.23906E+01
   2.99878E+01  2.60444E+01  2.05722E+01  1.36372E+01  5.30372E+00 -4.21637E+00 -1.44188E+01 -2.45644E+01 -3.38778E+01 -4.17197E+01
  -4.76745E+01 -5.15205E+01 -5.31771E+01 -5.27398E+01 -5.05097E+01 -4.68908E+01 -4.22252E+01 -3.66557E+01 -3.03204E+01 -2.31967E+01
  -1.55027E+01 -8.03477E+00 -9.94972E-01  5.51518E+00  1.13001E+01  1.61359E+01  1.98204E+01  2.21343E+01  2.27208E+01  2.11870E+01
   1.73655E+01  1.14527E+01  3.94417E+00 -4.55232E+00 -1.34369E+01 -2.21529E+01 -3.01675E+01 -3.70982E+01 -4.28416E+01 -4.74910E+01
  -5.12304E+01 -5.41303E+01 -5.60186E+01 -5.66515E+01 -5.60423E+01 -5.49620E+01 -5.38358E+01 -5.26223E+01 -5.13172E+01 -4.99235E+01
  -4.84346E+01 -4.68468E+01 -4.51789E+01 -4.34578E+01 -4.17365E+01 -4.00595E+01 -3.84282E+01 -3.68648E+01 -3.53764E+01 -3.39703E+01
  -3.26327E+01 -3.13231E+01 -3.00031E+01 -2.86658E+01 -2.73365E+01 -2.60530E+01 -2.48226E+01 -2.36186E+01 -2.24311E+01 -2.13226E+01
  -2.04224E+01 -1.98550E+01 -1.96748E+01 -1.98707E+01 -2.04053E+01 -2.12810E+01 -2.24906E+01 -2.39544E+01 -2.55547E+01 -2.71780E+01
  -2.87614E+01 -3.02678E+01 -3.16186E+01 -3.26543E+01 -3.32076E+01 -3.32189E+01 -3.27535E+01 -3.18838E+01 -3.06628E+01 -2.91626E+01
  -2.74430E+01 -2.56095E+01 -2.37976E+01 -2.21123E+01 -2.06427E+01 -1.94395E+01 -1.85173E+01 -1.78878E+01 -1.75576E+01 -1.75216E+01
  -1.77850E+01 -1.83581E+01 -1.92427E+01 -2.04010E+01 -2.17909E+01 -2.33488E+01 -2.49002E+01 -2.62309E+01 -2.71694E+01 -2.75139E+01
  -2.70988E+01 -2.57364E+01 -2.33502E+01 -2.00190E+01 -1.59323E+01 -1.13684E+01 -6.66487E+00 -2.20584E+00  1.65837E+00  4.67964E+00
   6.65833E+00  7.47093E+00  7.05492E+00  5.35308E+00  2.34142E+00 -1.92173E+00 -7.27551E+00 -1.35072E+01 -2.02731E+01 -2.70869E+01
  -3.36893E+01 -3.96523E+01 -4.47440E+01 -4.87853E+01 -5.16191E+01 -5.31803E+01 -5.34802E+01 -5.26729E+01 -5.09782E+01 -4.86500E+01
  -4.59953E+01 -4.33453E+01 -4.09912E+01 -3.90092E+01 -3.73688E+01 -3.60088E+01 -3.48117E+01 -3.36060E+01 -3.20677E+01 -2.96711E+01
  -2.59549E+01 -2.04659E+01 -1.31819E+01 -4.41057E+00  5.45569E+00  1.59990E+01  2.66739E+01  3.69233E+01  4.61614E+01  5.40424E+01
   6.04412E+01  6.53076E+01  6.86251E+01  7.03577E+01  7.04297E+01  6.90295E+01  6.67934E+01  6.44959E+01  6.21765E+01  5.98432E+01
   5.76874E+01  5.60481E+01  5.49408E+01  5.42889E+01  5.39981E+01  5.39694E+01  5.40986E+01  5.42835E+01  5.44285E+01  5.44488E+01
   5.42672E+01  5.38310E+01  5.31042E+01  5.20865E+01  5.07777E+01  4.92213E+01  4.74646E+01  4.55586E+01  4.35876E+01  4.16253E+01
   3.97650E+01  3.80892E+01  3.66757E+01  3.55887E+01  3.48725E+01  3.45484E+01  3.46157E+01  3.50591E+01  3.58497E+01  3.69446E+01
   3.82961E+01  3.98523E+01  4.15645E+01  4.33878E+01  4.52729E+01  4.71760E+01  4.90556E+01  5.08764E+01  5.26081E+01  5.42217E+01
   5.56829E+01  5.69559E+01  5.80087E+01  5.88119E+01  5.93346E+01  5.95442E+01  5.94056E+01  5.88865E+01  5.79612E+01  5.66161E+01
   5.48510E+01  5.26748E+01  5.01171E+01  4.72333E+01  4.41206E+01  4.09153E+01  3.77859E+01  3.49335E+01  3.25930E+01  3.10262E+01
   3.04059E+01  3.07395E+01  3.19149E+01  3.35949E+01  3.53951E+01  3.69120E+01  3.77501E+01  3.74509E+01  3.55492E+01  3.17227E+01
   2.59112E+01  1.84134E+01  9.83714E+00  9.33159E-01 -7.57657E+00 -1.51000E+01 -2.12496E+01 -2.58942E+01 -2.91003E+01 -3.10874E+01
  -3.20898E+01 -3.21821E+01 -3.13312E+01 -2.95398E+01 -2.71488E+01 -2.45334E+01 -2.18800E+01 -1.95630E+01 -1.73527E+01 -1.50975E+01
  -1.27263E+01 -1.02170E+01 -7.57594E+00 -4.81983E+00 -1.97722E+00  9.20903E-01  3.85355E+00  6.81966E+00  9.82562E+00  1.28930E+01
   1.60545E+01  1.93454E+01  2.28046E+01  2.64671E+01  3.03550E+01  3.44725E+01  3.87862E+01  4.32300E+01  4.77003E+01  5.20638E+01
   5.61649E+01  5.98273E+01  6.28690E+01  6.51178E+01  6.64264E+01  6.66956E+01  6.58880E+01  6.40284E+01  6.11884E+01  5.74885E+01
   5.30722E+01  4.80814E+01  4.26510E+01  3.69122E+01  3.09934E+01  2.50211E+01  1.91269E+01  1.34370E+01  8.05868E+00  3.07300E+00
  -1.47710E+00 -5.56984E+00 -9.20088E+00 -1.23745E+01 -1.51080E+01 -1.74209E+01 -1.93370E+01 -2.08902E+01 -2.21263E+01 -2.30940E+01
  -2.38421E+01 -2.44200E+01 -2.48633E+01 -2.52027E+01 -2.54606E+01 -2.56586E+01 -2.58066E+01 -2.59135E+01 -2.59854E+01 -2.60298E+01
  -2.60541E+01 -2.60657E+01 -2.60696E+01 -2.60660E+01 -2.60538E+01 -2.60345E+01 -2.60093E+01 -2.59780E+01 -2.59423E+01 -2.59068E+01
  -2.58712E+01 -2.58292E+01 -2.57791E+01 -2.57243E+01 -2.56654E+01 -2.56019E+01 -2.55357E+01 -2.54725E+01 -2.54168E+01 -2.53700E+01
  -2.53297E+01 -2.52946E+01 -2.52620E+01 -2.52306E+01 -2.51996E+01 -2.51677E+01 -2.51351E+01 -2.50979E+01 -2.50557E+01 -2.50058E+01
  -2.49492E+01 -2.48873E+01 -2.48218E+01 -2.47541E+01 -2.46868E+01 -2.46251E+01 -2.45700E+01 -2.45234E+01 -2.44835E+01 -2.44490E+01
  -2.44192E+01 -2.43914E+01 -2.43656E+01 -2.43427E+01 -2.43213E+01 -2.43033E+01 -2.42929E+01 -2.42951E+01 -2.43120E+01 -2.43456E+01
  -2.43925E+01 -2.44487E+01 -2.45063E+01 -2.45616E+01 -2.46097E+01 -2.46432E+01 -2.46556E+01 -2.46400E+01 -2.45857E+01 -2.44832E+01
 NY background values follow
    -7.592E+00   -7.626E+00   -7.660E+00   -7.694E+00   -7.728E+00   -7.762E+00   -7.796E+00   -7.830E+00   -7.864E+00   -7.897E+00
    -7.930E+00   -7.963E+00   -7.996E+00   -8.028E+00   -8.060E+00   -8.091E+00   -8.122E+00   -8.152E+00   -8.181E+00   -8.210E+00
    -8.238E+00   -8.265E+00   -8.291E+00   -8.317E+00   -8.341E+00   -8.365E+00   -8.387E+00   -8.408E+00   -8.429E+00   -8.448E+00
    -8.465E+00   -8.482E+00   -8.497E+00   -8.511E+00   -8.523E+00   -8.534E+00   -8.544E+00   -8.553E+00   -8.561E+00   -8.567E+00
    -8.572E+00   -8.576E+00   -8.578E+00   -8.580E+00   -8.580E+00   -8.579E+00   -8.577E+00   -8.574E+00   -8.569E+00   -8.563E+00
    -8.557E+00   -8.549E+00   -8.540E+00   -8.530E+00   -8.518E+00   -8.506E+00   -8.492E+00   -8.478E+00   -8.462E+00   -8.445E+00
    -8.428E+00   -8.409E+00   -8.389E+00   -8.368E+00   -8.346E+00   -8.323E+00   -8.299E+00   -8.275E+00   -8.249E+00   -8.222E+00
    -8.195E+00   -8.167E+00   -8.138E+00   -8.108E+00   -8.077E+00   -8.046E+00   -8.013E+00   -7.980E+00   -7.947E+00   -7.912E+00
    -7.877E+00   -7.842E+00   -7.806E+00   -7.769E+00   -7.731E+00   -7.693E+00   -7.655E+00   -7.616E+00   -7.576E+00   -7.536E+00
    -7.496E+00   -7.455E+00   -7.414E+00   -7.372E+00   -7.330E+00   -7.287E+00   -7.244E+00   -7.201E+00   -7.157E+00   -7.112E+00
    -7.068E+00   -7.022E+00   -6.977E+00   -6.931E+00   -6.885E+00   -6.838E+00   -6.791E+00   -6.743E+00   -6.695E+00   -6.647E+00
    -6.598E+00   -6.549E+00   -6.499E+00   -6.450E+00   -6.399E+00   -6.349E+00   -6.298E+00   -6.246E+00   -6.194E+00   -6.142E+00
    -6.090E+00   -6.037E+00   -5.983E+00   -5.930E+00   -5.876E+00   -5.822E+00   -5.767E+00   -5.713E+00   -5.658E+00   -5.602E+00
    -5.547E+00   -5.491E+00   -5.435E+00   -5.379E+00   -5.323E+00   -5.266E+00   -5.210E+00   -5.153E+00   -5.096E+00   -5.039E+00
    -4.982E+00   -4.925E+00   -4.868E+00   -4.811E+00   -4.754E+00   -4.697E+00   -4.640E+00   -4.582E+00   -4.525E+00   -4.468E+00
    -4.411E+00   -4.354E+00   -4.297E+00   -4.241E+00   -4.184E+00   -4.127E+00   -4.071E+00   -4.015E+00   -3.958E+00   -3.902E+00
    -3.846E+00   -3.790E+00   -3.735E+00   -3.679E+00   -3.624E+00   -3.569E+00   -3.514E+00   -3.459E+00   -3.404E+00   -3.350E+00
    -3.296E+00   -3.242E+00   -3.188E+00   -3.134E+00   -3.081E+00   -3.028E+00   -2.975E+00   -2.922E+00   -2.870E+00   -2.818E+00
    -2.766E+00   -2.714E+00   -2.663E+00   -2.612E+00   -2.562E+00   -2.511E+00   -2.461E+00   -2.411E+00   -2.362E+00   -2.312E+00
    -2.263E+00   -2.215E+00   -2.166E+00   -2.118E+00   -2.070E+00   -2.023E+00   -1.975E+00   -1.929E+00   -1.882E+00   -1.836E+00
    -1.790E+00   -1.744E+00   -1.698E+00   -1.653E+00   -1.608E+00   -1.564E+00   -1.520E+00   -1.476E+00   -1.432E+00   -1.389E+00
    -1.346E+00   -1.304E+00   -1.261E+00   -1.220E+00   -1.178E+00   -1.137E+00   -1.097E+00   -1.056E+00   -1.017E+00   -9.778E-01
    -9.393E-01   -9.014E-01   -8.640E-01   -8.273E-01   -7.913E-01   -7.559E-01   -7.212E-01   -6.873E-01   -6.541E-01   -6.216E-01
    -5.900E-01   -5.592E-01   -5.292E-01   -5.001E-01   -4.720E-01   -4.447E-01   -4.184E-01   -3.930E-01   -3.687E-01   -3.454E-01
    -3.231E-01   -3.019E-01   -2.817E-01   -2.625E-01   -2.444E-01   -2.273E-01   -2.111E-01   -1.960E-01   -1.818E-01   -1.686E-01
    -1.563E-01   -1.450E-01   -1.345E-01   -1.250E-01   -1.164E-01   -1.087E-01   -1.018E-01   -9.582E-02   -9.067E-02   -8.636E-02
    -8.288E-02   -8.021E-02   -7.834E-02   -7.726E-02   -7.696E-02   -7.743E-02   -7.865E-02   -8.061E-02   -8.330E-02   -8.671E-02
    -9.082E-02   -9.563E-02   -1.011E-01   -1.072E-01   -1.140E-01   -1.214E-01   -1.294E-01   -1.380E-01   -1.472E-01   -1.569E-01
    -1.671E-01   -1.779E-01   -1.891E-01   -2.009E-01   -2.131E-01   -2.257E-01   -2.388E-01   -2.523E-01   -2.662E-01   -2.805E-01
    -2.952E-01   -3.102E-01   -3.255E-01   -3.411E-01   -3.570E-01   -3.732E-01   -3.896E-01   -4.063E-01   -4.233E-01   -4.404E-01
    -4.577E-01   -4.752E-01   -4.931E-01   -5.113E-01   -5.299E-01   -5.490E-01   -5.687E-01   -5.891E-01   -6.102E-01   -6.320E-01
    -6.547E-01   -6.784E-01   -7.030E-01   -7.287E-01   -7.555E-01   -7.835E-01   -8.128E-01   -8.435E-01   -8.755E-01   -9.091E-01
    -9.441E-01   -9.808E-01   -1.019E+00   -1.059E+00   -1.101E+00   -1.145E+00   -1.191E+00   -1.239E+00   -1.289E+00   -1.341E+00
    -1.396E+00   -1.452E+00   -1.511E+00   -1.572E+00   -1.636E+00   -1.701E+00   -1.769E+00   -1.838E+00   -1.910E+00   -1.984E+00
    -2.060E+00   -2.138E+00   -2.218E+00   -2.300E+00   -2.383E+00   -2.469E+00   -2.557E+00   -2.646E+00   -2.738E+00   -2.831E+00
    -2.926E+00   -3.023E+00   -3.121E+00   -3.222E+00   -3.324E+00   -3.427E+00   -3.533E+00   -3.640E+00   -3.748E+00   -3.858E+00
    -3.970E+00   -4.083E+00   -4.198E+00   -4.314E+00   -4.432E+00   -4.551E+00   -4.671E+00   -4.792E+00   -4.915E+00   -5.038E+00
    -5.163E+00   -5.289E+00   -5.415E+00   -5.543E+00   -5.672E+00   -5.801E+00   -5.931E+00   -6.062E+00   -6.193E+00   -6.325E+00
    -6.458E+00   -6.591E+00   -6.725E+00   -6.859E+00   -6.993E+00   -7.128E+00   -7.263E+00   -7.398E+00   -7.533E+00   -7.669E+00
    -7.804E+00   -7.940E+00   -8.075E+00   -8.211E+00   -8.346E+00   -8.481E+00   -8.616E+00   -8.750E+00   -8.885E+00   -9.019E+00
    -9.152E+00   -9.285E+00   -9.417E+00   -9.549E+00   -9.681E+00   -9.811E+00   -9.941E+00   -1.007E+01   -1.020E+01   -1.033E+01
    -1.045E+01   -1.058E+01   -1.070E+01   -1.083E+01   -1.095E+01   -1.107E+01   -1.119E+01   -1.131E+01   -1.143E+01   -1.154E+01
    -1.166E+01   -1.177E+01   -1.188E+01   -1.199E+01   -1.210E+01   -1.221E+01   -1.232E+01   -1.242E+01   -1.253E+01   -1.263E+01
    -1.273E+01   -1.283E+01   -1.293E+01   -1.303E+01   -1.312E+01   -1.322E+01   -1.332E+01   -1.341E+01   -1.350E+01   -1.359E+01
    -1.368E+01   -1.377E+01   -1.386E+01   -1.395E+01   -1.404E+01   -1.412E+01   -1.421E+01   -1.429E+01   -1.438E+01   -1.446E+01
    -1.454E+01   -1.462E+01   -1.470E+01   -1.478E+01   -1.486E+01   -1.494E+01   -1.501E+01   -1.509E+01   -1.517E+01   -1.524E+01
    -1.532E+01   -1.539E+01   -1.547E+01   -1.554E+01   -1.561E+01   -1.569E+01   -1.576E+01   -1.583E+01   -1.590E+01   -1.598E+01
    -1.605E+01   -1.612E+01   -1.619E+01   -1.626E+01   -1.633E+01   -1.641E+01   -1.648E+01   -1.655E+01   -1.662E+01   -1.669E+01
 Mac      Conc. = 2.24E-04
  -2.36461E+01 -2.42466E+01 -2.48930E+01 -2.55892E+01 -2.63355E+01 -2.71189E+01 -2.79183E+01 -2.87039E+01 -2.94386E+01 -3.00875E+01
  -3.06197E+01 -3.10071E+01 -3.12111E+01 -3.11898E+01 -3.09083E+01 -3.03501E+01 -2.95179E+01 -2.84358E+01 -2.71477E+01 -2.57111E+01
  -2.41863E+01 -2.26263E+01 -2.10664E+01 -1.95336E+01 -1.80456E+01 -1.66224E+01 -1.52887E+01 -1.40687E+01 -1.29735E+01 -1.19885E+01
  -1.10946E+01 -1.02819E+01 -9.52190E+00 -8.78234E+00 -8.04904E+00 -7.32286E+00 -6.61367E+00 -5.92999E+00 -5.28358E+00 -4.68144E+00
  -4.13394E+00 -3.65594E+00 -3.26315E+00 -2.96706E+00 -2.77665E+00 -2.70266E+00 -2.74814E+00 -2.90350E+00 -3.13575E+00 -3.39602E+00
  -3.63937E+00 -3.83560E+00 -3.96861E+00 -4.02445E+00 -3.99542E+00 -3.87862E+00 -3.67979E+00 -3.42206E+00 -3.13183E+00 -2.83670E+00
  -2.55693E+00 -2.30505E+00 -2.07783E+00 -1.86272E+00 -1.64548E+00 -1.40603E+00 -1.12535E+00 -7.90379E-01 -3.95839E-01  5.01501E-02
   5.22883E-01  9.95586E-01  1.44779E+00  1.85935E+00  2.21107E+00  2.49807E+00  2.72164E+00  2.89708E+00  3.04538E+00  3.18603E+00
   3.33060E+00  3.49226E+00  3.68723E+00  3.92545E+00  4.20095E+00  4.49687E+00  4.79046E+00  5.04834E+00  5.24080E+00  5.33319E+00
   5.29363E+00  5.09494E+00  4.71099E+00  4.12033E+00  3.30719E+00  2.26304E+00  9.80215E-01 -5.41632E-01 -2.29688E+00 -4.26802E+00
  -6.43185E+00 -8.75003E+00 -1.11659E+01 -1.36003E+01 -1.59514E+01 -1.81057E+01 -1.99604E+01 -2.14347E+01 -2.24744E+01 -2.30578E+01
