 
 $NMID
 ID=''
 FMTDAT='(2E13.5)'
 TRAMP=   1.00000E+0
 VOLUME=   1.00000E+0
 $END
   2.02428E+4  -9.10949E+3
   1.42378E+4  -2.49527E+4
  -2.14780E+4  -1.36107E+4
  -8.84709E+3   2.56355E+4
   2.38181E+4   1.03706E+4
   5.24900E+3  -2.41294E+4
  -2.06229E+4  -3.74637E+3
   1.64381E+2   1.97324E+4
   1.80084E+4   2.65456E+3
  -1.25528E+3  -9.64508E+3
  -1.56526E+4   1.37191E+3
  -1.32195E+3   7.01995E+3
   9.56427E+3   1.14755E+3
  -1.21596E+3  -3.88722E+3
  -1.00847E+4  -2.53295E+3
   1.58501E+3   2.14581E+3
   9.47587E+3   1.63569E+3
  -1.55410E+3  -1.53140E+3
  -6.66148E+3   1.17803E+2
   2.15346E+3   1.69195E+3
   4.41017E+3  -1.60680E+3
  -1.31272E+3  -1.54191E+3
  -1.59748E+3   2.42274E+3
   8.23612E+2   1.21730E+3
   7.71987E+2  -2.35375E+3
   5.50895E+2  -3.69049E+2
  -3.93664E+2   3.55028E+3
  -8.35611E+2   1.47387E+3
   5.75580E+2  -2.45602E+3
   4.15530E+2   5.36179E+1
  -1.58315E+3   2.44479E+3
  -1.25259E+3  -2.70844E+2
   2.39328E+2  -1.75387E+3
  -3.44813E+2  -3.79137E+2
  -2.06100E+2  -1.30522E+3
   2.36333E+3  -1.47509E+3
   1.58258E+3   1.25859E+3
  -1.45146E+3   1.99310E+3
  -1.09205E+3  -1.34294E+2
   6.52754E+2  -8.04718E+2
  -3.95491E+2  -1.22801E+2
  -1.89185E+3  -2.61448E+2
   6.31527E+2  -7.63033E+2
   2.21415E+3  -4.54542E+2
   1.31723E+3   1.17126E+3
  -1.82964E+2   2.42437E+3
  -1.17554E+3   1.21182E+3
  -2.04716E+3  -9.11536E+2
  -1.09876E+3  -1.66199E+3
   2.98722E+2  -4.75182E+2
   8.81366E+2  -4.38723E+2
   7.90962E+2  -1.32265E+3
   4.42769E+2  -1.97295E+2
   2.83344E+2   1.49116E+3
   6.01319E+2   6.40490E+2
   8.43187E+1  -1.79781E+2
  -1.12911E+3   3.05416E+2
  -4.12545E+2  -3.95809E+2
   1.43962E+3  -1.17645E+3
   1.56122E+3  -9.34906E+1
   3.38424E+2   1.49667E+3
   1.42161E+1   1.44554E+3
   2.41837E+2   8.22708E+2
  -8.64671E+2   1.18518E+2
  -1.81303E+3  -3.02502E+2
  -8.04656E+2  -1.10381E+3
   1.28915E+3  -2.05257E+3
   1.79819E+3  -9.42151E+2
   8.97772E+2   6.58469E+2
  -4.11730E+2   1.05070E+3
  -1.57317E+1  -2.86661E+2
   1.17514E+3  -8.67348E+2
   7.14945E+2   7.15444E+2
  -2.06749E+2   8.75632E+2
  -1.56961E+2  -1.54137E+1
   9.81247E+1  -5.22598E+2
   9.00939E+1   3.92616E+2
   1.82664E+1   6.75739E+2
   1.83630E+2   8.23748E+0
  -1.56666E+2  -1.42642E+2
  -6.52087E+2  -6.58467E+2
   1.38018E+2  -6.23739E+2
   8.07666E+2  -1.70049E+2
   2.14258E+2  -1.91873E+2
  -1.22129E+2  -4.79666E+2
   6.17778E+2  -6.66743E+2
   1.03568E+3  -1.98278E+2
   2.56201E+2   4.58943E+2
  -3.50207E+2   2.36466E+2
   3.68318E+2  -4.94520E+1
   8.00819E+2   3.69325E+2
   4.45838E+1   9.16120E+2
  -1.13482E+3   5.66975E+2
  -8.22086E+2  -4.03494E+2
  -1.75889E+2  -7.83847E+2
   6.29925E+2  -9.54002E+2
   7.30100E+2  -2.80835E+2
   1.27403E+2   1.13438E+2
   7.23571E+1  -1.55936E+2
   5.77087E+2  -1.49154E+2
   4.84804E+2   5.21854E+2
  -2.57752E+2   6.85892E+2
  -6.16694E+2  -2.41724E+2
  -4.32991E+2  -9.82230E+2
   3.18928E+2  -4.78652E+2
   6.67407E+2   5.40472E+2
  -2.48818E+2   6.30876E+2
  -8.69653E+2  -4.19047E+2
   5.43748E+1  -1.13148E+3
   1.05713E+3  -3.67192E+2
   1.14030E+3   4.23707E+2
   1.59062E+2   8.00719E+2
  -2.06342E+2   5.95702E+2
  -1.32308E+2   3.22801E+2
  -3.37194E+2   2.88537E+2
  -6.55837E+2   1.36064E+2
  -8.15308E+2  -9.68365E+1
  -3.13634E+2  -9.93842E+2
   3.80767E+2  -1.04566E+3
   7.82968E+2  -5.50892E+2
   7.34522E+2   1.08266E+2
   4.51475E+2   5.91423E+2
   8.13871E+1   2.56940E+2
  -1.82207E+2   3.33936E+2
  -5.37803E+2   3.61742E+2
  -1.65920E+2  -3.24373E+2
  -9.59274E+1  -1.58328E+2
   2.73048E+2  -4.63502E+2
   4.75125E+2   2.21037E+1
  -1.02276E+2   6.69635E+2
  -4.69493E+2   1.29095E+2
  -3.64379E+2  -5.11660E+2
   1.46701E+2  -4.41216E+2
   2.28553E+2  -1.00045E+2
  -4.97677E+1  -1.48780E+2
   1.16417E+2  -3.25659E+2
   2.46973E+2  -1.46079E+2
   3.00918E+2   5.67161E+2
  -3.03678E+2   1.80626E+2
  -3.08078E+2  -3.41393E+2
  -4.97738E+2  -4.41084E+2
   1.27266E+2  -3.18265E+2
   7.50957E+2  -2.21909E+1
   2.60419E+2   6.88652E+2
  -4.75975E+2   5.16333E+2
  -7.16149E+2  -1.96806E+2
  -1.04820E+2  -3.10553E+2
  -1.42492E+2  -3.27093E+2
  -3.42018E+2  -1.77153E+2
  -4.65397E+2  -3.25455E+2
   1.73347E+2  -5.62727E+2
   5.60555E+2  -2.63230E+2
   1.70782E+2   3.79238E+2
  -4.46533E+2   7.36302E+2
  -3.10176E+2   1.76288E+2
   2.26424E+2  -2.42351E+2
   5.87095E+1   4.97443E+2
  -8.45008E+1   4.02803E+2
  -1.24531E+2   1.16044E+2
  -3.99869E+1   1.58302E+1
  -2.10136E+2   3.35359E+2
  -5.41826E+2  -4.15260E+1
  -3.55411E+2  -2.81351E+2
  -9.60663E+0  -1.65076E+2
   7.85838E+1  -2.04692E+2
   4.24076E+2   8.10418E+1
   2.61901E+2   2.34374E+2
  -1.66318E+2   2.11911E+2
  -3.07302E+2  -1.47697E+2
   1.29821E+2  -1.16664E+2
   4.06555E+2  -9.40283E+0
   2.44667E+1   2.49467E+2
  -2.21725E+2   1.71830E+2
  -1.16249E+1  -5.04505E+1
   4.88270E+2  -3.69074E+2
   3.59697E+2   3.44976E+2
  -4.61509E+2   5.22616E+2
  -2.49234E+2  -3.28017E+1
  -3.15616E+1  -3.46503E+2
   5.66824E+2   2.24362E+2
   1.82046E+2   3.64499E+2
  -2.23736E+2   1.98205E+2
  -4.13724E+2  -4.29272E+1
   5.82749E+1  -4.85230E+2
  -7.14403E+1  -4.39628E+2
  -4.31560E+1  -4.08488E+2
  -3.76693E+1  -6.35056E+1
   2.82651E+2  -2.86808E+2
   5.63765E+2   2.21969E+2
   2.82171E+2   6.67039E+2
  -2.83026E+2   5.63498E+2
  -6.11795E+2  -1.28088E+2
  -2.69520E+2  -6.29337E+2
   1.35944E+2  -4.36597E+2
   3.66855E+2  -3.73846E+2
   9.69085E+1   4.69018E+1
  -3.19308E+2   9.36855E+1
   2.51469E+2   1.45620E+2
  -6.87528E+1   8.17631E+1
  -3.25165E+2   2.57030E+2
  -5.65273E+2  -3.15502E+2
   1.88530E+2  -7.47503E+2
   4.60427E+2  -3.14134E+2
   2.28518E+2   2.34636E+2
  -6.54375E+1   2.16842E+2
  -1.17475E+2   6.32459E+1
  -3.09334E+2  -3.07393E+2
  -9.58797E+0  -8.72797E+1
  -1.09707E+1   1.82118E+2
  -2.60460E+2   3.32419E+2
  -2.59721E+2  -2.26266E+2
   2.34601E+2  -1.24404E+2
   1.19665E+2   4.01190E+2
  -1.05308E+2   5.20932E+2
  -6.54415E+2   4.72470E+1
  -3.79259E+2  -4.78146E+2
  -1.20054E+2  -4.77069E+2
   2.86629E+2  -1.16293E+1
   2.13698E+2  -1.42600E+2
   8.32189E+1   4.28312E+1
   1.29871E+2  -2.04405E+2
   5.32613E+1   1.68242E+2
  -1.32499E+2   4.61886E+2
  -6.52757E+2  -4.98824E+1
  -4.40417E+2  -3.17623E+2
   1.24370E+2  -1.19903E+2
   2.52264E+2  -2.29819E+1
   1.75057E+1   3.13517E+2
  -2.82018E+2   1.30012E+2
  -2.63457E+2  -1.69299E+1
  -6.91399E+1  -9.35512E+1
   2.65132E+2   1.93592E+2
  -1.17573E+2  -1.94901E+2
  -2.12892E+2   2.36210E+2
  -1.33394E+1  -4.51748E+1
   8.66374E+0   3.25502E+1
   1.02310E+2   1.51473E+2
  -1.96664E+2  -8.01628E+1
  -2.72254E+2  -1.20044E+2
  -1.27497E+2  -3.41480E+1
   1.39140E+2   1.03932E+2
   6.60253E+0   3.61947E+2
  -3.01670E+2  -3.79993E+1
  -1.21342E+2  -2.17301E+2
  -5.74314E+1  -1.44959E+2
   1.20519E+2   1.00055E+2
   2.11033E+1   9.07030E+1
  -9.18650E+1  -5.18144E+0
  -1.35174E+2  -2.07829E+2
   3.53048E+2   1.16693E+2
   7.24538E+1   1.88843E+2
  -1.91804E+2   1.15643E+1
  -1.24903E+2  -1.52796E+2
   2.37776E+1  -3.36785E+2
   2.09562E+2  -2.62315E+2
   2.70087E+2   5.75770E+1
  -1.81367E+2   2.27713E+2
  -9.80298E+0  -6.92286E+1
  -1.31982E+2  -1.91732E+2
   1.10130E+1   8.69108E+1
  -5.43540E+2   3.14804E+2
  -2.48796E+2  -2.21980E+2
  -7.46741E+1  -4.46166E+2
   1.24717E+2  -2.26216E+2
   2.74742E+2   1.24045E+2
  -2.22200E+2   3.92232E+2
  -2.27598E+2  -2.22635E+2
  -2.81317E+2  -1.79459E+2
  -1.52881E+2  -1.78293E+2
  -2.09878E+1   7.27538E+1
  -1.11279E+2   6.49765E+1
  -3.78395E+1  -8.73502E+1
  -1.14379E+2  -2.77556E+2
   8.06958E+1   3.68954E+2
  -6.30313E+1   1.97889E+2
  -2.67803E+2   2.16307E+1
  -7.40134E+1  -1.98513E+2
   2.75808E+2  -1.63606E+2
   3.59897E+2   5.57617E+1
   2.81702E+1   7.15066E+1
  -1.78909E+2   3.64177E-1
  -6.64636E+1   1.53293E+1
   1.49547E+1   1.55593E+2
  -1.20863E+2   2.05395E+2
  -4.10980E+2  -1.64060E+2
  -1.92601E+2  -4.42793E+2
   2.06821E+2  -3.35981E+2
   1.83023E+2   1.06263E+2
   2.47825E+2   3.19607E+2
  -2.90827E+2   3.17175E+2
  -2.54116E+2  -1.65812E+2
   2.44438E+1  -2.10761E+2
  -2.88625E+1  -2.40924E+2
   7.48824E-1   1.74770E+2
  -1.30943E+2   1.02162E+2
   1.19659E+2  -1.54834E+2
  -9.22678E+1   1.63468E+2
   1.54925E+2   1.47415E+2
  -3.34602E+2   1.85797E+2
  -1.25176E+2  -9.81160E+1
   1.96427E+2  -1.98296E+2
   3.74628E+2   2.45364E+2
  -1.31796E+1   2.72590E+2
  -3.74060E+2   1.16268E+2
   1.58290E+1  -1.62241E+2
   2.28719E+2  -1.48781E+2
   2.07303E+2  -4.60986E+1
   1.25468E+2   3.61691E+0
   1.40108E+2   5.67476E+0
  -1.81915E+2  -7.46457E+1
   2.37637E+2  -2.24240E+1
   6.72553E+1   2.15941E+2
  -5.52110E+1   3.80531E+2
  -2.44435E+2  -8.92326E+1
   1.27827E+2  -1.98039E+2
   2.21961E+2  -1.93206E+2
  -3.22423E+1   1.02618E+1
  -1.47748E+2  -9.58567E+1
  -6.84739E+1  -2.82043E+2
  -1.14703E+2  -2.53926E+2
   6.03274E+1   9.44189E+1
  -1.05635E+2   6.86372E+1
  -2.01793E+1  -1.47408E+2
  -1.15585E+0  -1.73272E+2
   2.29732E+2  -6.18936E+1
  -1.67666E+2   2.28601E+2
   8.53327E+1   2.10079E+2
  -2.84652E+2  -2.21104E+2
  -2.09768E+2  -2.64722E+2
   1.37745E+2  -1.58249E+2
   1.12850E+2   2.86013E+2
   1.53199E+2  -1.67303E+2
  -1.88237E+1  -9.40914E+1
  -2.36551E+1   1.88815E+2
  -6.50967E+0   2.37251E+2
  -3.42257E+2   8.46420E+1
  -3.62124E+2  -1.17104E+2
  -2.91552E+1  -3.63222E+2
  -2.95502E+1  -2.99096E+2
   1.62696E+2   2.56733E+1
  -9.51118E+1   1.67033E+2
  -2.38176E+2  -1.44467E+2
  -3.55877E+1  -1.18053E+2
   1.60706E+2   8.58498E+0
   1.33683E+2   6.53313E+1
  -9.24388E+1  -1.20857E+2
   1.63747E+2  -2.45372E+2
   3.81046E+2  -1.89068E+1
   9.06795E+1   1.37313E+2
  -2.88240E+2   1.73376E+2
  -2.04680E+2  -1.89606E+2
  -6.37769E+0  -1.64868E+2
   4.65005E+1  -4.70386E+2
   1.00847E+2   1.25975E+1
  -1.03074E+1  -7.49446E+1
   1.82472E+2  -1.70985E+2
   1.74369E+1  -5.24466E+1
   3.08755E+2   4.80367E+1
  -1.63408E+2  -5.81334E+1
  -9.06201E+1  -6.27304E+1
   6.35001E+1  -3.92306E+2
   2.39915E+2  -2.70546E+2
   2.53718E+2  -6.91295E+1
  -9.52916E+1   2.67278E+2
  -8.43863E+1   8.43837E+1
  -9.45867E+1  -1.54952E+2
  -2.49283E+1  -1.52727E+1
