 
 $NMID
 ID=''
 FMTDAT='(2E13.5)'
 TRAMP=   1.00000E+0
 VOLUME=   1.00000E+0
 $END
  -3.85300E+5   1.66088E+5
  -1.04921E+6   6.85170E+4
  -9.74062E+5   1.70400E+5
  -9.49908E+5   8.04941E+4
  -1.04351E+6   1.08980E+5
  -9.96161E+5   2.10564E+5
  -9.11531E+5   1.87791E+5
  -9.34962E+5   1.55263E+5
  -9.49792E+5   1.89437E+5
  -9.39843E+5   2.16636E+5
  -9.22398E+5   2.45434E+5
  -8.78404E+5   2.55953E+5
  -8.69566E+5   2.39036E+5
  -8.89452E+5   2.59942E+5
  -8.66309E+5   2.97493E+5
  -8.33969E+5   3.05657E+5
  -8.29383E+5   3.13188E+5
  -8.17788E+5   3.20647E+5
  -8.08710E+5   3.21888E+5
  -8.03117E+5   3.41224E+5
  -7.82261E+5   3.56136E+5
  -7.66838E+5   3.55344E+5
  -7.60449E+5   3.63488E+5
  -7.47292E+5   3.72835E+5
  -7.37562E+5   3.75647E+5
  -7.26271E+5   3.93252E+5
  -7.06011E+5   4.04659E+5
  -6.92184E+5   4.04902E+5
  -6.84570E+5   4.10895E+5
  -6.71578E+5   4.22980E+5
  -6.60594E+5   4.29893E+5
  -6.46010E+5   4.36312E+5
  -6.31279E+5   4.36703E+5
  -6.24222E+5   4.37300E+5
  -6.15990E+5   4.45207E+5
  -6.00748E+5   4.52875E+5
  -5.89634E+5   4.54079E+5
  -5.80439E+5   4.54189E+5
  -5.69145E+5   4.55502E+5
  -5.60266E+5   4.60984E+5
  -5.48574E+5   4.66323E+5
  -5.34294E+5   4.67477E+5
  -5.22600E+5   4.68045E+5
  -5.13619E+5   4.71612E+5
  -5.03553E+5   4.74965E+5
  -4.93448E+5   4.77589E+5
  -4.82806E+5   4.78207E+5
  -4.73555E+5   4.75399E+5
  -4.64579E+5   4.73488E+5
  -4.55846E+5   4.74125E+5
  -4.46665E+5   4.74361E+5
  -4.37386E+5   4.73005E+5
  -4.28052E+5   4.71203E+5
  -4.19929E+5   4.69143E+5
  -4.12577E+5   4.67745E+5
  -4.03882E+5   4.66990E+5
  -3.94712E+5   4.64857E+5
  -3.85272E+5   4.61882E+5
  -3.76428E+5   4.59225E+5
  -3.68781E+5   4.58217E+5
  -3.60933E+5   4.57165E+5
  -3.52230E+5   4.54497E+5
  -3.44270E+5   4.51026E+5
  -3.37123E+5   4.47040E+5
  -3.29845E+5   4.43330E+5
  -3.21857E+5   4.40087E+5
  -3.13248E+5   4.35998E+5
  -3.05054E+5   4.32380E+5
  -2.98396E+5   4.29131E+5
  -2.92682E+5   4.26050E+5
  -2.85607E+5   4.21388E+5
  -2.77005E+5   4.17443E+5
  -2.69348E+5   4.14621E+5
  -2.63889E+5   4.10630E+5
  -2.57483E+5   4.05786E+5
  -2.49825E+5   4.02004E+5
  -2.42751E+5   3.98507E+5
  -2.36123E+5   3.93530E+5
  -2.29870E+5   3.88057E+5
  -2.23514E+5   3.83526E+5
  -2.17584E+5   3.78991E+5
  -2.10662E+5   3.74319E+5
  -2.03989E+5   3.69416E+5
  -1.97895E+5   3.64557E+5
  -1.92767E+5   3.59637E+5
  -1.86519E+5   3.55227E+5
  -1.79820E+5   3.51143E+5
  -1.73354E+5   3.46956E+5
  -1.67831E+5   3.41974E+5
  -1.61734E+5   3.37194E+5
  -1.55104E+5   3.33501E+5
  -1.48816E+5   3.29891E+5
  -1.43053E+5   3.25506E+5
  -1.37211E+5   3.19661E+5
  -1.31163E+5   3.15060E+5
  -1.25152E+5   3.11292E+5
  -1.19002E+5   3.07857E+5
  -1.13250E+5   3.03286E+5
  -1.07486E+5   2.98526E+5
  -1.01800E+5   2.94851E+5
  -9.63486E+4   2.91846E+5
  -9.08688E+4   2.87846E+5
  -8.48318E+4   2.83551E+5
  -7.96326E+4   2.79322E+5
  -7.39552E+4   2.75790E+5
  -6.80450E+4   2.72921E+5
  -6.24144E+4   2.69874E+5
  -5.74772E+4   2.66020E+5
  -5.21207E+4   2.61652E+5
  -4.60658E+4   2.58421E+5
  -4.06524E+4   2.55999E+5
  -3.57900E+4   2.52963E+5
  -3.11349E+4   2.49362E+5
  -2.61599E+4   2.45648E+5
  -2.13582E+4   2.42915E+5
  -1.68590E+4   2.40319E+5
  -1.23524E+4   2.36996E+5
  -7.41553E+3   2.33680E+5
  -2.48156E+3   2.30758E+5
   2.43411E+3   2.28309E+5
   6.78013E+3   2.26047E+5
   1.15726E+4   2.23404E+5
   1.60532E+4   2.20584E+5
   2.02774E+4   2.17981E+5
   2.41397E+4   2.15807E+5
   2.88849E+4   2.13145E+5
   3.32667E+4   2.10944E+5
   3.71768E+4   2.08406E+5
   4.14067E+4   2.06036E+5
   4.48253E+4   2.04106E+5
   4.84334E+4   2.02113E+5
   5.16917E+4   1.99972E+5
   5.55760E+4   1.97471E+5
   5.92162E+4   1.95801E+5
   6.21220E+4   1.94015E+5
   6.58288E+4   1.92422E+5
   6.94319E+4   1.89821E+5
   7.31696E+4   1.88471E+5
   7.63155E+4   1.87264E+5
   7.90937E+4   1.85604E+5
   8.24051E+4   1.83705E+5
   8.56044E+4   1.81720E+5
   8.90937E+4   1.80200E+5
   9.19009E+4   1.79142E+5
   9.44855E+4   1.77857E+5
   9.71331E+4   1.76229E+5
   9.97689E+4   1.74524E+5
   1.02570E+5   1.72995E+5
   1.05326E+5   1.71862E+5
   1.07265E+5   1.70893E+5
   1.09634E+5   1.69066E+5
   1.12332E+5   1.67839E+5
   1.14812E+5   1.66676E+5
   1.17062E+5   1.65607E+5
   1.19079E+5   1.64465E+5
   1.21163E+5   1.63035E+5
   1.23308E+5   1.61720E+5
   1.25495E+5   1.60558E+5
   1.27255E+5   1.59552E+5
   1.29192E+5   1.57789E+5
   1.30816E+5   1.56864E+5
   1.32857E+5   1.55865E+5
   1.34062E+5   1.54598E+5
   1.35351E+5   1.53220E+5
   1.36935E+5   1.51892E+5
   1.38597E+5   1.50876E+5
   1.40124E+5   1.50001E+5
   1.41414E+5   1.48826E+5
   1.42430E+5   1.48060E+5
   1.43447E+5   1.46536E+5
   1.44470E+5   1.45294E+5
   1.45749E+5   1.44204E+5
   1.46264E+5   1.43113E+5
   1.47004E+5   1.41954E+5
   1.47693E+5   1.40648E+5
   1.48385E+5   1.39708E+5
   1.48987E+5   1.39157E+5
   1.48874E+5   1.38111E+5
   1.48946E+5   1.36616E+5
   1.49345E+5   1.35823E+5
   1.49927E+5   1.34755E+5
   1.50159E+5   1.34029E+5
   1.49500E+5   1.33238E+5
   1.49623E+5   1.32259E+5
   1.49440E+5   1.31317E+5
   1.49288E+5   1.30077E+5
   1.49117E+5   1.29523E+5
   1.48590E+5   1.28367E+5
   1.48499E+5   1.27288E+5
   1.48557E+5   1.26587E+5
   1.47845E+5   1.25973E+5
   1.47407E+5   1.25499E+5
   1.46136E+5   1.24637E+5
   1.45515E+5   1.23621E+5
   1.44962E+5   1.22749E+5
   1.44246E+5   1.22259E+5
   1.43254E+5   1.21675E+5
   1.41932E+5   1.21254E+5
   1.41233E+5   1.20388E+5
   1.40250E+5   1.19978E+5
   1.39142E+5   1.19460E+5
   1.37757E+5   1.18928E+5
   1.36606E+5   1.17912E+5
   1.35669E+5   1.17251E+5
   1.34635E+5   1.16731E+5
   1.33202E+5   1.16367E+5
   1.31806E+5   1.15711E+5
   1.30457E+5   1.15041E+5
   1.29167E+5   1.14401E+5
   1.27702E+5   1.13829E+5
   1.26109E+5   1.13354E+5
   1.24698E+5   1.12325E+5
   1.23450E+5   1.11710E+5
   1.22368E+5   1.11192E+5
   1.20485E+5   1.10697E+5
   1.18810E+5   1.09895E+5
   1.17387E+5   1.09170E+5
   1.15912E+5   1.08072E+5
   1.14432E+5   1.07205E+5
   1.13028E+5   1.06453E+5
   1.11437E+5   1.05585E+5
   1.10052E+5   1.04784E+5
   1.08709E+5   1.03802E+5
   1.07249E+5   1.03099E+5
   1.05547E+5   1.02381E+5
   1.03895E+5   1.00842E+5
   1.02621E+5   9.98264E+4
   1.01266E+5   9.88627E+4
   9.98511E+4   9.81831E+4
   9.82312E+4   9.69591E+4
   9.63785E+4   9.58392E+4
   9.49421E+4   9.45855E+4
   9.36133E+4   9.33932E+4
   9.21988E+4   9.24064E+4
   9.08369E+4   9.12485E+4
   8.94936E+4   9.00921E+4
   8.78380E+4   8.89009E+4
   8.61337E+4   8.76489E+4
   8.49912E+4   8.66939E+4
   8.33545E+4   8.52383E+4
   8.22036E+4   8.39313E+4
   8.10208E+4   8.26375E+4
   7.94389E+4   8.14712E+4
   7.77632E+4   8.03968E+4
   7.65118E+4   7.89712E+4
   7.51981E+4   7.78003E+4
   7.37551E+4   7.66884E+4
   7.23176E+4   7.53914E+4
   7.10177E+4   7.40495E+4
   6.96052E+4   7.29581E+4
   6.85303E+4   7.17452E+4
   6.69989E+4   7.07981E+4
   6.55002E+4   6.97153E+4
   6.40470E+4   6.84806E+4
   6.29216E+4   6.71326E+4
   6.16931E+4   6.57040E+4
   6.05221E+4   6.48906E+4
   5.90317E+4   6.41423E+4
   5.73915E+4   6.29587E+4
   5.63518E+4   6.19638E+4
   5.49620E+4   6.07461E+4
   5.35980E+4   5.98814E+4
   5.20459E+4   5.85960E+4
   5.09039E+4   5.73906E+4
   4.98030E+4   5.67347E+4
   4.88665E+4   5.57023E+4
   4.71286E+4   5.48526E+4
   4.59786E+4   5.40456E+4
   4.47508E+4   5.25067E+4
   4.36135E+4   5.18552E+4
   4.22843E+4   5.07798E+4
   4.13338E+4   4.99810E+4
   4.01358E+4   4.89780E+4
   3.91524E+4   4.79658E+4
   3.80855E+4   4.68730E+4
   3.69102E+4   4.63677E+4
   3.58294E+4   4.54609E+4
   3.45713E+4   4.42593E+4
   3.36622E+4   4.33755E+4
   3.26665E+4   4.28013E+4
   3.16497E+4   4.18081E+4
   3.02222E+4   4.07624E+4
   2.95018E+4   3.98365E+4
   2.86870E+4   3.92563E+4
   2.75433E+4   3.82686E+4
   2.65072E+4   3.77238E+4
   2.54272E+4   3.65477E+4
   2.45931E+4   3.54660E+4
   2.38781E+4   3.45067E+4
   2.31790E+4   3.40320E+4
   2.20571E+4   3.33008E+4
   2.10637E+4   3.21925E+4
   2.03250E+4   3.15330E+4
   1.94469E+4   3.08494E+4
   1.86680E+4   2.99783E+4
   1.78631E+4   2.91967E+4
   1.73479E+4   2.82451E+4
   1.63703E+4   2.74515E+4
   1.55272E+4   2.68998E+4
   1.46546E+4   2.60724E+4
   1.41100E+4   2.51131E+4
   1.33013E+4   2.40901E+4
   1.27283E+4   2.37436E+4
   1.20511E+4   2.29919E+4
   1.11743E+4   2.20090E+4
   1.04826E+4   2.14036E+4
   9.77120E+3   2.08294E+4
   9.07906E+3   2.00497E+4
   8.40644E+3   1.92893E+4
   7.88066E+3   1.85760E+4
   7.20154E+3   1.78498E+4
   6.54574E+3   1.72555E+4
   5.99620E+3   1.65090E+4
   5.42528E+3   1.59069E+4
   4.62789E+3   1.51364E+4
   4.11086E+3   1.45969E+4
   3.67242E+3   1.38593E+4
   3.32104E+3   1.31184E+4
   2.40502E+3   1.25032E+4
   2.00835E+3   1.16216E+4
   1.27318E+3   1.12305E+4
   5.97933E+2   1.07349E+4
   2.06775E+2   1.02361E+4
  -8.47414E+1   9.47693E+3
  -6.74842E+2   8.98414E+3
  -1.18384E+3   7.97556E+3
  -1.63579E+3   7.61844E+3
  -2.13297E+3   7.28702E+3
  -2.69721E+3   6.54722E+3
  -2.69648E+3   6.05983E+3
  -3.32495E+3   5.64656E+3
  -3.82258E+3   4.96163E+3
  -4.34606E+3   4.46137E+3
  -4.79095E+3   3.89865E+3
  -5.26680E+3   3.51418E+3
  -5.57031E+3   2.87096E+3
  -6.06390E+3   2.30104E+3
  -6.53233E+3   1.99336E+3
  -6.98235E+3   1.27232E+3
  -7.24272E+3   9.13776E+2
  -7.50301E+3   5.25702E+2
  -7.84895E+3   6.33561E+1
  -8.42107E+3  -3.90347E+2
  -8.80593E+3  -8.01189E+2
  -8.89232E+3  -1.28491E+3
  -9.37571E+3  -1.79724E+3
  -9.75839E+3  -2.10643E+3
  -1.01398E+4  -2.31248E+3
  -1.03885E+4  -2.98714E+3
  -1.03859E+4  -3.10964E+3
  -1.09060E+4  -3.55929E+3
  -1.13323E+4  -3.99576E+3
  -1.14753E+4  -4.57833E+3
  -1.18058E+4  -4.58510E+3
  -1.20130E+4  -4.85241E+3
  -1.19848E+4  -5.36388E+3
  -1.24494E+4  -5.75572E+3
  -1.26212E+4  -6.05228E+3
  -1.29073E+4  -6.39358E+3
  -1.32069E+4  -6.63423E+3
  -1.33455E+4  -6.93320E+3
  -1.34492E+4  -7.24252E+3
  -1.38240E+4  -7.71804E+3
  -1.40416E+4  -7.62849E+3
  -1.39961E+4  -8.13782E+3
  -1.42422E+4  -8.15497E+3
  -1.44646E+4  -8.72146E+3
