 
 $NMID
 ID=''
 FMTDAT='(2E13.5)'
 TRAMP=   1.00000E+0
 VOLUME=   1.00000E+0
 $END
   8.07854E+3   1.32782E+4
   6.98711E+3  -2.48248E+3
  -3.29492E+3  -5.91728E+2
   7.92214E+2   9.25733E+3
  -1.65295E+2   3.66061E+3
  -6.34866E+3  -3.26235E+3
  -2.00923E+3  -7.21615E+2
   9.24208E+2   1.59071E+2
  -2.49131E+3  -1.25939E+2
  -1.69309E+3   2.34687E+2
  -8.92338E+1  -2.48037E+3
  -5.06798E+2  -2.98230E+3
   1.18365E+3  -2.95273E+2
   1.45760E+3  -1.00901E+2
  -4.82634E+1  -2.18992E+3
   2.72420E+3  -6.39306E+2
   3.93443E+3   2.25249E+3
   1.64394E+2   2.51588E+3
  -9.97785E+2   1.03501E+3
   4.33352E+2   9.92101E+2
  -1.06927E+3   1.64796E+3
  -1.52164E+3   5.24138E+1
   2.17650E+2  -6.61389E+2
  -4.84989E+2  -2.42033E+1
  -2.17534E+3  -1.45990E+3
  -2.05540E+2  -2.30402E+3
   2.26835E+3  -4.44343E+2
   1.86245E+2   1.04038E+3
  -9.08656E+2  -8.38197E+2
   1.33968E+3  -1.61522E+3
   2.06444E+3   4.76262E+2
   2.16692E+2   1.94611E+3
  -1.14145E+3   1.56619E+3
  -1.15432E+3   2.89293E+2
   1.17486E+2  -4.71880E+2
   8.99075E+2  -2.85665E+2
   3.57771E+1   6.96950E+2
  -1.19204E+3   7.30616E+2
  -9.38466E+2  -1.48994E+2
  -3.36023E+2  -4.81031E+2
  -8.08691E+2   3.82815E+1
  -3.10001E+2  -8.24627E+2
   6.68912E+2  -1.46096E+3
   5.76508E+2  -4.73581E+2
   5.04947E+2   9.47171E+1
   1.01191E+3   5.37953E+2
   7.59736E+2   1.49725E+3
  -4.54921E+2   1.24455E+3
  -1.42346E+3   2.90682E+1
  -6.44885E+2   5.46370E+1
  -6.68824E+1   2.19077E+2
  -1.36103E+2  -3.09998E+1
  -1.67382E+2  -3.94498E+2
   2.75263E+2  -8.38863E+1
  -2.24118E+2   2.63188E+1
  -1.98764E+2  -3.14534E+1
   1.77669E+2  -1.84054E+2
  -2.13014E+2  -4.36466E+2
   1.72350E+2  -5.04854E+2
   5.71776E+2   2.69291E+1
   5.09091E+2   7.28953E+1
   4.47942E+2   6.37377E+2
   2.24842E+2   5.02420E+2
  -1.49442E+2   5.97445E+2
  -8.65223E+2   1.07142E+2
  -5.59163E+2  -1.40732E+1
  -2.36079E+2  -2.46133E+2
  -4.70131E+1  -4.94953E+2
   2.43884E+2  -1.82377E+2
   9.23567E+0  -2.25584E+2
  -2.94690E+2  -6.87881E+1
  -4.35826E+1  -2.71499E+2
   4.82376E+2  -3.46550E+2
   1.80656E+2   1.87982E+2
   7.60494E+1   2.27757E+2
   3.68619E+1  -1.92454E+2
   4.74483E+1  -1.19726E+2
   1.41426E+2  -2.24700E+1
   1.55566E+2  -4.15662E-1
  -3.20643E+2   5.83109E+1
  -1.01042E+2  -4.30188E+1
  -3.86140E+2  -2.31375E+2
  -5.95769E+1   6.31226E+1
  -1.94855E+2   6.15543E+1
  -2.58071E+2  -2.01290E+1
  -3.71389E+1  -8.95949E+1
   1.31533E+2  -1.22062E+2
   8.99932E+0  -1.92875E+2
  -1.04660E+2  -5.14437E+1
   1.42056E+2   4.49334E+1
   1.67583E+2  -3.15659E+1
   2.87105E+2  -1.30295E+2
  -5.42906E+1   1.69055E+2
  -8.95716E+0  -8.94131E+1
  -2.09949E+2   1.24313E+2
   9.26780E+1   4.24322E+1
  -5.58573E+1  -1.67877E+1
  -5.10558E+1  -7.11135E+1
   1.71653E+2   1.12174E+2
  -1.40604E+2   1.27570E+2
   3.74672E+0   1.05336E+2
   1.01557E+2  -2.03572E+2
  -6.16669E+1   1.67204E+2
  -1.14562E+2  -1.33512E+2
  -7.69179E+1  -2.74845E+2
   7.64266E+1  -6.98744E+1
   1.49732E+2   1.85352E+2
  -9.42199E+1   1.65340E+2
  -4.47334E+1  -7.72272E+1
   2.46541E+2   5.23989E+1
   1.36064E+0   4.55911E+2
  -1.64300E+2   9.35730E+1
  -2.40902E+2   5.14626E+1
   7.88328E+1   2.13686E+2
   1.83948E+0  -7.98011E+1
  -1.67687E+2  -1.09191E+2
  -3.03378E+1  -5.95971E+1
   2.70988E+2  -2.71815E+2
  -3.06885E+1  -5.56865E+1
  -3.30184E+1  -4.33368E+1
   2.56684E+2   5.17375E+1
   5.15961E+1   2.65136E+0
  -1.17975E+2   2.75136E+2
  -6.09590E+1  -1.89473E+1
  -1.45865E+2   1.00070E+2
  -6.85953E+1  -1.39309E+2
   5.12372E+1  -8.15823E+1
   8.18658E+1   1.13476E+2
   3.37086E+1   1.26678E+2
  -4.86760E+1   8.39033E+1
  -1.95751E+2   2.62507E+1
   6.08786E+1  -1.42988E+2
   1.21987E+2  -2.36730E+2
  -6.91525E+1  -2.16509E+2
  -1.88720E+2  -7.89059E+1
  -9.52251E+1   6.09304E+0
   1.99148E+2  -9.91414E+0
  -7.53709E+1  -2.71275E+1
  -1.23627E+1  -9.27895E+1
   1.33491E+2   5.71870E+1
   1.53159E+2  -1.93349E+2
   4.92751E+1  -2.76856E+1
   9.10901E+1  -1.79899E+2
   9.68672E+1  -1.78570E+1
   4.15125E+0  -1.49890E+2
   4.24553E+0  -2.34077E+1
  -4.80910E+1   1.32966E+2
   8.26201E+1  -1.25274E+2
  -1.21489E+1   9.75541E+1
   4.47437E+1  -3.29375E+2
   8.05284E+1  -1.46294E+1
   1.35544E+2  -5.46864E+1
   1.63267E+1   2.75121E+1
  -2.48046E+1   1.26232E+1
  -1.05218E+1   7.02868E+1
  -2.28116E+2   2.20098E+2
  -2.00188E+1   1.39834E+2
   5.15096E+0   3.47863E+1
  -2.20748E+2  -5.18458E+0
  -1.16856E+2  -1.16835E+2
  -7.74535E+1  -7.80031E+1
   1.54922E+2  -9.11969E+1
   1.92283E+2  -1.42186E+2
   3.47068E+2   6.09246E+1
   1.39163E+2  -3.28434E+1
   1.41853E+2   1.42001E+1
   9.78634E+1   8.79007E+1
   8.93683E+1   9.02275E+1
  -1.15650E+2   6.04165E+1
   7.76057E+1   3.49341E+1
  -2.73166E+1  -1.34089E+2
   1.90760E+1  -1.63907E+2
  -3.32062E+1  -9.07587E+1
  -1.01686E+2   2.75326E+1
  -1.43522E+2  -1.66725E+2
   1.32300E+2  -7.06690E+1
  -1.23846E+2   1.34169E+2
   3.61981E+2  -1.01704E+2
   1.77138E+2  -4.47670E+1
   3.28823E+2  -3.44340E+1
   2.08633E+2   7.05568E+1
   8.44509E+1   2.74765E+2
  -2.05378E+2  -2.28141E+2
   1.32526E+2  -1.37731E+1
  -8.08340E+1  -2.21037E+2
   8.39237E+1  -3.16875E+1
   3.96245E+1   1.15163E+2
  -4.86211E+1  -9.26637E+1
   1.32486E+2  -7.45621E+1
   2.78311E+2  -1.67139E+2
  -1.34871E+2  -4.87255E+1
  -3.22714E+2  -1.72498E+2
  -4.32714E+1  -4.33867E+1
   3.06362E+1   3.26018E+1
  -1.24169E+2   7.44653E+1
   3.77350E+1   1.45771E+2
  -7.64179E+1  -9.62554E+1
   6.65794E+1  -2.00892E+2
   1.59937E+2  -2.52283E+2
  -1.16865E+2   1.06788E+2
  -9.67385E+1  -2.94385E+0
   1.91151E+2  -3.64577E+1
   1.90126E+2  -9.24656E+1
   8.68595E+1   9.42277E+1
  -1.19476E+2  -6.45983E+1
   9.40983E+1   1.13811E+2
   2.68917E+1   1.28060E+1
   8.64259E+1  -1.41506E+2
  -7.08660E+1   2.16089E+2
   2.11367E+1  -1.04794E+1
   2.74550E+1  -1.73467E+2
   1.88484E+2  -1.11052E+2
  -2.95939E+1   1.39081E+1
   1.05774E+1   1.94278E+2
  -2.49010E+1   6.60990E+1
  -2.03530E+2  -1.65723E+2
   5.94966E+1  -2.18490E+1
   3.34024E+2  -5.13032E+1
   4.26304E+1   2.06353E+2
   2.25400E+2  -7.41629E+0
  -5.60779E+1  -2.75000E+1
   4.71088E+1   1.65353E+2
   1.11234E+2  -2.19911E+1
  -9.31348E+1  -5.63308E+1
   4.70362E+1   9.10650E+1
  -3.79820E+1  -8.35360E+1
  -1.11817E+2  -1.10520E+2
  -4.06041E+1   1.06162E+2
  -9.50856E+0   7.04486E+1
  -2.42820E+1  -6.49504E+1
  -4.29679E+1  -1.15168E+2
  -2.54031E+1   5.04542E+1
   1.27414E+1  -1.57201E+2
  -1.31509E+2   2.24791E+1
   1.68508E+2   8.44607E+1
   1.06536E+2  -3.81213E+1
   2.30843E+2   5.03514E+1
   2.24947E+1   1.42114E+2
  -9.11066E+1   4.34562E+0
  -8.13459E+1  -1.36158E+1
   5.41098E+1   1.38981E+1
   9.45877E+1   9.90811E+1
  -2.40553E+2  -1.10035E+2
   3.05750E+1   7.55654E+0
   3.37030E+1   1.01058E+2
   1.82835E+2  -7.63962E+1
  -1.07180E+2   1.52469E+2
   5.19130E+1  -3.83687E+2
   2.13186E+2  -2.78825E+2
   1.18275E+1  -1.69700E+2
   1.05963E+2  -1.72312E+2
   1.06465E+2  -3.27795E+1
  -1.19761E+2   4.89433E+1
  -9.84762E+1  -1.16141E+2
   3.22456E+2  -1.41085E+2
  -6.48729E+1   1.70941E+2
  -7.21703E+1  -5.47025E+0
  -7.16806E+0  -1.16427E+2
  -1.53462E+1  -1.71152E+2
   2.62167E+2   1.93456E+2
   5.23971E+1   4.46872E+1
  -6.94666E+1  -1.46343E+2
   1.54853E+2   2.66282E+1
   1.45442E+2  -1.84228E+2
   1.57148E+2   1.37205E+1
   6.09812E+1   2.07822E+2
  -1.62508E+2   4.55924E+1
   1.09567E+1   5.56796E+1
  -1.66559E+1  -4.03145E+1
   1.06801E+2  -3.86515E+1
  -1.33057E+2  -1.24584E+2
  -1.84751E+1   5.81316E+1
  -5.26870E+1  -1.16544E+2
   2.35690E+2  -1.43073E+2
   1.87659E+2   1.55597E+2
  -4.49314E+1   2.56118E+2
  -1.14588E+2  -1.83764E+2
   1.34057E+2   8.64075E+1
   1.75406E+2   5.72091E+1
  -1.49556E+2   7.90541E+1
  -1.55303E+2  -5.15294E+1
  -2.07512E+0  -7.63948E+1
   6.98616E+1   4.12447E+0
   1.00385E+1   1.07477E+2
   8.22822E+0  -1.50482E+0
  -2.14444E+1  -1.04819E+2
   6.58150E+1  -1.56646E+2
  -1.79070E+1  -6.68777E+1
  -1.78188E+2   1.67033E+2
  -1.20404E+2   2.15224E+1
   1.14249E+2  -6.51609E+1
  -1.43870E+2  -1.78400E+2
   9.12582E+1   1.81655E+2
  -6.25188E+1  -2.10969E+2
   1.13324E+2  -1.11918E+1
  -7.98468E+1  -4.34366E+1
   6.17760E+1   2.36379E+1
  -1.30329E+2  -1.11704E+1
  -2.54417E+2   3.76766E+1
  -1.12722E+1  -5.96925E+1
  -1.23615E+2  -2.04620E+2
  -1.13992E+2   1.13334E+2
   1.87467E+1   1.94779E+2
   2.98763E+1   8.28706E+1
   1.35798E+2  -1.89225E+2
  -1.22079E+2   8.79155E+1
   6.47352E+1  -4.76982E+1
  -5.61863E+1  -8.83773E+1
  -1.27754E+2   1.01051E+2
   1.30326E+1  -1.95221E+2
   2.16778E+2  -9.03671E+1
  -2.02604E+2   1.43761E+2
  -1.25650E+2  -1.52000E+1
  -2.33253E+1  -4.54821E+1
  -1.88451E+0   9.01308E+1
  -1.25420E+2  -3.61701E+0
   2.84833E+1  -2.15888E+0
  -7.69352E+1  -9.54164E+1
  -1.15031E+2   1.99756E+1
  -1.30511E+2  -1.50597E+2
  -1.90996E+1   6.33215E+1
   6.63748E+1   8.31982E+1
  -6.52874E+0  -2.35758E+2
   9.94960E+1   1.22893E+2
  -4.69761E+1  -2.75693E+1
   1.72156E+1  -3.26659E+1
  -9.80600E+0   2.02823E+2
  -2.05741E+2   4.11193E+1
   2.19378E+1   6.72272E+1
  -1.78694E+1  -1.93069E+2
   8.25246E+1   8.67186E+1
  -2.18364E+2   5.63800E+1
  -1.83331E+2  -2.82438E+1
   5.44635E+1  -1.15734E+2
  -3.23742E+2   8.95389E+1
  -2.12735E+2   2.92941E+1
   1.10404E+2   2.17659E+1
  -8.49150E+0  -1.96221E+2
   1.75118E+2  -1.15684E+2
   2.33703E+2   1.48754E+1
   2.67899E+2   1.60192E+2
  -7.49500E+1   1.53632E+2
  -7.34497E+1  -7.28903E+1
  -1.27407E+2   1.31579E+1
  -2.22058E+1   1.35285E+1
  -8.01388E+1  -1.18237E+2
  -4.68604E+1   1.36894E+2
  -6.08136E+1  -2.97318E+2
  -7.48361E+1   1.73261E+2
   8.43770E+1  -5.25878E+0
  -2.60953E+2   1.75725E+2
  -1.64541E+2   8.65953E+1
  -1.57696E+2   1.41569E+2
   1.51388E+2   1.23713E+1
  -7.46555E+1   1.69400E+1
   3.97555E+1   7.52174E+1
   1.80880E+1  -2.34587E+2
   6.97219E+1   2.62578E+1
   8.28382E+1   9.21867E+1
  -1.68883E+2  -1.79185E+2
  -2.91794E+2  -3.73307E+1
  -2.93803E+1  -2.39626E+2
   5.83094E+1  -4.99695E+1
   5.04879E+1  -1.44513E+2
  -8.03998E+1   3.84356E+1
  -6.68818E+0   1.46078E+2
  -1.66028E+2   2.35125E+2
