 
 $NMID
 ID=''
 FMTDAT='(2E13.5)'
 TRAMP=   1.00000E+0
 VOLUME=   1.00000E+0
 $END
  -1.30520E+4   2.02903E+4
   1.41111E+3   4.50199E+4
   5.00924E+4   1.43933E+4
   2.18329E+4  -4.28709E+4
  -4.01065E+4  -3.26894E+4
  -3.32660E+4   2.47983E+4
   1.78482E+4   3.76003E+4
   3.39474E+4  -2.32231E+3
   3.74009E+3  -3.13653E+4
  -2.83272E+4  -1.35793E+4
  -2.06775E+4   1.93354E+4
   1.32715E+4   1.97331E+4
   2.05411E+4  -6.77102E+3
  -3.28440E+3  -2.01617E+4
  -1.55947E+4  -6.46314E+3
  -4.46727E+3   1.17190E+4
   8.18176E+3   1.23364E+4
   9.45079E+3  -3.05324E+3
   5.02345E+2  -1.13607E+4
  -7.54491E+3  -1.86941E+3
  -4.58333E+3   6.40561E+3
   3.94928E+3   5.18326E+3
   5.67249E+3   7.16220E+2
  -1.61932E+2  -4.32935E+3
  -4.05724E+3  -4.09712E+3
  -1.89200E+3   3.03134E+3
   1.27819E+3   6.38353E+3
   1.43496E+3  -4.17882E+2
   6.74021E+2  -5.78337E+3
  -5.58936E+2  -1.52642E+3
  -2.13437E+3   3.53860E+3
  -9.75954E+2   3.14126E+3
   1.49778E+3  -1.54270E+3
   1.21102E+3  -4.15889E+3
   6.11915E+1  -1.92318E+3
   2.74034E+2   2.64185E+3
   2.25103E+2   2.98546E+3
   2.85247E+2  -3.23723E+2
   6.08952E+2  -1.76599E+3
  -1.12053E+3  -4.92789E+2
  -1.66072E+3   6.29618E+2
   8.77393E+2  -1.39720E+2
   2.19591E+3  -6.36819E+2
   6.65549E+2  -5.86994E+1
  -5.52869E+2   2.33318E+2
   1.67167E+2   1.57757E+3
  -4.95518E+2   1.69193E+3
  -1.91633E+3  -1.17699E+3
  -7.11464E+2  -2.58203E+3
   8.00144E+2  -7.38874E+2
   5.67499E+2   7.32833E+2
   2.71707E+2  -5.45060E+2
   6.68581E+2  -6.79005E+2
  -4.80028E+1   2.41724E+2
  -6.65353E+2   1.16861E+3
  -6.84048E+2   4.42131E+2
  -1.67708E+1  -6.81172E+2
   2.45740E+2  -1.02343E+3
   4.49476E+2  -3.32409E+2
   1.28519E+2   5.87207E+2
   1.41470E+2   9.43260E+2
   5.87575E+2   7.99425E+2
  -4.36734E+2   6.90430E+2
  -1.98303E+3  -1.38091E+2
  -1.96209E+3  -8.39252E+2
  -1.71501E+2  -8.39970E+2
   8.43547E+2  -6.60110E+2
   1.19966E+3  -9.18039E+2
   5.96543E+2   3.14526E+2
  -5.17656E+2   1.03900E+3
  -6.58217E+2   2.63724E+2
   7.33803E+2  -6.81901E+2
   1.44582E+3   2.58782E+2
   1.92695E+0   1.00635E+3
  -7.82035E+2   3.48263E+2
  -3.13402E+2  -2.08418E+2
   6.71848E+2   1.96796E+2
   1.09645E-1   6.57044E+2
  -6.96111E+2   1.03991E+1
  -5.83484E+2  -2.56275E+2
  -2.64614E+2  -8.93841E+1
   1.49890E+2  -2.24157E+1
   3.46456E+2  -9.74877E+1
   4.43969E-1  -1.85010E+2
  -5.43062E+1  -4.77269E+2
   4.48250E+2  -2.17733E+2
   6.65180E+2   2.30132E+1
   1.47400E+2   4.73097E+2
  -2.84699E+2   2.77930E+2
   2.74832E+2   1.50333E+2
   4.52711E+2   4.74580E+2
  -3.70872E+1   6.93880E+2
  -5.72341E+2   7.14639E+2
  -8.44529E+2   9.81906E+1
  -1.31349E+2  -9.76025E+2
   4.94479E+2  -5.77167E+2
   3.81872E+2   2.13906E+2
  -1.03554E+1   4.75900E+2
   1.63030E+2  -5.79456E+1
   8.43115E+2  -3.54717E+2
   7.28914E+2   5.39941E+2
  -4.58425E+2   8.15746E+2
  -4.44090E+2   6.35522E+1
  -2.70201E+2  -6.75136E+2
   5.90640E+2  -2.96896E+2
   5.27962E+2   4.68704E+2
  -1.62075E+2   5.88726E+2
  -8.88939E+2  -1.41310E+0
  -2.42085E+2  -6.33247E+2
   6.65762E+2  -5.89648E+2
   9.39521E+2  -1.19657E+2
   1.78478E+2   2.55358E+2
  -1.27202E+2   3.50312E+2
   1.89552E+2   3.55490E+2
   2.85839E+2  -8.15423E+0
  -2.88235E+1   2.34871E+2
  -6.11144E+2  -1.66349E-1
  -7.73784E+2  -2.44773E+2
  -4.36643E+1  -6.78716E+2
   5.24430E+2  -5.66207E+2
   4.26257E+2   1.31511E+2
   1.02626E+2   2.81068E+2
   7.62230E+1   1.75375E+2
   1.67603E+2   3.01792E+2
  -2.42963E+1   2.02844E+2
  -1.59522E+2   8.19941E+1
  -1.01507E+2  -2.52747E+2
   4.15631E+1  -1.90285E+2
   4.25819E+2   2.03200E+2
   4.37767E+1   5.08943E+2
  -1.58533E+2   5.08128E+2
  -5.54031E+2  -2.26651E+2
  -2.13134E+2  -2.21347E+2
  -4.11677E+1  -1.26939E+2
   1.46275E+2   1.81380E+1
  -8.07993E+1  -1.24465E+2
   2.01968E+2  -2.19700E+2
   3.67494E+2  -4.67157E+1
   1.96192E+2   3.44084E+2
  -4.78186E+1   2.53222E+2
  -1.96585E+2  -2.02023E+2
  -2.27500E+2  -5.42296E+2
   4.63379E+2  -2.11169E+2
   5.86047E+2   4.93079E+2
   1.02270E+2   3.87902E+2
  -2.49562E+2   2.12808E+2
  -4.39299E+1  -8.49732E-1
   7.76716E+1   1.13603E+2
  -1.40986E+2   1.49526E+2
  -1.52451E+2   2.66997E+0
  -6.79774E+0  -3.22361E+2
   3.62756E+2  -4.57548E+2
   4.31837E+2   7.67427E+1
   2.22032E+2   8.21671E+1
  -2.36783E+1   3.99648E+2
   7.13663E+1  -1.70499E+2
   3.25181E+2   1.02915E+2
   2.72745E+2   8.39066E+1
  -1.85124E+2   3.40526E+1
   1.87538E+1   3.71280E+2
   1.17579E+2  -2.55119E+2
  -1.82193E+2   1.99583E+2
  -2.81722E+2  -8.44343E+1
  -2.50088E+2   6.10414E+1
  -1.67008E+2  -2.53571E+2
   1.83822E+2  -1.18479E+2
   3.30704E+2  -1.45031E+1
   1.64839E+2  -4.95813E+1
   2.10876E+2   8.97834E+1
   1.67769E+2  -1.45673E+2
  -3.08753E+1  -4.59012E+0
   5.60505E+1   6.29985E+1
   1.05061E+2  -2.39987E+1
  -1.61130E+1  -7.28477E+1
   3.17449E+2  -1.74439E+2
   1.62213E+2   2.71749E+1
   3.49675E+2   7.19957E+1
  -4.07411E+2   2.11490E+2
  -2.54484E+2  -4.66917E+2
   1.73645E+2  -4.08955E+2
   1.64739E+2   2.00573E+2
  -1.53603E+2   1.53641E+2
  -1.77614E+2  -9.61319E+1
  -8.78953E+1  -9.26653E+1
  -8.53809E+1  -2.25312E+2
  -2.44316E+2  -3.13243E+1
  -2.57984E+2  -4.81437E+1
  -8.85407E+1  -1.73320E+2
   3.63359E+2  -1.96102E+2
   1.52141E+2  -2.09174E+2
   1.73206E+2   2.45554E+2
  -6.94954E+1   2.84152E+2
  -1.99360E+2  -2.16276E+2
  -2.59996E+2  -4.35383E+2
  -1.31048E+2  -3.56660E+2
  -9.42242E+1  -1.40583E+2
  -7.60764E+1   1.85811E+1
  -2.50018E+2   8.84336E+0
  -1.02590E+2  -3.28104E+1
  -6.88184E+1   1.07045E+2
  -3.73492E+2   1.53132E+2
  -1.85859E+2  -2.10049E+2
  -2.77424E+2  -4.03065E+2
  -2.94924E+1  -4.60156E+1
  -1.55785E+2  -1.61448E+2
   2.60032E+1  -6.94495E+1
   1.22259E+1  -1.86815E+2
  -2.69657E+2   1.36220E+2
   6.44444E+1   2.28957E+1
  -7.89220E+1  -2.09944E+2
  -1.33893E+2  -8.45052E+1
  -9.77113E+0  -4.80390E+1
  -4.90693E+0  -3.39700E+2
   3.22826E+1   2.57368E+2
  -3.11271E+2   2.29372E+2
  -2.66327E+2   2.18014E+2
  -4.04778E+2   1.01075E+1
  -5.19571E+1  -7.33503E+1
   6.24612E+1  -1.63524E+2
  -1.22255E+2  -1.90267E+2
  -3.10560E+2   2.54018E+2
  -9.92682E+1  -5.49312E+1
   7.79300E+1   1.55761E+2
  -2.44146E+2   1.41681E+2
  -1.94525E+2  -1.16279E+2
  -1.35694E+2  -7.35734E+1
  -4.40199E+1  -9.48324E+1
   3.60986E+1  -2.78553E+1
  -7.08987E+0   3.25379E+2
  -9.92181E+1   1.40440E+2
  -2.13713E+2   1.34637E+2
  -3.26096E+2   6.06059E+1
  -2.80158E+0  -6.32120E+1
  -5.85522E+1  -6.49968E+1
  -6.36850E+1   2.16781E+2
  -2.80441E+2   1.58553E+2
   9.95384E+1   1.17156E+2
  -1.71948E+2   7.20394E+1
  -2.41341E+2  -2.65208E+2
  -2.77257E+2   1.57182E+2
   1.17847E+2  -1.53360E+2
  -7.30345E+1   9.41529E+1
  -2.44315E+2   7.02001E+1
   3.67603E+0   6.10078E+0
  -1.46272E+2  -2.02739E+2
  -1.13696E+1   1.15162E+2
  -7.55182E+1  -1.10746E+2
  -1.43368E+2  -5.46330E+1
   4.22154E+0   6.49896E+1
  -2.17326E+2  -1.40813E+2
   1.37065E+2  -1.08079E+2
   2.16695E+1   3.02464E+2
  -7.76872E+1   7.08194E+1
   2.74593E+1  -1.19830E+2
  -3.61665E+1   6.27027E+0
   1.76490E+2  -1.44548E+2
  -2.91198E+2   1.94226E+2
  -1.96508E+2   9.56451E+1
  -2.57939E+1   1.51747E+2
  -8.08161E+1  -1.56188E+2
  -1.54619E+2  -9.92389E+1
   3.63460E+1  -2.66018E+2
  -2.01493E+2  -1.70670E+1
   1.35190E+1   1.39507E+2
   7.08469E+1   1.15382E+2
   7.77453E+1   1.06932E+2
  -1.31113E+2   1.07630E+2
  -2.49374E+2   1.23819E+1
  -1.38573E+2  -7.93579E+1
  -5.05071E+0  -1.16995E+2
   1.53702E+2  -1.24482E+2
  -5.48858E+0   1.18335E+2
  -4.29040E+0  -1.29447E+2
  -2.15925E+2  -1.77669E+2
   9.56375E+1   4.94413E+1
  -1.74247E+2   1.01248E+2
  -2.45533E+2   5.43793E+1
  -2.86815E+2  -6.29675E+1
   2.10444E+1  -8.53782E+1
  -6.54180E+1  -7.23075E+1
  -2.15836E+2  -5.05016E+1
  -4.56442E+1   1.82112E+2
  -2.08111E+2   1.10267E+2
  -8.05921E+1   5.02087E+1
  -2.95035E+2   2.23630E+1
  -3.25077E+2  -1.37287E+2
  -8.41142E+1  -9.28488E+1
   1.72880E+1   1.02874E+2
  -5.16387E+1   7.21549E+1
  -2.05591E+2   3.23835E+2
  -2.19451E+2  -9.23748E+1
  -3.38593E+2   1.13762E+2
  -4.25931E+0  -9.04522E+1
  -2.02222E+2   1.30215E+2
  -2.64541E+2   1.26022E+2
  -3.54059E+2   2.37445E+2
  -3.76219E+1  -3.14833E+2
  -8.02537E+1  -5.03641E+1
   5.67798E+0   2.09374E+2
  -1.50486E+2  -1.14828E+2
  -8.32611E+1  -4.95680E+0
  -5.64156E+1  -3.67703E+1
  -1.53071E+1   1.77009E+2
  -1.37457E+2   2.17322E+2
  -3.81536E+1   1.48544E+2
   3.88048E+1   3.73254E+1
  -1.64871E+2   2.67394E+2
  -1.52131E+2   6.09808E+1
  -3.92235E+1   1.02720E+2
  -3.58171E+1   1.01793E+1
  -6.38874E-1   3.47189E+1
   1.49111E+2   1.55303E+2
   1.93769E+2   5.50943E+1
   5.12936E+1  -3.10938E+1
  -2.55219E+2   1.02623E+2
   1.53352E+2  -1.28732E+2
   7.55583E+1   1.46080E+1
   9.04973E+0   1.26399E+2
  -7.24016E+1  -3.50400E+1
  -9.73197E+1   2.48693E+2
   1.58890E+2  -6.24666E+1
   1.22255E+2  -6.05871E+1
  -1.08877E+2  -1.19331E+2
   6.71532E+1  -8.03226E+1
   5.40177E+0  -4.49588E+1
  -4.01462E+1   4.60921E+1
  -5.17337E+1  -7.04309E+1
  -7.81074E+1   1.64353E+2
  -1.56692E+2  -1.15193E+2
  -6.26260E+1  -4.03007E+1
   2.87953E+2  -2.20104E+2
  -1.10225E+2  -1.19495E+2
   1.51917E+2  -1.76713E+2
   1.38545E+2   4.51682E+1
  -1.45279E+2  -7.13724E+1
  -1.45620E+2   1.09101E+2
  -1.68656E+2   1.54663E+2
  -2.05327E+0  -1.76610E+2
  -5.96639E+1  -2.58456E+2
  -4.42442E+1   4.04074E+1
   3.53323E+1  -1.88064E+2
   1.33814E+1  -1.44778E+1
  -1.84807E+2  -5.69250E+1
  -1.17794E+2   1.35788E+2
   4.04844E+1  -5.80115E+1
   1.89857E+1  -1.59982E+2
  -3.06163E+1  -2.29692E+2
   5.59001E+1  -1.28278E+2
   2.19025E+1   2.12820E+1
   2.88152E+1  -2.04582E+2
  -5.15749E+1  -6.87216E+1
   1.11855E+2  -2.99395E+1
  -1.37420E+2  -3.35033E+2
  -1.34443E+2  -4.48731E+1
   2.78501E+1  -3.32192E+1
  -2.18418E+2   9.41612E+1
   1.64148E+0  -7.88282E+1
   1.49467E+2  -8.69983E+0
   5.30553E+1   4.65588E+1
  -1.55958E+2  -1.30469E+2
  -2.94465E+2   1.39166E+2
   1.43396E+2  -1.29705E+2
  -6.56360E+1   2.35660E+1
  -1.00186E+2  -4.09568E+1
   7.58923E+1   1.38960E+2
  -1.23398E+2   1.32542E+2
  -1.83473E+2  -1.73209E+2
