 
 $NMID
 ID=''
 FMTDAT='(2E13.5)'
 TRAMP=   1.00000E+0
 VOLUME=   1.00000E+0
 $END
  -1.07750E+4  -2.03782E+4
  -2.62502E+4  -2.00001E+3
   3.16287E+3   2.80347E+4
   2.07002E+4  -7.48300E+2
  -1.66289E+4  -2.03219E+4
  -1.63116E+4   9.82980E+3
   1.81984E+4   1.02962E+4
   4.02923E+3  -1.21917E+4
  -1.36605E+4   1.32451E+3
   4.60185E+3   8.19581E+3
   3.79825E+3  -7.78191E+3
  -7.73598E+3  -3.04655E+3
   2.00228E+3   4.43214E+3
   9.02266E+2  -5.51796E+3
  -6.31213E+3  -3.45812E+3
   3.64799E+3   3.53051E+3
   3.83738E+3  -3.70760E+2
  -5.01905E+3   4.40677E+2
   4.25150E+2   2.31505E+3
   2.71511E+3  -1.86851E+3
  -3.31045E+3   8.51483E+1
   7.98305E+2   2.72954E+3
   3.06645E+3   1.83528E+2
  -2.47181E+3   5.13289E+1
  -5.35847E+2   6.44148E+2
   3.86311E+3  -8.54052E+2
  -1.41862E+1   1.28888E+3
  -2.63913E+3   1.02357E+3
   2.07934E+2  -2.72481E+3
   1.24188E+3  -1.20945E+3
  -2.37690E+2   1.73175E+3
  -1.06805E+3  -3.78264E+0
  -1.18275E+3  -1.88560E+3
  -6.32418E+2  -1.93624E+3
   6.97993E+2  -1.38819E+3
   2.13124E+3   6.68999E+2
   2.42851E+2   2.35012E+3
  -2.04031E+3   8.03041E+2
  -4.85705E+2  -2.28439E+2
   6.03935E+2   2.13908E+1
  -1.45498E+3  -9.94613E+1
  -2.63029E+2  -4.31757E+2
   2.27109E+3  -4.69347E+2
   1.39481E+3   1.61702E+2
   6.20910E+2   5.59029E+2
   5.86329E+2   1.61746E+3
  -1.07758E+3   1.90849E+3
  -2.04652E+3  -1.76372E+1
  -1.44556E+2  -2.29022E+3
   8.96611E+2  -1.39487E+3
   5.62827E+2   4.42924E+2
   5.11340E+2  -3.23809E+2
   1.08807E+3  -4.73508E+2
   8.41080E+2   8.09600E+2
   2.27639E+2   9.99872E+2
  -2.11598E+2   2.59898E+2
  -5.99726E+2  -4.34852E+2
   3.62519E+2  -6.31688E+2
   1.31975E+3  -6.44879E+2
   1.22385E+3   9.53404E+1
   5.65955E+2   9.02648E+2
   6.08242E+2   1.20756E+3
  -4.45263E+2   1.12564E+3
  -1.36359E+3   1.64651E+2
  -1.49963E+3  -1.19706E+3
  -1.82434E+2  -1.50675E+3
   9.16460E+2  -1.57353E+3
   1.62247E+3  -1.09952E+3
   1.75836E+3  -2.40382E+1
   1.40148E+2   4.21292E+2
  -9.39660E+2  -3.65874E+2
   7.78899E+2  -9.93423E+2
   1.61834E+3   1.02555E+2
  -1.50099E+2   1.08151E+3
  -5.73284E+2   2.59880E+2
  -9.87331E+1  -9.31979E+2
   3.35250E+2  -8.62571E+1
  -2.07696E+2   8.84483E+2
  -3.44438E+2  -2.94029E+2
  -4.79941E+2  -6.78931E+2
  -3.10311E+2  -6.05143E+2
   2.51646E+2  -3.44276E+2
   4.14101E+2  -4.33224E+2
  -9.75353E+1  -3.46886E+2
   1.97289E+2  -4.93482E+2
   4.76393E+2  -7.48290E+2
   7.83393E+2   5.46386E+1
   2.68500E+2   2.51763E+2
  -2.58801E+2  -4.05862E+1
   7.39143E+1  -1.93249E+2
   5.91533E+2   3.65443E+2
  -4.56744E+1   2.52530E+2
  -1.03306E+3   4.80990E+2
  -1.01631E+3  -1.70937E+2
  -2.65706E+2  -9.28885E+2
   2.07401E+2  -1.05213E+3
   6.13325E+2   1.86647E+1
   4.57232E+1   2.45570E+2
  -2.58440E+2  -6.12936E+2
   4.93938E+2  -2.05041E+2
   6.65428E+2   5.98315E+2
  -4.23261E+2   7.74464E+2
  -1.11954E+3   2.27950E+2
  -2.70716E+2  -6.35965E+2
   5.96744E+2  -5.63981E+2
   4.51760E+2   6.32528E+2
  -3.20211E+2   7.17381E+2
  -8.61027E+2  -9.35288E+1
  -7.01166E+2  -1.25980E+3
   7.45732E+2  -7.01056E+2
   9.21086E+2   5.13213E+2
   3.95684E+2   6.18890E+2
  -1.47462E+2   8.06233E+2
  -1.33423E+1   5.32880E+2
  -3.58328E+1   3.14392E+2
  -4.35723E+2   2.70176E+2
  -7.62843E+2   1.46330E+2
  -4.38517E+2  -6.83263E+2
   1.35603E+2  -1.19270E+3
   9.20868E+2  -3.85571E+2
   9.51202E+2   2.99417E+2
   3.08131E+2   5.95029E+2
   1.89185E+2   4.24025E+2
   7.32954E+0   4.28744E+2
  -5.40673E+2   3.04332E+2
  -1.84924E+2  -6.01731E+1
   1.86669E+2  -5.30425E+2
   2.77062E+2   2.17528E+1
   6.78161E+2   1.88653E+2
   1.62649E+2   6.01690E+2
  -4.71017E+2   4.86739E+2
  -4.29557E+2  -1.71675E+1
  -6.89040E+1  -3.29336E+2
   5.48275E+1  -3.74712E+1
  -5.28455E+1   8.01375E+1
  -7.96899E+1  -3.66721E+2
   1.11498E+2  -4.29110E+2
   4.99455E+2   1.52639E+2
   2.82568E+2   6.26932E+2
  -3.65057E+2   4.33007E+2
  -7.13450E+2  -2.45851E+2
   4.65571E+0  -6.45162E+2
   6.95901E+2  -2.44211E+2
   4.18793E+2   4.46080E+2
  -1.71566E+2   5.88158E+2
  -5.67689E+2   1.07704E+2
  -2.94693E+2  -3.04903E+2
  -2.66476E+2  -8.16399E+1
  -1.62403E+2   1.27750E+1
  -3.28491E+2  -1.36823E+2
   1.12963E+2  -4.74640E+2
   2.98850E+2  -2.74317E+2
   4.21236E+2   2.41933E+2
   1.02075E+2   6.12418E+2
  -3.70989E+2   2.03574E+2
  -3.58565E+2  -2.18038E+2
  -6.78746E+0   1.71755E+2
  -8.45524E+1   3.17668E+2
  -2.12348E+2   1.24598E+2
  -9.78067E+1   1.73334E+2
  -1.61135E+2   3.49726E+1
  -2.67289E+2   2.63544E+2
  -3.96180E+2   3.09260E+2
  -3.83919E+2  -7.11833E+1
   3.58925E+0  -2.63867E+2
   1.86819E+2  -2.63247E+2
   1.49033E+2   1.32705E+2
  -7.14203E+1   4.39384E+2
  -1.93382E+2   2.12072E+2
  -9.34601E+1  -4.70159E+1
   2.28588E+1   1.75807E+2
  -3.68576E+1   3.35979E+2
  -9.74511E+1   3.49031E+2
  -4.01197E+1   1.15401E+2
  -2.88878E+0   1.40057E+1
   1.57849E+2   2.42989E+2
   9.94299E+0   4.63858E+2
  -3.83341E+2   1.45073E+2
  -1.48767E+2  -3.87271E+2
   3.11634E+2   5.26479E+1
   6.07661E+2   2.27595E+2
  -1.44382E+2   3.76424E+2
  -2.98140E+2   2.18071E+2
  -1.12041E+2   2.03969E+2
   6.70705E+1   2.15466E+1
   2.41273E+1   3.35605E+1
   7.27836E+1  -1.92879E+2
   1.64595E+1  -2.38681E+2
   1.97038E+2  -2.43233E+2
   5.37829E+2   4.20213E+2
   1.96137E+1   4.10953E+2
  -2.81888E+2   3.01566E+2
  -4.18028E+2   9.00034E+0
  -2.10606E+1  -1.15446E+2
   1.88208E+2  -1.52728E+2
   2.44677E+2   1.06606E+2
   1.60049E+2   1.94501E+2
   2.26013E+2   1.91268E+1
   8.29636E+1   2.48067E+2
  -1.23997E+2   1.30114E+2
  -3.64876E+2   3.46450E+2
  -2.03808E+2  -5.02683E+2
   7.36011E+1  -5.08059E+1
   1.18085E+2   2.39222E+2
   1.96799E+2   2.10357E+2
  -2.23667E+2   2.20486E+2
  -1.79476E+2   2.38321E+2
  -1.19229E+1  -1.21784E+2
  -7.80333E+1   1.65667E+2
   2.71197E+2   1.22263E+2
  -9.21924E+1   2.16052E+2
   7.73830E+0   1.37100E+1
   2.82852E+2   5.65263E+1
   2.20741E+2   3.03011E+2
  -1.60215E+2   4.47097E+2
  -3.05913E+2   7.90105E+1
   3.01951E+1  -2.71718E+2
   3.57419E+2  -1.04396E+2
  -5.56229E+1  -5.45514E+1
  -2.08328E+2   1.26699E+2
  -3.84456E+1  -1.19884E+2
   1.61293E+2   1.73715E+2
   2.09208E+2   3.73957E+2
  -1.15584E+2   2.39154E+2
  -2.67363E+2   2.74782E+1
   1.41569E+2   1.08610E+1
   2.20670E+2  -1.68363E+2
   1.54151E+2  -4.73697E+1
   6.45271E+1   2.61167E+2
  -3.22559E+2   1.35333E+2
  -2.48935E+2   1.23354E+0
   5.64805E+1  -2.30556E+2
  -6.90134E+1   2.18655E+2
   2.33299E+0  -5.93548E+1
  -1.06279E+2  -1.06979E+2
   2.13734E+2  -8.72842E+1
  -9.76133E+1  -2.03669E+1
  -6.81701E+1   1.43310E+2
  -1.51669E+2   2.38925E+1
  -1.69511E+2  -1.65803E+1
  -1.60027E+2  -1.49233E+2
  -1.07341E+2   2.73841E+2
   5.93921E+1   3.14264E+2
  -1.08812E+2   2.77990E+2
  -1.73487E+2   1.12415E+2
   1.42476E+0  -1.29590E+2
   6.53941E+1   5.14365E+1
  -2.83961E+0   8.93362E+1
  -1.11667E+2  -1.93715E+2
   7.34182E+1  -6.16426E+1
   1.51069E+2   2.38790E+2
  -2.83788E+1   1.68415E+2
  -4.08862E+2   6.92680E+1
  -2.51191E+2  -1.02175E+2
  -5.38079E+1  -4.99143E+0
   1.63492E+2   2.27775E+1
  -9.19818E+0   2.45339E+2
   1.72090E+1   5.84198E+1
  -7.79061E+1  -1.17347E+2
  -3.01554E+1   1.49859E+2
  -1.52147E+2   4.74338E+2
  -1.99936E+2  -5.74695E+1
  -1.97341E+2  -3.04371E+2
   2.42843E+1  -3.05358E+2
   1.75738E+2  -5.55646E+1
   1.20729E+2   2.15636E+2
  -3.48125E+1   3.64642E+2
  -2.97949E+2   1.14841E+1
  -4.69566E+1  -2.29508E+1
  -3.47643E+1  -1.37490E+2
  -6.20830E+1  -6.90207E+1
  -2.93538E+1   1.06242E+2
  -1.43553E+2  -4.86075E+1
   2.26189E+2   3.56646E+1
   2.17631E+2   2.13611E+2
  -6.09886E+0   2.77327E+2
  -2.44653E+2   1.05089E+1
   4.41353E+1  -3.10690E+2
  -1.44860E+2   1.67315E+2
  -1.52374E+2   3.18513E+2
  -2.20431E+1  -6.12412E+1
   4.52155E+1  -1.63088E+2
   5.58759E+0   1.64900E+1
  -1.11030E+2   9.11151E+1
  -6.10557E+0   9.10668E+1
  -1.54767E+2   2.44302E+1
   5.29529E+1   1.54658E+1
   2.30267E+1  -4.14863E+2
   2.54766E+2  -9.80309E+0
   1.57590E+2   3.66285E+2
  -3.20506E+2  -2.44522E+1
  -1.61502E+2   1.17017E+2
  -1.95811E+2  -3.20685E+1
  -1.06057E+1  -4.83887E+1
  -2.72067E+2  -1.52904E+1
  -6.92894E+1   8.02499E+1
   4.04845E+1  -2.46942E+1
  -1.05061E+1   3.16799E+2
  -1.64609E+0   1.48804E+2
  -1.92007E+2   8.70269E+1
  -5.36541E+1   1.10595E+1
  -3.26943E+1  -2.90992E+2
   1.00746E+2   1.90567E+2
  -1.19228E+2   2.87098E+2
  -2.07034E+2   1.41773E+1
  -8.12824E+1  -3.87841E+1
  -2.34476E+1  -1.93380E+2
  -1.89490E+1   5.44313E+1
  -2.41695E+2   3.28208E+2
  -2.02542E+2   1.64511E+1
   1.32917E+2  -2.14028E+2
   2.71104E+2   7.97166E+1
   8.34919E+1   2.73687E+2
   2.30742E+1  -3.38806E+1
  -1.66894E+2  -1.40547E+2
  -3.14227E+1  -7.94256E+1
  -1.80039E+1  -6.24924E+1
  -2.72204E+0   2.43820E+2
  -1.90825E+1  -9.51606E+1
  -4.05564E+1   1.07812E+2
   1.84396E+2  -1.47500E+2
   2.87246E+1  -1.04875E+2
  -5.99851E+1   2.29671E+2
  -2.44302E+2   1.13154E+2
  -9.01206E+1   5.86857E+1
   3.29387E+2   1.79699E+1
  -1.73560E+2   4.22680E+2
  -8.17392E+1  -2.32938E+0
  -2.66492E+2  -1.41366E+2
  -2.67558E+1  -9.96937E+1
   1.00491E+2   6.41432E+1
   1.87444E+2   8.42707E+1
  -9.51879E+1  -5.97365E+1
  -9.93155E+1  -1.22556E+0
   1.43093E+2  -9.93551E+1
   2.19283E+2  -7.41848E+1
  -2.28320E+2   1.31568E+2
  -2.56655E+2  -7.78803E+1
   1.29677E+1  -2.37045E+2
   1.36731E+2  -6.15810E+1
   2.30463E+2   1.56760E+1
   2.17346E+2   1.27337E+2
  -1.54732E+1  -1.17978E+2
   7.95722E+1   3.16013E+0
   1.42906E+2   8.00522E+1
   3.16350E+1   1.09822E+1
   5.49078E+1  -4.74114E+1
   1.53303E+2  -3.38455E+1
   8.23982E+1   3.32199E+1
   1.96299E+2  -2.70670E+1
   2.07757E+0   2.85641E+2
  -2.65594E+2  -8.66743E+1
  -1.76059E+1  -1.38322E+1
   8.78413E+1  -8.45592E+0
   1.68392E+2   1.68037E+2
  -3.20346E+1  -3.30826E+1
   1.21056E+2   2.71207E+1
   2.51551E+1  -1.01184E+2
   5.74874E+1   2.21681E+2
  -3.83191E+2   2.43061E+2
  -1.22451E+2   2.51585E+2
  -1.51176E+2  -4.66576E+1
   1.27189E+2  -4.88584E+1
  -2.49801E+1  -1.03207E+2
   2.53273E+2   9.38645E+1
   3.18807E+1   1.10688E+2
  -3.07650E+1  -6.02612E+0
