 
 $NMID
 ID=''
 FMTDAT='(2E13.5)'
 TRAMP=   1.00000E+0
 VOLUME=   1.00000E+0
 $END
   7.44698E+5   2.14246E+5
   1.60117E+6   1.22319E+6
   1.64572E+6   1.04985E+6
   1.50560E+6   1.09605E+6
   1.57664E+6   1.14566E+6
   1.58900E+6   1.04431E+6
   1.53510E+6   1.04933E+6
   1.56622E+6   1.08724E+6
   1.54531E+6   1.05036E+6
   1.48805E+6   1.07921E+6
   1.49517E+6   1.10463E+6
   1.46526E+6   1.08200E+6
   1.42184E+6   1.10823E+6
   1.41893E+6   1.13170E+6
   1.37880E+6   1.12502E+6
   1.33707E+6   1.14821E+6
   1.33771E+6   1.16077E+6
   1.31262E+6   1.14904E+6
   1.28481E+6   1.15936E+6
   1.28964E+6   1.15464E+6
   1.26566E+6   1.14329E+6
   1.23932E+6   1.15389E+6
   1.23212E+6   1.15451E+6
   1.20675E+6   1.14820E+6
   1.17631E+6   1.15898E+6
   1.16307E+6   1.15583E+6
   1.13327E+6   1.15807E+6
   1.10010E+6   1.17557E+6
   1.07354E+6   1.17788E+6
   1.04659E+6   1.17202E+6
   1.02632E+6   1.17942E+6
   1.00995E+6   1.17674E+6
   9.84091E+5   1.17031E+6
   9.66572E+5   1.16921E+6
   9.55065E+5   1.16016E+6
   9.40759E+5   1.15074E+6
   9.28056E+5   1.14927E+6
   9.13542E+5   1.14350E+6
   8.90594E+5   1.13737E+6
   8.70534E+5   1.13740E+6
   8.48970E+5   1.13428E+6
   8.24288E+5   1.13012E+6
   8.03152E+5   1.12741E+6
   7.81568E+5   1.12466E+6
   7.56092E+5   1.12212E+6
   7.34484E+5   1.12066E+6
   7.14475E+5   1.11772E+6
   6.91958E+5   1.11385E+6
   6.72067E+5   1.10589E+6
   6.55890E+5   1.09799E+6
   6.39592E+5   1.09262E+6
   6.22564E+5   1.08752E+6
   6.05676E+5   1.07992E+6
   5.89155E+5   1.07409E+6
   5.71294E+5   1.06833E+6
   5.51686E+5   1.06245E+6
   5.30913E+5   1.05630E+6
   5.11468E+5   1.04932E+6
   4.93144E+5   1.04141E+6
   4.75100E+5   1.03545E+6
   4.57017E+5   1.02873E+6
   4.39870E+5   1.02155E+6
   4.22875E+5   1.01453E+6
   4.05364E+5   1.00697E+6
   3.88718E+5   9.97609E+5
   3.73990E+5   9.86967E+5
   3.59282E+5   9.77856E+5
   3.44193E+5   9.68720E+5
   3.29400E+5   9.60288E+5
   3.13815E+5   9.52331E+5
   2.97527E+5   9.43586E+5
   2.81464E+5   9.33435E+5
   2.67484E+5   9.24089E+5
   2.52498E+5   9.15417E+5
   2.37062E+5   9.06116E+5
   2.22512E+5   8.95905E+5
   2.09177E+5   8.86060E+5
   1.96045E+5   8.75991E+5
   1.82648E+5   8.65986E+5
   1.69762E+5   8.55319E+5
   1.56964E+5   8.44701E+5
   1.44695E+5   8.33687E+5
   1.32821E+5   8.24106E+5
   1.19791E+5   8.13983E+5
   1.06327E+5   8.03483E+5
   9.37388E+4   7.92958E+5
   8.17629E+4   7.82847E+5
   6.94048E+4   7.72965E+5
   5.71856E+4   7.62229E+5
   4.61586E+4   7.51748E+5
   3.64942E+4   7.41095E+5
   2.69409E+4   7.30886E+5
   1.74912E+4   7.20474E+5
   8.73332E+3   7.09973E+5
   5.65532E+2   6.98854E+5
  -6.58771E+3   6.87891E+5
  -1.36859E+4   6.78058E+5
  -2.12007E+4   6.68422E+5
  -2.84370E+4   6.58613E+5
  -3.54079E+4   6.47872E+5
  -4.23529E+4   6.38055E+5
  -4.96816E+4   6.28731E+5
  -5.70730E+4   6.18230E+5
  -6.34926E+4   6.07254E+5
  -6.90851E+4   5.96921E+5
  -7.43425E+4   5.87942E+5
  -7.95898E+4   5.78611E+5
  -8.53025E+4   5.68795E+5
  -9.05744E+4   5.58266E+5
  -9.41144E+4   5.48406E+5
  -9.74486E+4   5.39263E+5
  -1.01954E+5   5.29988E+5
  -1.06678E+5   5.20586E+5
  -1.10605E+5   5.11427E+5
  -1.14224E+5   5.01847E+5
  -1.18385E+5   4.92874E+5
  -1.22085E+5   4.83833E+5
  -1.25474E+5   4.74059E+5
  -1.28251E+5   4.64385E+5
  -1.30166E+5   4.55649E+5
  -1.32586E+5   4.47277E+5
  -1.35095E+5   4.38716E+5
  -1.37478E+5   4.30095E+5
  -1.39616E+5   4.21476E+5
  -1.41828E+5   4.13146E+5
  -1.43944E+5   4.04245E+5
  -1.45304E+5   3.95332E+5
  -1.47225E+5   3.86788E+5
  -1.49022E+5   3.78874E+5
  -1.51040E+5   3.70717E+5
  -1.52862E+5   3.62759E+5
  -1.55106E+5   3.53704E+5
  -1.56776E+5   3.45582E+5
  -1.57951E+5   3.37317E+5
  -1.59382E+5   3.29434E+5
  -1.60818E+5   3.21834E+5
  -1.61652E+5   3.14021E+5
  -1.62416E+5   3.07003E+5
  -1.63399E+5   2.99909E+5
  -1.64338E+5   2.92331E+5
  -1.65096E+5   2.85014E+5
  -1.65025E+5   2.77758E+5
  -1.65169E+5   2.70947E+5
  -1.65451E+5   2.64735E+5
  -1.66279E+5   2.58081E+5
  -1.66614E+5   2.51371E+5
  -1.66645E+5   2.44574E+5
  -1.66761E+5   2.38229E+5
  -1.66805E+5   2.31865E+5
  -1.66604E+5   2.25849E+5
  -1.66077E+5   2.19767E+5
  -1.65851E+5   2.13975E+5
  -1.65413E+5   2.08674E+5
  -1.65262E+5   2.03265E+5
  -1.64449E+5   1.97701E+5
  -1.63777E+5   1.92648E+5
  -1.62506E+5   1.87424E+5
  -1.62076E+5   1.82862E+5
  -1.61140E+5   1.77998E+5
  -1.60380E+5   1.72993E+5
  -1.59349E+5   1.68810E+5
  -1.58187E+5   1.63938E+5
  -1.57377E+5   1.59582E+5
  -1.56259E+5   1.55176E+5
  -1.54985E+5   1.51206E+5
  -1.53683E+5   1.47270E+5
  -1.52202E+5   1.43768E+5
  -1.51559E+5   1.40141E+5
  -1.50165E+5   1.36207E+5
  -1.49231E+5   1.32943E+5
  -1.47460E+5   1.29469E+5
  -1.46013E+5   1.26368E+5
  -1.44680E+5   1.23062E+5
  -1.43002E+5   1.19846E+5
  -1.41745E+5   1.16891E+5
  -1.40420E+5   1.13971E+5
  -1.39184E+5   1.11040E+5
  -1.37788E+5   1.07926E+5
  -1.36121E+5   1.05396E+5
  -1.34500E+5   1.02474E+5
  -1.33256E+5   1.00203E+5
  -1.31916E+5   9.76277E+4
  -1.30612E+5   9.48791E+4
  -1.28738E+5   9.24684E+4
  -1.27311E+5   9.01130E+4
  -1.25641E+5   8.78747E+4
  -1.23950E+5   8.56125E+4
  -1.22184E+5   8.33457E+4
  -1.20858E+5   8.14810E+4
  -1.19047E+5   7.95547E+4
  -1.17647E+5   7.74986E+4
  -1.16537E+5   7.53703E+4
  -1.15005E+5   7.29792E+4
  -1.13405E+5   7.10421E+4
  -1.12145E+5   6.91884E+4
  -1.10681E+5   6.72697E+4
  -1.08956E+5   6.54785E+4
  -1.07451E+5   6.35431E+4
  -1.06171E+5   6.19206E+4
  -1.04732E+5   5.98279E+4
  -1.03508E+5   5.80614E+4
  -1.01729E+5   5.64150E+4
  -1.00120E+5   5.50655E+4
  -9.88920E+4   5.33542E+4
  -9.77708E+4   5.18728E+4
  -9.60744E+4   4.99224E+4
  -9.47557E+4   4.84232E+4
  -9.35006E+4   4.69813E+4
  -9.19188E+4   4.55720E+4
  -9.09015E+4   4.42520E+4
  -8.95528E+4   4.26504E+4
  -8.82412E+4   4.10908E+4
  -8.67897E+4   4.00442E+4
  -8.56142E+4   3.86243E+4
  -8.46392E+4   3.73113E+4
  -8.31548E+4   3.58886E+4
  -8.20505E+4   3.47509E+4
  -8.08149E+4   3.36697E+4
  -7.97559E+4   3.27365E+4
  -7.84085E+4   3.16556E+4
  -7.72537E+4   3.05696E+4
  -7.62726E+4   2.93825E+4
  -7.50987E+4   2.86953E+4
  -7.40044E+4   2.77156E+4
  -7.29830E+4   2.66379E+4
  -7.20530E+4   2.56391E+4
  -7.07335E+4   2.47422E+4
  -6.98986E+4   2.43853E+4
  -6.89447E+4   2.33099E+4
  -6.81971E+4   2.26676E+4
  -6.71993E+4   2.17801E+4
  -6.58628E+4   2.10094E+4
  -6.52371E+4   2.06742E+4
  -6.43331E+4   2.00520E+4
  -6.33014E+4   1.97177E+4
  -6.28035E+4   1.90107E+4
  -6.17050E+4   1.84131E+4
  -6.09651E+4   1.78413E+4
  -5.99917E+4   1.73467E+4
  -5.91807E+4   1.67164E+4
  -5.86084E+4   1.67697E+4
  -5.76032E+4   1.64658E+4
  -5.68636E+4   1.56981E+4
  -5.61583E+4   1.52195E+4
  -5.53917E+4   1.51324E+4
  -5.47385E+4   1.49794E+4
  -5.41206E+4   1.44850E+4
  -5.31212E+4   1.41506E+4
  -5.23485E+4   1.38925E+4
  -5.16776E+4   1.37888E+4
  -5.10122E+4   1.35360E+4
  -5.06371E+4   1.32368E+4
  -4.97820E+4   1.29877E+4
  -4.90439E+4   1.25865E+4
  -4.82044E+4   1.22402E+4
  -4.75758E+4   1.23994E+4
  -4.70566E+4   1.20855E+4
  -4.64867E+4   1.18162E+4
  -4.57499E+4   1.15435E+4
  -4.52285E+4   1.11410E+4
  -4.47053E+4   1.09857E+4
  -4.40078E+4   1.07159E+4
  -4.31964E+4   1.04738E+4
  -4.27264E+4   1.03654E+4
  -4.21535E+4   1.03925E+4
  -4.16707E+4   1.02141E+4
  -4.12511E+4   9.75528E+3
  -4.05262E+4   9.36007E+3
  -3.97360E+4   9.65779E+3
  -3.93868E+4   9.36968E+3
  -3.89734E+4   9.07479E+3
  -3.84626E+4   9.10413E+3
  -3.76992E+4   8.98782E+3
  -3.73187E+4   8.74684E+3
  -3.70239E+4   8.52498E+3
  -3.64690E+4   8.33628E+3
  -3.59839E+4   8.12999E+3
  -3.53892E+4   7.87665E+3
  -3.49901E+4   7.92181E+3
  -3.45245E+4   7.64403E+3
  -3.39585E+4   7.42098E+3
  -3.38642E+4   7.36522E+3
  -3.32298E+4   7.20515E+3
  -3.29763E+4   7.03194E+3
  -3.25477E+4   6.60993E+3
  -3.20983E+4   6.32057E+3
  -3.15626E+4   6.40534E+3
  -3.11761E+4   6.26697E+3
  -3.08341E+4   6.36150E+3
  -3.07338E+4   6.06687E+3
  -3.04590E+4   5.90488E+3
  -2.98335E+4   5.57036E+3
  -2.97829E+4   5.52322E+3
  -2.93281E+4   5.37819E+3
  -2.90921E+4   5.15037E+3
  -2.88162E+4   5.30637E+3
  -2.85470E+4   5.13410E+3
  -2.80416E+4   4.88608E+3
  -2.79811E+4   4.91524E+3
  -2.77911E+4   4.51924E+3
  -2.72790E+4   4.24330E+3
  -2.73314E+4   4.30945E+3
  -2.67715E+4   4.04708E+3
  -2.67326E+4   4.14108E+3
  -2.65290E+4   3.87451E+3
  -2.61190E+4   3.91271E+3
  -2.59249E+4   3.59442E+3
  -2.60212E+4   3.73834E+3
  -2.56815E+4   3.53699E+3
  -2.54463E+4   3.42580E+3
  -2.52789E+4   3.11163E+3
  -2.53351E+4   3.07776E+3
  -2.49179E+4   2.94643E+3
  -2.48145E+4   2.59218E+3
  -2.46470E+4   2.78884E+3
  -2.42562E+4   2.59967E+3
  -2.44572E+4   2.60145E+3
  -2.40770E+4   2.36895E+3
  -2.39614E+4   2.29549E+3
  -2.36882E+4   2.15641E+3
  -2.38663E+4   1.90523E+3
  -2.36046E+4   1.74758E+3
  -2.33197E+4   1.66776E+3
  -2.32898E+4   1.53216E+3
  -2.31434E+4   1.65581E+3
  -2.32339E+4   1.35116E+3
  -2.29758E+4   1.02861E+3
  -2.29641E+4   1.09460E+3
  -2.28011E+4   1.08282E+3
  -2.24716E+4   8.90989E+2
  -2.26313E+4   7.05410E+2
  -2.23153E+4   3.88468E+2
  -2.24594E+4   3.36429E+2
  -2.22147E+4   4.00343E+2
  -2.21984E+4   3.82262E+2
  -2.21957E+4   1.19651E+2
  -2.18464E+4  -5.25977E+1
  -2.16362E+4  -2.68494E+2
  -2.14369E+4  -1.96214E+2
  -2.14907E+4  -5.71716E+2
  -2.14721E+4  -6.39289E+2
  -2.14075E+4  -7.85981E+2
  -2.11451E+4  -9.00068E+2
  -2.08282E+4  -9.10035E+2
  -2.10324E+4  -1.23702E+3
  -2.07578E+4  -1.57370E+3
  -2.06590E+4  -1.35905E+3
  -2.07250E+4  -1.52450E+3
  -2.02581E+4  -1.74213E+3
  -2.05643E+4  -1.98820E+3
  -2.01501E+4  -2.10081E+3
  -2.02192E+4  -2.17553E+3
  -1.98968E+4  -2.52783E+3
  -1.98016E+4  -2.40060E+3
  -1.97764E+4  -2.76246E+3
  -1.96411E+4  -2.82231E+3
  -1.94398E+4  -2.75542E+3
  -1.92296E+4  -2.79384E+3
  -1.93590E+4  -3.07879E+3
  -1.91427E+4  -3.18922E+3
  -1.88910E+4  -3.23272E+3
  -1.88804E+4  -3.40870E+3
  -1.89429E+4  -3.49067E+3
  -1.88578E+4  -3.66229E+3
  -1.87113E+4  -3.87277E+3
  -1.86823E+4  -3.95643E+3
  -1.87069E+4  -3.94623E+3
