 LCModel (Version 6.3-1N) Copyright: S.W. Provencher.          Ref.: Magn. Reson. Med. 30:672-679 (1993).                
 Slice_N1@11_22  28-Feb-2025 11:38:52
 27 lines in following concentration table = NCONC+1
    Conc.  %SD /Cr+PCr  Metabolite                                         
 3.04E-04   5% 2.8E-04 Mac                                                 
    4.038  38%   3.723 Cr                                                  
    4.640  31%   4.277 PCr                                                 
    4.839  22%   4.461 Ins                                                 
   10.179  10%   9.383 NAA                                                 
    5.584  20%   5.148 Tau                                                 
    0.000 999%   0.000 PCho                                                
    0.220 160%   0.203 GPC                                                 
    9.275  14%   8.550 Glu                                                 
    1.384  62%   1.276 Gln                                                 
    0.000 999%   0.000 Ala                                                 
    0.000 999%   0.000 Asc                                                 
    3.874  28%   3.571 Asp                                                 
    0.000 999%   0.000 GABA                                                
    0.916  79%   0.845 Glc                                                 
 6.19E-02 716% 5.7E-02 GSH                                                 
    0.527 165%   0.485 Lac                                                 
    1.244  58%   1.147 NAAG                                                
    4.850  29%   4.471 PE                                                  
    0.220 160%   0.203 GPC+PCho                                            
   11.423   9%  10.530 NAA+NAAG                                            
   10.660  14%   9.827 Glu+Gln                                             
    8.678  11%   8.000 Cr+PCr                                              
   11.423   9%  10.530 NAA+NAAG                                            
    8.678  11%   8.000 Cr+PCr                                              
   10.660  14%   9.827 Glu+Gln                                             
   6 lines in following misc. output table
  FWHM = 0.033 ppm    S/N =   3                                            
  Data shift = 0.049 ppm                                                   
  Ph: -80 deg       0.0 deg/ppm                                            
  alphaB,S = 1.1E-01,   1.2E+01                                            
   19 spline knots.   Ns = 5(1)                                            
  ( 6) 3 infls.   ( 2) 2 extrs.                                            
  480 points on ppm-axis = NY
      4.100000     4.091866     4.083733     4.075600     4.067466     4.059333     4.051199     4.043066     4.034933     4.026799
      4.018666     4.010532     4.002399     3.994265     3.986132     3.977998     3.969864     3.961731     3.953597     3.945463
      3.937330     3.929196     3.921062     3.912929     3.904795     3.896662     3.888528     3.880394     3.872261     3.864127
      3.855993     3.847860     3.839726     3.831592     3.823459     3.815325     3.807191     3.799058     3.790924     3.782790
      3.774657     3.766523     3.758389     3.750256     3.742122     3.733989     3.725855     3.717721     3.709588     3.701454
      3.693320     3.685187     3.677053     3.668919     3.660786     3.652652     3.644518     3.636385     3.628251     3.620117
      3.611984     3.603850     3.595716     3.587583     3.579449     3.571316     3.563182     3.555048     3.546915     3.538781
      3.530647     3.522514     3.514380     3.506246     3.498113     3.489979     3.481845     3.473712     3.465578     3.457444
      3.449311     3.441177     3.433043     3.424910     3.416776     3.408643     3.400509     3.392375     3.384242     3.376108
      3.367974     3.359841     3.351707     3.343573     3.335440     3.327306     3.319172     3.311039     3.302905     3.294771
      3.286638     3.278504     3.270370     3.262237     3.254103     3.245970     3.237836     3.229702     3.221569     3.213435
      3.205301     3.197168     3.189034     3.180900     3.172767     3.164633     3.156499     3.148366     3.140232     3.132098
      3.123965     3.115831     3.107697     3.099564     3.091430     3.083297     3.075163     3.067029     3.058896     3.050762
      3.042628     3.034495     3.026361     3.018227     3.010094     3.001960     2.993826     2.985693     2.977559     2.969425
      2.961292     2.953158     2.945024     2.936891     2.928757     2.920624     2.912490     2.904356     2.896223     2.888089
      2.879955     2.871822     2.863688     2.855554     2.847421     2.839287     2.831153     2.823020     2.814886     2.806752
      2.798619     2.790485     2.782351     2.774218     2.766084     2.757951     2.749817     2.741683     2.733550     2.725416
      2.717282     2.709149     2.701015     2.692881     2.684748     2.676614     2.668480     2.660347     2.652213     2.644079
      2.635946     2.627812     2.619678     2.611545     2.603411     2.595278     2.587144     2.579010     2.570877     2.562743
      2.554609     2.546476     2.538342     2.530208     2.522075     2.513941     2.505807     2.497674     2.489540     2.481406
      2.473273     2.465139     2.457006     2.448872     2.440738     2.432605     2.424471     2.416337     2.408204     2.400070
      2.391936     2.383803     2.375669     2.367535     2.359402     2.351268     2.343134     2.335001     2.326867     2.318733
      2.310600     2.302466     2.294333     2.286199     2.278065     2.269932     2.261798     2.253664     2.245531     2.237397
      2.229263     2.221130     2.212996     2.204862     2.196729     2.188595     2.180461     2.172328     2.164194     2.156060
      2.147927     2.139793     2.131660     2.123526     2.115392     2.107259     2.099125     2.090991     2.082858     2.074724
      2.066590     2.058457     2.050323     2.042189     2.034056     2.025922     2.017788     2.009655     2.001521     1.993387
      1.985254     1.977120     1.968987     1.960853     1.952719     1.944586     1.936452     1.928318     1.920185     1.912051
      1.903917     1.895784     1.887650     1.879516     1.871383     1.863249     1.855115     1.846982     1.838848     1.830714
      1.822581     1.814447     1.806314     1.798180     1.790046     1.781913     1.773779     1.765645     1.757512     1.749378
      1.741244     1.733111     1.724977     1.716843     1.708710     1.700576     1.692442     1.684309     1.676175     1.668041
      1.659908     1.651774     1.643641     1.635507     1.627373     1.619240     1.611106     1.602972     1.594839     1.586705
      1.578571     1.570438     1.562304     1.554170     1.546037     1.537903     1.529769     1.521636     1.513502     1.505368
      1.497235     1.489101     1.480968     1.472834     1.464700     1.456567     1.448433     1.440299     1.432166     1.424032
      1.415898     1.407765     1.399631     1.391497     1.383364     1.375230     1.367096     1.358963     1.350829     1.342695
      1.334562     1.326428     1.318295     1.310161     1.302027     1.293894     1.285760     1.277626     1.269493     1.261359
      1.253225     1.245092     1.236958     1.228824     1.220691     1.212557     1.204423     1.196290     1.188156     1.180022
      1.171889     1.163755     1.155622     1.147488     1.139354     1.131221     1.123087     1.114953     1.106820     1.098686
      1.090552     1.082419     1.074285     1.066151     1.058018     1.049884     1.041750     1.033617     1.025483     1.017349
      1.009216     1.001082     0.992949     0.984815     0.976681     0.968548     0.960414     0.952280     0.944147     0.936013
      0.927879     0.919746     0.911612     0.903478     0.895345     0.887211     0.879077     0.870944     0.862810     0.854676
      0.846543     0.838409     0.830276     0.822142     0.814008     0.805875     0.797741     0.789607     0.781474     0.773340
      0.765206     0.757073     0.748939     0.740805     0.732672     0.724538     0.716404     0.708271     0.700137     0.692003
      0.683870     0.675736     0.667603     0.659469     0.651335     0.643202     0.635068     0.626934     0.618801     0.610667
      0.602533     0.594400     0.586266     0.578132     0.569999     0.561865     0.553731     0.545598     0.537464     0.529330
      0.521197     0.513063     0.504930     0.496796     0.488662     0.480529     0.472395     0.464261     0.456128     0.447994
      0.439861     0.431727     0.423593     0.415460     0.407326     0.399192     0.391059     0.382925     0.374792     0.366658
      0.358524     0.350391     0.342257     0.334124     0.325990     0.317856     0.309723     0.301589     0.293455     0.285322
      0.277188     0.269055     0.260921     0.252787     0.244654     0.236520     0.228386     0.220253     0.212119     0.203986
 NY phased data points follow
   1.30425E+01  3.38509E+01  1.23746E+01  1.70246E+00  1.63729E+01  2.84524E+01  3.19779E+01  2.54055E+01  2.73763E+01  1.40879E+01
   7.68512E+00  1.00925E+01 -7.59526E-02 -6.66727E+00  2.52210E+00  8.17467E+00 -5.00113E-01 -4.36383E+00 -2.60534E+01 -6.49365E+01
  -3.57927E+01 -1.83574E+01 -3.55839E+01  4.34766E+00  1.79375E+01  3.86629E+01  5.51815E+01  5.82766E+01  7.71350E+01  7.54512E+01
   1.02565E+02  1.09805E+02  1.07007E+02  1.03230E+02  1.13938E+02  1.32781E+02  1.22531E+02  1.34642E+02  1.20364E+02  9.74550E+01
   8.50067E+01  8.33294E+01  9.47819E+01  9.08462E+01  1.10881E+02  1.38652E+02  1.53532E+02  1.67861E+02  1.77722E+02  1.72896E+02
   1.69720E+02  1.75814E+02  1.67485E+02  1.47840E+02  1.37420E+02  1.47074E+02  1.61149E+02  1.39610E+02  1.07435E+02  1.12661E+02
   1.08828E+02  9.95184E+01  9.26873E+01  9.78497E+01  1.27889E+02  1.21792E+02  1.26153E+02  1.18941E+02  7.39105E+01  7.86610E+01
   8.43191E+01  5.95153E+01  5.77837E+01  7.61738E+01  8.75307E+01  8.66515E+01  8.98131E+01  1.02676E+02  1.04108E+02  1.04383E+02
   9.77980E+01  8.80883E+01  7.87946E+01  5.50555E+01  5.37368E+01  3.64216E+01  4.29650E+01  8.03422E+01  7.26779E+01  7.14013E+01
   8.73495E+01  9.35178E+01  8.64115E+01  1.12166E+02  1.10890E+02  9.80833E+01  1.21047E+02  1.18624E+02  1.34803E+02  1.27616E+02
   1.26380E+02  1.24232E+02  1.01138E+02  1.08110E+02  1.07009E+02  8.23848E+01  5.60616E+01  8.55843E+01  6.62390E+01  9.63286E+00
  -1.88343E+01 -2.56909E+01 -8.45263E+00 -1.93026E+01 -2.48376E+00  1.06131E+01  3.29977E+01  3.88634E+01  1.94666E+01  4.95757E+01
   5.65439E+01  6.29763E+01  7.83854E+01  7.44352E+01  7.55854E+01  7.70230E+01  8.46600E+01  8.99300E+01  9.40867E+01  1.67413E+02
   2.14345E+02  1.69150E+02  1.18284E+02  5.32757E+01  2.24111E+01 -2.55011E+00 -2.10352E+01 -1.05397E+01 -1.29132E+01 -1.26032E+01
  -2.78844E+01 -2.08948E+01 -1.58147E+01 -2.44862E+01 -1.35674E+01 -3.54626E+00  2.09650E+00 -1.19027E+01 -2.42450E+01 -1.14031E+01
  -1.21686E+01 -1.62814E+01 -3.58947E+00  7.37180E+00  1.66886E+01  3.51002E+00  1.19032E+01  9.22090E+00  8.28165E+00  3.67287E+01
   2.29744E+01  3.48220E+01  3.28668E+01  2.92319E+01  3.38701E+01  1.70481E+01  2.30334E+01  1.10732E+01  2.93814E+01  2.78869E+01
   1.32311E+01  4.40108E+01  4.72139E+01  5.74090E+01  5.90038E+01  4.82169E+01  6.93052E+01  7.25511E+01  7.21500E+01  5.89451E+01
   2.01305E+01  1.34691E+01  1.20869E+01  6.17652E+00 -2.09163E+00  2.44007E+00 -1.56837E+00 -7.62031E+00  9.90510E+00 -1.04596E+01
   4.56085E+00  5.55308E+00  1.60493E+00  2.58744E+01 -6.10366E+00  3.21861E+00  1.07917E+00 -3.48096E+00  1.22074E+01  1.19059E+01
   2.26335E+01  9.93544E+00  3.20345E+01  3.71573E+01  3.03203E+01  1.97963E+01  5.52607E-01  2.57693E+01  3.55444E+00 -2.16211E+01
  -2.60990E+01 -2.59512E+01 -1.66128E+01 -6.20062E+00  2.58423E+01  3.69811E+01  6.30802E+01  8.28020E+01  7.11649E+01  6.77864E+01
   6.95740E+01  6.03019E+01  2.87302E+01  2.14325E+01  3.31927E+01  3.80971E+01  3.78966E+01  3.73375E+01  4.39426E+01  3.89543E+01
   2.01369E+01  2.73342E+01  3.96143E+01  1.53803E+01  6.34524E+00 -1.29608E+01 -2.99979E+01 -1.21838E+01 -3.00697E+01 -4.70003E+01
  -4.47126E+01 -4.85627E+01 -4.60683E+01 -1.97060E+01 -6.64662E+00 -2.73903E+01  7.73184E+00  1.79278E+00 -3.89169E+01 -1.66386E+01
  -3.33841E+01 -2.78087E+01 -9.88990E+00  2.87238E+00 -4.69874E+01 -1.66828E+02 -1.10269E+02 -1.34213E+01  5.20620E+01  1.34259E+02
   1.65022E+02  1.75653E+02  1.55300E+02  1.52177E+02  1.28096E+02  1.19186E+02  1.38970E+02  1.30849E+02  1.23221E+02  1.02961E+02
   1.16817E+02  1.16285E+02  9.55729E+01  1.10754E+02  1.12544E+02  8.89836E+01  8.61637E+01  9.23034E+01  9.09878E+01  8.84885E+01
   7.57939E+01  8.24044E+01  6.98077E+01  6.81526E+01  7.90477E+01  6.91990E+01  7.59125E+01  6.27250E+01  5.97508E+01  7.29394E+01
   6.36300E+01  3.96502E+01  2.81954E+01  2.12457E+01  8.97307E+00  7.53424E-01 -1.26945E+01 -1.56150E+01 -2.66853E+01 -3.11683E+01
  -3.16428E+01 -3.94734E+01 -4.54961E+01 -6.06471E+01 -5.11033E+01 -3.72730E+01 -4.41681E+01 -4.00261E+01 -2.30272E+01 -1.29003E+01
  -2.36838E+00  1.93580E+01  4.94824E+01  6.90569E+01  7.16343E+01  7.49552E+01  7.91353E+01  7.45835E+01  7.47675E+01  8.46343E+01
   6.76530E+01  6.21430E+01  9.00292E+01  8.57041E+01  7.32272E+01  8.45613E+01  6.31223E+01  4.75708E+01  5.41942E+01  4.04600E+01
   4.37526E+01  2.30448E+01  3.11376E+01  4.93620E+01  1.45373E+01  1.94217E+01  1.84899E+01  1.18467E+01  6.39790E+00  1.35234E+01
   3.59555E+01  2.53311E+01  2.09995E+01  2.70470E+01  3.51522E+01  2.67237E+01  3.50790E+01  3.88890E+01  3.31068E+01  5.00074E+01
   4.33922E+01  3.96078E+01  4.40761E+01  5.26043E+01  4.22866E+01  2.50695E+01  3.49881E+01  4.24724E+01  3.44321E+01  2.96940E+01
   4.18650E+01  3.44486E+01  2.79279E+01  3.92424E+01  4.59089E+01  3.56000E+01  4.48253E+01  5.83708E+01  4.65117E+01  6.40630E+01
   5.64866E+01  6.09201E+01  8.21499E+01  6.69078E+01  7.08588E+01  6.89707E+01  7.88881E+01  8.23108E+01  7.40043E+01  8.85642E+01
   1.06290E+02  1.18468E+02  1.18213E+02  1.29901E+02  1.20289E+02  1.23517E+02  1.39666E+02  1.38611E+02  1.57355E+02  1.56358E+02
   1.66116E+02  1.49598E+02  1.34965E+02  1.40674E+02  1.03402E+02  1.05558E+02  9.47621E+01  8.75936E+01  9.14301E+01  7.71617E+01
   7.76491E+01  5.82658E+01  6.29975E+01  5.32279E+01  4.09065E+01  2.39426E+01  4.87316E+00  1.71199E+01  2.35898E+01  3.79245E+01
   1.28203E+01  1.49754E+01  2.70804E+01  1.95212E+01  2.76453E+01  1.81839E+01  1.58961E+01  7.64794E+00  2.38822E+01  9.00733E+00
   1.22640E+01  3.02630E+01  1.04762E-01  1.55692E+01  7.81221E+00  2.18787E+01  3.53245E+01  1.07221E+01  2.47757E+01  3.24303E+01
   1.35525E+01 -9.99688E+00  1.35899E+01  1.35095E+01 -1.38391E+00  3.44451E+00  1.25840E+01  3.72286E+01  1.57898E+01  1.35251E+01
   9.60240E+00 -3.38146E-01  1.43765E+01  3.25389E+00  1.00018E+01  1.40326E+01  1.77573E+01  2.26839E+01  1.95572E+01  1.20120E+01
   5.99747E+00  1.95691E+01  1.03899E+01  8.95237E+00  7.43398E+00  9.09949E+00  2.89352E+01  2.08636E+01  1.83729E+01  2.78544E+01
   2.67810E+01  1.51659E+01  1.14384E+01  2.00293E+01  1.17070E+01 -9.78927E+00  5.42091E+00  1.80537E+01  3.18273E+00  1.06427E+01
   1.12222E+00  1.43400E+01  3.47810E+01  1.81984E+01  9.62585E+00  5.14182E+00  1.68769E+01  1.36823E+01  1.05963E+01  8.81545E+00
 NY points of the fit to the data follow
   3.07524E+01  2.75939E+01  2.05521E+01  1.29023E+01  1.12038E+01  1.75013E+01  2.68602E+01  3.39998E+01  3.70739E+01  3.63190E+01
   3.18615E+01  2.39366E+01  1.37395E+01  3.87604E+00 -2.16374E+00 -1.00671E+00  4.34785E+00  5.94616E+00 -1.45821E+00 -1.02663E+01
  -1.05840E+01 -7.55720E+00  1.00851E+00  2.12862E+01  4.50462E+01  6.46688E+01  8.05043E+01  9.10656E+01  1.00108E+02  1.07155E+02
   1.10071E+02  1.11589E+02  1.11968E+02  1.10928E+02  1.09229E+02  1.08697E+02  1.09744E+02  1.09495E+02  1.03336E+02  9.02409E+01
   7.46847E+01  6.35515E+01  6.17328E+01  6.94857E+01  8.28820E+01  9.67876E+01  1.08136E+02  1.15658E+02  1.19594E+02  1.20814E+02
   1.20688E+02  1.20242E+02  1.19688E+02  1.17852E+02  1.14743E+02  1.11743E+02  1.08686E+02  1.01714E+02  9.23468E+01  8.73251E+01
   8.47553E+01  8.27386E+01  8.55924E+01  9.27172E+01  1.02975E+02  1.15713E+02  1.23877E+02  1.21131E+02  1.08000E+02  9.33018E+01
   8.41334E+01  7.84423E+01  7.64260E+01  8.03298E+01  8.85553E+01  9.86724E+01  1.08328E+02  1.16649E+02  1.24684E+02  1.29217E+02
   1.27346E+02  1.16951E+02  9.96907E+01  8.18162E+01  6.79134E+01  6.22308E+01  6.48815E+01  7.19431E+01  8.01186E+01  8.87204E+01
   9.53897E+01  1.01624E+02  1.06486E+02  1.10365E+02  1.13678E+02  1.16817E+02  1.19286E+02  1.20688E+02  1.22764E+02  1.28045E+02
   1.34292E+02  1.35017E+02  1.29161E+02  1.16371E+02  9.86841E+01  8.38068E+01  7.20955E+01  5.81673E+01  3.83810E+01  1.34020E+01
  -8.55441E+00 -1.86058E+01 -1.88319E+01 -1.21805E+01 -2.67756E+00  7.69375E+00  1.79852E+01  2.71037E+01  3.44345E+01  4.05178E+01
   4.58964E+01  5.08696E+01  5.58294E+01  6.14357E+01  6.86078E+01  7.70045E+01  8.48176E+01  9.83034E+01  1.31145E+02  1.84387E+02
   2.21276E+02  2.01296E+02  1.37678E+02  7.05597E+01  2.13673E+01 -7.14051E+00 -2.18094E+01 -2.95986E+01 -2.89380E+01 -2.50603E+01
  -2.20208E+01 -1.98011E+01 -1.83200E+01 -1.72609E+01 -1.61539E+01 -1.46823E+01 -1.26756E+01 -1.00069E+01 -6.85597E+00 -3.58989E+00
  -8.44836E-01  1.12238E+00  3.11740E+00  6.32669E+00  1.07616E+01  1.47455E+01  1.63983E+01  1.60164E+01  1.62627E+01  1.95594E+01
   2.49187E+01  2.81536E+01  2.71985E+01  2.41530E+01  2.17440E+01  2.04592E+01  1.82202E+01  1.31693E+01  8.06938E+00  9.60512E+00
   2.09415E+01  3.51423E+01  4.16262E+01  4.04098E+01  4.09748E+01  4.84632E+01  5.82829E+01  6.17509E+01  5.66951E+01  4.82133E+01
   3.91967E+01  2.98976E+01  2.12230E+01  1.40880E+01  9.23504E+00  6.72754E+00  5.22807E+00  4.61575E+00  4.77882E+00  4.38824E+00
   2.28141E+00 -2.76650E-01  1.02605E+00  6.45997E+00  1.00127E+01  1.20819E+01  1.68420E+01  2.32502E+01  2.84877E+01  3.02123E+01
   3.06265E+01  3.35400E+01  3.54719E+01  3.31933E+01  2.84822E+01  2.22899E+01  1.59079E+01  8.56604E+00 -4.56894E-01 -1.00674E+01
  -1.93537E+01 -2.54044E+01 -2.55201E+01 -1.38954E+01  8.25988E+00  3.28758E+01  5.56230E+01  7.00897E+01  7.27155E+01  6.84096E+01
   6.14091E+01  5.42677E+01  5.08592E+01  4.90791E+01  4.92654E+01  5.00924E+01  4.98154E+01  4.76290E+01  4.30574E+01  3.61135E+01
   2.73237E+01  1.73619E+01  6.63408E+00 -4.59628E+00 -1.51089E+01 -2.39358E+01 -3.04840E+01 -3.38955E+01 -3.51203E+01 -3.55923E+01
  -3.51335E+01 -3.37471E+01 -3.08544E+01 -2.59206E+01 -2.04692E+01 -1.59761E+01 -1.42270E+01 -1.43483E+01 -1.46617E+01 -1.65267E+01
  -1.88477E+01 -1.45234E+01 -8.44534E+00 -2.44707E+01 -8.04503E+01 -1.31883E+02 -1.14805E+02 -4.45275E+01  3.07529E+01  8.58107E+01
   1.15772E+02  1.29341E+02  1.36213E+02  1.30085E+02  1.21218E+02  1.13841E+02  1.07672E+02  1.02363E+02  9.78103E+01  9.41709E+01
   9.13633E+01  8.92965E+01  8.77918E+01  8.64630E+01  8.49401E+01  8.32243E+01  8.14778E+01  7.98744E+01  7.82752E+01  7.63660E+01
   7.41722E+01  7.18979E+01  6.96788E+01  6.73432E+01  6.48681E+01  6.24604E+01  6.01389E+01  5.78065E+01  5.51300E+01  5.19192E+01
   4.82433E+01  4.39174E+01  3.87343E+01  3.31929E+01  2.81254E+01  2.44423E+01  2.25748E+01  2.22273E+01  2.29630E+01  2.45636E+01
   2.69069E+01  2.97249E+01  3.27753E+01  3.57874E+01  3.85325E+01  4.09777E+01  4.34650E+01  4.62965E+01  4.94004E+01  5.24367E+01
   5.52208E+01  5.78120E+01  6.04000E+01  6.29620E+01  6.53140E+01  6.74542E+01  6.91311E+01  6.99257E+01  6.99332E+01  6.94765E+01
   6.84499E+01  6.67406E+01  6.46759E+01  6.26708E+01  6.07197E+01  5.78003E+01  5.27692E+01  4.54314E+01  3.63923E+01  2.62574E+01
   1.57785E+01  5.78638E+00 -2.48843E+00 -7.81360E+00 -9.50632E+00 -7.86474E+00 -3.96237E+00  1.14041E+00  6.43609E+00  1.12207E+01
   1.49026E+01  1.75070E+01  1.95003E+01  2.15096E+01  2.42192E+01  2.76484E+01  3.12713E+01  3.48644E+01  3.82347E+01  4.08088E+01
   4.24546E+01  4.24764E+01  4.04648E+01  3.66630E+01  3.18918E+01  2.71323E+01  2.31999E+01  2.05627E+01  1.94095E+01  1.97814E+01
   2.15905E+01  2.46163E+01  2.84535E+01  3.26872E+01  3.70006E+01  4.11673E+01  4.51425E+01  4.89871E+01  5.27399E+01  5.63198E+01
   5.97472E+01  6.30742E+01  6.63373E+01  6.96827E+01  7.32910E+01  7.71575E+01  8.14255E+01  8.64509E+01  9.21159E+01  9.81214E+01
   1.04736E+02  1.12459E+02  1.21525E+02  1.31834E+02  1.42946E+02  1.53734E+02  1.62250E+02  1.66170E+02  1.64362E+02  1.57505E+02
   1.47551E+02  1.36386E+02  1.25735E+02  1.16708E+02  1.09232E+02  1.02182E+02  9.46054E+01  8.59458E+01  7.60326E+01  6.54603E+01
   5.52781E+01  4.61450E+01  3.82651E+01  3.18850E+01  2.70513E+01  2.37136E+01  2.14434E+01  1.97162E+01  1.82036E+01  1.69162E+01
   1.59563E+01  1.53360E+01  1.48231E+01  1.44588E+01  1.44444E+01  1.46745E+01  1.47222E+01  1.44489E+01  1.43380E+01  1.45705E+01
   1.48200E+01  1.48858E+01  1.49448E+01  1.50873E+01  1.52055E+01  1.51106E+01  1.48863E+01  1.49491E+01  1.53171E+01  1.57337E+01
   1.59650E+01  1.59548E+01  1.57298E+01  1.54632E+01  1.53409E+01  1.53035E+01  1.53686E+01  1.55135E+01  1.56608E+01  1.58001E+01
   1.60475E+01  1.63167E+01  1.64190E+01  1.62208E+01  1.58071E+01  1.55046E+01  1.53955E+01  1.54227E+01  1.55540E+01  1.56119E+01
   1.54109E+01  1.51702E+01  1.50837E+01  1.51013E+01  1.52136E+01  1.53137E+01  1.53430E+01  1.54185E+01  1.55766E+01  1.57308E+01
   1.57516E+01  1.56397E+01  1.53524E+01  1.49724E+01  1.45450E+01  1.43190E+01  1.45068E+01  1.50988E+01  1.56785E+01  1.59163E+01
   1.57305E+01  1.53656E+01  1.51074E+01  1.49770E+01  1.49028E+01  1.49377E+01  1.50334E+01  1.49327E+01  1.46495E+01  1.43911E+01
 NY background values follow
     5.709E+01    5.781E+01    5.854E+01    5.927E+01    6.000E+01    6.074E+01    6.148E+01    6.221E+01    6.295E+01    6.369E+01
     6.443E+01    6.517E+01    6.590E+01    6.664E+01    6.737E+01    6.809E+01    6.881E+01    6.953E+01    7.024E+01    7.094E+01
     7.163E+01    7.232E+01    7.300E+01    7.367E+01    7.433E+01    7.498E+01    7.562E+01    7.624E+01    7.686E+01    7.746E+01
     7.804E+01    7.861E+01    7.917E+01    7.971E+01    8.024E+01    8.075E+01    8.124E+01    8.172E+01    8.218E+01    8.262E+01
     8.304E+01    8.344E+01    8.383E+01    8.419E+01    8.454E+01    8.486E+01    8.517E+01    8.545E+01    8.571E+01    8.595E+01
     8.617E+01    8.636E+01    8.653E+01    8.668E+01    8.680E+01    8.690E+01    8.697E+01    8.702E+01    8.704E+01    8.703E+01
     8.700E+01    8.694E+01    8.686E+01    8.675E+01    8.662E+01    8.646E+01    8.628E+01    8.608E+01    8.586E+01    8.563E+01
     8.537E+01    8.509E+01    8.481E+01    8.450E+01    8.418E+01    8.385E+01    8.350E+01    8.315E+01    8.278E+01    8.241E+01
     8.202E+01    8.163E+01    8.123E+01    8.083E+01    8.042E+01    8.001E+01    7.960E+01    7.919E+01    7.877E+01    7.836E+01
     7.795E+01    7.753E+01    7.713E+01    7.672E+01    7.632E+01    7.591E+01    7.551E+01    7.512E+01    7.472E+01    7.433E+01
     7.393E+01    7.354E+01    7.315E+01    7.276E+01    7.237E+01    7.199E+01    7.160E+01    7.122E+01    7.084E+01    7.045E+01
     7.007E+01    6.969E+01    6.931E+01    6.893E+01    6.855E+01    6.818E+01    6.780E+01    6.742E+01    6.704E+01    6.667E+01
     6.629E+01    6.591E+01    6.553E+01    6.516E+01    6.478E+01    6.440E+01    6.403E+01    6.365E+01    6.327E+01    6.290E+01
     6.252E+01    6.215E+01    6.177E+01    6.140E+01    6.103E+01    6.065E+01    6.028E+01    5.991E+01    5.954E+01    5.917E+01
     5.880E+01    5.843E+01    5.806E+01    5.769E+01    5.733E+01    5.696E+01    5.660E+01    5.624E+01    5.588E+01    5.551E+01
     5.516E+01    5.480E+01    5.444E+01    5.408E+01    5.373E+01    5.338E+01    5.302E+01    5.267E+01    5.232E+01    5.197E+01
     5.163E+01    5.128E+01    5.094E+01    5.059E+01    5.025E+01    4.991E+01    4.957E+01    4.923E+01    4.889E+01    4.855E+01
     4.822E+01    4.788E+01    4.755E+01    4.722E+01    4.689E+01    4.656E+01    4.623E+01    4.590E+01    4.558E+01    4.525E+01
     4.493E+01    4.461E+01    4.429E+01    4.397E+01    4.365E+01    4.333E+01    4.302E+01    4.270E+01    4.239E+01    4.208E+01
     4.177E+01    4.146E+01    4.115E+01    4.084E+01    4.054E+01    4.024E+01    3.993E+01    3.963E+01    3.933E+01    3.903E+01
     3.874E+01    3.844E+01    3.815E+01    3.786E+01    3.757E+01    3.728E+01    3.699E+01    3.671E+01    3.642E+01    3.614E+01
     3.586E+01    3.558E+01    3.530E+01    3.502E+01    3.475E+01    3.447E+01    3.419E+01    3.392E+01    3.364E+01    3.336E+01
     3.308E+01    3.280E+01    3.252E+01    3.224E+01    3.195E+01    3.166E+01    3.137E+01    3.108E+01    3.078E+01    3.048E+01
     3.018E+01    2.987E+01    2.955E+01    2.923E+01    2.891E+01    2.858E+01    2.825E+01    2.791E+01    2.756E+01    2.721E+01
     2.685E+01    2.648E+01    2.611E+01    2.573E+01    2.534E+01    2.495E+01    2.455E+01    2.414E+01    2.372E+01    2.330E+01
     2.287E+01    2.244E+01    2.200E+01    2.155E+01    2.110E+01    2.063E+01    2.017E+01    1.969E+01    1.921E+01    1.872E+01
     1.823E+01    1.773E+01    1.722E+01    1.671E+01    1.619E+01    1.566E+01    1.513E+01    1.459E+01    1.404E+01    1.349E+01
     1.293E+01    1.236E+01    1.180E+01    1.122E+01    1.065E+01    1.008E+01    9.508E+00    8.941E+00    8.378E+00    7.822E+00
     7.272E+00    6.732E+00    6.202E+00    5.684E+00    5.180E+00    4.690E+00    4.216E+00    3.760E+00    3.323E+00    2.907E+00
     2.513E+00    2.142E+00    1.796E+00    1.477E+00    1.185E+00    9.231E-01    6.917E-01    4.924E-01    3.269E-01    1.964E-01
     1.021E-01    4.454E-02    2.227E-02    3.423E-02    7.932E-02    1.565E-01    2.646E-01    4.025E-01    5.692E-01    7.635E-01
     9.844E-01    1.231E+00    1.502E+00    1.796E+00    2.112E+00    2.449E+00    2.806E+00    3.182E+00    3.576E+00    3.987E+00
     4.413E+00    4.854E+00    5.308E+00    5.775E+00    6.252E+00    6.740E+00    7.237E+00    7.742E+00    8.253E+00    8.771E+00
     9.293E+00    9.819E+00    1.035E+01    1.088E+01    1.142E+01    1.195E+01    1.249E+01    1.303E+01    1.357E+01    1.412E+01
     1.466E+01    1.520E+01    1.574E+01    1.627E+01    1.681E+01    1.734E+01    1.788E+01    1.840E+01    1.893E+01    1.945E+01
     1.996E+01    2.047E+01    2.098E+01    2.147E+01    2.197E+01    2.245E+01    2.293E+01    2.340E+01    2.386E+01    2.431E+01
     2.475E+01    2.519E+01    2.561E+01    2.603E+01    2.643E+01    2.683E+01    2.721E+01    2.759E+01    2.796E+01    2.832E+01
     2.866E+01    2.900E+01    2.933E+01    2.965E+01    2.996E+01    3.026E+01    3.055E+01    3.083E+01    3.110E+01    3.137E+01
     3.162E+01    3.186E+01    3.209E+01    3.231E+01    3.253E+01    3.273E+01    3.292E+01    3.310E+01    3.328E+01    3.344E+01
     3.359E+01    3.374E+01    3.387E+01    3.399E+01    3.411E+01    3.421E+01    3.431E+01    3.439E+01    3.446E+01    3.453E+01
     3.458E+01    3.462E+01    3.466E+01    3.468E+01    3.469E+01    3.470E+01    3.469E+01    3.467E+01    3.465E+01    3.461E+01
     3.456E+01    3.451E+01    3.444E+01    3.436E+01    3.427E+01    3.418E+01    3.407E+01    3.395E+01    3.382E+01    3.369E+01
     3.354E+01    3.338E+01    3.321E+01    3.303E+01    3.285E+01    3.265E+01    3.245E+01    3.224E+01    3.202E+01    3.179E+01
     3.156E+01    3.131E+01    3.107E+01    3.081E+01    3.055E+01    3.028E+01    3.001E+01    2.973E+01    2.944E+01    2.915E+01
     2.886E+01    2.856E+01    2.826E+01    2.795E+01    2.764E+01    2.733E+01    2.701E+01    2.669E+01    2.637E+01    2.604E+01
     2.572E+01    2.539E+01    2.506E+01    2.473E+01    2.440E+01    2.406E+01    2.372E+01    2.339E+01    2.305E+01    2.271E+01
     2.237E+01    2.202E+01    2.168E+01    2.133E+01    2.099E+01    2.064E+01    2.029E+01    1.994E+01    1.960E+01    1.925E+01
     1.890E+01    1.854E+01    1.819E+01    1.784E+01    1.749E+01    1.714E+01    1.679E+01    1.643E+01    1.608E+01    1.573E+01
 Mac      Conc. = 3.04E-04
   3.58400E+01  3.60910E+01  3.67337E+01  3.75851E+01  3.82568E+01  3.83890E+01  3.77910E+01  3.66346E+01  3.53128E+01  3.42768E+01
   3.38570E+01  3.42409E+01  3.51872E+01  3.55114E+01  3.41029E+01  3.14176E+01  2.96642E+01  3.04218E+01  3.32112E+01  3.72680E+01
   4.24575E+01  4.79905E+01  5.28254E+01  5.64702E+01  5.89765E+01  6.10610E+01  6.32829E+01  6.58189E+01  6.85404E+01  7.12837E+01
   7.40333E+01  7.66956E+01  7.88279E+01  7.98465E+01  7.96867E+01  7.93292E+01  8.01012E+01  8.24131E+01  8.53292E+01  8.75243E+01
   8.86342E+01  8.92222E+01  9.00655E+01  9.15705E+01  9.34616E+01  9.52699E+01  9.66878E+01  9.74832E+01  9.74834E+01  9.67278E+01
   9.55089E+01  9.42154E+01  9.30237E+01  9.18352E+01  9.06263E+01  8.97367E+01  8.96112E+01  9.00984E+01  9.09502E+01  9.23900E+01
   9.43978E+01  9.63364E+01  9.76307E+01  9.79553E+01  9.74694E+01  9.67270E+01  9.57012E+01  9.40405E+01  9.20253E+01  9.07553E+01
   9.10937E+01  9.27904E+01  9.50251E+01  9.72244E+01  9.89535E+01  9.99987E+01  1.00131E+02  9.95076E+01  9.85439E+01  9.73794E+01
   9.59971E+01  9.45996E+01  9.35560E+01  9.29945E+01  9.28123E+01  9.29859E+01  9.33999E+01  9.38577E+01  9.42741E+01  9.46200E+01
   9.49498E+01  9.53907E+01  9.59014E+01  9.62530E+01  9.59456E+01  9.47788E+01  9.26543E+01  8.98184E+01  8.69069E+01  8.44422E+01
   8.23006E+01  8.04024E+01  7.86618E+01  7.65388E+01  7.28374E+01  6.66083E+01  5.82521E+01  4.95746E+01  4.22561E+01  3.71505E+01
