 
 $NMID
 ID=''
 FMTDAT='(2E13.5)'
 TRAMP=   1.00000E+0
 VOLUME=   1.00000E+0
 $END
   3.34924E+5   7.20944E+5
   1.56068E+5   2.17783E+6
   3.99472E+5   2.09761E+6
   2.45898E+5   1.95310E+6
   1.72783E+5   2.05868E+6
   2.59783E+5   2.04189E+6
   2.22681E+5   1.96207E+6
   1.58346E+5   1.99534E+6
   1.63314E+5   1.98847E+6
   1.21320E+5   1.95384E+6
   7.66196E+4   1.95695E+6
   5.54646E+4   1.93452E+6
   1.69611E+4   1.91573E+6
  -1.32774E+4   1.91416E+6
  -4.67324E+4   1.88506E+6
  -8.78583E+4   1.86761E+6
  -1.07562E+5   1.86601E+6
  -1.33351E+5   1.83855E+6
  -1.71205E+5   1.82321E+6
  -1.79922E+5   1.81835E+6
  -1.99978E+5   1.79059E+6
  -2.34239E+5   1.77527E+6
  -2.50213E+5   1.76670E+6
  -2.72410E+5   1.74089E+6
  -3.08041E+5   1.72293E+6
  -3.19175E+5   1.71064E+6
  -3.41979E+5   1.68687E+6
  -3.78032E+5   1.66942E+6
  -3.99816E+5   1.65095E+6
  -4.16593E+5   1.62623E+6
  -4.44053E+5   1.61146E+6
  -4.60082E+5   1.59542E+6
  -4.77226E+5   1.57051E+6
  -4.96575E+5   1.55310E+6
  -5.07564E+5   1.53734E+6
  -5.17948E+5   1.51874E+6
  -5.34753E+5   1.50481E+6
  -5.49298E+5   1.48814E+6
  -5.63254E+5   1.46465E+6
  -5.79275E+5   1.44707E+6
  -5.94663E+5   1.42742E+6
  -6.09150E+5   1.40482E+6
  -6.21359E+5   1.38449E+6
  -6.34658E+5   1.36610E+6
  -6.50412E+5   1.34465E+6
  -6.65032E+5   1.32545E+6
  -6.78259E+5   1.30522E+6
  -6.93005E+5   1.28345E+6
  -7.02743E+5   1.26146E+6
  -7.11697E+5   1.24159E+6
  -7.22740E+5   1.22275E+6
  -7.32724E+5   1.20427E+6
  -7.41230E+5   1.18465E+6
  -7.51567E+5   1.16478E+6
  -7.61373E+5   1.14513E+6
  -7.70082E+5   1.12414E+6
  -7.80173E+5   1.10137E+6
  -7.88735E+5   1.07980E+6
  -7.94190E+5   1.05930E+6
  -8.01844E+5   1.03944E+6
  -8.10769E+5   1.01829E+6
  -8.17589E+5   9.97863E+5
  -8.23731E+5   9.77575E+5
  -8.30781E+5   9.56378E+5
  -8.35961E+5   9.34603E+5
  -8.38851E+5   9.13410E+5
  -8.42260E+5   8.93396E+5
  -8.46395E+5   8.73101E+5
  -8.50965E+5   8.53546E+5
  -8.55819E+5   8.32383E+5
  -8.59590E+5   8.11519E+5
  -8.62267E+5   7.90683E+5
  -8.64926E+5   7.71133E+5
  -8.68306E+5   7.50779E+5
  -8.70786E+5   7.30065E+5
  -8.72187E+5   7.09410E+5
  -8.74026E+5   6.89480E+5
  -8.75410E+5   6.70143E+5
  -8.76560E+5   6.50029E+5
  -8.77541E+5   6.29507E+5
  -8.77794E+5   6.09417E+5
  -8.77091E+5   5.89823E+5
  -8.77379E+5   5.70566E+5
  -8.77640E+5   5.50208E+5
  -8.77100E+5   5.29247E+5
  -8.75674E+5   5.09820E+5
  -8.74879E+5   4.91279E+5
  -8.74211E+5   4.72229E+5
  -8.71848E+5   4.52773E+5
  -8.69544E+5   4.35202E+5
  -8.66779E+5   4.17662E+5
  -8.64260E+5   4.00730E+5
  -8.61749E+5   3.83193E+5
  -8.57903E+5   3.66612E+5
  -8.53363E+5   3.50021E+5
  -8.48835E+5   3.34221E+5
  -8.45300E+5   3.19157E+5
  -8.41745E+5   3.04107E+5
  -8.37329E+5   2.88171E+5
  -8.32557E+5   2.72799E+5
  -8.28009E+5   2.58318E+5
  -8.23606E+5   2.43129E+5
  -8.18580E+5   2.27780E+5
  -8.12359E+5   2.12797E+5
  -8.06426E+5   1.99912E+5
  -8.01011E+5   1.87038E+5
  -7.96153E+5   1.73516E+5
  -7.90078E+5   1.59446E+5
  -7.82575E+5   1.46451E+5
  -7.75499E+5   1.35168E+5
  -7.69876E+5   1.23897E+5
  -7.63892E+5   1.11425E+5
  -7.57651E+5   9.83936E+4
  -7.51076E+5   8.62139E+4
  -7.44020E+5   7.47531E+4
  -7.37369E+5   6.24509E+4
  -7.30466E+5   5.01524E+4
  -7.22267E+5   3.87332E+4
  -7.14249E+5   2.85573E+4
  -7.06676E+5   1.86137E+4
  -7.00073E+5   8.76805E+3
  -6.92957E+5  -1.29452E+3
  -6.85389E+5  -1.13413E+4
  -6.78238E+5  -2.13627E+4
  -6.70484E+5  -3.11183E+4
  -6.61733E+5  -4.04623E+4
  -6.53285E+5  -4.94739E+4
  -6.45600E+5  -5.86524E+4
  -6.37688E+5  -6.76309E+4
  -6.29755E+5  -7.69252E+4
  -6.21802E+5  -8.68071E+4
  -6.12683E+5  -9.65251E+4
  -6.03258E+5  -1.05027E+5
  -5.94818E+5  -1.12951E+5
  -5.86662E+5  -1.21060E+5
  -5.77571E+5  -1.29492E+5
  -5.68713E+5  -1.36616E+5
  -5.60645E+5  -1.43742E+5
  -5.52236E+5  -1.51419E+5
  -5.43294E+5  -1.59059E+5
  -5.34176E+5  -1.65973E+5
  -5.25146E+5  -1.71873E+5
  -5.16128E+5  -1.77769E+5
  -5.07770E+5  -1.84167E+5
  -4.99500E+5  -1.90377E+5
  -4.89991E+5  -1.96354E+5
  -4.80664E+5  -2.02114E+5
  -4.71216E+5  -2.07726E+5
  -4.62189E+5  -2.12777E+5
  -4.53003E+5  -2.17361E+5
  -4.44220E+5  -2.21832E+5
  -4.35508E+5  -2.25985E+5
  -4.27211E+5  -2.29883E+5
  -4.18980E+5  -2.33954E+5
  -4.10253E+5  -2.38229E+5
  -4.01318E+5  -2.41554E+5
  -3.93115E+5  -2.44174E+5
  -3.84776E+5  -2.47403E+5
  -3.76586E+5  -2.50307E+5
  -3.67914E+5  -2.52829E+5
  -3.59916E+5  -2.55638E+5
  -3.51522E+5  -2.58028E+5
  -3.43180E+5  -2.60265E+5
  -3.34761E+5  -2.62330E+5
  -3.26537E+5  -2.64175E+5
  -3.18811E+5  -2.65327E+5
  -3.11394E+5  -2.67087E+5
  -3.03494E+5  -2.68778E+5
  -2.95546E+5  -2.70165E+5
  -2.88097E+5  -2.71201E+5
  -2.80439E+5  -2.71974E+5
  -2.73301E+5  -2.73052E+5
  -2.65851E+5  -2.74078E+5
  -2.58329E+5  -2.74694E+5
  -2.51111E+5  -2.75178E+5
  -2.43955E+5  -2.75657E+5
  -2.36868E+5  -2.76655E+5
  -2.29221E+5  -2.77019E+5
  -2.21885E+5  -2.76767E+5
  -2.14860E+5  -2.76678E+5
  -2.08109E+5  -2.77101E+5
  -2.01472E+5  -2.77555E+5
  -1.94319E+5  -2.77487E+5
  -1.87376E+5  -2.77180E+5
  -1.80367E+5  -2.76852E+5
  -1.74275E+5  -2.76213E+5
  -1.67543E+5  -2.75387E+5
  -1.61088E+5  -2.74601E+5
  -1.54786E+5  -2.74018E+5
  -1.49227E+5  -2.73148E+5
  -1.43137E+5  -2.72844E+5
  -1.36094E+5  -2.72603E+5
  -1.29490E+5  -2.71623E+5
  -1.23337E+5  -2.70134E+5
  -1.17102E+5  -2.68884E+5
  -1.11438E+5  -2.67872E+5
  -1.05180E+5  -2.66909E+5
  -9.93527E+4  -2.65435E+5
  -9.33572E+4  -2.64142E+5
  -8.71885E+4  -2.63185E+5
  -8.11733E+4  -2.61944E+5
  -7.52105E+4  -2.59762E+5
  -6.97657E+4  -2.57872E+5
  -6.42432E+4  -2.56282E+5
  -5.91353E+4  -2.54504E+5
  -5.36275E+4  -2.52721E+5
  -4.79526E+4  -2.51016E+5
  -4.26402E+4  -2.49093E+5
  -3.71619E+4  -2.46806E+5
  -3.24178E+4  -2.44524E+5
  -2.70485E+4  -2.42440E+5
  -2.21370E+4  -2.40191E+5
  -1.75610E+4  -2.37652E+5
  -1.30936E+4  -2.35900E+5
  -7.84192E+3  -2.33811E+5
  -3.01738E+3  -2.31245E+5
   1.17303E+3  -2.28346E+5
   5.42381E+3  -2.25584E+5
   9.33053E+3  -2.23471E+5
   1.36024E+4  -2.20736E+5
   1.75706E+4  -2.18003E+5
   2.10062E+4  -2.15211E+5
   2.49860E+4  -2.12967E+5
   2.87140E+4  -2.10233E+5
   3.23927E+4  -2.07453E+5
   3.58189E+4  -2.04630E+5
   3.91020E+4  -2.01607E+5
   4.21727E+4  -1.98828E+5
   4.53803E+4  -1.96479E+5
   4.87351E+4  -1.93515E+5
   5.16956E+4  -1.90649E+5
   5.42436E+4  -1.87734E+5
   5.68705E+4  -1.84905E+5
   5.98206E+4  -1.82216E+5
   6.20849E+4  -1.79510E+5
   6.43868E+4  -1.76617E+5
   6.65062E+4  -1.74046E+5
   6.88052E+4  -1.71097E+5
   7.11389E+4  -1.68411E+5
   7.29214E+4  -1.65545E+5
   7.47930E+4  -1.62822E+5
   7.66421E+4  -1.60282E+5
   7.84596E+4  -1.57591E+5
   8.04581E+4  -1.54583E+5
   8.23508E+4  -1.51707E+5
   8.35138E+4  -1.49128E+5
   8.51524E+4  -1.46295E+5
   8.67829E+4  -1.43703E+5
   8.78811E+4  -1.40786E+5
   8.91582E+4  -1.37965E+5
   9.03734E+4  -1.35482E+5
   9.16828E+4  -1.33055E+5
   9.31521E+4  -1.30221E+5
   9.42020E+4  -1.27439E+5
   9.52167E+4  -1.24506E+5
   9.58524E+4  -1.21989E+5
   9.70484E+4  -1.19526E+5
   9.79132E+4  -1.16797E+5
   9.91873E+4  -1.14122E+5
   9.99127E+4  -1.11492E+5
   1.00823E+5  -1.08979E+5
   1.01712E+5  -1.05805E+5
   1.02289E+5  -1.03127E+5
   1.02942E+5  -1.00335E+5
   1.03315E+5  -9.79832E+4
   1.03991E+5  -9.57525E+4
   1.04920E+5  -9.28176E+4
   1.05280E+5  -8.99957E+4
   1.05886E+5  -8.75281E+4
   1.05978E+5  -8.51648E+4
   1.06431E+5  -8.27708E+4
   1.06621E+5  -8.00965E+4
   1.06467E+5  -7.78064E+4
   1.06732E+5  -7.51764E+4
   1.07334E+5  -7.29985E+4
   1.07709E+5  -7.04251E+4
   1.07671E+5  -6.76803E+4
   1.07779E+5  -6.54377E+4
   1.07467E+5  -6.30720E+4
   1.07577E+5  -6.08569E+4
   1.07547E+5  -5.82452E+4
   1.07511E+5  -5.59401E+4
   1.07145E+5  -5.40252E+4
   1.07157E+5  -5.17143E+4
   1.07010E+5  -4.91816E+4
   1.06428E+5  -4.69629E+4
   1.06066E+5  -4.47320E+4
   1.05513E+5  -4.28747E+4
   1.05214E+5  -4.08031E+4
   1.04682E+5  -3.88653E+4
   1.04425E+5  -3.68039E+4
   1.04106E+5  -3.44595E+4
   1.03529E+5  -3.24587E+4
   1.02805E+5  -3.05719E+4
   1.02413E+5  -2.86204E+4
   1.01852E+5  -2.66971E+4
   1.00903E+5  -2.49318E+4
   1.00519E+5  -2.34235E+4
   9.97317E+4  -2.12999E+4
   9.89430E+4  -1.91509E+4
   9.81106E+4  -1.76099E+4
   9.74505E+4  -1.60162E+4
   9.67733E+4  -1.44433E+4
   9.63744E+4  -1.25376E+4
   9.53942E+4  -1.06875E+4
   9.44614E+4  -9.48471E+3
   9.33259E+4  -7.88390E+3
   9.25376E+4  -6.17456E+3
   9.19990E+4  -4.57916E+3
   9.09378E+4  -2.96068E+3
   9.01042E+4  -1.56700E+3
   8.92162E+4  -2.47716E+2
   8.83233E+4   1.08207E+3
   8.75215E+4   2.49508E+3
   8.64821E+4   4.05526E+3
   8.51766E+4   5.72966E+3
   8.41086E+4   6.65931E+3
   8.36213E+4   7.93478E+3
   8.25140E+4   9.07945E+3
   8.13644E+4   1.02338E+4
   8.05114E+4   1.14492E+4
   7.96781E+4   1.25822E+4
   7.84216E+4   1.36348E+4
   7.77615E+4   1.48466E+4
   7.65081E+4   1.58728E+4
   7.54702E+4   1.67047E+4
   7.44708E+4   1.79876E+4
   7.35602E+4   1.89227E+4
   7.25853E+4   2.01055E+4
   7.12643E+4   2.12071E+4
   7.04217E+4   2.20469E+4
   6.92583E+4   2.26208E+4
   6.81812E+4   2.35117E+4
   6.71808E+4   2.41893E+4
   6.64511E+4   2.51372E+4
   6.50896E+4   2.60117E+4
   6.44324E+4   2.66844E+4
   6.32009E+4   2.76888E+4
   6.18626E+4   2.81268E+4
   6.07830E+4   2.87213E+4
   5.97023E+4   2.93395E+4
   5.88025E+4   2.97738E+4
   5.79748E+4   3.07459E+4
   5.68400E+4   3.13641E+4
   5.59209E+4   3.18809E+4
   5.47311E+4   3.23430E+4
   5.38643E+4   3.29901E+4
   5.25032E+4   3.32689E+4
   5.14954E+4   3.39209E+4
   5.08624E+4   3.40577E+4
   4.96273E+4   3.44995E+4
   4.85807E+4   3.50491E+4
   4.76004E+4   3.54328E+4
   4.65299E+4   3.57755E+4
   4.55247E+4   3.59464E+4
   4.47573E+4   3.63859E+4
   4.35654E+4   3.67129E+4
   4.26565E+4   3.67295E+4
   4.17087E+4   3.69705E+4
   4.08919E+4   3.74404E+4
   3.99870E+4   3.75841E+4
   3.88091E+4   3.80386E+4
   3.80175E+4   3.79409E+4
   3.71640E+4   3.79605E+4
   3.65760E+4   3.79434E+4
   3.54002E+4   3.84438E+4
   3.47735E+4   3.83719E+4
