 
 $NMID
 ID=''
 FMTDAT='(2E13.5)'
 TRAMP=   1.00000E+0
 VOLUME=   1.00000E+0
 $END
  -1.39999E+3  -4.62638E+3
   6.98180E+2  -7.49071E+1
   1.97864E+3  -1.71390E+3
   2.62635E+3  -4.38405E+3
   3.11446E+1   2.45297E+3
  -7.95395E+2   3.50766E+3
  -4.55735E+2  -1.43433E+3
   8.59149E+2  -8.18617E+2
   2.43093E+3   1.07770E+3
   1.45861E+3   8.92002E+2
  -1.40553E+3   2.06241E+3
  -1.02633E+3   1.15296E+3
   6.79440E+2  -1.41651E+3
   7.56081E+2  -1.60375E+2
  -1.84043E+3   5.18585E+2
  -2.24731E+3  -1.09567E+3
   1.02546E+3  -9.84209E+2
   2.23840E+3  -3.33871E+2
  -1.58664E+1  -1.47580E+3
   2.00365E+1  -1.26496E+3
   6.78849E+2   5.26962E+2
  -6.76103E+2   8.80030E+2
   4.13526E+2  -5.29036E+2
   2.31647E+3   8.47865E+1
  -9.54833E+2   1.72945E+3
  -3.05698E+3   3.54122E+2
   1.50442E+2  -1.21287E+3
   1.88678E+3   1.18091E+3
  -5.02725E+2   1.87055E+3
  -1.36923E+3  -1.15799E+3
   4.81714E+0  -1.28607E+3
   7.11124E+2   1.31933E+3
  -1.61460E+2   6.54346E+2
  -1.59086E+2  -7.19538E+2
   3.60553E+2   3.17608E+2
  -5.99910E+2   5.29080E+2
  -1.04061E+3  -8.54257E+2
   7.90236E+2  -7.12344E+2
   1.57294E+3   6.38383E+2
   9.27835E+1   3.20512E+2
  -2.73862E+2  -1.78120E+2
   6.96379E+2   3.92971E+2
   6.20916E+1   1.41426E+3
  -1.09877E+3   6.42383E+2
  -8.93954E+2  -6.42477E+2
   2.58298E+2  -4.21334E+2
   1.50082E+2  -1.81681E+2
   3.63179E+1   2.26375E+2
   2.09048E+2  -4.12749E+1
   8.37927E+2   1.30250E+2
   1.58075E+2   5.67428E+2
  -8.96386E+2   4.18421E+1
  -2.86871E+2  -4.76296E+2
   5.74911E+2  -2.56017E+2
   4.48786E+1   8.64936E+1
  -3.43338E+2  -5.52120E+2
   3.65347E+2  -6.55070E+2
   5.76394E+2   3.58057E+2
  -3.38040E+2   8.53706E+2
  -6.37806E+2   1.65746E+2
  -3.29094E+1   6.21953E+1
   1.24361E+2   6.59226E+1
  -6.13570E+2   8.65590E+0
  -6.50135E+2  -5.53039E+2
  -1.00515E+2  -4.01097E+2
   2.84861E+2   1.23460E+1
   2.42375E+2  -3.48796E+1
  -9.82631E+1  -5.27629E+1
  -3.39411E+1   3.52281E+2
  -2.14180E+2  -5.40864E+1
  -1.56586E+2  -3.50645E+2
   1.60394E+1  -2.72058E+2
   2.06355E+2   1.21299E+2
   4.13434E+1   1.30351E+1
   5.75867E+0  -7.11246E+0
   1.33780E+2   1.31088E+2
   2.66533E+2   5.82217E+2
  -4.67053E+2   3.04775E+2
  -7.46423E+2  -1.64810E+2
  -5.83762E+2  -1.36685E+1
  -1.36193E+2   3.79946E+1
   8.84929E+1  -1.26301E+2
  -3.49362E+1  -3.28124E+2
   1.59187E+2   1.29780E+2
  -1.51865E+2  -3.11036E+1
   3.04041E+2   6.93837E+0
   1.18656E+2   5.21765E+1
  -5.04489E+1   1.97629E+2
  -1.39645E+2  -8.42094E+1
   6.92748E+1  -2.96509E+2
   2.98603E+2   2.45478E+2
   1.88116E+2   4.87622E+2
  -6.41473E+1  -9.11706E+0
  -4.02284E+2  -9.91056E+1
   3.14799E+1  -1.85597E+2
   6.70917E+0  -6.88316E+1
  -4.99090E+1   2.78567E+1
   7.94668E+1   3.66667E+1
   9.33431E-1  -1.13437E+2
   2.86667E+2  -5.33478E+0
   1.71868E+2  -2.53735E+1
  -6.26314E+1   3.65584E+1
  -4.93568E+2   1.03158E+2
  -2.88623E+2  -2.08288E+2
  -1.85845E+1   1.86739E+1
   2.35588E+2  -1.01921E+2
   1.21354E+2  -7.53446E+1
  -1.79253E+2  -1.27320E+2
  -1.55674E+2  -1.47641E+2
   1.89499E+1  -1.71619E+2
   1.50767E+2  -4.24218E+0
   1.32780E+2   2.71609E+1
  -4.72299E+1  -2.26692E+2
  -5.02584E+1   1.85218E+1
  -3.16243E+2   1.25194E+2
  -1.35800E+2  -9.58286E+1
  -2.20743E+2  -7.07283E+1
  -2.74348E+2  -5.83673E+1
  -7.73364E+1  -1.16735E+2
   7.65683E+1  -5.45030E+1
   1.92910E+2  -9.46743E+1
  -9.34051E+1  -1.05959E+1
  -1.19178E+2  -7.68656E+1
  -3.26113E+2   3.34229E+1
  -8.77971E+1   1.48571E+2
   4.92755E+1  -1.65248E+2
  -9.88883E+1  -1.51471E+2
   7.46983E+0  -2.88306E+1
  -1.29814E+2  -1.92801E+1
  -7.76302E+1   1.81262E+2
   1.86184E+2   3.63553E+2
   2.66965E+1   8.07598E+1
  -2.47410E+2  -1.91681E+2
  -3.23717E+1  -3.19764E+2
  -1.39178E+2   6.85269E+1
  -2.75006E+2   1.99660E+2
  -2.48190E+1  -9.14302E+1
   1.28777E+1  -7.72705E+1
   5.21239E+0   2.23877E+2
  -2.47871E+2   4.21612E+1
  -3.27071E+2  -4.95017E+1
   4.35431E+1  -1.36673E+2
   1.01546E+2  -1.44639E+2
   1.06950E+2   5.79629E+1
  -1.17469E+2   1.38654E+2
  -7.52678E+0   2.70746E+1
  -5.65114E+1  -4.27882E+1
  -2.47124E+1  -2.02351E+2
  -1.03860E+2  -1.01451E+2
  -1.33930E+1  -8.58781E+1
  -6.99533E+1  -7.97667E-2
   1.14656E+2   1.58110E+1
   1.67143E+2  -1.79206E+2
   1.31563E+2  -2.99690E+1
  -9.26735E+1   8.54956E+1
  -2.41316E+2   8.42708E+1
  -5.56362E+1  -4.38266E+0
   1.76311E+2   1.53093E+2
  -1.08470E+2   7.84994E+1
  -1.49785E+1   1.27668E+2
  -8.38520E+0   1.31917E+2
   1.08937E+2  -3.73450E+1
  -2.58204E+1  -2.04044E+2
   4.55646E+1   8.89620E+1
  -4.88094E+1  -3.12188E+2
  -5.19439E+1  -1.01654E+1
  -5.62492E+1   1.49273E+2
  -1.32474E+2  -2.22783E+1
  -7.59312E+1  -1.17724E+2
  -1.09056E+2  -7.34165E+1
   1.46555E+1   9.87253E+1
   6.38215E+1   1.66166E+2
  -2.37568E+1  -8.25150E+1
  -1.49130E+2  -1.49157E+2
  -1.62769E+2  -1.85076E+2
   2.08191E+2   3.73428E+1
  -1.55671E+2  -7.14928E+0
   8.30830E+1  -6.50848E+1
  -8.13814E+1  -1.84386E+2
   5.49913E+1  -2.27050E+1
   2.36518E+2   5.39362E+1
  -9.01030E+0   3.45776E+2
  -3.22981E+1  -2.38888E+1
  -3.52852E+1   2.10947E+2
  -5.66918E+1  -9.67907E+1
  -5.82500E+1  -6.76500E+1
   5.04900E+1   1.67651E+2
   1.54869E+1   1.11886E+1
   3.99771E+1  -8.60056E+1
   5.89032E+1  -1.33789E+2
   7.85572E+1  -1.26559E+2
  -1.24835E+2   1.24863E+1
  -6.97540E+0  -1.17130E+2
   4.84465E+1  -1.49126E+1
   1.58697E+2   3.84863E+1
  -1.65440E+2   6.07687E+1
  -1.19836E+2  -1.22915E+2
   2.05908E+2  -2.71372E+2
   2.23995E+2  -5.78919E+1
   1.04067E+2   1.80874E+2
  -1.63551E+2   2.44526E+1
  -4.00056E+1  -2.06340E+2
   3.45233E+2  -3.08952E+2
   6.70705E+1   1.05502E+2
   8.05800E+1   8.67514E+1
   7.69994E+1   9.23032E+0
   1.45944E+2  -1.52127E+2
  -1.28848E+2  -7.33934E+1
   2.83696E+1  -3.91655E-1
  -1.11367E+2  -1.54281E+1
  -1.68675E+1   7.57635E+1
   1.72122E+2  -4.16441E+1
   1.58187E+2   6.76073E+1
  -7.80905E+1  -2.07214E+1
   8.42328E+0   2.48335E+1
  -1.85360E+2  -1.76554E+2
  -1.29410E+2  -1.86541E+2
   5.08910E+1   1.29074E+2
   3.82544E+1   6.32022E+1
  -6.02209E+1  -1.21433E+2
   1.05305E+2   7.18050E+1
   2.11525E+2   2.45224E+2
  -8.46571E+0   6.80341E+0
  -1.34821E+2   3.32354E+2
  -2.67911E+2  -4.90045E+1
   6.20569E+1  -2.31126E+1
   8.94927E+1  -4.32715E+1
   1.55227E+2   3.37711E+1
  -2.07899E+2   4.86513E+1
  -6.91276E+1   3.35915E+1
   1.20356E+2  -1.16736E+2
   1.59775E+2  -2.16831E+1
  -1.45670E+2  -1.78817E+2
  -1.15079E+2  -3.51268E+2
   7.89661E+1  -2.34750E+2
  -2.38959E+2  -7.21796E+1
   6.22946E+1  -9.50842E+0
   1.14436E+2   3.77591E+1
   1.54193E+2  -1.09885E+2
   2.13344E+1  -1.93888E+2
   7.64167E+1  -1.46873E+2
  -1.18092E+2  -1.40759E+0
  -5.90813E+1   4.30403E+0
   1.09198E+1  -1.71989E+1
   7.39177E+1   9.19163E+1
   1.66227E+2  -1.61100E+2
   1.08119E+2   4.76790E+1
   2.72498E+1  -1.99371E+2
   9.35285E+1  -7.78428E+1
  -1.19011E+1  -1.48188E+2
   2.76525E+2   1.68856E+2
  -6.19013E+1   1.61943E+2
  -1.91549E+2   1.07928E+2
   4.22708E+1  -1.15972E+2
   6.05690E+1  -3.42570E+1
   2.33934E+2   5.20063E+1
  -5.04198E+1   1.44282E+2
  -3.31865E+1  -2.48838E+1
  -1.67532E+2  -1.91401E+2
   1.38420E+2   1.39646E+2
  -2.39586E+2   3.96728E+1
   4.83061E+0  -3.92424E+1
  -6.31843E+1  -2.52189E+2
   1.34434E+2  -1.31727E+2
   2.41110E+2   5.54551E+1
  -1.01539E+2  -2.82230E+1
  -1.01540E+2   7.36467E+1
  -2.71449E+2   4.43311E+1
  -7.58701E+1   1.22160E+2
   8.56919E+1  -8.80918E+1
   1.22545E+2  -8.25794E+1
  -4.78464E+1   3.87261E+1
  -1.67925E+2  -1.50126E+1
   1.33958E+2   2.57438E+2
  -2.44621E+1   1.32871E+2
  -4.64283E+1   1.99006E+2
  -1.97149E+2   2.26698E+2
  -8.16702E+0  -2.08581E+2
   1.10216E+2  -8.65449E+1
  -1.29247E+2  -6.07789E+1
  -3.91144E+1  -8.03728E+1
   5.59861E+1  -5.05365E+0
   1.77201E+2  -4.85324E+1
   1.36184E+2   3.22124E+2
  -3.30556E+2  -1.43192E+2
  -1.75277E+2   4.67843E+1
   1.06208E+2   6.00027E+1
   7.66187E+1   1.98293E+1
   3.91148E+2  -1.16354E+1
   1.83432E+2   1.75540E+1
  -9.87734E+1   7.52151E+1
   2.34087E+2  -1.65426E+2
   1.74921E+2  -2.96738E+1
  -8.70085E+1  -5.81269E+1
  -1.33018E+2  -1.03472E+2
  -6.21124E+1   9.95452E+1
   2.22421E+2   1.09377E+2
   1.30782E+1   3.98015E+2
  -3.12114E+1   1.66890E+2
  -5.04286E+1   7.42027E+1
   1.05408E+2  -1.39899E+2
   2.28660E+2  -1.03912E+2
  -1.32377E+2   1.16080E+2
   1.62780E+1   7.28936E+1
  -3.77591E+1  -6.45231E+1
  -9.21589E-1   8.82054E+1
   1.69838E+2  -1.33146E+2
   8.31468E+1   5.36088E+1
   1.96586E+2  -1.56668E+2
  -2.85569E+1  -1.20426E+2
   9.84667E+1   5.31071E+1
  -1.37189E+2   1.27651E+1
   2.70325E+2  -5.82301E+1
  -5.61857E+1   5.22608E+1
  -1.13491E+2  -4.19236E-1
   1.79044E+2   1.25772E+2
   1.07565E+2  -1.63339E+2
   8.89078E+1  -2.27605E+1
  -8.68715E+1  -7.24074E+1
  -6.56683E+1   5.66528E+1
  -9.74759E+0  -1.05786E+2
  -1.79482E+2   6.53981E+0
   1.43987E+2   1.83908E+1
   1.65487E+1   1.35175E+0
   9.88739E+1   1.86866E+2
  -4.39972E+1   1.55256E+2
   8.57877E+0   2.70392E+2
  -2.96480E+2   2.18939E+2
  -5.75612E+1  -8.47188E+1
  -1.32191E+2   5.26155E+1
  -6.95215E+1  -5.39153E+0
   6.70857E+1   3.49417E+1
  -4.50151E+0  -1.49522E+2
   1.56364E+1  -4.04372E+1
   1.89996E+2   1.55080E+2
   1.76639E+2   1.63897E+2
  -1.17575E+2   8.67686E+1
  -1.30540E+2  -3.63978E+2
  -4.18153E+1  -2.79330E+2
  -4.13720E+1  -5.77462E+1
  -2.39464E+1   2.71741E+2
  -2.97362E+1  -6.20956E+1
   9.73827E+1   4.19809E+1
   7.27151E+1  -7.81613E+1
  -2.73973E+2   2.25311E+2
  -6.17300E+1   1.26965E+2
  -1.01468E+2   3.84491E+1
   1.00793E+2  -1.09269E+2
   1.98389E+1  -2.16168E+0
   1.82585E+2   6.76072E+1
  -2.69346E+2   9.92805E+1
  -9.53666E+1  -1.41581E+2
  -5.56739E+1  -1.35025E+2
  -1.11217E+1  -6.85112E+1
   8.19207E+1  -9.79057E+0
   6.65592E+1  -2.39681E+2
   1.92537E+2   1.33706E+2
   1.60487E+2   1.84502E+2
   2.13424E+2   2.97841E+2
   1.88139E+0  -1.02717E+2
  -5.56393E+1  -8.67960E+1
   1.47349E+2  -3.71475E+1
   8.51246E+0  -2.62946E+1
   2.03954E+2  -3.67279E+1
   7.62377E+1   1.56426E+2
  -1.99688E+2   2.75622E+2
   1.97878E+2  -3.36389E+1
