 
 $NMID
 ID=''
 FMTDAT='(2E13.5)'
 TRAMP=   1.00000E+0
 VOLUME=   1.00000E+0
 $END
  -1.35195E+4  -3.47669E+3
  -2.09271E+4   8.11481E+3
   6.80085E+3   1.99072E+4
   2.62684E+4   5.48645E+3
   9.49862E+3  -1.86732E+4
  -1.29046E+4  -2.13427E+4
  -1.59129E+4   4.62419E+2
  -3.51186E+3   1.89299E+4
   1.29082E+4   1.18362E+4
   1.46887E+4  -7.63163E+3
  -1.99601E+3  -1.23189E+4
  -1.35574E+4  -2.63498E+3
  -7.70749E+3   7.48574E+3
   3.42157E+3   8.37505E+3
   7.47729E+3  -5.60357E+1
   3.22236E+3  -7.90301E+3
  -3.71217E+3  -4.98766E+3
  -4.74550E+3   2.92206E+3
  -1.20391E+2   5.07074E+3
   3.13320E+3   2.18932E+3
   1.73028E+3  -1.66748E+3
   6.52157E+1  -3.09353E+3
  -1.10915E+3   8.28317E+2
  -2.02513E+3   3.44319E+3
  -2.65593E+2   4.72689E+2
   2.84396E+3  -1.13274E+3
   2.01551E+3   8.83822E+2
  -2.21034E+3   1.02060E+3
  -2.28465E+3  -1.04979E+3
   1.07703E+3   2.23255E+2
   1.53969E+3   2.05206E+3
  -5.00026E+2   8.65014E+2
  -1.16701E+3  -1.14739E+3
  -7.75586E+2  -1.64178E+3
   3.07174E+2  -7.15398E+2
   1.44473E+3   9.94044E+1
   9.37883E+2   1.02398E+3
  -4.47876E+1   8.21844E+2
  -2.01932E+2  -4.59848E+2
  -4.19728E+2  -3.20582E+2
  -6.62256E+2  -1.31682E+2
   3.05772E+2  -9.41767E+2
   1.16424E+3  -7.83022E+2
   4.53964E+2  -2.58550E+2
   1.20950E+2   1.55859E+2
   4.97124E+2   5.89467E+2
  -2.20043E+2   1.63045E+3
  -1.93541E+3   1.83363E+2
  -1.45813E+3  -1.87152E+3
  -8.42357E+1  -1.45035E+3
   5.32563E+2   2.56526E+2
   1.76456E+2  -2.51429E+2
   6.64281E+2  -7.14970E+2
   7.37049E+2   2.12752E+2
  -4.10884E+2   6.71664E+2
  -1.20108E+3   1.88490E+2
  -7.25471E+2  -3.86916E+2
   2.37527E+2  -7.95349E+2
   5.58066E+2  -1.05306E+3
   2.67117E+2  -6.59193E+2
   1.90271E+2   1.66178E+1
   4.33625E+2   1.17165E+3
  -2.26952E+2   1.47214E+3
  -1.28962E+3   1.39574E+2
  -1.40985E+3  -1.35972E+3
  -7.40622E+2  -1.13933E+3
  -2.97242E+2  -5.63101E+2
   4.27513E+2  -6.23236E+2
   1.23953E+3  -1.02436E+2
   5.45515E+2   5.65956E+2
  -5.45286E+2  -1.93539E+2
  -1.15993E+2  -5.17577E+2
   6.48726E+2   4.80353E+2
   1.31958E+2   1.26311E+3
  -4.25252E+2   1.83239E+2
  -6.75588E+0  -6.51972E+2
   2.22267E+2  -2.40369E+2
  -5.92987E+2   6.91103E+2
  -3.52774E+2   4.78755E+2
   3.23648E+1  -2.90416E+2
   6.11135E+1  -5.83737E+2
  -2.79578E+2  -4.40709E+2
  -1.77090E+2   1.47251E+2
  -2.41983E+2  -9.74253E+1
   1.19601E+2  -2.19109E+2
   7.88890E+2  -1.70813E+2
   6.98738E+2  -4.93404E+1
  -6.28083E+1   2.51770E+2
  -2.16115E+2   4.92763E+1
   1.85978E+2   3.99121E+2
   5.05867E+2   5.90177E+2
   2.53620E+2   7.38779E+2
  -5.73490E+2  -2.27088E+2
  -6.03521E+2  -1.79351E+2
  -4.88855E+2  -2.01991E+2
   4.16979E+2  -3.19278E+2
   8.81465E+2   7.12288E+1
   4.09361E+2   3.03641E+2
  -8.06286E+1  -2.77553E+2
   4.47849E+2  -3.23665E+2
   5.22044E+2   8.11382E+2
  -4.43018E+1   1.07217E+3
  -4.18478E+2  -5.14252E+1
  -2.61804E+1  -1.08278E+3
   6.27919E+2  -4.18644E+2
  -3.38749E+1   1.02501E+3
  -6.05612E+2   6.28810E+2
  -5.99388E+2  -1.88204E+2
   3.05734E+2  -1.16927E+3
   7.98991E+2  -6.76739E+2
   8.30160E+2   7.36873E+1
   2.64323E+2   3.94631E+2
  -5.41224E+1   5.28672E+2
   1.15035E+2   3.38221E+2
  -5.82682E+1   1.17152E+2
  -3.59370E+2  -3.09884E+1
  -6.67822E+2   1.46117E+2
  -5.26452E+2  -5.03086E+2
   5.60333E+2  -7.71563E+2
   9.02702E+2  -2.11515E+2
   6.44472E+2   2.22487E+2
   1.87620E+2   5.38963E+2
  -2.06699E+2   7.00530E+2
  -1.46044E+2   5.87061E+2
  -3.55165E+2   8.33534E+1
  -2.98397E+2  -2.34960E+2
   2.52561E+2  -4.20455E+2
   3.09703E+2  -1.56252E+2
   1.60004E+2   2.61071E+2
  -9.73635E+1   3.68510E+2
  -3.68622E+2   2.54451E+2
  -2.16896E+2  -4.33659E+2
   6.40924E+1  -1.34580E+2
   2.24697E+2   1.59718E+0
  -2.07564E+1   7.55182E+1
   1.77358E+2  -2.04556E+2
   4.27514E+2  -2.01755E+2
   5.13024E+2   4.90414E+2
  -1.36273E+2   5.69905E+2
  -3.32170E+2   1.35895E+2
  -4.14626E+2  -2.73211E+2
   3.19121E+2  -1.52959E+2
   3.84428E+2   3.92182E+2
   2.77268E+2   6.52675E+2
  -2.34620E+2   5.93671E+2
  -4.05549E+2   8.86576E+0
  -8.85141E+1  -1.29270E+2
  -2.53293E+2  -1.61943E+2
  -5.56879E+1  -1.16868E+2
  -1.44689E+1  -1.10135E+2
   4.88465E+2  -2.15461E+2
   5.67275E+2   2.02568E+2
   3.39846E+2   4.82550E+2
  -6.33186E+1   5.46106E+2
  -1.69072E+2   1.92610E+2
   1.85252E+2  -2.62267E+1
  -1.45597E+2   1.78062E+2
  -1.30357E+2   1.32771E+2
  -1.78578E+2   1.33601E+2
  -9.76907E+1  -2.07162E+2
  -1.75720E+2   1.33488E+2
   5.26058E+1   2.85518E+2
  -1.72734E+2  -1.61626E+2
   6.42101E+1  -1.00060E+2
   3.25687E+2  -2.64251E+2
   4.73818E+2   1.60617E+2
   2.31915E+2   2.95241E+2
  -1.66077E+2   2.42892E+2
  -8.23261E+1  -9.81440E+0
   1.46567E+2  -6.59242E+1
   9.98677E+1   3.10599E+2
  -1.04354E+2   2.41097E+2
  -1.98611E+2  -7.69931E+1
  -1.20751E+2  -6.65807E+1
   1.78784E+2  -6.34356E+1
   8.12437E+1   3.13835E+2
  -3.57376E+2  -3.69226E+1
  -1.38165E+2  -2.56361E+2
   3.62182E+2  -4.74623E+2
   5.01913E+2   1.52260E+2
  -3.79337E+2   4.63922E+2
  -2.17058E+2   3.36500E+1
  -2.20144E+2  -4.83474E+1
  -2.18625E+2  -4.59973E+1
  -3.50396E+1  -2.57945E+2
  -1.79064E+2  -2.53715E+2
   3.96563E+2  -1.74948E+2
   4.31977E+2   6.25076E+1
   5.64156E+2   4.50230E+2
   3.03102E+2   5.03226E+2
  -3.65202E+2   4.33498E+2
  -5.32322E+2  -3.01898E+2
  -3.36794E+2  -4.88264E+2
   7.45509E+1  -2.71863E+2
   2.85795E+2  -1.00107E+2
   1.29846E+0  -2.27739E+1
   6.61264E+1  -3.31647E+1
   8.47948E+0   5.74742E+1
  -4.71286E+1   1.68089E+2
  -2.08694E+2   1.70731E+2
  -2.94335E+2  -2.15955E+2
   8.98162E+1  -1.40683E+2
   4.40696E+2  -1.53152E+2
   2.68980E+2   1.28522E+2
  -5.85970E+1   3.07550E+1
  -1.36684E+2  -2.23089E+1
   9.15203E+1  -3.03077E+2
   1.75779E+2   3.24295E+1
  -6.27774E+1  -4.78357E+1
  -5.73953E+0  -1.90952E+2
   9.62202E+0  -4.63698E+2
   5.38358E+2   1.35450E+2
   3.46332E+2   3.02499E+2
  -1.84095E+2   3.19269E+2
  -5.16059E+2  -1.76159E+1
  -6.11324E+1  -2.79257E+2
   1.68069E+2  -3.47737E+2
   8.63180E+1  -1.67767E+1
   1.67796E+2   8.99407E+1
  -2.24574E+2  -1.22600E+2
   2.04100E+2  -1.49890E+1
   1.55558E+2   1.66985E+2
  -1.81245E+2   3.64978E+2
  -4.47167E+2  -2.58853E+2
   3.61333E+0  -1.22345E+2
   2.09799E+2  -7.78545E+1
   4.67101E+1   8.66594E+1
  -6.86865E+1   7.32602E+1
  -1.86120E+2   1.79522E+1
  -1.12209E+2  -1.11105E+2
   1.97090E+2   4.48286E+0
   6.88474E+1  -6.89520E+1
  -2.32846E+2   2.99486E+1
  -1.72111E+2  -1.63350E+2
  -1.44904E+2   1.85692E+2
  -1.06547E+1  -2.23248E+2
  -2.83738E+2  -9.12587E+1
  -1.10848E+2   2.31065E+2
  -4.21219E+1  -8.77476E+1
   2.67400E+2  -1.04794E+2
   2.45379E+1  -5.88980E+1
   1.60903E+2   2.17431E+2
  -1.89016E+2   7.72316E+1
  -2.07229E+1  -6.72298E+1
  -7.23099E+1  -1.25654E+2
  -8.15877E+1   1.87364E+2
  -6.10496E+1  -8.28706E+0
   1.54158E+1   5.85120E+1
   5.40413E+1  -6.92247E+1
   1.03134E+2   1.31269E+2
   2.44947E+2   1.29601E+2
  -2.30150E+2   7.57335E+1
  -2.34308E+2  -1.95827E+2
   7.91136E+1  -3.14877E+2
   3.15086E+2  -4.76017E+0
   1.52267E+2   2.98012E+2
   3.36229E+1   1.41156E+2
  -1.70176E+2  -4.95422E+1
  -1.98956E+2   1.55848E+1
  -1.87434E+2   4.84566E+0
  -3.37507E+2  -4.01510E+1
   2.16282E+1  -3.13581E+2
   3.54496E+2  -4.29744E+2
   4.27265E+2  -1.13099E+2
   1.38867E+2   2.21491E+2
  -2.19352E+2   2.23367E+2
  -2.53051E+2  -3.73254E+1
  -2.27469E+2  -1.66141E+2
  -4.40026E+1   3.25459E+1
   2.59533E+2   7.58160E+1
   8.20819E+1   5.60579E+1
   1.88186E+2   6.33279E+1
   2.23755E+2  -2.50874E+0
  -1.15069E+2  -5.78795E+1
  -9.84594E+1  -3.09378E+1
  -1.70951E+2  -2.43951E+2
   6.95080E+1  -3.06256E+2
   8.34599E+1  -4.99890E+1
   2.74868E+2  -8.69790E+0
   2.30699E+2   8.90147E+1
  -5.45377E+1  -6.70738E+1
  -2.24427E+2   2.49225E+1
   1.19682E+2  -4.29482E+1
  -3.08501E+2   8.25123E+1
  -3.58638E+2  -2.36327E+2
   4.09541E+1  -4.15644E+2
   1.19824E+2  -3.55270E+2
   2.96080E+2   1.68914E+2
  -1.05580E+2   1.11980E+2
  -1.36614E+2  -1.71933E+1
  -1.23849E+2   4.53822E+0
  -2.42878E+1  -1.11997E+2
   1.35879E+1  -1.59316E+2
   1.65483E+2  -1.45139E+2
   1.21130E+2  -2.42647E+2
   2.47929E+2   4.71143E+1
  -8.50642E+1  -1.11292E+2
  -4.13769E+1   2.67101E+1
  -6.74247E+0  -1.09696E+2
   2.45449E+1  -1.93132E+2
   1.12366E+2  -2.55409E+2
   3.48757E+0   1.02856E+1
  -2.37040E+2   1.18809E+2
  -2.23372E+2  -1.32077E+2
  -1.10119E+2  -1.04630E+1
   2.66210E+2  -3.03107E+2
   1.27112E+2   1.41408E+2
  -1.68093E+2  -3.67561E+1
   5.84496E+1  -7.42109E+0
   8.80530E+1   4.03607E+1
   4.45458E+1  -1.71493E+2
   8.67636E+1   5.28709E+0
  -2.21429E+2  -1.14171E+0
  -1.72197E+2  -1.20078E+1
   5.77415E+1  -2.76922E+2
   5.96771E+1   4.31999E+1
   8.79449E+1   1.60782E+2
   8.66587E+1   3.72260E+1
   3.71685E+1  -9.39747E+1
   1.46981E+1   1.26267E+1
  -4.32490E+1   9.01224E+1
  -9.97608E+1   2.63840E+2
  -8.94435E+0  -1.65413E+2
  -3.54423E+1   6.03986E+1
   1.00056E+2   2.92308E+2
   6.80180E+1   1.65448E+2
  -2.85016E+2   1.41780E+2
  -2.07953E+2  -3.06005E+2
   5.06841E+0  -2.85728E+2
   1.54411E+2  -1.19487E+2
   1.98349E+2   3.68148E+1
   3.95184E+0  -1.18951E+2
  -1.09373E+2   1.63915E+2
  -5.21748E+0   1.76793E+2
  -3.63747E+1   4.71162E+1
  -1.06655E+2   3.15895E+1
  -3.68292E+2  -2.28854E+2
   1.41707E+2  -2.28677E+2
   2.18150E+2  -1.20663E+2
   1.65582E+2   1.79542E+2
   1.92694E+1   1.05382E+2
   2.05394E+1   1.34588E+2
  -1.03627E+2   7.53747E+1
   2.10657E+2  -1.57093E+2
  -1.75803E+2   3.57272E+1
  -6.29626E+1  -1.03368E+2
   1.23357E+2  -4.73110E+1
   2.41415E+2  -6.71259E+1
   1.21715E+2   1.19665E+2
   1.21753E+2  -1.18169E+2
  -7.73806E+1  -7.70925E+1
   1.21951E+2  -1.59393E+1
   3.32919E+1  -2.57348E+1
  -1.14562E+2  -2.54891E+2
  -2.93228E+1  -1.25717E+2
   1.92145E+2   9.18591E+1
   1.50486E+1   2.68048E+2
   1.28694E+2   2.91069E+2
  -1.07545E+2   2.46367E+2
  -7.78278E+1   1.07176E+2
  -1.21186E+2  -1.33581E+2
   2.71954E+2  -9.07707E+1
   9.33979E+1   2.40629E+2
  -2.16127E+2   1.07273E+2
  -1.62809E+2  -1.98259E+1
  -1.61061E+2  -2.98510E+1
   1.92015E+2  -6.49341E+1
