 
 $NMID
 ID=''
 FMTDAT='(2E13.5)'
 TRAMP=   1.00000E+0
 VOLUME=   1.00000E+0
 $END
  -3.35896E+5   2.90100E+5
  -1.15677E+6   4.23916E+5
  -1.08460E+6   5.98870E+5
  -9.96171E+5   5.63225E+5
  -1.01485E+6   5.61401E+5
  -9.84651E+5   6.16875E+5
  -9.43434E+5   6.34179E+5
  -9.35772E+5   6.53522E+5
  -9.01851E+5   6.73779E+5
  -8.81879E+5   6.76125E+5
  -8.68140E+5   6.97645E+5
  -8.30223E+5   7.10161E+5
  -8.10370E+5   7.06750E+5
  -8.00617E+5   7.23744E+5
  -7.67177E+5   7.34156E+5
  -7.43316E+5   7.31950E+5
  -7.29416E+5   7.46345E+5
  -7.02406E+5   7.55103E+5
  -6.81792E+5   7.55425E+5
  -6.61783E+5   7.70802E+5
  -6.32216E+5   7.77661E+5
  -6.11706E+5   7.76212E+5
  -5.95554E+5   7.84536E+5
  -5.72095E+5   7.87642E+5
  -5.54730E+5   7.83519E+5
  -5.34193E+5   7.91313E+5
  -5.13669E+5   7.93166E+5
  -4.99999E+5   7.86886E+5
  -4.84117E+5   7.85582E+5
  -4.62363E+5   7.86499E+5
  -4.49098E+5   7.84914E+5
  -4.32846E+5   7.85811E+5
  -4.13436E+5   7.82818E+5
  -3.96926E+5   7.80911E+5
  -3.79849E+5   7.81601E+5
  -3.60799E+5   7.81188E+5
  -3.46838E+5   7.80436E+5
  -3.32201E+5   7.79060E+5
  -3.15244E+5   7.73979E+5
  -3.01843E+5   7.70549E+5
  -2.89238E+5   7.67131E+5
  -2.75048E+5   7.61415E+5
  -2.62002E+5   7.55836E+5
  -2.50313E+5   7.52375E+5
  -2.38666E+5   7.46425E+5
  -2.28403E+5   7.41270E+5
  -2.18032E+5   7.36438E+5
  -2.08318E+5   7.29401E+5
  -1.97387E+5   7.22221E+5
  -1.86193E+5   7.17032E+5
  -1.75486E+5   7.11547E+5
  -1.66335E+5   7.05829E+5
  -1.56444E+5   6.99953E+5
  -1.46569E+5   6.93922E+5
  -1.38162E+5   6.86927E+5
  -1.30377E+5   6.80230E+5
  -1.22503E+5   6.72223E+5
  -1.14250E+5   6.64158E+5
  -1.05825E+5   6.56841E+5
  -9.83077E+4   6.49781E+5
  -9.15457E+4   6.42307E+5
  -8.46983E+4   6.34644E+5
  -7.79928E+4   6.27253E+5
  -7.21670E+4   6.19397E+5
  -6.54820E+4   6.10403E+5
  -5.83746E+4   6.00973E+5
  -5.16899E+4   5.92982E+5
  -4.59447E+4   5.84778E+5
  -4.02568E+4   5.77276E+5
  -3.52963E+4   5.69402E+5
  -3.06264E+4   5.60288E+5
  -2.56374E+4   5.50968E+5
  -2.01319E+4   5.42380E+5
  -1.58005E+4   5.34488E+5
  -1.17944E+4   5.25177E+5
  -7.26909E+3   5.15411E+5
  -2.74183E+3   5.06704E+5
   1.32310E+3   4.98053E+5
   4.87649E+3   4.88631E+5
   8.60439E+3   4.79089E+5
   1.21289E+4   4.69458E+5
   1.56613E+4   4.60124E+5
   1.88911E+4   4.50740E+5
   2.11115E+4   4.41525E+5
   2.36983E+4   4.31297E+5
   2.64097E+4   4.21715E+5
   2.86048E+4   4.12572E+5
   3.07783E+4   4.02989E+5
   3.29001E+4   3.93277E+5
   3.53971E+4   3.83432E+5
   3.76672E+4   3.73857E+5
   3.89943E+4   3.64048E+5
   4.05565E+4   3.54970E+5
   4.22643E+4   3.45347E+5
   4.38413E+4   3.34784E+5
   4.56640E+4   3.24926E+5
   4.71115E+4   3.15744E+5
   4.81788E+4   3.06422E+5
   4.84852E+4   2.96912E+5
   4.94264E+4   2.86867E+5
   5.02167E+4   2.77885E+5
   5.00727E+4   2.69185E+5
   4.95023E+4   2.59593E+5
   4.93846E+4   2.49898E+5
   4.97890E+4   2.40941E+5
   5.00018E+4   2.32486E+5
   4.94075E+4   2.23815E+5
   4.80488E+4   2.14850E+5
   4.74335E+4   2.05705E+5
   4.69255E+4   1.97313E+5
   4.61928E+4   1.89032E+5
   4.49478E+4   1.81143E+5
   4.36518E+4   1.73005E+5
   4.17099E+4   1.64841E+5
   3.99429E+4   1.57043E+5
   3.83097E+4   1.49583E+5
   3.65729E+4   1.42035E+5
   3.45525E+4   1.34590E+5
   3.28709E+4   1.26657E+5
   3.12420E+4   1.20051E+5
   2.94848E+4   1.13360E+5
   2.72442E+4   1.06900E+5
   2.50170E+4   1.00157E+5
   2.30279E+4   9.36490E+4
   2.04487E+4   8.74591E+4
   1.81547E+4   8.13481E+4
   1.62982E+4   7.53014E+4
   1.39067E+4   6.93478E+4
   1.19898E+4   6.38632E+4
   9.50591E+3   5.86097E+4
   7.08238E+3   5.31425E+4
   4.36878E+3   4.78784E+4
   2.65239E+3   4.26061E+4
   5.84625E+2   3.77908E+4
  -1.90022E+3   3.29965E+4
  -4.23947E+3   2.81242E+4
  -6.13478E+3   2.34874E+4
  -7.88361E+3   1.92504E+4
  -1.00050E+4   1.52013E+4
  -1.20130E+4   1.06374E+4
  -1.42825E+4   6.64636E+3
  -1.59790E+4   2.69414E+3
  -1.77176E+4  -1.51156E+3
  -1.90583E+4  -4.99279E+3
  -2.10480E+4  -8.37842E+3
  -2.30676E+4  -1.19615E+4
  -2.43662E+4  -1.53804E+4
  -2.56792E+4  -1.85973E+4
  -2.72754E+4  -2.19672E+4
  -2.87010E+4  -2.50471E+4
  -3.00605E+4  -2.81290E+4
  -3.09933E+4  -3.08978E+4
  -3.22952E+4  -3.36108E+4
  -3.35186E+4  -3.62220E+4
  -3.49570E+4  -3.88584E+4
  -3.58184E+4  -4.14865E+4
  -3.69290E+4  -4.37791E+4
  -3.77570E+4  -4.64208E+4
  -3.91080E+4  -4.86110E+4
  -3.97851E+4  -5.04909E+4
  -4.08753E+4  -5.28069E+4
  -4.15726E+4  -5.47205E+4
  -4.24060E+4  -5.67328E+4
  -4.31276E+4  -5.82635E+4
  -4.41043E+4  -6.04560E+4
  -4.44769E+4  -6.18704E+4
  -4.53354E+4  -6.35271E+4
  -4.58200E+4  -6.51043E+4
  -4.66048E+4  -6.67433E+4
  -4.72851E+4  -6.80082E+4
  -4.79883E+4  -6.93283E+4
  -4.83149E+4  -7.05962E+4
  -4.87296E+4  -7.19387E+4
  -4.92759E+4  -7.33032E+4
  -4.96086E+4  -7.45589E+4
  -5.01907E+4  -7.55408E+4
  -5.05154E+4  -7.66936E+4
  -5.05851E+4  -7.78265E+4
  -5.07771E+4  -7.85672E+4
  -5.11728E+4  -8.00309E+4
  -5.12315E+4  -8.08893E+4
  -5.13655E+4  -8.16222E+4
  -5.11241E+4  -8.26215E+4
  -5.15739E+4  -8.36290E+4
  -5.15900E+4  -8.42980E+4
  -5.17454E+4  -8.48761E+4
  -5.16336E+4  -8.56819E+4
  -5.19123E+4  -8.63881E+4
  -5.19581E+4  -8.70986E+4
  -5.21762E+4  -8.77976E+4
  -5.18465E+4  -8.87891E+4
  -5.17446E+4  -8.91659E+4
  -5.14543E+4  -8.97453E+4
  -5.10530E+4  -9.03953E+4
  -5.09053E+4  -9.08268E+4
  -5.06810E+4  -9.14953E+4
  -5.08026E+4  -9.21213E+4
  -5.00324E+4  -9.24085E+4
  -4.97905E+4  -9.28455E+4
  -4.90206E+4  -9.36783E+4
  -4.86511E+4  -9.37870E+4
  -4.81494E+4  -9.42128E+4
  -4.76585E+4  -9.43796E+4
  -4.74271E+4  -9.47647E+4
  -4.69460E+4  -9.50391E+4
  -4.62952E+4  -9.53780E+4
  -4.55126E+4  -9.53662E+4
  -4.46919E+4  -9.58959E+4
  -4.42683E+4  -9.58285E+4
  -4.36870E+4  -9.62415E+4
  -4.28556E+4  -9.59185E+4
  -4.22108E+4  -9.60738E+4
  -4.14623E+4  -9.61821E+4
  -4.07441E+4  -9.62418E+4
  -3.99684E+4  -9.61709E+4
  -3.90134E+4  -9.62191E+4
  -3.81176E+4  -9.58775E+4
  -3.75377E+4  -9.58861E+4
  -3.67213E+4  -9.54153E+4
  -3.60987E+4  -9.55348E+4
  -3.52591E+4  -9.53809E+4
  -3.43965E+4  -9.50858E+4
  -3.35801E+4  -9.49350E+4
  -3.25509E+4  -9.42847E+4
  -3.17432E+4  -9.43047E+4
  -3.06216E+4  -9.40679E+4
  -2.97897E+4  -9.34690E+4
  -2.89978E+4  -9.33683E+4
  -2.79400E+4  -9.30328E+4
  -2.72635E+4  -9.28653E+4
  -2.61339E+4  -9.23444E+4
  -2.54323E+4  -9.18588E+4
  -2.44854E+4  -9.12615E+4
  -2.35789E+4  -9.07665E+4
  -2.24538E+4  -9.03577E+4
  -2.16455E+4  -9.00488E+4
  -2.07362E+4  -8.93390E+4
  -1.97901E+4  -8.90312E+4
  -1.85582E+4  -8.83905E+4
  -1.80273E+4  -8.81050E+4
  -1.71469E+4  -8.75905E+4
  -1.60972E+4  -8.70508E+4
  -1.50982E+4  -8.65531E+4
  -1.42549E+4  -8.62853E+4
  -1.33451E+4  -8.52379E+4
  -1.21531E+4  -8.46836E+4
  -1.11678E+4  -8.43031E+4
  -1.01336E+4  -8.36605E+4
  -9.15593E+3  -8.28360E+4
  -8.04418E+3  -8.22631E+4
  -7.43050E+3  -8.19765E+4
  -6.54146E+3  -8.14415E+4
  -5.37597E+3  -8.08889E+4
  -4.44527E+3  -8.01000E+4
  -3.58663E+3  -7.95597E+4
  -2.52614E+3  -7.90324E+4
  -1.64083E+3  -7.87344E+4
  -4.36309E+2  -7.82306E+4
   5.12525E+2  -7.73218E+4
   1.38434E+3  -7.69644E+4
   2.56282E+3  -7.63701E+4
   3.35372E+3  -7.55765E+4
   4.35257E+3  -7.52268E+4
   5.14185E+3  -7.43284E+4
   6.23455E+3  -7.38120E+4
   7.14630E+3  -7.32343E+4
   7.82626E+3  -7.26923E+4
   9.15309E+3  -7.18988E+4
   9.76057E+3  -7.12762E+4
   1.04445E+4  -7.06696E+4
   1.12533E+4  -7.01913E+4
   1.22769E+4  -6.93694E+4
   1.30966E+4  -6.87379E+4
   1.39278E+4  -6.80561E+4
   1.47111E+4  -6.75230E+4
   1.56718E+4  -6.70236E+4
   1.65068E+4  -6.62401E+4
   1.70876E+4  -6.52926E+4
   1.80075E+4  -6.48199E+4
   1.86626E+4  -6.43153E+4
   1.93581E+4  -6.35168E+4
   2.03281E+4  -6.27840E+4
   2.09997E+4  -6.20090E+4
   2.17280E+4  -6.13256E+4
   2.25072E+4  -6.06688E+4
   2.29191E+4  -5.99737E+4
   2.34088E+4  -5.92804E+4
   2.39840E+4  -5.84750E+4
   2.46608E+4  -5.77159E+4
   2.52562E+4  -5.71956E+4
   2.59797E+4  -5.63849E+4
   2.61891E+4  -5.57620E+4
   2.67662E+4  -5.48038E+4
   2.72442E+4  -5.42442E+4
   2.79498E+4  -5.34212E+4
   2.85989E+4  -5.26597E+4
   2.89898E+4  -5.18546E+4
   2.92440E+4  -5.13091E+4
   2.97209E+4  -5.05439E+4
   3.03319E+4  -4.96252E+4
   3.05414E+4  -4.88269E+4
   3.10291E+4  -4.83358E+4
   3.13362E+4  -4.73047E+4
   3.17557E+4  -4.66535E+4
   3.21933E+4  -4.58160E+4
   3.27897E+4  -4.46737E+4
   3.29914E+4  -4.42706E+4
   3.31390E+4  -4.37020E+4
   3.36185E+4  -4.27948E+4
   3.37437E+4  -4.20325E+4
   3.42939E+4  -4.11986E+4
   3.42969E+4  -4.05610E+4
   3.45650E+4  -3.97394E+4
   3.48918E+4  -3.87365E+4
   3.50386E+4  -3.79662E+4
   3.52875E+4  -3.72361E+4
   3.55516E+4  -3.62309E+4
   3.56903E+4  -3.55275E+4
   3.56558E+4  -3.49184E+4
   3.60573E+4  -3.43831E+4
   3.63777E+4  -3.32978E+4
   3.64563E+4  -3.27426E+4
   3.67287E+4  -3.15109E+4
   3.65830E+4  -3.10707E+4
   3.66867E+4  -3.03212E+4
   3.69824E+4  -2.94734E+4
   3.69191E+4  -2.88629E+4
   3.73264E+4  -2.82948E+4
   3.72172E+4  -2.70378E+4
   3.71628E+4  -2.63758E+4
   3.69825E+4  -2.54762E+4
   3.71609E+4  -2.52124E+4
   3.73233E+4  -2.42641E+4
   3.70610E+4  -2.34323E+4
   3.73519E+4  -2.30642E+4
   3.73258E+4  -2.21840E+4
   3.72025E+4  -2.13451E+4
   3.72489E+4  -2.06083E+4
   3.73487E+4  -2.00292E+4
   3.71364E+4  -1.91023E+4
   3.72978E+4  -1.83536E+4
   3.69871E+4  -1.77943E+4
   3.68995E+4  -1.71319E+4
   3.67114E+4  -1.62141E+4
   3.67536E+4  -1.54381E+4
   3.66598E+4  -1.50696E+4
   3.63270E+4  -1.41589E+4
   3.62839E+4  -1.37171E+4
   3.59374E+4  -1.29029E+4
   3.56741E+4  -1.25344E+4
   3.57782E+4  -1.16240E+4
   3.53831E+4  -1.08253E+4
   3.50635E+4  -1.01876E+4
   3.49699E+4  -9.68629E+3
   3.48324E+4  -8.96889E+3
   3.45046E+4  -8.42866E+3
   3.42229E+4  -7.82025E+3
   3.39768E+4  -7.13420E+3
   3.37450E+4  -6.55182E+3
   3.37826E+4  -6.00706E+3
   3.31663E+4  -5.04769E+3
   3.27783E+4  -4.73383E+3
   3.24929E+4  -4.17627E+3
   3.21888E+4  -3.72325E+3
   3.18542E+4  -3.17140E+3
   3.15847E+4  -2.25173E+3
   3.12421E+4  -1.81491E+3
