 
 $NMID
 ID=''
 FMTDAT='(2E13.5)'
 TRAMP=   1.00000E+0
 VOLUME=   1.00000E+0
 $END
  -1.58876E+4   1.25555E+4
   3.55573E+3   2.11351E+4
   2.08480E+4  -2.50663E+3
  -8.66975E+3  -7.69895E+3
  -1.38709E+4   1.41118E+4
   1.02153E+4   3.61567E+3
   2.16158E+3  -1.09553E+4
  -8.64338E+3   5.12478E+3
   4.18932E+3   5.47304E+3
  -4.40921E+1  -6.65917E+3
  -9.09780E+3   1.06423E+3
   2.11876E+3   2.55612E+3
   2.46080E+3  -5.84882E+3
  -5.98932E+3   4.74311E+2
   9.14181E+2   2.08651E+3
   5.14447E+3  -4.50675E+3
  -3.27208E+2   1.48353E+3
  -4.47097E+2   4.64287E+3
   6.33459E+2  -1.36053E+3
  -8.27494E+2   8.52550E+2
   1.09371E+3   2.18079E+3
   3.40275E+2  -1.90174E+3
  -1.06260E+3   5.82047E+2
  -9.48866E+1   2.22800E+3
  -7.95860E+2  -2.51899E+3
   1.26664E+2  -9.88572E+2
   1.87285E+3   2.22081E+3
  -1.66510E+3  -1.44131E+2
  -2.40003E+3  -1.38416E+3
   1.53741E+3  -1.26383E+2
   8.32854E+2   3.63440E+2
  -1.58181E+3   7.75572E+2
  -9.59009E+2  -1.85647E+2
  -7.23816E+2  -1.93108E+3
   4.23829E+2  -1.60100E+3
   3.09504E+3   1.73004E+2
   4.83569E+2   1.60687E+3
  -2.09779E+3   1.12709E+3
  -5.18892E+1  -3.67565E+2
   2.81319E+2  -1.54855E+2
  -1.82808E+3   3.83620E+2
  -2.92686E+2  -1.48125E+3
   1.63144E+3  -1.47835E+3
   1.18436E+3   5.84799E+2
   3.27969E+2   4.20628E+2
   5.49985E+2   5.95365E+2
  -7.18197E+2   1.85323E+3
  -1.85858E+3   5.20569E+2
  -1.24344E+3  -1.98964E+3
   5.68842E+2  -1.30453E+3
   9.90046E+2   1.65660E+2
   2.90587E+2  -3.94200E+2
   3.71828E+2  -4.08385E+2
   9.21687E+2   6.36454E+2
   2.13429E+2   5.80993E+2
  -8.19275E+2   2.20556E+2
  -6.56168E+2  -5.02765E+2
   2.46703E+2  -1.21771E+3
   1.12903E+3  -3.89068E+2
   1.38985E+3   2.41008E+2
   4.62090E+2  -2.80159E+1
   3.47904E+2   7.49538E+2
  -3.42603E+2   1.59460E+3
  -1.55621E+3   6.05966E+2
  -1.45471E+3  -8.48421E+2
  -1.60675E+1  -1.58207E+3
   8.54102E+2  -1.31937E+3
   8.15659E+2  -9.45922E+2
   1.08582E+3   1.09123E+2
   6.14253E+2   5.28338E+2
  -4.06603E+2   2.76589E+1
   2.57424E+2  -8.93255E+2
   1.06562E+3  -1.90644E+2
   2.75755E+2   8.95750E+2
  -2.64972E+2   9.01891E+1
  -1.78088E+2  -6.94748E+2
   1.48245E+2  -2.80846E+2
  -1.12379E+2   3.83507E+2
  -4.57357E+2   7.70493E+1
  -5.37125E+2  -6.78821E+2
  -8.48600E+1  -8.54824E+2
   7.50103E+1  -4.84472E+2
   2.47466E+2  -6.12925E+1
  -1.11348E+2  -4.86245E+2
   2.55310E+2  -8.50835E+2
   6.80616E+2  -5.97822E+2
   7.75903E+2   7.08195E+1
  -3.43765E+1   2.79124E+2
  -1.63392E+2   3.19265E+1
   3.82483E+2   3.16734E+1
   5.33783E+2   2.42367E+2
   4.49973E+1   4.47009E+2
  -7.28288E+2   7.73781E+1
  -1.13625E+3  -2.90312E+2
  -3.09211E+2  -1.10947E+3
   5.46126E+2  -8.40555E+2
   6.79233E+2  -3.24533E+2
  -7.67197E+1   3.65428E+2
   8.68379E+1  -1.50811E+2
   7.74466E+2  -4.14735E+2
   5.44645E+2   6.44453E+2
  -4.99099E+2   7.99829E+2
  -8.65919E+2  -9.26624E+1
  -9.53848E+1  -7.32805E+2
   3.48719E+2  -5.68649E+2
   3.81646E+2   4.52009E+2
  -4.41335E+1   6.59740E+2
  -4.98191E+2  -3.53869E+2
  -3.80964E+2  -1.09087E+3
   6.14826E+2  -5.35632E+2
   1.24747E+3   1.64497E+2
   5.47507E+2   6.24236E+2
  -1.49432E+2   4.14340E+2
  -1.35182E+2   1.98392E+2
   1.22680E+2   2.68480E+2
  -3.27143E+2   1.37041E+2
  -9.57608E+2  -1.24370E+2
  -5.88130E+2  -7.46117E+2
   4.91735E+2  -1.07973E+3
   1.02983E+3  -4.91769E+2
   7.02531E+2   3.67363E+2
   2.35949E+2   4.88023E+2
   1.50249E+2   2.14477E+2
   5.14088E+1   3.18673E+2
  -7.29894E+2   2.37589E+2
  -4.02872E+2  -2.19154E+2
   2.60547E+2  -2.85216E+2
   3.89542E+2  -1.83684E+2
   1.24790E+2   1.71856E+2
   2.33108E+2   4.04527E+2
  -4.40021E+2   3.15164E+2
  -5.54729E+2  -2.63126E+2
  -2.02378E+1  -4.19033E+2
   1.70981E+2  -7.14705E+1
   9.74566E+1   4.98535E+1
   9.40217E+1  -1.80198E+2
   2.35028E+2  -1.75280E+2
   5.55674E+2   2.16312E+2
   3.36806E+1   4.74671E+2
  -3.15728E+2   3.88065E+1
  -4.15655E+2  -4.93455E+2
   2.93648E+2  -4.88852E+2
   1.00543E+3  -1.24539E+2
   3.46423E+2   4.55271E+2
  -3.90605E+2   4.31618E+2
  -5.62254E+2  -1.73763E+0
  -1.87429E+2  -6.26659E+1
   5.66626E+1  -3.17320E+2
  -1.69931E+2  -1.85353E+2
  -7.63769E+1  -3.44952E+2
   1.28070E+2  -2.34403E+2
   4.91626E+2  -2.34041E+2
   6.53349E+2   1.36945E+2
   1.56294E+2   5.65936E+2
  -2.86558E+2   1.86244E+2
  -6.17759E+1  -2.38680E+2
   1.67590E+2   3.89435E+1
  -1.69259E+2   2.70187E+2
  -2.66967E+2   3.59569E+1
  -1.56257E+1  -9.73739E+0
  -2.14031E+2   6.78611E+0
  -2.75236E+2   2.73962E+2
  -2.76369E+2   5.93636E+1
  -1.32433E+2  -2.79450E+2
   4.47777E+1  -2.55622E+2
   5.47367E+2  -1.25268E+2
   3.14804E+2   3.22870E+2
  -2.31065E+2   2.39131E+2
  -4.36934E+2   5.12783E+1
   3.80811E+2  -1.19256E+2
   8.17376E+1  -5.51427E+1
  -2.28182E+2   2.30443E+2
  -3.70927E+1   4.91107E+2
  -2.06683E+2   4.39969E+1
  -1.17234E+2  -3.12786E+1
   8.50464E+1   1.96815E+2
  -2.99696E+2   5.51412E+2
  -4.00954E+2   5.38492E+1
  -7.12072E+1  -2.90043E+2
   3.42958E+2  -1.80290E+1
   9.47038E+1   4.28190E+2
  -2.49570E+2   3.86637E+2
  -2.51702E+2   4.81449E+1
  -9.04484E+1  -1.76114E+2
  -9.65647E+1  -1.94661E+2
  -2.81007E+1  -1.51469E+2
  -5.83483E+1  -2.12240E+2
  -1.10234E+1  -1.75159E+2
   4.27890E+2   1.08861E+2
   3.92895E+2   2.78083E+2
  -2.25211E+2   8.01521E+2
  -7.15548E+2   1.82499E+2
  -3.55710E+2   1.48132E+1
  -2.21434E+2  -3.68074E+2
   3.86799E+1  -1.58240E+2
  -1.83057E+1   1.41707E+1
  -4.87677E+1  -8.86389E+0
   4.77442E+1  -1.39334E+2
  -1.10051E+1  -8.99978E+1
  -1.73416E+2   5.97789E+1
  -2.57947E+2   1.20750E+1
  -1.27287E+2  -5.21088E+2
   1.16996E+2  -2.96989E+2
   2.95208E+2   1.34845E+2
   5.82380E+1   2.69777E+2
  -4.01179E+2   1.32824E+2
  -8.50657E+1  -1.50528E+2
  -1.22155E+2  -9.40669E+1
  -2.50888E+2  -6.02396E+1
  -2.82663E+2   1.78160E+2
  -1.84781E+2  -2.15265E+1
  -2.61202E+0  -6.25166E+1
   4.41594E+2   2.41916E+2
  -1.96969E+2   4.15527E+2
  -5.50583E+2   1.70261E+2
  -5.24513E+2   2.45093E+1
  -7.84998E+1  -1.95778E+2
   1.26888E+2  -2.20415E+2
   1.48958E+2  -8.19234E+1
  -1.00946E+2   6.81100E+1
   1.63357E+0   1.22418E+2
  -6.68684E+1   1.16947E+1
  -3.59642E+1   2.64384E+2
  -3.62262E+2   1.77723E+2
  -2.65270E+2   3.19612E+1
  -1.65526E+2  -2.60511E+2
   1.19354E+2  -1.61888E+2
  -1.00586E+0   4.70960E+2
  -1.78217E+2   2.18061E+2
  -4.96288E+2  -1.75803E+2
  -4.41265E+2  -2.14386E+2
  -2.83796E+1   9.48393E+1
  -1.14933E+2   2.69555E+2
  -1.14635E+2  -7.93704E+1
  -2.66222E+2   7.55341E+1
  -1.64965E+2  -1.05682E+1
  -3.02157E+1   1.02935E+2
  -2.52773E+2   3.17875E+2
  -2.24244E+2   2.64372E+1
   7.95979E+0  -1.80918E+2
   4.24196E+1   3.09939E+1
   1.74579E+1   2.87655E+2
  -2.95246E+2   2.91445E+1
  -2.30763E+2  -8.52086E+1
  -9.07967E+1  -1.60681E+2
   9.05640E+1   4.99933E+1
  -1.07052E+2   2.21823E+2
  -3.28830E+2  -8.36529E+1
  -1.16811E+2  -4.12533E+2
   2.21206E+2  -7.66138E+1
  -1.41095E+2   1.27762E+2
  -2.68617E+1   2.33788E+2
  -6.01669E+2   1.01283E+2
  -2.38389E+2  -5.71243E+1
   8.58075E+1  -2.81509E+2
   1.10336E+2   1.63549E+2
   1.86749E+2   3.16440E+2
  -1.83883E+2   1.82300E+2
  -5.03911E+1   2.20508E+2
   9.88955E+0   2.89271E+2
  -2.79755E+2   4.33220E+2
  -3.02804E+2   1.56103E+1
  -3.09720E+2  -3.22701E+2
   2.00077E+2  -2.59578E+2
   2.37518E+2  -1.04859E+2
   3.38032E+1   2.64747E+2
  -2.68637E+2   5.78248E+1
  -2.64398E+2  -2.54285E+2
   1.24657E+2  -2.43034E+2
   1.52144E+2   1.25806E+2
  -6.61334E+1   1.02266E+2
  -4.14257E+1   5.32455E+1
   1.67393E+2  -1.37979E+1
   2.32945E+2  -6.68426E+1
   2.68985E+1   2.50758E+2
  -3.30085E+2   2.51097E+2
  -6.94903E+1  -7.98354E+1
   1.94892E+2  -1.16223E+2
   2.29011E+2  -5.42242E+1
  -9.98567E+1   1.78073E+2
   4.81765E+1  -2.41312E+0
  -7.77545E+1  -2.75661E+1
   9.04787E+1   1.81454E+1
  -1.00719E+2   1.66843E+2
  -2.76309E+2   5.81090E+1
  -2.78982E+2  -2.73025E+2
   1.51659E+1  -7.21365E+1
   2.03502E+2  -1.08542E+2
   1.50659E+2   9.73663E+1
  -6.67927E+1   2.63809E+2
  -3.27996E+2   6.18942E+1
   6.25427E+0  -1.80013E+2
  -1.48160E+2   7.87660E+1
  -6.80174E+1  -1.26999E+2
  -1.37794E+2  -2.25288E+2
  -2.61482E+1   1.26463E+2
   6.68520E+1  -7.53294E+1
  -5.31943E+1   1.83153E+2
  -1.91189E+2   7.55733E+1
  -1.83122E+2   5.55526E+1
  -2.22957E+2  -2.05221E+2
   1.05210E+2   1.55680E+2
   1.83177E+2   2.72652E+2
  -9.02400E+1   3.77547E+2
  -1.12221E+2  -6.30993E+1
   5.06999E+1  -2.77854E+2
   1.74718E+2   2.70409E+1
  -1.18613E+2   1.91805E+2
   1.70779E+2   1.22526E+2
  -7.10688E+1   6.83298E+1
   9.55695E+1  -2.85992E+1
  -5.99961E+1   1.85451E+2
  -7.53598E+1   3.71498E+2
  -1.06246E+2  -2.01472E+1
  -2.49766E+2  -1.77032E+2
  -1.38921E+2   2.24854E+1
   1.53337E+2   1.00499E+2
  -1.68158E+1   1.81829E+2
  -1.67932E+2   8.73740E+1
   2.94333E+1  -1.48617E+2
   6.14637E+1   1.00311E+2
  -1.46792E+2  -4.10157E+1
  -1.19748E+2   1.15613E+2
   4.15703E+1  -2.39986E+1
  -7.37665E+0  -1.81004E+2
   7.34164E+1   8.33475E+1
  -1.36207E+2   4.27925E+2
  -2.21468E+2   3.02454E+1
  -2.80616E+1  -2.56624E+2
  -1.68950E+2  -2.91457E+2
   6.09132E+0  -1.32668E+2
   1.53775E+2  -3.20642E+2
  -2.21013E+2  -5.51095E+1
  -6.11235E+1  -5.46936E+1
  -8.61339E+1   2.27454E+2
  -4.87728E+1   4.29049E+2
  -3.36707E+2  -1.15589E+2
  -5.84076E+2  -2.07892E+2
   5.52864E+1  -2.19107E+2
   2.24931E+2   1.39606E+2
   1.42663E+2   3.14621E+1
  -1.51360E+2   1.24925E+2
  -5.72520E+1  -8.94298E+0
  -1.70860E+1  -5.26924E+1
   3.84631E+1   5.14362E+0
  -1.08931E+2   3.39576E+1
   3.30950E+1  -2.18547E+1
   2.01983E+2  -1.78924E+2
   9.69577E+1   1.14044E+2
   1.66527E+2   3.74270E+1
  -3.11972E+2   2.43275E+2
  -1.20717E+2  -3.16907E+1
   5.06268E+1  -2.11505E+2
  -6.47667E+1  -2.00919E+2
   4.25404E+1   1.01120E+2
   6.77101E+1  -1.20810E+2
   1.64102E+2  -1.75308E+2
   3.44204E+2   3.39039E-1
   9.63023E+1  -6.06751E+1
  -9.17969E+1  -1.39873E+2
  -3.32405E+2   5.07100E+1
  -4.09234E+1  -1.04539E+2
   2.91260E+2  -2.75040E+2
   2.46895E+2   3.20769E+2
  -1.02135E+1   9.00112E+1
  -1.23221E+2   2.18591E+2
  -1.59785E+2   1.96588E+2
