 
 $NMID
 ID=''
 FMTDAT='(2E13.5)'
 TRAMP=   1.00000E+0
 VOLUME=   1.00000E+0
 $END
   6.64773E+5   3.14645E+5
   1.35760E+6   1.45513E+6
   1.48658E+6   1.25604E+6
   1.37667E+6   1.20260E+6
   1.46703E+6   1.22396E+6
   1.54623E+6   1.08182E+6
   1.51633E+6   1.00743E+6
   1.55868E+6   1.00757E+6
   1.58403E+6   9.40068E+5
   1.54727E+6   9.16037E+5
   1.56625E+6   9.02318E+5
   1.57700E+6   8.34154E+5
   1.55597E+6   8.11019E+5
   1.56430E+6   8.08593E+5
   1.55390E+6   7.64841E+5
   1.53362E+6   7.42540E+5
   1.54943E+6   7.25577E+5
   1.54800E+6   6.71001E+5
   1.53519E+6   6.25805E+5
   1.55296E+6   5.84603E+5
   1.54749E+6   5.36684E+5
   1.52874E+6   5.01184E+5
   1.53416E+6   4.66609E+5
   1.52692E+6   4.26916E+5
   1.50381E+6   4.02905E+5
   1.49815E+6   3.68607E+5
   1.48991E+6   3.41292E+5
   1.47001E+6   3.34121E+5
   1.45398E+6   3.15788E+5
   1.43969E+6   2.81068E+5
   1.42859E+6   2.59752E+5
   1.41622E+6   2.31697E+5
   1.39634E+6   1.94356E+5
   1.38308E+6   1.63568E+5
   1.37083E+6   1.31943E+5
   1.35070E+6   9.19519E+4
   1.33401E+6   5.55065E+4
   1.32111E+6   2.53905E+4
   1.29778E+6   1.30945E+3
   1.27531E+6  -2.04099E+4
   1.25764E+6  -4.26451E+4
   1.23637E+6  -6.05179E+4
   1.21356E+6  -7.45007E+4
   1.19227E+6  -9.25011E+4
   1.17180E+6  -1.08349E+5
   1.15256E+6  -1.19501E+5
   1.13084E+6  -1.33863E+5
   1.10684E+6  -1.51889E+5
   1.08464E+6  -1.70092E+5
   1.06326E+6  -1.87160E+5
   1.03878E+6  -2.04782E+5
   1.01609E+6  -2.23322E+5
   9.95167E+5  -2.39514E+5
   9.71756E+5  -2.51769E+5
   9.46952E+5  -2.64325E+5
   9.24680E+5  -2.76265E+5
   9.03109E+5  -2.83754E+5
   8.78489E+5  -2.90057E+5
   8.54336E+5  -2.99422E+5
   8.34157E+5  -3.07866E+5
   8.12689E+5  -3.12825E+5
   7.88514E+5  -3.19053E+5
   7.65916E+5  -3.27254E+5
   7.44807E+5  -3.33429E+5
   7.21668E+5  -3.38193E+5
   6.97531E+5  -3.44165E+5
   6.75356E+5  -3.50598E+5
   6.53738E+5  -3.54814E+5
   6.31198E+5  -3.58223E+5
   6.09958E+5  -3.61798E+5
   5.90099E+5  -3.65057E+5
   5.70423E+5  -3.65470E+5
   5.48931E+5  -3.66155E+5
   5.28640E+5  -3.67716E+5
   5.09862E+5  -3.68297E+5
   4.90230E+5  -3.67675E+5
   4.69257E+5  -3.67974E+5
   4.49726E+5  -3.69126E+5
   4.31905E+5  -3.69397E+5
   4.12747E+5  -3.68132E+5
   3.93232E+5  -3.67752E+5
   3.75020E+5  -3.67222E+5
   3.58273E+5  -3.65198E+5
   3.40951E+5  -3.62438E+5
   3.24204E+5  -3.60138E+5
   3.08971E+5  -3.57118E+5
   2.93334E+5  -3.53379E+5
   2.77651E+5  -3.49982E+5
   2.62530E+5  -3.46708E+5
   2.48769E+5  -3.43239E+5
   2.33524E+5  -3.38859E+5
   2.17996E+5  -3.35931E+5
   2.03768E+5  -3.33270E+5
   1.89931E+5  -3.29755E+5
   1.75664E+5  -3.26418E+5
   1.61583E+5  -3.23154E+5
   1.48278E+5  -3.19511E+5
   1.35233E+5  -3.15960E+5
   1.21979E+5  -3.11899E+5
   1.10372E+5  -3.08106E+5
   9.85277E+4  -3.03955E+5
   8.75022E+4  -2.99237E+5
   7.69463E+4  -2.94842E+5
   6.67169E+4  -2.90046E+5
   5.65123E+4  -2.85215E+5
   4.60625E+4  -2.80543E+5
   3.62796E+4  -2.76150E+5
   2.72462E+4  -2.71775E+5
   1.84294E+4  -2.66463E+5
   9.12204E+3  -2.61526E+5
   4.29391E+2  -2.57127E+5
  -7.72166E+3  -2.53102E+5
  -1.55546E+4  -2.48169E+5
  -2.30155E+4  -2.43239E+5
  -3.01918E+4  -2.38676E+5
  -3.68969E+4  -2.33968E+5
  -4.34374E+4  -2.29224E+5
  -4.95226E+4  -2.24766E+5
  -5.50308E+4  -2.19985E+5
  -6.10027E+4  -2.14669E+5
  -6.69855E+4  -2.10327E+5
  -7.22480E+4  -2.06032E+5
  -7.71714E+4  -2.01544E+5
  -8.21612E+4  -1.96903E+5
  -8.69654E+4  -1.92799E+5
  -9.09196E+4  -1.88830E+5
  -9.46114E+4  -1.84080E+5
  -9.84283E+4  -1.79936E+5
  -1.02063E+5  -1.75920E+5
  -1.05503E+5  -1.72128E+5
  -1.07964E+5  -1.68396E+5
  -1.10668E+5  -1.64907E+5
  -1.13226E+5  -1.61413E+5
  -1.15503E+5  -1.57895E+5
  -1.18225E+5  -1.54304E+5
  -1.20365E+5  -1.50954E+5
  -1.22390E+5  -1.47650E+5
  -1.24539E+5  -1.44418E+5
  -1.26385E+5  -1.41504E+5
  -1.28363E+5  -1.38683E+5
  -1.29788E+5  -1.36048E+5
  -1.30690E+5  -1.33174E+5
  -1.32143E+5  -1.30135E+5
  -1.33632E+5  -1.27182E+5
  -1.34838E+5  -1.24742E+5
  -1.35664E+5  -1.21938E+5
  -1.36446E+5  -1.19595E+5
  -1.37118E+5  -1.17384E+5
  -1.37660E+5  -1.14914E+5
  -1.38434E+5  -1.12659E+5
  -1.38712E+5  -1.10639E+5
  -1.38884E+5  -1.08223E+5
  -1.39401E+5  -1.06096E+5
  -1.39998E+5  -1.03309E+5
  -1.40635E+5  -1.01621E+5
  -1.40671E+5  -9.94184E+4
  -1.40777E+5  -9.73472E+4
  -1.41450E+5  -9.50188E+4
  -1.41856E+5  -9.32095E+4
  -1.41640E+5  -9.13488E+4
  -1.41613E+5  -8.92368E+4
  -1.41536E+5  -8.73773E+4
  -1.41332E+5  -8.52476E+4
  -1.41158E+5  -8.36509E+4
  -1.40844E+5  -8.17459E+4
  -1.40596E+5  -7.98550E+4
  -1.40237E+5  -7.80604E+4
  -1.39981E+5  -7.62029E+4
  -1.39623E+5  -7.45657E+4
  -1.39531E+5  -7.31193E+4
  -1.38533E+5  -7.13167E+4
  -1.38228E+5  -6.94945E+4
  -1.37881E+5  -6.78756E+4
  -1.37236E+5  -6.65892E+4
  -1.36392E+5  -6.52854E+4
  -1.35810E+5  -6.32844E+4
  -1.35031E+5  -6.16704E+4
  -1.34201E+5  -6.05119E+4
  -1.33131E+5  -5.93826E+4
  -1.32295E+5  -5.77643E+4
  -1.31564E+5  -5.65781E+4
  -1.30552E+5  -5.54037E+4
  -1.29645E+5  -5.46272E+4
  -1.28875E+5  -5.33610E+4
  -1.27513E+5  -5.23712E+4
  -1.26239E+5  -5.11194E+4
  -1.25475E+5  -4.99088E+4
  -1.24395E+5  -4.89548E+4
  -1.22979E+5  -4.79543E+4
  -1.22200E+5  -4.66844E+4
  -1.21461E+5  -4.60834E+4
  -1.20150E+5  -4.53073E+4
  -1.19020E+5  -4.45838E+4
  -1.17881E+5  -4.40093E+4
  -1.16468E+5  -4.33037E+4
  -1.15627E+5  -4.30589E+4
  -1.14252E+5  -4.22032E+4
  -1.13169E+5  -4.18483E+4
  -1.11955E+5  -4.14434E+4
  -1.10821E+5  -4.12591E+4
  -1.09760E+5  -4.08717E+4
  -1.08729E+5  -4.06401E+4
  -1.07233E+5  -4.04618E+4
  -1.06187E+5  -4.01288E+4
  -1.05175E+5  -3.96208E+4
  -1.04533E+5  -3.95871E+4
  -1.03278E+5  -3.95958E+4
  -1.02205E+5  -3.89011E+4
  -1.01292E+5  -3.89576E+4
  -1.00501E+5  -3.89239E+4
  -9.95962E+4  -3.89930E+4
  -9.83286E+4  -3.87036E+4
  -9.78446E+4  -3.85745E+4
  -9.71584E+4  -3.85483E+4
  -9.62436E+4  -3.85357E+4
  -9.51719E+4  -3.83881E+4
  -9.43574E+4  -3.81601E+4
  -9.38927E+4  -3.78778E+4
  -9.31846E+4  -3.77623E+4
  -9.26701E+4  -3.76436E+4
  -9.19111E+4  -3.75940E+4
  -9.13463E+4  -3.72513E+4
  -9.07172E+4  -3.72729E+4
  -9.02009E+4  -3.71093E+4
  -8.95712E+4  -3.68699E+4
  -8.88147E+4  -3.65260E+4
  -8.83214E+4  -3.65055E+4
  -8.78442E+4  -3.59999E+4
  -8.74724E+4  -3.58812E+4
  -8.69877E+4  -3.55674E+4
  -8.63729E+4  -3.52676E+4
  -8.56995E+4  -3.50850E+4
  -8.52610E+4  -3.44774E+4
  -8.48384E+4  -3.43457E+4
  -8.42518E+4  -3.41768E+4
  -8.38756E+4  -3.34775E+4
  -8.36401E+4  -3.30921E+4
  -8.29806E+4  -3.25726E+4
  -8.24589E+4  -3.22198E+4
  -8.19095E+4  -3.17118E+4
  -8.15408E+4  -3.11145E+4
  -8.10908E+4  -3.07486E+4
  -8.06114E+4  -3.01629E+4
  -8.03791E+4  -2.96897E+4
  -7.97462E+4  -2.90587E+4
  -7.94438E+4  -2.84389E+4
  -7.91265E+4  -2.80002E+4
  -7.83721E+4  -2.76864E+4
  -7.77736E+4  -2.68312E+4
  -7.72687E+4  -2.61286E+4
  -7.67013E+4  -2.54396E+4
  -7.59723E+4  -2.50373E+4
  -7.56025E+4  -2.42231E+4
  -7.48815E+4  -2.36443E+4
  -7.43112E+4  -2.32091E+4
  -7.38908E+4  -2.23559E+4
  -7.32634E+4  -2.17777E+4
  -7.25775E+4  -2.13308E+4
  -7.20894E+4  -2.04978E+4
  -7.12418E+4  -2.00516E+4
  -7.06287E+4  -1.93910E+4
  -6.99496E+4  -1.88465E+4
  -6.92641E+4  -1.84627E+4
  -6.83178E+4  -1.74535E+4
  -6.76932E+4  -1.68468E+4
  -6.71804E+4  -1.61423E+4
  -6.62837E+4  -1.56781E+4
  -6.54588E+4  -1.48565E+4
  -6.46542E+4  -1.42796E+4
  -6.39020E+4  -1.34253E+4
  -6.30439E+4  -1.26398E+4
  -6.22019E+4  -1.22450E+4
  -6.15214E+4  -1.16209E+4
  -6.07624E+4  -1.08140E+4
  -5.97742E+4  -1.04396E+4
  -5.89968E+4  -9.60148E+3
  -5.78602E+4  -9.05107E+3
  -5.71994E+4  -8.31845E+3
  -5.60488E+4  -7.47138E+3
  -5.53140E+4  -6.97540E+3
  -5.43789E+4  -6.36470E+3
  -5.35585E+4  -5.70566E+3
  -5.26024E+4  -4.98855E+3
  -5.16081E+4  -4.23133E+3
  -5.08100E+4  -3.81320E+3
  -4.97388E+4  -3.20361E+3
  -4.87450E+4  -2.51998E+3
  -4.76660E+4  -1.82368E+3
  -4.71580E+4  -9.88884E+2
  -4.60677E+4  -5.42733E+2
  -4.48433E+4   2.42289E+2
  -4.38894E+4   4.36655E+2
  -4.28185E+4   1.41769E+3
  -4.20909E+4   1.72670E+3
  -4.11486E+4   2.61484E+3
  -4.00659E+4   3.11030E+3
  -3.90508E+4   3.63540E+3
  -3.81947E+4   4.21684E+3
  -3.71636E+4   4.88141E+3
  -3.63069E+4   5.09427E+3
  -3.52513E+4   5.71571E+3
  -3.41352E+4   6.28717E+3
  -3.32969E+4   6.66969E+3
  -3.22944E+4   7.31230E+3
  -3.15358E+4   7.85685E+3
  -3.05649E+4   8.20181E+3
  -2.94849E+4   8.73047E+3
  -2.87485E+4   9.08921E+3
  -2.74720E+4   9.59560E+3
  -2.66022E+4   9.96532E+3
  -2.56762E+4   1.03779E+4
  -2.50604E+4   1.08584E+4
  -2.43128E+4   1.11594E+4
  -2.33144E+4   1.14118E+4
  -2.21040E+4   1.19541E+4
  -2.13545E+4   1.22413E+4
  -2.04636E+4   1.26125E+4
  -1.98109E+4   1.30090E+4
  -1.89598E+4   1.30225E+4
  -1.80266E+4   1.34849E+4
  -1.73322E+4   1.39352E+4
  -1.65206E+4   1.39374E+4
  -1.57167E+4   1.45433E+4
  -1.47674E+4   1.45420E+4
  -1.39479E+4   1.50806E+4
  -1.32700E+4   1.53483E+4
  -1.26399E+4   1.53452E+4
  -1.17606E+4   1.55517E+4
  -1.11822E+4   1.56507E+4
  -1.03186E+4   1.61718E+4
  -9.85398E+3   1.62512E+4
  -9.10137E+3   1.63858E+4
  -8.22732E+3   1.67761E+4
  -7.73418E+3   1.68379E+4
  -6.82196E+3   1.71706E+4
  -6.45948E+3   1.72409E+4
  -5.64984E+3   1.71786E+4
  -4.96993E+3   1.77209E+4
  -4.52696E+3   1.76763E+4
  -4.28276E+3   1.77670E+4
  -3.53925E+3   1.75122E+4
  -3.01957E+3   1.78492E+4
  -2.32959E+3   1.80527E+4
  -2.07133E+3   1.82096E+4
  -1.43323E+3   1.81849E+4
  -1.02081E+3   1.84473E+4
  -5.66271E+2   1.83116E+4
   1.30359E+2   1.85346E+4
   4.03888E+2   1.84214E+4
   4.87758E+2   1.86189E+4
   1.27325E+3   1.86218E+4
   1.36334E+3   1.85930E+4
   2.03051E+3   1.85949E+4
   2.11354E+3   1.85641E+4
   2.65551E+3   1.87925E+4
   2.99730E+3   1.86102E+4
   3.66044E+3   1.86875E+4
   3.59756E+3   1.84603E+4
   3.60900E+3   1.84939E+4
   4.05862E+3   1.82645E+4
   4.45471E+3   1.84216E+4
   4.81495E+3   1.82425E+4
   4.75272E+3   1.81292E+4
   5.08597E+3   1.81361E+4
   5.15331E+3   1.81167E+4
   5.43956E+3   1.79515E+4
   5.78648E+3   1.79386E+4
