 LCModel (Version 6.3-1N) Copyright: S.W. Provencher.          Ref.: Magn. Reson. Med. 30:672-679 (1993).                
 Slice_N1@14_18  28-Feb-2025 11:40:51
 27 lines in following concentration table = NCONC+1
    Conc.  %SD /Cr+PCr  Metabolite                                         
 1.98E-04   6% 1.7E-04 Mac                                                 
    4.503  35%   3.939 Cr                                                  
    4.642  33%   4.061 PCr                                                 
    6.245  14%   5.463 Ins                                                 
   10.550   7%   9.229 NAA                                                 
    6.754  13%   5.908 Tau                                                 
    1.520  69%   1.330 PCho                                                
    0.737 134%   0.645 GPC                                                 
    8.063  12%   7.054 Glu                                                 
    3.442  22%   3.011 Gln                                                 
    0.000 999%   0.000 Ala                                                 
    2.541  50%   2.223 Asc                                                 
    2.579  40%   2.257 Asp                                                 
    1.230  44%   1.076 GABA                                                
    0.499 149%   0.436 Glc                                                 
    1.467  33%   1.283 GSH                                                 
    5.208  13%   4.556 Lac                                                 
    2.309  27%   2.020 NAAG                                                
    1.905  59%   1.666 PE                                                  
    2.258  14%   1.975 GPC+PCho                                            
   12.859   6%  11.249 NAA+NAAG                                            
   11.505  11%  10.064 Glu+Gln                                             
    9.145   7%   8.000 Cr+PCr                                              
   12.859   6%  11.249 NAA+NAAG                                            
    9.145   7%   8.000 Cr+PCr                                              
   11.505  11%  10.064 Glu+Gln                                             
   6 lines in following misc. output table
  FWHM = 0.033 ppm    S/N =   3                                            
  Data shift = 0.033 ppm                                                   
  Ph:-119 deg       0.0 deg/ppm                                            
  alphaB,S = 1.4E-01,   1.3E+01                                            
   19 spline knots.   Ns = 5(1)                                            
  ( 7) 4 infls.   ( 5) 1 extrs.                                            
  480 points on ppm-axis = NY
      4.100000     4.091866     4.083733     4.075600     4.067466     4.059333     4.051199     4.043066     4.034933     4.026799
      4.018666     4.010532     4.002399     3.994265     3.986132     3.977998     3.969864     3.961731     3.953597     3.945463
      3.937330     3.929196     3.921062     3.912929     3.904795     3.896662     3.888528     3.880394     3.872261     3.864127
      3.855993     3.847860     3.839726     3.831592     3.823459     3.815325     3.807191     3.799058     3.790924     3.782790
      3.774657     3.766523     3.758389     3.750256     3.742122     3.733989     3.725855     3.717721     3.709588     3.701454
      3.693320     3.685187     3.677053     3.668919     3.660786     3.652652     3.644518     3.636385     3.628251     3.620117
      3.611984     3.603850     3.595716     3.587583     3.579449     3.571316     3.563182     3.555048     3.546915     3.538781
      3.530647     3.522514     3.514380     3.506246     3.498113     3.489979     3.481845     3.473712     3.465578     3.457444
      3.449311     3.441177     3.433043     3.424910     3.416776     3.408643     3.400509     3.392375     3.384242     3.376108
      3.367974     3.359841     3.351707     3.343573     3.335440     3.327306     3.319172     3.311039     3.302905     3.294771
      3.286638     3.278504     3.270370     3.262237     3.254103     3.245970     3.237836     3.229702     3.221569     3.213435
      3.205301     3.197168     3.189034     3.180900     3.172767     3.164633     3.156499     3.148366     3.140232     3.132098
      3.123965     3.115831     3.107697     3.099564     3.091430     3.083297     3.075163     3.067029     3.058896     3.050762
      3.042628     3.034495     3.026361     3.018227     3.010094     3.001960     2.993826     2.985693     2.977559     2.969425
      2.961292     2.953158     2.945024     2.936891     2.928757     2.920624     2.912490     2.904356     2.896223     2.888089
      2.879955     2.871822     2.863688     2.855554     2.847421     2.839287     2.831153     2.823020     2.814886     2.806752
      2.798619     2.790485     2.782351     2.774218     2.766084     2.757951     2.749817     2.741683     2.733550     2.725416
      2.717282     2.709149     2.701015     2.692881     2.684748     2.676614     2.668480     2.660347     2.652213     2.644079
      2.635946     2.627812     2.619678     2.611545     2.603411     2.595278     2.587144     2.579010     2.570877     2.562743
      2.554609     2.546476     2.538342     2.530208     2.522075     2.513941     2.505807     2.497674     2.489540     2.481406
      2.473273     2.465139     2.457006     2.448872     2.440738     2.432605     2.424471     2.416337     2.408204     2.400070
      2.391936     2.383803     2.375669     2.367535     2.359402     2.351268     2.343134     2.335001     2.326867     2.318733
      2.310600     2.302466     2.294333     2.286199     2.278065     2.269932     2.261798     2.253664     2.245531     2.237397
      2.229263     2.221130     2.212996     2.204862     2.196729     2.188595     2.180461     2.172328     2.164194     2.156060
      2.147927     2.139793     2.131660     2.123526     2.115392     2.107259     2.099125     2.090991     2.082858     2.074724
      2.066590     2.058457     2.050323     2.042189     2.034056     2.025922     2.017788     2.009655     2.001521     1.993387
      1.985254     1.977120     1.968987     1.960853     1.952719     1.944586     1.936452     1.928318     1.920185     1.912051
      1.903917     1.895784     1.887650     1.879516     1.871383     1.863249     1.855115     1.846982     1.838848     1.830714
      1.822581     1.814447     1.806314     1.798180     1.790046     1.781913     1.773779     1.765645     1.757512     1.749378
      1.741244     1.733111     1.724977     1.716843     1.708710     1.700576     1.692442     1.684309     1.676175     1.668041
      1.659908     1.651774     1.643641     1.635507     1.627373     1.619240     1.611106     1.602972     1.594839     1.586705
      1.578571     1.570438     1.562304     1.554170     1.546037     1.537903     1.529769     1.521636     1.513502     1.505368
      1.497235     1.489101     1.480968     1.472834     1.464700     1.456567     1.448433     1.440299     1.432166     1.424032
      1.415898     1.407765     1.399631     1.391497     1.383364     1.375230     1.367096     1.358963     1.350829     1.342695
      1.334562     1.326428     1.318295     1.310161     1.302027     1.293894     1.285760     1.277626     1.269493     1.261359
      1.253225     1.245092     1.236958     1.228824     1.220691     1.212557     1.204423     1.196290     1.188156     1.180022
      1.171889     1.163755     1.155622     1.147488     1.139354     1.131221     1.123087     1.114953     1.106820     1.098686
      1.090552     1.082419     1.074285     1.066151     1.058018     1.049884     1.041750     1.033617     1.025483     1.017349
      1.009216     1.001082     0.992949     0.984815     0.976681     0.968548     0.960414     0.952280     0.944147     0.936013
      0.927879     0.919746     0.911612     0.903478     0.895345     0.887211     0.879077     0.870944     0.862810     0.854676
      0.846543     0.838409     0.830276     0.822142     0.814008     0.805875     0.797741     0.789607     0.781474     0.773340
      0.765206     0.757073     0.748939     0.740805     0.732672     0.724538     0.716404     0.708271     0.700137     0.692003
      0.683870     0.675736     0.667603     0.659469     0.651335     0.643202     0.635068     0.626934     0.618801     0.610667
      0.602533     0.594400     0.586266     0.578132     0.569999     0.561865     0.553731     0.545598     0.537464     0.529330
      0.521197     0.513063     0.504930     0.496796     0.488662     0.480529     0.472395     0.464261     0.456128     0.447994
      0.439861     0.431727     0.423593     0.415460     0.407326     0.399192     0.391059     0.382925     0.374792     0.366658
      0.358524     0.350391     0.342257     0.334124     0.325990     0.317856     0.309723     0.301589     0.293455     0.285322
      0.277188     0.269055     0.260921     0.252787     0.244654     0.236520     0.228386     0.220253     0.212119     0.203986
 NY phased data points follow
   1.49797E+01  8.90847E+00 -1.14682E-01 -1.33848E+01 -6.14438E+00 -4.93409E+00 -1.75946E-01  4.71890E+00  2.84549E+00  1.69359E+01
   3.47794E+00 -2.04330E+01 -5.53078E+00 -1.37155E-01 -8.79061E+00 -1.19556E+01 -9.89756E+00 -1.13797E+01 -2.89832E+01 -5.53316E+01
  -3.97928E+01 -2.32509E+01 -2.93987E+01  1.61281E+01  1.70133E+01  1.59754E+01  4.16836E+01  4.06348E+01  5.42276E+01  4.77157E+01
   5.89399E+01  5.38488E+01  4.40650E+01  4.32771E+01  5.34337E+01  6.41240E+01  4.65838E+01  4.89325E+01  3.15437E+01  1.82027E+01
   1.65003E+00  6.81450E+00 -1.55719E+00 -1.80892E+01  1.91133E+01  4.37612E+01  6.38882E+01  5.61105E+01  7.63730E+01  8.11260E+01
   7.06418E+01  8.29577E+01  6.80292E+01  7.91056E+01  6.44600E+01  4.59931E+01  5.03050E+01  2.82037E+01  1.68427E+01  4.56155E+01
   3.72782E+01  1.52269E+01  4.92411E+01  5.85149E+01  5.67995E+01  8.01885E+01  9.33834E+01  6.93706E+01  3.83200E+01  3.52118E+01
   4.09355E+01  2.98412E+01  3.69436E+01  6.22866E+01  6.50652E+01  7.87732E+01  9.01688E+01  9.40541E+01  8.78359E+01  8.24911E+01
   8.51790E+01  7.28026E+01  6.39981E+01  5.36955E+01  4.92713E+01  4.20825E+01  3.52771E+01  5.23403E+01  7.73228E+01  8.04513E+01
   8.00134E+01  9.17983E+01  9.52814E+01  1.05802E+02  1.12141E+02  9.86597E+01  1.12176E+02  1.20269E+02  9.93263E+01  1.13888E+02
   1.15593E+02  9.42410E+01  8.04790E+01  8.70136E+01  8.59715E+01  5.73216E+01  5.51402E+01  4.38415E+01  3.08161E+01 -2.77654E+01
  -6.52714E+01 -4.83286E+01 -6.52217E+01 -4.21144E+01 -2.87994E+01 -8.09965E+00  2.23307E+01  1.87513E+01  1.96764E+01  1.87121E+01
   2.15019E+01  2.22581E+01  5.09918E+01  6.05354E+01  6.05071E+01  7.35090E+01  7.48012E+01  9.75397E+01  1.00321E+02  1.33761E+02
   1.70236E+02  1.11665E+02  5.99442E+01  2.85275E+01 -1.08717E+01 -3.12149E+01 -4.40242E+01 -2.86510E+01 -1.62734E+01 -2.22986E+01
  -1.73981E+01 -1.85503E+01 -3.08350E+01 -1.99523E+01 -8.52169E+00 -1.54273E+01 -1.86670E+01 -2.83898E+01 -7.39520E+00 -6.49276E+00
  -1.56548E+01  2.81673E+00 -6.26689E+00  5.66987E+00  1.60981E+01  7.25547E+00  8.38302E+00  1.18696E+01  1.03404E+01  1.93599E+01
   1.47748E+01  6.17636E+00  2.26558E+01  6.33311E+00  1.37347E+01  1.80006E+01  1.33233E+01  1.98470E+01  8.93196E+00  2.26152E+01
   2.41005E+01  4.43437E+01  4.38924E+01  3.66498E+01  4.64723E+01  3.64109E+01  6.13885E+01  5.85882E+01  3.50431E+01  2.79486E+01
   3.28425E+01  1.87513E+01  7.25735E+00  2.32749E+01 -1.63994E+00 -7.14599E+00  3.12424E+00  5.27566E+00  6.58087E+00  5.47993E+00
   1.69310E+01  4.12563E+00  1.04989E+01  3.57830E+01  3.11010E+01  2.38113E+01  3.28232E+01  3.83413E+01  3.50777E+01  3.06547E+01
   3.20136E+01  3.84103E+01  5.18881E+01  5.91405E+01  4.34749E+01  4.49588E+01  4.30322E+01  2.40490E+01  4.72221E+00  4.99460E+00
   5.18251E+00 -6.81586E+00  9.41700E+00 -7.69669E+00  1.52067E+01  5.77928E+01  4.27987E+01  5.98626E+01  5.53046E+01  4.93589E+01
   5.26541E+01  2.59193E+01  3.09612E+01  3.55891E+01  2.69042E+01  3.81540E+01  3.50612E+01  4.16439E+01  4.35442E+01  3.54021E+01
   4.77655E+01  2.79488E+01  2.66069E+01  1.78893E+01  9.36110E+00  1.09234E+01 -1.77730E+01 -1.03258E+00 -7.69914E+00 -7.16125E+00
  -6.08847E+00 -1.82336E+01  5.27828E+00  1.76453E+00  1.54384E+01  1.60563E+01  1.68203E+01  1.41588E+01 -8.88931E+00  1.91259E-01
  -1.15144E+01 -7.05776E+00 -9.26731E+00 -3.13486E+01 -2.61611E+01 -6.84131E+01 -4.76414E+01  8.88802E+01  1.18041E+02  1.03613E+02
   1.46776E+02  1.47601E+02  1.52488E+02  1.43750E+02  1.20822E+02  1.27451E+02  1.14041E+02  1.03485E+02  1.07940E+02  1.14668E+02
   1.05189E+02  1.03627E+02  1.11385E+02  1.03633E+02  1.04533E+02  9.46676E+01  9.35108E+01  1.02307E+02  1.03175E+02  1.04131E+02
   1.12911E+02  1.09744E+02  9.69312E+01  1.03522E+02  9.11407E+01  9.94373E+01  9.99071E+01  8.56919E+01  9.26724E+01  8.69708E+01
   9.80178E+01  8.95789E+01  7.83871E+01  8.43145E+01  7.87590E+01  6.74199E+01  6.39200E+01  5.78208E+01  3.99285E+01  4.12656E+01
   4.88985E+01  5.59967E+01  4.87680E+01  6.09327E+01  5.80767E+01  4.35868E+01  6.12186E+01  5.73663E+01  6.06752E+01  6.59813E+01
   7.52929E+01  7.57056E+01  6.49131E+01  5.14616E+01  4.93761E+01  5.75844E+01  3.93621E+01  4.45237E+01  2.61690E+01  2.70598E+01
   4.91746E+01  1.39161E+01  7.09076E+00  2.22973E+01  2.88597E+01  3.38120E+01  1.96327E+01  3.52174E+01  6.81762E+01  5.95275E+01
   5.87652E+01  5.50292E+01  5.44762E+01  7.56746E+01  6.66299E+01  6.70701E+01  7.57869E+01  7.31615E+01  8.28683E+01  7.48597E+01
   5.53326E+01  4.82199E+01  1.72285E+01  3.27832E+00  6.03353E+00 -4.28614E+00  9.49636E+00  2.17019E+01  1.90765E+01  2.94688E+01
   4.62527E+01  3.47050E+01  3.42347E+01  3.48694E+01  2.79575E+01  2.37387E+01  1.44474E+01  2.54944E+01  1.61321E+01  9.75694E+00
   4.84538E+00  5.54109E+00  7.71265E+00  1.24501E+01  2.75743E+01  3.06053E+01  3.40865E+01  2.70017E+01  4.82024E+01  4.91899E+01
   4.49218E+01  4.83665E+01  5.44178E+01  6.19712E+01  5.46670E+01  7.33200E+01  5.57727E+01  7.37034E+01  8.55251E+01  7.23424E+01
   8.25821E+01  7.77002E+01  9.50050E+01  1.01771E+02  1.05107E+02  9.91054E+01  1.09565E+02  1.12681E+02  1.10804E+02  1.21555E+02
   1.16996E+02  1.15973E+02  8.54276E+01  7.48788E+01  7.34645E+01  7.81463E+01  7.94579E+01  6.52487E+01  5.99425E+01  4.40313E+01
   4.31899E+01  3.53093E+01  2.12887E+01  1.94860E+01  2.41487E+01  1.09884E+01  2.77567E+00  9.54863E+00  3.51628E+00  1.33150E+01
   9.42713E+00  1.78349E+00  1.81925E+01  8.83839E+00 -7.54912E+00  7.97064E+00  1.11704E+01  8.26915E+00  7.87271E+00  1.36108E+00
   1.89141E+00  6.83400E+00  1.62980E+01  1.23122E+01  1.46038E+00 -4.10123E+00  1.03097E+01  2.27966E+01  1.38769E+01  3.27483E+00
   5.93496E+00  1.53148E+01  9.89700E+00  1.17930E+01 -8.98446E-01 -3.73634E+00  2.10997E+01  1.40082E+01 -3.91518E+00  2.28050E+00
   1.36764E+01  1.11287E+01  1.71893E+01  2.87534E+01  1.39289E+01  3.41883E+00  4.19896E+00  6.94639E+00  1.18465E+01 -5.27044E+00
   4.41281E+00  9.20543E+00  1.75060E+00  2.11266E+01  1.15170E+01  1.13204E+01  3.97112E+00  5.74624E+00  3.11371E+01  1.48969E+01
   3.10042E+00  1.53315E+01  1.45410E+01  9.73784E+00  1.92364E+01  1.34997E+01  1.42295E+01  1.66405E+01  1.28025E+01  1.54595E+01
   1.36753E+01  2.47639E+01  1.43639E+01  1.29351E+01  2.13008E+01  2.65646E+00  1.10996E+01  2.78179E+01  1.32406E+01  1.26574E+01
 NY points of the fit to the data follow
  -2.33039E+00 -2.45190E+00 -5.54668E+00 -8.20283E+00 -5.39049E+00  2.63237E+00  8.55124E+00  9.09863E+00  7.30851E+00  4.62729E+00
   7.16525E-01 -3.14006E+00 -5.97479E+00 -7.85057E+00 -8.41718E+00 -7.74438E+00 -8.10246E+00 -1.22578E+01 -2.31087E+01 -3.55299E+01
  -3.66984E+01 -2.89248E+01 -1.62897E+01  6.14085E+00  2.88648E+01  4.22772E+01  5.16340E+01  5.93508E+01  6.33419E+01  6.39803E+01
   6.35707E+01  6.26631E+01  6.09332E+01  5.85333E+01  5.61290E+01  5.39288E+01  5.04871E+01  4.32870E+01  3.13013E+01  1.53964E+01
   3.08010E+00 -5.54667E-02  2.62576E+00  9.08988E+00  2.09917E+01  3.53639E+01  4.78854E+01  5.71074E+01  6.37335E+01  6.74396E+01
   6.87463E+01  6.76808E+01  6.35266E+01  5.66758E+01  4.85180E+01  4.15646E+01  3.83604E+01  3.34041E+01  2.69688E+01  2.97347E+01
   3.54372E+01  3.65775E+01  4.30018E+01  5.51370E+01  6.44890E+01  6.99856E+01  7.16722E+01  6.50558E+01  5.06544E+01  4.10682E+01
   4.04517E+01  3.95583E+01  3.98891E+01  4.82246E+01  5.96060E+01  6.80931E+01  7.49393E+01  8.12169E+01  8.59076E+01  8.58473E+01
   8.06009E+01  7.06332E+01  5.62949E+01  4.31579E+01  3.59951E+01  3.50912E+01  4.09222E+01  5.00643E+01  5.92797E+01  6.78483E+01
   7.54400E+01  8.16304E+01  8.65731E+01  9.06589E+01  9.45011E+01  9.83183E+01  1.02188E+02  1.05261E+02  1.06987E+02  1.09924E+02
   1.13319E+02  1.08828E+02  9.92859E+01  8.83192E+01  7.36877E+01  6.35165E+01  6.19224E+01  5.74701E+01  2.72422E+01 -2.46824E+01
  -5.53245E+01 -5.62131E+01 -5.17796E+01 -4.44389E+01 -3.00020E+01 -1.36310E+01 -6.80277E-01  9.41110E+00  1.78887E+01  2.55465E+01
   3.28798E+01  4.02440E+01  4.81061E+01  5.67570E+01  6.60439E+01  7.52975E+01  8.36490E+01  9.54451E+01  1.14525E+02  1.43812E+02
   1.59809E+02  1.24007E+02  5.96274E+01  1.86417E+01 -2.73229E+00 -2.16083E+01 -3.23178E+01 -3.17180E+01 -2.72162E+01 -2.33409E+01
  -2.07270E+01 -1.91904E+01 -1.79613E+01 -1.66357E+01 -1.54967E+01 -1.40423E+01 -1.18374E+01 -9.43259E+00 -7.27324E+00 -5.33984E+00
  -3.48152E+00 -1.59921E+00  4.65504E-01  2.89493E+00  5.71906E+00  8.26637E+00  9.54653E+00  9.81237E+00  1.04704E+01  1.25717E+01
   1.54449E+01  1.67292E+01  1.57391E+01  1.47570E+01  1.50451E+01  1.54986E+01  1.49856E+01  1.41773E+01  1.52846E+01  2.05961E+01
   3.05159E+01  4.03454E+01  4.31496E+01  4.04179E+01  4.06751E+01  4.58937E+01  5.05653E+01  4.90232E+01  4.15260E+01  3.34312E+01
   2.65246E+01  1.94293E+01  1.35135E+01  9.99476E+00  8.22667E+00  7.25725E+00  6.72569E+00  6.71620E+00  7.30433E+00  8.45828E+00
   9.94287E+00  1.10103E+01  1.52945E+01  2.39970E+01  2.89840E+01  3.02018E+01  3.46162E+01  4.00984E+01  4.21122E+01  4.05385E+01
   3.97414E+01  4.25505E+01  4.48063E+01  4.36469E+01  4.11942E+01  3.86152E+01  3.45013E+01  2.86598E+01  2.27199E+01  1.71180E+01
   1.12935E+01  7.37560E+00  9.01801E+00  1.40535E+01  2.43463E+01  3.97605E+01  5.23934E+01  6.14913E+01  6.69746E+01  6.58118E+01
   6.25238E+01  5.99293E+01  5.83688E+01  5.72854E+01  5.56764E+01  5.30608E+01  4.88667E+01  4.25059E+01  3.46278E+01  2.60073E+01
   1.67382E+01  7.74561E+00  8.63889E-02 -6.81938E+00 -1.17734E+01 -1.41305E+01 -1.57829E+01 -1.56767E+01 -1.33308E+01 -1.19052E+01
  -9.58978E+00 -4.90537E+00 -2.49807E-01  4.67055E+00  9.56364E+00  1.23794E+01  1.33543E+01  1.15236E+01  7.49288E+00  1.61214E+00
  -7.60010E+00 -1.53582E+01 -1.75683E+01 -2.11901E+01 -4.63085E+01 -6.72046E+01 -2.72010E+01  4.66041E+01  9.15913E+01  1.14405E+02
   1.33553E+02  1.42992E+02  1.39836E+02  1.32352E+02  1.25226E+02  1.18797E+02  1.12903E+02  1.07409E+02  1.02550E+02  9.88223E+01
   9.59230E+01  9.41577E+01  9.36106E+01  9.34543E+01  9.38110E+01  9.45023E+01  9.48625E+01  9.48092E+01  9.42278E+01  9.31745E+01
   9.17895E+01  9.02208E+01  8.83692E+01  8.63595E+01  8.43573E+01  8.22724E+01  8.00411E+01  7.75721E+01  7.48148E+01  7.19362E+01
   6.89452E+01  6.58728E+01  6.31100E+01  6.10526E+01  5.98949E+01  5.96178E+01  6.00033E+01  6.07810E+01  6.19078E+01  6.33396E+01
   6.48613E+01  6.63202E+01  6.77277E+01  6.90598E+01  7.03031E+01  7.16210E+01  7.31292E+01  7.46371E+01  7.59749E+01  7.71571E+01
   7.82433E+01  7.92673E+01  8.01156E+01  8.06623E+01  8.09681E+01  8.09579E+01  8.03769E+01  7.93272E+01  7.80964E+01  7.65351E+01
   7.45399E+01  7.22903E+01  6.98607E+01  6.70699E+01  6.34750E+01  5.88047E+01  5.34543E+01  4.79890E+01  4.27353E+01  3.81008E+01
   3.46710E+01  3.29404E+01  3.31937E+01  3.54178E+01  3.92662E+01  4.44453E+01  5.15153E+01  5.94489E+01  6.78057E+01  6.76938E+01
   5.51855E+01  3.83731E+01  2.00862E+01  5.00236E+00  1.04181E+00  3.04656E+00  6.72917E+00  1.16593E+01  1.67746E+01  2.00763E+01
   2.14512E+01  2.12433E+01  2.01092E+01  1.88393E+01  1.78659E+01  1.74100E+01  1.76783E+01  1.86825E+01  2.03360E+01  2.25029E+01
   2.50675E+01  2.78574E+01  3.06215E+01  3.32895E+01  3.58658E+01  3.83107E+01  4.07219E+01  4.31158E+01  4.54328E+01  4.76880E+01
   5.00279E+01  5.24836E+01  5.51031E+01  5.79976E+01  6.11339E+01  6.45559E+01  6.84784E+01  7.27757E+01  7.72182E+01  8.19543E+01
   8.71909E+01  9.26178E+01  9.78103E+01  1.02295E+02  1.05433E+02  1.06391E+02  1.04593E+02  1.00255E+02  9.43192E+01  8.78245E+01
   8.13935E+01  7.53939E+01  7.01247E+01  6.52692E+01  6.01216E+01  5.44939E+01  4.86067E+01  4.25363E+01  3.65379E+01  3.12608E+01
   2.68664E+01  2.31833E+01  2.02576E+01  1.81635E+01  1.66730E+01  1.54980E+01  1.45033E+01  1.36693E+01  1.29825E+01  1.24984E+01
   1.21969E+01  1.19381E+01  1.17056E+01  1.16450E+01  1.16979E+01  1.16080E+01  1.13792E+01  1.13504E+01  1.15239E+01  1.15360E+01
   1.14238E+01  1.14378E+01  1.15098E+01  1.14796E+01  1.13757E+01  1.13415E+01  1.14569E+01  1.16480E+01  1.17562E+01  1.17393E+01
   1.16827E+01  1.15870E+01  1.14879E+01  1.15109E+01  1.16005E+01  1.16736E+01  1.17850E+01  1.18914E+01  1.19593E+01  1.20522E+01
   1.21304E+01  1.21070E+01  1.19969E+01  1.18629E+01  1.18285E+01  1.19069E+01  1.19468E+01  1.20119E+01  1.20844E+01  1.20327E+01
   1.19849E+01  1.20917E+01  1.22138E+01  1.23104E+01  1.24196E+01  1.25212E+01  1.26006E+01  1.27215E+01  1.28287E+01  1.28290E+01
   1.27607E+01  1.27168E+01  1.26628E+01  1.26431E+01  1.27370E+01  1.30191E+01  1.33777E+01  1.36161E+01  1.36569E+01  1.35780E+01
   1.34991E+01  1.35123E+01  1.35907E+01  1.36643E+01  1.37784E+01  1.39547E+01  1.40084E+01  1.40178E+01  1.42099E+01  1.45356E+01
 NY background values follow
     1.722E+01    1.764E+01    1.806E+01    1.848E+01    1.890E+01    1.932E+01    1.974E+01    2.016E+01    2.059E+01    2.101E+01
     2.143E+01    2.185E+01    2.228E+01    2.270E+01    2.312E+01    2.355E+01    2.397E+01    2.439E+01    2.482E+01    2.524E+01
     2.566E+01    2.609E+01    2.651E+01    2.693E+01    2.736E+01    2.778E+01    2.820E+01    2.862E+01    2.905E+01    2.947E+01
     2.989E+01    3.031E+01    3.073E+01    3.115E+01    3.157E+01    3.198E+01    3.240E+01    3.281E+01    3.323E+01    3.364E+01
     3.404E+01    3.445E+01    3.485E+01    3.525E+01    3.564E+01    3.603E+01    3.642E+01    3.680E+01    3.718E+01    3.756E+01
     3.793E+01    3.829E+01    3.865E+01    3.901E+01    3.936E+01    3.970E+01    4.003E+01    4.036E+01    4.069E+01    4.100E+01
     4.131E+01    4.161E+01    4.191E+01    4.220E+01    4.248E+01    4.275E+01    4.301E+01    4.327E+01    4.352E+01    4.377E+01
     4.400E+01    4.423E+01    4.445E+01    4.466E+01    4.487E+01    4.507E+01    4.526E+01    4.544E+01    4.561E+01    4.578E+01
     4.594E+01    4.610E+01    4.624E+01    4.638E+01    4.651E+01    4.663E+01    4.674E+01    4.685E+01    4.695E+01    4.704E+01
     4.712E+01    4.720E+01    4.726E+01    4.732E+01    4.738E+01    4.742E+01    4.746E+01    4.750E+01    4.752E+01    4.754E+01
     4.756E+01    4.757E+01    4.757E+01    4.757E+01    4.756E+01    4.755E+01    4.753E+01    4.751E+01    4.748E+01    4.745E+01
     4.742E+01    4.738E+01    4.734E+01    4.730E+01    4.725E+01    4.720E+01    4.715E+01    4.709E+01    4.703E+01    4.697E+01
     4.691E+01    4.685E+01    4.678E+01    4.671E+01    4.665E+01    4.658E+01    4.650E+01    4.643E+01    4.636E+01    4.628E+01
     4.621E+01    4.613E+01    4.606E+01    4.598E+01    4.590E+01    4.582E+01    4.574E+01    4.566E+01    4.559E+01    4.551E+01
     4.543E+01    4.535E+01    4.527E+01    4.519E+01    4.511E+01    4.503E+01    4.496E+01    4.488E+01    4.481E+01    4.473E+01
     4.466E+01    4.458E+01    4.451E+01    4.444E+01    4.437E+01    4.430E+01    4.424E+01    4.417E+01    4.411E+01    4.404E+01
     4.398E+01    4.392E+01    4.386E+01    4.380E+01    4.374E+01    4.368E+01    4.363E+01    4.358E+01    4.352E+01    4.347E+01
     4.342E+01    4.337E+01    4.333E+01    4.328E+01    4.324E+01    4.319E+01    4.315E+01    4.311E+01    4.307E+01    4.304E+01
     4.300E+01    4.297E+01    4.294E+01    4.291E+01    4.288E+01    4.285E+01    4.282E+01    4.280E+01    4.278E+01    4.276E+01
     4.274E+01    4.272E+01    4.270E+01    4.269E+01    4.267E+01    4.266E+01    4.265E+01    4.264E+01    4.264E+01    4.263E+01
     4.263E+01    4.263E+01    4.263E+01    4.263E+01    4.264E+01    4.264E+01    4.265E+01    4.266E+01    4.267E+01    4.268E+01
     4.269E+01    4.271E+01    4.273E+01    4.275E+01    4.276E+01    4.278E+01    4.281E+01    4.283E+01    4.285E+01    4.287E+01
     4.289E+01    4.291E+01    4.293E+01    4.295E+01    4.296E+01    4.298E+01    4.299E+01    4.300E+01    4.301E+01    4.302E+01
     4.303E+01    4.303E+01    4.303E+01    4.302E+01    4.301E+01    4.300E+01    4.298E+01    4.296E+01    4.294E+01    4.291E+01
     4.288E+01    4.284E+01    4.279E+01    4.274E+01    4.269E+01    4.263E+01    4.256E+01    4.249E+01    4.241E+01    4.233E+01
     4.224E+01    4.214E+01    4.204E+01    4.193E+01    4.181E+01    4.169E+01    4.156E+01    4.142E+01    4.128E+01    4.113E+01
     4.097E+01    4.080E+01    4.063E+01    4.045E+01    4.026E+01    4.006E+01    3.986E+01    3.964E+01    3.942E+01    3.919E+01
     3.895E+01    3.870E+01    3.845E+01    3.818E+01    3.791E+01    3.764E+01    3.735E+01    3.707E+01    3.677E+01    3.647E+01
     3.617E+01    3.586E+01    3.555E+01    3.524E+01    3.493E+01    3.461E+01    3.429E+01    3.397E+01    3.365E+01    3.333E+01
     3.301E+01    3.269E+01    3.237E+01    3.206E+01    3.174E+01    3.143E+01    3.112E+01    3.082E+01    3.052E+01    3.022E+01
     2.993E+01    2.965E+01    2.937E+01    2.909E+01    2.882E+01    2.856E+01    2.830E+01    2.805E+01    2.780E+01    2.756E+01
     2.732E+01    2.709E+01    2.687E+01    2.666E+01    2.645E+01    2.624E+01    2.605E+01    2.586E+01    2.567E+01    2.549E+01
     2.532E+01    2.516E+01    2.501E+01    2.486E+01    2.472E+01    2.458E+01    2.446E+01    2.434E+01    2.423E+01    2.412E+01
     2.402E+01    2.394E+01    2.386E+01    2.378E+01    2.371E+01    2.365E+01    2.360E+01    2.355E+01    2.351E+01    2.347E+01
     2.344E+01    2.342E+01    2.340E+01    2.338E+01    2.337E+01    2.336E+01    2.336E+01    2.336E+01    2.336E+01    2.336E+01
     2.337E+01    2.338E+01    2.340E+01    2.341E+01    2.343E+01    2.345E+01    2.347E+01    2.349E+01    2.352E+01    2.354E+01
     2.356E+01    2.359E+01    2.361E+01    2.364E+01    2.366E+01    2.368E+01    2.370E+01    2.372E+01    2.374E+01    2.376E+01
     2.378E+01    2.379E+01    2.381E+01    2.382E+01    2.383E+01    2.384E+01    2.384E+01    2.384E+01    2.384E+01    2.384E+01
     2.383E+01    2.382E+01    2.380E+01    2.378E+01    2.376E+01    2.373E+01    2.370E+01    2.367E+01    2.363E+01    2.358E+01
     2.353E+01    2.347E+01    2.341E+01    2.335E+01    2.328E+01    2.320E+01    2.312E+01    2.304E+01    2.295E+01    2.286E+01
     2.277E+01    2.267E+01    2.257E+01    2.246E+01    2.235E+01    2.224E+01    2.213E+01    2.201E+01    2.189E+01    2.177E+01
     2.164E+01    2.151E+01    2.138E+01    2.125E+01    2.112E+01    2.098E+01    2.085E+01    2.071E+01    2.057E+01    2.043E+01
     2.028E+01    2.014E+01    2.000E+01    1.985E+01    1.971E+01    1.956E+01    1.941E+01    1.926E+01    1.912E+01    1.897E+01
     1.882E+01    1.867E+01    1.852E+01    1.837E+01    1.822E+01    1.807E+01    1.792E+01    1.777E+01    1.762E+01    1.747E+01
     1.732E+01    1.718E+01    1.703E+01    1.688E+01    1.674E+01    1.659E+01    1.645E+01    1.630E+01    1.616E+01    1.602E+01
     1.588E+01    1.574E+01    1.560E+01    1.546E+01    1.532E+01    1.519E+01    1.505E+01    1.492E+01    1.478E+01    1.465E+01
     1.452E+01    1.438E+01    1.425E+01    1.412E+01    1.399E+01    1.386E+01    1.373E+01    1.360E+01    1.347E+01    1.334E+01
     1.322E+01    1.309E+01    1.296E+01    1.283E+01    1.270E+01    1.257E+01    1.244E+01    1.231E+01    1.218E+01    1.205E+01
 Mac      Conc. = 1.98E-04
   2.86964E+00  3.04163E+00  3.18314E+00  3.12799E+00  2.75034E+00  2.12920E+00  1.43753E+00  8.68179E-01  5.70507E-01  5.40922E-01
   6.93486E-01  8.58348E-01  7.02951E-01  1.16288E-01 -4.07915E-01  1.92627E-01  2.25829E+00  4.78858E+00  7.37185E+00  1.03844E+01
   1.33398E+01  1.55530E+01  1.71959E+01  1.87156E+01  2.01973E+01  2.17015E+01  2.33717E+01  2.50631E+01  2.65764E+01  2.79738E+01
   2.92542E+01  3.01993E+01  3.07074E+01  3.10237E+01  3.16346E+01  3.28721E+01  3.45566E+01  3.60866E+01  3.70662E+01  3.77559E+01
   3.85220E+01  3.94705E+01  4.05728E+01  4.16282E+01  4.24375E+01  4.29478E+01  4.31301E+01  4.29653E+01  4.25682E+01  4.21529E+01
   4.17966E+01  4.15452E+01  4.14445E+01  4.14793E+01  4.17804E+01  4.25211E+01  4.35099E+01  4.44880E+01  4.56527E+01  4.69758E+01
   4.79399E+01  4.84185E+01  4.85603E+01  4.84776E+01  4.83509E+01  4.82393E+01  4.80574E+01  4.79660E+01  4.84972E+01  4.98427E+01
   5.14209E+01  5.28421E+01  5.40688E+01  5.49665E+01  5.54358E+01  5.54853E+01  5.52757E+01  5.50626E+01  5.48626E+01  5.46412E+01
   5.45214E+01  5.47093E+01  5.51372E+01  5.56141E+01  5.61772E+01  5.68508E+01  5.74579E+01  5.79607E+01  5.84293E+01  5.88467E+01
   5.91372E+01  5.93095E+01  5.92051E+01  5.86024E+01  5.75438E+01  5.62005E+01  5.46498E+01  5.31324E+01  5.17965E+01  5.04144E+01
   4.87973E+01  4.69466E+01  4.46269E+01  4.14530E+01  3.74074E+01  3.31927E+01  2.97803E+01  2.76249E+01  2.66682E+01  2.67962E+01
