 
 $NMID
 ID=''
 FMTDAT='(2E13.5)'
 TRAMP=   1.00000E+0
 VOLUME=   1.00000E+0
 $END
  -5.38704E+5   4.14903E+5
  -1.65871E+6   5.46706E+5
  -1.49862E+6   6.88843E+5
  -1.46514E+6   4.84433E+5
  -1.62269E+6   4.40216E+5
  -1.59001E+6   4.95165E+5
  -1.51522E+6   4.33523E+5
  -1.53739E+6   3.82887E+5
  -1.52396E+6   3.55664E+5
  -1.54161E+6   3.03383E+5
  -1.56755E+6   3.17027E+5
  -1.51016E+6   3.20717E+5
  -1.48097E+6   2.53448E+5
  -1.50587E+6   2.26450E+5
  -1.49657E+6   2.28024E+5
  -1.48397E+6   2.11807E+5
  -1.48102E+6   2.00429E+5
  -1.45298E+6   1.65415E+5
  -1.45039E+6   1.12651E+5
  -1.46334E+6   9.62605E+4
  -1.44387E+6   7.85665E+4
  -1.42830E+6   4.62821E+4
  -1.42229E+6   2.70505E+4
  -1.40694E+6   2.76387E+2
  -1.39967E+6  -3.23512E+4
  -1.39387E+6  -3.42764E+4
  -1.37694E+6  -4.28674E+4
  -1.36609E+6  -6.35329E+4
  -1.35407E+6  -7.68260E+4
  -1.33984E+6  -8.86547E+4
  -1.33507E+6  -1.09486E+5
  -1.32320E+6  -1.23306E+5
  -1.30397E+6  -1.42741E+5
  -1.29285E+6  -1.64330E+5
  -1.28191E+6  -1.80142E+5
  -1.26789E+6  -1.98622E+5
  -1.25805E+6  -2.18994E+5
  -1.24376E+6  -2.35512E+5
  -1.22636E+6  -2.50886E+5
  -1.21617E+6  -2.64207E+5
  -1.20293E+6  -2.73653E+5
  -1.18719E+6  -2.84017E+5
  -1.17440E+6  -2.92262E+5
  -1.16288E+6  -2.99775E+5
  -1.14878E+6  -3.08766E+5
  -1.13764E+6  -3.18036E+5
  -1.12361E+6  -3.28577E+5
  -1.10677E+6  -3.43324E+5
  -1.09017E+6  -3.55575E+5
  -1.07495E+6  -3.65676E+5
  -1.05981E+6  -3.77796E+5
  -1.04410E+6  -3.90550E+5
  -1.02826E+6  -4.02340E+5
  -1.01358E+6  -4.13946E+5
  -9.98811E+5  -4.23774E+5
  -9.82142E+5  -4.32890E+5
  -9.65702E+5  -4.41817E+5
  -9.50516E+5  -4.49448E+5
  -9.35902E+5  -4.55494E+5
  -9.21482E+5  -4.62410E+5
  -9.06394E+5  -4.69901E+5
  -8.90979E+5  -4.77521E+5
  -8.75350E+5  -4.86156E+5
  -8.58758E+5  -4.94397E+5
  -8.41153E+5  -5.01298E+5
  -8.23953E+5  -5.07666E+5
  -8.06619E+5  -5.14738E+5
  -7.90326E+5  -5.21109E+5
  -7.75176E+5  -5.27557E+5
  -7.59590E+5  -5.33746E+5
  -7.42614E+5  -5.39303E+5
  -7.26414E+5  -5.43361E+5
  -7.12442E+5  -5.48143E+5
  -6.98017E+5  -5.53800E+5
  -6.81267E+5  -5.57917E+5
  -6.64678E+5  -5.61454E+5
  -6.49774E+5  -5.65748E+5
  -6.34230E+5  -5.70513E+5
  -6.17085E+5  -5.75237E+5
  -6.00249E+5  -5.79024E+5
  -5.83385E+5  -5.82673E+5
  -5.67488E+5  -5.86447E+5
  -5.52040E+5  -5.89546E+5
  -5.36143E+5  -5.92935E+5
  -5.20425E+5  -5.95264E+5
  -5.05826E+5  -5.96729E+5
  -4.91803E+5  -5.98037E+5
  -4.77735E+5  -5.99928E+5
  -4.64423E+5  -6.00528E+5
  -4.51012E+5  -6.00738E+5
  -4.38139E+5  -6.00921E+5
  -4.24493E+5  -6.01971E+5
  -4.10617E+5  -6.02687E+5
  -3.96162E+5  -6.02610E+5
  -3.82544E+5  -6.02433E+5
  -3.69630E+5  -6.01913E+5
  -3.56456E+5  -6.02166E+5
  -3.42946E+5  -6.02127E+5
  -3.29514E+5  -6.01283E+5
  -3.17187E+5  -6.00082E+5
  -3.05785E+5  -5.99274E+5
  -2.93636E+5  -5.98599E+5
  -2.81266E+5  -5.96307E+5
  -2.69764E+5  -5.93439E+5
  -2.59892E+5  -5.91003E+5
  -2.49822E+5  -5.89172E+5
  -2.39109E+5  -5.87299E+5
  -2.27763E+5  -5.84579E+5
  -2.17480E+5  -5.81165E+5
  -2.08284E+5  -5.77597E+5
  -1.98454E+5  -5.75115E+5
  -1.88002E+5  -5.72701E+5
  -1.77245E+5  -5.69792E+5
  -1.67216E+5  -5.66489E+5
  -1.57118E+5  -5.63082E+5
  -1.47245E+5  -5.59613E+5
  -1.37316E+5  -5.56124E+5
  -1.27453E+5  -5.51422E+5
  -1.18892E+5  -5.46528E+5
  -1.10867E+5  -5.42562E+5
  -1.02658E+5  -5.38524E+5
  -9.40401E+4  -5.34455E+5
  -8.53590E+4  -5.30196E+5
  -7.66216E+4  -5.25653E+5
  -6.85189E+4  -5.21094E+5
  -6.02514E+4  -5.16130E+5
  -5.23305E+4  -5.10800E+5
  -4.43495E+4  -5.05636E+5
  -3.65673E+4  -5.00963E+5
  -2.84955E+4  -4.96340E+5
  -2.00096E+4  -4.91379E+5
  -1.15925E+4  -4.85596E+5
  -4.08418E+3  -4.80036E+5
   3.49488E+3  -4.74753E+5
   1.09582E+4  -4.69251E+5
   1.83391E+4  -4.63425E+5
   2.51749E+4  -4.57993E+5
   3.20752E+4  -4.52753E+5
   3.93750E+4  -4.47446E+5
   4.66414E+4  -4.42007E+5
   5.37335E+4  -4.35982E+5
   5.98639E+4  -4.29482E+5
   6.56926E+4  -4.23860E+5
   7.21881E+4  -4.18969E+5
   7.85511E+4  -4.13296E+5
   8.45749E+4  -4.07073E+5
   9.01355E+4  -4.00989E+5
   9.55516E+4  -3.95360E+5
   1.00617E+5  -3.89188E+5
   1.05601E+5  -3.83479E+5
   1.10290E+5  -3.77821E+5
   1.14714E+5  -3.72263E+5
   1.19407E+5  -3.67126E+5
   1.23879E+5  -3.61633E+5
   1.28337E+5  -3.55779E+5
   1.32313E+5  -3.49975E+5
   1.36031E+5  -3.44509E+5
   1.40155E+5  -3.39383E+5
   1.43608E+5  -3.33741E+5
   1.46993E+5  -3.28234E+5
   1.50695E+5  -3.22793E+5
   1.53685E+5  -3.17183E+5
   1.57076E+5  -3.11774E+5
   1.59715E+5  -3.06064E+5
   1.62064E+5  -3.00873E+5
   1.64279E+5  -2.95840E+5
   1.67097E+5  -2.91130E+5
   1.69864E+5  -2.85823E+5
   1.71958E+5  -2.80414E+5
   1.73760E+5  -2.75679E+5
   1.75860E+5  -2.70915E+5
   1.77612E+5  -2.65730E+5
   1.79191E+5  -2.60868E+5
   1.80673E+5  -2.55867E+5
   1.82328E+5  -2.50960E+5
   1.83885E+5  -2.46107E+5
   1.85180E+5  -2.41243E+5
   1.86921E+5  -2.35886E+5
   1.87933E+5  -2.30657E+5
   1.88921E+5  -2.25879E+5
   1.90082E+5  -2.21553E+5
   1.91657E+5  -2.16809E+5
   1.92595E+5  -2.11444E+5
   1.93724E+5  -2.06665E+5
   1.94600E+5  -2.01995E+5
   1.95522E+5  -1.97316E+5
   1.96048E+5  -1.92433E+5
   1.96520E+5  -1.87655E+5
   1.96842E+5  -1.83354E+5
   1.97460E+5  -1.79257E+5
   1.98502E+5  -1.74496E+5
   1.98998E+5  -1.69560E+5
   1.99553E+5  -1.64957E+5
   1.99759E+5  -1.60140E+5
   2.00137E+5  -1.56014E+5
   2.00653E+5  -1.51126E+5
   2.00930E+5  -1.46529E+5
   2.01373E+5  -1.42163E+5
   2.01547E+5  -1.37572E+5
   2.02183E+5  -1.33010E+5
   2.02014E+5  -1.28269E+5
   2.02147E+5  -1.23838E+5
   2.02027E+5  -1.19352E+5
   2.02160E+5  -1.15275E+5
   2.02141E+5  -1.11038E+5
   2.02110E+5  -1.06470E+5
   2.02176E+5  -1.02117E+5
   2.01963E+5  -9.79948E+4
   2.01460E+5  -9.37646E+4
   2.01431E+5  -8.96026E+4
   2.00880E+5  -8.52376E+4
   2.00530E+5  -8.15057E+4
   2.00070E+5  -7.78197E+4
   2.00365E+5  -7.38365E+4
   1.99534E+5  -6.92607E+4
   1.98797E+5  -6.53917E+4
   1.97860E+5  -6.15490E+4
   1.97373E+5  -5.82985E+4
   1.96582E+5  -5.47651E+4
   1.95978E+5  -5.12605E+4
   1.95033E+5  -4.78159E+4
   1.94169E+5  -4.46086E+4
   1.93475E+5  -4.12876E+4
   1.92532E+5  -3.79091E+4
   1.91444E+5  -3.44585E+4
   1.89960E+5  -3.13491E+4
   1.89004E+5  -2.86648E+4
   1.87857E+5  -2.57629E+4
   1.87055E+5  -2.23178E+4
   1.85680E+5  -1.95715E+4
   1.84172E+5  -1.65788E+4
   1.83187E+5  -1.42054E+4
   1.81797E+5  -1.14004E+4
   1.80601E+5  -8.90576E+3
   1.79172E+5  -6.42943E+3
   1.77470E+5  -3.95656E+3
   1.76350E+5  -1.68452E+3
   1.74942E+5   7.15318E+2
   1.73326E+5   2.69091E+3
   1.71808E+5   5.19980E+3
   1.70236E+5   7.09700E+3
   1.68856E+5   9.60118E+3
   1.67349E+5   1.16581E+4
   1.65744E+5   1.36665E+4
   1.64054E+5   1.57853E+4
   1.62412E+5   1.80160E+4
   1.60797E+5   1.97495E+4
   1.59324E+5   2.17109E+4
   1.57599E+5   2.33835E+4
   1.55953E+5   2.51154E+4
   1.54603E+5   2.71591E+4
   1.53008E+5   2.89304E+4
   1.51332E+5   3.10048E+4
   1.49546E+5   3.23104E+4
   1.47755E+5   3.38248E+4
   1.46246E+5   3.54288E+4
   1.44688E+5   3.71561E+4
   1.42945E+5   3.91740E+4
   1.41385E+5   4.06177E+4
   1.39519E+5   4.26429E+4
   1.37707E+5   4.42614E+4
   1.35777E+5   4.57504E+4
   1.34090E+5   4.71455E+4
   1.32096E+5   4.86842E+4
   1.30818E+5   4.99766E+4
   1.29027E+5   5.18166E+4
   1.27356E+5   5.32388E+4
   1.25403E+5   5.47461E+4
   1.23680E+5   5.57884E+4
   1.22048E+5   5.73143E+4
   1.20345E+5   5.83869E+4
   1.18634E+5   5.97184E+4
   1.16613E+5   6.08805E+4
   1.15146E+5   6.21796E+4
   1.13313E+5   6.35233E+4
   1.11292E+5   6.48524E+4
   1.09492E+5   6.58282E+4
   1.07591E+5   6.66878E+4
   1.06352E+5   6.77190E+4
   1.04417E+5   6.84931E+4
   1.02510E+5   6.97785E+4
   1.00915E+5   7.07104E+4
   9.91043E+4   7.14538E+4
   9.72383E+4   7.24978E+4
   9.53990E+4   7.33450E+4
   9.37303E+4   7.37960E+4
   9.19804E+4   7.47199E+4
   9.00220E+4   7.52998E+4
   8.87362E+4   7.58126E+4
   8.69405E+4   7.67773E+4
   8.47190E+4   7.71689E+4
   8.30395E+4   7.78748E+4
   8.13219E+4   7.81422E+4
   7.96528E+4   7.87935E+4
   7.78599E+4   7.90519E+4
   7.65217E+4   7.95771E+4
   7.45879E+4   7.98437E+4
   7.30901E+4   8.03457E+4
   7.11947E+4   8.08054E+4
   6.93418E+4   8.09355E+4
   6.75856E+4   8.11871E+4
   6.61676E+4   8.12607E+4
   6.43661E+4   8.16679E+4
   6.28222E+4   8.18574E+4
   6.07442E+4   8.17326E+4
   5.90471E+4   8.20467E+4
   5.76760E+4   8.21600E+4
   5.59175E+4   8.23199E+4
   5.42316E+4   8.22717E+4
   5.24297E+4   8.22969E+4
   5.09814E+4   8.24513E+4
   4.93236E+4   8.24883E+4
   4.72019E+4   8.26708E+4
   4.55896E+4   8.23709E+4
   4.40296E+4   8.21504E+4
   4.26241E+4   8.21260E+4
   4.09609E+4   8.21229E+4
   3.92675E+4   8.21488E+4
   3.75666E+4   8.17866E+4
   3.63017E+4   8.17801E+4
   3.46752E+4   8.16175E+4
   3.29324E+4   8.13460E+4
   3.11439E+4   8.11835E+4
   2.95486E+4   8.08395E+4
   2.84484E+4   8.02649E+4
   2.68090E+4   8.03923E+4
   2.53370E+4   8.00730E+4
   2.34382E+4   8.01226E+4
   2.20440E+4   7.93545E+4
   2.06580E+4   7.91622E+4
   1.91268E+4   7.88826E+4
   1.78625E+4   7.84198E+4
   1.64977E+4   7.80280E+4
   1.51177E+4   7.77581E+4
   1.38907E+4   7.75026E+4
   1.22579E+4   7.70721E+4
   1.10252E+4   7.64922E+4
   9.26775E+3   7.60575E+4
   8.23703E+3   7.54388E+4
   7.02947E+3   7.50490E+4
   5.81074E+3   7.46646E+4
   4.44092E+3   7.41961E+4
   2.77308E+3   7.35627E+4
   1.54752E+3   7.31873E+4
   6.36429E+2   7.28133E+4
  -6.50868E+2   7.19865E+4
  -1.77425E+3   7.12495E+4
  -3.03955E+3   7.07189E+4
  -3.79612E+3   7.03205E+4
  -5.22168E+3   6.99693E+4
  -6.44733E+3   6.93360E+4
  -7.43732E+3   6.85597E+4
  -8.24586E+3   6.79052E+4
  -9.43315E+3   6.70820E+4
  -1.04228E+4   6.67076E+4
  -1.13101E+4   6.57438E+4
  -1.23143E+4   6.52990E+4
  -1.32806E+4   6.46432E+4
  -1.39570E+4   6.41322E+4
  -1.52669E+4   6.33590E+4
  -1.60146E+4   6.23708E+4
  -1.64539E+4   6.20429E+4
  -1.73360E+4   6.09371E+4
  -1.83693E+4   6.06855E+4
  -1.91421E+4   5.99045E+4
  -1.96515E+4   5.93276E+4
  -2.03789E+4   5.81650E+4
