 
 $NMID
 ID=''
 FMTDAT='(2E13.5)'
 TRAMP=   1.00000E+0
 VOLUME=   1.00000E+0
 $END
   6.59814E+5   4.39431E+5
   1.18216E+6   1.74854E+6
   1.32764E+6   1.57738E+6
   1.21453E+6   1.52368E+6
   1.29678E+6   1.57094E+6
   1.38744E+6   1.45196E+6
   1.36275E+6   1.38875E+6
   1.40211E+6   1.40670E+6
   1.42997E+6   1.35251E+6
   1.38854E+6   1.33689E+6
   1.40495E+6   1.33900E+6
   1.42063E+6   1.28436E+6
   1.39970E+6   1.27143E+6
   1.40387E+6   1.28097E+6
   1.39362E+6   1.24525E+6
   1.37378E+6   1.23040E+6
   1.38947E+6   1.22812E+6
   1.39386E+6   1.18698E+6
   1.39001E+6   1.15202E+6
   1.41707E+6   1.12454E+6
   1.41893E+6   1.08768E+6
   1.40771E+6   1.06155E+6
   1.42163E+6   1.03833E+6
   1.42299E+6   1.00834E+6
   1.40606E+6   9.90688E+5
   1.40961E+6   9.64414E+5
   1.40729E+6   9.46485E+5
   1.39006E+6   9.44878E+5
   1.37863E+6   9.29999E+5
   1.37398E+6   9.00600E+5
   1.37034E+6   8.86994E+5
   1.36785E+6   8.65012E+5
   1.36111E+6   8.31919E+5
   1.36116E+6   8.06232E+5
   1.36175E+6   7.78307E+5
   1.35774E+6   7.41678E+5
   1.35804E+6   7.10049E+5
   1.35908E+6   6.84227E+5
   1.34734E+6   6.59866E+5
   1.33740E+6   6.38139E+5
   1.33063E+6   6.16557E+5
   1.31940E+6   5.98710E+5
   1.30624E+6   5.82246E+5
   1.29593E+6   5.63295E+5
   1.28508E+6   5.46356E+5
   1.27508E+6   5.33799E+5
   1.26320E+6   5.17459E+5
   1.25016E+6   4.96540E+5
   1.23991E+6   4.74287E+5
   1.23096E+6   4.53894E+5
   1.21908E+6   4.31538E+5
   1.20915E+6   4.08349E+5
   1.20059E+6   3.87682E+5
   1.18853E+6   3.69972E+5
   1.17423E+6   3.51048E+5
   1.16250E+6   3.33176E+5
   1.14876E+6   3.19590E+5
   1.13199E+6   3.05447E+5
   1.11712E+6   2.88138E+5
   1.10609E+6   2.73298E+5
   1.09240E+6   2.61261E+5
   1.07616E+6   2.46698E+5
   1.06269E+6   2.30628E+5
   1.04931E+6   2.16522E+5
   1.03345E+6   2.02666E+5
   1.01732E+6   1.86640E+5
   1.00347E+6   1.70822E+5
   9.88939E+5   1.57046E+5
   9.73286E+5   1.43949E+5
   9.58664E+5   1.31399E+5
   9.44526E+5   1.19703E+5
   9.29410E+5   1.09239E+5
   9.13253E+5   9.81393E+4
   8.98383E+5   8.72127E+4
   8.83854E+5   7.73596E+4
   8.67820E+5   6.75333E+4
   8.51513E+5   5.64911E+4
   8.37004E+5   4.51985E+4
   8.22850E+5   3.53396E+4
   8.06893E+5   2.59716E+4
   7.90902E+5   1.59331E+4
   7.76334E+5   6.19317E+3
   7.61682E+5  -1.51337E+3
   7.45962E+5  -8.58944E+3
   7.30734E+5  -1.60181E+4
   7.16699E+5  -2.20668E+4
   7.01832E+5  -2.78331E+4
   6.87088E+5  -3.40222E+4
   6.73042E+5  -4.00524E+4
   6.59195E+5  -4.55570E+4
   6.44278E+5  -5.14056E+4
   6.30037E+5  -5.86551E+4
   6.16694E+5  -6.52112E+4
   6.02804E+5  -7.12899E+4
   5.88283E+5  -7.81232E+4
   5.74584E+5  -8.51918E+4
   5.61552E+5  -9.11696E+4
   5.48153E+5  -9.68841E+4
   5.34128E+5  -1.02233E+5
   5.21534E+5  -1.07930E+5
   5.08993E+5  -1.12659E+5
   4.96395E+5  -1.16205E+5
   4.83504E+5  -1.20101E+5
   4.70984E+5  -1.23956E+5
   4.58754E+5  -1.27547E+5
   4.46544E+5  -1.31297E+5
   4.34794E+5  -1.35374E+5
   4.23236E+5  -1.38454E+5
   4.11160E+5  -1.41009E+5
   3.98816E+5  -1.44815E+5
   3.87574E+5  -1.48907E+5
   3.77000E+5  -1.51903E+5
   3.66144E+5  -1.53803E+5
   3.54923E+5  -1.56082E+5
   3.44467E+5  -1.58342E+5
   3.34457E+5  -1.59951E+5
   3.23809E+5  -1.61490E+5
   3.13588E+5  -1.63229E+5
   3.03783E+5  -1.64883E+5
   2.93798E+5  -1.65961E+5
   2.83741E+5  -1.67721E+5
   2.74661E+5  -1.69320E+5
   2.65624E+5  -1.70348E+5
   2.56217E+5  -1.71105E+5
   2.46785E+5  -1.71923E+5
   2.38381E+5  -1.73070E+5
   2.29678E+5  -1.73072E+5
   2.21263E+5  -1.73474E+5
   2.12836E+5  -1.73688E+5
   2.05017E+5  -1.73921E+5
   1.97984E+5  -1.73391E+5
   1.90411E+5  -1.73169E+5
   1.82826E+5  -1.73024E+5
   1.75558E+5  -1.72842E+5
   1.68164E+5  -1.72637E+5
   1.61319E+5  -1.72097E+5
   1.54368E+5  -1.71814E+5
   1.47768E+5  -1.71528E+5
   1.41418E+5  -1.71081E+5
   1.34678E+5  -1.70877E+5
   1.28526E+5  -1.70583E+5
   1.22545E+5  -1.69869E+5
   1.16158E+5  -1.69118E+5
   1.10102E+5  -1.68363E+5
   1.04690E+5  -1.67684E+5
   9.90178E+4  -1.66697E+5
   9.34837E+4  -1.65712E+5
   8.82110E+4  -1.65057E+5
   8.31653E+4  -1.63753E+5
   7.77376E+4  -1.62832E+5
   7.29879E+4  -1.62023E+5
   6.78251E+4  -1.61026E+5
   6.30099E+4  -1.60106E+5
   5.80435E+4  -1.58545E+5
   5.31691E+4  -1.57839E+5
   4.87833E+4  -1.56589E+5
   4.40937E+4  -1.55555E+5
   3.93760E+4  -1.54280E+5
   3.48170E+4  -1.53200E+5
   3.05866E+4  -1.51912E+5
   2.64820E+4  -1.50555E+5
   2.23086E+4  -1.49134E+5
   1.86283E+4  -1.47754E+5
   1.44715E+4  -1.46351E+5
   1.06201E+4  -1.44899E+5
   6.93172E+3  -1.43252E+5
   3.45582E+3  -1.41829E+5
  -2.82163E+2  -1.39965E+5
  -3.92740E+3  -1.38630E+5
  -7.55698E+3  -1.37176E+5
  -1.06863E+4  -1.35542E+5
  -1.38433E+4  -1.33853E+5
  -1.74601E+4  -1.32036E+5
  -2.01635E+4  -1.30579E+5
  -2.33453E+4  -1.28936E+5
  -2.59752E+4  -1.26790E+5
  -2.87785E+4  -1.24953E+5
  -3.14071E+4  -1.23260E+5
  -3.38141E+4  -1.21536E+5
  -3.65086E+4  -1.19635E+5
  -3.88381E+4  -1.18017E+5
  -4.12310E+4  -1.16041E+5
  -4.32514E+4  -1.14561E+5
  -4.55290E+4  -1.12964E+5
  -4.74494E+4  -1.10983E+5
  -4.93115E+4  -1.09014E+5
  -5.14244E+4  -1.07101E+5
  -5.30089E+4  -1.05555E+5
  -5.47371E+4  -1.03613E+5
  -5.67267E+4  -1.01574E+5
  -5.86692E+4  -1.00191E+5
  -6.00398E+4  -9.85757E+4
  -6.13280E+4  -9.68072E+4
  -6.24158E+4  -9.52370E+4
  -6.37454E+4  -9.35494E+4
  -6.49699E+4  -9.21934E+4
  -6.58834E+4  -9.05231E+4
  -6.72235E+4  -8.90286E+4
  -6.81936E+4  -8.77886E+4
  -6.89117E+4  -8.65503E+4
  -6.97390E+4  -8.50818E+4
  -7.05294E+4  -8.38447E+4
  -7.09676E+4  -8.23062E+4
  -7.18017E+4  -8.13110E+4
  -7.25484E+4  -7.99424E+4
  -7.36483E+4  -7.89150E+4
  -7.37768E+4  -7.77990E+4
  -7.42341E+4  -7.64596E+4
  -7.48130E+4  -7.51984E+4
  -7.56563E+4  -7.44668E+4
  -7.58588E+4  -7.36415E+4
  -7.60697E+4  -7.24592E+4
  -7.67890E+4  -7.13693E+4
  -7.73362E+4  -7.06844E+4
  -7.77233E+4  -6.96912E+4
  -7.78151E+4  -6.86730E+4
  -7.82196E+4  -6.78606E+4
  -7.85437E+4  -6.67271E+4
  -7.88384E+4  -6.59535E+4
  -7.92760E+4  -6.52239E+4
  -7.95260E+4  -6.46377E+4
  -7.97642E+4  -6.37446E+4
  -7.99617E+4  -6.29140E+4
  -8.02296E+4  -6.22063E+4
  -8.04755E+4  -6.14011E+4
  -8.04335E+4  -6.05840E+4
  -8.03658E+4  -5.97759E+4
  -8.06075E+4  -5.88970E+4
  -8.09525E+4  -5.82741E+4
  -8.09698E+4  -5.76314E+4
  -8.08741E+4  -5.70077E+4
  -8.08891E+4  -5.64611E+4
  -8.09098E+4  -5.54691E+4
  -8.10380E+4  -5.49422E+4
  -8.07928E+4  -5.40814E+4
  -8.09785E+4  -5.32886E+4
  -8.08886E+4  -5.27644E+4
  -8.07865E+4  -5.19528E+4
  -8.07225E+4  -5.15707E+4
  -8.03654E+4  -5.06806E+4
  -8.03748E+4  -4.97508E+4
  -8.00656E+4  -4.92499E+4
  -8.00147E+4  -4.84610E+4
  -7.99968E+4  -4.79245E+4
  -7.96724E+4  -4.71838E+4
  -7.95010E+4  -4.64967E+4
  -7.94725E+4  -4.58650E+4
  -7.86554E+4  -4.54697E+4
  -7.84224E+4  -4.45970E+4
  -7.80049E+4  -4.37502E+4
  -7.76771E+4  -4.29139E+4
  -7.72671E+4  -4.25417E+4
  -7.69469E+4  -4.19495E+4
  -7.63755E+4  -4.12953E+4
  -7.57378E+4  -4.08070E+4
  -7.51943E+4  -4.02134E+4
  -7.49731E+4  -3.96016E+4
  -7.42862E+4  -3.89908E+4
  -7.38651E+4  -3.85071E+4
  -7.31072E+4  -3.81166E+4
  -7.25757E+4  -3.76248E+4
  -7.18528E+4  -3.71383E+4
  -7.10609E+4  -3.66432E+4
  -7.03306E+4  -3.59628E+4
  -6.95955E+4  -3.54196E+4
  -6.90453E+4  -3.50014E+4
  -6.82234E+4  -3.45800E+4
  -6.76245E+4  -3.39856E+4
  -6.66950E+4  -3.36895E+4
  -6.59773E+4  -3.30796E+4
  -6.50770E+4  -3.23918E+4
  -6.42038E+4  -3.20577E+4
  -6.34366E+4  -3.16406E+4
  -6.28151E+4  -3.12328E+4
  -6.17698E+4  -3.07175E+4
  -6.10381E+4  -3.03252E+4
  -5.99320E+4  -2.97983E+4
  -5.91822E+4  -2.93853E+4
  -5.80139E+4  -2.88787E+4
  -5.72620E+4  -2.85167E+4
  -5.64103E+4  -2.81577E+4
  -5.54860E+4  -2.78465E+4
  -5.45832E+4  -2.71890E+4
  -5.33217E+4  -2.67520E+4
  -5.26126E+4  -2.66521E+4
  -5.16426E+4  -2.62415E+4
  -5.05142E+4  -2.56446E+4
  -4.94001E+4  -2.49315E+4
  -4.87374E+4  -2.44664E+4
  -4.78893E+4  -2.42832E+4
  -4.67326E+4  -2.37031E+4
  -4.55378E+4  -2.36036E+4
  -4.45693E+4  -2.29021E+4
  -4.35792E+4  -2.27721E+4
  -4.27532E+4  -2.20787E+4
  -4.17304E+4  -2.16610E+4
  -4.07992E+4  -2.11655E+4
  -3.98585E+4  -2.06497E+4
  -3.88700E+4  -2.03231E+4
  -3.79235E+4  -2.02822E+4
  -3.67530E+4  -1.93625E+4
  -3.57917E+4  -1.90961E+4
  -3.49694E+4  -1.87244E+4
  -3.37561E+4  -1.82982E+4
  -3.29873E+4  -1.77530E+4
  -3.21851E+4  -1.73209E+4
  -3.11342E+4  -1.68936E+4
  -3.02259E+4  -1.64895E+4
  -2.90425E+4  -1.61985E+4
  -2.81404E+4  -1.57008E+4
  -2.71212E+4  -1.52578E+4
  -2.65697E+4  -1.48228E+4
  -2.57234E+4  -1.45776E+4
  -2.47717E+4  -1.43206E+4
  -2.36637E+4  -1.37439E+4
  -2.28363E+4  -1.33545E+4
  -2.19207E+4  -1.27225E+4
  -2.12833E+4  -1.22001E+4
  -2.03289E+4  -1.22277E+4
  -1.92583E+4  -1.16530E+4
  -1.86272E+4  -1.12182E+4
  -1.79851E+4  -1.08980E+4
  -1.69730E+4  -1.02996E+4
  -1.61979E+4  -9.89751E+3
  -1.51834E+4  -9.48949E+3
  -1.44035E+4  -8.97777E+3
  -1.38370E+4  -8.71845E+3
  -1.27296E+4  -8.21440E+3
  -1.19400E+4  -7.79267E+3
  -1.13705E+4  -7.26841E+3
  -1.06363E+4  -6.86585E+3
  -9.87180E+3  -6.51848E+3
  -8.98441E+3  -5.80115E+3
  -8.17774E+3  -5.60121E+3
  -7.50687E+3  -5.12288E+3
  -6.90209E+3  -4.81297E+3
  -6.35045E+3  -4.56937E+3
  -5.43837E+3  -3.91235E+3
  -4.95088E+3  -3.57953E+3
  -4.42757E+3  -3.21941E+3
  -3.79432E+3  -2.72060E+3
  -3.12052E+3  -2.64538E+3
  -2.28328E+3  -2.00663E+3
  -1.71162E+3  -1.70184E+3
  -1.01107E+3  -1.29439E+3
  -6.95180E+2  -6.26218E+2
  -4.01347E+1  -3.38669E+2
   7.30288E+2   1.24715E+2
   1.06826E+3   3.17856E+2
   1.31503E+3   7.93229E+2
   2.18896E+3   1.21402E+3
   2.60514E+3   1.47646E+3
   3.26419E+3   2.03847E+3
   3.40408E+3   2.30876E+3
   4.04455E+3   2.84735E+3
   4.55248E+3   2.99656E+3
   5.17923E+3   3.36436E+3
   5.47757E+3   3.43108E+3
   5.49092E+3   3.93529E+3
   6.11762E+3   4.10407E+3
   6.51589E+3   4.54265E+3
   6.94707E+3   4.82125E+3
   7.25581E+3   4.98650E+3
   7.67244E+3   5.29425E+3
   7.75724E+3   5.60212E+3
   8.17180E+3   5.92827E+3
   8.55829E+3   6.47904E+3
