 LCModel (Version 6.3-1N) Copyright: S.W. Provencher.          Ref.: Magn. Reson. Med. 30:672-679 (1993).                
 Slice_N1@18_22  28-Feb-2025 11:37:41
 27 lines in following concentration table = NCONC+1
    Conc.  %SD /Cr+PCr  Metabolite                                         
 2.99E-04   3% 2.9E-04 Mac                                                 
    3.341  43%   3.214 Cr                                                  
    4.974  29%   4.786 PCr                                                 
    7.464  12%   7.181 Ins                                                 
   10.538   7%  10.138 NAA                                                 
    6.218  13%   5.982 Tau                                                 
    0.000 999%   0.000 PCho                                                
    1.367  21%   1.315 GPC                                                 
   10.690   9%  10.284 Glu                                                 
    3.061  26%   2.945 Gln                                                 
    0.000 999%   0.000 Ala                                                 
    3.426  35%   3.296 Asc                                                 
    3.281  28%   3.157 Asp                                                 
    0.568  89%   0.546 GABA                                                
    0.670  98%   0.644 Glc                                                 
    2.203  22%   2.120 GSH                                                 
    1.380  46%   1.328 Lac                                                 
    1.985  30%   1.910 NAAG                                                
    2.005  53%   1.929 PE                                                  
    1.367  21%   1.315 GPC+PCho                                            
   12.524   6%  12.048 NAA+NAAG                                            
   13.751   9%  13.229 Glu+Gln                                             
    8.316   8%   8.000 Cr+PCr                                              
   12.524   6%  12.048 NAA+NAAG                                            
    8.316   8%   8.000 Cr+PCr                                              
   13.751   9%  13.229 Glu+Gln                                             
   6 lines in following misc. output table
  FWHM = 0.033 ppm    S/N =   4                                            
  Data shift = 0.016 ppm                                                   
  Ph: -54 deg       0.0 deg/ppm                                            
  alphaB,S = 1.4E+00,   1.5E+00                                            
   19 spline knots.   Ns = 5(1)                                            
  ( 4) 2 infls.   ( 1) 1 extrs.                                            
  480 points on ppm-axis = NY
      4.100000     4.091866     4.083733     4.075600     4.067466     4.059333     4.051199     4.043066     4.034933     4.026799
      4.018666     4.010532     4.002399     3.994265     3.986132     3.977998     3.969864     3.961731     3.953597     3.945463
      3.937330     3.929196     3.921062     3.912929     3.904795     3.896662     3.888528     3.880394     3.872261     3.864127
      3.855993     3.847860     3.839726     3.831592     3.823459     3.815325     3.807191     3.799058     3.790924     3.782790
      3.774657     3.766523     3.758389     3.750256     3.742122     3.733989     3.725855     3.717721     3.709588     3.701454
      3.693320     3.685187     3.677053     3.668919     3.660786     3.652652     3.644518     3.636385     3.628251     3.620117
      3.611984     3.603850     3.595716     3.587583     3.579449     3.571316     3.563182     3.555048     3.546915     3.538781
      3.530647     3.522514     3.514380     3.506246     3.498113     3.489979     3.481845     3.473712     3.465578     3.457444
      3.449311     3.441177     3.433043     3.424910     3.416776     3.408643     3.400509     3.392375     3.384242     3.376108
      3.367974     3.359841     3.351707     3.343573     3.335440     3.327306     3.319172     3.311039     3.302905     3.294771
      3.286638     3.278504     3.270370     3.262237     3.254103     3.245970     3.237836     3.229702     3.221569     3.213435
      3.205301     3.197168     3.189034     3.180900     3.172767     3.164633     3.156499     3.148366     3.140232     3.132098
      3.123965     3.115831     3.107697     3.099564     3.091430     3.083297     3.075163     3.067029     3.058896     3.050762
      3.042628     3.034495     3.026361     3.018227     3.010094     3.001960     2.993826     2.985693     2.977559     2.969425
      2.961292     2.953158     2.945024     2.936891     2.928757     2.920624     2.912490     2.904356     2.896223     2.888089
      2.879955     2.871822     2.863688     2.855554     2.847421     2.839287     2.831153     2.823020     2.814886     2.806752
      2.798619     2.790485     2.782351     2.774218     2.766084     2.757951     2.749817     2.741683     2.733550     2.725416
      2.717282     2.709149     2.701015     2.692881     2.684748     2.676614     2.668480     2.660347     2.652213     2.644079
      2.635946     2.627812     2.619678     2.611545     2.603411     2.595278     2.587144     2.579010     2.570877     2.562743
      2.554609     2.546476     2.538342     2.530208     2.522075     2.513941     2.505807     2.497674     2.489540     2.481406
      2.473273     2.465139     2.457006     2.448872     2.440738     2.432605     2.424471     2.416337     2.408204     2.400070
      2.391936     2.383803     2.375669     2.367535     2.359402     2.351268     2.343134     2.335001     2.326867     2.318733
      2.310600     2.302466     2.294333     2.286199     2.278065     2.269932     2.261798     2.253664     2.245531     2.237397
      2.229263     2.221130     2.212996     2.204862     2.196729     2.188595     2.180461     2.172328     2.164194     2.156060
      2.147927     2.139793     2.131660     2.123526     2.115392     2.107259     2.099125     2.090991     2.082858     2.074724
      2.066590     2.058457     2.050323     2.042189     2.034056     2.025922     2.017788     2.009655     2.001521     1.993387
      1.985254     1.977120     1.968987     1.960853     1.952719     1.944586     1.936452     1.928318     1.920185     1.912051
      1.903917     1.895784     1.887650     1.879516     1.871383     1.863249     1.855115     1.846982     1.838848     1.830714
      1.822581     1.814447     1.806314     1.798180     1.790046     1.781913     1.773779     1.765645     1.757512     1.749378
      1.741244     1.733111     1.724977     1.716843     1.708710     1.700576     1.692442     1.684309     1.676175     1.668041
      1.659908     1.651774     1.643641     1.635507     1.627373     1.619240     1.611106     1.602972     1.594839     1.586705
      1.578571     1.570438     1.562304     1.554170     1.546037     1.537903     1.529769     1.521636     1.513502     1.505368
      1.497235     1.489101     1.480968     1.472834     1.464700     1.456567     1.448433     1.440299     1.432166     1.424032
      1.415898     1.407765     1.399631     1.391497     1.383364     1.375230     1.367096     1.358963     1.350829     1.342695
      1.334562     1.326428     1.318295     1.310161     1.302027     1.293894     1.285760     1.277626     1.269493     1.261359
      1.253225     1.245092     1.236958     1.228824     1.220691     1.212557     1.204423     1.196290     1.188156     1.180022
      1.171889     1.163755     1.155622     1.147488     1.139354     1.131221     1.123087     1.114953     1.106820     1.098686
      1.090552     1.082419     1.074285     1.066151     1.058018     1.049884     1.041750     1.033617     1.025483     1.017349
      1.009216     1.001082     0.992949     0.984815     0.976681     0.968548     0.960414     0.952280     0.944147     0.936013
      0.927879     0.919746     0.911612     0.903478     0.895345     0.887211     0.879077     0.870944     0.862810     0.854676
      0.846543     0.838409     0.830276     0.822142     0.814008     0.805875     0.797741     0.789607     0.781474     0.773340
      0.765206     0.757073     0.748939     0.740805     0.732672     0.724538     0.716404     0.708271     0.700137     0.692003
      0.683870     0.675736     0.667603     0.659469     0.651335     0.643202     0.635068     0.626934     0.618801     0.610667
      0.602533     0.594400     0.586266     0.578132     0.569999     0.561865     0.553731     0.545598     0.537464     0.529330
      0.521197     0.513063     0.504930     0.496796     0.488662     0.480529     0.472395     0.464261     0.456128     0.447994
      0.439861     0.431727     0.423593     0.415460     0.407326     0.399192     0.391059     0.382925     0.374792     0.366658
      0.358524     0.350391     0.342257     0.334124     0.325990     0.317856     0.309723     0.301589     0.293455     0.285322
      0.277188     0.269055     0.260921     0.252787     0.244654     0.236520     0.228386     0.220253     0.212119     0.203986
 NY phased data points follow
  -8.04842E+01 -9.24868E+01 -8.74256E+01 -8.76386E+01 -7.00136E+01 -6.75505E+01 -8.13132E+01 -7.50849E+01 -8.93950E+01 -8.08964E+01
  -7.91779E+01 -9.60595E+01 -1.10649E+02 -1.04832E+02 -9.11395E+01 -1.19184E+02 -1.18160E+02 -1.09038E+02 -1.23760E+02 -1.35848E+02
  -1.37258E+02 -1.17385E+02 -1.06633E+02 -9.07460E+01 -6.23207E+01 -5.15263E+01 -2.77322E+01 -2.45586E+01 -5.00185E+01 -3.42395E+01
  -4.24506E+01 -4.60457E+01 -3.88471E+01 -4.59637E+01 -3.26593E+01 -5.52416E+01 -5.69436E+01 -6.48852E+01 -9.21236E+01 -9.09086E+01
  -1.11450E+02 -1.14074E+02 -1.03732E+02 -9.94878E+01 -7.08327E+01 -4.72223E+01 -2.95169E+01 -1.46625E+01 -1.27281E+01  9.53331E+00
   2.55362E+00 -1.94449E+01 -1.94400E+01 -2.60088E+01 -2.16834E+01 -3.94096E+01 -5.29198E+01 -5.02626E+01 -5.96650E+01 -7.20554E+01
  -6.21543E+01 -4.54897E+01 -5.38253E+01 -4.20913E+01 -2.21558E+01 -1.51368E+01 -2.63232E+01 -2.36807E+01 -2.52906E+01 -5.59577E+01
  -6.96704E+01 -6.88377E+01 -5.20357E+01 -4.90648E+01 -3.53272E+01 -1.63631E+01 -6.05143E+00 -8.92461E-01 -4.40895E+00  9.31922E+00
  -6.44534E+00 -1.32363E+01 -2.44087E+01 -3.43449E+01 -2.83594E+01 -4.65468E+01 -3.53268E+01 -3.08279E+01 -1.78145E+01 -7.78191E+00
  -1.04983E+01  1.22203E+01  1.28240E+01  2.02102E+01  2.78062E+01  3.66823E+01  3.27235E+01  1.21735E+01  4.19976E+01  4.04475E+01
   1.80075E+01  2.28943E+01 -1.03432E+01 -1.44677E+01 -2.19871E+01 -6.27912E+01 -6.49081E+01 -8.87917E+01 -1.04942E+02 -1.22483E+02
  -1.57385E+02 -1.60789E+02 -1.55683E+02 -1.36930E+02 -1.22386E+02 -1.00550E+02 -9.08538E+01 -8.69282E+01 -6.37138E+01 -5.03991E+01
  -5.00851E+01 -3.92859E+01 -2.28491E+01 -2.25211E+01 -5.50500E-01 -1.18446E+01 -1.20731E-01  2.78513E+01  2.63032E+01  6.67172E+01
   6.52350E+01  5.87022E+01  1.99390E+01 -6.33224E+01 -1.08139E+02 -1.25149E+02 -1.25336E+02 -1.27900E+02 -1.15753E+02 -1.16511E+02
  -1.15228E+02 -1.14459E+02 -1.07107E+02 -9.92232E+01 -1.05831E+02 -1.05030E+02 -1.05802E+02 -9.38170E+01 -1.01335E+02 -9.27074E+01
  -8.17054E+01 -8.83387E+01 -8.74498E+01 -8.13699E+01 -7.34125E+01 -8.12536E+01 -7.21049E+01 -7.07204E+01 -7.32330E+01 -6.71413E+01
  -5.79101E+01 -6.08428E+01 -7.25615E+01 -6.64733E+01 -5.95418E+01 -5.36073E+01 -6.18334E+01 -5.79247E+01 -5.26282E+01 -5.15339E+01
  -3.69678E+01 -2.12928E+01 -2.66853E+01 -3.53291E+01 -2.14724E+01 -3.36827E+01 -2.80871E+01 -6.75977E+00 -2.03626E+01 -4.06404E+01
  -5.24595E+01 -6.79608E+01 -8.69884E+01 -8.32741E+01 -7.10274E+01 -6.66851E+01 -7.57256E+01 -7.70939E+01 -5.94749E+01 -5.56544E+01
  -5.75571E+01 -5.60113E+01 -5.46846E+01 -4.74102E+01 -4.72977E+01 -4.54975E+01 -4.97930E+01 -5.18694E+01 -4.77698E+01 -5.31566E+01
  -4.18170E+01 -4.51138E+01 -4.62584E+01 -4.72722E+01 -4.24985E+01 -3.49693E+01 -6.22455E+01 -7.10920E+01 -8.37476E+01 -8.28408E+01
  -9.00208E+01 -9.44671E+01 -7.07835E+01 -6.09983E+01 -3.60339E+01 -3.03858E+01 -1.13488E+01 -6.71666E-01 -8.11809E+00  1.30343E+00
  -1.21812E+01 -1.65135E+01 -3.29366E+01 -4.02114E+01 -1.90930E+01 -3.57293E+01 -4.48133E+01 -3.69539E+01 -4.09077E+01 -2.92926E+01
  -3.45596E+01 -4.82404E+01 -5.50747E+01 -5.97577E+01 -7.58139E+01 -8.92624E+01 -8.23891E+01 -1.02827E+02 -1.13801E+02 -1.10492E+02
  -9.43550E+01 -9.61380E+01 -1.02926E+02 -8.24224E+01 -8.51976E+01 -6.71290E+01 -6.21037E+01 -6.74802E+01 -7.03073E+01 -8.74565E+01
  -8.83596E+01 -9.86963E+01 -1.07578E+02 -9.98582E+01 -9.60497E+01 -9.90070E+01 -9.51584E+01 -7.54750E+01  1.36858E+01  1.04043E+02
   1.27239E+02  1.20408E+02  1.02923E+02  9.41084E+01  6.73050E+01  6.07183E+01  5.88041E+01  5.39275E+01  5.47330E+01  3.35759E+01
   3.29132E+01  3.84709E+01  3.93533E+01  3.59988E+01  4.14826E+01  4.52292E+01  3.83887E+01  4.35056E+01  3.62605E+01  3.55794E+01
   4.36398E+01  3.93842E+01  3.69783E+01  3.25665E+01  4.27111E+01  4.74986E+01  2.97435E+01  3.68848E+01  3.84958E+01  2.99379E+01
   3.36269E+01  2.89460E+01  2.77138E+01  2.77796E+01  1.86236E+01  1.42153E+01  1.36446E+01  1.35963E+01  1.97667E+01  4.96773E+00
  -3.93552E+00 -5.20458E+00 -4.61916E+00  1.48822E+00 -1.66746E+01 -1.89328E+01 -2.58827E+01 -4.66632E+01 -5.13682E+01 -3.39611E+01
  -2.10240E+01 -2.29524E+01 -1.07609E+01  2.78355E-01  1.55009E+01  2.28129E+01  2.94609E+01  2.72881E+01  1.54601E+01  1.32131E+01
   1.59675E+01  3.07368E+01  3.20579E+01  2.71068E+01  1.57046E+01  9.89597E+00  1.00818E+01  4.93539E+00  8.72224E+00 -9.19666E+00
  -3.17737E+01 -3.48989E+01 -4.51612E+01 -5.06972E+01 -5.08917E+01 -5.96259E+01 -5.45332E+01 -4.90962E+01 -4.78039E+01 -3.76173E+01
  -2.65074E+01 -3.28247E+01 -3.66041E+01 -3.06843E+01 -3.81873E+01 -3.22768E+01 -4.14672E+01 -3.78063E+01 -2.06638E+01 -3.42615E+01
  -2.84032E+01 -2.59909E+01 -2.13859E+01 -1.26298E+01 -3.03186E+01 -3.84169E+01 -3.84375E+01 -4.14310E+01 -4.51689E+01 -5.27039E+01
  -4.41877E+01 -3.78186E+01 -4.57876E+01 -4.02558E+01 -3.53109E+01 -3.14253E+01 -2.96316E+01 -2.95431E+01 -1.75227E+01 -1.76773E+01
  -1.62734E+01 -1.01909E+01 -6.17818E-01  8.40354E+00 -7.41032E+00  6.23659E+00  1.05176E+01 -4.93968E+00  3.33792E+00  9.08744E+00
   3.20012E+01  3.37967E+01  4.93219E+01  4.55813E+01  3.16600E+01  7.83641E+01  9.12027E+01  8.94404E+01  7.97210E+01  8.82267E+01
   8.49056E+01  8.03335E+01  8.51786E+01  4.55926E+01  4.08765E+01  2.59423E+01  3.43431E+01  2.96368E+01  1.21382E+01  2.39168E+01
  -6.66194E+00 -1.41725E+01 -2.13947E+01 -2.73580E+01 -4.24170E+01 -5.37189E+01 -4.76498E+01 -5.60238E+01 -5.82767E+01 -6.42109E+01
  -5.89787E+01 -6.19444E+01 -5.37031E+01 -5.30120E+01 -6.31467E+01 -6.00036E+01 -5.50613E+01 -5.75417E+01 -6.72155E+01 -4.94902E+01
  -6.30299E+01 -7.12564E+01 -5.37824E+01 -5.64974E+01 -5.76544E+01 -6.00048E+01 -5.49298E+01 -6.18342E+01 -6.00239E+01 -5.56497E+01
  -6.44564E+01 -6.91350E+01 -6.62890E+01 -5.65472E+01 -6.94585E+01 -6.27223E+01 -6.04631E+01 -6.13203E+01 -5.18776E+01 -6.73527E+01
  -4.46027E+01 -5.42165E+01 -7.52393E+01 -5.67217E+01 -5.29000E+01 -4.36170E+01 -5.80605E+01 -6.07155E+01 -6.03274E+01 -6.52308E+01
  -5.65144E+01 -5.27983E+01 -5.01162E+01 -4.99559E+01 -3.44034E+01 -5.34506E+01 -5.70449E+01 -4.16922E+01 -5.23449E+01 -4.21315E+01
  -4.42246E+01 -6.41572E+01 -5.89456E+01 -4.05435E+01 -5.19231E+01 -5.41784E+01 -5.46127E+01 -5.01087E+01 -4.75965E+01 -6.13270E+01
  -3.68726E+01 -4.07040E+01 -5.89772E+01 -5.55687E+01 -5.20054E+01 -5.21465E+01 -4.64376E+01 -4.90995E+01 -6.12706E+01 -4.59286E+01
 NY points of the fit to the data follow
  -8.39211E+01 -8.80083E+01 -9.20892E+01 -9.53188E+01 -9.59748E+01 -9.09026E+01 -7.90366E+01 -7.01300E+01 -6.97618E+01 -7.70649E+01
  -8.52237E+01 -9.20145E+01 -9.52662E+01 -9.57459E+01 -9.55354E+01 -9.54431E+01 -1.00929E+02 -1.04303E+02 -1.15010E+02 -1.23251E+02
  -1.29437E+02 -1.24682E+02 -1.01750E+02 -7.90196E+01 -5.78881E+01 -3.82353E+01 -3.04275E+01 -2.63725E+01 -2.29699E+01 -2.12504E+01
  -1.98552E+01 -2.01750E+01 -2.16384E+01 -2.38047E+01 -2.70143E+01 -3.13539E+01 -4.14696E+01 -5.01837E+01 -6.61501E+01 -8.10758E+01
  -9.92060E+01 -1.07478E+02 -1.00244E+02 -8.74059E+01 -7.14988E+01 -5.34577E+01 -3.59275E+01 -2.16670E+01 -1.40206E+01 -1.03100E+01
  -1.09423E+01 -1.44217E+01 -2.02579E+01 -2.61833E+01 -3.37925E+01 -4.15468E+01 -4.51853E+01 -4.99881E+01 -5.41114E+01 -6.09779E+01
  -6.34323E+01 -5.27032E+01 -4.54953E+01 -3.60750E+01 -2.15050E+01 -1.51186E+01 -1.34215E+01 -1.82853E+01 -3.23752E+01 -5.06049E+01
  -6.58871E+01 -6.57839E+01 -5.73482E+01 -4.90818E+01 -3.57227E+01 -2.10846E+01 -9.79399E+00 -3.35311E+00  1.08891E+00 -2.31395E+00
  -4.39206E+00 -1.59785E+01 -2.74683E+01 -4.14804E+01 -5.31311E+01 -5.48629E+01 -4.99331E+01 -3.93750E+01 -2.56055E+01 -1.60700E+01
  -8.37095E+00 -2.96112E+00  1.41924E+00  6.09637E+00  1.09058E+01  1.41010E+01  1.82343E+01  2.13707E+01  2.23556E+01  2.04898E+01
   1.86186E+01  1.28341E+01  8.48232E+00 -9.21937E+00 -1.79647E+01 -3.79018E+01 -5.36465E+01 -6.87105E+01 -8.40520E+01 -1.13522E+02
  -1.46431E+02 -1.57114E+02 -1.43777E+02 -1.25180E+02 -1.04778E+02 -9.16396E+01 -8.22362E+01 -7.44063E+01 -6.71805E+01 -6.02389E+01
  -5.34573E+01 -4.67243E+01 -3.95929E+01 -3.16785E+01 -2.24482E+01 -1.15834E+01  2.10654E+00  2.70876E+01  3.98107E+01  5.98684E+01
   6.49569E+01  5.91667E+01  1.79728E+01 -5.86201E+01 -1.10290E+02 -1.24238E+02 -1.22887E+02 -1.11033E+02 -1.04419E+02 -1.01851E+02
  -1.02320E+02 -1.03336E+02 -1.05560E+02 -1.06989E+02 -1.07420E+02 -1.07816E+02 -1.07070E+02 -1.04815E+02 -1.02128E+02 -9.90105E+01
  -9.58901E+01 -9.24845E+01 -8.91763E+01 -8.59697E+01 -8.32116E+01 -8.01236E+01 -7.73782E+01 -7.54827E+01 -7.45860E+01 -7.33511E+01
  -7.07344E+01 -6.81123E+01 -6.67748E+01 -6.86330E+01 -7.14411E+01 -7.23769E+01 -7.16551E+01 -6.96334E+01 -6.65071E+01 -6.37869E+01
  -5.90970E+01 -5.10921E+01 -4.10144E+01 -3.43776E+01 -3.64199E+01 -4.11002E+01 -3.99155E+01 -3.67304E+01 -3.59569E+01 -4.43077E+01
  -5.72996E+01 -6.70027E+01 -7.29882E+01 -7.64432E+01 -7.78472E+01 -7.95774E+01 -7.96034E+01 -7.88328E+01 -7.74559E+01 -7.48278E+01
  -7.07464E+01 -6.63952E+01 -6.22917E+01 -5.82303E+01 -5.23748E+01 -4.59978E+01 -4.61983E+01 -4.65727E+01 -4.44060E+01 -4.30368E+01
  -4.20147E+01 -4.33435E+01 -4.28553E+01 -4.07465E+01 -4.25588E+01 -4.81903E+01 -5.59485E+01 -6.45035E+01 -7.26654E+01 -7.91349E+01
  -8.67407E+01 -8.53440E+01 -8.29284E+01 -7.02832E+01 -5.22414E+01 -3.29320E+01 -8.10994E+00  4.52654E+00  7.10664E+00  5.23428E+00
  -7.37247E+00 -1.79107E+01 -2.36430E+01 -2.63516E+01 -2.50987E+01 -2.46151E+01 -2.55069E+01 -2.86288E+01 -3.46375E+01 -4.25925E+01
  -5.30645E+01 -6.41901E+01 -7.55756E+01 -8.70650E+01 -9.60128E+01 -1.05096E+02 -1.10674E+02 -1.13575E+02 -1.13935E+02 -1.10929E+02
  -1.04216E+02 -9.90263E+01 -8.97078E+01 -8.17062E+01 -7.55512E+01 -6.91060E+01 -6.82295E+01 -6.96008E+01 -7.43396E+01 -8.17746E+01
  -8.57185E+01 -9.19421E+01 -1.08655E+02 -1.08292E+02 -1.09330E+02 -1.04036E+02 -1.04100E+02 -7.52252E+01  7.15494E+00  7.83510E+01
   1.04427E+02  1.05142E+02  8.86142E+01  7.43517E+01  6.60893E+01  5.99895E+01  5.51662E+01  5.05434E+01  4.67132E+01  4.32109E+01
   4.07303E+01  3.94466E+01  3.89811E+01  3.95330E+01  3.98757E+01  4.01106E+01  4.01341E+01  3.93215E+01  3.82118E+01  3.69190E+01
   3.54845E+01  3.38192E+01  3.17017E+01  2.95382E+01  2.72863E+01  2.52633E+01  2.30321E+01  2.05474E+01  1.80799E+01  1.53025E+01
   1.21727E+01  8.62413E+00  4.59817E+00  6.89418E-01 -3.02677E+00 -6.30556E+00 -8.35905E+00 -8.99290E+00 -8.09001E+00 -6.18008E+00
  -3.69519E+00 -1.13195E+00  1.57532E+00  4.42125E+00  7.17285E+00  9.80821E+00  1.22802E+01  1.45209E+01  1.67860E+01  1.90836E+01
   2.16809E+01  2.40894E+01  2.61253E+01  2.78028E+01  2.92713E+01  3.04745E+01  3.14234E+01  3.15525E+01  3.12322E+01  3.01133E+01
   2.82449E+01  2.56701E+01  2.30242E+01  1.97518E+01  1.57502E+01  1.12442E+01  6.00970E+00 -2.93735E-01 -8.00014E+00 -1.71714E+01
  -2.66270E+01 -3.52866E+01 -4.23717E+01 -4.72716E+01 -4.97976E+01 -4.94318E+01 -4.64298E+01 -4.12698E+01 -3.63964E+01 -3.07671E+01
  -2.87724E+01 -2.73396E+01 -3.04163E+01 -3.36391E+01 -3.51904E+01 -3.53385E+01 -3.16965E+01 -2.63784E+01 -2.29803E+01 -2.05890E+01
  -2.00037E+01 -2.04825E+01 -2.22927E+01 -2.50347E+01 -2.88094E+01 -3.30769E+01 -3.71217E+01 -4.01268E+01 -4.14327E+01 -4.13718E+01
  -3.99159E+01 -3.74411E+01 -3.43383E+01 -3.06703E+01 -2.68416E+01 -2.30892E+01 -1.94388E+01 -1.60306E+01 -1.28142E+01 -9.67578E+00
  -6.57029E+00 -3.40686E+00 -1.77456E-01  3.12894E+00  6.65666E+00  1.04301E+01  1.47089E+01  1.96555E+01  2.51247E+01  3.09350E+01
   3.76522E+01  4.48192E+01  5.22353E+01  5.99402E+01  6.80116E+01  7.53562E+01  8.11016E+01  8.41956E+01  8.37487E+01  7.91700E+01
   7.06175E+01  5.96521E+01  4.81149E+01  3.78772E+01  2.89395E+01  2.13112E+01  1.42784E+01  6.88162E+00 -1.50573E+00 -1.08242E+01
  -2.01223E+01 -2.90852E+01 -3.69637E+01 -4.29149E+01 -4.74961E+01 -5.08550E+01 -5.32484E+01 -5.48829E+01 -5.59743E+01 -5.69703E+01
  -5.78019E+01 -5.87058E+01 -5.93270E+01 -5.96828E+01 -5.96753E+01 -5.97094E+01 -5.97535E+01 -5.95635E+01 -5.94426E+01 -5.94176E+01
  -5.96063E+01 -5.94058E+01 -5.89323E+01 -5.87485E+01 -5.87177E+01 -5.86424E+01 -5.84306E+01 -5.82888E+01 -5.81507E+01 -5.80232E+01
  -5.76255E+01 -5.72106E+01 -5.70378E+01 -5.69923E+01 -5.70850E+01 -5.70560E+01 -5.69558E+01 -5.65710E+01 -5.62542E+01 -5.58722E+01
  -5.54749E+01 -5.51715E+01 -5.49867E+01 -5.47844E+01 -5.46564E+01 -5.46920E+01 -5.48264E+01 -5.47739E+01 -5.45572E+01 -5.42086E+01
  -5.39647E+01 -5.37199E+01 -5.35920E+01 -5.35451E+01 -5.33977E+01 -5.29355E+01 -5.26438E+01 -5.22482E+01 -5.19837E+01 -5.17269E+01
  -5.15554E+01 -5.12934E+01 -5.11657E+01 -5.11399E+01 -5.10940E+01 -5.10749E+01 -5.08065E+01 -5.04619E+01 -4.99455E+01 -4.93435E+01
  -4.88452E+01 -4.86142E+01 -4.86778E+01 -4.88097E+01 -4.87545E+01 -4.85096E+01 -4.81481E+01 -4.79138E+01 -4.76171E+01 -4.72997E+01
 NY background values follow
    -4.902E+01   -4.892E+01   -4.882E+01   -4.872E+01   -4.862E+01   -4.852E+01   -4.841E+01   -4.831E+01   -4.821E+01   -4.811E+01
    -4.801E+01   -4.791E+01   -4.781E+01   -4.770E+01   -4.760E+01   -4.750E+01   -4.740E+01   -4.730E+01   -4.720E+01   -4.710E+01
    -4.699E+01   -4.689E+01   -4.679E+01   -4.669E+01   -4.659E+01   -4.649E+01   -4.638E+01   -4.628E+01   -4.618E+01   -4.608E+01
    -4.598E+01   -4.588E+01   -4.578E+01   -4.567E+01   -4.557E+01   -4.547E+01   -4.537E+01   -4.527E+01   -4.517E+01   -4.507E+01
    -4.497E+01   -4.486E+01   -4.476E+01   -4.466E+01   -4.456E+01   -4.446E+01   -4.436E+01   -4.426E+01   -4.416E+01   -4.406E+01
    -4.396E+01   -4.386E+01   -4.376E+01   -4.366E+01   -4.356E+01   -4.346E+01   -4.336E+01   -4.326E+01   -4.316E+01   -4.307E+01
    -4.297E+01   -4.287E+01   -4.277E+01   -4.267E+01   -4.258E+01   -4.248E+01   -4.238E+01   -4.228E+01   -4.219E+01   -4.209E+01
    -4.200E+01   -4.190E+01   -4.180E+01   -4.171E+01   -4.161E+01   -4.152E+01   -4.143E+01   -4.133E+01   -4.124E+01   -4.115E+01
    -4.105E+01   -4.096E+01   -4.087E+01   -4.078E+01   -4.069E+01   -4.059E+01   -4.050E+01   -4.041E+01   -4.032E+01   -4.023E+01
    -4.015E+01   -4.006E+01   -3.997E+01   -3.988E+01   -3.979E+01   -3.971E+01   -3.962E+01   -3.953E+01   -3.945E+01   -3.936E+01
    -3.928E+01   -3.920E+01   -3.911E+01   -3.903E+01   -3.895E+01   -3.886E+01   -3.878E+01   -3.870E+01   -3.862E+01   -3.854E+01
    -3.846E+01   -3.838E+01   -3.830E+01   -3.822E+01   -3.815E+01   -3.807E+01   -3.799E+01   -3.792E+01   -3.784E+01   -3.776E+01
    -3.769E+01   -3.762E+01   -3.754E+01   -3.747E+01   -3.740E+01   -3.733E+01   -3.725E+01   -3.718E+01   -3.711E+01   -3.704E+01
    -3.698E+01   -3.691E+01   -3.684E+01   -3.677E+01   -3.671E+01   -3.664E+01   -3.658E+01   -3.651E+01   -3.645E+01   -3.638E+01
    -3.632E+01   -3.626E+01   -3.620E+01   -3.614E+01   -3.608E+01   -3.602E+01   -3.596E+01   -3.590E+01   -3.585E+01   -3.579E+01
    -3.573E+01   -3.568E+01   -3.563E+01   -3.557E+01   -3.552E+01   -3.547E+01   -3.542E+01   -3.537E+01   -3.532E+01   -3.527E+01
    -3.522E+01   -3.517E+01   -3.513E+01   -3.508E+01   -3.504E+01   -3.499E+01   -3.495E+01   -3.491E+01   -3.486E+01   -3.482E+01
    -3.478E+01   -3.474E+01   -3.471E+01   -3.467E+01   -3.463E+01   -3.460E+01   -3.456E+01   -3.453E+01   -3.449E+01   -3.446E+01
    -3.443E+01   -3.440E+01   -3.437E+01   -3.434E+01   -3.431E+01   -3.428E+01   -3.426E+01   -3.423E+01   -3.421E+01   -3.418E+01
    -3.416E+01   -3.414E+01   -3.412E+01   -3.409E+01   -3.407E+01   -3.406E+01   -3.404E+01   -3.402E+01   -3.400E+01   -3.399E+01
    -3.397E+01   -3.396E+01   -3.394E+01   -3.393E+01   -3.392E+01   -3.391E+01   -3.390E+01   -3.389E+01   -3.388E+01   -3.387E+01
    -3.387E+01   -3.386E+01   -3.385E+01   -3.385E+01   -3.385E+01   -3.384E+01   -3.384E+01   -3.384E+01   -3.384E+01   -3.384E+01
    -3.384E+01   -3.384E+01   -3.384E+01   -3.384E+01   -3.385E+01   -3.385E+01   -3.386E+01   -3.386E+01   -3.387E+01   -3.388E+01
    -3.389E+01   -3.390E+01   -3.391E+01   -3.392E+01   -3.393E+01   -3.394E+01   -3.395E+01   -3.397E+01   -3.398E+01   -3.399E+01
    -3.401E+01   -3.403E+01   -3.404E+01   -3.406E+01   -3.408E+01   -3.410E+01   -3.412E+01   -3.414E+01   -3.416E+01   -3.419E+01
    -3.421E+01   -3.423E+01   -3.426E+01   -3.428E+01   -3.431E+01   -3.433E+01   -3.436E+01   -3.439E+01   -3.442E+01   -3.445E+01
    -3.448E+01   -3.451E+01   -3.454E+01   -3.457E+01   -3.460E+01   -3.463E+01   -3.467E+01   -3.470E+01   -3.474E+01   -3.477E+01
    -3.481E+01   -3.484E+01   -3.488E+01   -3.492E+01   -3.496E+01   -3.500E+01   -3.504E+01   -3.508E+01   -3.512E+01   -3.516E+01
    -3.520E+01   -3.524E+01   -3.528E+01   -3.533E+01   -3.537E+01   -3.541E+01   -3.546E+01   -3.550E+01   -3.555E+01   -3.559E+01
    -3.564E+01   -3.569E+01   -3.573E+01   -3.578E+01   -3.583E+01   -3.588E+01   -3.593E+01   -3.597E+01   -3.602E+01   -3.607E+01
    -3.612E+01   -3.617E+01   -3.622E+01   -3.627E+01   -3.632E+01   -3.637E+01   -3.643E+01   -3.648E+01   -3.653E+01   -3.658E+01
    -3.663E+01   -3.669E+01   -3.674E+01   -3.679E+01   -3.684E+01   -3.690E+01   -3.695E+01   -3.700E+01   -3.706E+01   -3.711E+01
    -3.717E+01   -3.722E+01   -3.727E+01   -3.733E+01   -3.738E+01   -3.744E+01   -3.749E+01   -3.755E+01   -3.760E+01   -3.766E+01
    -3.771E+01   -3.777E+01   -3.782E+01   -3.788E+01   -3.794E+01   -3.799E+01   -3.805E+01   -3.810E+01   -3.816E+01   -3.821E+01
    -3.827E+01   -3.833E+01   -3.838E+01   -3.844E+01   -3.849E+01   -3.855E+01   -3.861E+01   -3.866E+01   -3.872E+01   -3.877E+01
    -3.883E+01   -3.889E+01   -3.894E+01   -3.900E+01   -3.906E+01   -3.911E+01   -3.917E+01   -3.922E+01   -3.928E+01   -3.934E+01
    -3.939E+01   -3.945E+01   -3.951E+01   -3.956E+01   -3.962E+01   -3.968E+01   -3.973E+01   -3.979E+01   -3.985E+01   -3.990E+01
    -3.996E+01   -4.002E+01   -4.007E+01   -4.013E+01   -4.019E+01   -4.024E+01   -4.030E+01   -4.036E+01   -4.041E+01   -4.047E+01
    -4.053E+01   -4.058E+01   -4.064E+01   -4.070E+01   -4.076E+01   -4.081E+01   -4.087E+01   -4.093E+01   -4.098E+01   -4.104E+01
    -4.110E+01   -4.116E+01   -4.121E+01   -4.127E+01   -4.133E+01   -4.139E+01   -4.145E+01   -4.150E+01   -4.156E+01   -4.162E+01
    -4.168E+01   -4.174E+01   -4.179E+01   -4.185E+01   -4.191E+01   -4.197E+01   -4.203E+01   -4.209E+01   -4.214E+01   -4.220E+01
    -4.226E+01   -4.232E+01   -4.238E+01   -4.244E+01   -4.250E+01   -4.256E+01   -4.261E+01   -4.267E+01   -4.273E+01   -4.279E+01
    -4.285E+01   -4.291E+01   -4.297E+01   -4.303E+01   -4.309E+01   -4.315E+01   -4.321E+01   -4.327E+01   -4.333E+01   -4.339E+01
    -4.345E+01   -4.351E+01   -4.356E+01   -4.362E+01   -4.368E+01   -4.374E+01   -4.380E+01   -4.386E+01   -4.392E+01   -4.398E+01
    -4.404E+01   -4.410E+01   -4.416E+01   -4.422E+01   -4.428E+01   -4.434E+01   -4.440E+01   -4.446E+01   -4.452E+01   -4.458E+01
    -4.464E+01   -4.470E+01   -4.476E+01   -4.482E+01   -4.488E+01   -4.494E+01   -4.500E+01   -4.507E+01   -4.513E+01   -4.519E+01
    -4.525E+01   -4.531E+01   -4.537E+01   -4.543E+01   -4.549E+01   -4.555E+01   -4.561E+01   -4.567E+01   -4.573E+01   -4.579E+01
    -4.585E+01   -4.591E+01   -4.597E+01   -4.603E+01   -4.609E+01   -4.615E+01   -4.621E+01   -4.627E+01   -4.633E+01   -4.639E+01
 Mac      Conc. = 2.99E-04
  -6.95546E+01 -7.01413E+01 -7.06209E+01 -7.09640E+01 -7.12014E+01 -7.15577E+01 -7.22290E+01 -7.35028E+01 -7.49878E+01 -7.67606E+01
  -7.80858E+01 -7.90924E+01 -7.95082E+01 -7.97532E+01 -8.02469E+01 -8.05632E+01 -8.14358E+01 -8.23778E+01 -8.22584E+01 -7.99349E+01
  -7.53225E+01 -7.05787E+01 -6.66637E+01 -6.29504E+01 -6.03467E+01 -5.86075E+01 -5.73213E+01 -5.59442E+01 -5.42257E+01 -5.22439E+01
  -5.00620E+01 -4.82014E+01 -4.67816E+01 -4.58280E+01 -4.52335E+01 -4.49132E+01 -4.48291E+01 -4.45301E+01 -4.35156E+01 -4.15557E+01
  -3.93148E+01 -3.77002E+01 -3.71706E+01 -3.71065E+01 -3.65667E+01 -3.55899E+01 -3.41991E+01 -3.33548E+01 -3.32959E+01 -3.39112E+01
  -3.49993E+01 -3.62438E+01 -3.76171E+01 -3.86898E+01 -3.93510E+01 -3.96773E+01 -3.98096E+01 -3.95834E+01 -3.88308E+01 -3.73923E+01
  -3.57612E+01 -3.43675E+01 -3.31781E+01 -3.20216E+01 -3.18909E+01 -3.21637E+01 -3.30705E+01 -3.40465E+01 -3.46255E+01 -3.47557E+01
  -3.46320E+01 -3.39791E+01 -3.23172E+01 -2.97764E+01 -2.74438E+01 -2.58843E+01 -2.51219E+01 -2.50177E+01 -2.54297E+01 -2.61338E+01
  -2.68963E+01 -2.74013E+01 -2.78373E+01 -2.78955E+01 -2.79159E+01 -2.71633E+01 -2.63582E+01 -2.53511E+01 -2.44024E+01 -2.35255E+01
  -2.29135E+01 -2.22799E+01 -2.19626E+01 -2.16127E+01 -2.17455E+01 -2.22265E+01 -2.33452E+01 -2.52079E+01 -2.75075E+01 -3.00073E+01
  -3.25425E+01 -3.46885E+01 -3.66182E+01 -3.89676E+01 -4.23206E+01 -4.63854E+01 -5.14274E+01 -5.74344E+01 -6.35592E+01 -6.88260E+01
