 LCModel (Version 6.3-1N) Copyright: S.W. Provencher.          Ref.: Magn. Reson. Med. 30:672-679 (1993).                
 Slice_N1@13_16  28-Feb-2025 11:38:50
 27 lines in following concentration table = NCONC+1
    Conc.  %SD /Cr+PCr  Metabolite                                         
 2.14E-04   6% 2.0E-04 Mac                                                 
    3.315  41%   3.090 Cr                                                  
    5.266  25%   4.910 PCr                                                 
    6.055  16%   5.645 Ins                                                 
    9.641   8%   8.989 NAA                                                 
    6.069  15%   5.659 Tau                                                 
    0.220 488%   0.205 PCho                                                
    1.685  60%   1.571 GPC                                                 
    7.963  14%   7.425 Glu                                                 
    2.812  29%   2.622 Gln                                                 
    0.000 999%   0.000 Ala                                                 
    3.198  42%   2.981 Asc                                                 
    2.615  41%   2.438 Asp                                                 
    0.727  78%   0.677 GABA                                                
    0.303 250%   0.282 Glc                                                 
    1.456  34%   1.358 GSH                                                 
    3.500  21%   3.263 Lac                                                 
    1.488  41%   1.387 NAAG                                                
    1.474  82%   1.374 PE                                                  
    1.904  17%   1.775 GPC+PCho                                            
   11.129   8%  10.376 NAA+NAAG                                            
   10.775  13%  10.046 Glu+Gln                                             
    8.580   9%   8.000 Cr+PCr                                              
   11.129   8%  10.376 NAA+NAAG                                            
    8.580   9%   8.000 Cr+PCr                                              
   10.775  13%  10.046 Glu+Gln                                             
   6 lines in following misc. output table
  FWHM = 0.024 ppm    S/N =   3                                            
  Data shift = 0.033 ppm                                                   
  Ph:-151 deg       0.0 deg/ppm                                            
  alphaB,S = 2.0E-01,   1.3E+01                                            
   19 spline knots.   Ns = 5(1)                                            
  ( 4) 2 infls.   ( 3) 1 extrs.                                            
  480 points on ppm-axis = NY
      4.100000     4.091866     4.083733     4.075600     4.067466     4.059333     4.051199     4.043066     4.034933     4.026799
      4.018666     4.010532     4.002399     3.994265     3.986132     3.977998     3.969864     3.961731     3.953597     3.945463
      3.937330     3.929196     3.921062     3.912929     3.904795     3.896662     3.888528     3.880394     3.872261     3.864127
      3.855993     3.847860     3.839726     3.831592     3.823459     3.815325     3.807191     3.799058     3.790924     3.782790
      3.774657     3.766523     3.758389     3.750256     3.742122     3.733989     3.725855     3.717721     3.709588     3.701454
      3.693320     3.685187     3.677053     3.668919     3.660786     3.652652     3.644518     3.636385     3.628251     3.620117
      3.611984     3.603850     3.595716     3.587583     3.579449     3.571316     3.563182     3.555048     3.546915     3.538781
      3.530647     3.522514     3.514380     3.506246     3.498113     3.489979     3.481845     3.473712     3.465578     3.457444
      3.449311     3.441177     3.433043     3.424910     3.416776     3.408643     3.400509     3.392375     3.384242     3.376108
      3.367974     3.359841     3.351707     3.343573     3.335440     3.327306     3.319172     3.311039     3.302905     3.294771
      3.286638     3.278504     3.270370     3.262237     3.254103     3.245970     3.237836     3.229702     3.221569     3.213435
      3.205301     3.197168     3.189034     3.180900     3.172767     3.164633     3.156499     3.148366     3.140232     3.132098
      3.123965     3.115831     3.107697     3.099564     3.091430     3.083297     3.075163     3.067029     3.058896     3.050762
      3.042628     3.034495     3.026361     3.018227     3.010094     3.001960     2.993826     2.985693     2.977559     2.969425
      2.961292     2.953158     2.945024     2.936891     2.928757     2.920624     2.912490     2.904356     2.896223     2.888089
      2.879955     2.871822     2.863688     2.855554     2.847421     2.839287     2.831153     2.823020     2.814886     2.806752
      2.798619     2.790485     2.782351     2.774218     2.766084     2.757951     2.749817     2.741683     2.733550     2.725416
      2.717282     2.709149     2.701015     2.692881     2.684748     2.676614     2.668480     2.660347     2.652213     2.644079
      2.635946     2.627812     2.619678     2.611545     2.603411     2.595278     2.587144     2.579010     2.570877     2.562743
      2.554609     2.546476     2.538342     2.530208     2.522075     2.513941     2.505807     2.497674     2.489540     2.481406
      2.473273     2.465139     2.457006     2.448872     2.440738     2.432605     2.424471     2.416337     2.408204     2.400070
      2.391936     2.383803     2.375669     2.367535     2.359402     2.351268     2.343134     2.335001     2.326867     2.318733
      2.310600     2.302466     2.294333     2.286199     2.278065     2.269932     2.261798     2.253664     2.245531     2.237397
      2.229263     2.221130     2.212996     2.204862     2.196729     2.188595     2.180461     2.172328     2.164194     2.156060
      2.147927     2.139793     2.131660     2.123526     2.115392     2.107259     2.099125     2.090991     2.082858     2.074724
      2.066590     2.058457     2.050323     2.042189     2.034056     2.025922     2.017788     2.009655     2.001521     1.993387
      1.985254     1.977120     1.968987     1.960853     1.952719     1.944586     1.936452     1.928318     1.920185     1.912051
      1.903917     1.895784     1.887650     1.879516     1.871383     1.863249     1.855115     1.846982     1.838848     1.830714
      1.822581     1.814447     1.806314     1.798180     1.790046     1.781913     1.773779     1.765645     1.757512     1.749378
      1.741244     1.733111     1.724977     1.716843     1.708710     1.700576     1.692442     1.684309     1.676175     1.668041
      1.659908     1.651774     1.643641     1.635507     1.627373     1.619240     1.611106     1.602972     1.594839     1.586705
      1.578571     1.570438     1.562304     1.554170     1.546037     1.537903     1.529769     1.521636     1.513502     1.505368
      1.497235     1.489101     1.480968     1.472834     1.464700     1.456567     1.448433     1.440299     1.432166     1.424032
      1.415898     1.407765     1.399631     1.391497     1.383364     1.375230     1.367096     1.358963     1.350829     1.342695
      1.334562     1.326428     1.318295     1.310161     1.302027     1.293894     1.285760     1.277626     1.269493     1.261359
      1.253225     1.245092     1.236958     1.228824     1.220691     1.212557     1.204423     1.196290     1.188156     1.180022
      1.171889     1.163755     1.155622     1.147488     1.139354     1.131221     1.123087     1.114953     1.106820     1.098686
      1.090552     1.082419     1.074285     1.066151     1.058018     1.049884     1.041750     1.033617     1.025483     1.017349
      1.009216     1.001082     0.992949     0.984815     0.976681     0.968548     0.960414     0.952280     0.944147     0.936013
      0.927879     0.919746     0.911612     0.903478     0.895345     0.887211     0.879077     0.870944     0.862810     0.854676
      0.846543     0.838409     0.830276     0.822142     0.814008     0.805875     0.797741     0.789607     0.781474     0.773340
      0.765206     0.757073     0.748939     0.740805     0.732672     0.724538     0.716404     0.708271     0.700137     0.692003
      0.683870     0.675736     0.667603     0.659469     0.651335     0.643202     0.635068     0.626934     0.618801     0.610667
      0.602533     0.594400     0.586266     0.578132     0.569999     0.561865     0.553731     0.545598     0.537464     0.529330
      0.521197     0.513063     0.504930     0.496796     0.488662     0.480529     0.472395     0.464261     0.456128     0.447994
      0.439861     0.431727     0.423593     0.415460     0.407326     0.399192     0.391059     0.382925     0.374792     0.366658
      0.358524     0.350391     0.342257     0.334124     0.325990     0.317856     0.309723     0.301589     0.293455     0.285322
      0.277188     0.269055     0.260921     0.252787     0.244654     0.236520     0.228386     0.220253     0.212119     0.203986
 NY phased data points follow
  -5.25082E+00  2.45868E+00 -5.91595E+00 -1.36499E+01  4.26512E+00 -3.39316E+00  3.30494E+00  3.07585E+00  7.35626E+00  1.23455E+01
  -4.23619E+00 -7.19647E+00 -1.41302E+01 -1.47928E+01 -1.76709E+01 -1.35598E+01 -1.61252E+01 -3.82642E+01 -3.66387E+01 -6.65624E+01
  -6.31180E+01 -2.79003E+01 -1.78595E+01  9.02110E+00  2.51166E+01  4.46425E+01  5.27237E+01  5.34869E+01  6.18897E+01  4.79308E+01
   5.35760E+01  6.47654E+01  4.95245E+01  3.80154E+01  4.47702E+01  3.90814E+01  3.81175E+01  4.29106E+01  1.75230E+01 -8.21024E+00
  -1.64767E+01 -1.83761E+01 -1.76508E+01 -6.55899E+00  1.43575E+01  3.37335E+01  6.14200E+01  6.79524E+01  7.01003E+01  6.89751E+01
   6.33780E+01  7.51581E+01  6.57266E+01  5.60552E+01  2.86533E+01  1.46852E+01  3.53788E+01  2.42631E+01  2.43422E+01  2.45631E+01
   2.22618E+01  2.82658E+01  4.65568E+01  5.91325E+01  5.61808E+01  7.37427E+01  6.65173E+01  4.41355E+01  1.84802E+01  6.29982E+00
   1.96172E+01  2.47749E+01  3.64046E+01  4.53059E+01  7.04010E+01  8.38004E+01  7.66382E+01  9.07663E+01  8.55212E+01  7.20081E+01
   8.16796E+01  7.17041E+01  5.13391E+01  4.27906E+01  3.00339E+01  3.37240E+01  3.97997E+01  4.70240E+01  7.65238E+01  7.01771E+01
   7.30880E+01  1.03695E+02  9.67512E+01  9.02642E+01  9.56433E+01  9.85134E+01  1.02038E+02  1.02061E+02  9.02688E+01  9.18038E+01
   9.33886E+01  7.44794E+01  7.57206E+01  4.66313E+01  3.10786E+01  3.74879E+01  2.22716E+01  2.10256E+01  4.09329E+00 -4.80872E+01
  -1.03515E+02 -9.40418E+01 -6.89338E+01 -4.43215E+01 -1.98934E+01 -1.84048E+01  1.59571E+01  2.31576E+01  1.00501E+01  2.09951E+01
   3.02046E+01  3.59812E+01  3.98221E+01  4.27458E+01  7.15746E+01  7.27277E+01  6.27037E+01  9.79088E+01  1.06085E+02  1.44813E+02
   1.69771E+02  1.16440E+02  4.33638E+01 -3.80851E+01 -6.98934E+01 -6.43479E+01 -5.84475E+01 -4.68844E+01 -2.34474E+01 -1.92225E+01
  -3.14958E+01 -2.99956E+01 -3.15012E+01 -3.05984E+01 -1.62002E+01 -2.53720E+01 -2.62626E+01 -6.75365E+00 -1.30981E+01 -3.01259E+00
  -8.99530E+00 -7.97603E+00 -1.41783E+00 -1.67058E+01  4.58579E+00  4.52957E+00  4.15410E+00  1.05411E+01  5.86370E+00  1.42627E+01
   1.56697E+01  1.59996E+01  1.50214E+01  1.37944E+01  2.05856E+01  1.24865E+01  7.38766E+00  8.62086E+00  9.84263E+00  2.50823E+01
   2.02995E+01  4.99986E+01  6.63503E+01  3.65932E+01  3.48468E+01  3.93026E+01  4.51617E+01  4.21923E+01  4.08228E+01  2.04592E+01
   1.99135E+01  2.28236E+01  1.79369E+00 -7.32558E+00 -8.55559E+00 -5.48727E+00 -8.02886E+00  7.44668E+00 -5.88283E+00  1.23259E+01
   1.97703E+01  1.07186E+01  2.93736E+01  4.94718E+00  2.24403E+01  2.50126E+01  1.59800E+01  2.94918E+01  4.22391E+01  2.89436E+01
   2.02500E+01  4.39589E+01  3.78745E+01  3.98181E+01  2.21568E+01  2.34650E+01  1.77634E+01 -2.27234E+00 -5.03573E+00 -1.09620E+01
  -3.54440E+00 -5.48362E+00  1.10358E+01 -5.97130E+00  1.55616E+01  6.34012E+01  5.99162E+01  7.06121E+01  6.88874E+01  5.01606E+01
   2.90342E+01  1.78573E+01  2.74800E+01  3.28120E+01  2.17804E+01  2.57058E+01  2.68129E+01  3.59854E+01  3.49898E+01  2.40280E+01
   3.10275E+01  1.52124E+01  3.11929E+01  1.85728E+01 -8.40885E+00 -9.76093E-01 -1.97310E+01 -2.09935E+01 -1.05739E+01 -1.71411E+01
  -1.42829E+01 -9.27642E+00 -4.24744E+00  1.49643E+01  1.46742E+01  3.08005E+01  3.53938E+01  1.42639E+01  9.04136E+00 -1.48198E+00
   8.42022E+00  2.64413E+00 -3.07068E+00  1.99452E-02 -2.61160E+01 -7.57947E+01 -5.49330E+01  4.62930E+01  1.27469E+02  1.86738E+02
   1.90052E+02  1.81584E+02  1.62004E+02  1.40347E+02  1.31522E+02  1.07469E+02  1.20445E+02  9.48412E+01  8.49672E+01  1.05120E+02
   9.00898E+01  9.29500E+01  9.39370E+01  1.10240E+02  1.07588E+02  8.86127E+01  1.02355E+02  1.03800E+02  1.06288E+02  1.00547E+02
   9.45143E+01  9.83207E+01  8.67837E+01  8.97767E+01  8.68047E+01  7.46735E+01  7.12204E+01  7.11040E+01  7.69318E+01  7.11755E+01
   6.69210E+01  6.58722E+01  5.88645E+01  5.21855E+01  4.29697E+01  4.09418E+01  4.06687E+01  3.30055E+01  3.96978E+01  3.97757E+01
   4.30519E+01  4.73159E+01  3.21219E+01  3.97149E+01  3.69411E+01  4.78385E+01  6.62826E+01  5.59636E+01  7.41638E+01  7.88833E+01
   7.31589E+01  8.12122E+01  7.77432E+01  7.88072E+01  7.59520E+01  7.63861E+01  9.09056E+01  8.27798E+01  8.17934E+01  8.74954E+01
   8.13561E+01  9.14953E+01  8.60565E+01  8.90615E+01  8.17553E+01  8.28487E+01  1.03142E+02  8.32481E+01  9.28140E+01  9.36229E+01
   8.38028E+01  8.06124E+01  6.61333E+01  9.18924E+01  9.27298E+01  8.36010E+01  1.07989E+02  1.17213E+02  1.16199E+02  1.23756E+02
   1.26192E+02  1.08122E+02  1.03423E+02  1.10146E+02  9.44383E+01  8.99171E+01  9.04199E+01  8.28992E+01  8.55984E+01  7.74808E+01
   7.86616E+01  7.12602E+01  4.99052E+01  5.30107E+01  4.54266E+01  2.54855E+01  1.66863E+01  1.21775E+01  4.76870E+00 -1.63315E+00
  -1.04084E+01 -1.76819E+01 -1.73732E+01 -6.50270E+00  1.17869E+01  9.97204E+00  1.67440E+01  2.68654E+01  3.52562E+01  5.55024E+01
   4.84836E+01  4.62733E+01  6.19010E+01  6.73159E+01  7.17125E+01  7.42063E+01  6.37149E+01  6.63924E+01  8.47486E+01  8.57129E+01
   9.08388E+01  9.88094E+01  1.08067E+02  1.12791E+02  1.11949E+02  1.14111E+02  1.22229E+02  1.50418E+02  1.33079E+02  1.09680E+02
   1.24892E+02  1.17660E+02  9.44808E+01  7.72485E+01  7.06730E+01  5.29314E+01  5.36988E+01  5.26403E+01  3.83352E+01  3.19045E+01
   1.64331E+01  2.64329E+01  3.50293E+00 -1.24913E+01  1.83314E+00 -1.08502E+01 -1.09068E+01 -2.13741E+01 -1.20370E+01 -4.11899E+00
  -1.14709E+01  2.58838E+00  1.15058E+00 -1.47544E+00 -5.21038E-01  5.35860E+00  6.18966E+00  8.30810E-01  4.00119E+00 -1.38530E+00
   3.22969E+00  8.17787E+00 -6.47762E+00  6.34024E+00  9.39081E+00 -1.41492E+01 -3.77214E+00 -1.24342E+00 -1.83685E+00  4.46696E-01
  -1.82734E+00 -3.25662E-02 -2.22816E+00 -7.42530E-01 -3.96191E+00 -1.24776E+00 -1.54573E+01 -9.73872E+00 -5.30518E-01  5.77549E-01
   2.20368E+01  1.49545E+01  4.78899E+00 -1.26301E+00  7.29635E+00  7.03178E+00  9.76956E+00  1.47672E+01  8.61644E+00  1.48134E+01
  -2.99354E+00  2.96362E+00  9.68806E+00  8.36103E+00  7.85103E+00  1.25009E+00  9.39324E+00  1.11635E+01  1.16318E+01  1.40232E+01
   2.63009E+01  1.35781E+01  1.19441E+01  1.07174E+01  3.32337E+00  2.02277E+01  8.74098E+00  1.71777E-01  6.77593E+00  1.00296E+01
   6.81476E+00  1.60095E+01  1.06639E+01  9.62579E+00  2.63332E+01  1.38561E+01  8.26021E+00  2.36471E+00  2.88188E+00  7.03617E+00
 NY points of the fit to the data follow
  -7.77605E+00 -1.09741E+01 -1.44855E+01 -1.44520E+01 -6.83072E+00  5.64891E+00  1.51669E+01  1.60715E+01  9.78193E+00  1.05341E+00
  -6.43795E+00 -1.01184E+01 -1.11084E+01 -1.14438E+01 -1.16762E+01 -1.13747E+01 -1.40766E+01 -2.25747E+01 -3.88516E+01 -5.44951E+01
  -5.35113E+01 -3.58249E+01 -1.03992E+01  1.63256E+01  3.82211E+01  5.13753E+01  5.63391E+01  6.05548E+01  6.24718E+01  6.19785E+01
   6.13421E+01  5.97573E+01  5.73279E+01  5.46104E+01  5.19221E+01  4.97786E+01  4.61580E+01  3.80640E+01  2.26773E+01  2.28649E+00
  -1.41571E+01 -1.94167E+01 -1.32863E+01  9.50149E-02  1.74268E+01  3.51556E+01  4.87471E+01  5.78442E+01  6.25527E+01  6.36177E+01
   6.17369E+01  5.66629E+01  4.77898E+01  3.71816E+01  2.90826E+01  2.57959E+01  2.55388E+01  2.25560E+01  1.79765E+01  1.77201E+01
   2.16241E+01  2.80064E+01  3.77971E+01  5.07904E+01  6.22589E+01  6.80296E+01  6.57227E+01  5.18744E+01  3.21741E+01  1.93773E+01
   1.72931E+01  2.19212E+01  3.04941E+01  4.25155E+01  5.50893E+01  6.47293E+01  7.21260E+01  7.69939E+01  7.96769E+01  7.83553E+01
   7.17986E+01  5.85205E+01  4.03720E+01  2.40644E+01  1.54823E+01  1.76884E+01  2.89354E+01  4.32757E+01  5.65532E+01  6.49379E+01
   7.08152E+01  7.44654E+01  7.76253E+01  8.08160E+01  8.41682E+01  8.73745E+01  9.01991E+01  9.20381E+01  9.32959E+01  9.51657E+01
   9.70023E+01  9.28947E+01  8.23302E+01  6.59076E+01  4.94659E+01  4.07077E+01  4.08459E+01  3.59866E+01  5.08570E+00 -4.53032E+01
  -8.24743E+01 -8.91580E+01 -6.94455E+01 -4.21027E+01 -1.75897E+01 -2.98394E+00  4.29571E+00  1.07608E+01  1.69270E+01  2.29218E+01
   2.90423E+01  3.55402E+01  4.29258E+01  5.16114E+01  6.14076E+01  7.10044E+01  7.93134E+01  9.41348E+01  1.19221E+02  1.52394E+02
   1.66087E+02  1.26124E+02  4.59306E+01 -2.70356E+01 -6.29342E+01 -6.55081E+01 -5.19563E+01 -3.45542E+01 -2.72061E+01 -2.46328E+01
  -2.30162E+01 -2.25606E+01 -2.26893E+01 -2.26434E+01 -2.20992E+01 -2.06436E+01 -1.82202E+01 -1.52704E+01 -1.25321E+01 -1.02515E+01
  -8.47936E+00 -6.91794E+00 -4.99214E+00 -2.30395E+00  1.01255E+00  3.95971E+00  5.36936E+00  5.22368E+00  5.19936E+00  6.94381E+00
   1.02207E+01  1.25508E+01  1.20012E+01  9.60794E+00  7.67018E+00  7.13232E+00  6.82105E+00  6.04370E+00  6.49909E+00  1.12845E+01
   2.19676E+01  3.44782E+01  4.08510E+01  3.86329E+01  3.46005E+01  3.57594E+01  4.18282E+01  4.52414E+01  4.04461E+01  2.91251E+01
   1.68411E+01  7.89485E+00  3.09922E+00  1.56523E+00  1.67674E+00  1.86375E+00  2.36088E+00  3.09519E+00  3.98612E+00  4.75659E+00
   5.74609E+00  6.96091E+00  1.05916E+01  1.78967E+01  2.44644E+01  2.78353E+01  3.02548E+01  3.35488E+01  3.60844E+01  3.56494E+01
   3.46370E+01  3.49329E+01  3.62710E+01  3.66077E+01  3.39001E+01  2.92884E+01  2.32987E+01  1.67105E+01  1.04736E+01  4.85532E+00
  -6.60102E-01 -2.91892E+00  1.01026E+00  1.15998E+01  2.97260E+01  4.97517E+01  6.52998E+01  7.33740E+01  7.26606E+01  6.59609E+01
   5.70306E+01  5.19726E+01  5.08431E+01  5.13878E+01  5.23945E+01  5.07446E+01  4.61977E+01  3.93960E+01  3.08557E+01  2.17799E+01
   1.25181E+01  3.49554E+00 -4.59570E+00 -1.18340E+01 -1.76763E+01 -2.12139E+01 -2.27206E+01 -2.19953E+01 -1.91421E+01 -1.57908E+01
  -1.15108E+01 -6.01577E+00  5.89267E-01  7.57858E+00  1.30396E+01  1.63449E+01  1.64792E+01  1.43579E+01  1.12088E+01  5.82357E+00
   3.36363E-01 -1.98059E+00 -4.88825E+00 -1.49209E+01 -4.28166E+01 -6.95595E+01 -4.86141E+01  2.60470E+01  1.09299E+02  1.58913E+02
   1.69749E+02  1.56881E+02  1.34825E+02  1.22408E+02  1.17384E+02  1.13283E+02  1.09311E+02  1.05395E+02  1.01993E+02  9.95902E+01
   9.80809E+01  9.75488E+01  9.76358E+01  9.79352E+01  9.82174E+01  9.83276E+01  9.83683E+01  9.79869E+01  9.72165E+01  9.60288E+01
   9.44908E+01  9.29633E+01  9.13549E+01  8.96968E+01  8.80094E+01  8.62797E+01  8.44452E+01  8.23436E+01  7.98636E+01  7.70532E+01
   7.39714E+01  7.07579E+01  6.77251E+01  6.54794E+01  6.45066E+01  6.48417E+01  6.62030E+01  6.80665E+01  7.00688E+01  7.21599E+01
   7.43342E+01  7.65064E+01  7.85604E+01  8.04037E+01  8.20517E+01  8.36579E+01  8.55071E+01  8.75340E+01  8.95008E+01  9.12144E+01
   9.26576E+01  9.39353E+01  9.51395E+01  9.61539E+01  9.68138E+01  9.69886E+01  9.65714E+01  9.55088E+01  9.40754E+01  9.23633E+01
   9.02614E+01  8.78274E+01  8.52404E+01  8.23362E+01  7.86027E+01  7.34885E+01  6.70017E+01  5.97457E+01  5.26692E+01  4.64662E+01
   4.17118E+01  3.89363E+01  3.84794E+01  4.04211E+01  4.42921E+01  4.90709E+01  5.38209E+01  5.89187E+01  6.51699E+01  7.24446E+01
   7.88406E+01  7.79235E+01  6.77526E+01  5.12742E+01  3.38598E+01  2.29516E+01  2.20854E+01  2.86240E+01  3.61509E+01  4.08256E+01
   4.26935E+01  4.08321E+01  3.79091E+01  3.47731E+01  3.22669E+01  3.08236E+01  3.06042E+01  3.14863E+01  3.32043E+01  3.55317E+01
   3.82409E+01  4.11477E+01  4.39947E+01  4.66525E+01  4.90879E+01  5.13036E+01  5.34035E+01  5.54764E+01  5.75669E+01  5.96216E+01
   6.17046E+01  6.38662E+01  6.61752E+01  6.87975E+01  7.18514E+01  7.52920E+01  7.91811E+01  8.35784E+01  8.83221E+01  9.33154E+01
   9.88074E+01  1.04801E+02  1.10910E+02  1.16495E+02  1.20665E+02  1.22160E+02  1.19989E+02  1.14056E+02  1.05406E+02  9.58538E+01
   8.70370E+01  7.97617E+01  7.40613E+01  6.92788E+01  6.43779E+01  5.85004E+01  5.16276E+01  4.41460E+01  3.66504E+01  3.00196E+01
   2.47011E+01  2.06844E+01  1.76691E+01  1.55708E+01  1.41784E+01  1.31508E+01  1.22766E+01  1.13692E+01  1.04483E+01  9.64697E+00
   9.08033E+00  8.72225E+00  8.45527E+00  8.29892E+00  8.21050E+00  8.06043E+00  7.72045E+00  7.38954E+00  7.31655E+00  7.34422E+00
   7.29817E+00  7.15876E+00  7.04815E+00  6.91733E+00  6.73619E+00  6.56320E+00  6.49271E+00  6.61557E+00  6.77730E+00  6.80345E+00
   6.63150E+00  6.33895E+00  6.03926E+00  5.89770E+00  5.92958E+00  6.01974E+00  6.13872E+00  6.24362E+00  6.31548E+00  6.36489E+00
   6.41017E+00  6.35821E+00  6.11916E+00  5.79943E+00  5.56434E+00  5.54773E+00  5.64142E+00  5.76427E+00  5.80682E+00  5.69492E+00
   5.49947E+00  5.44449E+00  5.53880E+00  5.68022E+00  5.79650E+00  5.87889E+00  5.89464E+00  5.92579E+00  5.97363E+00  5.95388E+00
   5.82655E+00  5.62719E+00  5.40845E+00  5.28181E+00  5.31647E+00  5.60180E+00  6.02628E+00  6.38804E+00  6.43844E+00  6.20408E+00
   5.86099E+00  5.61630E+00  5.59446E+00  5.66727E+00  5.74675E+00  5.81235E+00  5.79994E+00  5.66870E+00  5.59707E+00  5.70153E+00
 NY background values follow
     2.343E+01    2.361E+01    2.378E+01    2.396E+01    2.413E+01    2.431E+01    2.448E+01    2.466E+01    2.484E+01    2.501E+01
     2.519E+01    2.536E+01    2.554E+01    2.572E+01    2.589E+01    2.607E+01    2.625E+01    2.642E+01    2.660E+01    2.678E+01
     2.695E+01    2.713E+01    2.731E+01    2.748E+01    2.766E+01    2.783E+01    2.801E+01    2.819E+01    2.836E+01    2.854E+01
     2.871E+01    2.889E+01    2.907E+01    2.924E+01    2.942E+01    2.959E+01    2.976E+01    2.994E+01    3.011E+01    3.028E+01
     3.045E+01    3.062E+01    3.079E+01    3.096E+01    3.112E+01    3.129E+01    3.145E+01    3.161E+01    3.177E+01    3.193E+01
     3.209E+01    3.224E+01    3.240E+01    3.255E+01    3.270E+01    3.284E+01    3.299E+01    3.313E+01    3.327E+01    3.340E+01
     3.353E+01    3.367E+01    3.379E+01    3.392E+01    3.404E+01    3.416E+01    3.428E+01    3.439E+01    3.450E+01    3.461E+01
     3.471E+01    3.481E+01    3.491E+01    3.501E+01    3.510E+01    3.519E+01    3.528E+01    3.537E+01    3.545E+01    3.553E+01
     3.561E+01    3.568E+01    3.575E+01    3.582E+01    3.588E+01    3.594E+01    3.600E+01    3.606E+01    3.611E+01    3.616E+01
     3.621E+01    3.626E+01    3.630E+01    3.634E+01    3.637E+01    3.641E+01    3.644E+01    3.647E+01    3.650E+01    3.652E+01
     3.654E+01    3.657E+01    3.659E+01    3.660E+01    3.662E+01    3.663E+01    3.665E+01    3.666E+01    3.667E+01    3.668E+01
     3.669E+01    3.670E+01    3.671E+01    3.671E+01    3.672E+01    3.672E+01    3.673E+01    3.673E+01    3.674E+01    3.674E+01
     3.675E+01    3.675E+01    3.676E+01    3.677E+01    3.677E+01    3.678E+01    3.678E+01    3.679E+01    3.679E+01    3.680E+01
     3.681E+01    3.681E+01    3.682E+01    3.682E+01    3.683E+01    3.684E+01    3.684E+01    3.685E+01    3.686E+01    3.687E+01
     3.687E+01    3.688E+01    3.689E+01    3.690E+01    3.690E+01    3.691E+01    3.692E+01    3.693E+01    3.693E+01    3.694E+01
     3.695E+01    3.696E+01    3.697E+01    3.697E+01    3.698E+01    3.699E+01    3.700E+01    3.701E+01    3.702E+01    3.703E+01
     3.704E+01    3.705E+01    3.706E+01    3.707E+01    3.708E+01    3.709E+01    3.710E+01    3.711E+01    3.712E+01    3.713E+01
     3.714E+01    3.715E+01    3.716E+01    3.717E+01    3.719E+01    3.720E+01    3.721E+01    3.723E+01    3.724E+01    3.725E+01
     3.727E+01    3.728E+01    3.730E+01    3.731E+01    3.733E+01    3.734E+01    3.736E+01    3.738E+01    3.739E+01    3.741E+01
     3.743E+01    3.745E+01    3.748E+01    3.750E+01    3.752E+01    3.755E+01    3.757E+01    3.760E+01    3.763E+01    3.766E+01
     3.769E+01    3.772E+01    3.776E+01    3.779E+01    3.783E+01    3.787E+01    3.791E+01    3.795E+01    3.800E+01    3.804E+01
     3.809E+01    3.814E+01    3.819E+01    3.825E+01    3.830E+01    3.836E+01    3.842E+01    3.848E+01    3.854E+01    3.860E+01
     3.867E+01    3.873E+01    3.880E+01    3.886E+01    3.893E+01    3.900E+01    3.906E+01    3.913E+01    3.920E+01    3.927E+01
     3.934E+01    3.941E+01    3.948E+01    3.955E+01    3.961E+01    3.968E+01    3.975E+01    3.982E+01    3.988E+01    3.995E+01
     4.001E+01    4.008E+01    4.014E+01    4.020E+01    4.027E+01    4.033E+01    4.039E+01    4.044E+01    4.050E+01    4.056E+01
     4.061E+01    4.067E+01    4.072E+01    4.077E+01    4.082E+01    4.087E+01    4.092E+01    4.097E+01    4.102E+01    4.106E+01
     4.110E+01    4.115E+01    4.119E+01    4.123E+01    4.127E+01    4.131E+01    4.134E+01    4.138E+01    4.141E+01    4.144E+01
     4.147E+01    4.150E+01    4.153E+01    4.156E+01    4.158E+01    4.161E+01    4.163E+01    4.166E+01    4.168E+01    4.170E+01
     4.172E+01    4.175E+01    4.177E+01    4.179E+01    4.181E+01    4.183E+01    4.185E+01    4.188E+01    4.190E+01    4.192E+01
     4.194E+01    4.197E+01    4.199E+01    4.202E+01    4.205E+01    4.208E+01    4.211E+01    4.214E+01    4.217E+01    4.220E+01
     4.224E+01    4.228E+01    4.232E+01    4.236E+01    4.240E+01    4.244E+01    4.248E+01    4.251E+01    4.255E+01    4.259E+01
     4.262E+01    4.266E+01    4.269E+01    4.271E+01    4.274E+01    4.276E+01    4.277E+01    4.279E+01    4.279E+01    4.279E+01
     4.279E+01    4.278E+01    4.277E+01    4.275E+01    4.272E+01    4.268E+01    4.264E+01    4.259E+01    4.253E+01    4.246E+01
     4.238E+01    4.229E+01    4.220E+01    4.209E+01    4.198E+01    4.186E+01    4.173E+01    4.159E+01    4.145E+01    4.129E+01
     4.113E+01    4.096E+01    4.079E+01    4.061E+01    4.042E+01    4.022E+01    4.002E+01    3.981E+01    3.959E+01    3.937E+01
     3.914E+01    3.891E+01    3.867E+01    3.843E+01    3.818E+01    3.793E+01    3.767E+01    3.740E+01    3.714E+01    3.686E+01
     3.659E+01    3.631E+01    3.602E+01    3.574E+01    3.544E+01    3.515E+01    3.485E+01    3.455E+01    3.425E+01    3.394E+01
     3.363E+01    3.332E+01    3.301E+01    3.269E+01    3.237E+01    3.205E+01    3.173E+01    3.141E+01    3.109E+01    3.076E+01
     3.044E+01    3.011E+01    2.979E+01    2.946E+01    2.914E+01    2.881E+01    2.848E+01    2.816E+01    2.783E+01    2.751E+01
     2.718E+01    2.686E+01    2.654E+01    2.622E+01    2.590E+01    2.558E+01    2.526E+01    2.494E+01    2.463E+01    2.432E+01
     2.401E+01    2.370E+01    2.339E+01    2.308E+01    2.278E+01    2.248E+01    2.218E+01    2.188E+01    2.159E+01    2.130E+01
     2.101E+01    2.072E+01    2.044E+01    2.016E+01    1.988E+01    1.960E+01    1.933E+01    1.906E+01    1.879E+01    1.853E+01
     1.827E+01    1.801E+01    1.776E+01    1.751E+01    1.726E+01    1.702E+01    1.677E+01    1.654E+01    1.630E+01    1.607E+01
     1.584E+01    1.561E+01    1.538E+01    1.516E+01    1.494E+01    1.472E+01    1.451E+01    1.429E+01    1.408E+01    1.387E+01
     1.367E+01    1.346E+01    1.326E+01    1.306E+01    1.286E+01    1.266E+01    1.246E+01    1.227E+01    1.207E+01    1.188E+01
     1.169E+01    1.150E+01    1.131E+01    1.112E+01    1.093E+01    1.075E+01    1.056E+01    1.038E+01    1.020E+01    1.001E+01
     9.833E+00    9.653E+00    9.473E+00    9.293E+00    9.114E+00    8.935E+00    8.757E+00    8.580E+00    8.402E+00    8.225E+00
     8.048E+00    7.871E+00    7.694E+00    7.517E+00    7.340E+00    7.164E+00    6.986E+00    6.809E+00    6.632E+00    6.454E+00
 Mac      Conc. = 2.14E-04
   7.68341E+00  7.72259E+00  7.81838E+00  7.65724E+00  7.02329E+00  5.90925E+00  4.57888E+00  3.32659E+00  2.47917E+00  2.17802E+00
   2.32040E+00  2.60516E+00  2.41604E+00  1.39412E+00 -9.74480E-02 -8.17602E-01  5.20501E-01  3.67058E+00  7.56102E+00  1.13778E+01
   1.46566E+01  1.69968E+01  1.83048E+01  1.91633E+01  2.00104E+01  2.11213E+01  2.26745E+01  2.44578E+01  2.61296E+01  2.75330E+01
   2.86323E+01  2.93522E+01  2.94944E+01  2.92047E+01  2.90414E+01  2.97143E+01  3.14362E+01  3.35730E+01  3.51269E+01  3.56572E+01
   3.56441E+01  3.58380E+01  3.66779E+01  3.79506E+01  3.90943E+01  3.96328E+01  3.94743E+01  3.88023E+01  3.77797E+01  3.67258E+01
   3.58955E+01  3.53296E+01  3.49620E+01  3.47384E+01  3.47784E+01  3.52725E+01  3.62844E+01  3.75377E+01  3.88624E+01  4.02569E+01
   4.13746E+01  4.18936E+01  4.17283E+01  4.11367E+01  4.03951E+01  3.97620E+01  3.92792E+01  3.89178E+01  3.91023E+01  4.03278E+01
   4.23519E+01  4.45265E+01  4.62076E+01  4.71834E+01  4.74124E+01  4.70944E+01  4.65186E+01  4.59134E+01  4.53801E+01  4.49660E+01
   4.46556E+01  4.46476E+01  4.49954E+01  4.56288E+01  4.64102E+01  4.72205E+01  4.79385E+01  4.84899E+01  4.89117E+01  4.93274E+01
   4.96525E+01  4.99002E+01  4.98723E+01  4.93421E+01  4.81276E+01  4.63757E+01  4.43312E+01  4.23741E+01  4.07930E+01  3.95494E+01
   3.82104E+01  3.65292E+01  3.41825E+01  3.07304E+01  2.59731E+01  2.04426E+01  1.54414E+01  1.21837E+01  1.11798E+01  1.21341E+01
