 LCModel (Version 6.3-1N) Copyright: S.W. Provencher.          Ref.: Magn. Reson. Med. 30:672-679 (1993).                
 Slice_N1@22_15  28-Feb-2025 11:41:36
 27 lines in following concentration table = NCONC+1
    Conc.  %SD /Cr+PCr  Metabolite                                         
 2.95E-04   4% 3.8E-04 Mac                                                 
    0.452 501%   0.582 Cr                                                  
    5.754  39%   7.418 PCr                                                 
    6.211  18%   8.007 Ins                                                 
    2.543  43%   3.278 NAA                                                 
    5.584  24%   7.199 Tau                                                 
    0.000 999%   0.000 PCho                                                
    1.344  22%   1.732 GPC                                                 
   10.404  12%  13.411 Glu                                                 
    2.940  34%   3.789 Gln                                                 
    0.000 999%   0.000 Ala                                                 
    0.000 999%   0.000 Asc                                                 
    1.871  55%   2.412 Asp                                                 
    0.818  72%   1.055 GABA                                                
    0.478 143%   0.616 Glc                                                 
    2.303  27%   2.969 GSH                                                 
   10.826   9%  13.955 Lac                                                 
    5.091  16%   6.563 NAAG                                                
    0.000 999%   0.000 PE                                                  
    1.344  22%   1.732 GPC+PCho                                            
    7.634  13%   9.841 NAA+NAAG                                            
   13.343  11%  17.200 Glu+Gln                                             
    6.206  14%   8.000 Cr+PCr                                              
    7.634  13%   9.841 NAA+NAAG                                            
    6.206  14%   8.000 Cr+PCr                                              
   13.343  11%  17.200 Glu+Gln                                             
   6 lines in following misc. output table
  FWHM = 0.065 ppm    S/N =   3                                            
  Data shift =-0.024 ppm                                                   
  Ph: -97 deg       0.0 deg/ppm                                            
  alphaB,S = 2.2E-01,   2.3E+01                                            
   19 spline knots.   Ns = 8(1)                                            
  ( 7) 2 infls.   ( 5) 1 extrs.                                            
  480 points on ppm-axis = NY
      4.100000     4.091866     4.083733     4.075600     4.067466     4.059333     4.051199     4.043066     4.034933     4.026799
      4.018666     4.010532     4.002399     3.994265     3.986132     3.977998     3.969864     3.961731     3.953597     3.945463
      3.937330     3.929196     3.921062     3.912929     3.904795     3.896662     3.888528     3.880394     3.872261     3.864127
      3.855993     3.847860     3.839726     3.831592     3.823459     3.815325     3.807191     3.799058     3.790924     3.782790
      3.774657     3.766523     3.758389     3.750256     3.742122     3.733989     3.725855     3.717721     3.709588     3.701454
      3.693320     3.685187     3.677053     3.668919     3.660786     3.652652     3.644518     3.636385     3.628251     3.620117
      3.611984     3.603850     3.595716     3.587583     3.579449     3.571316     3.563182     3.555048     3.546915     3.538781
      3.530647     3.522514     3.514380     3.506246     3.498113     3.489979     3.481845     3.473712     3.465578     3.457444
      3.449311     3.441177     3.433043     3.424910     3.416776     3.408643     3.400509     3.392375     3.384242     3.376108
      3.367974     3.359841     3.351707     3.343573     3.335440     3.327306     3.319172     3.311039     3.302905     3.294771
      3.286638     3.278504     3.270370     3.262237     3.254103     3.245970     3.237836     3.229702     3.221569     3.213435
      3.205301     3.197168     3.189034     3.180900     3.172767     3.164633     3.156499     3.148366     3.140232     3.132098
      3.123965     3.115831     3.107697     3.099564     3.091430     3.083297     3.075163     3.067029     3.058896     3.050762
      3.042628     3.034495     3.026361     3.018227     3.010094     3.001960     2.993826     2.985693     2.977559     2.969425
      2.961292     2.953158     2.945024     2.936891     2.928757     2.920624     2.912490     2.904356     2.896223     2.888089
      2.879955     2.871822     2.863688     2.855554     2.847421     2.839287     2.831153     2.823020     2.814886     2.806752
      2.798619     2.790485     2.782351     2.774218     2.766084     2.757951     2.749817     2.741683     2.733550     2.725416
      2.717282     2.709149     2.701015     2.692881     2.684748     2.676614     2.668480     2.660347     2.652213     2.644079
      2.635946     2.627812     2.619678     2.611545     2.603411     2.595278     2.587144     2.579010     2.570877     2.562743
      2.554609     2.546476     2.538342     2.530208     2.522075     2.513941     2.505807     2.497674     2.489540     2.481406
      2.473273     2.465139     2.457006     2.448872     2.440738     2.432605     2.424471     2.416337     2.408204     2.400070
      2.391936     2.383803     2.375669     2.367535     2.359402     2.351268     2.343134     2.335001     2.326867     2.318733
      2.310600     2.302466     2.294333     2.286199     2.278065     2.269932     2.261798     2.253664     2.245531     2.237397
      2.229263     2.221130     2.212996     2.204862     2.196729     2.188595     2.180461     2.172328     2.164194     2.156060
      2.147927     2.139793     2.131660     2.123526     2.115392     2.107259     2.099125     2.090991     2.082858     2.074724
      2.066590     2.058457     2.050323     2.042189     2.034056     2.025922     2.017788     2.009655     2.001521     1.993387
      1.985254     1.977120     1.968987     1.960853     1.952719     1.944586     1.936452     1.928318     1.920185     1.912051
      1.903917     1.895784     1.887650     1.879516     1.871383     1.863249     1.855115     1.846982     1.838848     1.830714
      1.822581     1.814447     1.806314     1.798180     1.790046     1.781913     1.773779     1.765645     1.757512     1.749378
      1.741244     1.733111     1.724977     1.716843     1.708710     1.700576     1.692442     1.684309     1.676175     1.668041
      1.659908     1.651774     1.643641     1.635507     1.627373     1.619240     1.611106     1.602972     1.594839     1.586705
      1.578571     1.570438     1.562304     1.554170     1.546037     1.537903     1.529769     1.521636     1.513502     1.505368
      1.497235     1.489101     1.480968     1.472834     1.464700     1.456567     1.448433     1.440299     1.432166     1.424032
      1.415898     1.407765     1.399631     1.391497     1.383364     1.375230     1.367096     1.358963     1.350829     1.342695
      1.334562     1.326428     1.318295     1.310161     1.302027     1.293894     1.285760     1.277626     1.269493     1.261359
      1.253225     1.245092     1.236958     1.228824     1.220691     1.212557     1.204423     1.196290     1.188156     1.180022
      1.171889     1.163755     1.155622     1.147488     1.139354     1.131221     1.123087     1.114953     1.106820     1.098686
      1.090552     1.082419     1.074285     1.066151     1.058018     1.049884     1.041750     1.033617     1.025483     1.017349
      1.009216     1.001082     0.992949     0.984815     0.976681     0.968548     0.960414     0.952280     0.944147     0.936013
      0.927879     0.919746     0.911612     0.903478     0.895345     0.887211     0.879077     0.870944     0.862810     0.854676
      0.846543     0.838409     0.830276     0.822142     0.814008     0.805875     0.797741     0.789607     0.781474     0.773340
      0.765206     0.757073     0.748939     0.740805     0.732672     0.724538     0.716404     0.708271     0.700137     0.692003
      0.683870     0.675736     0.667603     0.659469     0.651335     0.643202     0.635068     0.626934     0.618801     0.610667
      0.602533     0.594400     0.586266     0.578132     0.569999     0.561865     0.553731     0.545598     0.537464     0.529330
      0.521197     0.513063     0.504930     0.496796     0.488662     0.480529     0.472395     0.464261     0.456128     0.447994
      0.439861     0.431727     0.423593     0.415460     0.407326     0.399192     0.391059     0.382925     0.374792     0.366658
      0.358524     0.350391     0.342257     0.334124     0.325990     0.317856     0.309723     0.301589     0.293455     0.285322
      0.277188     0.269055     0.260921     0.252787     0.244654     0.236520     0.228386     0.220253     0.212119     0.203986
 NY phased data points follow
  -6.61572E+01 -5.80527E+01 -7.27129E+01 -6.84370E+01 -6.35394E+01 -5.47067E+01 -6.72314E+01 -6.59110E+01 -7.56404E+01 -7.27407E+01
  -5.72708E+01 -8.26525E+01 -6.87561E+01 -7.97059E+01 -8.99378E+01 -8.71810E+01 -9.83837E+01 -8.68528E+01 -9.91209E+01 -1.08998E+02
  -1.13587E+02 -1.12026E+02 -1.09520E+02 -1.08780E+02 -1.03972E+02 -8.53136E+01 -6.69272E+01 -6.81657E+01 -5.98847E+01 -6.59652E+01
  -5.63057E+01 -6.62213E+01 -7.37889E+01 -5.47637E+01 -7.09435E+01 -7.30829E+01 -8.11863E+01 -7.60035E+01 -8.90660E+01 -9.91650E+01
  -8.29417E+01 -1.09829E+02 -9.87584E+01 -9.05027E+01 -9.14266E+01 -9.60827E+01 -8.15104E+01 -4.51823E+01 -6.40198E+01 -4.50765E+01
  -3.14860E+01 -3.81727E+01 -4.18534E+01 -4.41097E+01 -4.02172E+01 -5.63464E+01 -4.74143E+01 -5.90655E+01 -6.85551E+01 -7.79396E+01
  -7.51366E+01 -4.82594E+01 -6.28459E+01 -6.80233E+01 -5.01543E+01 -4.52244E+01 -5.00177E+01 -4.78843E+01 -6.92125E+01 -6.62098E+01
  -6.70168E+01 -7.42489E+01 -4.85914E+01 -7.17612E+01 -5.47310E+01 -3.60298E+01 -5.16416E+01 -3.86253E+01 -3.29104E+01 -2.64081E+01
  -2.59859E+01 -2.09540E+01 -2.96182E+01 -4.02289E+01 -3.73072E+01 -4.25789E+01 -4.25934E+01 -3.87337E+01 -4.64047E+01 -4.42531E+01
  -3.03872E+01 -2.38151E+01 -9.87653E+00 -1.16376E+01  1.59613E+00  6.25128E+00 -1.01014E+01  4.79727E+00  8.35149E+00  2.58057E-01
  -1.90059E+00  8.71535E+00  1.88344E+00 -1.35570E+01 -1.79254E+01 -4.42941E+01 -6.22631E+01 -6.84533E+01 -7.94872E+01 -1.02714E+02
  -1.26909E+02 -1.42045E+02 -1.53878E+02 -1.42431E+02 -1.22012E+02 -1.18900E+02 -1.08998E+02 -8.31713E+01 -6.41601E+01 -5.01007E+01
  -5.06096E+01 -6.11187E+01 -5.33825E+01 -3.40241E+01 -3.35156E+01 -2.69977E+01 -2.78258E+00 -4.57075E+00 -1.27907E+00  1.60325E+01
   1.29605E+01  1.08003E+00 -3.87243E+00 -2.18587E+01 -4.58388E+01 -5.98945E+01 -8.89924E+01 -9.88318E+01 -1.05096E+02 -1.27845E+02
  -1.14783E+02 -8.95607E+01 -8.95294E+01 -1.05015E+02 -1.12591E+02 -1.09230E+02 -1.05796E+02 -9.80501E+01 -9.15130E+01 -1.02026E+02
  -1.03494E+02 -9.89124E+01 -9.37757E+01 -7.39802E+01 -8.03185E+01 -7.95049E+01 -6.72928E+01 -7.14124E+01 -5.99582E+01 -4.95286E+01
  -6.41943E+01 -7.60875E+01 -5.68204E+01 -5.98723E+01 -6.73395E+01 -5.79957E+01 -6.68205E+01 -6.58521E+01 -6.90059E+01 -6.87772E+01
  -6.56197E+01 -6.44802E+01 -5.58128E+01 -5.41934E+01 -4.41648E+01 -4.54883E+01 -5.04783E+01 -5.28052E+01 -6.07747E+01 -5.51204E+01
  -5.85587E+01 -7.45923E+01 -8.45616E+01 -8.59929E+01 -8.87932E+01 -8.78631E+01 -9.06880E+01 -1.01155E+02 -8.37395E+01 -7.01498E+01
  -7.90316E+01 -7.67530E+01 -6.68268E+01 -6.57175E+01 -6.48812E+01 -6.11104E+01 -6.32581E+01 -5.63094E+01 -5.59630E+01 -5.97775E+01
  -6.79349E+01 -6.72537E+01 -5.26536E+01 -5.58720E+01 -4.80240E+01 -6.21354E+01 -7.31485E+01 -6.56757E+01 -8.05043E+01 -8.61939E+01
  -8.89944E+01 -8.77558E+01 -8.77440E+01 -6.82291E+01 -6.24214E+01 -6.00663E+01 -4.11364E+01 -5.26736E+01 -3.34179E+01 -3.45061E+01
  -4.55288E+01 -2.75794E+01 -4.31667E+01 -4.63091E+01 -4.46190E+01 -4.99524E+01 -3.41744E+01 -3.04660E+01 -3.69795E+01 -2.68910E+01
  -2.87881E+01 -5.04042E+01 -6.43976E+01 -5.16764E+01 -5.28316E+01 -6.84135E+01 -6.17958E+01 -7.58569E+01 -7.56522E+01 -7.66001E+01
  -9.43760E+01 -9.15538E+01 -9.19767E+01 -8.57130E+01 -8.31107E+01 -7.60490E+01 -7.98208E+01 -6.58952E+01 -4.83699E+01 -7.67887E+01
  -7.83725E+01 -7.13897E+01 -6.45569E+01 -6.94914E+01 -7.62848E+01 -4.98829E+01 -3.60877E+01 -1.90916E+01  9.99342E+00  3.14230E+01
   3.79115E+01  6.55966E+01  9.10966E+01  8.34341E+01  8.27872E+01  7.39835E+01  5.33336E+01  3.70368E+01  4.05045E+01  3.88525E+01
   3.54532E+01  3.53640E+01  3.90168E+01  4.21955E+01  2.40991E+01  4.87290E+01  4.83117E+01  3.20085E+01  5.19565E+01  3.81176E+01
   3.22899E+01  2.76886E+01  3.16352E+01  4.38703E+01  2.79723E+01  2.19591E+01  2.23968E+01  2.56390E+01  2.34601E+01  9.56227E+00
   1.33379E+00 -7.99925E+00 -3.74760E+00 -1.67639E+00 -1.43659E+01 -5.91134E+00  2.94634E+00 -9.23543E-01 -6.63321E+00 -6.50387E+00
  -1.33630E+01 -1.82957E+01 -7.07895E+00 -3.55786E+00 -1.55018E+00 -1.86569E+01 -2.05943E+01 -1.42202E+01 -1.45102E+01 -1.42272E+01
  -3.26802E+01 -1.86594E+01 -1.51256E+01 -2.38687E+01 -2.54031E+01 -2.60394E+01 -1.63821E+01 -2.29008E+01 -2.16567E+01 -1.64654E+01
  -5.96763E+00  1.50347E+00  1.31879E+01  1.75752E+01  2.11697E+01  4.40687E+01  3.32062E+01  4.03169E+01  4.36555E+01  2.19915E+01
   2.64144E+01  9.75215E+00  1.62038E+00 -4.12312E+00 -2.74672E+01 -2.13000E+01 -2.68191E+01 -3.51223E+01 -1.37170E+01 -3.08580E+00
  -1.37492E+01 -2.05207E+01 -2.13163E+01 -2.38141E+01 -2.53418E+01 -3.42457E+01 -3.97261E+01 -3.69349E+01 -4.80155E+01 -7.75368E+01
  -8.88114E+01 -9.85985E+01 -1.00993E+02 -9.33680E+01 -1.11768E+02 -9.84332E+01 -9.97885E+01 -1.09018E+02 -1.01611E+02 -9.55924E+01
  -7.56701E+01 -8.74007E+01 -7.35480E+01 -6.73039E+01 -7.22368E+01 -5.55446E+01 -4.84996E+01 -3.54692E+01 -2.75458E+01 -2.35042E+01
  -3.72735E+01 -2.38417E+01 -1.58178E+01 -1.95626E+01  2.20252E-01 -2.80523E+00 -6.94860E-01  3.62847E+00  8.26857E+00  4.20530E+00
   6.83700E-01  2.46694E+01  3.78161E+01  3.67746E+01  3.91209E+01  4.83986E+01  6.14670E+01  7.35549E+01  8.03998E+01  5.79084E+01
   4.86943E+01  7.24784E+01  5.88009E+01  3.82775E+01  3.84674E+01  3.22944E+01  1.56428E+01  1.24572E+01  7.87619E+00 -8.44948E+00
  -1.02860E+01 -3.29036E+01 -4.57786E+01 -3.92342E+01 -4.35518E+01 -6.26073E+01 -6.28003E+01 -5.96657E+01 -7.67778E+01 -6.53127E+01
  -6.71177E+01 -6.16602E+01 -5.73026E+01 -7.47127E+01 -7.58554E+01 -6.99722E+01 -6.34008E+01 -5.27551E+01 -3.89707E+01 -5.51321E+01
  -6.60878E+01 -6.41627E+01 -5.61803E+01 -5.01070E+01 -5.67897E+01 -4.94894E+01 -4.82256E+01 -5.80855E+01 -5.89625E+01 -5.31009E+01
  -5.94773E+01 -5.80945E+01 -6.01850E+01 -6.04639E+01 -6.19261E+01 -5.37666E+01 -4.42016E+01 -6.74963E+01 -5.78174E+01 -5.46042E+01
  -6.00953E+01 -6.06625E+01 -5.77769E+01 -4.15047E+01 -5.18511E+01 -4.50558E+01 -5.19612E+01 -6.51961E+01 -3.83051E+01 -3.65769E+01
  -5.37883E+01 -5.58649E+01 -5.66116E+01 -4.52502E+01 -4.27967E+01 -4.46952E+01 -4.57664E+01 -5.43612E+01 -5.39998E+01 -4.87655E+01
  -3.45418E+01 -4.54342E+01 -4.47687E+01 -4.43147E+01 -5.38330E+01 -3.72747E+01 -3.46991E+01 -3.63368E+01 -5.08110E+01 -4.57672E+01
  -4.42380E+01 -5.14620E+01 -3.30880E+01 -4.04387E+01 -3.22679E+01 -2.35035E+01 -5.14437E+01 -4.92779E+01 -4.74367E+01 -4.95739E+01
 NY points of the fit to the data follow
  -1.04928E+02 -1.02275E+02 -9.85395E+01 -9.37893E+01 -8.88035E+01 -8.40518E+01 -7.97070E+01 -7.59978E+01 -7.30271E+01 -7.09764E+01
  -7.00388E+01 -7.07567E+01 -7.35122E+01 -7.82157E+01 -8.47952E+01 -9.25750E+01 -1.00331E+02 -1.06251E+02 -1.09648E+02 -1.11388E+02
  -1.11583E+02 -1.09620E+02 -1.05479E+02 -9.87500E+01 -8.93162E+01 -7.87248E+01 -6.87260E+01 -5.98050E+01 -5.28126E+01 -4.94053E+01
  -4.78530E+01 -4.64171E+01 -4.52288E+01 -4.49437E+01 -4.58752E+01 -4.81689E+01 -5.23972E+01 -5.85208E+01 -6.54300E+01 -7.21074E+01
  -7.82273E+01 -8.30893E+01 -8.60719E+01 -8.70234E+01 -8.53461E+01 -8.06493E+01 -7.34610E+01 -6.46651E+01 -5.51326E+01 -4.66206E+01
  -4.11433E+01 -3.81802E+01 -3.79150E+01 -3.98806E+01 -4.30526E+01 -4.73280E+01 -5.19599E+01 -5.57334E+01 -5.86899E+01 -6.12286E+01
  -6.23914E+01 -6.19120E+01 -6.08331E+01 -5.89264E+01 -5.57837E+01 -5.29359E+01 -5.12100E+01 -4.93041E+01 -4.79920E+01 -4.88980E+01
  -5.04504E+01 -5.21788E+01 -5.45567E+01 -5.60408E+01 -5.54232E+01 -5.25688E+01 -4.80852E+01 -4.21240E+01 -3.59332E+01 -3.20215E+01
  -3.05577E+01 -3.07634E+01 -3.28318E+01 -3.64238E+01 -4.04711E+01 -4.43448E+01 -4.75987E+01 -4.95171E+01 -4.94828E+01 -4.71629E+01
  -4.27107E+01 -3.67169E+01 -2.99435E+01 -2.38898E+01 -1.81988E+01 -1.37120E+01 -1.03382E+01 -7.26909E+00 -4.84759E+00 -3.77466E+00
  -3.47070E+00 -4.55307E+00 -7.91286E+00 -1.31300E+01 -2.07995E+01 -3.25306E+01 -4.70546E+01 -6.17603E+01 -7.64985E+01 -9.09878E+01
  -1.03341E+02 -1.13188E+02 -1.20377E+02 -1.22953E+02 -1.20416E+02 -1.15166E+02 -1.06440E+02 -9.51922E+01 -8.54968E+01 -7.73680E+01
  -7.00686E+01 -6.31403E+01 -5.62900E+01 -4.82567E+01 -3.90772E+01 -2.92296E+01 -1.84731E+01 -8.41383E+00 -2.05541E+00  4.15817E-02
  -6.15955E-01 -4.44531E+00 -1.19796E+01 -2.27423E+01 -3.72242E+01 -5.46259E+01 -7.16018E+01 -8.56385E+01 -9.65608E+01 -1.02841E+02
  -1.02993E+02 -1.02067E+02 -1.01713E+02 -1.01815E+02 -1.01961E+02 -1.02142E+02 -1.02212E+02 -1.01949E+02 -1.01229E+02 -1.00071E+02
  -9.83463E+01 -9.61692E+01 -9.37678E+01 -9.11968E+01 -8.87201E+01 -8.63781E+01 -8.41795E+01 -8.20659E+01 -8.00176E+01 -7.81174E+01
  -7.64087E+01 -7.48425E+01 -7.33076E+01 -7.17911E+01 -7.04044E+01 -6.91544E+01 -6.79439E+01 -6.65521E+01 -6.47166E+01 -6.26874E+01
  -6.10077E+01 -5.97546E+01 -5.87676E+01 -5.80348E+01 -5.75467E+01 -5.74136E+01 -5.78544E+01 -5.90332E+01 -6.08999E+01 -6.34413E+01
  -6.63710E+01 -6.89683E+01 -7.09491E+01 -7.27388E+01 -7.43109E+01 -7.55799E+01 -7.64820E+01 -7.64164E+01 -7.53532E+01 -7.37458E+01
  -7.15520E+01 -6.87021E+01 -6.56192E+01 -6.26376E+01 -5.98481E+01 -5.74830E+01 -5.57153E+01 -5.45833E+01 -5.41209E+01 -5.44371E+01
  -5.50555E+01 -5.55651E+01 -5.64627E+01 -5.75645E+01 -5.87871E+01 -6.03955E+01 -6.23818E+01 -6.51290E+01 -6.86023E+01 -7.19931E+01
  -7.50215E+01 -7.71593E+01 -7.73987E+01 -7.52330E+01 -7.09746E+01 -6.48183E+01 -5.68303E+01 -4.79488E+01 -3.87417E+01 -2.96003E+01
  -2.17267E+01 -1.61498E+01 -1.33549E+01 -1.31750E+01 -1.58175E+01 -1.98880E+01 -2.42416E+01 -2.96879E+01 -3.54869E+01 -4.20639E+01
  -4.99060E+01 -5.90156E+01 -6.87646E+01 -7.82276E+01 -8.70404E+01 -9.43353E+01 -9.94149E+01 -1.02426E+02 -1.03239E+02 -1.01647E+02
  -9.81189E+01 -9.33627E+01 -8.79119E+01 -8.21256E+01 -7.71533E+01 -7.36088E+01 -7.16940E+01 -7.16586E+01 -7.30267E+01 -7.53963E+01
  -7.66000E+01 -7.49825E+01 -7.14132E+01 -6.65553E+01 -5.84733E+01 -4.67523E+01 -3.14799E+01 -1.28296E+01  6.70686E+00  2.43104E+01
   3.93672E+01  5.09524E+01  5.67046E+01  5.75375E+01  5.70490E+01  5.51940E+01  5.11177E+01  4.55491E+01  4.03635E+01  3.58494E+01
   3.20416E+01  2.89101E+01  2.64671E+01  2.47898E+01  2.39020E+01  2.37339E+01  2.41140E+01  2.47905E+01  2.55028E+01  2.60122E+01
   2.62452E+01  2.60149E+01  2.53583E+01  2.42977E+01  2.28186E+01  2.10265E+01  1.89142E+01  1.65148E+01  1.38646E+01  1.09936E+01
   7.91990E+00  4.67550E+00  1.37598E+00 -1.83816E+00 -4.82203E+00 -7.43783E+00 -9.54408E+00 -1.10203E+01 -1.17116E+01 -1.15919E+01
  -1.07358E+01 -9.20801E+00 -7.18412E+00 -4.84832E+00 -2.33821E+00  2.50513E-01  2.83153E+00  5.38552E+00  7.89087E+00  1.03205E+01
   1.26778E+01  1.49784E+01  1.71651E+01  1.91893E+01  2.09894E+01  2.24694E+01  2.35596E+01  2.42305E+01  2.44649E+01  2.42334E+01
   2.35254E+01  2.22908E+01  2.04829E+01  1.80778E+01  1.49944E+01  1.11787E+01  6.67967E+00  1.58580E+00 -4.01698E+00 -9.94417E+00
  -1.58920E+01 -2.14902E+01 -2.63085E+01 -2.99359E+01 -3.15732E+01 -3.06739E+01 -2.73413E+01 -2.11780E+01 -1.36884E+01 -7.37679E+00
  -3.52291E+00 -2.97928E+00 -6.53736E+00 -1.35777E+01 -2.28953E+01 -3.51675E+01 -5.00589E+01 -6.53378E+01 -7.93069E+01 -9.02289E+01
  -9.57425E+01 -9.48610E+01 -9.05233E+01 -8.46675E+01 -7.83068E+01 -7.47294E+01 -7.28452E+01 -7.17952E+01 -7.09444E+01 -6.98181E+01
  -6.81800E+01 -6.58847E+01 -6.29102E+01 -5.93844E+01 -5.54846E+01 -5.13471E+01 -4.71003E+01 -4.28782E+01 -3.87458E+01 -3.47238E+01
  -3.08117E+01 -2.69664E+01 -2.31124E+01 -1.91660E+01 -1.51011E+01 -1.07962E+01 -6.18701E+00 -1.24951E+00  4.11755E+00  9.99293E+00
   1.63898E+01  2.32400E+01  3.03944E+01  3.75545E+01  4.43088E+01  5.02610E+01  5.49247E+01  5.79534E+01  5.91418E+01  5.83732E+01
   5.55630E+01  5.08324E+01  4.44569E+01  3.67992E+01  2.83418E+01  1.95901E+01  1.08870E+01  2.49029E+00 -5.54251E+00 -1.32807E+01
  -2.08482E+01 -2.81533E+01 -3.50535E+01 -4.14164E+01 -4.70095E+01 -5.16625E+01 -5.53657E+01 -5.82215E+01 -6.02884E+01 -6.17305E+01
  -6.27388E+01 -6.34368E+01 -6.38676E+01 -6.41055E+01 -6.42048E+01 -6.42068E+01 -6.40728E+01 -6.38318E+01 -6.35238E+01 -6.31811E+01
  -6.28208E+01 -6.24644E+01 -6.20955E+01 -6.16983E+01 -6.13119E+01 -6.09197E+01 -6.04808E+01 -6.00161E+01 -5.95952E+01 -5.91968E+01
  -5.87765E+01 -5.83530E+01 -5.79189E+01 -5.74857E+01 -5.70565E+01 -5.66307E+01 -5.62143E+01 -5.58126E+01 -5.53904E+01 -5.49272E+01
  -5.44451E+01 -5.39703E+01 -5.35186E+01 -5.30808E+01 -5.26797E+01 -5.22902E+01 -5.19203E+01 -5.15620E+01 -5.12199E+01 -5.08749E+01
  -5.04966E+01 -5.00928E+01 -4.96641E+01 -4.92131E+01 -4.87506E+01 -4.83162E+01 -4.78644E+01 -4.73828E+01 -4.69207E+01 -4.64691E+01
  -4.60215E+01 -4.56154E+01 -4.52414E+01 -4.48645E+01 -4.44699E+01 -4.40640E+01 -4.36342E+01 -4.32095E+01 -4.27810E+01 -4.23510E+01
  -4.18683E+01 -4.13731E+01 -4.08999E+01 -4.04647E+01 -4.00715E+01 -3.97354E+01 -3.94306E+01 -3.90931E+01 -3.86859E+01 -3.82019E+01
 NY background values follow
    -6.386E+01   -6.388E+01   -6.389E+01   -6.391E+01   -6.392E+01   -6.394E+01   -6.396E+01   -6.397E+01   -6.398E+01   -6.400E+01
    -6.401E+01   -6.402E+01   -6.403E+01   -6.403E+01   -6.404E+01   -6.404E+01   -6.404E+01   -6.404E+01   -6.404E+01   -6.403E+01
    -6.402E+01   -6.401E+01   -6.399E+01   -6.397E+01   -6.395E+01   -6.392E+01   -6.389E+01   -6.385E+01   -6.381E+01   -6.377E+01
    -6.372E+01   -6.366E+01   -6.360E+01   -6.354E+01   -6.347E+01   -6.339E+01   -6.331E+01   -6.323E+01   -6.314E+01   -6.305E+01
    -6.295E+01   -6.284E+01   -6.274E+01   -6.262E+01   -6.251E+01   -6.238E+01   -6.226E+01   -6.213E+01   -6.199E+01   -6.185E+01
    -6.171E+01   -6.156E+01   -6.141E+01   -6.125E+01   -6.109E+01   -6.092E+01   -6.075E+01   -6.058E+01   -6.040E+01   -6.022E+01
    -6.003E+01   -5.984E+01   -5.965E+01   -5.945E+01   -5.925E+01   -5.905E+01   -5.884E+01   -5.863E+01   -5.842E+01   -5.820E+01
    -5.798E+01   -5.776E+01   -5.753E+01   -5.731E+01   -5.708E+01   -5.685E+01   -5.662E+01   -5.638E+01   -5.615E+01   -5.591E+01
    -5.568E+01   -5.544E+01   -5.520E+01   -5.496E+01   -5.472E+01   -5.447E+01   -5.423E+01   -5.399E+01   -5.375E+01   -5.351E+01
    -5.327E+01   -5.303E+01   -5.278E+01   -5.254E+01   -5.230E+01   -5.207E+01   -5.183E+01   -5.159E+01   -5.135E+01   -5.112E+01
    -5.088E+01   -5.065E+01   -5.041E+01   -5.018E+01   -4.995E+01   -4.972E+01   -4.949E+01   -4.926E+01   -4.903E+01   -4.881E+01
    -4.858E+01   -4.836E+01   -4.814E+01   -4.791E+01   -4.769E+01   -4.748E+01   -4.726E+01   -4.705E+01   -4.683E+01   -4.662E+01
    -4.641E+01   -4.620E+01   -4.600E+01   -4.579E+01   -4.559E+01   -4.539E+01   -4.519E+01   -4.499E+01   -4.480E+01   -4.460E+01
    -4.441E+01   -4.423E+01   -4.404E+01   -4.386E+01   -4.368E+01   -4.350E+01   -4.332E+01   -4.315E+01   -4.298E+01   -4.281E+01
    -4.264E+01   -4.248E+01   -4.232E+01   -4.216E+01   -4.201E+01   -4.186E+01   -4.171E+01   -4.156E+01   -4.142E+01   -4.128E+01
    -4.115E+01   -4.102E+01   -4.089E+01   -4.076E+01   -4.064E+01   -4.052E+01   -4.040E+01   -4.029E+01   -4.017E+01   -4.007E+01
    -3.996E+01   -3.986E+01   -3.976E+01   -3.966E+01   -3.957E+01   -3.948E+01   -3.939E+01   -3.930E+01   -3.921E+01   -3.913E+01
    -3.905E+01   -3.897E+01   -3.890E+01   -3.883E+01   -3.876E+01   -3.869E+01   -3.862E+01   -3.856E+01   -3.849E+01   -3.843E+01
    -3.837E+01   -3.832E+01   -3.826E+01   -3.821E+01   -3.816E+01   -3.811E+01   -3.806E+01   -3.801E+01   -3.797E+01   -3.792E+01
    -3.788E+01   -3.784E+01   -3.780E+01   -3.776E+01   -3.773E+01   -3.769E+01   -3.766E+01   -3.763E+01   -3.760E+01   -3.757E+01
    -3.754E+01   -3.751E+01   -3.749E+01   -3.747E+01   -3.744E+01   -3.742E+01   -3.740E+01   -3.738E+01   -3.736E+01   -3.734E+01
    -3.733E+01   -3.731E+01   -3.730E+01   -3.728E+01   -3.727E+01   -3.726E+01   -3.725E+01   -3.725E+01   -3.724E+01   -3.724E+01
    -3.724E+01   -3.724E+01   -3.724E+01   -3.724E+01   -3.725E+01   -3.726E+01   -3.727E+01   -3.729E+01   -3.731E+01   -3.733E+01
    -3.735E+01   -3.738E+01   -3.741E+01   -3.744E+01   -3.748E+01   -3.752E+01   -3.757E+01   -3.762E+01   -3.767E+01   -3.773E+01
    -3.779E+01   -3.785E+01   -3.792E+01   -3.800E+01   -3.807E+01   -3.815E+01   -3.824E+01   -3.833E+01   -3.842E+01   -3.852E+01
    -3.862E+01   -3.873E+01   -3.884E+01   -3.896E+01   -3.907E+01   -3.920E+01   -3.932E+01   -3.945E+01   -3.959E+01   -3.973E+01
    -3.987E+01   -4.002E+01   -4.017E+01   -4.032E+01   -4.048E+01   -4.064E+01   -4.081E+01   -4.098E+01   -4.115E+01   -4.133E+01
    -4.151E+01   -4.169E+01   -4.188E+01   -4.207E+01   -4.227E+01   -4.246E+01   -4.266E+01   -4.286E+01   -4.307E+01   -4.327E+01
    -4.348E+01   -4.369E+01   -4.389E+01   -4.410E+01   -4.431E+01   -4.452E+01   -4.473E+01   -4.494E+01   -4.515E+01   -4.535E+01
    -4.556E+01   -4.576E+01   -4.596E+01   -4.616E+01   -4.636E+01   -4.656E+01   -4.675E+01   -4.694E+01   -4.712E+01   -4.731E+01
    -4.748E+01   -4.766E+01   -4.783E+01   -4.799E+01   -4.816E+01   -4.832E+01   -4.847E+01   -4.862E+01   -4.877E+01   -4.891E+01
    -4.905E+01   -4.918E+01   -4.931E+01   -4.943E+01   -4.955E+01   -4.967E+01   -4.978E+01   -4.989E+01   -5.000E+01   -5.009E+01
    -5.019E+01   -5.028E+01   -5.037E+01   -5.045E+01   -5.052E+01   -5.060E+01   -5.066E+01   -5.073E+01   -5.079E+01   -5.084E+01
    -5.089E+01   -5.094E+01   -5.098E+01   -5.101E+01   -5.104E+01   -5.107E+01   -5.109E+01   -5.111E+01   -5.113E+01   -5.114E+01
    -5.114E+01   -5.114E+01   -5.114E+01   -5.113E+01   -5.112E+01   -5.110E+01   -5.108E+01   -5.105E+01   -5.102E+01   -5.099E+01
    -5.095E+01   -5.091E+01   -5.087E+01   -5.082E+01   -5.076E+01   -5.071E+01   -5.064E+01   -5.058E+01   -5.051E+01   -5.043E+01
    -5.036E+01   -5.028E+01   -5.019E+01   -5.010E+01   -5.001E+01   -4.992E+01   -4.982E+01   -4.971E+01   -4.961E+01   -4.950E+01
    -4.939E+01   -4.928E+01   -4.916E+01   -4.905E+01   -4.893E+01   -4.880E+01   -4.868E+01   -4.855E+01   -4.842E+01   -4.829E+01
    -4.816E+01   -4.803E+01   -4.789E+01   -4.776E+01   -4.762E+01   -4.748E+01   -4.734E+01   -4.720E+01   -4.706E+01   -4.692E+01
    -4.678E+01   -4.663E+01   -4.649E+01   -4.635E+01   -4.620E+01   -4.606E+01   -4.591E+01   -4.577E+01   -4.562E+01   -4.548E+01
    -4.533E+01   -4.519E+01   -4.504E+01   -4.489E+01   -4.475E+01   -4.460E+01   -4.446E+01   -4.431E+01   -4.416E+01   -4.402E+01
    -4.387E+01   -4.373E+01   -4.358E+01   -4.344E+01   -4.329E+01   -4.315E+01   -4.301E+01   -4.286E+01   -4.272E+01   -4.258E+01
    -4.244E+01   -4.230E+01   -4.215E+01   -4.201E+01   -4.188E+01   -4.174E+01   -4.160E+01   -4.146E+01   -4.132E+01   -4.119E+01
    -4.105E+01   -4.091E+01   -4.078E+01   -4.064E+01   -4.051E+01   -4.038E+01   -4.024E+01   -4.011E+01   -3.998E+01   -3.985E+01
    -3.971E+01   -3.958E+01   -3.945E+01   -3.932E+01   -3.919E+01   -3.907E+01   -3.894E+01   -3.881E+01   -3.868E+01   -3.856E+01
    -3.843E+01   -3.831E+01   -3.818E+01   -3.806E+01   -3.793E+01   -3.781E+01   -3.769E+01   -3.756E+01   -3.744E+01   -3.732E+01
    -3.720E+01   -3.707E+01   -3.695E+01   -3.683E+01   -3.671E+01   -3.659E+01   -3.647E+01   -3.635E+01   -3.623E+01   -3.611E+01
    -3.599E+01   -3.587E+01   -3.576E+01   -3.564E+01   -3.552E+01   -3.540E+01   -3.528E+01   -3.516E+01   -3.504E+01   -3.493E+01
 Mac      Conc. = 2.95E-04
  -8.37280E+01 -8.41882E+01 -8.47248E+01 -8.53295E+01 -8.60182E+01 -8.68088E+01 -8.76916E+01 -8.86111E+01 -8.95541E+01 -9.05737E+01
  -9.16836E+01 -9.28480E+01 -9.40313E+01 -9.51671E+01 -9.60316E+01 -9.64639E+01 -9.64859E+01 -9.61321E+01 -9.53539E+01 -9.41429E+01
  -9.24978E+01 -9.03603E+01 -8.78013E+01 -8.49957E+01 -8.20863E+01 -7.92481E+01 -7.67615E+01 -7.46886E+01 -7.28095E+01 -7.11118E+01
  -6.96151E+01 -6.82391E+01 -6.69403E+01 -6.57338E+01 -6.46147E+01 -6.35404E+01 -6.25654E+01 -6.17246E+01 -6.09399E+01 -6.01059E+01
  -5.91582E+01 -5.80686E+01 -5.68881E+01 -5.57486E+01 -5.47492E+01 -5.39660E+01 -5.34346E+01 -5.31069E+01 -5.29115E+01 -5.28610E+01
  -5.30300E+01 -5.34244E+01 -5.40200E+01 -5.47214E+01 -5.53229E+01 -5.57328E+01 -5.59026E+01 -5.57668E+01 -5.53170E+01 -5.46376E+01
  -5.38058E+01 -5.28729E+01 -5.19744E+01 -5.11818E+01 -5.05137E+01 -5.00697E+01 -4.98906E+01 -4.98232E+01 -4.97136E+01 -4.95276E+01
  -4.91726E+01 -4.85648E+01 -4.77320E+01 -4.66913E+01 -4.54990E+01 -4.42932E+01 -4.31845E+01 -4.22534E+01 -4.15938E+01 -4.12897E+01
  -4.12642E+01 -4.13501E+01 -4.14426E+01 -4.14447E+01 -4.12787E+01 -4.09584E+01 -4.04459E+01 -3.97666E+01 -3.89854E+01 -3.81488E+01
  -3.72959E+01 -3.65243E+01 -3.59668E+01 -3.56603E+01 -3.56184E+01 -3.59043E+01 -3.65021E+01 -3.73755E+01 -3.85449E+01 -4.00398E+01
  -4.18405E+01 -4.39700E+01 -4.64747E+01 -4.93710E+01 -5.26167E+01 -5.61518E+01 -5.98332E+01 -6.35437E+01 -6.71440E+01 -7.04433E+01
