 
 $NMID
 ID=''
 FMTDAT='(2E13.5)'
 TRAMP=   1.00000E+0
 VOLUME=   1.00000E+0
 $END
   2.48259E+4   5.38458E+3
   3.14590E+4  -1.66102E+4
  -9.37842E+3  -2.84392E+4
  -2.99420E+4   2.06511E+4
   1.08225E+4   2.91440E+4
   2.73437E+4  -1.73128E+4
  -7.68616E+3  -1.92431E+4
  -1.69507E+4   1.57678E+4
   6.63002E+3   1.40714E+4
   9.33750E+3  -6.34078E+3
  -4.65649E+3  -5.76551E+3
  -7.32654E+3   2.39896E+3
  -5.20335E+2   3.23385E+3
   3.17894E+3  -1.40922E+3
   8.59223E+2  -3.93131E+3
  -1.22070E+3  -1.84003E+2
   3.93695E+2   2.67234E+3
   1.29365E+3  -1.41146E+2
   4.53673E+2  -3.36377E+2
  -2.21394E+2   8.75839E+2
  -5.47576E+2  -8.56316E+2
   7.51875E+2  -2.75978E+2
   1.88752E+3   2.44566E+3
  -9.05445E+2   4.63464E+2
  -1.20657E+3  -2.38480E+3
   1.94115E+3  -3.29435E+0
   7.16694E+1   3.29417E+3
  -3.03966E+3   1.53870E+3
  -1.79203E+2  -2.77616E+3
   1.98030E+3  -1.25352E+3
  -9.89648E+2   2.11114E+3
  -2.42016E+3   8.60841E+2
  -7.91210E+2  -1.98401E+3
   3.33583E+2  -1.88950E+3
   1.11562E+3  -7.09806E+2
   1.58640E+3   2.27443E+2
   2.06479E+2   1.27131E+3
  -1.13295E+3   1.04418E+3
  -2.95578E+2   2.20945E+2
   2.68722E+2  -1.15403E+2
  -8.51545E+2  -6.24192E+2
  -8.64781E+2  -8.52418E+2
   8.79335E+2  -1.36393E+1
   1.71736E+3   6.25362E+1
   9.22459E+2   2.85481E+2
  -5.93432E+0   1.53397E+3
  -1.53652E+3   1.96571E+3
  -1.76585E+3  -9.09799E+2
  -4.09532E+2  -2.34663E+3
   3.41361E+2  -7.45376E+2
   8.46960E+1  -1.89681E+2
   4.81136E+2  -9.00813E+2
   7.32959E+2  -2.60457E+2
  -1.71044E+2   1.13796E+3
  -2.68645E+2   7.24237E+2
  -3.09766E+2  -7.81733E+1
  -8.91059E+2   1.09745E+2
  -6.28359E+2  -6.33174E+2
   9.91584E+2  -1.24463E+3
   1.60972E+3  -2.80386E+2
   5.20050E+2   1.02201E+3
  -6.19555E+2   9.54154E+2
  -4.98340E+2   4.26692E+2
  -1.08556E+3   3.95618E+2
  -1.74854E+3  -1.31199E+2
  -1.39915E+3  -1.48487E+3
   2.98598E+2  -1.96008E+3
   1.47002E+3  -7.36440E+2
   9.36525E+2   9.68725E+2
  -6.84679E+2   4.29272E+2
  -4.64722E+2  -7.06074E+2
   5.91097E+2  -4.01352E+2
   7.37481E+2   7.08037E+2
  -4.10193E+2   8.52617E+2
  -4.93650E+2   2.18401E+1
   5.20831E+1  -1.57633E+2
   2.24879E+2   2.98435E+2
  -4.75842E+2   2.64003E+2
  -6.04619E+2   3.58786E+2
  -3.64650E+2   2.14717E+2
  -5.81042E+2  -2.00879E+2
  -3.12635E+2  -9.27656E+2
   2.06217E+2  -4.94657E+2
   6.80254E+1   4.71027E+2
  -3.09489E+2  -2.28935E+2
   1.22064E+2  -7.26400E+2
   7.15083E+2   5.01154E+1
   3.85547E+2   6.28359E+2
  -1.56547E+2   3.19822E+2
   3.93576E+1  -9.06559E+1
   6.52456E+2   3.93555E+2
   1.02718E+2   1.10186E+3
  -5.70508E+2   8.02292E+2
  -8.95368E+2   1.13271E+2
  -2.26571E+2  -5.16401E+2
   5.66439E+2  -4.95007E+2
   3.79681E+2  -5.55335E+1
   2.35500E+2   1.16725E+2
   1.39946E+2  -1.15664E+2
   6.67748E+2   1.99108E-1
   4.84621E+2   3.93594E+2
   6.44799E+1   6.38922E+2
  -2.40638E+2   4.37694E+2
  -2.14476E+2  -3.51852E+2
   4.15967E+2  -3.71325E+2
   9.93876E+2   5.64045E+2
   2.44895E+2   1.28715E+3
  -7.21681E+2   3.22541E+2
  -3.63088E+2  -9.27992E+2
   1.30071E+3  -1.04485E+3
   1.39487E+3   3.28353E+2
   6.24121E+2   6.38211E+2
   2.47563E+1   5.36307E+2
   2.18008E+2   4.70908E+2
   4.58162E+2   4.77532E+2
  -7.02211E+1   5.50149E+2
  -5.93762E+2   6.52471E+1
  -5.93504E+2  -7.38862E+2
   9.94956E+1  -9.61522E+2
   7.02636E+2  -5.87281E+2
   9.04517E+2  -1.48480E+2
   7.42571E+2   2.54850E+2
   4.26334E+2   3.30945E+2
   1.97915E+2   4.35185E+2
  -7.24192E+1   1.82385E+2
   1.83656E+2  -2.78446E+2
   1.66186E+2  -4.63304E+2
   3.18537E+2  -4.42692E+2
   4.27635E+2  -7.23212E+1
   4.96502E+2   1.46808E+2
  -3.92431E+1   4.05264E+2
  -4.77965E+2  -1.22460E+2
   2.85583E+2  -7.25716E+2
   4.24066E+2  -2.04243E+2
  -4.37042E+1  -9.71155E+1
  -3.36125E+1  -5.16425E+2
   7.55648E+2  -3.96321E+2
   4.71334E+2   5.38298E+1
   2.97048E+2   5.65676E+2
  -2.69048E+2   3.31228E+2
  -5.02362E+2  -1.73400E+2
   9.02761E+1  -6.28439E+2
   5.04585E+2  -5.45509E+2
   5.22699E+2   3.52239E+1
   8.99356E+1   4.77864E+2
  -3.14562E+2   2.22107E+2
  -3.81087E+2  -3.25991E+2
  -1.84708E+2  -1.69695E+2
  -8.11313E+1   2.85160E+1
  -2.69192E+2  -1.46801E+2
   7.69846E+1  -4.88489E+2
   3.15106E+2  -6.51747E+2
   6.43494E+2   7.40006E+1
   2.92830E+2   4.43717E+2
  -2.41200E+2   4.38951E+2
  -2.63524E+2  -3.50915E+2
   2.09233E+2  -5.85844E+1
   2.18873E+2   3.35384E+2
  -1.79470E+2   1.14012E+2
   8.46648E+0  -2.56464E+1
   1.20744E+2   1.44749E+2
  -4.53769E+1   2.50017E+2
  -3.04165E+2   5.63296E+1
  -8.86030E+1  -2.35164E+2
   8.78837E+1  -5.97942E+2
   2.25874E+2  -4.42207E+2
   3.51458E+2   1.69010E+2
  -1.49762E+2   1.83160E+2
  -1.12111E+2   1.28390E+2
  -3.59189E+1  -6.72134E+1
   2.89863E+2   1.39486E+2
   2.24338E+2   1.47822E+2
   1.23832E+2   3.64149E+2
  -1.76143E+2  -2.90354E+2
   2.83229E+1  -5.34282E+1
  -2.32861E+0  -7.45927E+1
  -2.51259E+2   3.17201E+2
  -3.55389E+2   8.36745E+1
  -2.40563E+2  -2.69178E+2
   1.99261E+2  -3.09711E+2
   1.93737E+2   2.01754E+2
   1.00252E+2   4.61694E+2
  -2.06529E+2   1.80849E+2
  -7.96760E+1  -1.11739E+2
  -2.76347E+2  -1.04091E+2
  -1.84352E+2  -1.95490E+2
  -2.47510E+2  -2.36696E+2
  -7.59747E+1  -3.82305E+2
   2.92962E+2  -3.96224E+2
   5.75770E+2   9.57266E+1
   3.58004E+2   6.52846E+2
  -4.03656E+2   3.06362E+2
  -4.46705E+2   7.15322E+1
  -1.52435E+2  -1.14713E+2
  -1.01045E+2  -2.97343E+2
   9.60402E+1   2.43028E+2
   7.57238E+1   2.26660E+1
   1.86327E+1  -1.93293E+1
   8.65548E+1   9.82303E+1
  -2.96115E+2   3.09949E+2
  -2.68182E+2   1.33749E+2
  -3.58134E+2  -2.03676E+2
   2.01990E+2  -3.90880E+2
   1.70895E+2  -1.93279E+2
   2.16457E+2   2.00577E+2
  -3.26474E+1  -9.03433E+1
  -3.14672E+2   7.33363E+1
  -9.09669E+1  -1.02968E+2
  -2.21646E+1   1.28664E+2
  -7.81386E+1   9.42906E+1
  -4.39763E+2  -3.51499E+2
   2.95663E+1  -3.22024E+2
   1.19118E+2  -1.86913E+2
   2.81717E+2   1.73005E+2
  -4.37300E+2   2.63673E+2
  -3.62727E+2  -7.47162E+1
  -2.47536E+2  -1.85053E+2
  -6.04851E+1  -1.42697E+2
  -1.77739E+2  -2.33787E+2
   3.54793E+1   3.14337E+1
  -4.32522E+0  -1.39832E+2
   2.72909E+2  -6.72660E+1
   1.24872E+2   1.49555E+2
  -1.14957E+2   2.72070E+2
  -1.75716E+2   1.12603E+2
  -2.97717E+2  -1.99065E+2
   3.24194E+0  -1.18067E+2
   5.04911E+1   2.14507E+1
  -6.58355E+1   2.86020E+2
  -2.94838E+2  -2.98628E+1
  -1.89920E+2  -8.68120E+1
  -1.45714E+2  -2.02709E+2
  -4.05657E+1   1.61040E+1
  -1.81252E+2  -2.63862E+1
  -1.14325E+2  -2.47304E+2
  -2.08926E+2  -2.99853E+2
  -1.34734E+0   9.82098E+1
  -1.93236E+2   1.99507E+2
  -1.39121E+2  -9.12066E+1
  -8.45023E+1  -3.96573E+1
  -1.35809E+2  -5.02343E+1
  -1.01479E+2  -2.27730E+1
  -2.40130E+2   9.19695E+1
  -1.71333E+2   1.53963E+2
  -7.19513E+1  -8.40178E+1
  -1.63335E+2  -1.32742E+1
   1.45991E+1  -9.48917E+1
  -2.79586E+2  -1.96820E+2
  -1.37199E+2  -1.53293E+2
  -6.27278E+0  -1.10239E+2
   2.61228E+2  -1.37631E+2
  -3.19288E+0   1.90115E+2
  -3.13893E+2   3.16921E+2
  -3.18573E+2  -1.39823E+2
  -1.16741E+2  -1.31277E+2
   1.79669E+2   4.52272E+0
  -6.10709E+1   1.10273E+2
  -2.96078E+1   6.52882E+1
  -2.04712E+2  -6.34290E+1
  -1.00653E+2   1.11620E+2
  -2.51579E+2   8.57245E+0
  -1.97916E+2   4.72960E+1
  -1.78638E+2  -2.44449E+1
   2.40847E+2  -2.32849E+2
  -1.32690E+2  -2.29502E+2
  -1.02857E+2   1.22852E+2
  -7.30047E+1   1.99607E+2
  -3.86020E+2   1.75335E+2
  -1.79089E+2  -5.85335E+1
  -1.70645E+2  -7.87969E+1
  -1.20031E+1  -1.51793E+2
  -1.39762E+2   1.55735E+2
  -4.81068E+1  -2.94400E+1
   1.45225E+2   1.34176E+2
  -3.05703E+1   2.28318E+2
  -1.50054E+2   1.98214E+2
  -1.58516E+2  -3.65763E+1
   8.20186E+1   5.78412E+1
  -8.03497E+1   5.06258E-1
   1.69209E+2   2.33458E+2
  -2.02502E+2  -7.10287E+1
  -1.73766E+2   2.04016E+2
   5.92649E+1   7.96578E+1
  -8.76200E+1   1.13650E+2
  -2.74884E+2   1.40351E+2
  -4.44443E+2  -8.32384E+1
  -1.30786E+2  -1.40323E+2
   1.81451E+2  -2.93352E+2
   2.20131E+2  -2.22539E+1
  -1.19298E+2   4.19612E+2
  -7.07079E+1  -6.30810E+1
  -8.56838E+1  -7.18367E+1
   6.71267E+1   2.11530E+2
   8.71229E+1  -2.08405E+2
  -8.03508E+1  -9.99687E+1
  -6.26134E+1  -1.17182E+2
   4.07672E+1   6.83704E+1
   3.20971E+2   2.79737E+2
  -2.35131E+2   1.57792E+2
  -2.09990E+2   1.52746E+2
  -2.69783E+2  -4.73243E+1
   3.24450E+2  -1.36037E+2
   2.92592E+1  -7.87705E+1
  -1.04574E+2  -3.08652E+0
  -2.70425E+2  -1.16939E+1
  -2.55877E+2   2.28882E+1
   6.98237E+1   1.16504E+2
   2.88104E+1  -5.08415E+1
  -9.30167E+1   3.49569E+0
  -2.83687E+1  -6.17428E+1
  -6.64082E+0  -1.66651E+2
   5.04870E+0   1.02159E+2
   1.45046E+2  -9.24912E+1
  -4.42571E+2   1.24598E+2
  -8.76615E+1  -8.86138E+1
  -1.51940E+2  -1.21595E+2
   2.00315E+1  -2.91795E+1
  -1.29137E+1   1.96715E+2
  -5.48240E+1  -5.82065E+1
  -5.66687E+1  -1.38473E+2
  -3.61204E+0   1.44621E+2
   2.00348E+1  -1.16947E+2
  -2.52365E+2  -2.16125E+1
  -1.08906E+2  -2.44498E+1
   3.62005E+1  -1.93411E+2
   1.55666E+2   2.37289E+1
  -1.26223E+2   1.73296E+2
  -8.07472E+1   2.62703E+2
  -3.03984E+2   1.14361E+2
  -2.62174E+1  -3.10827E+2
   1.15294E+1  -6.16394E+1
   2.98051E+2   1.50946E+2
   1.72277E+2  -2.08261E+1
  -3.21249E+1   2.22834E+2
  -1.25054E+2   5.49925E+1
  -2.25262E+1   8.60800E+1
  -4.76201E+1  -1.50047E+1
  -2.77522E+2  -9.55758E+1
  -1.31595E+2  -1.98373E+2
   2.17055E+2   2.70100E+2
  -8.87734E+1   5.94148E+0
  -1.14215E+2   3.19513E+2
  -1.89235E+2  -6.99654E+1
   3.08854E+1  -2.01527E+2
  -1.55103E+2  -1.10831E+2
   2.00438E+2  -1.40016E+2
  -2.15270E+2  -4.90129E+1
  -1.53181E+2   2.85280E+1
   5.23823E+1  -7.61775E+1
  -9.35471E+1  -5.41093E+1
  -1.50482E+2   1.45375E+2
  -1.50874E+2  -1.52478E+1
  -2.62424E+2  -4.24946E+1
  -1.50644E+2   1.89196E+1
   1.03903E+2  -9.00398E+1
   1.09354E+1  -1.79589E+1
   2.31193E+2  -1.51161E+2
  -1.82939E+2  -1.52821E+2
   5.40142E+1  -1.77659E+2
  -1.03437E+2   3.39243E+1
  -2.20424E+2   2.26807E+1
  -8.47713E+1  -2.30882E+2
  -6.48540E+1   1.61000E+1
   2.86385E+2   7.51816E+1
  -5.07503E+1   5.30030E+1
  -1.97829E+2   3.64197E+1
  -3.64127E+1  -1.01142E+2
