 
 $NMID
 ID=''
 FMTDAT='(2E13.5)'
 TRAMP=   1.00000E+0
 VOLUME=   1.00000E+0
 $END
   6.55477E+5  -1.38194E+5
   1.76099E+6   3.24938E+5
   1.74249E+6   1.32580E+5
   1.63142E+6   1.83511E+5
   1.69563E+6   1.79565E+5
   1.66798E+6   6.22814E+4
   1.60866E+6   4.89227E+4
   1.63516E+6   4.88724E+4
   1.60582E+6   5.08720E+3
   1.56128E+6   1.97212E+4
   1.56783E+6   1.76694E+4
   1.53622E+6  -1.29001E+4
   1.50224E+6  -2.76761E+3
   1.50182E+6   4.74675E+2
   1.46849E+6  -8.22396E+3
   1.43707E+6   4.30546E+3
   1.43593E+6  -1.60952E+3
   1.40824E+6  -2.14093E+4
   1.37707E+6  -2.35286E+4
   1.36513E+6  -4.29957E+4
   1.33517E+6  -5.92259E+4
   1.30600E+6  -5.73965E+4
   1.28872E+6  -6.76446E+4
   1.25844E+6  -8.00932E+4
   1.22799E+6  -7.51470E+4
   1.20492E+6  -8.29763E+4
   1.17720E+6  -8.58603E+4
   1.15299E+6  -7.46428E+4
   1.12870E+6  -7.28303E+4
   1.09772E+6  -7.90331E+4
   1.07525E+6  -7.89210E+4
   1.05388E+6  -8.43646E+4
   1.02460E+6  -8.93065E+4
   9.99379E+5  -9.23385E+4
   9.75282E+5  -1.01489E+5
   9.47698E+5  -1.11100E+5
   9.24707E+5  -1.15660E+5
   9.01270E+5  -1.20478E+5
   8.72448E+5  -1.21724E+5
   8.47759E+5  -1.20268E+5
   8.23335E+5  -1.19455E+5
   7.96600E+5  -1.17859E+5
   7.72218E+5  -1.16043E+5
   7.48815E+5  -1.15241E+5
   7.23626E+5  -1.12448E+5
   7.01784E+5  -1.09670E+5
   6.80063E+5  -1.08919E+5
   6.56877E+5  -1.06874E+5
   6.33160E+5  -1.06059E+5
   6.10836E+5  -1.06962E+5
   5.88919E+5  -1.06491E+5
   5.68112E+5  -1.04637E+5
   5.46792E+5  -1.04047E+5
   5.26151E+5  -1.02878E+5
   5.05549E+5  -9.99726E+4
   4.84552E+5  -9.70275E+4
   4.64523E+5  -9.35373E+4
   4.44470E+5  -9.03899E+4
   4.24627E+5  -8.72997E+4
   4.05464E+5  -8.47651E+4
   3.87603E+5  -8.22963E+4
   3.69504E+5  -7.90778E+4
   3.51822E+5  -7.63980E+4
   3.34514E+5  -7.34019E+4
   3.17107E+5  -7.07384E+4
   2.99809E+5  -6.82247E+4
   2.83357E+5  -6.57046E+4
   2.67388E+5  -6.31980E+4
   2.52056E+5  -6.02210E+4
   2.37430E+5  -5.67705E+4
   2.22360E+5  -5.33394E+4
   2.07352E+5  -5.03896E+4
   1.94057E+5  -4.73832E+4
   1.80311E+5  -4.42205E+4
   1.66474E+5  -4.08901E+4
   1.52910E+5  -3.79231E+4
   1.40647E+5  -3.49010E+4
   1.28062E+5  -3.20690E+4
   1.15923E+5  -2.94745E+4
   1.03968E+5  -2.68509E+4
   9.26443E+4  -2.39278E+4
   8.14101E+4  -2.12661E+4
   7.07904E+4  -1.85730E+4
   6.10272E+4  -1.57244E+4
   5.11116E+4  -1.25846E+4
   4.11186E+4  -9.70064E+3
   3.22039E+4  -7.07791E+3
   2.33027E+4  -4.40970E+3
   1.42882E+4  -1.83357E+3
   6.35854E+3   4.79206E+2
  -1.36909E+3   3.01470E+3
  -8.83532E+3   5.42587E+3
  -1.61955E+4   8.08575E+3
  -2.30215E+4   9.95572E+3
  -2.96841E+4   1.21896E+4
  -3.59011E+4   1.45665E+4
  -4.17838E+4   1.68383E+4
  -4.75264E+4   1.90138E+4
  -5.29988E+4   2.08286E+4
  -5.77743E+4   2.31568E+4
  -6.26534E+4   2.52920E+4
  -6.73891E+4   2.74814E+4
  -7.18449E+4   2.89410E+4
  -7.58324E+4   3.06717E+4
  -7.97272E+4   3.23823E+4
  -8.29938E+4   3.41536E+4
  -8.62507E+4   3.59883E+4
  -8.93632E+4   3.72587E+4
  -9.20338E+4   3.88140E+4
  -9.43699E+4   4.02207E+4
  -9.68270E+4   4.16306E+4
  -9.87659E+4   4.31399E+4
  -1.00782E+5   4.43614E+4
  -1.02411E+5   4.52986E+4
  -1.03986E+5   4.65549E+4
  -1.05207E+5   4.76466E+4
  -1.06430E+5   4.88090E+4
  -1.07334E+5   4.94549E+4
  -1.07878E+5   5.03039E+4
  -1.08758E+5   5.11396E+4
  -1.09074E+5   5.21008E+4
  -1.09701E+5   5.26628E+4
  -1.09495E+5   5.31030E+4
  -1.09937E+5   5.38437E+4
  -1.09927E+5   5.44040E+4
  -1.10009E+5   5.45822E+4
  -1.09442E+5   5.44833E+4
  -1.09290E+5   5.48416E+4
  -1.09062E+5   5.50053E+4
  -1.08355E+5   5.49023E+4
  -1.08111E+5   5.45968E+4
  -1.07462E+5   5.41124E+4
  -1.07102E+5   5.40136E+4
  -1.06439E+5   5.33916E+4
  -1.05433E+5   5.31738E+4
  -1.04825E+5   5.27186E+4
  -1.04233E+5   5.23060E+4
  -1.03274E+5   5.20558E+4
  -1.02586E+5   5.15547E+4
  -1.02086E+5   5.11369E+4
  -1.00738E+5   5.03438E+4
  -9.99293E+4   4.94287E+4
  -9.87660E+4   4.88332E+4
  -9.75478E+4   4.80891E+4
  -9.67906E+4   4.76517E+4
  -9.57983E+4   4.68781E+4
  -9.46314E+4   4.58976E+4
  -9.34689E+4   4.46988E+4
  -9.23167E+4   4.38246E+4
  -9.09547E+4   4.30871E+4
  -8.99155E+4   4.21231E+4
  -8.88345E+4   4.12642E+4
  -8.74571E+4   4.02281E+4
  -8.64734E+4   3.94520E+4
  -8.55721E+4   3.86330E+4
  -8.44522E+4   3.77058E+4
  -8.33250E+4   3.65679E+4
  -8.17433E+4   3.54318E+4
  -8.06310E+4   3.46423E+4
  -7.98383E+4   3.36151E+4
  -7.85921E+4   3.26516E+4
  -7.73909E+4   3.14689E+4
  -7.61396E+4   3.04291E+4
  -7.49023E+4   2.95404E+4
  -7.38064E+4   2.84160E+4
  -7.27231E+4   2.74493E+4
  -7.17908E+4   2.66591E+4
  -7.06544E+4   2.57470E+4
  -6.96545E+4   2.47287E+4
  -6.83949E+4   2.35821E+4
  -6.72383E+4   2.27151E+4
  -6.61440E+4   2.17191E+4
  -6.52424E+4   2.05539E+4
  -6.40520E+4   1.98639E+4
  -6.27019E+4   1.86878E+4
  -6.20635E+4   1.78464E+4
  -6.08306E+4   1.65622E+4
  -5.99181E+4   1.55762E+4
  -5.88593E+4   1.45666E+4
  -5.78487E+4   1.33847E+4
  -5.68222E+4   1.25099E+4
  -5.56417E+4   1.16691E+4
  -5.49964E+4   1.06209E+4
  -5.40714E+4   9.29987E+3
  -5.28299E+4   8.33566E+3
  -5.22605E+4   7.37125E+3
  -5.08345E+4   6.27174E+3
  -5.01348E+4   5.22800E+3
  -4.95346E+4   4.40016E+3
  -4.83487E+4   3.44809E+3
  -4.75599E+4   2.51910E+3
  -4.67800E+4   1.52212E+3
  -4.59188E+4   5.45009E+2
  -4.51135E+4  -4.24481E+2
  -4.42816E+4  -1.49134E+3
  -4.34643E+4  -2.46020E+3
  -4.25162E+4  -3.54872E+3
  -4.18134E+4  -4.29354E+3
  -4.11545E+4  -5.40159E+3
  -4.04739E+4  -6.32171E+3
  -3.95327E+4  -7.26800E+3
  -3.86523E+4  -8.02198E+3
  -3.80663E+4  -9.19372E+3
  -3.73748E+4  -9.97788E+3
  -3.66854E+4  -1.05616E+4
  -3.58040E+4  -1.17866E+4
  -3.52629E+4  -1.23342E+4
  -3.45897E+4  -1.34084E+4
  -3.41211E+4  -1.40023E+4
  -3.33353E+4  -1.46583E+4
  -3.25010E+4  -1.56060E+4
  -3.22127E+4  -1.62479E+4
  -3.15325E+4  -1.70101E+4
  -3.09643E+4  -1.77509E+4
  -3.03087E+4  -1.83062E+4
  -2.97586E+4  -1.90709E+4
  -2.90764E+4  -1.96840E+4
  -2.85744E+4  -2.01445E+4
  -2.78176E+4  -2.07886E+4
  -2.71703E+4  -2.14388E+4
  -2.68700E+4  -2.19452E+4
  -2.63564E+4  -2.23873E+4
  -2.58616E+4  -2.30079E+4
  -2.55333E+4  -2.33745E+4
  -2.49794E+4  -2.39528E+4
  -2.42079E+4  -2.42313E+4
  -2.40271E+4  -2.49620E+4
  -2.35213E+4  -2.52402E+4
  -2.33970E+4  -2.54312E+4
  -2.28399E+4  -2.58425E+4
  -2.25509E+4  -2.61151E+4
  -2.19803E+4  -2.63870E+4
  -2.17108E+4  -2.65333E+4
  -2.12627E+4  -2.68580E+4
  -2.09491E+4  -2.70944E+4
  -2.03939E+4  -2.73374E+4
  -1.99509E+4  -2.75394E+4
  -1.97656E+4  -2.75940E+4
  -1.95520E+4  -2.77748E+4
  -1.91147E+4  -2.77041E+4
  -1.91918E+4  -2.79982E+4
  -1.88811E+4  -2.79866E+4
  -1.86596E+4  -2.79650E+4
  -1.80615E+4  -2.81982E+4
  -1.77926E+4  -2.83511E+4
  -1.73063E+4  -2.81549E+4
  -1.71350E+4  -2.80707E+4
  -1.69501E+4  -2.81260E+4
  -1.65970E+4  -2.82580E+4
  -1.64876E+4  -2.79445E+4
  -1.60910E+4  -2.79359E+4
  -1.59604E+4  -2.80030E+4
  -1.56870E+4  -2.77371E+4
  -1.55670E+4  -2.77677E+4
  -1.49091E+4  -2.76745E+4
  -1.44585E+4  -2.73977E+4
  -1.44070E+4  -2.73806E+4
  -1.40098E+4  -2.70554E+4
  -1.37539E+4  -2.68904E+4
  -1.35098E+4  -2.68826E+4
  -1.30522E+4  -2.68223E+4
  -1.28247E+4  -2.63861E+4
  -1.26846E+4  -2.62673E+4
  -1.21561E+4  -2.60492E+4
  -1.15856E+4  -2.56478E+4
  -1.13496E+4  -2.52654E+4
  -1.10786E+4  -2.54275E+4
  -1.07602E+4  -2.49913E+4
  -1.03249E+4  -2.46623E+4
  -9.72748E+3  -2.46957E+4
  -9.65364E+3  -2.41873E+4
  -9.26689E+3  -2.40403E+4
  -9.01669E+3  -2.37773E+4
  -8.33946E+3  -2.34556E+4
  -8.02054E+3  -2.29876E+4
  -7.70742E+3  -2.27047E+4
  -7.31180E+3  -2.25364E+4
  -6.92686E+3  -2.24186E+4
  -6.61331E+3  -2.19724E+4
  -6.16759E+3  -2.16423E+4
  -5.91109E+3  -2.14903E+4
  -5.26499E+3  -2.10900E+4
  -4.86831E+3  -2.06299E+4
  -4.67974E+3  -2.08515E+4
  -4.48658E+3  -2.03517E+4
  -4.06482E+3  -1.98848E+4
  -3.59162E+3  -1.98131E+4
  -3.24261E+3  -1.95745E+4
  -2.80805E+3  -1.88936E+4
  -2.80649E+3  -1.86548E+4
  -2.22123E+3  -1.83279E+4
  -1.92783E+3  -1.82974E+4
  -1.69051E+3  -1.79150E+4
  -1.39272E+3  -1.75734E+4
  -1.06028E+3  -1.71879E+4
  -7.85049E+2  -1.67803E+4
  -5.15660E+2  -1.65841E+4
  -2.50678E+2  -1.63860E+4
   6.71995E+1  -1.59710E+4
   3.03445E+2  -1.58183E+4
   4.65589E+2  -1.53820E+4
   7.80543E+2  -1.51944E+4
   1.22542E+3  -1.47761E+4
   1.23370E+3  -1.44726E+4
   1.36451E+3  -1.41604E+4
   1.70047E+3  -1.40493E+4
   1.95482E+3  -1.33149E+4
   2.01815E+3  -1.28526E+4
   2.25705E+3  -1.28482E+4
   2.47666E+3  -1.24528E+4
   2.69547E+3  -1.21915E+4
   2.79649E+3  -1.18651E+4
   2.96866E+3  -1.14509E+4
   3.04090E+3  -1.11108E+4
   3.17406E+3  -1.07151E+4
   3.38229E+3  -1.03872E+4
   3.38496E+3  -1.00024E+4
   3.75597E+3  -9.64056E+3
   3.76551E+3  -9.31286E+3
   4.02878E+3  -8.98973E+3
   3.81354E+3  -8.46675E+3
   4.03204E+3  -8.28459E+3
   4.15619E+3  -7.83132E+3
   4.24134E+3  -7.54236E+3
   4.20654E+3  -7.22315E+3
   4.27964E+3  -6.89640E+3
   4.34286E+3  -6.36860E+3
   4.50323E+3  -6.01018E+3
   4.64861E+3  -5.57737E+3
   4.81627E+3  -5.39861E+3
   4.68314E+3  -5.17352E+3
   4.69964E+3  -4.57929E+3
   4.77543E+3  -4.43191E+3
   4.92244E+3  -4.27141E+3
   4.91321E+3  -3.72113E+3
   4.86120E+3  -3.29000E+3
   5.19908E+3  -3.12029E+3
   4.89873E+3  -2.82954E+3
   5.07720E+3  -2.50949E+3
   5.22665E+3  -2.17189E+3
   4.98388E+3  -2.18211E+3
   4.95575E+3  -1.43741E+3
   5.13516E+3  -1.28060E+3
   5.14479E+3  -9.61788E+2
   4.87582E+3  -5.27437E+2
   4.83237E+3  -5.92489E+2
   4.98570E+3  -4.61803E+2
   4.95401E+3   1.67010E+2
   4.97396E+3   2.63880E+2
   4.86640E+3   5.71679E+2
   4.87544E+3   8.71237E+2
   4.70436E+3   1.13429E+3
   4.56113E+3   1.22625E+3
   4.81540E+3   1.50099E+3
   4.65661E+3   1.45422E+3
   4.39173E+3   1.82363E+3
   4.37678E+3   1.80835E+3
   4.32619E+3   2.16761E+3
   4.11961E+3   2.44243E+3
   3.90575E+3   2.59151E+3
   4.00244E+3   2.67859E+3
   3.77926E+3   2.96203E+3
   3.72194E+3   2.91805E+3
   3.60179E+3   3.33939E+3
   3.44774E+3   3.25735E+3
   3.08961E+3   3.32931E+3
   3.35955E+3   3.49570E+3
