 
 $NMID
 ID=''
 FMTDAT='(2E13.5)'
 TRAMP=   1.00000E+0
 VOLUME=   1.00000E+0
 $END
  -1.56795E+4   9.86897E+3
  -1.31619E+4   2.94936E+4
   2.71388E+4   1.94942E+4
   2.99545E+4  -1.76207E+4
  -1.31502E+4  -2.89103E+4
  -3.28944E+4  -2.03087E+3
  -7.32086E+3   2.31507E+4
   2.04731E+4   1.67058E+4
   1.90111E+4  -9.73585E+3
  -3.45731E+3  -1.89528E+4
  -1.83568E+4  -4.54745E+2
  -8.56283E+3   1.50412E+4
   8.62979E+3   9.36368E+3
   1.01124E+4  -4.17243E+3
  -8.37308E+2  -1.02800E+4
  -8.39111E+3  -4.97878E+3
  -4.59469E+3   5.12284E+3
   4.16165E+3   6.67270E+3
   6.33901E+3  -3.85160E+2
   1.22886E+3  -4.40871E+3
  -3.96435E+3  -2.29769E+3
  -1.68175E+3   6.83299E+2
   2.50985E+3   3.45626E+3
   1.85883E+3   2.50249E+3
  -5.89914E+2  -2.63791E+3
   9.08437E+2  -2.55157E+3
   1.60468E+3   2.49204E+3
  -1.48528E+3   2.63769E+3
  -1.69375E+3  -1.37614E+3
   2.21977E+3  -1.45365E+3
   1.59307E+3   1.72606E+3
  -1.61551E+3   1.64867E+3
  -1.71165E+3  -7.94144E+2
   1.69638E+2  -1.40530E+3
   2.55489E+2  -2.85240E+2
   3.37781E+2   1.12915E+2
   8.90019E+2   8.49459E+2
   8.77218E+2   9.21865E+2
  -3.02628E+2   1.10048E+2
  -9.82000E+2  -4.13947E+2
  -7.05017E+2   1.43480E+2
   3.40157E+2   1.35789E+2
   8.74673E+2  -5.64635E+2
   6.91462E+2  -1.09768E+3
   9.45418E+2  -3.51928E+2
   4.81680E+2   1.40674E+3
  -6.51645E+2   2.33257E+3
  -1.61562E+3   3.29774E+2
  -8.56980E+2  -1.36029E+3
   3.27265E+1  -1.01609E+3
  -8.52259E+1  -1.52819E+2
   1.06197E+2  -3.40268E+2
   8.17543E+2  -2.01149E+2
   9.15352E+2   4.21837E+2
  -1.97645E+1   5.34553E+2
  -4.78064E+2   1.56915E+2
  -7.92562E+2  -2.46936E+2
  -6.48465E+2  -2.55141E+2
   5.56893E+2  -1.06560E+3
   1.06088E+3  -7.04655E+2
   9.54081E+2   6.35642E+1
   3.51732E+2   6.77166E+2
  -2.89541E+2   1.10727E+3
  -7.17964E+2   5.40279E+2
  -9.28209E+2  -4.77373E+2
  -8.59476E+2  -1.35951E+3
  -2.67459E+2  -1.37193E+3
   7.19341E+2  -8.36562E+2
   9.50176E+2   4.95978E+0
   4.42055E+2   4.77765E+2
  -3.06239E+2  -5.23494E+2
   2.52090E+2  -8.67200E+2
   6.55789E+2   3.72063E+2
   4.71367E+1   1.06441E+3
  -3.18282E+2   1.05234E+2
   8.47922E+1  -8.76407E+2
   7.48677E+1  -4.21031E+2
  -3.13664E+2   4.32280E+2
  -2.12627E+2   2.56204E+2
  -4.66388E+1  -3.64705E+2
   4.91863E+1  -8.11520E+2
  -4.34080E+2  -6.23995E+2
  -2.42499E+2  -1.93662E+2
  -5.26486E+1  -3.41951E+2
   2.43975E+2  -5.50461E+2
   4.61658E+2  -5.06101E+2
   4.08559E+2  -2.68825E+2
   2.34329E+2  -8.09621E+1
   6.33374E+0  -1.82193E+2
   1.98689E+2  -3.71220E+1
   4.28970E+2   1.12222E+2
  -1.27076E-1   1.73211E+2
  -6.94062E+2   2.19984E+2
  -7.93902E+2  -2.25598E+2
  -2.50575E+2  -5.69173E+2
   3.07718E+2  -6.50556E+2
   2.91698E+2   7.82455E+1
  -2.06375E+2   1.80799E+2
  -1.32227E+2  -4.30944E+2
   6.03489E+2  -2.12722E+2
   2.63309E+2   5.02281E+2
  -3.18931E+2   6.71316E+2
  -5.06033E+2  -2.13074E+2
  -1.17552E+2  -8.15891E+2
   3.23129E+2  -2.76477E+2
   1.93066E+1   7.93549E+2
  -4.78821E+2   6.88273E+2
  -7.02268E+2   6.51140E+1
  -1.16610E+2  -9.89468E+2
   8.09006E+2  -8.82828E+2
   1.00957E+3   5.13910E+1
   1.15632E+2   5.60622E+2
  -3.62186E+2   4.63182E+2
  -8.05510E+1   1.78056E+2
   7.65860E+1   1.38072E+2
  -1.91521E+2   1.29125E+2
  -7.26475E+2  -5.02715E+1
  -4.28507E+2  -6.31687E+2
   4.29603E+2  -7.29999E+2
   7.88707E+2  -3.09308E+2
   6.02576E+2   2.30079E+2
   3.43194E+2   2.36418E+2
  -2.10550E+1   5.94268E+2
  -9.44871E+1   4.19615E+2
  -2.92358E+2   1.51273E+2
   2.45037E+1  -2.65042E+2
   1.51626E+2  -3.45466E+2
   1.26902E+2   1.84554E+2
   2.18810E+2   2.42773E+2
  -1.22852E-1   3.38955E+2
  -2.55117E+2   2.04436E+2
  -5.31585E+2  -4.20226E+2
   1.52569E+2  -5.08071E+2
   2.60183E+2   1.22920E+2
   4.80845E+1  -1.05937E+0
   1.01924E+2  -2.04357E+2
   4.95589E+2  -2.64407E+2
   5.59329E+2   1.10281E+2
  -1.77858E+2   7.45749E+2
  -2.37250E+2   6.99078E+1
  -2.32343E+2  -3.88724E+2
   2.06329E+2  -1.76416E+2
   3.27452E+2   3.76151E+2
   1.84273E+2   4.74001E+2
  -2.61915E+2   2.08703E+2
  -5.15000E+2  -1.74403E+2
  -2.57611E+2  -2.18785E+2
  -2.50632E+2  -2.89773E+2
  -7.21125E+1  -2.79002E+2
   9.37827E+1  -5.17824E+2
   3.49741E+2  -2.31310E+2
   1.30628E+2  -5.19698E+0
   3.37637E+2   4.50919E+2
  -7.48793E+1   1.76144E+2
  -1.37935E+2   1.94246E+2
  -1.04514E+2  -1.11309E+2
  -1.53546E+2   4.01475E+1
  -3.70127E+2  -6.84180E+1
  -3.05006E+2   8.91348E+0
  -1.37507E+2  -6.12581E+1
  -1.76135E+1   7.50901E+1
  -1.48246E+2   2.09314E+2
  -2.39210E+2   4.64551E+1
  -2.39636E+2  -4.50186E+2
   4.91003E+2  -3.80926E+2
   5.85904E+2   1.39678E+2
   1.20717E+2   2.02477E+2
  -1.14457E+2   1.35850E+2
  -1.60460E+1  -4.87624E+1
   6.34426E+1  -1.68543E+2
   1.69273E+0   2.75516E+2
  -1.09231E+2   4.50239E+1
  -2.19227E+2   1.04549E+1
  -3.11429E+2  -9.11536E-1
  -1.35928E+2   2.39433E+0
  -6.36230E+1   8.41962E+1
  -2.44598E+2  -6.33525E+1
  -1.66618E+2  -2.97571E+2
   2.84741E+2  -3.32331E+2
   2.77766E+2   2.05547E+1
  -1.87260E+2   4.44214E+2
  -4.69123E+2   1.53663E+2
  -2.94564E+2  -6.50537E+0
  -3.55931E+1  -1.58412E+2
  -2.27886E+2  -3.00743E+2
  -1.97295E+2  -1.06893E+2
   7.56403E+1   1.60185E+1
   2.45152E+2  -7.01485E+0
   2.85737E+2   3.45613E+2
   7.06358E+1   4.22134E+2
  -2.96188E+2   5.39411E+2
  -6.39614E+2  -1.99888E+2
  -1.74449E+2  -4.60671E+2
   1.30155E+2  -3.66281E+2
   2.16295E+2  -7.99235E+1
   1.48840E+2  -2.61291E+2
   9.97539E+1   1.32004E+2
   1.67558E+1   2.43921E+1
  -3.32656E+2   1.06716E+2
  -8.32469E+1   8.79758E+1
  -2.44015E+2  -2.52144E+2
   5.57763E+1  -2.92753E+2
   3.91945E+2  -9.59779E+1
   1.92301E+2   7.79933E+1
  -1.99161E+2   4.63130E+1
  -2.54352E+2  -1.15274E+1
  -2.27401E+2  -1.69049E+2
   1.85379E+2   8.16251E+0
  -1.91595E+2   5.43583E+1
  -8.17702E+1  -1.17270E+2
   1.54291E+2  -5.79386E+0
   4.63564E+2  -1.51324E+2
   2.13687E+0   3.15968E+2
  -4.75895E+2   1.54483E+2
  -4.23121E+2  -3.06368E+2
   2.23651E+1  -3.40311E+2
   2.19169E+2  -3.15346E+2
   3.18750E+1  -6.34608E+1
   2.33093E+2  -2.75854E+1
  -7.13905E+0   1.96202E+2
   1.30393E+2   2.93822E+0
   1.59721E+2   2.84142E+2
  -1.49209E+2   2.51029E+2
  -4.65095E+2  -6.28647E+0
  -1.13246E+2  -3.44571E+2
   2.22823E+2  -2.01334E+2
   8.01254E+1   1.42471E+1
  -3.04712E+2   1.60847E+2
  -1.53994E+2  -1.00349E+2
  -3.21893E+1  -1.17335E+0
   1.70062E+2  -7.18195E+1
  -1.61681E+2   5.44784E+1
  -2.42437E+2  -1.13795E+2
   8.26083E+0  -5.54731E+1
   2.84423E+1   3.58668E+1
  -2.48621E+1  -1.20224E+2
  -2.99001E+2  -1.71694E+2
   4.37297E+1   4.02017E+1
  -1.26178E+1  -1.80819E+2
   2.18899E+2  -3.16697E+2
   6.09336E+1   1.62790E+2
   1.53995E+2  -7.35119E+1
  -9.12650E+1   4.98999E+1
  -1.78581E+2  -4.65265E+2
   8.75672E+1  -2.02884E+2
  -1.45300E+2   1.29971E+2
  -7.08849E+1   7.00405E+1
   1.58893E+2  -1.65131E+2
   3.44799E+2  -1.88180E+2
   8.05158E+1   3.04113E+2
   9.87684E+1   1.59427E+2
  -1.71946E+2  -2.20246E+2
  -1.07664E+2  -2.29554E+2
  -7.22919E+1  -2.87120E+2
   1.65344E+2  -1.13825E+2
  -6.06256E+1   2.74780E+1
  -1.50241E+2   2.74892E+1
  -1.21898E+2  -3.57710E+2
  -4.56717E+1   1.18670E+2
  -3.43352E+2  -6.85738E+0
  -1.40577E+2  -8.30377E+1
   2.87968E+1  -6.81427E+1
   2.55686E+2  -4.06066E+2
   1.63318E+2   1.37661E+2
   2.11759E+2   2.15344E+2
  -3.31723E+2   3.26356E+2
  -8.20694E+1  -1.12420E+2
  -1.93270E+1  -3.95737E+2
   7.47612E+1  -1.90744E+2
   2.28243E+1  -1.43128E+2
  -2.73480E+1  -4.48440E+1
   1.24100E+2   1.82688E+2
   6.25382E+0  -1.55597E+2
  -2.75570E+2   5.18232E+1
  -4.43377E+2   1.74619E+0
  -1.51699E+2  -2.81634E+2
  -1.33933E+1  -2.47264E+2
   2.58298E+2  -2.14706E+2
   2.90654E+1   9.58959E+0
   1.23606E+1  -8.38078E+0
  -1.47469E+2  -7.08745E+0
  -4.57308E+1  -6.55625E+1
  -1.18827E+2  -7.97277E+1
  -2.81546E+2  -5.96862E+1
  -1.67592E+2  -2.72384E+2
   3.50394E+0  -1.19892E+2
   2.27474E+2  -2.18137E+2
   7.59880E+1   1.31791E+2
  -9.11545E+1   5.88119E+1
  -3.02651E+2  -7.01306E+1
   1.08465E+2  -1.65365E+2
  -7.02069E+1  -9.88545E+1
   3.77973E+1   5.16170E+0
   4.60625E+0  -1.05887E+1
   1.34962E+2  -1.14723E+2
   1.36568E+2   1.94715E+2
  -3.39850E+2   3.96565E+1
   2.21306E+1   1.22707E+2
  -9.26457E+1  -2.86933E+2
  -4.91405E+0  -2.21655E+2
  -3.42913E+1  -2.57750E+2
  -9.99775E+1   1.02990E+2
  -1.71818E+2   1.12586E+2
  -2.76323E+1  -2.23304E+2
  -1.27269E+2  -5.45842E+1
  -8.95616E+1  -7.55713E+1
  -2.53956E+0   7.30940E+1
  -1.60903E+0  -7.80417E+1
   2.97310E+2  -1.44167E+2
   1.21450E+1  -4.35640E+1
  -3.06527E+0  -1.17567E+2
  -4.96318E-1  -5.70848E+1
   4.53277E+0  -2.04371E+2
   1.38569E+1   5.06997E+0
   2.22358E+2  -1.80993E+2
   1.82569E+2   1.87209E+1
   2.34540E+1   8.18336E+1
   1.73380E+2  -9.88511E+0
  -1.21408E+2  -2.20536E+1
  -1.36979E+2   1.17283E+2
  -2.08302E+2   6.86940E+1
  -1.37393E+2   6.51068E+1
   7.53822E+1   4.56339E+1
   3.59099E+1   8.29351E+1
   2.63036E+2   8.08178E+1
  -1.90259E+2  -7.87917E+1
  -2.46921E+2  -3.15061E+1
  -1.28456E+2  -2.23003E+2
   7.29902E+1  -1.13121E+1
  -1.77856E+2  -7.12311E+1
   1.17956E+2   1.80926E+2
  -2.30519E+1  -8.30245E+1
   4.01645E+1   2.36826E+2
  -8.94135E+1   1.68913E+2
  -3.15466E+2  -6.88423E+1
  -1.85769E+1   9.22481E+1
   1.11001E+2  -1.85176E+2
   1.75439E+2   6.77455E+0
   3.44234E+2   1.46719E+2
  -6.25079E+0   4.22855E+1
  -1.47144E+2   2.17212E+2
   3.66970E+1  -5.69233E+1
   9.26184E+1   1.29001E+2
  -1.34851E+2  -9.45893E+1
  -1.78966E+2  -1.01857E+2
  -1.76013E+2  -6.96392E+1
   1.25826E+2   1.36121E+1
   1.10456E+2  -6.75679E+0
  -1.90013E+2   2.93289E+2
  -7.16753E+1   2.35960E+1
  -5.08528E+1  -1.86051E+2
   1.14950E+2  -4.80225E+1
   3.57230E+1  -1.08655E+2
  -1.53625E+2   1.92880E+1
   2.72985E+2  -1.75947E+2
   1.66308E+2   1.21009E+2
   1.07703E+2   2.73228E+2
   4.13981E+1   1.11244E+2
  -1.88434E+2  -1.85281E+1
  -9.95282E+1  -1.81255E+0
  -5.28532E+1  -5.15507E+1
   3.47217E+0  -1.23070E+2
   5.49755E+1   2.41209E+1
  -1.42535E+2   1.33925E+2
  -3.23322E+2  -1.38799E+2
   1.49630E+1   2.48844E+1
   2.42070E+2   9.33855E+1
