 
 $NMID
 ID=''
 FMTDAT='(2E13.5)'
 TRAMP=   1.00000E+0
 VOLUME=   1.00000E+0
 $END
   2.08934E+4  -4.52311E+2
   2.56611E+4  -2.29776E+4
  -1.85413E+4  -3.22269E+4
  -3.02371E+4   1.97688E+4
   1.49275E+4   3.48803E+4
   2.81332E+4  -1.29765E+4
  -8.38527E+3  -2.52247E+4
  -1.83606E+4   9.25298E+3
   7.29486E+3   1.85356E+4
   1.29650E+4  -7.28446E+2
  -5.05972E+3  -7.85265E+3
  -1.06086E+4   4.96820E+2
   1.35843E+3   7.84829E+3
   5.61369E+3   3.37233E+3
  -2.30747E+3  -5.98475E+3
  -3.41493E+3  -4.80598E+3
   2.85813E+3   3.71726E+3
   2.02645E+3   3.88748E+3
  -1.71564E+3  -1.36696E+3
   2.29398E+2  -2.52969E+3
   8.30996E+2   3.27456E+2
  -2.16765E+2   1.27632E+3
   1.19332E+3   3.16992E+2
   2.32731E+2  -5.08995E+2
  -1.16356E+3  -5.83536E+2
   8.40733E+2   1.76177E+2
   1.45643E+3   1.42941E+3
  -6.42951E+2   8.20705E+2
  -8.72595E+2  -1.06807E+3
  -6.20424E+1  -2.29144E+2
  -3.20909E+2   8.23503E+2
  -4.78499E+2  -1.86006E+2
  -1.25724E+2  -3.34928E+2
  -1.25404E+3  -2.91706E+2
  -1.02821E+3  -2.57189E+3
   1.87390E+3  -2.39323E+3
   2.00377E+3   1.97902E+3
  -9.48182E+2   2.22534E+3
  -1.25557E+3  -1.36741E+3
   3.74753E+2  -6.75462E+2
  -6.51383E+2   1.31655E+3
  -1.67959E+3  -7.71818E+2
   6.60921E+2  -2.41220E+3
   2.10405E+3  -5.17122E+2
   4.33302E+2   1.32925E+3
  -4.51772E+2   9.20197E+2
  -9.37263E+1   4.14803E+2
  -9.56724E+2   4.27406E+2
  -1.75703E+3  -3.71465E+2
  -7.44624E+2  -1.80754E+3
   4.74191E+2  -1.01149E+3
   5.46336E+2  -9.86840E+1
   2.04640E+2  -1.74375E+2
   1.19041E+2  -2.35125E+2
   4.76757E+2   1.84116E+2
  -4.15251E+2   8.50502E+2
  -1.37380E+3   3.51763E+2
  -6.33370E+2  -1.95460E+3
   1.17269E+3  -1.58494E+3
   1.31477E+3   5.10705E+2
   2.72344E+2   7.90979E+2
  -4.70663E+1   6.71279E+1
   5.48019E+2   8.84648E+2
  -9.56799E+2   1.66835E+3
  -2.26018E+3   1.64383E+2
  -1.09252E+3  -1.96152E+3
   3.95327E+2  -1.46898E+3
   8.87477E+2  -2.68606E+2
   7.73983E+2  -6.48779E+1
   5.94000E+2  -2.17960E+1
  -3.40892E+1  -4.15102E+2
  -2.78798E+2  -2.89595E+2
   7.68069E+2   1.42276E+2
   6.77570E+2   2.92239E+2
  -3.68891E+2   4.48383E+2
  -4.16503E+2  -1.60830E+1
   1.69554E+2  -6.24806E+1
   2.87585E+2   3.40298E+2
  -2.21471E+2   3.63381E+2
  -7.28087E+2  -5.48410E+1
  -2.14223E+2  -4.24699E+2
   2.13313E+2  -8.19845E+2
   3.33738E+2  -1.01446E+2
  -9.20073E+1   1.03636E+2
   1.39214E+2  -4.80205E+2
   5.32151E+2  -6.60877E+2
   8.05205E+2   1.81987E+1
   1.04188E+2   5.66015E+2
  -2.62351E+1   3.65391E+1
   3.02671E+2  -2.13215E+2
   5.41059E+2   1.25748E+2
  -4.99751E+1   8.44782E+2
  -2.22633E+2   6.79288E+2
  -8.35214E+2   1.58771E+2
  -7.03738E+2  -9.37251E+2
   1.45600E+2  -6.89735E+2
   9.06126E+2  -3.55731E+1
   2.76013E+2  -1.33891E+2
  -1.88595E+2  -3.89888E+2
   4.80171E+2  -5.06371E+2
   4.83966E+2   4.49190E+2
   2.32289E+2   7.83749E+2
  -8.26933E+2  -2.01187E+2
  -3.27595E+2  -1.00329E+3
   4.13672E+2  -6.18008E+2
   7.84924E+2   1.70782E+2
  -8.25364E+1   4.53641E+2
  -7.77374E+2  -1.32267E+2
  -3.74769E+2  -1.05046E+3
   1.00424E+3  -7.55828E+2
   8.96391E+2   6.33042E+1
   3.32496E+2   6.00987E+2
  -6.64413E+1   6.21539E+2
   5.21919E+1   4.03216E+2
  -4.58315E+1   2.07911E+2
  -5.42752E+2   3.77507E+2
  -9.42383E+2   1.01460E+2
  -6.86140E+2  -5.64081E+2
   3.37889E+1  -1.17025E+3
   7.26754E+2  -8.62173E+2
   8.20357E+2   6.79890E+1
   4.71062E+2   6.20133E+2
   2.95245E+2   3.64553E+2
  -1.42357E+2   5.39103E+2
  -4.37714E+2   1.48087E+2
  -4.18415E+2   7.33168E+1
  -1.26757E+2  -2.77154E+2
   1.10086E+2  -3.41299E+2
   2.53982E+2   2.94522E+2
   2.10060E+2   6.83957E+2
  -3.32940E+2   5.50818E+2
  -8.01255E+2  -1.52127E+2
  -5.57482E+1  -2.48596E+2
   4.44621E+2   9.99515E+1
  -1.59581E+2   2.12015E+2
   3.38490E+0  -3.35724E+2
   2.01090E+2  -1.53327E+2
   4.00605E+2   2.62111E+2
  -1.42682E+2   5.38818E+2
  -6.18998E+2   3.25740E+2
  -4.75456E+2  -1.32458E+2
   8.98233E+1  -5.21759E+2
   7.06735E+2  -1.04819E+2
   5.58484E+2   4.59428E+2
  -2.69652E+2   6.13862E+2
  -4.15713E+2   2.58162E+2
  -2.37085E+2  -1.18587E+2
  -1.19139E+1  -1.22499E+2
  -8.67980E+0  -1.37350E+2
  -1.55384E+2  -4.82258E+2
   1.08264E+2  -4.96367E+2
   7.10105E+2  -2.01605E+2
   7.44821E+2   3.08053E+2
   3.70555E+2   4.44681E+2
  -1.63209E+2   1.34153E+2
  -8.98695E+1  -1.62515E+2
   2.54132E+2   2.40590E+1
   1.27147E+2   2.77030E+2
  -1.52264E+2   4.07924E+1
   1.22638E+1  -2.74987E+2
  -3.69619E+1   1.67387E+2
  -2.81331E+2   2.56028E+2
   6.58419E+1   4.51546E+1
  -1.53247E+2  -2.36978E+2
  -1.46326E-2  -3.52115E+2
   2.62321E+2   5.62034E+1
   4.53381E+2   1.47543E+2
   2.41800E+1   1.16171E+2
  -2.23329E+2   1.76535E+2
   1.02710E+2  -1.13169E+2
   1.34359E+2  -3.01546E+1
   8.17309E+0   2.54949E+2
  -1.97902E+2   1.44416E+2
  -1.24904E+2  -8.35302E+1
  -1.97389E+1  -2.25421E+2
   1.39709E+2  -1.89835E+1
  -3.06432E+2   2.89593E+2
  -4.50155E+2  -1.67939E+1
   1.48812E+2  -1.63249E+2
   1.47079E+2  -1.97861E+2
   3.56043E+2   3.08444E+2
  -1.83848E+2   4.22080E+2
  -3.60413E+2   1.05049E+2
  -1.79557E+2  -1.20880E+2
  -1.87618E+2  -1.00849E+2
   4.99363E-1  -5.24465E+1
  -1.66763E+2   1.16362E+1
   1.39350E+2  -1.67577E+2
   4.76153E+2   1.22443E+2
   6.39557E+2   4.21454E+2
  -3.17173E+1   9.45501E+2
  -6.29748E+2   5.03353E+2
  -3.25196E+2  -1.09011E+1
  -1.84076E+2  -1.64148E+2
   3.54123E+2   2.61276E+1
   5.14375E+1   1.97766E+2
   3.51930E+1   1.69275E+2
  -1.21689E+2   2.28846E+2
  -5.85823E+1   1.55305E+2
  -6.20134E+1   2.23782E+1
  -3.69967E+2   1.97166E+2
  -1.59481E+2  -2.36838E+2
   2.55111E+2  -2.15372E+2
   1.58027E+2  -1.33124E+2
   3.38540E+2   1.74612E+2
  -2.84248E+2   2.87604E+2
  -1.85838E+2   7.62386E+1
   9.65285E+1  -2.23246E+2
   3.48095E+2   2.71914E+1
   1.81628E+2   3.22315E+2
  -1.59194E+2  -3.08645E+1
   2.96453E+2  -4.74319E+1
   3.30582E+2   1.84833E+2
  -1.43964E+2   4.12219E+2
  -5.07662E+2   3.57138E+2
  -4.42385E+2  -1.00856E+2
   1.06330E+2  -4.43622E+2
   4.08848E+2  -2.23914E+2
   1.08051E+2  -4.31094E+1
   3.47374E+1  -1.56555E+2
   1.88086E+1   2.60713E+1
   6.86937E+1   1.09624E+2
   2.50383E+2   3.35200E+2
  -3.62301E+2   1.98565E+2
  -5.35300E+2  -9.34978E+1
  -1.50327E+2  -3.22412E+2
   2.94376E+2   7.36116E+1
   2.94598E+2   3.83700E+2
   1.96478E+2   3.65295E+2
  -1.28831E+2   2.56359E+2
  -1.41323E+2  -3.22050E+2
   2.13610E+2  -3.80741E+1
   2.49591E+1   2.11053E+1
  -2.80560E+2   2.60081E+2
   2.71239E+1  -1.28140E+2
  -4.72132E+0  -9.89095E+1
   1.51028E+2   4.62958E+1
  -1.01602E+2  -2.76950E+1
  -1.75183E+2  -1.61998E+2
  -9.69723E+0  -1.28324E+2
   1.59565E+2  -1.78473E+2
   1.25223E+2   3.82864E+2
  -2.48927E+2   2.69954E+2
  -3.26112E+2   4.85124E+1
  -2.22586E+2   2.19742E+0
   5.72079E+2   1.57456E+2
   2.54843E+1   2.96781E+2
  -2.68308E+2  -6.13847E+1
  -2.38695E+1  -2.51840E+2
   3.46621E+2  -1.51646E+2
   2.63579E+2   1.53468E+2
  -1.24857E+2   9.52974E+1
  -2.67693E+2  -1.07565E+0
   4.01261E+1  -3.01019E+2
   2.84282E+2  -2.40020E+1
   2.80567E+2   1.14914E+2
   1.68799E+2   2.39356E+2
  -2.04615E+2   1.29963E+2
  -5.87945E+1   2.58953E+1
  -1.28013E+2   1.89042E+2
  -1.84026E+2   1.61093E+2
  -3.17471E+2   3.00745E+0
  -2.50175E+2  -4.80734E+2
   8.23912E+1  -3.27716E+2
   2.35806E+2  -4.78165E+1
   5.98509E+1   3.27864E+2
  -1.95874E+2   1.96004E+2
  -2.66962E+2  -2.41871E+2
  -5.49865E+1  -1.19303E+2
   4.96333E+1  -8.48612E+1
  -1.28066E+1   1.32049E+2
   1.15781E+2   9.20406E+1
   1.02237E+2  -2.19174E+2
   1.04172E+2   8.26079E+1
   7.20129E+1   9.90180E+1
  -1.07724E+2   5.99691E+1
  -2.40461E+2   2.47579E+0
   1.23789E+2  -4.09252E+1
   1.61511E+2  -9.79545E+1
  -1.18870E+2   2.36246E+2
  -2.09914E+2   3.21848E+2
  -8.37281E+1  -6.83624E+1
   2.99153E+2  -1.40487E+2
   1.00176E+2  -4.44206E+1
  -3.64234E+2  -5.70989E+0
  -5.76345E+1  -2.34052E+2
  -1.01355E+2  -1.57745E+2
   2.86192E+2   1.15375E+1
  -6.03610E+1   2.05186E+2
  -1.05273E+2   2.76228E+2
  -2.25024E+2   1.90201E+1
  -1.92134E+2  -2.75798E+2
  -1.89996E+1   1.83072E+2
   1.95581E+1  -4.56660E+1
  -1.47245E+2  -1.04651E+2
  -3.08626E+1  -1.64233E+2
   4.64386E+1  -5.46955E+1
   1.43082E+2   1.07149E+2
   1.87647E+1   2.73378E+2
  -3.29971E+2  -9.99833E+1
   1.01507E+1  -2.24208E+2
  -3.25432E+1  -6.82356E+0
  -1.73013E+2   2.01698E+2
  -1.14599E+2   7.77760E+1
  -1.40725E+2  -1.07803E+2
   5.13463E+1  -2.78250E+2
   4.51467E+1  -1.51774E+2
   3.66522E+1  -1.53425E+2
  -3.30878E+2   6.89956E+1
   4.49110E+1   2.28904E+1
   5.67603E+1  -1.29227E+2
   1.04258E+2  -1.29091E+1
  -6.91572E+1  -3.00074E+1
  -1.51419E+2   9.60096E+1
  -1.31553E+2  -1.93143E+2
  -8.76537E+1  -1.39456E+2
  -1.61590E+1   7.01850E+1
  -4.63903E+2   4.63784E+2
  -1.53589E+2  -2.19779E+2
  -2.15505E+2  -1.94628E+2
   3.28354E+1   7.23570E+1
  -5.98134E+1   1.74232E+2
  -1.43016E+2  -8.98899E+1
   1.04948E+2  -2.90527E+2
   1.14926E+2   1.53052E+1
   1.97743E+1   1.79663E+2
  -9.10888E+1   2.77189E+2
  -1.63261E+2  -5.21776E+0
   5.48282E+1  -2.93886E+2
   7.57415E+1  -2.75760E+2
  -1.05229E+2   1.83979E+2
  -6.86259E+1  -1.74630E+2
   8.55257E+0   6.48188E+1
  -9.49661E+1  -8.89420E+1
   1.98965E+2   2.55584E+2
  -1.15806E+2   9.34087E+1
  -1.98349E+2  -1.38793E+2
  -2.49342E+2  -3.22647E+2
  -3.51549E+1  -1.41187E+2
   1.57165E+2   1.38832E+2
   8.46879E+0   2.53256E+2
  -3.06509E+1   2.89153E+2
  -1.99208E+2   2.03231E+2
   8.06546E+1  -2.50405E+1
   1.23600E+1  -1.29231E+2
  -1.07802E+2  -1.41951E+2
  -5.82449E+1  -9.69507E+0
   2.04444E+2  -2.11327E+2
   3.34502E+2   5.89164E+1
  -2.09410E+2  -2.22131E+0
  -1.50095E+2  -1.30546E+2
  -2.27139E+2  -8.61494E+1
   2.43954E+1  -2.68775E+1
   1.31280E+2   1.30490E+2
  -1.67772E+1   2.83558E+1
  -4.52757E+1  -4.28501E+1
   1.41758E+2  -3.35477E+1
   2.46243E+2   8.63006E+1
  -7.51382E+1  -1.05360E+1
  -1.49436E+2   1.46094E+2
  -2.72798E+2  -1.26622E+1
  -7.63180E+1  -1.92578E+2
   2.08134E+2  -1.66805E+2
   5.52211E+1   2.41512E+2
   9.91309E+1   1.28952E+2
   5.41420E+0  -1.50966E+0
  -8.33514E+1  -4.01373E+2
