 LCModel (Version 6.3-1N) Copyright: S.W. Provencher.          Ref.: Magn. Reson. Med. 30:672-679 (1993).                
 Slice_N1@21_18  28-Feb-2025 11:41:58
 27 lines in following concentration table = NCONC+1
    Conc.  %SD /Cr+PCr  Metabolite                                         
 3.00E-04   4% 2.9E-04 Mac                                                 
    4.342  37%   4.239 Cr                                                  
    3.851  41%   3.761 PCr                                                 
    7.692  11%   7.511 Ins                                                 
    8.628   9%   8.425 NAA                                                 
    4.564  20%   4.456 Tau                                                 
    2.333  10%   2.278 PCho                                                
    0.000 999%   0.000 GPC                                                 
    7.312  13%   7.140 Glu                                                 
    4.255  19%   4.155 Gln                                                 
    0.000 999%   0.000 Ala                                                 
    1.736  68%   1.695 Asc                                                 
    2.536  40%   2.476 Asp                                                 
    0.901  59%   0.880 GABA                                                
    0.617 113%   0.603 Glc                                                 
    1.708  30%   1.668 GSH                                                 
    3.963  18%   3.869 Lac                                                 
    3.441  19%   3.360 NAAG                                                
    0.000 999%   0.000 PE                                                  
    2.333  10%   2.278 GPC+PCho                                            
   12.069   6%  11.785 NAA+NAAG                                            
   11.568  11%  11.295 Glu+Gln                                             
    8.193   8%   8.000 Cr+PCr                                              
   12.069   6%  11.785 NAA+NAAG                                            
    8.193   8%   8.000 Cr+PCr                                              
   11.568  11%  11.295 Glu+Gln                                             
   6 lines in following misc. output table
  FWHM = 0.041 ppm    S/N =   4                                            
  Data shift = 0.008 ppm                                                   
  Ph: -77 deg       0.0 deg/ppm                                            
  alphaB,S = 1.4E-01,   2.6E+01                                            
   19 spline knots.   Ns = 5(1)                                            
  ( 5) 2 infls.   ( 2) 1 extrs.                                            
  480 points on ppm-axis = NY
      4.100000     4.091866     4.083733     4.075600     4.067466     4.059333     4.051199     4.043066     4.034933     4.026799
      4.018666     4.010532     4.002399     3.994265     3.986132     3.977998     3.969864     3.961731     3.953597     3.945463
      3.937330     3.929196     3.921062     3.912929     3.904795     3.896662     3.888528     3.880394     3.872261     3.864127
      3.855993     3.847860     3.839726     3.831592     3.823459     3.815325     3.807191     3.799058     3.790924     3.782790
      3.774657     3.766523     3.758389     3.750256     3.742122     3.733989     3.725855     3.717721     3.709588     3.701454
      3.693320     3.685187     3.677053     3.668919     3.660786     3.652652     3.644518     3.636385     3.628251     3.620117
      3.611984     3.603850     3.595716     3.587583     3.579449     3.571316     3.563182     3.555048     3.546915     3.538781
      3.530647     3.522514     3.514380     3.506246     3.498113     3.489979     3.481845     3.473712     3.465578     3.457444
      3.449311     3.441177     3.433043     3.424910     3.416776     3.408643     3.400509     3.392375     3.384242     3.376108
      3.367974     3.359841     3.351707     3.343573     3.335440     3.327306     3.319172     3.311039     3.302905     3.294771
      3.286638     3.278504     3.270370     3.262237     3.254103     3.245970     3.237836     3.229702     3.221569     3.213435
      3.205301     3.197168     3.189034     3.180900     3.172767     3.164633     3.156499     3.148366     3.140232     3.132098
      3.123965     3.115831     3.107697     3.099564     3.091430     3.083297     3.075163     3.067029     3.058896     3.050762
      3.042628     3.034495     3.026361     3.018227     3.010094     3.001960     2.993826     2.985693     2.977559     2.969425
      2.961292     2.953158     2.945024     2.936891     2.928757     2.920624     2.912490     2.904356     2.896223     2.888089
      2.879955     2.871822     2.863688     2.855554     2.847421     2.839287     2.831153     2.823020     2.814886     2.806752
      2.798619     2.790485     2.782351     2.774218     2.766084     2.757951     2.749817     2.741683     2.733550     2.725416
      2.717282     2.709149     2.701015     2.692881     2.684748     2.676614     2.668480     2.660347     2.652213     2.644079
      2.635946     2.627812     2.619678     2.611545     2.603411     2.595278     2.587144     2.579010     2.570877     2.562743
      2.554609     2.546476     2.538342     2.530208     2.522075     2.513941     2.505807     2.497674     2.489540     2.481406
      2.473273     2.465139     2.457006     2.448872     2.440738     2.432605     2.424471     2.416337     2.408204     2.400070
      2.391936     2.383803     2.375669     2.367535     2.359402     2.351268     2.343134     2.335001     2.326867     2.318733
      2.310600     2.302466     2.294333     2.286199     2.278065     2.269932     2.261798     2.253664     2.245531     2.237397
      2.229263     2.221130     2.212996     2.204862     2.196729     2.188595     2.180461     2.172328     2.164194     2.156060
      2.147927     2.139793     2.131660     2.123526     2.115392     2.107259     2.099125     2.090991     2.082858     2.074724
      2.066590     2.058457     2.050323     2.042189     2.034056     2.025922     2.017788     2.009655     2.001521     1.993387
      1.985254     1.977120     1.968987     1.960853     1.952719     1.944586     1.936452     1.928318     1.920185     1.912051
      1.903917     1.895784     1.887650     1.879516     1.871383     1.863249     1.855115     1.846982     1.838848     1.830714
      1.822581     1.814447     1.806314     1.798180     1.790046     1.781913     1.773779     1.765645     1.757512     1.749378
      1.741244     1.733111     1.724977     1.716843     1.708710     1.700576     1.692442     1.684309     1.676175     1.668041
      1.659908     1.651774     1.643641     1.635507     1.627373     1.619240     1.611106     1.602972     1.594839     1.586705
      1.578571     1.570438     1.562304     1.554170     1.546037     1.537903     1.529769     1.521636     1.513502     1.505368
      1.497235     1.489101     1.480968     1.472834     1.464700     1.456567     1.448433     1.440299     1.432166     1.424032
      1.415898     1.407765     1.399631     1.391497     1.383364     1.375230     1.367096     1.358963     1.350829     1.342695
      1.334562     1.326428     1.318295     1.310161     1.302027     1.293894     1.285760     1.277626     1.269493     1.261359
      1.253225     1.245092     1.236958     1.228824     1.220691     1.212557     1.204423     1.196290     1.188156     1.180022
      1.171889     1.163755     1.155622     1.147488     1.139354     1.131221     1.123087     1.114953     1.106820     1.098686
      1.090552     1.082419     1.074285     1.066151     1.058018     1.049884     1.041750     1.033617     1.025483     1.017349
      1.009216     1.001082     0.992949     0.984815     0.976681     0.968548     0.960414     0.952280     0.944147     0.936013
      0.927879     0.919746     0.911612     0.903478     0.895345     0.887211     0.879077     0.870944     0.862810     0.854676
      0.846543     0.838409     0.830276     0.822142     0.814008     0.805875     0.797741     0.789607     0.781474     0.773340
      0.765206     0.757073     0.748939     0.740805     0.732672     0.724538     0.716404     0.708271     0.700137     0.692003
      0.683870     0.675736     0.667603     0.659469     0.651335     0.643202     0.635068     0.626934     0.618801     0.610667
      0.602533     0.594400     0.586266     0.578132     0.569999     0.561865     0.553731     0.545598     0.537464     0.529330
      0.521197     0.513063     0.504930     0.496796     0.488662     0.480529     0.472395     0.464261     0.456128     0.447994
      0.439861     0.431727     0.423593     0.415460     0.407326     0.399192     0.391059     0.382925     0.374792     0.366658
      0.358524     0.350391     0.342257     0.334124     0.325990     0.317856     0.309723     0.301589     0.293455     0.285322
      0.277188     0.269055     0.260921     0.252787     0.244654     0.236520     0.228386     0.220253     0.212119     0.203986
 NY phased data points follow
   6.29385E+00  3.18643E+00  9.22876E+00 -1.16176E+01 -2.05575E-01  1.62931E+01  2.28484E+00  7.23054E-01  1.36204E+00  5.56852E+00
  -1.10211E-01 -1.21764E+01 -1.35064E+01 -2.68469E+01 -1.96417E+01 -1.08527E+01 -2.10825E+01 -3.92896E+01 -4.43801E+01 -4.49033E+01
  -4.65916E+01 -4.41036E+01 -3.64954E+01  4.98837E-01 -1.83108E+00  6.80836E+00  2.91971E+01  3.07033E+01  4.28522E+01  2.42248E+01
   3.70451E+01  4.30724E+01  1.74746E+01  2.82338E+01  3.68440E+01  3.17146E+01  2.39097E+01  8.66007E+00  1.22142E+00 -8.48612E+00
  -1.02725E+01 -1.35866E+01 -1.92731E+01  6.26036E+00  1.44119E+01  2.51030E+01  2.70475E+01  4.51922E+01  7.35903E+01  5.33258E+01
   6.10158E+01  5.22018E+01  4.07335E+01  3.88785E+01  2.14735E+01  1.83446E+01  2.57585E+01  2.24434E+01 -1.31860E+00  1.19760E+01
   6.52599E+00  4.68483E+00  3.43493E+01  3.16065E+01  3.51292E+01  4.52498E+01  4.17537E+01  3.65003E+01  2.20624E+01 -4.58495E-01
  -6.97210E+00 -7.68669E+00  1.25467E+00  2.07482E+01  4.21068E+01  4.85772E+01  5.54471E+01  6.62949E+01  5.58359E+01  6.12752E+01
   5.04993E+01  4.55765E+01  5.45361E+01  4.63088E+01  4.25529E+01  3.86167E+01  4.49858E+01  4.59207E+01  5.40065E+01  6.26117E+01
   7.27192E+01  8.24619E+01  8.02148E+01  8.82738E+01  8.58144E+01  8.27562E+01  9.29641E+01  1.01173E+02  1.00500E+02  9.33967E+01
   7.69766E+01  7.32377E+01  7.16107E+01  5.07964E+01  3.88492E+01  3.70968E+01  2.57609E+01 -5.13000E-01 -3.56196E+01 -7.25874E+01
  -6.84934E+01 -8.18639E+01 -1.01063E+02 -6.25545E+01 -3.75840E+01 -1.99539E+01 -1.76451E+01 -7.61325E-01  6.69302E+00  7.01846E+00
   3.85771E+01  2.38763E+01  3.99793E+01  5.37665E+01  4.48740E+01  7.51584E+01  8.55752E+01  9.05940E+01  1.02126E+02  1.05224E+02
   9.72079E+01  9.85992E+01  7.72033E+01  2.68218E+01 -2.34635E+01 -6.92167E+01 -6.95774E+01 -5.69332E+01 -4.71404E+01 -3.52878E+01
  -2.95627E+01 -2.76849E+01 -4.14947E+01 -5.05529E+01 -3.42584E+01 -2.49193E+01 -3.54224E+01 -3.56606E+01 -2.79003E+01 -2.01888E+01
  -2.22757E+01 -1.44807E+01 -1.16950E+01 -1.34135E+01 -1.41217E+01 -1.78380E+01  2.56759E+00 -2.21205E+00  9.68722E+00  1.79871E+01
  -2.72516E+00  4.66681E+00  8.38156E+00  1.36369E+01  1.42423E+01  1.10266E+01  4.93873E+00  5.88823E+00  5.89535E+00  6.25673E+00
   1.89036E+01  1.98530E+01  2.52821E+01  2.83719E+01  3.28334E+01  2.57139E+01  1.90522E+01  2.19266E+01  2.16758E+01  1.16401E+01
  -1.27282E+01 -2.32566E+01 -2.68428E+01 -1.36938E+01 -2.34616E+01 -3.31225E+01 -1.73717E+01 -2.36648E+01 -9.94215E+00 -8.95997E+00
  -8.44939E+00  5.77478E+00 -9.69323E+00  1.04279E+01  1.52576E+01  2.24657E+00  2.12384E+01  1.11187E+01  7.66611E+00  1.20213E+01
   2.16892E+01  2.29351E+01  1.23940E+01  1.96462E+01  1.66483E+01  2.64131E+01  1.10528E+01 -1.37627E+01 -1.12913E+01 -8.78118E+00
  -1.54808E+01 -1.45929E+01  1.21538E+00  4.53743E+00  6.87173E+00  1.86781E+01  4.00154E+01  3.45098E+01  4.14399E+01  3.05974E+01
   2.45643E+00  9.78747E+00  1.04470E+01  2.31677E+01  8.35698E+00  8.99405E+00  1.76905E+01  1.94081E+01  2.06605E+01  5.89129E+00
   3.84617E+00 -1.71064E+00  1.59736E+00 -2.14059E+01 -1.10498E+01 -1.79973E+01 -3.46711E+01 -3.10540E+01 -4.01327E+01 -1.73539E+01
  -4.13498E+01 -2.67051E+01 -1.09224E+01 -1.78025E+01 -2.31766E+00 -3.92893E+00  5.33267E+00  3.94973E+00  9.30799E+00 -5.25619E+00
  -1.84439E+01 -3.25756E+01 -3.84315E+01 -3.14592E+01 -2.12991E+01 -3.31565E+00  7.45639E+00  5.62543E+01  9.68447E+01  1.71215E+02
   2.16673E+02  1.73476E+02  1.50632E+02  1.36769E+02  1.21186E+02  1.06666E+02  1.02718E+02  1.01028E+02  9.56253E+01  9.05948E+01
   8.81143E+01  9.46171E+01  1.06994E+02  1.08228E+02  9.07630E+01  9.67018E+01  9.70758E+01  9.51669E+01  1.14192E+02  9.97927E+01
   9.31655E+01  1.04503E+02  8.58826E+01  9.09440E+01  9.64937E+01  8.13442E+01  8.33868E+01  7.52962E+01  6.77907E+01  6.73059E+01
   6.14674E+01  5.63384E+01  6.07837E+01  6.56182E+01  5.83559E+01  5.35393E+01  4.93225E+01  3.70142E+01  4.09813E+01  4.88729E+01
   3.92085E+01  4.73517E+01  4.08072E+01  3.13399E+01  5.22074E+01  5.57052E+01  4.14859E+01  4.11188E+01  5.18647E+01  4.63693E+01
   4.74994E+01  4.09781E+01  2.56508E+01  3.39691E+01  4.16314E+01  4.04739E+01  3.06771E+01  3.62418E+01  4.11066E+01  2.95728E+01
   2.86054E+01  2.38471E+01  1.95205E+01  2.34619E+01  2.94486E+01  2.79955E+01  1.62705E+01  1.00924E+01  2.87075E+00 -7.71235E+00
  -1.48333E+00  2.43783E+01  1.86851E+01  2.24224E+00  1.22738E+01  1.38730E+01  3.21733E+01  4.21277E+01  4.51007E+01  4.68979E+01
   3.60866E+01  4.44961E+01  3.53775E+01  3.48028E+01  3.30644E+01  2.24191E+01  1.73849E+01  2.35879E+00 -3.43288E+00 -4.24152E+00
   1.67773E+00 -6.17040E+00 -1.60826E+01 -1.69695E+01 -7.23693E+00 -1.25147E+01 -2.54699E+01 -2.12683E+01 -2.29072E+01 -1.88641E+01
  -1.92747E+01 -7.05937E+00 -7.01356E+00  1.24339E+00  1.19033E+01  9.48398E+00  2.94374E+01  2.49099E+01  2.94059E+01  3.33718E+01
   3.61766E+01  3.76796E+01  4.51838E+01  5.86976E+01  4.89922E+01  7.00803E+01  7.41506E+01  6.97918E+01  7.56284E+01  8.21794E+01
   7.92192E+01  8.40319E+01  1.19774E+02  1.16449E+02  1.25357E+02  1.29212E+02  1.31097E+02  1.47809E+02  1.39490E+02  1.44870E+02
   1.28419E+02  1.20139E+02  1.20150E+02  1.04261E+02  8.56733E+01  6.87471E+01  8.04982E+01  7.20496E+01  6.38363E+01  5.65473E+01
   3.55077E+01  4.22756E+01  2.75773E+01  5.37206E+00  9.78841E+00  2.97379E+00 -4.08198E+00 -4.83327E+00 -2.52786E+00  5.55057E+00
  -2.39698E+00 -8.02806E+00  7.87815E-01  5.19369E+00  1.48488E+00 -5.53128E+00 -1.32390E+01 -1.11118E+01 -1.44478E+00 -3.46660E+00
   2.09504E+00  6.38508E+00  4.13189E+00  9.20929E-01  1.65334E+00  9.63881E+00  3.95430E+00  1.79506E+00 -8.80112E+00 -7.86704E+00
  -3.62921E-01 -4.04534E+00  5.86105E-01  4.56567E+00  8.91108E+00 -2.91271E+00 -4.08286E+00 -5.43442E+00 -2.58155E-01  5.94442E+00
   6.37141E+00  1.50007E+01 -5.16229E+00  1.84532E+00  6.75966E+00  6.79376E+00  4.15339E+00 -1.31905E+01  3.84258E+00  5.92145E-01
  -3.52711E+00  4.91713E+00  1.46888E+01  7.44992E+00 -2.27255E+00  1.56804E+01  5.74892E+00 -3.34561E-01  6.29347E+00  1.21456E+00
   1.33042E+00  9.73527E+00  9.19507E+00  5.23619E+00  7.28358E+00  6.50733E+00  1.34310E+01 -1.14254E+00 -1.40201E+00  1.00316E+01
   2.40163E+00  2.17345E+01  1.54618E+01  1.98868E+00  1.33156E+01  1.20166E+01  1.04133E+01  5.99470E+00  1.38715E+01  1.38771E+01
 NY points of the fit to the data follow
  -1.53810E+01 -1.67451E+01 -1.78605E+01 -1.75207E+01 -1.44927E+01 -8.28743E+00 -1.59642E-01  7.01602E+00  9.75442E+00  6.47911E+00
  -1.83826E-01 -5.65770E+00 -8.83310E+00 -1.12493E+01 -1.41684E+01 -1.83358E+01 -2.37382E+01 -3.00855E+01 -3.66631E+01 -4.19109E+01
  -4.40945E+01 -4.09947E+01 -3.09311E+01 -1.36982E+01  6.53072E+00  2.41315E+01  3.72190E+01  4.48207E+01  4.57788E+01  4.42525E+01
   4.43354E+01  4.38094E+01  4.20093E+01  3.92233E+01  3.58226E+01  3.14467E+01  2.55801E+01  1.78994E+01  8.35881E+00 -2.25216E+00
  -1.15588E+01 -1.59702E+01 -1.25138E+01 -8.36806E-01  1.52695E+01  3.01141E+01  4.08469E+01  4.82902E+01  5.26157E+01  5.36960E+01
   5.23425E+01  4.89890E+01  4.36825E+01  3.63496E+01  2.74335E+01  1.83068E+01  1.05846E+01  5.63887E+00  4.05580E+00  5.38466E+00
   8.65545E+00  1.39731E+01  2.26985E+01  3.28942E+01  4.03877E+01  4.52975E+01  4.67438E+01  4.02037E+01  2.75943E+01  1.45436E+01
   4.87188E+00  2.50089E+00  9.06715E+00  2.11660E+01  3.28514E+01  4.26936E+01  5.22967E+01  5.93057E+01  6.13128E+01  6.01805E+01
   5.69747E+01  5.15009E+01  4.42516E+01  3.67987E+01  3.16793E+01  3.06661E+01  3.44232E+01  4.18660E+01  5.07533E+01  5.87208E+01
   6.51949E+01  6.98033E+01  7.36459E+01  7.72891E+01  8.04849E+01  8.32351E+01  8.53541E+01  8.64574E+01  8.63390E+01  8.48938E+01
   8.16346E+01  7.65209E+01  6.98591E+01  6.18396E+01  5.10602E+01  3.90512E+01  2.59676E+01  7.86203E+00 -1.76136E+01 -4.72901E+01
  -7.48590E+01 -9.06436E+01 -8.28191E+01 -5.70658E+01 -3.27248E+01 -2.01349E+01 -1.08533E+01 -2.62297E+00  5.03769E+00  1.23701E+01
   1.96255E+01  2.71458E+01  3.53222E+01  4.43776E+01  5.43386E+01  6.52404E+01  7.74088E+01  8.98103E+01  1.00929E+02  1.08512E+02
   1.08479E+02  9.56551E+01  6.66589E+01  2.39450E+01 -2.26283E+01 -5.52496E+01 -6.16335E+01 -5.13458E+01 -4.35871E+01 -4.12926E+01
  -3.99734E+01 -3.93004E+01 -3.89882E+01 -3.87324E+01 -3.82437E+01 -3.70440E+01 -3.50034E+01 -3.23418E+01 -2.93233E+01 -2.62487E+01
  -2.34758E+01 -2.10265E+01 -1.86720E+01 -1.62251E+01 -1.36411E+01 -1.10718E+01 -8.74098E+00 -6.94117E+00 -5.71652E+00 -4.73959E+00
  -3.57126E+00 -2.05283E+00 -6.67681E-01 -1.34593E-02 -1.35224E-01 -3.02330E-01  4.49683E-01  2.33286E+00  4.80061E+00  7.85020E+00
   1.23680E+01  1.84712E+01  2.43899E+01  2.74311E+01  2.64271E+01  2.30917E+01  2.06537E+01  2.00888E+01  1.82510E+01  1.22092E+01
   3.37586E+00 -4.35513E+00 -8.88463E+00 -1.10102E+01 -1.22555E+01 -1.28641E+01 -1.23499E+01 -1.11468E+01 -9.43817E+00 -7.02681E+00
  -3.96516E+00 -2.62807E-01  3.96248E+00  8.36089E+00  1.24959E+01  1.60676E+01  1.89001E+01  1.99468E+01  1.98112E+01  2.08318E+01
   2.22818E+01  2.25358E+01  2.27167E+01  2.32945E+01  2.32108E+01  2.10941E+01  1.62504E+01  1.04902E+01  5.01764E+00 -1.54496E-01
  -4.01495E+00 -5.20429E+00 -2.70572E+00  3.64305E+00  1.32971E+01  2.51199E+01  3.62094E+01  4.39457E+01  4.68311E+01  4.50024E+01
   4.08786E+01  3.74415E+01  3.51607E+01  3.46766E+01  3.53692E+01  3.42868E+01  3.04681E+01  2.36946E+01  1.44339E+01  3.60048E+00
  -8.02756E+00 -1.93845E+01 -2.96486E+01 -3.80634E+01 -4.39187E+01 -4.68660E+01 -4.71322E+01 -4.49446E+01 -4.08217E+01 -3.56965E+01
  -3.03287E+01 -2.43862E+01 -1.84203E+01 -1.29423E+01 -7.67901E+00 -4.36911E+00 -4.23421E+00 -7.31742E+00 -1.32078E+01 -2.08546E+01
  -2.88698E+01 -3.66833E+01 -4.05776E+01 -3.89076E+01 -2.99093E+01 -1.20961E+01  1.44843E+01  4.81441E+01  8.82962E+01  1.30578E+02
   1.55492E+02  1.50587E+02  1.32815E+02  1.22568E+02  1.15821E+02  1.10210E+02  1.04981E+02  9.99311E+01  9.53389E+01  9.16458E+01
   8.91504E+01  8.78407E+01  8.75607E+01  8.79324E+01  8.85210E+01  8.90108E+01  8.91716E+01  8.88134E+01  8.80472E+01  8.67963E+01
   8.50290E+01  8.28793E+01  8.04194E+01  7.78531E+01  7.52317E+01  7.24852E+01  6.95321E+01  6.63304E+01  6.29012E+01  5.91506E+01
   5.50906E+01  5.09149E+01  4.69268E+01  4.34907E+01  4.09628E+01  3.95901E+01  3.95277E+01  4.06600E+01  4.25775E+01  4.49098E+01
   4.73618E+01  4.98114E+01  5.22381E+01  5.46160E+01  5.68340E+01  5.89037E+01  6.09502E+01  6.30773E+01  6.52791E+01  6.74748E+01
   6.94992E+01  7.11890E+01  7.25090E+01  7.35242E+01  7.42272E+01  7.44878E+01  7.41440E+01  7.30970E+01  7.14108E+01  6.91161E+01
   6.62394E+01  6.28887E+01  5.91127E+01  5.47221E+01  4.95398E+01  4.34660E+01  3.63783E+01  2.83194E+01  1.97309E+01  1.14249E+01
   4.37982E+00 -6.04255E-01 -3.20243E+00 -3.26637E+00 -8.28856E-01  3.72295E+00  9.74965E+00  1.63688E+01  2.26891E+01  2.80147E+01
   3.11659E+01  3.09930E+01  2.63602E+01  1.74105E+01  5.97407E+00 -4.04134E+00 -8.64432E+00 -7.46745E+00 -2.75341E+00  2.82208E+00
   6.26598E+00  5.94844E+00  4.14529E+00  1.54783E+00 -1.17434E+00 -3.35658E+00 -4.41759E+00 -4.01826E+00 -2.30063E+00  3.96317E-01
   3.83520E+00  7.78414E+00  1.19706E+01  1.62206E+01  2.03651E+01  2.43063E+01  2.80284E+01  3.15972E+01  3.51440E+01  3.87493E+01
   4.24214E+01  4.62012E+01  5.01237E+01  5.43353E+01  5.90105E+01  6.42008E+01  6.99241E+01  7.61831E+01  8.29397E+01  9.02033E+01
   9.79167E+01  1.05843E+02  1.13618E+02  1.20878E+02  1.26892E+02  1.30623E+02  1.31183E+02  1.28138E+02  1.21610E+02  1.12423E+02
   1.01943E+02  9.16282E+01  8.24426E+01  7.45332E+01  6.72903E+01  6.00525E+01  5.23247E+01  4.39664E+01  3.51662E+01  2.66122E+01
   1.90262E+01  1.27742E+01  7.95653E+00  4.49181E+00  2.07832E+00  3.31923E-01 -9.06351E-01 -1.79435E+00 -2.49673E+00 -3.13291E+00
  -3.60087E+00 -3.83460E+00 -3.81582E+00 -3.64782E+00 -3.42334E+00 -3.21927E+00 -3.02542E+00 -2.79127E+00 -2.53887E+00 -2.30356E+00
  -2.03071E+00 -1.66205E+00 -1.31901E+00 -1.12089E+00 -9.66573E-01 -7.10982E-01 -4.07780E-01 -1.25683E-01  2.12232E-01  6.19061E-01
   1.01144E+00  1.24917E+00  1.34332E+00  1.41313E+00  1.58438E+00  1.89187E+00  2.29952E+00  2.75088E+00  3.15968E+00  3.49011E+00
   3.73829E+00  3.95092E+00  4.10351E+00  4.22690E+00  4.32022E+00  4.41278E+00  4.58123E+00  4.85754E+00  5.18532E+00  5.48317E+00
   5.71573E+00  5.90120E+00  6.11808E+00  6.39123E+00  6.73105E+00  7.13145E+00  7.48160E+00  7.75470E+00  8.00340E+00  8.22564E+00
   8.41811E+00  8.56214E+00  8.66013E+00  8.73091E+00  8.87518E+00  9.16117E+00  9.58831E+00  1.00626E+01  1.05308E+01  1.08848E+01
   1.10304E+01  1.09895E+01  1.09187E+01  1.09653E+01  1.11810E+01  1.14846E+01  1.17756E+01  1.20035E+01  1.22349E+01  1.25323E+01
 NY background values follow
     1.582E+01    1.590E+01    1.599E+01    1.608E+01    1.617E+01    1.626E+01    1.635E+01    1.644E+01    1.653E+01    1.662E+01
     1.671E+01    1.680E+01    1.690E+01    1.699E+01    1.709E+01    1.719E+01    1.729E+01    1.739E+01    1.749E+01    1.760E+01
     1.771E+01    1.782E+01    1.793E+01    1.804E+01    1.815E+01    1.827E+01    1.839E+01    1.851E+01    1.864E+01    1.877E+01
     1.890E+01    1.903E+01    1.916E+01    1.930E+01    1.944E+01    1.959E+01    1.973E+01    1.988E+01    2.003E+01    2.018E+01
     2.034E+01    2.049E+01    2.065E+01    2.081E+01    2.097E+01    2.114E+01    2.130E+01    2.147E+01    2.163E+01    2.180E+01
     2.197E+01    2.214E+01    2.232E+01    2.249E+01    2.266E+01    2.283E+01    2.301E+01    2.318E+01    2.336E+01    2.354E+01
     2.371E+01    2.389E+01    2.406E+01    2.424E+01    2.442E+01    2.459E+01    2.477E+01    2.494E+01    2.512E+01    2.529E+01
     2.547E+01    2.564E+01    2.581E+01    2.598E+01    2.615E+01    2.632E+01    2.649E+01    2.666E+01    2.682E+01    2.699E+01
     2.715E+01    2.731E+01    2.747E+01    2.763E+01    2.779E+01    2.794E+01    2.809E+01    2.825E+01    2.839E+01    2.854E+01
     2.868E+01    2.882E+01    2.896E+01    2.910E+01    2.923E+01    2.937E+01    2.950E+01    2.962E+01    2.975E+01    2.987E+01
     2.999E+01    3.011E+01    3.023E+01    3.034E+01    3.045E+01    3.056E+01    3.067E+01    3.077E+01    3.088E+01    3.098E+01
     3.107E+01    3.117E+01    3.126E+01    3.136E+01    3.145E+01    3.153E+01    3.162E+01    3.170E+01    3.178E+01    3.186E+01
     3.194E+01    3.202E+01    3.209E+01    3.216E+01    3.223E+01    3.229E+01    3.236E+01    3.242E+01    3.248E+01    3.253E+01
     3.259E+01    3.264E+01    3.269E+01    3.273E+01    3.278E+01    3.282E+01    3.285E+01    3.289E+01    3.292E+01    3.295E+01
     3.297E+01    3.299E+01    3.301E+01    3.303E+01    3.304E+01    3.305E+01    3.305E+01    3.305E+01    3.305E+01    3.305E+01
     3.304E+01    3.302E+01    3.301E+01    3.299E+01    3.296E+01    3.294E+01    3.291E+01    3.287E+01    3.284E+01    3.280E+01
     3.276E+01    3.272E+01    3.267E+01    3.262E+01    3.257E+01    3.252E+01    3.247E+01    3.241E+01    3.235E+01    3.230E+01
     3.224E+01    3.217E+01    3.211E+01    3.205E+01    3.199E+01    3.192E+01    3.186E+01    3.179E+01    3.172E+01    3.166E+01
     3.159E+01    3.153E+01    3.146E+01    3.139E+01    3.133E+01    3.126E+01    3.120E+01    3.113E+01    3.107E+01    3.100E+01
     3.094E+01    3.088E+01    3.081E+01    3.075E+01    3.069E+01    3.063E+01    3.057E+01    3.051E+01    3.046E+01    3.040E+01
     3.035E+01    3.029E+01    3.024E+01    3.019E+01    3.014E+01    3.009E+01    3.005E+01    3.000E+01    2.996E+01    2.992E+01
     2.988E+01    2.984E+01    2.980E+01    2.977E+01    2.973E+01    2.970E+01    2.967E+01    2.963E+01    2.960E+01    2.956E+01
     2.953E+01    2.949E+01    2.945E+01    2.941E+01    2.937E+01    2.933E+01    2.928E+01    2.923E+01    2.917E+01    2.912E+01
     2.906E+01    2.899E+01    2.892E+01    2.885E+01    2.877E+01    2.869E+01    2.860E+01    2.850E+01    2.840E+01    2.829E+01
     2.818E+01    2.805E+01    2.793E+01    2.779E+01    2.765E+01    2.750E+01    2.734E+01    2.718E+01    2.701E+01    2.683E+01
     2.664E+01    2.645E+01    2.625E+01    2.604E+01    2.582E+01    2.560E+01    2.536E+01    2.513E+01    2.488E+01    2.462E+01
     2.436E+01    2.409E+01    2.381E+01    2.352E+01    2.322E+01    2.292E+01    2.261E+01    2.228E+01    2.196E+01    2.162E+01
     2.127E+01    2.092E+01    2.055E+01    2.018E+01    1.981E+01    1.942E+01    1.903E+01    1.864E+01    1.824E+01    1.784E+01
     1.743E+01    1.702E+01    1.661E+01    1.620E+01    1.578E+01    1.537E+01    1.495E+01    1.453E+01    1.412E+01    1.370E+01
     1.329E+01    1.288E+01    1.247E+01    1.206E+01    1.166E+01    1.127E+01    1.087E+01    1.049E+01    1.011E+01    9.731E+00
     9.363E+00    9.003E+00    8.650E+00    8.304E+00    7.966E+00    7.636E+00    7.314E+00    7.000E+00    6.695E+00    6.398E+00
     6.110E+00    5.831E+00    5.560E+00    5.299E+00    5.048E+00    4.805E+00    4.573E+00    4.350E+00    4.138E+00    3.935E+00
     3.743E+00    3.562E+00    3.391E+00    3.231E+00    3.082E+00    2.945E+00    2.818E+00    2.703E+00    2.600E+00    2.509E+00
     2.430E+00    2.362E+00    2.307E+00    2.263E+00    2.230E+00    2.208E+00    2.198E+00    2.198E+00    2.209E+00    2.230E+00
     2.261E+00    2.303E+00    2.354E+00    2.414E+00    2.484E+00    2.564E+00    2.652E+00    2.749E+00    2.854E+00    2.969E+00
     3.091E+00    3.221E+00    3.359E+00    3.505E+00    3.658E+00    3.819E+00    3.986E+00    4.160E+00    4.341E+00    4.529E+00
     4.722E+00    4.922E+00    5.127E+00    5.337E+00    5.553E+00    5.772E+00    5.996E+00    6.224E+00    6.455E+00    6.689E+00
     6.926E+00    7.165E+00    7.406E+00    7.648E+00    7.892E+00    8.137E+00    8.382E+00    8.628E+00    8.873E+00    9.118E+00
     9.361E+00    9.604E+00    9.844E+00    1.008E+01    1.032E+01    1.055E+01    1.078E+01    1.101E+01    1.123E+01    1.145E+01
     1.167E+01    1.188E+01    1.208E+01    1.228E+01    1.248E+01    1.267E+01    1.286E+01    1.304E+01    1.322E+01    1.339E+01
     1.356E+01    1.372E+01    1.388E+01    1.403E+01    1.418E+01    1.432E+01    1.446E+01    1.460E+01    1.473E+01    1.485E+01
     1.497E+01    1.508E+01    1.519E+01    1.530E+01    1.540E+01    1.549E+01    1.558E+01    1.567E+01    1.575E+01    1.582E+01
     1.589E+01    1.595E+01    1.601E+01    1.607E+01    1.612E+01    1.616E+01    1.621E+01    1.624E+01    1.628E+01    1.631E+01
     1.634E+01    1.636E+01    1.638E+01    1.639E+01    1.641E+01    1.642E+01    1.643E+01    1.643E+01    1.644E+01    1.644E+01
     1.643E+01    1.643E+01    1.643E+01    1.642E+01    1.641E+01    1.640E+01    1.639E+01    1.638E+01    1.636E+01    1.635E+01
     1.633E+01    1.632E+01    1.630E+01    1.628E+01    1.627E+01    1.625E+01    1.623E+01    1.621E+01    1.619E+01    1.617E+01
     1.615E+01    1.613E+01    1.611E+01    1.609E+01    1.607E+01    1.604E+01    1.602E+01    1.600E+01    1.598E+01    1.595E+01
     1.593E+01    1.591E+01    1.588E+01    1.586E+01    1.584E+01    1.582E+01    1.579E+01    1.577E+01    1.575E+01    1.572E+01
 Mac      Conc. = 3.00E-04
  -5.69468E+00 -6.18175E+00 -6.58973E+00 -7.02230E+00 -7.69451E+00 -8.73956E+00 -1.00960E+01 -1.16187E+01 -1.30662E+01 -1.42069E+01
  -1.49198E+01 -1.53203E+01 -1.56399E+01 -1.60877E+01 -1.66878E+01 -1.71184E+01 -1.68044E+01 -1.51772E+01 -1.19935E+01 -7.68636E+00
  -3.23354E+00  4.14286E-01  3.11944E+00  5.29450E+00  7.07182E+00  8.49817E+00  1.00086E+01  1.18390E+01  1.38080E+01  1.56752E+01
   1.72509E+01  1.84295E+01  1.91743E+01  1.96617E+01  2.00894E+01  2.06301E+01  2.15303E+01  2.29729E+01  2.48033E+01  2.65377E+01
   2.77188E+01  2.82869E+01  2.86725E+01  2.93749E+01  3.04194E+01  3.13643E+01  3.17764E+01  3.15128E+01  3.06993E+01  2.96209E+01
   2.85285E+01  2.75513E+01  2.68496E+01  2.64930E+01  2.64735E+01  2.67973E+01  2.75408E+01  2.86790E+01  3.00793E+01  3.15690E+01
   3.28801E+01  3.38235E+01  3.43726E+01  3.44555E+01  3.40184E+01  3.33270E+01  3.27885E+01  3.26065E+01  3.28686E+01  3.36622E+01
   3.49898E+01  3.68661E+01  3.90556E+01  4.10326E+01  4.22566E+01  4.26246E+01  4.24316E+01  4.19312E+01  4.13029E+01  4.07501E+01
   4.04240E+01  4.03752E+01  4.06482E+01  4.11704E+01  4.19537E+01  4.29326E+01  4.39207E+01  4.47893E+01  4.55321E+01  4.61816E+01
   4.66708E+01  4.69483E+01  4.69552E+01  4.65775E+01  4.56544E+01  4.41634E+01  4.21460E+01  3.97657E+01  3.73198E+01  3.49927E+01
   3.27259E+01  3.02618E+01  2.72796E+01  2.34594E+01  1.87645E+01  1.34472E+01  7.98431E+00  3.11305E+00 -2.47528E-01 -1.43773E+00
