 LCModel (Version 6.3-1N) Copyright: S.W. Provencher.          Ref.: Magn. Reson. Med. 30:672-679 (1993).                
 Slice_N1@15_18  28-Feb-2025 11:39:11
 27 lines in following concentration table = NCONC+1
    Conc.  %SD /Cr+PCr  Metabolite                                         
 2.76E-04   5% 2.2E-04 Mac                                                 
    3.784  47%   3.054 Cr                                                  
    6.129  29%   4.946 PCr                                                 
    8.870  13%   7.158 Ins                                                 
   12.611   8%  10.177 NAA                                                 
    6.623  17%   5.345 Tau                                                 
    0.849 157%   0.685 PCho                                                
    1.719  75%   1.387 GPC                                                 
    7.144  17%   5.765 Glu                                                 
    4.732  21%   3.819 Gln                                                 
    9.922  10%   8.007 Ala                                                 
    3.553  44%   2.867 Asc                                                 
    2.509  49%   2.025 Asp                                                 
    0.969  68%   0.782 GABA                                                
    1.305  67%   1.053 Glc                                                 
    1.667  36%   1.346 GSH                                                 
    0.000 999%   0.000 Lac                                                 
    1.845  42%   1.489 NAAG                                                
    0.000 999%   0.000 PE                                                  
    2.568  11%   2.073 GPC+PCho                                            
   14.456   7%  11.666 NAA+NAAG                                            
   11.876  13%   9.584 Glu+Gln                                             
    9.913   9%   8.000 Cr+PCr                                              
   14.456   7%  11.666 NAA+NAAG                                            
    9.913   9%   8.000 Cr+PCr                                              
   11.876  13%   9.584 Glu+Gln                                             
   6 lines in following misc. output table
  FWHM = 0.024 ppm    S/N =   3                                            
  Data shift = 0.024 ppm                                                   
  Ph:-108 deg       0.0 deg/ppm                                            
  alphaB,S = 2.0E-01,   1.3E+01                                            
   19 spline knots.   Ns = 5(1)                                            
  ( 4) 4 infls.   ( 3) 1 extrs.                                            
  480 points on ppm-axis = NY
      4.100000     4.091866     4.083733     4.075600     4.067466     4.059333     4.051199     4.043066     4.034933     4.026799
      4.018666     4.010532     4.002399     3.994265     3.986132     3.977998     3.969864     3.961731     3.953597     3.945463
      3.937330     3.929196     3.921062     3.912929     3.904795     3.896662     3.888528     3.880394     3.872261     3.864127
      3.855993     3.847860     3.839726     3.831592     3.823459     3.815325     3.807191     3.799058     3.790924     3.782790
      3.774657     3.766523     3.758389     3.750256     3.742122     3.733989     3.725855     3.717721     3.709588     3.701454
      3.693320     3.685187     3.677053     3.668919     3.660786     3.652652     3.644518     3.636385     3.628251     3.620117
      3.611984     3.603850     3.595716     3.587583     3.579449     3.571316     3.563182     3.555048     3.546915     3.538781
      3.530647     3.522514     3.514380     3.506246     3.498113     3.489979     3.481845     3.473712     3.465578     3.457444
      3.449311     3.441177     3.433043     3.424910     3.416776     3.408643     3.400509     3.392375     3.384242     3.376108
      3.367974     3.359841     3.351707     3.343573     3.335440     3.327306     3.319172     3.311039     3.302905     3.294771
      3.286638     3.278504     3.270370     3.262237     3.254103     3.245970     3.237836     3.229702     3.221569     3.213435
      3.205301     3.197168     3.189034     3.180900     3.172767     3.164633     3.156499     3.148366     3.140232     3.132098
      3.123965     3.115831     3.107697     3.099564     3.091430     3.083297     3.075163     3.067029     3.058896     3.050762
      3.042628     3.034495     3.026361     3.018227     3.010094     3.001960     2.993826     2.985693     2.977559     2.969425
      2.961292     2.953158     2.945024     2.936891     2.928757     2.920624     2.912490     2.904356     2.896223     2.888089
      2.879955     2.871822     2.863688     2.855554     2.847421     2.839287     2.831153     2.823020     2.814886     2.806752
      2.798619     2.790485     2.782351     2.774218     2.766084     2.757951     2.749817     2.741683     2.733550     2.725416
      2.717282     2.709149     2.701015     2.692881     2.684748     2.676614     2.668480     2.660347     2.652213     2.644079
      2.635946     2.627812     2.619678     2.611545     2.603411     2.595278     2.587144     2.579010     2.570877     2.562743
      2.554609     2.546476     2.538342     2.530208     2.522075     2.513941     2.505807     2.497674     2.489540     2.481406
      2.473273     2.465139     2.457006     2.448872     2.440738     2.432605     2.424471     2.416337     2.408204     2.400070
      2.391936     2.383803     2.375669     2.367535     2.359402     2.351268     2.343134     2.335001     2.326867     2.318733
      2.310600     2.302466     2.294333     2.286199     2.278065     2.269932     2.261798     2.253664     2.245531     2.237397
      2.229263     2.221130     2.212996     2.204862     2.196729     2.188595     2.180461     2.172328     2.164194     2.156060
      2.147927     2.139793     2.131660     2.123526     2.115392     2.107259     2.099125     2.090991     2.082858     2.074724
      2.066590     2.058457     2.050323     2.042189     2.034056     2.025922     2.017788     2.009655     2.001521     1.993387
      1.985254     1.977120     1.968987     1.960853     1.952719     1.944586     1.936452     1.928318     1.920185     1.912051
      1.903917     1.895784     1.887650     1.879516     1.871383     1.863249     1.855115     1.846982     1.838848     1.830714
      1.822581     1.814447     1.806314     1.798180     1.790046     1.781913     1.773779     1.765645     1.757512     1.749378
      1.741244     1.733111     1.724977     1.716843     1.708710     1.700576     1.692442     1.684309     1.676175     1.668041
      1.659908     1.651774     1.643641     1.635507     1.627373     1.619240     1.611106     1.602972     1.594839     1.586705
      1.578571     1.570438     1.562304     1.554170     1.546037     1.537903     1.529769     1.521636     1.513502     1.505368
      1.497235     1.489101     1.480968     1.472834     1.464700     1.456567     1.448433     1.440299     1.432166     1.424032
      1.415898     1.407765     1.399631     1.391497     1.383364     1.375230     1.367096     1.358963     1.350829     1.342695
      1.334562     1.326428     1.318295     1.310161     1.302027     1.293894     1.285760     1.277626     1.269493     1.261359
      1.253225     1.245092     1.236958     1.228824     1.220691     1.212557     1.204423     1.196290     1.188156     1.180022
      1.171889     1.163755     1.155622     1.147488     1.139354     1.131221     1.123087     1.114953     1.106820     1.098686
      1.090552     1.082419     1.074285     1.066151     1.058018     1.049884     1.041750     1.033617     1.025483     1.017349
      1.009216     1.001082     0.992949     0.984815     0.976681     0.968548     0.960414     0.952280     0.944147     0.936013
      0.927879     0.919746     0.911612     0.903478     0.895345     0.887211     0.879077     0.870944     0.862810     0.854676
      0.846543     0.838409     0.830276     0.822142     0.814008     0.805875     0.797741     0.789607     0.781474     0.773340
      0.765206     0.757073     0.748939     0.740805     0.732672     0.724538     0.716404     0.708271     0.700137     0.692003
      0.683870     0.675736     0.667603     0.659469     0.651335     0.643202     0.635068     0.626934     0.618801     0.610667
      0.602533     0.594400     0.586266     0.578132     0.569999     0.561865     0.553731     0.545598     0.537464     0.529330
      0.521197     0.513063     0.504930     0.496796     0.488662     0.480529     0.472395     0.464261     0.456128     0.447994
      0.439861     0.431727     0.423593     0.415460     0.407326     0.399192     0.391059     0.382925     0.374792     0.366658
      0.358524     0.350391     0.342257     0.334124     0.325990     0.317856     0.309723     0.301589     0.293455     0.285322
      0.277188     0.269055     0.260921     0.252787     0.244654     0.236520     0.228386     0.220253     0.212119     0.203986
 NY phased data points follow
  -8.16183E+01 -8.76570E+01 -9.76969E+01 -9.62755E+01 -1.20108E+02 -1.20886E+02 -9.84966E+01 -8.81509E+01 -9.89379E+01 -1.01828E+02
  -9.70633E+01 -9.45941E+01 -1.12388E+02 -1.24987E+02 -1.10574E+02 -1.25003E+02 -1.21650E+02 -1.25091E+02 -1.40830E+02 -1.39745E+02
  -1.79994E+02 -1.80079E+02 -1.26166E+02 -1.31664E+02 -1.08908E+02 -7.49013E+01 -8.00314E+01 -7.15340E+01 -7.63073E+01 -6.34021E+01
  -6.46780E+01 -6.13672E+01 -6.94471E+01 -7.87185E+01 -6.91188E+01 -7.49215E+01 -5.14562E+01 -5.88314E+01 -7.61530E+01 -9.45518E+01
  -1.04013E+02 -1.13386E+02 -1.21580E+02 -1.17896E+02 -1.26950E+02 -9.87113E+01 -6.98333E+01 -4.57155E+01 -4.65743E+01 -2.74891E+01
  -1.28188E+01 -2.74301E+01 -2.19265E+01 -3.59246E+01 -3.14548E+01 -4.40500E+01 -6.22679E+01 -6.28876E+01 -7.63855E+01 -1.04377E+02
  -8.76979E+01 -5.87755E+01 -9.01069E+01 -7.04478E+01 -4.20310E+01 -3.93433E+01 -1.94243E+01 -2.33611E+01 -3.79643E+01 -7.52419E+01
  -1.10651E+02 -8.68053E+01 -8.08293E+01 -7.99033E+01 -4.67572E+01 -4.14050E+01 -3.16380E+01 -2.29600E+01 -1.14521E+01 -1.08328E+01
  -1.81669E+01 -1.27727E+01 -2.89081E+01 -3.49954E+01 -6.17791E+01 -8.38352E+01 -6.43368E+01 -6.86234E+01 -4.99365E+01 -5.82273E+00
  -1.37570E+01 -1.56547E+01 -5.64723E+00 -1.06277E+01  1.17110E+01  2.06826E+01  1.01488E+01  2.78850E+01  2.95338E+01  1.16460E+01
   2.43845E+01  2.62653E+01  1.21433E+01 -1.19912E+01 -8.44874E+00 -6.85631E+00 -4.35628E+01 -4.52079E+01 -4.72005E+01 -5.45747E+01
  -1.21795E+02 -1.81811E+02 -1.55662E+02 -1.44162E+02 -1.32848E+02 -1.21337E+02 -9.53723E+01 -7.63193E+01 -7.47348E+01 -6.90648E+01
  -7.13606E+01 -6.17274E+01 -5.73383E+01 -5.09580E+01 -3.30720E+01 -2.94260E+01 -2.76624E+01 -8.81507E+00  2.75424E+01  5.33305E+01
   6.18002E+01  1.08782E+02  7.42136E+01 -4.77815E+01 -9.70871E+01 -1.04699E+02 -1.13007E+02 -1.21404E+02 -1.03151E+02 -9.79012E+01
  -1.08563E+02 -1.01701E+02 -1.02481E+02 -1.10056E+02 -1.03876E+02 -9.55497E+01 -1.12360E+02 -1.06369E+02 -9.99345E+01 -9.69330E+01
  -9.97307E+01 -1.02140E+02 -8.94461E+01 -9.00040E+01 -8.02270E+01 -7.88954E+01 -7.82102E+01 -8.02974E+01 -7.84997E+01 -7.91774E+01
  -7.57161E+01 -7.41217E+01 -7.45152E+01 -6.10349E+01 -7.39938E+01 -6.61226E+01 -7.12291E+01 -7.83168E+01 -7.24688E+01 -7.31774E+01
  -5.70296E+01 -5.29046E+01 -3.11426E+01 -3.33400E+01 -4.70244E+01 -4.11516E+01 -3.89437E+01 -1.88174E+01 -1.42431E+01 -3.90674E+01
  -5.23465E+01 -5.27268E+01 -7.38243E+01 -8.48543E+01 -7.36549E+01 -8.24608E+01 -9.26985E+01 -8.66481E+01 -8.62619E+01 -8.31440E+01
  -7.71439E+01 -6.66177E+01 -6.63917E+01 -7.93993E+01 -5.37724E+01 -4.09098E+01 -6.50324E+01 -5.96215E+01 -4.39586E+01 -5.03027E+01
  -5.55769E+01 -5.48099E+01 -4.44069E+01 -2.26760E+01 -2.35733E+01 -3.21404E+01 -3.24691E+01 -4.02827E+01 -4.81514E+01 -6.98385E+01
  -6.60599E+01 -5.46211E+01 -7.23124E+01 -5.43567E+01 -6.05831E+01 -5.36677E+01 -6.61122E-01 -3.40075E+00 -6.78625E+00 -2.19097E+00
  -2.06514E+01 -4.38974E+01 -5.45058E+01 -4.96510E+01 -6.00083E+01 -6.48030E+01 -5.05060E+01 -5.60132E+01 -4.38226E+01 -4.03246E+01
  -5.96543E+01 -4.72727E+01 -6.49739E+01 -6.41171E+01 -7.49538E+01 -8.08617E+01 -7.35593E+01 -1.07936E+02 -9.46994E+01 -1.06510E+02
  -9.84099E+01 -8.93308E+01 -9.25460E+01 -7.63529E+01 -7.69544E+01 -5.49015E+01 -6.17400E+01 -5.03861E+01 -5.23090E+01 -6.90971E+01
  -7.57923E+01 -7.76819E+01 -7.13781E+01 -8.68561E+01 -1.06273E+02 -1.29144E+02 -1.67517E+02 -1.78677E+02  1.24867E+01  1.27949E+02
   7.83459E+01  9.38735E+01  7.42739E+01  8.44163E+01  7.66713E+01  5.87001E+01  7.24249E+01  4.67023E+01  3.96250E+01  3.45336E+01
   3.89373E+01  3.40736E+01  3.39914E+01  5.68098E+01  4.42317E+01  3.51758E+01  3.87635E+01  3.50920E+01  4.07366E+01  3.62715E+01
   4.53385E+01  4.44947E+01  2.95255E+01  4.47868E+01  4.37026E+01  2.77828E+01  3.42523E+01  4.05115E+01  3.29455E+01  3.62497E+01
   3.34270E+01  4.04829E+01  4.83834E+01  3.30514E+01  2.82410E+01  2.97039E+01  2.42547E+01  1.97497E+01  1.60632E+01 -1.17703E+01
  -1.01798E+01  2.93183E-01  2.96608E+00  8.14258E+00  6.95335E+00  9.09326E+00 -7.90270E+00  1.41945E+01  1.49885E+01  1.35056E+01
   2.96615E+01  2.33369E+01  2.39832E+01  9.98890E+00  7.56685E+00 -1.28410E+00  9.45419E+00  1.28466E+01 -1.38810E-01 -1.46738E+01
  -2.82827E+01 -1.76424E+01 -5.17783E+01 -8.42554E+01 -8.74181E+01 -1.01360E+02 -1.23201E+02 -1.39824E+02 -1.46437E+02 -1.42689E+02
  -1.42022E+02 -1.34971E+02 -1.29238E+02 -1.25767E+02 -1.04531E+02 -1.03363E+02 -8.80960E+01 -7.18527E+01 -5.81284E+01 -3.13896E+01
  -1.06936E+01  3.56827E+00  1.10038E+01 -1.24110E+00 -1.70671E+01  1.41912E+01  8.23075E+00  7.82301E-01  8.03062E+00 -9.86617E+00
  -1.08398E+01 -1.51018E+01 -7.94017E+00 -2.45853E+01 -3.89239E+01 -2.69133E+01 -4.00447E+01 -4.89019E+01 -4.39654E+01 -5.62228E+01
  -5.57077E+01 -5.07596E+01 -5.52805E+01 -5.25296E+01 -4.73478E+01 -3.06868E+01 -3.44285E+01 -3.54467E+01 -2.70795E+01 -1.68416E+01
  -1.69590E+01 -1.97567E+01 -6.66476E+00 -3.43645E+00 -3.22994E-01 -7.13962E-01  1.81237E+01  1.85880E+01  2.95888E+01  3.94992E+01
   2.79989E+01  4.61346E+01  4.64353E+01  4.64947E+01  7.45559E+01  9.44176E+01  7.53161E+01  1.00616E+02  1.11015E+02  1.02044E+02
   1.16131E+02  9.79987E+01  9.09623E+01  6.06624E+01  5.88709E+01  4.06422E+01  3.04545E+01  4.28957E+01  1.78536E+01  2.25067E+01
   2.01470E+00 -3.94366E+00 -9.88506E+00 -2.51836E+01 -2.46914E+01 -2.66370E+01 -3.50998E+01 -4.50805E+01 -3.51493E+01 -4.65089E+01
  -4.21722E+01 -4.75559E+01 -5.16943E+01 -3.46187E+01 -4.66935E+01 -5.31196E+01 -4.57674E+01 -4.40215E+01 -4.23970E+01 -4.15022E+01
  -4.93969E+01 -4.65608E+01 -4.47756E+01 -3.47823E+01 -3.47054E+01 -5.04982E+01 -4.70243E+01 -4.30611E+01 -3.13863E+01 -3.81680E+01
  -5.09680E+01 -3.93772E+01 -3.85748E+01 -4.68140E+01 -3.70620E+01 -3.69134E+01 -4.64111E+01 -2.49943E+01 -2.62819E+01 -4.13651E+01
  -3.77030E+01 -4.54036E+01 -4.14445E+01 -3.96034E+01 -2.93713E+01 -1.97488E+01 -3.55780E+01 -3.98410E+01 -3.72106E+01 -3.16786E+01
  -4.89098E+01 -3.89193E+01 -2.55772E+01 -4.93857E+01 -3.41165E+01 -3.58894E+01 -3.28247E+01 -3.33642E+01 -4.36905E+01 -1.38184E+01
  -2.29830E+01 -5.13118E+01 -3.60454E+01 -2.80937E+01 -4.33044E+01 -2.21956E+01 -2.83668E+01 -3.32439E+01 -2.29769E+01 -4.49755E+01
  -2.96649E+01 -2.68716E+01 -2.28317E+01 -2.42154E+01 -3.21052E+01 -1.60233E+01 -3.36917E+01 -3.02236E+01 -1.88615E+01 -3.06954E+01
 NY points of the fit to the data follow
  -1.05909E+02 -1.10326E+02 -1.17282E+02 -1.25319E+02 -1.30409E+02 -1.25521E+02 -1.09974E+02 -9.62621E+01 -9.41317E+01 -9.84096E+01
  -1.01532E+02 -1.03744E+02 -1.06051E+02 -1.07615E+02 -1.09541E+02 -1.12623E+02 -1.15848E+02 -1.20730E+02 -1.29765E+02 -1.45570E+02
  -1.63337E+02 -1.63422E+02 -1.41684E+02 -1.18778E+02 -9.90003E+01 -7.71067E+01 -6.09569E+01 -5.42570E+01 -4.78712E+01 -4.19443E+01
  -4.09576E+01 -4.19707E+01 -4.36512E+01 -4.67823E+01 -5.19303E+01 -5.92937E+01 -6.68825E+01 -7.57392E+01 -8.92023E+01 -1.05983E+02
  -1.23069E+02 -1.33874E+02 -1.28641E+02 -1.12113E+02 -9.64840E+01 -8.25441E+01 -6.59805E+01 -5.13610E+01 -4.17768E+01 -3.50888E+01
  -3.14078E+01 -3.05166E+01 -3.29121E+01 -3.95646E+01 -4.97360E+01 -5.97661E+01 -6.70891E+01 -6.93003E+01 -7.34747E+01 -8.47476E+01
  -8.69749E+01 -7.62322E+01 -7.03071E+01 -6.58006E+01 -4.95165E+01 -3.22451E+01 -2.61760E+01 -2.71607E+01 -3.73675E+01 -5.99562E+01
  -7.75095E+01 -7.68352E+01 -7.13810E+01 -7.05544E+01 -6.21882E+01 -4.42865E+01 -3.09135E+01 -2.43407E+01 -1.82675E+01 -1.27508E+01
  -1.14980E+01 -1.61319E+01 -2.53941E+01 -3.83870E+01 -5.21716E+01 -6.01762E+01 -6.01373E+01 -5.34849E+01 -4.32950E+01 -3.28568E+01
  -2.43382E+01 -1.68022E+01 -9.77876E+00 -4.01549E+00  8.00302E-01  5.14866E+00  9.30217E+00  1.32890E+01  1.62482E+01  1.61848E+01
   1.57652E+01  1.76814E+01  1.25339E+01 -1.73916E+00 -1.64761E+01 -3.13950E+01 -4.43442E+01 -4.63075E+01 -4.30957E+01 -6.52120E+01
  -1.24303E+02 -1.71282E+02 -1.68312E+02 -1.45380E+02 -1.33793E+02 -1.23612E+02 -1.06177E+02 -9.24283E+01 -8.14995E+01 -7.21294E+01
  -6.34391E+01 -5.48213E+01 -4.59617E+01 -3.63691E+01 -2.56469E+01 -1.41468E+01 -3.04924E+00  5.76889E+00  1.77718E+01  3.70988E+01
   6.63727E+01  8.69687E+01  5.04002E+01 -3.87207E+01 -1.01685E+02 -1.13522E+02 -1.16695E+02 -1.27931E+02 -1.28553E+02 -1.23037E+02
  -1.18385E+02 -1.15312E+02 -1.13788E+02 -1.12922E+02 -1.11500E+02 -1.09809E+02 -1.07929E+02 -1.05236E+02 -1.01850E+02 -9.88142E+01
  -9.64932E+01 -9.42958E+01 -9.20141E+01 -8.93865E+01 -8.64268E+01 -8.31229E+01 -8.00020E+01 -7.81717E+01 -7.78144E+01 -7.74109E+01
  -7.53333E+01 -7.18096E+01 -6.93903E+01 -7.01415E+01 -7.20241E+01 -7.21138E+01 -7.10547E+01 -7.12361E+01 -7.21376E+01 -7.08943E+01
  -6.46901E+01 -5.27645E+01 -4.01250E+01 -3.57152E+01 -4.04882E+01 -4.28272E+01 -3.50311E+01 -2.53769E+01 -2.62325E+01 -3.79679E+01
  -5.07266E+01 -5.89035E+01 -6.52223E+01 -7.11234E+01 -7.48516E+01 -7.60495E+01 -7.65538E+01 -7.67632E+01 -7.66438E+01 -7.60348E+01
  -7.53603E+01 -7.40238E+01 -7.25634E+01 -6.86706E+01 -5.82192E+01 -4.92891E+01 -4.85274E+01 -4.61264E+01 -3.82789E+01 -3.38878E+01
  -3.64908E+01 -3.85736E+01 -3.47775E+01 -2.92087E+01 -2.83302E+01 -3.17143E+01 -3.42010E+01 -3.71298E+01 -4.30700E+01 -5.01655E+01
  -5.62420E+01 -6.17066E+01 -6.57776E+01 -6.40618E+01 -5.77711E+01 -4.80137E+01 -3.46228E+01 -2.36104E+01 -1.76102E+01 -1.47172E+01
  -1.60410E+01 -1.97614E+01 -2.12066E+01 -2.00746E+01 -2.00071E+01 -2.11163E+01 -2.43910E+01 -2.97856E+01 -3.72059E+01 -4.65100E+01
  -5.64391E+01 -6.66434E+01 -7.70169E+01 -8.62107E+01 -9.41310E+01 -1.00698E+02 -1.04472E+02 -1.06146E+02 -1.07002E+02 -1.05393E+02
  -1.02537E+02 -9.94025E+01 -9.30675E+01 -8.44446E+01 -7.66323E+01 -6.96765E+01 -6.49811E+01 -6.33231E+01 -6.47705E+01 -6.79866E+01
  -7.34417E+01 -8.06037E+01 -8.77260E+01 -9.69597E+01 -1.08320E+02 -1.38214E+02 -1.73421E+02 -1.35673E+02 -2.14070E+01  5.76552E+01
   6.85599E+01  7.04759E+01  8.29713E+01  8.01169E+01  7.21855E+01  6.48730E+01  5.84644E+01  5.28770E+01  4.78201E+01  4.34395E+01
   4.02719E+01  3.80286E+01  3.65254E+01  3.59878E+01  3.57012E+01  3.54100E+01  3.53541E+01  3.53305E+01  3.47447E+01  3.36140E+01
   3.21247E+01  3.03666E+01  2.86919E+01  2.67398E+01  2.45119E+01  2.22765E+01  2.00480E+01  1.75771E+01  1.47353E+01  1.14530E+01
   7.91832E+00  4.32345E+00  7.03917E-01 -2.55932E+00 -4.74496E+00 -5.50672E+00 -4.98957E+00 -3.51501E+00 -1.60640E+00  6.25423E-01
   3.29108E+00  6.21869E+00  9.01418E+00  1.16466E+01  1.42236E+01  1.67583E+01  1.94028E+01  2.24299E+01  2.56383E+01  2.86327E+01
   3.13731E+01  3.40886E+01  3.69509E+01  3.98498E+01  4.25658E+01  4.51793E+01  4.79107E+01  5.06758E+01  5.50405E+01  5.86628E+01
   5.93011E+01  4.59193E+01  6.73989E+00 -4.22100E+01 -7.99175E+01 -1.07556E+02 -1.18977E+02 -1.11503E+02 -1.00296E+02 -9.73504E+01
  -9.37622E+01 -8.93093E+01 -8.63141E+01 -8.27515E+01 -7.79907E+01 -7.23976E+01 -6.68403E+01 -6.19812E+01 -5.79099E+01 -5.44701E+01
  -5.09244E+01 -4.67433E+01 -4.21698E+01 -3.76118E+01 -3.34770E+01 -3.03272E+01 -2.82254E+01 -2.66974E+01 -2.56672E+01 -2.56362E+01
  -2.67141E+01 -2.87788E+01 -3.18812E+01 -3.56975E+01 -3.91680E+01 -4.15364E+01 -4.28176E+01 -4.29455E+01 -4.18992E+01 -3.98541E+01
  -3.70644E+01 -3.36945E+01 -2.99503E+01 -2.61844E+01 -2.26356E+01 -1.92233E+01 -1.59109E+01 -1.26135E+01 -9.28076E+00 -5.96671E+00
  -2.81085E+00  4.43970E-01  3.96553E+00  7.77896E+00  1.19936E+01  1.65964E+01  2.15533E+01  2.71918E+01  3.35138E+01  4.00756E+01
   4.68261E+01  5.43138E+01  6.22522E+01  6.98394E+01  7.62250E+01  8.05628E+01  8.17053E+01  7.88259E+01  7.21772E+01  6.33365E+01
   5.41416E+01  4.55814E+01  3.77538E+01  3.08396E+01  2.45263E+01  1.77829E+01  9.97840E+00  1.67032E+00 -6.60828E+00 -1.46810E+01
  -2.17674E+01 -2.73705E+01 -3.18219E+01 -3.54537E+01 -3.79968E+01 -3.96152E+01 -4.08021E+01 -4.18878E+01 -4.27890E+01 -4.34743E+01
  -4.38342E+01 -4.39003E+01 -4.38527E+01 -4.38751E+01 -4.37539E+01 -4.33650E+01 -4.30742E+01 -4.31190E+01 -4.30236E+01 -4.24423E+01
  -4.19430E+01 -4.18494E+01 -4.16964E+01 -4.12691E+01 -4.09393E+01 -4.08383E+01 -4.06559E+01 -4.02126E+01 -3.95935E+01 -3.90918E+01
  -3.88565E+01 -3.87476E+01 -3.86239E+01 -3.84761E+01 -3.81872E+01 -3.77181E+01 -3.72821E+01 -3.68873E+01 -3.64892E+01 -3.61223E+01
  -3.57756E+01 -3.53925E+01 -3.51525E+01 -3.50752E+01 -3.50230E+01 -3.48504E+01 -3.44514E+01 -3.40535E+01 -3.37361E+01 -3.34269E+01
  -3.32023E+01 -3.30843E+01 -3.27484E+01 -3.22434E+01 -3.18308E+01 -3.14897E+01 -3.11194E+01 -3.07920E+01 -3.04236E+01 -3.00263E+01
  -2.97532E+01 -2.96916E+01 -2.95870E+01 -2.94265E+01 -2.92124E+01 -2.88992E+01 -2.82864E+01 -2.75250E+01 -2.69265E+01 -2.67087E+01
  -2.67298E+01 -2.67299E+01 -2.65276E+01 -2.61744E+01 -2.58267E+01 -2.55286E+01 -2.51365E+01 -2.48561E+01 -2.47418E+01 -2.44278E+01
 NY background values follow
    -7.813E+01   -7.784E+01   -7.755E+01   -7.725E+01   -7.696E+01   -7.667E+01   -7.637E+01   -7.608E+01   -7.578E+01   -7.549E+01
    -7.519E+01   -7.489E+01   -7.460E+01   -7.430E+01   -7.400E+01   -7.370E+01   -7.340E+01   -7.310E+01   -7.280E+01   -7.250E+01
    -7.220E+01   -7.189E+01   -7.159E+01   -7.128E+01   -7.098E+01   -7.067E+01   -7.036E+01   -7.005E+01   -6.974E+01   -6.943E+01
    -6.911E+01   -6.880E+01   -6.848E+01   -6.816E+01   -6.784E+01   -6.752E+01   -6.720E+01   -6.688E+01   -6.656E+01   -6.624E+01
    -6.591E+01   -6.559E+01   -6.526E+01   -6.494E+01   -6.461E+01   -6.428E+01   -6.395E+01   -6.363E+01   -6.330E+01   -6.297E+01
    -6.264E+01   -6.231E+01   -6.198E+01   -6.165E+01   -6.132E+01   -6.099E+01   -6.066E+01   -6.033E+01   -6.001E+01   -5.968E+01
    -5.935E+01   -5.902E+01   -5.869E+01   -5.837E+01   -5.804E+01   -5.772E+01   -5.739E+01   -5.707E+01   -5.674E+01   -5.642E+01
    -5.610E+01   -5.578E+01   -5.546E+01   -5.514E+01   -5.482E+01   -5.451E+01   -5.419E+01   -5.388E+01   -5.357E+01   -5.326E+01
    -5.295E+01   -5.264E+01   -5.233E+01   -5.203E+01   -5.173E+01   -5.142E+01   -5.113E+01   -5.083E+01   -5.053E+01   -5.024E+01
    -4.995E+01   -4.966E+01   -4.937E+01   -4.909E+01   -4.880E+01   -4.852E+01   -4.825E+01   -4.797E+01   -4.770E+01   -4.743E+01
    -4.716E+01   -4.689E+01   -4.663E+01   -4.637E+01   -4.611E+01   -4.586E+01   -4.560E+01   -4.536E+01   -4.511E+01   -4.486E+01
    -4.462E+01   -4.439E+01   -4.415E+01   -4.392E+01   -4.369E+01   -4.347E+01   -4.325E+01   -4.303E+01   -4.281E+01   -4.260E+01
    -4.239E+01   -4.219E+01   -4.198E+01   -4.179E+01   -4.159E+01   -4.140E+01   -4.121E+01   -4.103E+01   -4.084E+01   -4.067E+01
    -4.049E+01   -4.032E+01   -4.015E+01   -3.999E+01   -3.983E+01   -3.967E+01   -3.952E+01   -3.936E+01   -3.922E+01   -3.907E+01
    -3.893E+01   -3.879E+01   -3.866E+01   -3.853E+01   -3.840E+01   -3.828E+01   -3.816E+01   -3.804E+01   -3.792E+01   -3.781E+01
    -3.771E+01   -3.760E+01   -3.750E+01   -3.740E+01   -3.731E+01   -3.721E+01   -3.713E+01   -3.704E+01   -3.696E+01   -3.688E+01
    -3.680E+01   -3.672E+01   -3.665E+01   -3.658E+01   -3.651E+01   -3.645E+01   -3.638E+01   -3.632E+01   -3.626E+01   -3.621E+01
    -3.615E+01   -3.610E+01   -3.605E+01   -3.600E+01   -3.595E+01   -3.591E+01   -3.586E+01   -3.582E+01   -3.578E+01   -3.574E+01
    -3.570E+01   -3.567E+01   -3.563E+01   -3.560E+01   -3.557E+01   -3.553E+01   -3.550E+01   -3.547E+01   -3.545E+01   -3.542E+01
    -3.539E+01   -3.537E+01   -3.535E+01   -3.532E+01   -3.530E+01   -3.528E+01   -3.526E+01   -3.524E+01   -3.522E+01   -3.521E+01
    -3.519E+01   -3.517E+01   -3.516E+01   -3.515E+01   -3.513E+01   -3.512E+01   -3.511E+01   -3.509E+01   -3.508E+01   -3.507E+01
    -3.506E+01   -3.505E+01   -3.504E+01   -3.503E+01   -3.503E+01   -3.502E+01   -3.501E+01   -3.501E+01   -3.500E+01   -3.500E+01
    -3.500E+01   -3.500E+01   -3.500E+01   -3.500E+01   -3.500E+01   -3.500E+01   -3.501E+01   -3.501E+01   -3.502E+01   -3.503E+01
    -3.504E+01   -3.506E+01   -3.507E+01   -3.509E+01   -3.511E+01   -3.513E+01   -3.515E+01   -3.517E+01   -3.520E+01   -3.523E+01
    -3.526E+01   -3.529E+01   -3.533E+01   -3.537E+01   -3.541E+01   -3.545E+01   -3.549E+01   -3.554E+01   -3.559E+01   -3.564E+01
    -3.569E+01   -3.575E+01   -3.581E+01   -3.587E+01   -3.593E+01   -3.600E+01   -3.607E+01   -3.614E+01   -3.621E+01   -3.629E+01
    -3.637E+01   -3.645E+01   -3.653E+01   -3.662E+01   -3.671E+01   -3.680E+01   -3.689E+01   -3.699E+01   -3.709E+01   -3.719E+01
    -3.729E+01   -3.740E+01   -3.751E+01   -3.762E+01   -3.773E+01   -3.784E+01   -3.796E+01   -3.808E+01   -3.819E+01   -3.831E+01
    -3.843E+01   -3.856E+01   -3.868E+01   -3.880E+01   -3.892E+01   -3.904E+01   -3.916E+01   -3.928E+01   -3.940E+01   -3.952E+01
    -3.964E+01   -3.976E+01   -3.987E+01   -3.999E+01   -4.010E+01   -4.021E+01   -4.031E+01   -4.042E+01   -4.052E+01   -4.062E+01
    -4.072E+01   -4.081E+01   -4.090E+01   -4.099E+01   -4.107E+01   -4.115E+01   -4.123E+01   -4.130E+01   -4.137E+01   -4.143E+01
    -4.149E+01   -4.154E+01   -4.159E+01   -4.164E+01   -4.168E+01   -4.171E+01   -4.174E+01   -4.176E+01   -4.178E+01   -4.179E+01
    -4.180E+01   -4.180E+01   -4.179E+01   -4.178E+01   -4.176E+01   -4.174E+01   -4.170E+01   -4.166E+01   -4.162E+01   -4.156E+01
    -4.150E+01   -4.143E+01   -4.136E+01   -4.127E+01   -4.118E+01   -4.109E+01   -4.098E+01   -4.087E+01   -4.076E+01   -4.064E+01
    -4.051E+01   -4.038E+01   -4.024E+01   -4.010E+01   -3.995E+01   -3.980E+01   -3.964E+01   -3.948E+01   -3.931E+01   -3.914E+01
    -3.897E+01   -3.879E+01   -3.861E+01   -3.842E+01   -3.824E+01   -3.804E+01   -3.785E+01   -3.765E+01   -3.746E+01   -3.725E+01
    -3.705E+01   -3.685E+01   -3.664E+01   -3.643E+01   -3.622E+01   -3.601E+01   -3.580E+01   -3.558E+01   -3.537E+01   -3.515E+01
    -3.494E+01   -3.472E+01   -3.451E+01   -3.429E+01   -3.408E+01   -3.386E+01   -3.365E+01   -3.343E+01   -3.322E+01   -3.301E+01
    -3.280E+01   -3.259E+01   -3.238E+01   -3.218E+01   -3.197E+01   -3.177E+01   -3.157E+01   -3.138E+01   -3.118E+01   -3.099E+01
    -3.080E+01   -3.062E+01   -3.043E+01   -3.025E+01   -3.008E+01   -2.990E+01   -2.973E+01   -2.956E+01   -2.940E+01   -2.923E+01
    -2.907E+01   -2.892E+01   -2.876E+01   -2.861E+01   -2.846E+01   -2.832E+01   -2.817E+01   -2.804E+01   -2.790E+01   -2.776E+01
    -2.763E+01   -2.750E+01   -2.738E+01   -2.726E+01   -2.714E+01   -2.702E+01   -2.690E+01   -2.679E+01   -2.668E+01   -2.658E+01
    -2.647E+01   -2.637E+01   -2.627E+01   -2.618E+01   -2.608E+01   -2.599E+01   -2.590E+01   -2.582E+01   -2.573E+01   -2.565E+01
    -2.557E+01   -2.549E+01   -2.542E+01   -2.534E+01   -2.527E+01   -2.520E+01   -2.513E+01   -2.506E+01   -2.499E+01   -2.492E+01
    -2.486E+01   -2.480E+01   -2.473E+01   -2.467E+01   -2.461E+01   -2.455E+01   -2.449E+01   -2.443E+01   -2.437E+01   -2.432E+01
    -2.426E+01   -2.420E+01   -2.414E+01   -2.409E+01   -2.403E+01   -2.398E+01   -2.392E+01   -2.387E+01   -2.381E+01   -2.376E+01
    -2.370E+01   -2.365E+01   -2.360E+01   -2.354E+01   -2.349E+01   -2.344E+01   -2.338E+01   -2.333E+01   -2.328E+01   -2.322E+01
    -2.317E+01   -2.312E+01   -2.307E+01   -2.301E+01   -2.296E+01   -2.291E+01   -2.286E+01   -2.280E+01   -2.275E+01   -2.270E+01
 Mac      Conc. = 2.76E-04
  -9.79043E+01 -9.78744E+01 -9.78834E+01 -9.80164E+01 -9.83920E+01 -9.92662E+01 -1.00552E+02 -1.01928E+02 -1.03039E+02 -1.03681E+02
  -1.03877E+02 -1.03855E+02 -1.03912E+02 -1.04464E+02 -1.05666E+02 -1.06883E+02 -1.06508E+02 -1.03550E+02 -9.94672E+01 -9.59324E+01
  -9.24292E+01 -8.86212E+01 -8.56794E+01 -8.39518E+01 -8.23783E+01 -8.05646E+01 -7.86724E+01 -7.65944E+01 -7.44187E+01 -7.25379E+01
  -7.10105E+01 -6.95973E+01 -6.85280E+01 -6.81279E+01 -6.80945E+01 -6.76088E+01 -6.60585E+01 -6.36759E+01 -6.15086E+01 -6.04466E+01
  -6.01012E+01 -5.95084E+01 -5.83286E+01 -5.68339E+01 -5.54568E+01 -5.45686E+01 -5.42427E+01 -5.43447E+01 -5.48540E+01 -5.56954E+01
  -5.64950E+01 -5.71304E+01 -5.76294E+01 -5.79164E+01 -5.79441E+01 -5.76424E+01 -5.67479E+01 -5.53281E+01 -5.39572E+01 -5.25754E+01
  -5.08781E+01 -4.94926E+01 -4.90032E+01 -4.91241E+01 -4.94242E+01 -4.97145E+01 -4.98835E+01 -5.00464E+01 -5.01989E+01 -4.95931E+01
  -4.76068E+01 -4.50061E+01 -4.28633E+01 -4.13205E+01 -4.02032E+01 -3.96324E+01 -3.96142E+01 -3.99503E+01 -4.02863E+01 -4.04696E+01
  -4.05975E+01 -4.06908E+01 -4.03495E+01 -3.95270E+01 -3.85979E+01 -3.77102E+01 -3.66915E+01 -3.56447E+01 -3.48009E+01 -3.40562E+01
  -3.33009E+01 -3.27085E+01 -3.23263E+01 -3.22851E+01 -3.29456E+01 -3.43930E+01 -3.62257E+01 -3.82072E+01 -4.01134E+01 -4.17273E+01
  -4.32791E+01 -4.52738E+01 -4.77561E+01 -5.08612E+01 -5.51021E+01 -6.06964E+01 -6.66522E+01 -7.12945E+01 -7.36904E+01 -7.41262E+01
