 
 $NMID
 ID=''
 FMTDAT='(2E13.5)'
 TRAMP=   1.00000E+0
 VOLUME=   1.00000E+0
 $END
  -1.97808E+4   4.15313E+2
  -6.46939E+3   1.79699E+4
   1.72755E+4  -6.44667E+3
  -1.07139E+3  -1.73940E+4
  -1.15594E+4   1.25199E+4
   6.82296E+3   7.07195E+3
   1.95240E+3  -1.49329E+4
  -6.71007E+3   5.57479E+2
   6.93579E+3   8.38812E+3
   4.63098E+3  -5.11330E+3
  -6.79151E+3  -1.77558E+1
   1.95941E+1   4.87020E+3
   2.52455E+3  -1.88719E+3
  -3.30246E+3   2.29286E+3
  -1.72315E+3   1.77765E+3
  -2.37396E+2  -5.91819E+3
  -6.58303E+2   1.34930E+2
   2.33034E+3   4.38501E+3
  -3.93780E+2  -2.83728E+3
  -1.70869E+3  -1.17478E+3
   2.27843E+3   2.26034E+3
  -1.31956E+2  -1.82692E+3
  -1.56080E+3  -1.04546E+3
   2.43094E+3   1.83276E+3
  -3.64548E+2  -9.66574E+2
  -2.62776E+3  -1.98476E+3
   2.77190E+3   2.55776E+1
   1.89421E+3   1.24648E+3
  -2.50897E+3   1.19511E+3
  -4.13487E+2  -3.50159E+2
   1.18391E+3  -1.21357E+3
  -2.24124E+2   1.66128E+3
  -3.84719E+2   2.05500E+3
  -1.69899E+3  -1.57760E+2
  -2.41445E+3  -1.90365E+3
   1.00902E+3  -2.48288E+3
   2.44116E+3  -2.96128E+2
   4.10270E+2   1.93901E+3
  -3.31382E+2  -2.76533E+2
   2.16520E+2  -7.55123E+2
  -3.06868E+2   1.35337E+3
  -1.05842E+3   4.02932E+2
  -7.51946E+2  -2.40306E+3
   6.74553E+2  -1.30492E+3
   1.03222E+3  -4.87451E+2
   7.17622E+2  -3.09201E+2
   1.00113E+3   1.39165E+3
  -7.51673E+1   2.04440E+3
  -2.01724E+3   3.92186E+2
  -1.50598E+3  -7.83768E+2
  -2.85211E+2  -7.44098E+2
  -4.03893E+2  -6.95439E+2
  -2.06008E+2  -6.84822E+2
   4.49547E+2  -2.54548E+2
   6.06799E+2  -1.42120E+2
  -5.85878E+1   4.38475E+2
  -6.47636E+2   1.04789E+3
  -1.23450E+3  -8.59471E+1
  -6.41339E+2  -1.39525E+3
   5.86206E+2  -1.18632E+3
   6.68070E+2  -2.03828E+2
   6.77367E+2   1.06347E+2
   8.32416E+2   6.24205E+2
   2.59633E+2   1.58088E+3
  -1.30474E+3   1.44544E+3
  -2.02663E+3   3.86711E+2
  -1.52829E+3  -1.04304E+3
  -5.41724E+2  -1.67330E+3
   4.99501E+2  -9.95546E+2
   4.03305E+2   2.40546E+2
  -7.24600E+2   2.59431E+2
  -5.32533E+2  -6.54144E+2
   9.65795E+2  -8.41441E+2
   1.00719E+3   2.07262E+2
   1.01413E+2   5.77683E+2
  -2.88990E+2  -9.07285E+1
  -3.25619E+0  -7.44701E+1
   5.27043E+2   2.94953E+2
   4.70431E+1   4.04134E+2
  -4.75197E+2   5.98824E+2
  -7.37464E+2   2.54376E+1
  -4.42491E+2  -2.10994E+2
  -2.32664E+2  -9.58225E+1
  -1.54897E+2   1.41996E+2
  -4.04626E+2   9.87543E+0
  -4.39122E+2  -7.98103E+2
   2.26050E+2  -8.36678E+2
   4.00925E+2  -7.04581E+1
   9.78180E+1   3.11951E+1
   1.50516E+1  -2.75173E+2
   6.58537E+2  -3.92839E+2
   7.20717E+2   4.09365E+1
   1.69827E+2   9.83716E+2
  -6.67891E+2   1.24353E+3
  -8.50846E+2  -4.19089E+1
  -7.95611E+2  -1.21319E+3
  -3.32345E+2  -6.24465E+2
   1.19724E+2   3.95057E+1
  -3.66764E+2  -3.32923E+2
  -1.21825E+2  -5.89185E+2
   8.27336E+2  -3.18596E+2
   6.62302E+2   5.10026E+2
  -7.67124E+2   6.18668E+2
  -1.17726E+3  -6.22707E+1
  -1.75134E+2  -8.35884E+2
   6.14312E+2  -1.45923E+2
   3.35523E+2   3.44512E+2
  -8.39863E+2   5.25646E+2
  -1.29916E+3  -6.81224E+2
  -3.78637E+2  -1.02954E+3
   7.23336E+2  -9.37831E+2
   8.26512E+2  -1.80993E+2
   2.57688E+2   3.21560E+2
   7.82223E+0   8.88954E+1
   8.79608E+1   2.94589E+2
  -9.60052E+0   7.34019E+2
  -3.94185E+2   8.50734E+2
  -1.21740E+3   2.43120E+2
  -1.00019E+3  -8.04407E+2
  -1.21213E+2  -1.04426E+3
   8.26665E+2  -5.16591E+2
   6.20434E+2  -5.42105E+1
   6.47663E+2   4.18814E+1
   2.71279E+2   2.84682E+2
  -1.94768E+2   4.94001E+2
  -4.26990E+2   3.47935E+2
  -6.01957E+2  -1.90490E+2
  -1.91083E+2  -3.32047E+2
   3.24706E+2  -2.98223E+2
   4.82281E+2   1.39726E+1
   1.77783E+2   5.74035E+2
  -5.50634E+2   3.99733E+2
  -6.96770E+2  -2.85156E+2
   2.37957E+2  -2.75822E+2
  -1.55040E+1  -2.62414E+2
  -3.78317E+2  -1.07800E+2
  -2.39854E+2  -2.76717E+2
   4.54464E+2  -2.96080E+2
   2.31667E+2   1.46173E+2
   1.60822E+2   6.11727E+2
  -6.50986E+2   2.24074E+2
  -4.46966E+2  -3.93682E+2
   1.09852E+2  -8.54143E+2
   6.87219E+2  -7.99271E+1
   5.13157E+2   6.49132E+2
   7.70884E+1   6.74871E+2
  -4.20914E+2   3.47746E+2
  -1.70556E+2   2.30037E+2
  -4.59153E+2   2.29056E+2
  -5.08296E+2  -1.24381E+2
  -5.10401E+2  -6.36031E+2
  -5.87282E+1  -6.25594E+2
   5.25615E+2  -4.46229E+2
   3.85675E+2   1.31599E+1
   8.63691E+1   3.53266E+2
  -2.01794E+2  -9.96622E+1
   1.54075E+2  -2.43492E+2
   3.24502E+2  -4.92652E+0
  -9.25052E+1   2.27420E+2
  -2.63768E+1  -1.48908E+2
  -1.35785E+1   1.69038E+2
   1.59068E+2   1.71319E+2
  -2.00972E+1   1.91855E+2
  -4.18982E+2   9.80686E+1
  -4.84779E+2  -4.39331E+2
   8.27574E+1  -4.65403E+2
   5.20701E+2  -1.43376E+2
   2.54931E+2   3.15097E+2
  -1.42951E+2  -4.64249E+1
  -2.89707E+2  -3.16603E+2
   2.27194E+2  -2.93927E+2
   2.53100E+2  -8.61151E+1
   1.92334E+1   2.90150E+2
   9.33704E+1  -7.15058E+1
  -2.83296E+2  -2.90030E+1
   1.91323E+2  -2.59239E+2
   3.77874E+2   2.99838E+2
  -3.70021E+2   1.75264E+2
  -2.99251E+2  -3.21272E+2
   2.93292E+2  -6.67990E+2
   4.60670E+2  -2.02225E+1
   4.09973E+2   1.52104E+2
  -2.45318E+2   3.27915E+2
  -1.58640E+2   7.26668E+1
  -2.38375E+2  -1.21784E+2
  -2.45695E+2  -8.19407E+1
  -1.30944E+2  -1.63585E+2
  -4.43472E+2  -4.74192E+2
   2.44818E+2  -8.48653E+2
   9.49440E+2  -4.10154E+2
   7.08030E+2   3.57354E+2
  -2.52808E+2   5.03452E+2
  -6.23175E+2   5.74373E+2
  -5.44265E+2  -2.73728E+2
  -3.85536E+1  -4.30315E+2
  -6.05059E+1  -2.59770E+2
   1.60965E+2   4.99931E+1
   1.00893E+2  -1.17958E+2
   1.91711E+2  -7.48612E+1
   1.36799E+2   1.25278E+2
  -9.91780E+1   2.32853E+2
  -5.01693E+2  -1.27889E+1
  -2.47516E+2  -5.44098E+2
   2.79059E+2  -4.58795E+2
   3.18273E+2  -1.60134E+2
  -1.82710E+2   1.57119E+2
  -2.68459E+2  -2.25639E+1
  -1.56206E+2  -1.17504E+2
   2.23264E+2  -9.97122E+1
   7.50070E+1  -8.51410E+1
  -2.27486E+2  -2.19783E+2
  -2.02061E+2  -4.49543E+2
   6.42284E+2  -2.65691E+2
   5.30152E+2   3.41495E+2
  -1.85962E+2   5.78355E+2
  -5.86778E+2   4.80592E+2
  -5.29228E+2  -3.06299E+2
  -1.08160E+2  -3.13203E+2
   2.50120E+2  -1.58914E+2
  -6.14222E+1  -2.04628E+2
  -8.80019E+1  -7.66336E+1
   1.50649E+2  -2.44147E+2
   4.73510E+1  -1.14796E+2
   7.52271E+1   2.06355E+2
  -4.41602E+2   5.63465E+2
  -5.31551E+2  -2.90463E+2
   3.77243E+1  -4.79070E+2
   2.33221E+2  -8.01997E+1
   7.67129E+0   9.10919E+1
  -5.85602E+1   2.37675E+2
  -4.35844E+2  -1.15192E+2
   2.96744E+2  -5.62175E+1
   1.65438E+2   1.68616E+2
  -5.86767E+1  -4.76709E+1
  -5.29796E+2  -8.15007E+1
  -9.29991E+1  -3.05451E+2
   2.70259E+2   6.65940E+1
   4.85480E+1   1.87965E+2
  -1.68410E+2   1.51860E+1
  -3.18765E+2  -1.62710E+2
   2.72848E+2  -2.25322E+2
   3.64020E+2   1.73242E+2
  -4.71308E-1   3.49103E+2
  -1.20107E+2   2.19110E+2
  -3.30581E+2  -7.69438E+1
  -1.15393E+2  -2.04742E+2
  -5.80233E+1   1.99820E+2
  -2.11183E+2   8.04203E+1
  -9.58508E+1  -1.12251E+2
   1.75124E+2  -2.52229E+2
   3.36128E+2  -5.46637E+1
  -1.28708E+2   3.12249E+2
  -2.39393E+2   2.43696E+2
  -1.67395E+2  -3.11442E+1
   6.21613E+0  -3.41463E+2
   3.82132E+2  -3.15232E+2
   2.84401E+2  -5.63594E+1
   2.45832E+2   8.32996E+1
  -1.48432E+2  -1.00797E+2
   5.60789E+1   1.52719E+2
  -1.78164E+1   3.65265E+2
  -5.17678E+2   2.84337E+2
  -6.05587E+2  -3.00961E+2
   2.44405E+2  -4.11842E+2
   4.83334E+2  -3.10668E+2
   3.82684E+2  -5.22874E+1
  -8.50494E+1   2.41952E+2
  -3.88386E+2   2.59552E+2
  -5.08823E+0   3.26289E+1
   7.65359E+1  -1.92068E+2
  -3.53718E+1  -5.03492E+1
   2.92972E+2  -1.06363E+2
   7.46096E+1  -1.80353E+2
   9.72027E+1   6.81399E+1
   2.20675E+2   2.83784E-1
  -3.27895E+2   2.88742E+2
  -2.61988E+2   2.19474E+2
  -2.13006E+2  -3.48006E+2
   1.48019E+2  -4.39123E+2
   1.18615E+2  -1.39950E+2
  -1.75483E+2   2.13321E+2
   1.06294E+2   1.41030E+2
   1.68592E+2  -1.20554E+2
   1.07890E+2   1.24762E+2
  -4.23213E+2   1.78075E+2
  -1.18457E+2   2.03458E+2
  -3.43332E+2  -6.77790E+2
   7.94133E+1  -3.89638E+2
   4.80968E+2   2.03671E+1
   1.76915E+2   4.61701E+2
  -3.14140E+2  -9.43190E+1
  -9.95049E+1   1.12479E+2
   1.55198E+2   3.23588E+1
  -9.07690E+1  -2.40015E+1
   6.43957E+1   5.39090E+1
  -7.58158E+1  -1.63056E+2
   2.51961E+2   9.61850E+1
   1.35326E+2  -1.50554E+2
   6.90218E+1   3.40681E+2
  -3.20660E+2   1.30024E+2
  -3.48691E+2  -2.81203E+2
   3.91385E+2  -7.28040E+1
  -6.29730E+1   3.58538E+2
  -8.09057E+1   4.33865E+2
  -1.71482E+2  -6.81186E+1
  -2.58352E+2  -1.91412E+2
  -3.47225E+1  -4.65059E+2
  -1.44814E+2  -1.77050E+2
  -1.33346E+2   1.36059E+2
  -2.58797E+2   1.63039E+1
   1.78761E+2  -3.22813E+0
   3.15501E+2   1.27197E+1
   1.86796E+0   2.71560E+2
  -2.72243E+1   7.43161E+1
  -1.76216E+2   1.07294E+2
  -1.92630E+2  -1.76948E+2
   1.99263E+2   1.82382E+1
   9.26115E+1   1.53409E+2
  -3.19548E+2  -2.25831E+1
   4.29569E+1   1.19307E+1
   1.48422E+2   1.11105E+2
   7.60274E+1   2.57584E+2
  -2.22483E+2   2.84633E+2
  -1.91072E+2  -2.50318E+2
  -5.11218E+1  -1.60427E+2
   2.40783E+2   7.99235E+1
   1.14940E+2   4.08420E+2
   7.47681E+1   1.96284E+2
  -3.44593E+2  -1.11473E+2
  -2.44926E+1  -1.24346E+2
   6.15652E+1  -1.04160E+1
   3.65111E+0  -1.35459E+2
  -2.02938E+2  -1.07017E+2
   1.99115E+2  -8.19440E+1
   3.12647E+2   6.76662E+1
   6.48389E+1   3.66830E+2
  -2.10071E+2   4.36292E+2
  -3.24810E+2   6.48840E+1
  -2.65672E+2  -1.96772E+2
  -2.92757E+1  -4.48170E+2
   2.27163E+2   1.50608E+2
  -4.57265E+0  -1.55209E+2
  -2.09431E+2   6.03702E+1
  -7.23861E+1  -1.17380E+2
   3.26552E+2  -2.04536E+1
  -1.36557E+2   2.02224E+2
  -1.51781E+2  -1.92472E+2
   6.61780E+1   4.02872E+0
   2.29143E+2  -1.34408E+2
   2.66462E+2   2.39006E+2
  -3.73745E+1   2.97110E+2
  -4.64387E+2  -2.55710E+1
  -2.48033E+1  -4.34113E+1
  -3.83200E+1   6.06852E+1
   1.40631E+1   1.45685E+2
  -3.96364E+1  -1.59389E+2
  -2.63806E+2  -1.15464E+2
   2.76758E+2  -8.43083E+1
   1.66485E+1   4.12355E+2
  -2.03860E+2   3.91922E+2
  -4.44137E+2   2.19712E+2
  -3.47276E+2  -3.68716E+2
   1.72247E+2  -3.81573E+2
   1.85529E+2  -3.16094E+2
   3.61741E+1   1.35829E+2
  -1.96530E+2   2.48932E+2
   3.48183E+1   2.48352E+2
