 
 $NMID
 ID=''
 FMTDAT='(2E13.5)'
 TRAMP=   1.00000E+0
 VOLUME=   1.00000E+0
 $END
   1.81683E+4   1.00434E+4
   1.85850E+4  -7.69781E+3
  -2.58123E+3  -6.37935E+3
   1.42969E+3   1.33717E+4
   1.04956E+4   6.96933E+3
  -5.90004E+3   6.14370E+2
  -6.66633E+3   8.11086E+3
   4.00101E+3   1.18832E+3
  -4.13225E+3  -4.55520E+3
  -5.62409E+3   4.63187E+3
   1.64156E+3   1.82489E+3
  -4.32427E+3  -5.59531E+3
  -3.91881E+3  -8.05868E+2
   3.30612E+3   2.66117E+1
  -1.88638E+3  -4.08459E+3
  -2.12169E+3  -2.95112E+3
   5.79746E+3  -2.49153E+3
   2.80077E+3  -1.19666E+3
  -4.98185E+2   1.89714E+3
   3.23302E+3   7.95299E+1
   1.51941E+3   2.96308E+2
  -4.84363E+2   2.56045E+3
   2.16785E+3   3.70240E+2
   2.01347E+2   7.39385E+2
  -2.11353E+3   2.99216E+3
  -1.12106E+3  -1.65939E+2
   2.14364E+1  -1.01509E+3
  -4.13460E+2   2.47566E+3
  -1.71781E+3   1.00630E+3
  -2.51933E+3  -2.06972E+3
   1.10459E+2  -1.20211E+3
   1.04539E+3  -2.93632E+2
  -1.14577E+3   3.84625E+2
  -1.65265E+3   5.65532E+0
  -6.10895E+2  -2.41638E+3
   5.46796E+2  -2.54312E+3
   2.85786E+3  -7.64377E+1
   1.90678E+3   9.65948E+2
   7.24795E+1   1.33210E+2
   7.39933E+2   8.84927E+2
   5.87333E+2   1.97592E+3
  -1.33941E+3   1.24270E+3
  -3.38399E+2   7.03889E+1
   3.39793E+2  -4.15964E+2
  -6.59131E+2   3.15564E+2
  -2.91988E+2   5.14113E+2
   7.12388E+2   5.34343E+2
  -6.96330E+2   1.46918E+3
  -2.04720E+3   1.98882E+2
  -1.41879E+3  -1.66697E+3
   2.11660E+2  -1.50957E+3
   1.64272E+2  -7.26436E+2
   1.93456E+2  -9.85965E+2
   1.23018E+3  -8.70828E+2
   1.53838E+3   1.10143E+2
   9.41000E+2   7.76712E+2
  -1.62805E+2   1.16446E+3
  -2.19409E+2   2.38496E+2
   1.27352E+2  -7.12136E+2
   3.76494E+2  -4.61621E+1
   3.40623E+2   4.78946E+2
   2.38065E+2   5.71124E+2
   5.08972E+2   5.15636E+2
  -3.65287E+2   9.87373E+2
  -1.56895E+3   6.01956E+2
  -1.55517E+3  -6.05180E+2
  -6.41968E+2  -1.47567E+3
  -5.73972E+1  -1.48175E+3
   6.07273E+2  -8.38730E+2
   6.09984E+2  -5.10684E+1
   9.22626E+1  -5.24573E+1
   2.98494E+2  -4.80796E+2
   8.31414E+2  -1.37596E+2
   7.20501E+2   7.96450E+2
   2.56865E+2   6.35884E+2
  -7.78423E+1   2.25809E+2
  -2.02128E+1   4.90252E+2
   3.92469E+1   8.83454E+2
  -4.22279E+2   5.30607E+2
  -6.34381E+2   2.33031E+2
  -6.60036E+2  -3.01972E+2
  -4.97198E+2  -2.88041E+2
  -1.46228E+2  -4.22304E+2
  -5.82231E+1  -2.36169E+2
  -5.70510E+2  -3.59733E+2
  -9.17502E+1  -4.89007E+2
   7.18514E+2  -4.47977E+2
   4.07987E+2   2.14701E+2
  -5.25060E+1   2.26511E+2
   2.16727E+2   1.15530E+2
   7.64721E+2   5.84687E+1
   4.30060E+2   6.36280E+2
  -2.04425E+2   1.06513E+3
  -4.60636E+2   5.12605E+2
  -4.00911E+2  -3.28410E+2
  -1.88401E+2  -1.39862E+2
   5.55508E+0   4.05325E+1
  -1.13587E+2   1.63073E+2
  -6.00648E+1  -5.41111E+1
   3.61165E+1  -3.03412E+2
   1.40309E+2   2.78878E+2
   1.08375E+2   4.09288E+2
  -3.87783E+2   2.52338E+2
  -2.87259E+2  -4.70787E+2
   1.00400E+2  -5.32324E+2
   6.65019E+2  -1.80732E+2
   4.46665E+2   4.15169E+2
  -4.55096E+2   2.79529E+2
  -3.60816E+2  -5.36520E+2
   2.89211E+2  -7.95119E+2
   7.76371E+2  -6.71980E+1
   2.78613E+2   2.87860E+2
  -1.78359E+2   2.37432E+2
  -7.01242E+1   4.22250E+1
   6.33816E+0   3.62849E+1
  -1.31925E+2   3.49920E+2
  -6.52711E+2   2.50336E+2
  -6.73165E+2  -2.02234E+2
  -1.42691E+2  -5.19073E+2
   3.34618E+2  -6.41151E+2
   3.22609E+2  -2.03736E+2
   1.31929E+2   2.11839E+1
  -2.98354E+1   5.14718E-1
  -1.62330E+2   2.22482E+2
  -4.24347E+2   2.77201E+2
  -1.36709E+2  -5.87915E+1
   3.96870E+1  -1.90681E+2
   1.34484E+2  -5.15028E+2
   2.70507E+2   1.25471E+2
  -1.44629E+2   2.11098E+2
  -1.82173E+2   1.58170E+2
  -4.36219E+2  -1.59528E+2
   8.42709E+1  -2.87310E+2
  -6.64475E+1   1.38646E+1
  -1.54380E+2   4.14327E+1
   6.35843E+1  -2.29221E+2
   3.85227E+2  -4.95098E+1
   4.79030E+2   5.40943E+1
  -5.07455E+1   5.02717E+2
  -2.97668E+2   1.01326E+2
  -2.02612E+2  -1.86420E+2
   1.66278E+2  -3.41175E+2
   1.17441E+2  -9.24988E+1
   2.42950E+2   6.35031E+2
  -2.89296E+2   2.60109E+2
  -4.54905E+2  -6.58508E+1
  -6.29087E+1  -1.09954E+2
   2.97182E+2  -1.85237E+2
  -3.93383E+1  -2.23546E+2
  -2.02187E+1  -9.98439E+1
  -9.39956E+1  -1.92787E+2
   1.24372E+2  -1.56685E+2
   2.20836E+2   1.11554E+2
  -4.35213E+1   2.15397E+2
  -1.65143E+1  -4.73005E+1
   1.63015E+2  -1.02804E+2
   1.71963E+2   4.98335E+1
  -2.05039E+1   6.81887E+1
  -3.81322E+1   9.55174E+1
  -5.54223E+1  -4.66484E+1
  -4.09181E+0  -1.23731E+2
   4.54538E+1   2.39863E+2
  -1.21325E+2  -1.44866E+0
   4.64100E+1  -2.56838E+2
   1.64803E+2  -1.42843E+2
   2.80293E+2   1.34319E+2
   2.12032E+2   1.69486E+2
  -1.33453E+2  -4.12383E+1
  -3.79553E+2   1.16177E+1
   8.22860E+1  -8.52901E+1
   1.82923E+2  -1.30938E+1
  -2.03742E+2   1.30165E+2
  -7.60149E+1   6.62955E+1
  -5.98928E+0  -3.71236E+2
   2.41928E+2   2.73587E+2
  -7.94351E+1   1.24203E+2
   8.21601E+0  -2.44338E+1
  -1.27271E+2  -2.16464E+2
   8.75593E+1  -1.71782E+2
   2.83270E+2  -3.02500E+1
   1.58811E+2   3.89638E+2
  -1.02760E+2   1.80713E+2
   7.88631E+1   7.23682E+1
  -5.57689E+1   1.08376E+2
  -3.94716E+1   1.98796E+1
   2.18300E+2  -1.94411E+2
   9.55793E+1  -9.17967E+1
   2.39269E+2   2.02184E+1
   1.94719E+2  -3.25189E+1
   1.46780E+2   2.97623E+2
  -1.90403E+2   2.15988E+2
  -1.27650E+2  -2.91680E+1
   1.05919E+2  -2.07141E+2
   3.82983E+2   7.08787E+1
   2.35529E+2   5.67566E+1
   2.89313E+1   1.32449E+2
   4.78761E+1  -6.39359E+1
   1.94902E+2   2.59933E+2
  -1.20345E+2  -7.64933E+1
  -5.16840E+1  -5.13417E+1
  -1.61773E+1  -7.99753E+1
   1.20498E+2  -1.38873E+2
   2.68891E+2   2.38288E+2
   5.32124E+0   1.27615E+2
  -3.16620E-1   1.45827E+2
   8.29842E+1  -1.86844E+2
   1.38384E+2  -1.17376E+2
   2.45022E+2  -1.88024E+2
  -2.13910E+2  -9.76841E+1
  -2.98336E+1  -2.43495E+1
   5.49130E+1  -1.02674E+2
   3.66514E+1   1.73044E+2
  -1.55664E+1   4.92378E+1
  -2.10871E+2   2.11180E+2
  -9.79540E+1   1.04828E+2
   3.43098E+1  -3.55251E+2
   2.16823E+2  -3.68938E+1
   1.41924E+2   2.03817E+2
  -5.81917E+1   2.24111E+2
   2.09452E+1   5.97240E+1
  -1.84745E+2   1.68186E+1
   1.81166E+2   1.52606E+2
  -5.87528E+1   2.98919E+2
  -2.26782E+2  -3.68290E+0
  -1.18477E+2  -2.93159E+2
   6.85977E+1  -1.70470E+2
   1.47852E+2   3.63897E+2
  -4.37013E+1   2.04251E+2
  -1.74343E+2   8.80994E+1
   1.62717E+2  -1.49116E+2
  -1.08729E+2  -1.78203E+2
   1.51672E+2   1.04382E+2
  -8.52764E+1  -1.13265E+2
   8.84277E+1   1.17156E+2
  -6.30815E+1   3.36794E+1
   8.86213E+1  -2.58799E+1
   2.76404E+2  -1.19758E+1
  -1.40977E+2   1.23441E+2
   1.68978E+2   4.41197E+1
   4.04710E+1   1.02382E+2
   2.60599E+2   4.78331E+0
  -2.23753E+2   1.93466E+2
   1.26271E+2  -1.46433E+2
   1.21484E+2   3.56635E+1
  -2.00350E+1  -4.44185E+1
   4.02034E+1  -2.59585E+1
   1.94131E+1   4.78017E+1
  -3.73739E+0  -8.60413E+1
   8.21663E+1   9.04154E+1
   1.24713E+2   1.25004E+2
  -1.51720E+2   4.12075E+1
   9.26216E+0  -1.09215E+1
   2.70434E+1  -1.41620E+2
   2.00773E+2  -6.73713E+1
   1.21816E+2   3.64898E+1
   8.69601E+1   2.79835E+2
   2.15406E+2  -1.06117E+1
  -2.59095E+1   4.61757E+1
   1.54746E+2   4.17698E+1
  -3.79064E+1  -1.79338E+1
  -1.02973E+2  -2.06541E+2
   1.70349E+2  -3.21933E+2
  -1.42388E+1   7.34544E+1
   3.23638E+2   1.52361E+2
  -3.47486E+1   3.71049E+1
  -2.92423E+2   3.85181E+1
  -1.98340E+2  -1.79312E+2
   3.65949E+1  -1.21325E+2
   1.66265E+2  -6.68639E+0
   8.12888E+1   1.76403E+2
   5.68607E+1   5.40284E+1
   1.70340E+1   8.50612E+0
  -9.83809E+0  -7.26517E+1
   2.58424E+2   1.95775E+1
  -1.16070E+2  -7.31000E+1
  -1.78752E+2  -1.51447E+2
   1.65333E+2  -1.59036E+2
   1.43273E+2  -1.33746E+2
  -6.26621E+1   1.18349E+2
   1.00876E+2  -4.64529E+1
   6.97483E+1  -5.97432E+1
   1.59517E+2  -7.38628E+1
  -1.77271E+2   1.65297E+2
  -7.11444E-1   1.51805E+2
  -8.83890E+1   4.00847E+1
   1.83181E+2  -2.68339E+2
   2.64647E+2   7.59953E+1
   5.98143E+1   1.18904E+1
   5.49712E+1   5.79888E+0
   1.80878E+2   3.86919E+1
   8.22003E+1  -2.44113E+2
   3.02021E+1  -3.10258E+1
  -2.05566E+1  -3.94908E-1
   4.35565E+1  -1.26284E+1
   1.76413E+2   1.43074E+2
   5.31693E+1  -1.45714E+1
   3.55897E+1  -1.26967E+2
   4.78255E+1  -7.76475E+1
   8.73001E+1  -3.33261E+2
   7.04895E+1  -8.28813E+1
   2.98547E+2  -2.82866E+2
   3.33559E+1  -5.72759E+0
  -3.19948E+2   1.41733E+2
  -7.51943E+1  -2.31597E+2
  -4.74738E+1  -3.10540E+1
   3.31465E+2  -5.96202E+1
  -1.58338E+2   2.81080E+2
  -6.32482E+1  -1.66445E+2
  -1.38718E+2  -8.13241E+1
   1.81978E+1   2.30100E+1
   1.07750E+2   3.29924E+1
  -1.56366E+1   4.32194E+0
  -7.12190E+1  -4.00352E+1
  -6.22453E+0  -1.28155E+2
   5.97552E+1   1.45159E+2
  -1.47260E+2  -6.26831E+1
   7.89908E+1   5.10560E+1
  -8.18851E+1  -2.19627E+2
   9.35736E+1  -1.65082E+2
   5.27281E+0   7.54595E+0
  -3.33000E+1   6.65508E-1
  -8.41190E+1  -1.14607E+1
   3.78634E+1  -3.40377E+1
   1.76611E+1   4.58646E+1
  -1.98891E+1   1.10203E+2
  -1.72453E+2   9.45012E+1
  -1.48876E+2  -1.31727E+2
   6.59664E+1  -7.73691E+1
   1.30889E+2  -1.60602E+2
  -1.00720E+2   4.35905E+1
   7.45822E+1   1.04206E+2
   1.02055E+2   3.00269E+1
   7.68589E+1   1.11561E+2
   2.89034E+1   1.03180E+2
  -2.28455E+0  -2.38070E+1
   4.55469E+1  -1.70061E+2
  -7.87905E+1  -5.85011E+1
   5.74623E+1  -2.10806E+2
   1.83391E+2   1.48095E+2
   2.62914E+0   1.83188E+2
  -1.17813E+2   1.02424E+2
  -7.33582E+1  -1.48569E+2
  -5.28155E+1  -6.62456E+1
  -8.09983E+1  -1.58459E+2
   1.11696E+2  -4.06559E+0
  -6.66137E+1  -1.24622E+2
   6.95422E+1  -7.32113E+1
  -1.20730E+2  -3.93525E+1
   6.02774E+1   1.35370E+2
  -2.28390E+2   1.02160E+2
  -9.01040E+1  -6.62586E+1
  -7.67848E+1   2.60893E+1
   1.82068E+2  -1.50375E+2
   1.25282E+2  -1.13573E+2
  -8.32379E+0  -2.31392E+2
   6.21038E+0  -8.76138E+1
   3.52783E+1   4.89555E+1
  -2.28278E+0  -1.28528E+2
  -5.11012E+1   9.55216E+0
  -1.79256E+2   3.66708E+1
  -1.70716E+1  -1.08047E+2
   5.37528E+1  -1.37977E+2
  -1.29570E+2   1.20518E+2
   5.86972E+1   1.89094E+2
  -1.82771E+2   3.80594E+1
   8.93285E+1  -8.76815E+1
   1.03233E+2  -1.35461E+2
