 
 $NMID
 ID=''
 FMTDAT='(2E13.5)'
 TRAMP=   1.00000E+0
 VOLUME=   1.00000E+0
 $END
  -2.75613E+4   6.98918E+3
   4.43497E+3   3.27134E+4
   3.51211E+4  -6.20695E+3
   2.11755E+3  -3.53347E+4
  -3.61564E+4  -4.96417E+3
  -1.33990E+4   2.77523E+4
   2.53322E+4   1.35454E+4
   2.00758E+4  -1.60982E+4
  -8.94889E+3  -1.88967E+4
  -1.87252E+4   4.55622E+3
  -2.09957E+3   1.86393E+4
   1.29634E+4   4.90454E+3
   6.32361E+3  -1.12750E+4
  -8.42419E+3  -7.03709E+3
  -9.26484E+3   3.67282E+3
   1.54688E+3   5.21553E+3
   7.43338E+3   9.03423E+2
   3.21699E+3  -3.77274E+3
  -3.90563E+3  -3.21036E+3
  -3.62347E+3   1.72801E+3
   6.02105E+2   3.15808E+3
   2.82212E+3  -3.39285E+2
   2.00496E+3  -1.31656E+3
  -1.38555E+3  -4.99458E+2
  -2.23482E+3  -5.02914E+2
   1.68673E+3   6.47059E+2
   2.94601E+3   1.73038E+3
  -6.74117E+2   1.74156E+2
  -1.75371E+3  -1.33848E+3
   1.13066E+3  -1.92996E+2
   8.30986E+2   1.60332E+3
  -8.41057E+2   8.04296E+2
  -5.80165E+2  -1.02313E+3
  -1.15056E+2  -1.21742E+3
   4.61444E+1  -6.01264E+2
   8.09649E+2  -4.43176E+2
   1.26992E+3   7.15749E+2
   4.97538E+2   8.85653E+2
  -5.84137E+2  -1.35261E+2
  -4.79470E+2  -1.91491E+2
  -5.10868E+2   4.51042E+2
   1.18605E+1  -1.69377E+2
   3.69261E+2  -9.04168E+2
   8.16209E+2  -8.54732E+2
   5.61992E+2   3.17482E+2
   3.27643E+2   1.45030E+3
  -7.92790E+2   1.51600E+3
  -1.17459E+3  -6.33717E+2
  -8.75722E+2  -1.27310E+3
  -4.06193E+2  -7.90013E+2
   1.02577E+2  -5.99182E+1
   7.99755E+2  -6.33322E+2
   6.07844E+2  -3.46388E+2
  -1.61941E+2   5.57746E+2
  -4.22810E+2   1.08415E+3
   2.06609E+2   3.57756E+2
  -5.76490E+2  -1.16884E+2
  -9.71451E+2  -7.41712E+2
  -1.31717E+1  -1.12127E+3
   9.46679E+2  -1.44246E+2
   7.49445E+2   7.50475E+2
   1.82005E+2   6.52710E+2
  -3.89567E+2   7.35834E+2
  -9.27687E+2   6.92263E+2
  -1.06180E+3  -6.20256E+0
  -9.54550E+2  -9.71874E+2
   2.30834E+1  -1.23649E+3
   7.15238E+2  -3.71940E+2
   7.10882E+2   4.46360E+2
   2.61993E+1   5.87260E+2
  -4.56545E+1  -1.87589E+2
   5.91569E+2  -2.48850E+2
   2.35687E+2   5.24918E+2
  -5.52954E+2   8.35063E+2
  -2.86387E+2   3.43063E+2
   8.31881E+1  -1.25284E+1
   1.97537E+2  -8.29868E+1
  -3.52242E+2   3.24858E+2
  -2.69147E+2   4.49783E+2
  -2.06774E+2   1.98573E+2
  -7.16149E+1  -3.80182E+2
  -3.90558E+1  -3.26148E+2
   9.25732E+1   2.60189E+0
   6.02426E+1  -6.87882E+1
   5.32162E+1  -2.43027E+2
   6.87452E+2  -1.15816E+1
   4.33303E+2  -1.35363E+0
   1.16352E+2   2.47939E+2
   1.06928E+2   1.90696E+2
   3.76437E+1   2.59935E+2
   4.45183E+2   1.58007E+2
   1.21777E+2   3.62686E+2
  -4.71034E+2   1.75816E+2
  -5.30342E+2  -2.29762E+2
   1.55129E+2  -5.98781E+2
   4.32159E+2  -4.36730E+2
   2.16120E+2   7.35034E+1
   4.08906E+1   1.10000E+2
   7.84377E+1  -2.18442E+2
   6.94335E+2  -7.81162E+1
   2.48155E+2   5.14760E+2
  -2.15714E+2   5.81176E+2
  -3.29745E+2   2.92700E+1
   2.61454E+2  -2.39909E+2
   3.43131E+2  -9.54229E+1
   2.17104E+2   3.86031E+2
  -2.36657E+2   2.47138E+2
  -5.85650E+2  -3.50180E+1
  -3.21385E+2  -7.39857E+2
   5.92426E+2  -7.55099E+2
   1.05383E+3  -4.65682E+1
   3.83949E+2   4.75136E+2
  -2.86126E+2   4.06441E+2
  -2.95707E+2  -9.38406E+1
   1.38894E+2   2.83170E+2
  -6.24004E+1   6.84119E+1
  -5.49162E+2  -3.58387E+2
  -4.59740E+2  -4.75529E+2
   3.79037E+2  -8.19378E+2
   7.61324E+2  -1.09381E+2
   5.22765E+2   2.59186E+1
   2.14578E+2   2.13775E+2
   5.01948E+0   5.58321E+2
  -3.89679E+2   4.03303E+2
  -3.22990E+2  -2.50950E+2
  -2.03536E+2  -3.25076E+2
   2.93365E+2  -2.29607E+2
   9.88656E+0   2.82378E+1
   1.28423E+2  -1.60219E+1
  -2.43979E+1   1.25369E+2
  -1.90094E+2   1.47428E+2
  -5.91930E+2  -2.81120E+2
  -2.63546E+2  -4.61952E+2
   3.10941E+2  -1.31789E+2
  -2.75196E+1  -9.43661E+1
   5.01261E+1  -1.71610E+2
   1.41545E+2  -1.75757E+2
   4.42083E+2   1.50466E+2
  -1.18263E+2   6.71116E+2
  -1.07482E+2  -8.05608E+1
  -3.04588E+2  -2.35919E+2
   2.76055E+2  -2.21349E+2
   2.74769E+2   1.55143E+2
   1.72762E+2   3.09810E+2
  -1.20123E+2   2.20027E+2
  -3.66926E+2  -1.03496E+2
  -1.16847E+2  -3.96704E+1
  -1.00159E+2  -2.32653E+2
  -2.64721E+2  -1.30486E+2
   2.47075E+2  -1.38203E+2
   1.95787E+2  -1.22980E+2
   3.73543E+2   1.15985E+2
   4.41485E+2   1.20059E+2
   9.18275E+1   3.11755E+2
   1.22481E+2  -1.30263E+0
  -1.74237E+1  -4.83017E+1
  -5.85739E+1   1.71021E+2
  -2.66960E+2   1.32339E+2
  -2.26580E+2   5.62382E+1
  -8.75890E+1  -8.42497E+1
   1.10901E+2  -1.08445E+0
   1.17969E+2   9.10760E+1
   5.40885E+1  -2.45838E+1
   9.04615E-1  -3.12038E+2
   3.48028E+2  -2.41876E+2
   3.57267E+2   2.35144E+2
   2.41262E+2   1.84984E+2
  -4.80735E+1  -2.20278E+2
   2.18799E+2  -2.46261E+1
   9.19540E+1  -1.20439E+2
   2.43159E+2   1.27719E+2
  -6.12538E+1  -5.66238E+1
   1.02197E+2  -9.39249E+1
  -1.97246E+2   1.32533E+2
  -1.53157E+2  -1.75583E+2
  -1.29228E+2  -3.01382E+1
  -2.39358E+2  -1.41641E+2
  -1.11486E+2  -3.16142E+2
   2.46165E+2  -3.03097E+2
   2.36421E+2   1.22248E+1
  -8.28259E+1   2.24543E+2
  -3.97840E+2  -9.20403E+1
  -6.47478E+1  -1.79796E+2
  -6.10423E+1  -1.20837E+2
  -2.58456E+2  -2.86863E+2
  -1.07176E+1  -1.52597E+2
   2.22623E+2  -2.35224E+2
   1.60405E+2   1.58088E+2
   8.24288E+1   2.93343E+2
  -1.33455E+2   1.85369E+2
  -1.10456E+2   3.08441E+2
  -3.23041E+2  -2.72975E+2
  -6.83660E+1  -2.95359E+2
  -3.48191E+1  -2.43246E+2
   2.34770E+2  -3.00300E+0
   2.60764E+2  -1.07647E+2
   1.17924E+2  -1.33236E+2
  -7.87341E+1   9.95655E+0
  -1.20790E+2   1.25960E+2
  -7.45893E+1  -7.10785E+1
  -2.13031E+2  -5.91347E+1
  -1.16549E+2  -1.95318E+2
   3.06963E+2  -1.96719E+2
   9.96648E+1   1.00409E+2
  -5.20800E+1  -4.43336E+0
   1.17608E+1   2.13472E+2
  -1.16762E+2  -1.63115E+2
   1.32399E+1   1.99043E+2
  -8.09037E+1  -2.15443E+1
  -4.52367E+0  -2.31048E+1
   5.29225E+1   1.08313E+0
   4.33830E+2  -6.10132E+1
   1.68373E+2   2.20011E+2
  -3.14670E+2   1.99332E+2
  -3.10724E+2  -3.88401E+2
  -1.06303E+2  -2.20782E+2
   2.00516E+2  -2.00261E+2
   1.00678E+1  -1.92290E+2
   1.15941E+2  -2.28033E+1
   2.00740E+2   1.50022E+2
   6.41622E+1  -1.09963E+2
  -4.86463E+1   2.14455E+2
  -8.33866E+1   1.36196E+0
  -1.21938E+2  -1.96389E+2
   2.88124E+1  -4.03551E+2
  -8.21178E+1  -2.91573E+2
   9.66693E+1   4.94512E+1
  -2.25249E+1   2.70827E+2
   6.53036E+1  -2.94287E+0
   4.44497E+1  -4.32441E+1
   8.04910E+1  -8.14260E+1
  -9.55264E+0  -1.30788E+2
  -1.20167E+2  -1.53468E+2
   4.97862E+1  -1.16748E+2
  -6.21885E+1  -2.33639E+1
   4.52050E+1  -6.64885E+1
   2.09714E+1   1.22090E+1
   7.05821E+1  -5.43299E+1
   1.24143E+2  -1.23117E+2
   7.59348E+1   6.30450E+1
   5.65800E+1   9.62168E+1
   2.87838E+2   4.50855E+1
   1.12445E+2  -4.05103E+1
  -1.25791E+2  -9.09529E+1
   2.10260E+2  -1.13675E+2
   2.68860E+2   2.96865E+0
  -1.13963E+1   1.87052E+2
   1.46138E+2  -1.46542E+2
   2.38166E+2  -8.45594E+1
  -2.42441E+2  -2.48516E+1
   3.78387E+1   2.39839E+2
   2.50110E+2  -1.96124E+2
  -1.55609E+2  -2.33352E+2
   6.62777E+1  -5.03452E+1
   2.12011E+1  -6.71324E+1
   1.21496E+2   1.14137E+2
  -1.43548E+0   8.90065E+0
   3.71796E+1  -2.96171E+2
  -1.74623E+2  -1.42580E+2
  -2.88022E+2  -7.14519E+1
  -1.74656E+1  -7.38057E+1
  -4.36599E+2  -1.30339E+2
   1.31668E+2  -6.75837E+1
  -3.80011E+1   9.47005E+1
   2.84621E+2   1.48919E+2
  -1.50599E+2  -4.57452E+1
   6.05602E+1  -1.32403E+2
  -3.19399E+2  -3.14719E+2
   8.02133E+1  -2.68322E+2
  -6.25500E+1  -1.14267E+2
  -1.33037E+2   1.62716E+2
  -6.89824E+0   1.30036E+2
  -1.37433E+2   2.04756E+2
  -3.05673E+2  -7.88365E+1
  -4.27414E+1  -1.10056E+2
  -1.38260E+2  -5.44142E+1
  -5.10427E+1  -1.32902E+2
  -9.73315E+0   1.54315E+1
  -1.50485E+2  -2.26171E+1
   1.09604E+2   2.92547E+2
  -5.63205E+0   2.07727E+2
   1.20820E+1  -1.04508E+2
   1.54202E+2   1.92124E+2
   1.55693E+2   7.69698E+1
  -1.44036E+2   3.07540E+0
  -4.38747E+1   4.34298E+1
   6.94786E+1  -1.67477E+2
   1.79929E+1   1.79855E+1
   6.62797E+0   1.26922E+2
  -1.18075E+2   1.63681E+2
  -5.03584E+1   5.87777E+1
   2.89901E+1   1.44903E+2
   9.58553E+1   1.11936E+2
  -1.64298E+2   2.33888E+1
   4.64489E+1   2.17897E+1
   6.24457E+1   1.71189E+2
  -3.16457E+2  -1.70008E+1
   2.85917E+2   2.19818E+2
  -3.99163E+1   1.43032E+2
  -2.42467E+1   3.77400E+1
  -2.31742E+1  -1.73789E+2
  -9.10829E+1  -1.98360E+1
  -9.86762E+1   2.39135E+2
   3.39581E+0  -4.19479E+1
  -2.29859E+2   1.58990E+2
  -2.67594E+1  -6.77602E+1
  -2.68725E+0  -3.71437E+1
   3.41749E+1  -3.06067E+1
   1.76571E+2  -1.59922E+0
   1.49811E+0   2.79434E+1
   2.53747E+2  -3.80093E+1
   9.50385E+1   9.88825E+1
  -6.22989E+0  -6.45342E+1
   2.73233E+1   9.00645E+1
   5.13069E+1  -2.38275E+2
  -8.23685E+1   5.64045E+0
  -1.42293E+2   3.14764E+1
  -1.23345E+2  -4.14327E+1
  -4.15790E+1   8.81873E+1
  -1.51420E+2   3.68622E+1
  -9.46768E+1  -1.02552E+2
  -1.98630E+1   2.85119E+2
  -3.50535E+1   1.44140E+2
   2.80922E+1   1.24365E+2
   1.58069E+2   1.30494E+2
   1.06463E+2   2.99409E+2
   4.46757E+1   7.49134E+1
  -2.37526E+2   8.65525E+1
  -8.10566E+1  -9.49574E+1
  -4.33331E+1   3.20945E+1
   6.88124E+1   7.83724E+1
  -1.31502E+2  -5.63948E+1
   5.13920E+1   6.01611E+1
  -2.69305E+2   4.96078E+1
  -1.04753E+2  -1.19552E+2
   1.70765E+2   2.15507E+2
  -3.93850E+1  -3.10821E+1
  -1.59673E+1  -6.46885E+1
   2.53647E+1   5.52251E+1
   1.14642E+2  -6.94827E+1
   1.04117E+2   1.24742E+2
  -9.34714E+0   1.38288E+2
  -1.31135E+2   3.18372E+2
  -2.01666E+2  -7.04337E+0
   9.85482E+1  -9.53529E+1
  -2.72114E+2   1.71658E+2
  -1.25763E+2   1.43869E+2
   1.95572E+2  -6.43417E+1
  -2.48242E+2   1.10720E+2
  -1.76440E+2  -1.38325E+2
   2.65933E+1   6.00207E+0
   1.69630E+1   1.53448E+2
  -2.66953E+1   7.25884E+1
  -2.19560E+1   4.48718E+1
   9.19871E+1  -1.19321E+2
  -1.04242E+0   1.85379E+2
  -3.78416E+1   1.24473E+1
   1.42900E+2   1.47683E+2
  -2.18567E+2   1.75213E+2
  -4.44114E+1   2.28284E+2
  -2.50423E+2   1.20271E+2
   9.58333E+1  -1.89445E+2
   6.08425E+1   8.85801E+1
   1.93654E+2   2.44496E+2
  -1.74636E+2   7.75210E+1
  -1.52748E+2   2.27541E+2
   1.18787E+2   7.23789E+1
