 
 $NMID
 ID=''
 FMTDAT='(2E13.5)'
 TRAMP=   1.00000E+0
 VOLUME=   1.00000E+0
 $END
  -1.37848E+5   5.90648E+5
  -8.53735E+5   1.36571E+6
  -6.46250E+5   1.43733E+6
  -6.78227E+5   1.28976E+6
  -7.85337E+5   1.29393E+6
  -7.82331E+5   1.26971E+6
  -8.23356E+5   1.20865E+6
  -8.60342E+5   1.24081E+6
  -8.13568E+5   1.23300E+6
  -8.28246E+5   1.17247E+6
  -8.65046E+5   1.16114E+6
  -8.58973E+5   1.14390E+6
  -8.74486E+5   1.12260E+6
  -8.78471E+5   1.13346E+6
  -8.54611E+5   1.11133E+6
  -8.60903E+5   1.07679E+6
  -8.81276E+5   1.07528E+6
  -8.89182E+5   1.05229E+6
  -9.11905E+5   1.01949E+6
  -9.23432E+5   1.00929E+6
  -9.25040E+5   9.82295E+5
  -9.42937E+5   9.51963E+5
  -9.53446E+5   9.39774E+5
  -9.56526E+5   9.17913E+5
  -9.67621E+5   8.93557E+5
  -9.66368E+5   8.88018E+5
  -9.62081E+5   8.73011E+5
  -9.66203E+5   8.58882E+5
  -9.64786E+5   8.49591E+5
  -9.61737E+5   8.35678E+5
  -9.71973E+5   8.16587E+5
  -9.74878E+5   8.00611E+5
  -9.77654E+5   7.79959E+5
  -9.87450E+5   7.60267E+5
  -9.92007E+5   7.41879E+5
  -9.96029E+5   7.20233E+5
  -1.00744E+6   7.01730E+5
  -1.01402E+6   6.81957E+5
  -1.01403E+6   6.61847E+5
  -1.01586E+6   6.48271E+5
  -1.01600E+6   6.36017E+5
  -1.01496E+6   6.20716E+5
  -1.01224E+6   6.09103E+5
  -1.01061E+6   6.00512E+5
  -1.00971E+6   5.88143E+5
  -1.01051E+6   5.76191E+5
  -1.01080E+6   5.62956E+5
  -1.01155E+6   5.45268E+5
  -1.01232E+6   5.27031E+5
  -1.01310E+6   5.10493E+5
  -1.01435E+6   4.94125E+5
  -1.01661E+6   4.77465E+5
  -1.01787E+6   4.61494E+5
  -1.01910E+6   4.44870E+5
  -1.01864E+6   4.29083E+5
  -1.01821E+6   4.14507E+5
  -1.01682E+6   4.00022E+5
  -1.01410E+6   3.86598E+5
  -1.01022E+6   3.75179E+5
  -1.00909E+6   3.63489E+5
  -1.00783E+6   3.50243E+5
  -1.00596E+6   3.36399E+5
  -1.00449E+6   3.22971E+5
  -1.00291E+6   3.08359E+5
  -9.99714E+5   2.92256E+5
  -9.95309E+5   2.77026E+5
  -9.92010E+5   2.63244E+5
  -9.89326E+5   2.49303E+5
  -9.87182E+5   2.35574E+5
  -9.84441E+5   2.22096E+5
  -9.80337E+5   2.08470E+5
  -9.75496E+5   1.95828E+5
  -9.72022E+5   1.84513E+5
  -9.68918E+5   1.72341E+5
  -9.64441E+5   1.59569E+5
  -9.59021E+5   1.47375E+5
  -9.54575E+5   1.34734E+5
  -9.50535E+5   1.21689E+5
  -9.45854E+5   1.08097E+5
  -9.40427E+5   9.42185E+4
  -9.34436E+5   8.06529E+4
  -9.28577E+5   6.84260E+4
  -9.22978E+5   5.57697E+4
  -9.17185E+5   4.33720E+4
  -9.10548E+5   3.16339E+4
  -9.03629E+5   2.14800E+4
  -8.97233E+5   1.16252E+4
  -8.90766E+5   1.48018E+3
  -8.84186E+5  -8.02521E+3
  -8.76822E+5  -1.61117E+4
  -8.69599E+5  -2.44323E+4
  -8.62934E+5  -3.37259E+4
  -8.55745E+5  -4.37849E+4
  -8.47610E+5  -5.41706E+4
  -8.38962E+5  -6.34334E+4
  -8.31056E+5  -7.21443E+4
  -8.23648E+5  -8.11525E+4
  -8.15751E+5  -9.08631E+4
  -8.06938E+5  -9.98279E+4
  -7.98833E+5  -1.08106E+5
  -7.90691E+5  -1.15473E+5
  -7.82776E+5  -1.23957E+5
  -7.73151E+5  -1.31565E+5
  -7.63558E+5  -1.37993E+5
  -7.55031E+5  -1.43847E+5
  -7.47070E+5  -1.49713E+5
  -7.38743E+5  -1.56199E+5
  -7.29435E+5  -1.63019E+5
  -7.19169E+5  -1.69041E+5
  -7.09259E+5  -1.74210E+5
  -7.01097E+5  -1.79559E+5
  -6.92473E+5  -1.86429E+5
  -6.83528E+5  -1.92912E+5
  -6.73458E+5  -1.99244E+5
  -6.63810E+5  -2.05160E+5
  -6.54486E+5  -2.11586E+5
  -6.45003E+5  -2.17692E+5
  -6.34937E+5  -2.23058E+5
  -6.24595E+5  -2.27525E+5
  -6.15022E+5  -2.31402E+5
  -6.06628E+5  -2.35951E+5
  -5.97650E+5  -2.40905E+5
  -5.88388E+5  -2.45747E+5
  -5.79208E+5  -2.50152E+5
  -5.69201E+5  -2.54718E+5
  -5.59055E+5  -2.58974E+5
  -5.49155E+5  -2.62833E+5
  -5.40001E+5  -2.66725E+5
  -5.30546E+5  -2.70562E+5
  -5.21476E+5  -2.74763E+5
  -5.11500E+5  -2.79425E+5
  -5.01625E+5  -2.83684E+5
  -4.91537E+5  -2.86996E+5
  -4.82912E+5  -2.90358E+5
  -4.73376E+5  -2.93972E+5
  -4.63260E+5  -2.96980E+5
  -4.54033E+5  -2.99674E+5
  -4.45130E+5  -3.02595E+5
  -4.36145E+5  -3.05778E+5
  -4.26695E+5  -3.08750E+5
  -4.17058E+5  -3.11034E+5
  -4.07939E+5  -3.13037E+5
  -3.98807E+5  -3.14516E+5
  -3.90562E+5  -3.16633E+5
  -3.82265E+5  -3.19080E+5
  -3.73090E+5  -3.20570E+5
  -3.63943E+5  -3.21696E+5
  -3.55319E+5  -3.22676E+5
  -3.47064E+5  -3.23694E+5
  -3.38794E+5  -3.24358E+5
  -3.30569E+5  -3.24706E+5
  -3.22512E+5  -3.24810E+5
  -3.14669E+5  -3.25223E+5
  -3.07433E+5  -3.25545E+5
  -2.99230E+5  -3.25859E+5
  -2.91186E+5  -3.25534E+5
  -2.84033E+5  -3.25002E+5
  -2.76650E+5  -3.25017E+5
  -2.68981E+5  -3.24310E+5
  -2.61661E+5  -3.23735E+5
  -2.54371E+5  -3.23108E+5
  -2.47179E+5  -3.22417E+5
  -2.39673E+5  -3.21457E+5
  -2.32584E+5  -3.20180E+5
  -2.25458E+5  -3.18758E+5
  -2.19006E+5  -3.17290E+5
  -2.12564E+5  -3.16338E+5
  -2.05978E+5  -3.15157E+5
  -1.99482E+5  -3.13563E+5
  -1.92975E+5  -3.11754E+5
  -1.86810E+5  -3.10026E+5
  -1.80602E+5  -3.08553E+5
  -1.74766E+5  -3.06913E+5
  -1.68444E+5  -3.04816E+5
  -1.62549E+5  -3.02572E+5
  -1.56568E+5  -3.01185E+5
  -1.50718E+5  -2.99321E+5
  -1.44386E+5  -2.97680E+5
  -1.38432E+5  -2.94916E+5
  -1.33030E+5  -2.92797E+5
  -1.27827E+5  -2.90826E+5
  -1.22013E+5  -2.88945E+5
  -1.16229E+5  -2.86911E+5
  -1.10744E+5  -2.84777E+5
  -1.05692E+5  -2.82485E+5
  -1.00578E+5  -2.80232E+5
  -9.51693E+4  -2.77874E+5
  -9.03089E+4  -2.75400E+5
  -8.58675E+4  -2.72676E+5
  -8.15475E+4  -2.70747E+5
  -7.65456E+4  -2.68857E+5
  -7.13954E+4  -2.66640E+5
  -6.63821E+4  -2.63949E+5
  -6.16441E+4  -2.61374E+5
  -5.74241E+4  -2.58623E+5
  -5.29748E+4  -2.56551E+5
  -4.85968E+4  -2.54058E+5
  -4.40651E+4  -2.51507E+5
  -3.95623E+4  -2.49374E+5
  -3.50604E+4  -2.47021E+5
  -3.05521E+4  -2.44397E+5
  -2.67607E+4  -2.41388E+5
  -2.28006E+4  -2.38705E+5
  -1.87789E+4  -2.36102E+5
  -1.52249E+4  -2.33550E+5
  -1.14941E+4  -2.30902E+5
  -7.28921E+3  -2.28486E+5
  -4.18007E+3  -2.25457E+5
  -4.71571E+2  -2.22788E+5
   3.14320E+3  -2.19967E+5
   6.44737E+3  -2.17027E+5
   9.69725E+3  -2.14232E+5
   1.28078E+4  -2.11698E+5
   1.60699E+4  -2.09202E+5
   1.93127E+4  -2.06390E+5
   2.23994E+4  -2.03187E+5
   2.50689E+4  -2.00118E+5
   2.76333E+4  -1.97430E+5
   3.01575E+4  -1.94432E+5
   3.29621E+4  -1.91579E+5
   3.50847E+4  -1.88631E+5
   3.75379E+4  -1.85863E+5
   3.98216E+4  -1.83297E+5
   4.20852E+4  -1.80350E+5
   4.44669E+4  -1.77418E+5
   4.61090E+4  -1.74463E+5
   4.78860E+4  -1.71584E+5
   4.94499E+4  -1.68903E+5
   5.15735E+4  -1.66097E+5
   5.34187E+4  -1.63533E+5
   5.48565E+4  -1.60408E+5
   5.63184E+4  -1.57705E+5
   5.77669E+4  -1.55028E+5
   5.89845E+4  -1.52378E+5
   5.99695E+4  -1.49558E+5
   6.12363E+4  -1.47026E+5
   6.24503E+4  -1.44593E+5
   6.37679E+4  -1.42181E+5
   6.45321E+4  -1.39456E+5
   6.54434E+4  -1.36808E+5
   6.63792E+4  -1.34486E+5
   6.70599E+4  -1.32147E+5
   6.81440E+4  -1.29431E+5
   6.88997E+4  -1.26922E+5
   6.96765E+4  -1.24628E+5
   7.02792E+4  -1.22489E+5
   7.11447E+4  -1.20006E+5
   7.16600E+4  -1.17598E+5
   7.22433E+4  -1.15243E+5
   7.28258E+4  -1.12782E+5
   7.31796E+4  -1.10714E+5
   7.40845E+4  -1.08522E+5
   7.43739E+4  -1.06216E+5
   7.49702E+4  -1.04011E+5
   7.50306E+4  -1.01650E+5
   7.52645E+4  -9.96125E+4
   7.61607E+4  -9.75269E+4
   7.66790E+4  -9.53385E+4
   7.70430E+4  -9.34303E+4
   7.73677E+4  -9.13221E+4
   7.79014E+4  -8.94285E+4
   7.81871E+4  -8.70307E+4
   7.83049E+4  -8.48772E+4
   7.83297E+4  -8.27426E+4
   7.84447E+4  -8.10069E+4
   7.86463E+4  -7.90390E+4
   7.91055E+4  -7.71706E+4
   7.93335E+4  -7.52811E+4
   7.92569E+4  -7.32028E+4
   7.92859E+4  -7.13288E+4
   7.92616E+4  -6.94705E+4
   7.93645E+4  -6.75684E+4
   7.93582E+4  -6.59360E+4
   7.91660E+4  -6.38202E+4
   7.92941E+4  -6.26478E+4
   7.95181E+4  -6.06232E+4
   7.93430E+4  -5.87450E+4
   7.91468E+4  -5.70110E+4
   7.90027E+4  -5.53270E+4
   7.86476E+4  -5.36622E+4
   7.85406E+4  -5.20180E+4
   7.80513E+4  -5.05754E+4
   7.81756E+4  -4.88492E+4
   7.77997E+4  -4.72655E+4
   7.78331E+4  -4.59686E+4
   7.75007E+4  -4.42047E+4
   7.70298E+4  -4.25921E+4
   7.66599E+4  -4.14703E+4
   7.60951E+4  -3.99889E+4
   7.60632E+4  -3.85414E+4
   7.56597E+4  -3.71258E+4
   7.51981E+4  -3.57837E+4
   7.48591E+4  -3.44555E+4
   7.42061E+4  -3.31230E+4
   7.40150E+4  -3.16531E+4
   7.32547E+4  -3.04631E+4
   7.28896E+4  -2.91169E+4
   7.25216E+4  -2.80936E+4
   7.22016E+4  -2.70514E+4
   7.16409E+4  -2.55270E+4
   7.09897E+4  -2.45202E+4
   7.03712E+4  -2.34418E+4
   6.99371E+4  -2.20050E+4
   6.94087E+4  -2.10765E+4
   6.87461E+4  -1.96909E+4
   6.83504E+4  -1.87114E+4
   6.78408E+4  -1.78653E+4
   6.70847E+4  -1.66427E+4
   6.65019E+4  -1.56750E+4
   6.58838E+4  -1.47019E+4
   6.56559E+4  -1.35520E+4
   6.48547E+4  -1.27033E+4
   6.45228E+4  -1.16806E+4
   6.38364E+4  -1.09125E+4
   6.32562E+4  -9.86750E+3
   6.25817E+4  -9.02345E+3
   6.19620E+4  -8.06376E+3
   6.14268E+4  -7.13518E+3
   6.07962E+4  -6.29459E+3
   6.00477E+4  -5.51722E+3
   5.92533E+4  -4.68367E+3
   5.87863E+4  -4.02383E+3
   5.81618E+4  -3.07606E+3
   5.76176E+4  -2.46201E+3
   5.69447E+4  -1.51501E+3
   5.61616E+4  -6.67211E+2
   5.60389E+4  -5.64699E+1
   5.52229E+4   7.89389E+2
   5.43870E+4   1.43883E+3
   5.37872E+4   1.76309E+3
   5.31858E+4   2.54014E+3
   5.23377E+4   3.23655E+3
   5.17590E+4   3.73488E+3
   5.12283E+4   4.49321E+3
   5.06296E+4   4.81774E+3
   4.99132E+4   5.58377E+3
   4.94429E+4   6.26644E+3
   4.87332E+4   6.91957E+3
   4.79659E+4   7.49364E+3
   4.72003E+4   7.81381E+3
   4.68355E+4   8.37820E+3
   4.61825E+4   9.14819E+3
   4.54384E+4   9.46239E+3
   4.47218E+4   9.79950E+3
   4.42231E+4   1.05617E+4
   4.36838E+4   1.08218E+4
   4.28607E+4   1.12971E+4
   4.22166E+4   1.17210E+4
   4.17366E+4   1.21393E+4
   4.10954E+4   1.24457E+4
   4.04467E+4   1.28862E+4
   4.00288E+4   1.35218E+4
   3.89123E+4   1.37574E+4
   3.86009E+4   1.40912E+4
   3.78118E+4   1.45130E+4
   3.74364E+4   1.45674E+4
   3.65780E+4   1.46553E+4
   3.62479E+4   1.50851E+4
   3.54702E+4   1.53306E+4
   3.48852E+4   1.58426E+4
   3.44206E+4   1.64316E+4
   3.37505E+4   1.65135E+4
   3.31746E+4   1.64334E+4
   3.27280E+4   1.68050E+4
   3.22951E+4   1.69960E+4
   3.16681E+4   1.72710E+4
   3.09866E+4   1.71666E+4
