 LCModel (Version 6.3-1N) Copyright: S.W. Provencher.          Ref.: Magn. Reson. Med. 30:672-679 (1993).                
 Slice_N1@12_22  28-Feb-2025 11:37:56
 27 lines in following concentration table = NCONC+1
    Conc.  %SD /Cr+PCr  Metabolite                                         
 2.66E-04   7% 2.1E-04 Mac                                                 
    9.292  35%   7.173 Cr                                                  
    1.072 293%   0.827 PCr                                                 
    8.168  16%   6.306 Ins                                                 
   11.982  10%   9.249 NAA                                                 
    8.358  16%   6.452 Tau                                                 
    0.000 999%   0.000 PCho                                                
    0.000 999%   0.000 GPC                                                 
   11.612  12%   8.963 Glu                                                 
    0.589 162%   0.455 Gln                                                 
    0.000 999%   0.000 Ala                                                 
    0.000 999%   0.000 Asc                                                 
    3.672  37%   2.834 Asp                                                 
    0.000 999%   0.000 GABA                                                
    0.938  95%   0.724 Glc                                                 
 2.06E-02 999% 1.6E-02 GSH                                                 
   10.656  11%   8.226 Lac                                                 
    0.546 183%   0.422 NAAG                                                
    6.909  19%   5.334 PE                                                  
    0.000 999%   0.000 GPC+PCho                                            
   12.528   8%   9.671 NAA+NAAG                                            
   12.200  13%   9.418 Glu+Gln                                             
   10.364   9%   8.000 Cr+PCr                                              
   12.528   8%   9.671 NAA+NAAG                                            
   10.364   9%   8.000 Cr+PCr                                              
   12.200  13%   9.418 Glu+Gln                                             
   6 lines in following misc. output table
  FWHM = 0.041 ppm    S/N =   2                                            
  Data shift = 0.033 ppm                                                   
  Ph: -90 deg       0.0 deg/ppm                                            
  alphaB,S = 9.8E-02,   4.3E+01                                            
   19 spline knots.   Ns = 5(1)                                            
  ( 5) 3 infls.   ( 3) 1 extrs.                                            
  480 points on ppm-axis = NY
      4.100000     4.091866     4.083733     4.075600     4.067466     4.059333     4.051199     4.043066     4.034933     4.026799
      4.018666     4.010532     4.002399     3.994265     3.986132     3.977998     3.969864     3.961731     3.953597     3.945463
      3.937330     3.929196     3.921062     3.912929     3.904795     3.896662     3.888528     3.880394     3.872261     3.864127
      3.855993     3.847860     3.839726     3.831592     3.823459     3.815325     3.807191     3.799058     3.790924     3.782790
      3.774657     3.766523     3.758389     3.750256     3.742122     3.733989     3.725855     3.717721     3.709588     3.701454
      3.693320     3.685187     3.677053     3.668919     3.660786     3.652652     3.644518     3.636385     3.628251     3.620117
      3.611984     3.603850     3.595716     3.587583     3.579449     3.571316     3.563182     3.555048     3.546915     3.538781
      3.530647     3.522514     3.514380     3.506246     3.498113     3.489979     3.481845     3.473712     3.465578     3.457444
      3.449311     3.441177     3.433043     3.424910     3.416776     3.408643     3.400509     3.392375     3.384242     3.376108
      3.367974     3.359841     3.351707     3.343573     3.335440     3.327306     3.319172     3.311039     3.302905     3.294771
      3.286638     3.278504     3.270370     3.262237     3.254103     3.245970     3.237836     3.229702     3.221569     3.213435
      3.205301     3.197168     3.189034     3.180900     3.172767     3.164633     3.156499     3.148366     3.140232     3.132098
      3.123965     3.115831     3.107697     3.099564     3.091430     3.083297     3.075163     3.067029     3.058896     3.050762
      3.042628     3.034495     3.026361     3.018227     3.010094     3.001960     2.993826     2.985693     2.977559     2.969425
      2.961292     2.953158     2.945024     2.936891     2.928757     2.920624     2.912490     2.904356     2.896223     2.888089
      2.879955     2.871822     2.863688     2.855554     2.847421     2.839287     2.831153     2.823020     2.814886     2.806752
      2.798619     2.790485     2.782351     2.774218     2.766084     2.757951     2.749817     2.741683     2.733550     2.725416
      2.717282     2.709149     2.701015     2.692881     2.684748     2.676614     2.668480     2.660347     2.652213     2.644079
      2.635946     2.627812     2.619678     2.611545     2.603411     2.595278     2.587144     2.579010     2.570877     2.562743
      2.554609     2.546476     2.538342     2.530208     2.522075     2.513941     2.505807     2.497674     2.489540     2.481406
      2.473273     2.465139     2.457006     2.448872     2.440738     2.432605     2.424471     2.416337     2.408204     2.400070
      2.391936     2.383803     2.375669     2.367535     2.359402     2.351268     2.343134     2.335001     2.326867     2.318733
      2.310600     2.302466     2.294333     2.286199     2.278065     2.269932     2.261798     2.253664     2.245531     2.237397
      2.229263     2.221130     2.212996     2.204862     2.196729     2.188595     2.180461     2.172328     2.164194     2.156060
      2.147927     2.139793     2.131660     2.123526     2.115392     2.107259     2.099125     2.090991     2.082858     2.074724
      2.066590     2.058457     2.050323     2.042189     2.034056     2.025922     2.017788     2.009655     2.001521     1.993387
      1.985254     1.977120     1.968987     1.960853     1.952719     1.944586     1.936452     1.928318     1.920185     1.912051
      1.903917     1.895784     1.887650     1.879516     1.871383     1.863249     1.855115     1.846982     1.838848     1.830714
      1.822581     1.814447     1.806314     1.798180     1.790046     1.781913     1.773779     1.765645     1.757512     1.749378
      1.741244     1.733111     1.724977     1.716843     1.708710     1.700576     1.692442     1.684309     1.676175     1.668041
      1.659908     1.651774     1.643641     1.635507     1.627373     1.619240     1.611106     1.602972     1.594839     1.586705
      1.578571     1.570438     1.562304     1.554170     1.546037     1.537903     1.529769     1.521636     1.513502     1.505368
      1.497235     1.489101     1.480968     1.472834     1.464700     1.456567     1.448433     1.440299     1.432166     1.424032
      1.415898     1.407765     1.399631     1.391497     1.383364     1.375230     1.367096     1.358963     1.350829     1.342695
      1.334562     1.326428     1.318295     1.310161     1.302027     1.293894     1.285760     1.277626     1.269493     1.261359
      1.253225     1.245092     1.236958     1.228824     1.220691     1.212557     1.204423     1.196290     1.188156     1.180022
      1.171889     1.163755     1.155622     1.147488     1.139354     1.131221     1.123087     1.114953     1.106820     1.098686
      1.090552     1.082419     1.074285     1.066151     1.058018     1.049884     1.041750     1.033617     1.025483     1.017349
      1.009216     1.001082     0.992949     0.984815     0.976681     0.968548     0.960414     0.952280     0.944147     0.936013
      0.927879     0.919746     0.911612     0.903478     0.895345     0.887211     0.879077     0.870944     0.862810     0.854676
      0.846543     0.838409     0.830276     0.822142     0.814008     0.805875     0.797741     0.789607     0.781474     0.773340
      0.765206     0.757073     0.748939     0.740805     0.732672     0.724538     0.716404     0.708271     0.700137     0.692003
      0.683870     0.675736     0.667603     0.659469     0.651335     0.643202     0.635068     0.626934     0.618801     0.610667
      0.602533     0.594400     0.586266     0.578132     0.569999     0.561865     0.553731     0.545598     0.537464     0.529330
      0.521197     0.513063     0.504930     0.496796     0.488662     0.480529     0.472395     0.464261     0.456128     0.447994
      0.439861     0.431727     0.423593     0.415460     0.407326     0.399192     0.391059     0.382925     0.374792     0.366658
      0.358524     0.350391     0.342257     0.334124     0.325990     0.317856     0.309723     0.301589     0.293455     0.285322
      0.277188     0.269055     0.260921     0.252787     0.244654     0.236520     0.228386     0.220253     0.212119     0.203986
 NY phased data points follow
   8.02020E+01  8.00928E+01  8.34641E+01  1.00451E+02  9.01197E+01  8.03807E+01  9.61729E+01  1.05825E+02  1.05666E+02  9.66266E+01
   1.03537E+02  9.13420E+01  8.25273E+01  9.42242E+01  8.04034E+01  8.59238E+01  8.93745E+01  7.63211E+01  8.10222E+01  7.21835E+01
   6.07866E+01  6.81608E+01  8.89038E+01  9.86897E+01  1.12140E+02  1.45332E+02  1.43762E+02  1.51295E+02  1.63264E+02  1.57995E+02
   1.65453E+02  1.66296E+02  1.71766E+02  1.67278E+02  1.73338E+02  1.72205E+02  1.66027E+02  1.68670E+02  1.68248E+02  1.67987E+02
   1.41276E+02  1.45952E+02  1.45394E+02  1.44852E+02  1.68327E+02  1.80116E+02  2.10672E+02  2.27895E+02  2.25935E+02  2.12930E+02
   2.01696E+02  1.96008E+02  2.00215E+02  1.93512E+02  1.69921E+02  1.50949E+02  1.34609E+02  1.45118E+02  1.48237E+02  1.44846E+02
   1.33853E+02  1.33206E+02  1.48095E+02  1.33848E+02  1.34842E+02  1.58748E+02  1.58021E+02  1.41850E+02  1.30367E+02  1.02952E+02
   9.24190E+01  9.77102E+01  1.11101E+02  1.22272E+02  1.20858E+02  1.27799E+02  1.22593E+02  1.25673E+02  1.26275E+02  1.29587E+02
   1.24346E+02  1.19093E+02  1.06649E+02  9.25545E+01  9.00883E+01  6.16299E+01  7.77042E+01  8.23024E+01  1.04054E+02  1.24847E+02
   1.06533E+02  1.31456E+02  1.39258E+02  1.43849E+02  1.27881E+02  1.33762E+02  1.44179E+02  1.39108E+02  1.33284E+02  1.25738E+02
   1.51838E+02  1.20614E+02  1.19960E+02  1.08645E+02  7.38527E+01  8.43382E+01  6.88048E+01  6.02961E+01  4.58929E+01  3.43602E+01
  -2.53332E-01 -2.20163E+01 -1.71994E+01  1.67141E+00  2.83504E+01  1.97774E+01  4.82492E+01  5.67265E+01  5.85946E+01  7.23219E+01
   6.94457E+01  9.19644E+01  8.62500E+01  8.91587E+01  1.04828E+02  1.10153E+02  1.25643E+02  1.12570E+02  1.19796E+02  1.41720E+02
   1.52445E+02  1.72412E+02  1.20838E+02  4.39350E+01  3.06489E+00 -1.92679E+01 -1.43195E+01 -1.98997E+01 -2.10028E+01 -1.73766E+01
  -1.18245E+01 -5.56298E+00 -2.02325E+01 -1.22141E+01  2.34640E+00 -3.35659E+00  5.26667E+00  5.66287E+00  7.14503E+00  1.52683E+01
   4.09899E+00  2.18159E+01  2.65069E+01  1.41310E+01  2.87321E+01  4.39469E+01  5.28270E+01  4.45753E+01  3.41519E+01  3.09252E+01
   4.61326E+01  6.09228E+01  5.69100E+01  4.17930E+01  3.99878E+01  4.75167E+01  4.03448E+01  4.20891E+01  4.52730E+01  5.49742E+01
   6.06710E+01  7.39165E+01  6.92156E+01  6.54907E+01  7.68369E+01  6.51326E+01  8.19188E+01  7.74217E+01  7.08525E+01  5.72517E+01
   4.53785E+01  4.43366E+01  1.18063E+01  6.92929E+00  3.80431E+00  1.75286E+01  2.04357E+00  1.02253E+01  3.28004E+01  9.58211E+00
   2.94316E+01  2.09308E+01  3.92194E+01  4.78599E+01  4.36995E+01  5.30148E+01  1.51515E+01  3.92860E+01  3.84044E+01  2.57477E+01
   3.76621E+01  3.90040E+01  5.87360E+01  4.00830E+01  4.89671E+01  4.39447E+01  2.56831E+01  2.43624E+01 -2.19207E+00  2.32966E+01
   1.43799E+01 -9.34170E+00  1.08479E+01  1.84536E+01  4.08753E+01  6.48161E+01  9.78301E+01  1.08188E+02  9.82312E+01  9.14529E+01
   7.38624E+01  7.13742E+01  7.86123E+01  6.85973E+01  4.66701E+01  6.13388E+01  6.99253E+01  7.09704E+01  7.45049E+01  5.50829E+01
   5.90511E+01  6.01781E+01  3.75552E+01  2.77145E+01  3.96208E+01  2.78429E+01  6.13099E+00 -9.55467E+00 -1.60864E+01 -8.17527E-01
  -5.56597E+00 -9.53469E+00 -1.19089E+01 -5.28131E-01  1.02130E+01  1.87382E+01  2.57588E+01  9.56159E-01  1.85915E+01  3.72364E+00
  -2.08556E+01  1.94075E+00 -1.43762E+01 -2.93628E+00  1.48113E+01  7.84333E+00 -2.58337E+01 -1.10659E+01  1.17333E+02  1.84997E+02
   2.08794E+02  2.19782E+02  2.01911E+02  1.82078E+02  1.58541E+02  1.64774E+02  1.28488E+02  1.30699E+02  1.51180E+02  1.26879E+02
   1.29473E+02  1.14843E+02  1.26442E+02  1.34574E+02  1.26729E+02  1.26271E+02  1.16955E+02  1.10126E+02  9.89543E+01  1.05908E+02
   1.04227E+02  1.01858E+02  9.96722E+01  9.24098E+01  7.48532E+01  8.30851E+01  9.69926E+01  7.51330E+01  8.08174E+01  7.62414E+01
   8.05057E+01  7.81136E+01  6.92458E+01  6.13835E+01  3.08552E+01  4.02878E+01  3.01569E+01  1.88206E+01  2.74774E+01  2.67362E+01
   2.79472E+01  2.86632E+01  3.38044E+01  3.92616E+01  4.06217E+01  2.31029E+01  3.62293E+01  4.95729E+01  4.98209E+01  6.32897E+01
   6.25869E+01  6.64832E+01  7.27224E+01  9.51840E+01  1.13637E+02  1.31531E+02  1.40225E+02  1.25869E+02  1.38854E+02  1.48673E+02
   1.60092E+02  1.69584E+02  1.54836E+02  1.49903E+02  1.52384E+02  1.53132E+02  1.57207E+02  1.64435E+02  1.56121E+02  1.51538E+02
   1.47489E+02  1.47391E+02  1.52960E+02  1.07555E+02  1.00960E+02  1.02319E+02  5.37646E+01  6.19183E+01  7.09022E+01  5.27379E+01
   3.88151E+01  4.09021E+01  3.94954E+01  2.05348E+01  2.22699E+01  1.85108E+01  1.46509E+01  2.30649E+01  2.60883E+01  1.35699E+01
   2.79503E+01  4.01929E+01  2.53921E+01  2.50549E+01  1.97638E+01  2.58483E+01  1.13819E+01  2.14313E+00  1.83789E+01  1.84852E+01
   1.13403E+01  2.18608E+01  3.66013E+01  2.55315E+01  4.16054E+01  4.62081E+01  3.81545E+01  3.52524E+01  5.44260E+01  7.37197E+01
   5.22332E+01  6.86783E+01  6.09888E+01  6.73927E+01  8.22922E+01  7.02921E+01  8.54981E+01  7.43784E+01  7.61624E+01  7.85623E+01
   8.92343E+01  1.02065E+02  9.73500E+01  1.12937E+02  1.22459E+02  1.32134E+02  1.23816E+02  1.15580E+02  1.23958E+02  1.29971E+02
   1.25198E+02  1.10990E+02  1.10001E+02  9.52732E+01  8.29431E+01  7.48412E+01  5.33769E+01  5.56325E+01  6.00289E+01  5.00171E+01
   4.07826E+01  4.01801E+01  3.46560E+01  1.67943E+01  1.30305E+01  1.86264E+01  1.44054E+01 -5.84225E+00 -6.12101E+00 -2.15591E+00
   1.09391E+01  2.46097E+01  2.59800E+00  5.67976E+00  4.16670E+00  1.87938E+01  2.47237E+01  4.22050E+00 -1.82126E-02 -6.42445E+00
   1.91699E+01  4.59485E+00  9.10920E+00  2.06366E+01  2.19701E+00  1.50431E+01 -1.16219E+00  1.73415E+01  1.64425E+01 -6.78867E+00
   1.51588E+01  2.28838E+01  7.68186E+00 -4.13573E+00  1.18723E+01  1.46766E+01  1.41078E+01  8.42022E+00  9.27319E+00  2.08423E+01
   1.22206E+01  1.88048E+00 -8.84845E+00  1.97659E+00 -6.88796E-01  1.62093E+00  1.44232E+01  6.51217E-01  1.74856E+01  2.53652E+01
   1.27570E+01  2.18803E+01  9.12206E+00  1.95898E+00  1.75477E+01  4.67523E-01 -3.15545E-01  1.76944E+01  2.46153E+01  3.44104E+01
   1.48434E+01  1.86054E+01  1.75375E+01 -2.13467E+00  1.38457E+01  1.60922E+01  1.31570E+01 -4.82072E-01  1.06090E+01  2.22248E+01
   7.88024E+00  1.80169E+01  7.31285E+00  2.25665E+01  2.92148E+01  2.41261E+00  2.58616E+00  4.93689E+00  1.30494E+01  7.42781E-01
 NY points of the fit to the data follow
   9.69181E+01  1.00872E+02  1.03466E+02  1.03699E+02  1.02619E+02  1.02925E+02  1.05929E+02  1.09900E+02  1.11590E+02  1.08944E+02
   1.02637E+02  9.44006E+01  8.62489E+01  7.98786E+01  7.64795E+01  7.59239E+01  7.76528E+01  7.93858E+01  8.22458E+01  8.55938E+01
   8.59776E+01  8.35599E+01  8.43324E+01  9.54694E+01  1.17597E+02  1.42702E+02  1.62234E+02  1.73554E+02  1.78588E+02  1.79663E+02
   1.79158E+02  1.78014E+02  1.76210E+02  1.73839E+02  1.70854E+02  1.66911E+02  1.62487E+02  1.57534E+02  1.52361E+02  1.46508E+02
   1.40611E+02  1.35899E+02  1.34252E+02  1.37046E+02  1.44107E+02  1.53569E+02  1.62754E+02  1.69437E+02  1.72973E+02  1.73763E+02
   1.72740E+02  1.70195E+02  1.67281E+02  1.64085E+02  1.58738E+02  1.52099E+02  1.45371E+02  1.37837E+02  1.30401E+02  1.24410E+02
   1.21304E+02  1.22005E+02  1.25679E+02  1.31173E+02  1.36936E+02  1.41322E+02  1.43547E+02  1.41931E+02  1.34722E+02  1.23280E+02
   1.12332E+02  1.06344E+02  1.06405E+02  1.11070E+02  1.19038E+02  1.28958E+02  1.37819E+02  1.44042E+02  1.46093E+02  1.44380E+02
   1.38658E+02  1.29335E+02  1.17477E+02  1.04793E+02  9.40372E+01  8.82818E+01  8.89632E+01  9.53909E+01  1.05058E+02  1.15305E+02
   1.24063E+02  1.31094E+02  1.36621E+02  1.41228E+02  1.45052E+02  1.48233E+02  1.51457E+02  1.53941E+02  1.54029E+02  1.52763E+02
   1.48645E+02  1.42094E+02  1.31921E+02  1.16705E+02  9.73338E+01  7.60741E+01  5.51892E+01  3.71985E+01  2.26572E+01  1.08427E+01
   2.01745E+00 -2.03395E+00 -5.09963E-01  6.58857E+00  1.70151E+01  2.81490E+01  3.84642E+01  4.74527E+01  5.52623E+01  6.24398E+01
   6.94184E+01  7.65851E+01  8.43346E+01  9.30591E+01  1.03076E+02  1.15362E+02  1.31811E+02  1.43859E+02  1.50346E+02  1.55373E+02
   1.57300E+02  1.46671E+02  1.14937E+02  6.72636E+01  2.18068E+01 -7.64410E+00 -2.00668E+01 -2.10567E+01 -1.62720E+01 -1.16034E+01
  -8.31475E+00 -5.75025E+00 -3.48294E+00 -1.31280E+00  8.28883E-01  3.03420E+00  5.39426E+00  7.93119E+00  1.06300E+01  1.34577E+01
   1.63725E+01  1.92148E+01  2.18004E+01  2.41434E+01  2.64877E+01  2.89890E+01  3.14827E+01  3.33725E+01  3.43917E+01  3.51205E+01
   3.61741E+01  3.73782E+01  3.78882E+01  3.70615E+01  3.53354E+01  3.38872E+01  3.39715E+01  3.57481E+01  3.82547E+01  4.12258E+01
   4.59535E+01  5.32127E+01  6.09292E+01  6.58087E+01  6.70497E+01  6.72306E+01  6.80751E+01  6.81100E+01  6.48803E+01  5.79423E+01
   4.91754E+01  4.08897E+01  3.43290E+01  2.97016E+01  2.66679E+01  2.47349E+01  2.35552E+01  2.29364E+01  2.27231E+01  2.35939E+01
   2.46066E+01  2.54789E+01  2.77042E+01  3.14730E+01  3.65478E+01  4.12095E+01  4.46706E+01  4.80609E+01  5.09746E+01  5.21752E+01
   5.12974E+01  4.92375E+01  4.64057E+01  4.24757E+01  3.70725E+01  3.04922E+01  2.37240E+01  1.78091E+01  1.35045E+01  1.06373E+01
   1.12303E+01  1.48818E+01  2.20373E+01  3.36332E+01  4.88656E+01  6.62286E+01  8.27821E+01  9.49218E+01  1.00720E+02  1.00212E+02
   9.50745E+01  8.80813E+01  8.20987E+01  7.76489E+01  7.45441E+01  7.20242E+01  6.90503E+01  6.50404E+01  5.97897E+01  5.32965E+01
   4.58611E+01  3.78765E+01  2.98116E+01  2.20368E+01  1.49292E+01  8.60068E+00  3.49125E+00 -1.56717E-01 -2.26495E+00 -2.79392E+00
  -2.29247E+00 -1.09222E+00  6.86674E-01  2.65263E+00  5.03784E+00  7.14962E+00  8.40090E+00  8.46457E+00  7.09300E+00  4.73037E+00
  -3.54195E-01 -1.08134E+01 -1.54386E+01 -1.56417E+01 -1.77060E+01 -2.00561E+01 -1.03844E+01  2.29271E+01  7.44540E+01  1.23051E+02
   1.53515E+02  1.65212E+02  1.63953E+02  1.55935E+02  1.48354E+02  1.42369E+02  1.37631E+02  1.33743E+02  1.30464E+02  1.27700E+02
   1.25405E+02  1.23480E+02  1.21822E+02  1.20298E+02  1.18794E+02  1.17206E+02  1.15473E+02  1.13620E+02  1.11749E+02  1.09885E+02
   1.07950E+02  1.05916E+02  1.03814E+02  1.01680E+02  9.95368E+01  9.73197E+01  9.49919E+01  9.25657E+01  8.99749E+01  8.71756E+01
   8.41897E+01  8.11095E+01  7.80715E+01  7.52655E+01  7.29102E+01  7.12565E+01  7.05470E+01  7.08614E+01  7.20930E+01  7.40128E+01
   7.63620E+01  7.89661E+01  8.17085E+01  8.45160E+01  8.73229E+01  9.00490E+01  9.26882E+01  9.52620E+01  9.78602E+01  1.00529E+02
   1.03170E+02  1.05632E+02  1.07883E+02  1.09893E+02  1.11615E+02  1.13000E+02  1.14009E+02  1.14535E+02  1.14538E+02  1.14004E+02
   1.12975E+02  1.11521E+02  1.09584E+02  1.07105E+02  1.04123E+02  1.00650E+02  9.66078E+01  9.19342E+01  8.68123E+01  8.16943E+01
   7.72899E+01  7.43332E+01  7.34628E+01  7.53639E+01  8.05006E+01  8.58530E+01  9.11280E+01  9.55422E+01  9.59028E+01  8.97828E+01
   7.42799E+01  4.97616E+01  2.18262E+01 -1.77248E+00 -1.45058E+01 -1.44659E+01 -5.49945E+00  6.05104E+00  1.65222E+01  2.42220E+01
   2.87771E+01  3.11543E+01  3.19348E+01  3.15180E+01  3.03187E+01  2.88265E+01  2.76116E+01  2.70996E+01  2.74743E+01  2.87823E+01
   3.08916E+01  3.36151E+01  3.67491E+01  4.01062E+01  4.35434E+01  4.69407E+01  5.01944E+01  5.32826E+01  5.62370E+01  5.91213E+01
   6.20151E+01  6.49956E+01  6.80289E+01  7.11893E+01  7.46235E+01  7.84165E+01  8.25986E+01  8.71967E+01  9.22582E+01  9.77751E+01
   1.03661E+02  1.09755E+02  1.15872E+02  1.21750E+02  1.26896E+02  1.30773E+02  1.32851E+02  1.32650E+02  1.29794E+02  1.24329E+02
   1.16826E+02  1.08194E+02  9.93126E+01  9.08197E+01  8.29709E+01  7.56167E+01  6.84424E+01  6.11193E+01  5.35558E+01  4.58925E+01
   3.84741E+01  3.17238E+01  2.59768E+01  2.13390E+01  1.77285E+01  1.50016E+01  1.30005E+01  1.15266E+01  1.04102E+01  9.48338E+00
   8.69149E+00  8.06102E+00  7.64318E+00  7.38862E+00  7.22655E+00  7.16869E+00  7.19363E+00  7.21908E+00  7.19938E+00  7.18577E+00
   7.26212E+00  7.39574E+00  7.49529E+00  7.54742E+00  7.62306E+00  7.71217E+00  7.78090E+00  7.83674E+00  7.91722E+00  8.05929E+00
   8.22216E+00  8.36490E+00  8.43284E+00  8.45089E+00  8.45553E+00  8.49920E+00  8.61182E+00  8.79611E+00  9.02338E+00  9.22871E+00
   9.38503E+00  9.49379E+00  9.56893E+00  9.60791E+00  9.58286E+00  9.54177E+00  9.52477E+00  9.55476E+00  9.64924E+00  9.78006E+00
   9.90422E+00  9.99823E+00  1.00731E+01  1.01648E+01  1.03090E+01  1.04884E+01  1.06794E+01  1.08549E+01  1.09863E+01  1.10915E+01
   1.11901E+01  1.12607E+01  1.13091E+01  1.13425E+01  1.14052E+01  1.15059E+01  1.16703E+01  1.18941E+01  1.21818E+01  1.24849E+01
   1.27112E+01  1.28137E+01  1.28529E+01  1.28976E+01  1.29914E+01  1.31485E+01  1.33901E+01  1.36811E+01  1.40416E+01  1.44448E+01
 NY background values follow
     1.286E+02    1.288E+02    1.291E+02    1.293E+02    1.296E+02    1.298E+02    1.301E+02    1.304E+02    1.306E+02    1.309E+02
     1.311E+02    1.314E+02    1.316E+02    1.318E+02    1.321E+02    1.323E+02    1.325E+02    1.327E+02    1.329E+02    1.331E+02
     1.333E+02    1.335E+02    1.336E+02    1.337E+02    1.339E+02    1.340E+02    1.341E+02    1.342E+02    1.342E+02    1.343E+02
     1.343E+02    1.343E+02    1.343E+02    1.343E+02    1.342E+02    1.341E+02    1.340E+02    1.339E+02    1.338E+02    1.336E+02
     1.335E+02    1.333E+02    1.330E+02    1.328E+02    1.325E+02    1.322E+02    1.319E+02    1.316E+02    1.312E+02    1.309E+02
     1.304E+02    1.300E+02    1.296E+02    1.291E+02    1.286E+02    1.281E+02    1.275E+02    1.269E+02    1.263E+02    1.257E+02
     1.250E+02    1.244E+02    1.236E+02    1.229E+02    1.222E+02    1.214E+02    1.206E+02    1.198E+02    1.190E+02    1.181E+02
     1.173E+02    1.164E+02    1.155E+02    1.146E+02    1.137E+02    1.128E+02    1.119E+02    1.109E+02    1.100E+02    1.091E+02
     1.081E+02    1.072E+02    1.062E+02    1.053E+02    1.044E+02    1.034E+02    1.025E+02    1.016E+02    1.007E+02    9.979E+01
     9.890E+01    9.802E+01    9.715E+01    9.629E+01    9.545E+01    9.462E+01    9.380E+01    9.299E+01    9.219E+01    9.141E+01
     9.063E+01    8.987E+01    8.912E+01    8.838E+01    8.766E+01    8.694E+01    8.624E+01    8.555E+01    8.487E+01    8.421E+01
     8.355E+01    8.291E+01    8.228E+01    8.167E+01    8.106E+01    8.047E+01    7.989E+01    7.933E+01    7.877E+01    7.823E+01
     7.770E+01    7.718E+01    7.668E+01    7.618E+01    7.570E+01    7.523E+01    7.477E+01    7.432E+01    7.389E+01    7.346E+01
     7.304E+01    7.264E+01    7.224E+01    7.185E+01    7.147E+01    7.110E+01    7.074E+01    7.038E+01    7.004E+01    6.970E+01
     6.937E+01    6.904E+01    6.873E+01    6.842E+01    6.811E+01    6.781E+01    6.752E+01    6.724E+01    6.695E+01    6.668E+01
     6.641E+01    6.614E+01    6.588E+01    6.562E+01    6.536E+01    6.511E+01    6.487E+01    6.462E+01    6.439E+01    6.415E+01
     6.392E+01    6.369E+01    6.347E+01    6.324E+01    6.303E+01    6.281E+01    6.260E+01    6.239E+01    6.218E+01    6.198E+01
     6.178E+01    6.158E+01    6.138E+01    6.118E+01    6.099E+01    6.080E+01    6.061E+01    6.042E+01    6.024E+01    6.005E+01
     5.987E+01    5.969E+01    5.951E+01    5.933E+01    5.915E+01    5.897E+01    5.880E+01    5.863E+01    5.846E+01    5.830E+01
     5.813E+01    5.797E+01    5.782E+01    5.766E+01    5.751E+01    5.736E+01    5.722E+01    5.708E+01    5.694E+01    5.681E+01
     5.668E+01    5.656E+01    5.644E+01    5.632E+01    5.621E+01    5.610E+01    5.600E+01    5.591E+01    5.582E+01    5.573E+01
     5.565E+01    5.558E+01    5.551E+01    5.544E+01    5.538E+01    5.532E+01    5.527E+01    5.521E+01    5.516E+01    5.511E+01
     5.506E+01    5.501E+01    5.496E+01    5.491E+01    5.485E+01    5.480E+01    5.474E+01    5.467E+01    5.461E+01    5.454E+01
     5.446E+01    5.438E+01    5.429E+01    5.419E+01    5.409E+01    5.398E+01    5.386E+01    5.374E+01    5.360E+01    5.345E+01
     5.330E+01    5.313E+01    5.295E+01    5.276E+01    5.256E+01    5.235E+01    5.214E+01    5.191E+01    5.167E+01    5.143E+01
     5.117E+01    5.091E+01    5.064E+01    5.036E+01    5.008E+01    4.979E+01    4.949E+01    4.918E+01    4.887E+01    4.855E+01
     4.823E+01    4.789E+01    4.756E+01    4.722E+01    4.687E+01    4.652E+01    4.616E+01    4.580E+01    4.544E+01    4.507E+01
     4.470E+01    4.433E+01    4.395E+01    4.358E+01    4.320E+01    4.283E+01    4.246E+01    4.210E+01    4.174E+01    4.139E+01
     4.105E+01    4.072E+01    4.040E+01    4.009E+01    3.980E+01    3.952E+01    3.926E+01    3.902E+01    3.879E+01    3.859E+01
     3.841E+01    3.825E+01    3.811E+01    3.800E+01    3.791E+01    3.786E+01    3.783E+01    3.783E+01    3.787E+01    3.794E+01
     3.804E+01    3.817E+01    3.834E+01    3.853E+01    3.875E+01    3.900E+01    3.927E+01    3.956E+01    3.986E+01    4.018E+01
     4.052E+01    4.086E+01    4.122E+01    4.158E+01    4.194E+01    4.231E+01    4.268E+01    4.304E+01    4.340E+01    4.376E+01
     4.410E+01    4.444E+01    4.475E+01    4.506E+01    4.534E+01    4.561E+01    4.585E+01    4.607E+01    4.626E+01    4.643E+01
     4.656E+01    4.666E+01    4.673E+01    4.677E+01    4.678E+01    4.676E+01    4.672E+01    4.666E+01    4.656E+01    4.645E+01
     4.631E+01    4.616E+01    4.598E+01    4.578E+01    4.557E+01    4.533E+01    4.509E+01    4.482E+01    4.455E+01    4.426E+01
     4.395E+01    4.364E+01    4.332E+01    4.298E+01    4.264E+01    4.230E+01    4.194E+01    4.159E+01    4.122E+01    4.086E+01
     4.049E+01    4.012E+01    3.976E+01    3.939E+01    3.901E+01    3.864E+01    3.827E+01    3.790E+01    3.753E+01    3.716E+01
     3.679E+01    3.643E+01    3.606E+01    3.570E+01    3.533E+01    3.497E+01    3.462E+01    3.426E+01    3.391E+01    3.356E+01
     3.322E+01    3.288E+01    3.254E+01    3.221E+01    3.188E+01    3.156E+01    3.124E+01    3.093E+01    3.063E+01    3.033E+01
     3.003E+01    2.975E+01    2.947E+01    2.919E+01    2.892E+01    2.866E+01    2.840E+01    2.814E+01    2.789E+01    2.765E+01
     2.741E+01    2.717E+01    2.694E+01    2.671E+01    2.649E+01    2.627E+01    2.605E+01    2.583E+01    2.562E+01    2.541E+01
     2.521E+01    2.500E+01    2.480E+01    2.460E+01    2.440E+01    2.420E+01    2.401E+01    2.381E+01    2.362E+01    2.343E+01
     2.324E+01    2.304E+01    2.285E+01    2.266E+01    2.247E+01    2.228E+01    2.209E+01    2.190E+01    2.171E+01    2.152E+01
     2.133E+01    2.114E+01    2.094E+01    2.075E+01    2.056E+01    2.037E+01    2.017E+01    1.998E+01    1.979E+01    1.959E+01
     1.939E+01    1.920E+01    1.900E+01    1.880E+01    1.860E+01    1.839E+01    1.819E+01    1.798E+01    1.778E+01    1.757E+01
     1.736E+01    1.715E+01    1.694E+01    1.672E+01    1.651E+01    1.629E+01    1.607E+01    1.585E+01    1.563E+01    1.540E+01
     1.518E+01    1.495E+01    1.473E+01    1.450E+01    1.427E+01    1.404E+01    1.381E+01    1.358E+01    1.334E+01    1.311E+01
     1.287E+01    1.264E+01    1.240E+01    1.216E+01    1.192E+01    1.168E+01    1.144E+01    1.120E+01    1.096E+01    1.071E+01
 Mac      Conc. = 2.66E-04
   1.09692E+02  1.09434E+02  1.09192E+02  1.08944E+02  1.08633E+02  1.08166E+02  1.07517E+02  1.06663E+02  1.05714E+02  1.04797E+02
   1.04025E+02  1.03437E+02  1.03025E+02  1.02868E+02  1.02913E+02  1.02925E+02  1.03005E+02  1.03639E+02  1.05262E+02  1.07894E+02
   1.11116E+02  1.14468E+02  1.17600E+02  1.20283E+02  1.22420E+02  1.24143E+02  1.25661E+02  1.27128E+02  1.28651E+02  1.30187E+02
   1.31596E+02  1.32750E+02  1.33637E+02  1.34330E+02  1.34847E+02  1.35195E+02  1.35483E+02  1.35985E+02  1.36864E+02  1.37991E+02
   1.39041E+02  1.39702E+02  1.40004E+02  1.40169E+02  1.40398E+02  1.40647E+02  1.40732E+02  1.40492E+02  1.39826E+02  1.38774E+02
   1.37446E+02  1.35999E+02  1.34636E+02  1.33494E+02  1.32563E+02  1.31832E+02  1.31392E+02  1.31289E+02  1.31445E+02  1.31742E+02
   1.31996E+02  1.32138E+02  1.32072E+02  1.31671E+02  1.30835E+02  1.29650E+02  1.28350E+02  1.27174E+02  1.26207E+02  1.25466E+02
   1.25064E+02  1.25092E+02  1.25496E+02  1.26006E+02  1.26303E+02  1.26212E+02  1.25648E+02  1.24629E+02  1.23292E+02  1.21841E+02
   1.20401E+02  1.19083E+02  1.17922E+02  1.16998E+02  1.16324E+02  1.15867E+02  1.15544E+02  1.15263E+02  1.14939E+02  1.14543E+02
   1.14021E+02  1.13341E+02  1.12473E+02  1.11358E+02  1.09931E+02  1.08156E+02  1.05990E+02  1.03424E+02  1.00564E+02  9.75852E+01
   9.45800E+01  9.15103E+01  8.81500E+01  8.43851E+01  8.02207E+01  7.56335E+01  7.07115E+01  6.57375E+01  6.12968E+01  5.79894E+01
