 
 $NMID
 ID=''
 FMTDAT='(2E13.5)'
 TRAMP=   1.00000E+0
 VOLUME=   1.00000E+0
 $END
   1.58207E+4   1.84166E+3
   1.01967E+4  -1.00079E+4
  -1.84797E+2   3.08841E+3
   9.05205E+3   7.11204E+3
   5.73710E+3   2.50199E+3
  -4.18019E+3   9.43317E+3
  -8.65115E+2   6.41785E+3
  -2.16244E+3  -2.43887E+3
  -5.96338E+3   3.32790E+3
  -1.33120E+3   5.78839E+3
  -2.71341E+3  -1.29217E+3
  -6.72994E+3  -1.48435E+3
  -1.12624E+3  -1.58050E+3
  -1.95221E+2  -4.08584E+3
  -3.81136E+3  -2.67726E+3
  -3.76502E+1  -3.82693E+3
   3.83638E+3  -5.75318E+3
   3.67176E+3  -8.84763E+2
   3.85432E+3   7.84450E+2
   2.79067E+3  -1.63224E+3
   2.05288E+3   1.10252E+3
   2.84323E+3   2.64713E+3
   1.48026E+3   1.23137E+3
   5.62524E+1   3.09397E+3
  -3.90910E+2   3.52574E+3
  -1.85019E+3   1.03963E+3
  -1.46640E+3   6.00355E+2
  -7.82549E+2   1.52343E+3
  -3.16460E+3   5.40982E+2
  -3.38340E+3  -8.14685E+2
  -4.92408E+2  -2.19613E+3
  -1.94463E+2  -2.02212E+3
  -7.21140E+2  -6.43706E+2
  -5.05526E+2  -1.05621E+3
  -6.16439E+2  -2.27035E+3
   9.03734E+2  -2.11636E+3
   3.18252E+3  -1.34118E+3
   2.40991E+3   4.75326E+2
   9.60837E+2   1.25349E+3
   1.20013E+3   9.21713E+2
   1.06893E+3   2.04033E+3
  -7.03159E+2   2.45365E+3
  -9.65327E+2   9.19171E+2
  -7.26625E+2   1.66835E+2
  -7.38350E+2   9.42428E+2
  -9.43460E+2   8.25282E+2
  -6.44056E+2  -3.87590E+1
  -9.00515E+2   4.01131E+2
  -1.63618E+3  -2.40968E+2
  -1.82622E+3  -1.35218E+3
  -2.22059E+2  -1.58528E+3
   3.70316E+2  -1.43942E+3
   3.14862E+2  -1.24630E+3
   9.45368E+2  -9.71734E+2
   1.57431E+3  -3.01877E+2
   1.36541E+3   4.40449E+2
   7.28105E+2   1.01937E+3
   1.79598E+2   8.00617E+2
  -6.09567E+1   2.82718E+2
   2.28235E+2   5.02372E+2
   1.62929E+2   7.78055E+2
  -2.95051E+2   9.87843E+2
  -3.15518E+2   5.81076E+2
  -6.46340E+2   3.13080E+2
  -1.36862E+3   3.81737E+2
  -1.41101E+3  -1.22043E+2
  -9.23407E+2  -1.20317E+3
  -1.74565E+2  -1.64963E+3
   1.32706E+2  -9.31834E+2
   4.05233E+2  -2.55854E+2
   6.17851E+2  -2.95068E+2
   7.63419E+2  -5.18079E+2
   9.60930E+2   1.10106E+2
   9.67059E+2   5.57636E+2
   5.73943E+2   5.67678E+2
   3.72704E+2   5.04403E+2
   1.40838E+2   7.43252E+2
  -8.91297E+1   8.08439E+2
  -1.06657E+2   4.92214E+2
  -6.45910E+2   5.28214E+2
  -4.28894E+2   9.87534E+0
  -6.65267E+2  -2.21491E+1
  -2.31472E+2  -3.01792E+2
  -2.74961E+2  -3.90270E+2
  -4.87938E+2  -4.86713E+2
  -8.49017E+1  -5.12863E+2
   5.23643E+2  -6.49043E+2
   5.30442E+2  -1.70477E+2
   2.80552E+2  -2.27662E+2
   3.45623E+2   2.41006E+1
   6.58708E+2  -1.95456E+2
   5.46300E+2   2.19368E+2
   8.82587E+1   5.39103E+2
   7.08502E+1   2.01183E+2
  -1.84242E+2  -1.01092E+2
  -1.48475E+2   3.53221E+2
  -3.30583E+2   9.05199E+1
  -1.95360E+2   5.54374E+1
  -1.57716E+2  -4.90454E+1
  -3.10777E+2  -1.30621E+2
  -4.18812E+2   2.52107E+2
  -1.79984E+2  -2.35719E+2
  -1.25758E+2  -1.52289E+0
  -6.27273E+1  -2.73996E+2
   1.63782E+2  -4.42377E+2
   2.92446E+2  -3.81508E+2
   4.19673E+2  -2.45293E+1
   3.12981E+1   1.19867E+1
   1.41143E+2  -2.46092E+2
   5.23604E+1  -3.85940E+2
   2.35645E+2   1.90637E+2
  -5.21451E+1   1.32751E+2
  -3.68305E+2   1.35696E+2
  -9.72214E+1   9.07327E+1
  -1.43619E+2   1.84433E+2
  -2.28340E+2   1.62613E+2
  -5.64992E+2  -6.83307E+1
  -4.17823E+2  -2.52076E+2
  -1.64372E+2   6.55643E+0
   4.00377E+1  -4.14438E+2
  -7.13246E+1  -2.11045E+2
   5.58562E+1  -1.07352E+1
  -1.69107E+2  -2.81622E+1
  -2.68343E+2   7.13503E+1
  -2.57304E+2   1.10452E+2
   1.43872E+2  -2.30588E+2
   1.25216E+2   9.94327E+1
  -1.20036E+2  -2.38023E+2
  -3.16826E+1   2.47687E+2
  -8.51058E+1   5.12636E+1
  -7.86999E+1  -1.10008E+1
  -1.21383E+2  -6.34277E+1
   8.61341E+1  -1.15171E+1
  -2.11527E+1   1.22861E+2
  -1.10630E+2   3.51749E+2
  -5.57789E+1  -2.48667E+2
   1.09705E+2   5.68397E+1
   2.12050E+2   4.36153E+1
  -3.39137E+1   2.22277E+2
   1.70975E+1  -2.27900E+2
   4.62889E+1   7.28080E+0
   4.00496E+2   5.22552E+0
  -6.05790E+1   7.50243E+1
   1.21086E+2   4.04774E+2
  -2.05258E+2   5.68109E+0
  -2.54200E+2   1.27225E+2
   4.56582E+1   1.04754E+2
   2.50758E+2  -2.03285E+2
   4.40413E+1  -3.77514E+1
   9.99709E+1   1.15108E+2
  -1.52959E+2   3.54969E+1
  -6.11039E+1   1.84008E+2
   1.37550E+2   1.17032E+2
  -1.53608E+2   1.28261E+1
   8.20634E-1  -2.23717E+2
   1.65927E+2  -1.38529E+2
   1.54183E+2  -5.52769E+1
  -6.04237E+1  -4.51753E+1
   2.28869E+2   7.46908E+1
   3.53456E+2  -1.41047E+2
   2.13369E+2  -1.34059E+2
   1.26131E+2   6.76483E+1
   2.55448E+2   7.94491E+1
   3.02572E+2  -3.32211E+1
   2.40954E+2   6.58912E+1
   1.57928E+2   3.28543E+2
  -5.88065E+1   2.09693E+1
  -1.41617E+2  -5.48719E+1
  -2.27636E+2   1.18269E+2
   2.26513E+2   2.39748E+1
   1.29077E+1  -6.89309E+1
  -1.15665E+2  -2.20224E+1
   9.16806E+1   9.01466E+1
   1.97878E+2  -1.00717E+2
   1.58822E+2   1.08591E+2
  -8.66915E+1   1.13693E+2
  -2.68582E+1  -1.03174E+2
   2.18765E+1  -9.01394E+1
   1.57353E+2   2.01662E+2
   3.19637E+2   9.51264E+0
  -6.52576E+1   2.08169E+2
   4.30796E+1   5.51730E+1
   1.45920E+2   1.33339E+2
   1.60235E+2   2.19920E+1
  -3.07131E+1   1.95310E+1
  -2.94745E+1  -2.20088E+2
  -1.21747E+2  -1.28488E+2
   1.99628E+2   7.63753E+0
   1.42757E+1   6.47625E+0
  -4.70166E+1   1.43754E+2
  -2.98846E+2   1.14990E+2
  -1.91012E+1   4.07431E+1
   3.59386E+2  -1.61993E+2
   3.43975E+2   2.11139E+2
  -7.12728E+1   1.48621E+1
  -4.07562E+1   7.02713E+0
   4.69725E+1  -6.10674E+0
   6.02395E+1   1.24559E+2
  -1.62903E+2  -9.65251E+1
   1.43630E+2   1.15786E+2
  -1.03513E+2   8.13547E+0
   7.19851E+1  -1.26808E+2
   3.18605E+2   4.05168E+2
  -1.98497E+2   2.83114E+2
   3.96433E+1   2.25382E+2
   1.76256E+2   1.94587E+0
   9.16446E+1  -5.60884E+1
   1.03043E+2  -1.89031E+2
  -1.92901E+2   2.45989E+1
  -1.12672E+2   5.34482E+0
  -1.88808E+1  -1.33034E+2
   2.08744E+2   2.00213E+2
  -7.46119E+1   7.72579E+1
  -2.59078E+2   3.18752E+1
   2.32393E+1  -4.82711E+1
   1.05107E+2  -2.30508E+2
   3.32232E+2   2.43796E+2
   1.81296E+1   3.03134E+2
  -1.23835E+2   1.79680E+2
  -2.02986E+1   1.44096E+2
  -1.90421E+2   1.55763E+2
   1.71108E+2   9.58016E+0
   1.09466E+2   1.05889E+2
  -6.60131E+1  -6.16439E+1
  -1.58246E+1  -1.01348E+2
  -2.13976E+1   5.39796E+1
   2.21976E+2   2.48198E+2
   5.86870E+1   1.03554E+2
  -1.09489E+2  -1.99288E+1
   5.85800E+1  -2.29188E+2
  -9.26514E+0   1.65349E+2
   1.34714E+2   1.31522E+2
  -7.22615E+1  -3.33620E+1
   2.72493E+2   1.46291E+1
   5.51683E+1   1.66018E+2
   7.44002E+1  -8.09529E+0
   6.42948E+1  -1.04958E+2
  -1.13496E+2   3.91433E+1
   1.21329E+2  -2.60314E+1
   3.55031E+1   1.18488E+2
   2.95967E+2  -7.93528E+1
  -3.34958E+1   1.00195E+2
  -8.80918E+1  -1.16523E+2
   2.05264E+2   7.76880E+1
   8.83451E+1  -5.01191E+1
   7.17746E+1  -2.32389E+1
   3.98468E+1   1.17312E+2
   7.98391E+1  -8.90207E+0
   1.02311E+2   1.41507E+2
  -9.15949E+1  -3.78593E+1
  -1.29417E+2  -1.61789E+2
  -1.90527E+1  -4.55892E+1
   1.06770E+2  -1.38829E+1
   1.69528E+2  -1.29971E+2
  -3.31032E+1  -1.46309E+2
   4.58631E+1   2.06052E+2
   1.27949E+2  -2.18356E+2
   6.30375E+1   1.39944E+2
   1.32698E+1  -6.07863E+1
  -1.17240E+2  -1.26264E+2
  -7.27794E+1  -2.24301E+2
   1.76190E+2  -2.66385E+2
   1.11321E+2   2.91385E+2
   3.78638E+1   1.91098E+1
  -1.23654E+2   1.03896E+1
  -2.41672E+2   4.36695E+1
  -8.29758E+1  -8.74335E+1
   1.08229E+2  -1.25316E+2
   1.25496E+2  -7.90461E+1
   1.34585E+1   2.53413E+1
   3.17927E+1   1.65822E+1
  -2.76867E+1   1.24739E+2
  -5.74382E+1  -1.11844E+2
   1.31401E+2  -9.95201E+0
  -1.67086E+2   1.28446E+2
  -1.31469E+2  -2.28493E+2
   1.44774E+2  -1.18345E+2
   1.21580E+2  -5.44022E+1
  -1.71568E+2   4.29908E+1
   6.28004E+0  -1.32765E+2
  -9.73729E+1  -3.33531E+1
   1.02594E+2  -2.08166E+2
  -1.14021E+2   1.40866E+2
   1.09961E+1   2.99704E+2
  -5.73322E+1   1.07681E+1
  -3.67782E+1  -9.51762E+1
   1.42388E+2   1.54280E+2
  -3.45395E+1  -3.23705E+0
  -5.31293E+1  -1.32344E+2
   9.31401E+1  -7.53186E+1
  -2.00885E+2  -8.33058E+1
  -1.30341E+2  -1.60561E+2
  -4.52241E+1   7.39791E+1
  -1.04534E+2  -5.33115E+1
   2.02166E+1   6.35255E+1
   2.80247E+1  -1.09468E+2
  -1.32438E+2   2.26731E+1
   9.18743E+0   1.19275E+2
  -2.36847E+2  -2.22660E+2
   2.25809E+2  -1.11052E+2
   2.07206E+2  -3.14819E+2
   1.28237E+2  -1.24564E+2
  -2.75254E+2   4.99849E+1
  -1.92991E+1  -2.24628E+2
   6.69563E+1   2.35786E+0
   6.04645E+1  -5.88266E+1
  -4.59908E+1   1.73643E+2
   1.75470E+1   2.80406E+0
  -2.28944E+2  -7.22840E+0
  -2.59161E+1   3.70616E+1
  -1.49843E+2  -9.63722E+1
  -1.64876E+2   6.38275E+1
   1.11050E+1  -2.03736E+1
  -5.23337E+0   4.75569E+1
  -2.04834E+1   1.38214E+2
  -2.03224E+2   1.24064E+1
  -4.19639E+1   3.25080E+1
  -6.37771E+0  -3.77863E+1
  -2.68103E+1  -1.26583E+2
  -2.86045E+1  -2.15655E+2
  -1.23418E+2  -6.88180E+1
  -5.93631E+1  -1.15659E+2
   1.11686E+2   2.18997E+1
  -8.70984E+1   1.35204E+1
  -1.12740E+1   1.07185E+2
  -1.44208E+2   1.87875E+2
  -6.56238E+1  -3.72672E+1
   6.41029E+1  -1.19364E+2
  -3.89119E+0  -2.64227E+2
  -1.13301E+2   5.02309E+1
   1.86327E+1   2.17768E+0
  -6.02738E+1   1.03074E+2
   1.78252E+1   1.46797E+2
  -1.05538E+2   2.30304E+2
  -5.29065E+1   5.11653E+1
   4.38508E+1  -2.16016E+2
  -5.70315E+1  -1.71279E+2
   1.08500E+2   4.31302E+1
   2.11241E+2  -6.00276E+1
  -1.65680E+1   2.26189E+2
  -2.12964E+2   8.90814E+1
  -1.42112E+2  -1.20785E+2
   6.37042E+1  -1.37648E+2
  -1.44603E+1  -2.10911E+2
   9.15743E+1  -1.87642E+1
  -1.18181E+2  -4.13455E+1
  -1.04310E+1  -5.54347E+1
  -1.62554E+2  -2.00769E+2
  -2.79831E+1   6.36783E+1
  -1.58446E+2   1.87542E+1
  -2.24728E+2  -3.07113E+2
  -2.62574E+1  -1.48804E+2
   8.29105E+1  -1.22920E+1
   8.29404E+1  -3.62905E+1
  -1.09605E+2  -2.00734E+2
   2.88352E+1  -1.15807E+2
  -6.41538E+0   1.57354E+2
  -7.78598E+1  -6.31260E+1
  -3.38676E+1   6.49588E+1
  -1.68295E+2   2.15196E+1
   1.01115E+2  -8.63859E+1
  -4.99159E+1  -2.06579E+2
  -5.12232E+1   7.28262E+1
   1.18585E+2   5.82905E+1
  -1.53346E+2  -2.59483E+0
   2.05229E+2  -3.26054E+1
   7.81199E+1  -4.64687E+1
