 
 $NMID
 ID=''
 FMTDAT='(2E13.5)'
 TRAMP=   1.00000E+0
 VOLUME=   1.00000E+0
 $END
   1.36543E+4  -1.01676E+4
   8.74762E+3  -1.06502E+4
   7.44572E+2   5.96551E+3
   7.92832E+3   9.75852E+3
   4.78045E+3   4.00772E+3
  -5.54777E+3   9.24651E+3
  -2.06984E+3   6.22981E+3
  -1.78094E+3  -1.76793E+3
  -6.76609E+3   2.72073E+3
  -2.68706E+3   4.06639E+3
  -1.30730E+3  -2.83801E+3
  -5.22239E+3  -2.06312E+3
  -1.98045E+3  -1.14634E+3
  -1.54054E+2  -3.69042E+3
  -2.28082E+3  -2.59558E+3
   6.40046E+2  -2.60587E+3
   3.29408E+3  -3.70297E+3
   2.14831E+3  -8.09055E+2
   3.15091E+3   1.35778E+2
   3.11307E+3  -5.07372E+2
   1.13030E+3   1.47440E+3
   1.34832E+3   6.64587E+2
   2.16850E+3  -2.85500E+1
   6.09429E+2   3.33382E+3
  -9.39701E+2   2.60923E+3
  -6.79095E+2  -4.79556E+2
   8.29158E+2   1.14949E+3
  -7.53493E+2   2.49135E+3
  -3.53451E+3   3.33845E+2
  -2.25079E+3  -8.65604E+2
   6.85897E+1  -8.08097E+2
  -5.72082E+2  -4.64038E+2
  -1.73115E+3  -1.02437E+2
  -1.53439E+3  -1.91565E+3
  -8.45166E+2  -3.02119E+3
   1.08974E+3  -1.56278E+3
   1.94442E+3  -4.10305E+2
   9.91598E+2  -3.23899E+2
   1.15421E+3  -2.91485E+1
   1.42564E+3   3.81058E+2
   3.74013E+2   1.14080E+3
  -6.75819E+1   1.14336E+3
   8.48289E+2   4.94665E+2
   3.64247E+2   9.74170E+2
  -6.73863E+2   1.30818E+3
  -4.63689E+2   8.11016E+2
  -6.26415E+2   9.22399E+2
  -1.43609E+3   1.22113E+3
  -1.73922E+3  -1.48313E+2
  -1.39204E+3  -1.43031E+3
  -3.38759E+2  -1.16620E+3
  -1.39767E+1  -1.10961E+3
   4.29761E+1  -9.55514E+2
   6.88477E+2  -8.26937E+2
   1.11418E+3  -5.74545E+2
   6.23075E+2   3.10799E+1
   3.90433E+2  -1.10501E+1
   2.86464E+2  -1.35880E+2
   8.89939E+2  -6.05675E+1
   9.26027E+2   4.10042E+2
   1.99389E+2   7.97999E+2
  -2.15595E+2   9.51165E+2
  -3.76218E+2   1.18349E+3
  -7.28062E+2   3.08948E+2
  -1.35493E+3  -1.13421E+2
  -1.23369E+3  -2.75635E+2
  -5.88078E+2  -9.22051E+2
   2.24162E+2  -9.27746E+2
   1.35746E+2  -4.44932E+2
  -5.20685E+2  -1.12813E+1
   2.50931E+1  -5.82263E+2
   8.11327E+2  -7.35185E+2
   8.23228E+2   1.61074E+2
   4.88978E+2   6.42406E+2
   1.68732E+2   3.37711E+1
   4.98254E+2  -1.03721E+2
   2.64002E+1   6.80389E+2
  -1.77788E+2   4.31931E+2
  -2.85830E+1   1.46850E+2
  -1.89563E+2   3.99945E+2
  -3.35461E+2   2.05336E+1
  -5.45460E+2   5.09813E+1
  -4.36350E+1   2.49577E+1
   1.07040E+2  -1.12940E+1
  -2.78858E+2   4.27814E+1
   9.72180E+0  -2.48072E+2
   3.12810E+2  -1.13668E+2
   3.27418E+2   1.88792E+2
  -7.26145E+1  -1.87644E+2
  -3.23069E+1   3.35428E+1
   4.88108E+2  -5.47028E+1
   2.23909E+2   1.45742E+2
  -4.71158E+1   1.99888E+2
  -1.36056E+2  -3.19198E+2
   1.61772E+2  -3.29982E+2
   5.01523E+2   3.72229E+2
  -1.82753E+2   2.55615E+2
  -5.89750E+1   5.92718E+1
   2.38318E+2  -5.47265E+1
   2.76149E+2   1.54134E+2
  -2.76048E+2   6.16958E+2
  -2.73525E+2  -1.78359E+2
   4.79549E+1  -3.03489E+1
   2.01416E+2  -1.42046E+2
   8.74810E+1  -1.43125E+2
  -8.12902E+0   1.26639E+2
   7.24407E+1   1.63843E+2
  -8.69298E+1  -3.64312E+2
   2.45650E+2  -4.93032E+2
   1.78451E+2  -1.72925E+2
   8.71913E+1   4.26515E+2
  -1.56616E+2   1.84329E+2
  -3.88398E+2   1.10520E+2
  -1.33338E+2  -1.79525E+2
   1.33650E+1   1.02155E+2
  -1.78243E+2  -1.40442E+1
  -3.42070E+2  -1.96947E+2
  -2.24380E+2  -3.94272E+2
   1.70057E+2   1.56143E+2
   2.20358E+2  -1.16781E+2
   7.75097E+1   6.90299E+1
   6.71162E+1   1.91842E+2
  -2.91684E+2   1.64810E+2
  -2.63861E+2   1.04573E+2
  -1.71755E+2   2.16209E+2
   4.02068E+1  -1.43509E+2
   1.13447E+2   7.49886E+1
  -8.89374E+1   7.26578E+1
  -5.17695E+1   3.54793E+2
  -1.09481E+2   2.72957E+2
  -8.19482E+1  -1.35212E+2
   3.35832E+1  -1.16801E+2
   2.66784E+2   9.40982E+1
  -1.88940E+2   1.91014E+2
  -1.28414E+2   2.84807E+2
   1.35834E+2  -3.06294E+2
   1.85572E+2   1.79616E+2
  -1.59538E+1   1.57856E+2
  -1.13323E+2   2.26800E+2
   1.74266E+2  -2.79196E+2
   3.69231E+1   4.28721E+1
   3.47575E+2   1.50990E+2
  -2.05060E+2   2.87054E+2
   1.57781E+1   8.87338E+1
  -2.50878E+2  -6.90841E+1
  -2.29393E+2  -2.25619E+1
  -6.97431E+1   1.27236E+2
   2.70105E+2  -1.84936E+2
  -8.07897E+1  -3.76281E+1
   1.34399E+2  -3.01428E+1
  -1.41812E+2   6.83338E+1
  -3.85869E+1   6.37837E+1
   5.09848E+1   9.92107E+1
  -1.01286E+2   1.87772E+1
  -9.30365E+1  -2.38472E+2
  -1.77615E+2  -1.08778E+2
  -6.21133E+1  -2.45325E+2
  -8.21248E+1  -1.70614E+2
  -1.50158E+1  -1.86761E+2
   2.53502E+2  -1.53069E+2
   1.96325E+2  -1.00435E+2
   1.04719E+1  -7.03134E+1
   2.10078E+2  -3.53969E+1
   2.27524E+2  -3.09683E+1
   9.21800E+1   1.88245E+2
  -3.50796E+1   1.16227E+2
  -1.49399E+2  -9.32215E+1
  -1.91551E+2  -1.77337E+2
  -1.79267E+2  -3.42643E+1
   1.73393E+2  -1.63806E+2
  -2.18555E+2  -1.57867E+2
  -2.46836E+2  -1.61454E+2
   1.17519E+2   7.39155E+1
   1.36410E+2  -1.77144E+2
  -6.32562E+1   2.47335E+2
  -4.44981E+1  -2.02980E+1
   8.04199E+1  -1.89397E+2
   3.40855E+1  -1.48346E+2
   1.40628E+2   1.56030E+2
   2.84698E+2   6.76509E+1
  -7.07800E+1   1.42374E+2
   4.60336E+1   1.76503E+2
   1.49837E+2   9.25813E+1
   6.12961E+1  -7.95876E+1
  -1.72426E+1  -9.95494E+1
   2.26268E+2  -1.05897E+2
   3.45556E+1  -1.34372E+1
   1.98855E+2  -6.55529E+1
  -1.19553E+2  -1.01872E+1
  -6.82442E+1   2.65901E+1
  -1.87199E+2   1.21392E+2
   8.81280E+1  -7.23721E+1
   4.48858E+2  -1.16307E+2
   2.39060E+2   1.77360E+2
  -8.93424E+1  -2.72479E+1
  -7.95053E+0  -2.71574E+1
  -2.27615E+1  -1.52279E+2
   5.54344E+1   1.43800E+2
  -1.71468E+2   5.09271E+0
   7.63243E+1   9.76172E+1
   2.14891E+1  -9.79637E+1
   2.31964E+2  -1.35779E+1
   1.70604E+2   2.66647E+2
  -1.61357E+2   2.16651E+1
  -3.73655E+1   8.50979E+1
   1.31264E+2   2.62879E+1
   2.71714E+1  -1.97539E+2
   2.58540E+2  -3.00066E+1
  -1.60149E+2  -1.86915E+2
   6.45096E+1  -1.43512E+2
   9.40162E+1   6.94487E+1
   1.95107E+2   1.62452E+2
  -2.97334E+1   3.43450E+1
  -2.30255E+2   1.05058E+2
   7.06590E+1  -7.32844E+1
  -4.23956E+1  -4.98257E+1
   1.16630E+2   1.30685E+2
  -1.03031E+1   1.45199E+2
  -1.52463E+2   2.30203E+2
  -8.98295E+1   2.22693E+2
  -9.56183E+1   1.86683E+2
   1.65283E+2  -6.36583E+1
   9.60995E+1   1.25361E+1
   2.67438E+1  -8.29293E+1
  -1.64224E+2  -2.18956E+2
  -1.12587E+2  -8.62758E+1
   7.86639E+1   1.20037E+2
   2.07110E+1   2.34243E+1
  -1.30570E+2   3.97818E+1
  -2.68921E+1  -1.95417E+2
   1.43679E+2   1.39912E+2
  -7.23437E+1   1.07907E+2
  -9.73017E+1   2.05770E+1
   1.80796E+2  -9.96166E+1
   5.52637E+1  -4.72498E+1
   5.07319E+1   3.33832E+1
   4.26345E+1  -1.67170E+2
  -1.61632E+2   8.11881E+1
   1.73807E+2   5.06201E+1
  -7.10485E+1   1.20635E+2
   3.84266E+1   4.91697E+1
   7.97329E+0   1.60192E+2
  -4.90108E+1  -6.75270E+1
   1.30461E+2   1.19046E+1
   8.88116E+0  -1.54987E+2
  -3.73883E+1  -9.52844E+1
   1.09559E+2  -8.16163E+0
   3.34718E+2  -9.98896E+1
   5.16329E+1  -2.09061E+0
  -4.89602E+1  -5.24297E+1
  -8.08553E+1  -7.05045E+1
  -1.08295E+2  -3.84642E+1
   2.49303E+2   8.30702E+1
  -5.54336E+1  -8.79205E+0
   2.61605E+1  -2.25826E+1
  -1.77046E+2   2.84382E+2
   2.97931E+2  -1.20322E+2
   1.59124E+2   4.73611E+1
   1.29830E+2  -9.59181E+1
  -4.51322E+1  -5.57045E+1
  -1.00296E+2  -2.06463E+2
   1.00448E+2  -2.33559E+2
   2.69009E+2   2.06874E+2
   5.08265E+1  -9.22292E+0
  -1.28837E+2  -1.33205E+0
  -3.14019E+2   1.35758E+2
   1.10048E+2  -1.75977E+2
   1.75672E+2   3.10689E+1
   2.79161E+2   3.34599E+0
   1.96345E+2  -2.19877E+1
   5.78510E+1   1.02987E+1
   5.24797E+1  -5.57075E+0
  -6.22132E+1  -1.80156E+2
   1.32298E+2  -1.93197E+2
  -1.93962E+2   1.06747E+2
  -3.02095E+0   1.67967E+1
   3.29710E+2   6.21722E+1
   1.31515E+2  -3.95945E+1
  -4.92121E+1   9.96747E+1
   2.23134E+1  -1.84703E+2
  -4.04686E+1   6.22001E-1
  -4.73740E+1  -1.37977E+2
  -8.88169E+1  -6.64916E+1
   2.18924E+2   1.45260E+2
  -5.57435E+1  -9.84238E+1
  -5.61117E+1  -1.49775E+2
   1.96279E+2   5.21405E+1
   5.73582E+1  -2.33637E+1
   6.15472E+1  -9.56032E+1
   4.78094E+0  -5.23164E+1
  -2.19280E+2  -1.49693E+2
  -8.68022E+1  -6.19446E+1
  -1.00153E+0   5.40430E+1
  -1.16726E+2  -1.42182E+2
  -8.86078E+1  -9.56763E+1
   1.87245E+2  -9.14288E-1
   9.10391E+1   1.16284E+2
  -7.13114E+1   1.00491E+0
  -3.30765E+1  -1.46308E+2
   2.17008E+2  -7.71377E+1
   1.75141E+2  -2.27736E+2
   2.36658E+1  -1.78189E+2
  -2.42026E+2   4.33182E+1
  -8.43379E+1  -1.39922E+2
   1.36448E+2   1.16753E+2
   1.60455E+2  -5.93337E+1
   5.92636E+1   2.43858E+2
   1.11399E+2   5.87299E+1
  -7.05376E+1  -4.17848E+1
  -1.24854E+2   4.49553E+0
  -1.99726E+2  -1.16363E+2
  -2.38227E+2   5.77320E+0
  -3.85135E+0  -1.92818E+2
  -6.03121E+0   6.72673E+1
  -8.38461E+1   1.35647E+2
  -1.11403E+2  -9.64614E-1
   5.45802E+1   1.15617E+2
  -7.93356E+1  -3.33749E+1
   5.67428E+1  -1.04817E+2
   1.21710E+0   1.05574E+2
  -1.91849E+2  -4.58123E+1
  -2.65337E+1  -5.24239E+1
  -8.17302E+0   1.00498E+1
  -9.54839E+1  -3.17104E+1
   2.15935E+1   8.58614E+1
  -9.75881E+1   4.57975E+1
   5.21795E+1   3.64748E+1
   5.28554E+1  -1.02846E+2
   1.77469E+2  -2.07946E+2
  -7.96468E+1  -8.94701E+1
  -3.23182E+1   8.07545E+1
  -6.70252E+1   2.71143E+2
  -5.07965E+1   1.09093E+2
  -6.16923E+1   3.42341E+2
  -3.12492E+1   2.08062E+2
   8.10381E+1  -2.15115E+2
   1.43037E+2  -7.34335E+1
   1.88586E+2   9.29228E+1
   2.47501E+2  -9.83423E+1
  -9.60857E+1   1.22504E+2
  -1.93791E+2   1.27129E+2
  -6.02472E+1   1.61378E+1
   1.82420E+2  -2.49910E+2
   9.30104E+1  -6.17567E+1
   1.59468E+2  -5.63870E+1
  -1.58103E+2  -1.13857E+2
   2.38629E+1   2.41147E+1
  -1.47772E+2  -1.22436E+2
   2.92114E+1  -5.83588E+1
  -2.03369E+2   4.50221E+1
  -4.00124E+1  -6.57459E+1
  -7.50348E+1  -1.07286E+2
   1.66486E+2  -5.42459E+1
   8.96544E+1  -2.76963E+0
  -3.20713E+1  -7.05180E+1
   1.36324E+2  -3.28806E+1
   1.16128E+2  -6.01099E+1
  -4.97047E+1   3.27726E+1
  -1.55182E+2   8.96264E+1
  -1.68637E+2  -1.37368E+2
   1.31870E+2  -1.87337E+2
  -1.72188E+1  -5.98918E+1
  -4.17113E+1   1.24009E+2
   1.00830E+2   1.75368E+2
   6.56743E+1  -1.94264E+1
   3.72978E+2   2.01550E+1
   4.20335E+1  -7.32697E+1
