 
 $NMID
 ID=''
 FMTDAT='(2E13.5)'
 TRAMP=   1.00000E+0
 VOLUME=   1.00000E+0
 $END
   7.27838E+5  -1.73387E+4
   1.78356E+6   6.91203E+5
   1.78676E+6   5.23719E+5
   1.66404E+6   5.90451E+5
   1.73106E+6   6.20211E+5
   1.71800E+6   5.23643E+5
   1.66255E+6   5.27723E+5
   1.68914E+6   5.50536E+5
   1.66087E+6   5.21456E+5
   1.61252E+6   5.52283E+5
   1.61986E+6   5.68982E+5
   1.59080E+6   5.51024E+5
   1.55749E+6   5.75429E+5
   1.55627E+6   5.94690E+5
   1.52033E+6   5.97356E+5
   1.48744E+6   6.22727E+5
   1.48829E+6   6.34047E+5
   1.46457E+6   6.29928E+5
   1.43894E+6   6.40522E+5
   1.43550E+6   6.32989E+5
   1.40848E+6   6.28095E+5
   1.38155E+6   6.41015E+5
   1.36750E+6   6.41351E+5
   1.33933E+6   6.37718E+5
   1.30971E+6   6.49046E+5
   1.28904E+6   6.45750E+5
   1.25896E+6   6.49643E+5
   1.23012E+6   6.66632E+5
   1.20366E+6   6.71033E+5
   1.17501E+6   6.67302E+5
   1.15474E+6   6.71935E+5
   1.13661E+6   6.69562E+5
   1.11079E+6   6.66792E+5
   1.09058E+6   6.66487E+5
   1.07295E+6   6.58434E+5
   1.05416E+6   6.49995E+5
   1.03805E+6   6.48435E+5
   1.01796E+6   6.44776E+5
   9.90835E+5   6.41779E+5
   9.68152E+5   6.42220E+5
   9.43427E+5   6.41388E+5
   9.15384E+5   6.39555E+5
   8.91008E+5   6.37247E+5
   8.67428E+5   6.34953E+5
   8.40045E+5   6.33550E+5
   8.16726E+5   6.32218E+5
   7.95110E+5   6.28636E+5
   7.71875E+5   6.25933E+5
   7.49260E+5   6.20155E+5
   7.29258E+5   6.13362E+5
   7.09987E+5   6.08470E+5
   6.90809E+5   6.04830E+5
   6.70727E+5   5.99215E+5
   6.50894E+5   5.94489E+5
   6.30436E+5   5.90545E+5
   6.08499E+5   5.86437E+5
   5.85881E+5   5.82447E+5
   5.63836E+5   5.77196E+5
   5.42861E+5   5.71324E+5
   5.22766E+5   5.65930E+5
   5.02894E+5   5.60250E+5
   4.83293E+5   5.54268E+5
   4.64794E+5   5.48256E+5
   4.46038E+5   5.42191E+5
   4.27527E+5   5.35066E+5
   4.09850E+5   5.26426E+5
   3.93376E+5   5.18926E+5
   3.76458E+5   5.11792E+5
   3.59953E+5   5.05060E+5
   3.43230E+5   4.99015E+5
   3.26407E+5   4.92051E+5
   3.09124E+5   4.84491E+5
   2.93606E+5   4.77080E+5
   2.77765E+5   4.70037E+5
   2.61719E+5   4.62648E+5
   2.45960E+5   4.54675E+5
   2.31636E+5   4.46733E+5
   2.17116E+5   4.38669E+5
   2.03004E+5   4.30448E+5
   1.89147E+5   4.22097E+5
   1.75604E+5   4.13877E+5
   1.62351E+5   4.05295E+5
   1.49789E+5   3.97521E+5
   1.36803E+5   3.89666E+5
   1.23610E+5   3.81842E+5
   1.10641E+5   3.73556E+5
   9.89801E+4   3.65558E+5
   8.66173E+4   3.57813E+5
   7.42259E+4   3.49540E+5
   6.35379E+4   3.41437E+5
   5.33881E+4   3.33198E+5
   4.32768E+4   3.25189E+5
   3.33338E+4   3.17218E+5
   2.42775E+4   3.08730E+5
   1.55105E+4   3.01002E+5
   7.35958E+3   2.92863E+5
  -3.80369E+2   2.85251E+5
  -8.50159E+3   2.78052E+5
  -1.62936E+4   2.70742E+5
  -2.35086E+4   2.63385E+5
  -3.08774E+4   2.56180E+5
  -3.81320E+4   2.49348E+5
  -4.55335E+4   2.41912E+5
  -5.21098E+4   2.34246E+5
  -5.82663E+4   2.26846E+5
  -6.40121E+4   2.20280E+5
  -6.95313E+4   2.13545E+5
  -7.53097E+4   2.06418E+5
  -8.03331E+4   1.99399E+5
  -8.45220E+4   1.92698E+5
  -8.87439E+4   1.86235E+5
  -9.30146E+4   1.79964E+5
  -9.72023E+4   1.73600E+5
  -1.00738E+5   1.67445E+5
  -1.04278E+5   1.61451E+5
  -1.07563E+5   1.55656E+5
  -1.10995E+5   1.49995E+5
  -1.13809E+5   1.44057E+5
  -1.16463E+5   1.38399E+5
  -1.18961E+5   1.33052E+5
  -1.21272E+5   1.27839E+5
  -1.23649E+5   1.22305E+5
  -1.25397E+5   1.17028E+5
  -1.27359E+5   1.11689E+5
  -1.28987E+5   1.06829E+5
  -1.30578E+5   1.01281E+5
  -1.31441E+5   9.58685E+4
  -1.32638E+5   9.08502E+4
  -1.33832E+5   8.60459E+4
  -1.34515E+5   8.10972E+4
  -1.35340E+5   7.59844E+4
  -1.35690E+5   7.07365E+4
  -1.36452E+5   6.64037E+4
  -1.36748E+5   6.14803E+4
  -1.36877E+5   5.70671E+4
  -1.37031E+5   5.27618E+4
  -1.37263E+5   4.84487E+4
  -1.37104E+5   4.44134E+4
  -1.37339E+5   4.04019E+4
  -1.37351E+5   3.63682E+4
  -1.36790E+5   3.24879E+4
  -1.36289E+5   2.83622E+4
  -1.35738E+5   2.46716E+4
  -1.34970E+5   2.10965E+4
  -1.34634E+5   1.75943E+4
  -1.33572E+5   1.40054E+4
  -1.32735E+5   1.05673E+4
  -1.31638E+5   7.29479E+3
  -1.30707E+5   3.84287E+3
  -1.29688E+5   1.14931E+3
  -1.28318E+5  -2.08068E+3
  -1.27314E+5  -4.71583E+3
  -1.25965E+5  -7.35224E+3
  -1.25079E+5  -1.01211E+4
  -1.24037E+5  -1.27694E+4
  -1.22518E+5  -1.51595E+4
  -1.21350E+5  -1.76075E+4
  -1.19927E+5  -1.99297E+4
  -1.18521E+5  -2.20947E+4
  -1.17490E+5  -2.44773E+4
  -1.15948E+5  -2.63214E+4
  -1.14487E+5  -2.85704E+4
  -1.13009E+5  -3.03624E+4
  -1.11367E+5  -3.21180E+4
  -1.09876E+5  -3.36332E+4
  -1.08395E+5  -3.53095E+4
  -1.06824E+5  -3.65866E+4
  -1.05565E+5  -3.82210E+4
  -1.03944E+5  -3.94091E+4
  -1.02307E+5  -4.06703E+4
  -1.00657E+5  -4.18590E+4
  -9.91853E+4  -4.30952E+4
  -9.77243E+4  -4.43081E+4
  -9.57426E+4  -4.52641E+4
  -9.41619E+4  -4.62284E+4
  -9.27241E+4  -4.71062E+4
  -9.10310E+4  -4.83441E+4
  -8.92033E+4  -4.89796E+4
  -8.71943E+4  -4.96308E+4
  -8.58543E+4  -5.05197E+4
  -8.42042E+4  -5.11274E+4
  -8.23440E+4  -5.18292E+4
  -8.08680E+4  -5.24772E+4
  -7.88841E+4  -5.30879E+4
  -7.70263E+4  -5.36578E+4
  -7.54344E+4  -5.39058E+4
  -7.34349E+4  -5.44432E+4
  -7.20310E+4  -5.49682E+4
  -7.06084E+4  -5.51560E+4
  -6.88394E+4  -5.55213E+4
  -6.68619E+4  -5.59607E+4
  -6.54096E+4  -5.63670E+4
  -6.33412E+4  -5.67778E+4
  -6.18543E+4  -5.67079E+4
  -6.01073E+4  -5.69783E+4
  -5.84758E+4  -5.72699E+4
  -5.63779E+4  -5.75494E+4
  -5.46219E+4  -5.77249E+4
  -5.30145E+4  -5.77799E+4
  -5.14634E+4  -5.81847E+4
  -4.95266E+4  -5.82729E+4
  -4.76200E+4  -5.80918E+4
  -4.60598E+4  -5.80722E+4
  -4.44850E+4  -5.81302E+4
  -4.29356E+4  -5.80337E+4
  -4.10858E+4  -5.82952E+4
  -3.94250E+4  -5.82141E+4
  -3.78065E+4  -5.81973E+4
  -3.63250E+4  -5.79237E+4
  -3.48606E+4  -5.76889E+4
  -3.29982E+4  -5.77519E+4
  -3.17596E+4  -5.76908E+4
  -3.01256E+4  -5.73458E+4
  -2.85907E+4  -5.74054E+4
  -2.71687E+4  -5.70669E+4
  -2.57540E+4  -5.68525E+4
  -2.42484E+4  -5.65012E+4
  -2.30644E+4  -5.61844E+4
  -2.15096E+4  -5.56998E+4
  -2.02318E+4  -5.53405E+4
  -1.89277E+4  -5.51621E+4
  -1.77937E+4  -5.48731E+4
  -1.65474E+4  -5.42878E+4
  -1.54313E+4  -5.39263E+4
  -1.42011E+4  -5.35968E+4
  -1.29379E+4  -5.28559E+4
  -1.19096E+4  -5.28337E+4
  -1.08731E+4  -5.23460E+4
  -1.00281E+4  -5.18302E+4
  -8.78486E+3  -5.10108E+4
  -7.99534E+3  -5.05152E+4
  -6.76989E+3  -5.01756E+4
  -5.99206E+3  -4.94002E+4
  -5.08871E+3  -4.89053E+4
  -4.34173E+3  -4.81911E+4
  -3.46174E+3  -4.76859E+4
  -2.59229E+3  -4.70993E+4
  -1.77001E+3  -4.65301E+4
  -1.02963E+3  -4.58770E+4
  -3.91256E+2  -4.52985E+4
  -8.93601E+1  -4.46077E+4
   7.95310E+2  -4.37640E+4
   1.32878E+3  -4.33766E+4
   2.31072E+3  -4.26314E+4
   2.94598E+3  -4.18267E+4
   3.52621E+3  -4.09295E+4
   3.98497E+3  -4.03953E+4
   4.67868E+3  -3.97079E+4
   5.29111E+3  -3.89988E+4
   5.66271E+3  -3.80129E+4
   6.28591E+3  -3.74346E+4
   6.77733E+3  -3.66631E+4
   7.19950E+3  -3.59246E+4
   7.49228E+3  -3.50242E+4
   8.22417E+3  -3.45128E+4
   8.92785E+3  -3.33373E+4
   9.44175E+3  -3.27754E+4
   9.79258E+3  -3.19360E+4
   1.02250E+4  -3.09693E+4
   1.06927E+4  -3.03510E+4
   1.11758E+4  -2.95678E+4
   1.14718E+4  -2.85126E+4
   1.19194E+4  -2.79996E+4
   1.23237E+4  -2.68612E+4
   1.29698E+4  -2.60408E+4
   1.33608E+4  -2.51212E+4
   1.36710E+4  -2.46737E+4
   1.39244E+4  -2.37873E+4
   1.44946E+4  -2.26320E+4
   1.49399E+4  -2.21790E+4
   1.50861E+4  -2.12823E+4
   1.55639E+4  -2.04620E+4
   1.58534E+4  -1.98058E+4
   1.63566E+4  -1.88093E+4
   1.65965E+4  -1.80149E+4
   1.67515E+4  -1.71328E+4
   1.71717E+4  -1.63206E+4
   1.75924E+4  -1.57241E+4
   1.77258E+4  -1.47992E+4
   1.81453E+4  -1.39059E+4
   1.82874E+4  -1.33990E+4
   1.86419E+4  -1.23717E+4
   1.89765E+4  -1.15315E+4
   1.90188E+4  -1.12881E+4
   1.90507E+4  -1.04240E+4
   1.93409E+4  -9.82098E+3
   1.94122E+4  -9.07772E+3
   1.97131E+4  -8.57189E+3
   1.99671E+4  -7.43735E+3
   1.99393E+4  -7.08875E+3
   2.00620E+4  -6.16020E+3
   2.02170E+4  -5.93488E+3
   2.02130E+4  -5.13319E+3
   2.02729E+4  -4.56587E+3
   2.03784E+4  -3.86255E+3
   2.03908E+4  -2.95743E+3
   2.03394E+4  -2.73301E+3
   2.05520E+4  -2.14059E+3
   2.03361E+4  -1.24165E+3
   2.03314E+4  -7.31769E+2
   2.04523E+4  -4.57425E+2
   2.03466E+4   1.39530E+2
   2.03005E+4   7.50430E+2
   2.01689E+4   1.42449E+3
   2.00269E+4   1.93505E+3
   1.99458E+4   2.24988E+3
   1.96892E+4   2.90146E+3
   1.97190E+4   3.76488E+3
   1.94900E+4   3.97117E+3
   1.92531E+4   4.57408E+3
   1.92477E+4   5.01371E+3
   1.90331E+4   5.57204E+3
   1.88713E+4   6.04593E+3
   1.85952E+4   6.39886E+3
   1.82524E+4   7.15177E+3
   1.82625E+4   7.43706E+3
   1.77828E+4   7.97972E+3
   1.78726E+4   8.44268E+3
   1.75440E+4   9.04383E+3
   1.74457E+4   9.21889E+3
   1.69409E+4   9.86448E+3
   1.66858E+4   1.01621E+4
   1.65627E+4   1.06926E+4
   1.62626E+4   1.11851E+4
   1.59270E+4   1.14038E+4
   1.55501E+4   1.18937E+4
   1.53129E+4   1.23606E+4
   1.50938E+4   1.29633E+4
   1.49046E+4   1.32556E+4
   1.47080E+4   1.33516E+4
   1.41329E+4   1.37499E+4
   1.39592E+4   1.41230E+4
   1.35051E+4   1.44065E+4
   1.33568E+4   1.47458E+4
   1.32586E+4   1.52645E+4
   1.26148E+4   1.56626E+4
   1.27229E+4   1.58853E+4
   1.20103E+4   1.62354E+4
   1.20741E+4   1.63379E+4
   1.16302E+4   1.66874E+4
   1.12621E+4   1.67685E+4
   1.07156E+4   1.72668E+4
   1.07537E+4   1.73787E+4
   1.04546E+4   1.77346E+4
   9.73232E+3   1.78704E+4
   9.58643E+3   1.79490E+4
   9.34403E+3   1.82722E+4
   8.83921E+3   1.84740E+4
   8.77861E+3   1.83956E+4
   8.30820E+3   1.86229E+4
   8.13407E+3   1.89856E+4
   7.51827E+3   1.90965E+4
   7.18867E+3   1.91351E+4
   7.07539E+3   1.93668E+4
   6.76396E+3   1.91582E+4
   6.20752E+3   1.94809E+4
   6.03578E+3   1.95622E+4
   5.77790E+3   1.96498E+4
   5.22960E+3   1.99229E+4
   4.93872E+3   1.98686E+4
   4.74214E+3   1.97553E+4
   4.15483E+3   1.99458E+4
   3.82712E+3   1.98794E+4
   3.43033E+3   2.00495E+4
   3.19750E+3   1.98661E+4
   2.93997E+3   1.99631E+4
   2.60397E+3   2.00465E+4
