 LCModel (Version 6.3-1N) Copyright: S.W. Provencher.          Ref.: Magn. Reson. Med. 30:672-679 (1993).                
 Slice_N1@12_10  28-Feb-2025 11:37:56
 27 lines in following concentration table = NCONC+1
    Conc.  %SD /Cr+PCr  Metabolite                                         
 3.47E-04   4% 4.0E-04 Mac                                                 
    2.642  94%   3.064 Cr                                                  
    4.257  58%   4.936 PCr                                                 
    4.401  25%   5.104 Ins                                                 
   11.015  10%  12.774 NAA                                                 
    5.575  21%   6.465 Tau                                                 
    0.000 999%   0.000 PCho                                                
    0.652  61%   0.757 GPC                                                 
   12.541  10%  14.543 Glu                                                 
    2.632  36%   3.052 Gln                                                 
    0.000 999%   0.000 Ala                                                 
    1.269 126%   1.472 Asc                                                 
    2.899  36%   3.362 Asp                                                 
    0.000 999%   0.000 GABA                                                
    0.878  80%   1.018 Glc                                                 
    0.565  93%   0.655 GSH                                                 
    4.725  19%   5.479 Lac                                                 
    2.416  37%   2.802 NAAG                                                
    1.619  93%   1.878 PE                                                  
    0.652  61%   0.757 GPC+PCho                                            
   13.432   7%  15.576 NAA+NAAG                                            
   15.173  10%  17.595 Glu+Gln                                             
    6.899  12%   8.000 Cr+PCr                                              
   13.432   7%  15.576 NAA+NAAG                                            
    6.899  12%   8.000 Cr+PCr                                              
   15.173  10%  17.595 Glu+Gln                                             
   6 lines in following misc. output table
  FWHM = 0.041 ppm    S/N =   3                                            
  Data shift = 0.016 ppm                                                   
  Ph: 149 deg       0.0 deg/ppm                                            
  alphaB,S = 3.1E+01,   1.6E+01                                            
   19 spline knots.   Ns = 6(1)                                            
   2 inflections.     1 extrema                                            
  480 points on ppm-axis = NY
      4.100000     4.091866     4.083733     4.075600     4.067466     4.059333     4.051199     4.043066     4.034933     4.026799
      4.018666     4.010532     4.002399     3.994265     3.986132     3.977998     3.969864     3.961731     3.953597     3.945463
      3.937330     3.929196     3.921062     3.912929     3.904795     3.896662     3.888528     3.880394     3.872261     3.864127
      3.855993     3.847860     3.839726     3.831592     3.823459     3.815325     3.807191     3.799058     3.790924     3.782790
      3.774657     3.766523     3.758389     3.750256     3.742122     3.733989     3.725855     3.717721     3.709588     3.701454
      3.693320     3.685187     3.677053     3.668919     3.660786     3.652652     3.644518     3.636385     3.628251     3.620117
      3.611984     3.603850     3.595716     3.587583     3.579449     3.571316     3.563182     3.555048     3.546915     3.538781
      3.530647     3.522514     3.514380     3.506246     3.498113     3.489979     3.481845     3.473712     3.465578     3.457444
      3.449311     3.441177     3.433043     3.424910     3.416776     3.408643     3.400509     3.392375     3.384242     3.376108
      3.367974     3.359841     3.351707     3.343573     3.335440     3.327306     3.319172     3.311039     3.302905     3.294771
      3.286638     3.278504     3.270370     3.262237     3.254103     3.245970     3.237836     3.229702     3.221569     3.213435
      3.205301     3.197168     3.189034     3.180900     3.172767     3.164633     3.156499     3.148366     3.140232     3.132098
      3.123965     3.115831     3.107697     3.099564     3.091430     3.083297     3.075163     3.067029     3.058896     3.050762
      3.042628     3.034495     3.026361     3.018227     3.010094     3.001960     2.993826     2.985693     2.977559     2.969425
      2.961292     2.953158     2.945024     2.936891     2.928757     2.920624     2.912490     2.904356     2.896223     2.888089
      2.879955     2.871822     2.863688     2.855554     2.847421     2.839287     2.831153     2.823020     2.814886     2.806752
      2.798619     2.790485     2.782351     2.774218     2.766084     2.757951     2.749817     2.741683     2.733550     2.725416
      2.717282     2.709149     2.701015     2.692881     2.684748     2.676614     2.668480     2.660347     2.652213     2.644079
      2.635946     2.627812     2.619678     2.611545     2.603411     2.595278     2.587144     2.579010     2.570877     2.562743
      2.554609     2.546476     2.538342     2.530208     2.522075     2.513941     2.505807     2.497674     2.489540     2.481406
      2.473273     2.465139     2.457006     2.448872     2.440738     2.432605     2.424471     2.416337     2.408204     2.400070
      2.391936     2.383803     2.375669     2.367535     2.359402     2.351268     2.343134     2.335001     2.326867     2.318733
      2.310600     2.302466     2.294333     2.286199     2.278065     2.269932     2.261798     2.253664     2.245531     2.237397
      2.229263     2.221130     2.212996     2.204862     2.196729     2.188595     2.180461     2.172328     2.164194     2.156060
      2.147927     2.139793     2.131660     2.123526     2.115392     2.107259     2.099125     2.090991     2.082858     2.074724
      2.066590     2.058457     2.050323     2.042189     2.034056     2.025922     2.017788     2.009655     2.001521     1.993387
      1.985254     1.977120     1.968987     1.960853     1.952719     1.944586     1.936452     1.928318     1.920185     1.912051
      1.903917     1.895784     1.887650     1.879516     1.871383     1.863249     1.855115     1.846982     1.838848     1.830714
      1.822581     1.814447     1.806314     1.798180     1.790046     1.781913     1.773779     1.765645     1.757512     1.749378
      1.741244     1.733111     1.724977     1.716843     1.708710     1.700576     1.692442     1.684309     1.676175     1.668041
      1.659908     1.651774     1.643641     1.635507     1.627373     1.619240     1.611106     1.602972     1.594839     1.586705
      1.578571     1.570438     1.562304     1.554170     1.546037     1.537903     1.529769     1.521636     1.513502     1.505368
      1.497235     1.489101     1.480968     1.472834     1.464700     1.456567     1.448433     1.440299     1.432166     1.424032
      1.415898     1.407765     1.399631     1.391497     1.383364     1.375230     1.367096     1.358963     1.350829     1.342695
      1.334562     1.326428     1.318295     1.310161     1.302027     1.293894     1.285760     1.277626     1.269493     1.261359
      1.253225     1.245092     1.236958     1.228824     1.220691     1.212557     1.204423     1.196290     1.188156     1.180022
      1.171889     1.163755     1.155622     1.147488     1.139354     1.131221     1.123087     1.114953     1.106820     1.098686
      1.090552     1.082419     1.074285     1.066151     1.058018     1.049884     1.041750     1.033617     1.025483     1.017349
      1.009216     1.001082     0.992949     0.984815     0.976681     0.968548     0.960414     0.952280     0.944147     0.936013
      0.927879     0.919746     0.911612     0.903478     0.895345     0.887211     0.879077     0.870944     0.862810     0.854676
      0.846543     0.838409     0.830276     0.822142     0.814008     0.805875     0.797741     0.789607     0.781474     0.773340
      0.765206     0.757073     0.748939     0.740805     0.732672     0.724538     0.716404     0.708271     0.700137     0.692003
      0.683870     0.675736     0.667603     0.659469     0.651335     0.643202     0.635068     0.626934     0.618801     0.610667
      0.602533     0.594400     0.586266     0.578132     0.569999     0.561865     0.553731     0.545598     0.537464     0.529330
      0.521197     0.513063     0.504930     0.496796     0.488662     0.480529     0.472395     0.464261     0.456128     0.447994
      0.439861     0.431727     0.423593     0.415460     0.407326     0.399192     0.391059     0.382925     0.374792     0.366658
      0.358524     0.350391     0.342257     0.334124     0.325990     0.317856     0.309723     0.301589     0.293455     0.285322
      0.277188     0.269055     0.260921     0.252787     0.244654     0.236520     0.228386     0.220253     0.212119     0.203986
 NY phased data points follow
  -8.38391E+01 -6.59962E+01 -7.91199E+01 -9.91589E+01 -8.57596E+01 -7.52654E+01 -8.36553E+01 -8.05138E+01 -8.32760E+01 -9.04529E+01
  -1.01609E+02 -8.42457E+01 -7.97932E+01 -1.00729E+02 -9.45300E+01 -9.62924E+01 -1.09635E+02 -1.29972E+02 -1.24958E+02 -1.18822E+02
  -1.32740E+02 -1.13334E+02 -1.05863E+02 -1.07909E+02 -7.19288E+01 -5.47695E+01 -6.06097E+01 -4.31405E+01 -2.75647E+01 -3.84252E+01
  -5.13703E+01 -4.75576E+01 -4.75262E+01 -4.28139E+01 -4.73079E+01 -4.46451E+01 -4.35825E+01 -6.94304E+01 -6.87636E+01 -7.26450E+01
  -6.65133E+01 -8.14119E+01 -1.00545E+02 -6.75981E+01 -7.17549E+01 -5.09436E+01 -2.84349E+01 -3.96315E+01 -1.84051E+01 -1.01463E+01
  -1.90445E+00 -1.01926E+01 -2.56261E+01 -8.68973E+00 -2.61211E+01 -2.71816E+01 -1.37378E+01 -4.52527E+01 -4.84875E+01 -5.63369E+01
  -5.08728E+01 -1.83244E+01 -3.63829E+01 -3.32555E+01 -7.21119E+00 -1.24537E+01 -2.17213E+01 -2.35661E+01 -4.07171E+01 -5.32518E+01
  -4.35519E+01 -4.72273E+01 -4.06369E+01 -2.82929E+01 -3.06714E+01 -2.02633E+01 -1.47295E+01 -2.10144E+01 -2.02493E+01 -1.44437E+01
  -1.54124E+01 -2.10607E+01 -1.36465E+01 -1.94039E+01 -4.46154E+01 -4.23941E+01 -3.44556E+01 -5.48156E+01 -5.94465E+01 -2.57985E+01
  -1.06014E+01 -5.97063E+00  1.66891E+00 -6.86889E+00  1.57807E+00  6.04551E+00  1.67781E+00  7.22250E+00  1.92626E+01  1.30132E+01
  -1.03397E+01 -9.39153E+00 -1.22883E+01 -1.82623E+01 -3.81093E+01 -6.00181E+01 -6.40581E+01 -8.42316E+01 -9.76664E+01 -1.08974E+02
  -1.28563E+02 -1.46591E+02 -1.37851E+02 -1.20070E+02 -1.21340E+02 -1.01078E+02 -8.14146E+01 -6.87954E+01 -5.90769E+01 -6.07913E+01
  -4.85053E+01 -4.96602E+01 -4.92382E+01 -3.34614E+01 -3.12033E+01 -1.82880E+01 -1.10459E+01 -1.04846E+00  1.46251E+01  2.44065E+01
   3.48702E+01  1.47781E+01 -3.15758E+00 -4.97286E+01 -1.03333E+02 -1.05119E+02 -1.19289E+02 -1.42367E+02 -1.40775E+02 -1.24367E+02
  -1.33422E+02 -1.31863E+02 -1.18395E+02 -1.14469E+02 -9.65758E+01 -1.02672E+02 -1.11173E+02 -1.11812E+02 -1.05146E+02 -9.49273E+01
  -1.00534E+02 -9.83765E+01 -8.50734E+01 -8.77053E+01 -8.66756E+01 -7.03092E+01 -8.13319E+01 -7.16776E+01 -6.30332E+01 -7.63275E+01
  -6.06198E+01 -5.43683E+01 -5.98199E+01 -6.09640E+01 -5.59687E+01 -6.00332E+01 -7.26169E+01 -6.36695E+01 -6.13063E+01 -5.51332E+01
  -3.70871E+01 -4.86958E+01 -3.53280E+01 -1.90149E+01 -3.11831E+01 -3.32745E+01 -4.37662E+01 -2.85162E+01 -3.46902E+01 -5.46181E+01
  -5.20479E+01 -6.75188E+01 -8.26049E+01 -8.27092E+01 -7.70330E+01 -9.21855E+01 -8.78884E+01 -8.47929E+01 -8.37750E+01 -7.63080E+01
  -7.12566E+01 -7.50255E+01 -9.33556E+01 -7.01522E+01 -6.91265E+01 -4.97087E+01 -4.82616E+01 -7.19071E+01 -4.72253E+01 -5.57817E+01
  -6.10502E+01 -5.04084E+01 -4.63270E+01 -6.21235E+01 -6.63544E+01 -8.19505E+01 -7.61181E+01 -6.07638E+01 -9.06021E+01 -7.56427E+01
  -8.93496E+01 -8.28735E+01 -7.38539E+01 -7.41698E+01 -4.03363E+01 -3.31909E+01 -1.42871E+00  1.21319E+01  1.09426E+01 -4.94791E+00
  -9.16837E+00 -1.15862E+01 -2.73230E+01 -2.97091E+01 -4.94719E+01 -4.24085E+01 -3.90016E+01 -3.64873E+01 -3.16690E+01 -3.36335E+01
  -5.35381E+01 -6.02902E+01 -5.59544E+01 -7.22884E+01 -6.58792E+01 -9.48158E+01 -9.97928E+01 -8.99318E+01 -1.21165E+02 -1.27744E+02
  -1.15813E+02 -1.15902E+02 -1.03679E+02 -8.70621E+01 -9.96053E+01 -8.95036E+01 -8.67802E+01 -8.58452E+01 -8.68206E+01 -8.56936E+01
  -9.33235E+01 -1.08773E+02 -9.25864E+01 -1.10436E+02 -9.72151E+01 -1.06743E+02 -9.97217E+01 -3.98756E+01 -4.75831E+00  5.79186E+01
   8.58922E+01  1.39488E+02  1.54766E+02  1.04375E+02  1.03581E+02  9.02301E+01  6.73423E+01  6.62035E+01  6.93551E+01  6.38835E+01
   5.62296E+01  4.21626E+01  5.93224E+01  5.59780E+01  3.97075E+01  6.52092E+01  5.60053E+01  4.94857E+01  5.15835E+01  5.12574E+01
   4.42788E+01  2.57486E+01  2.30161E+01  2.88847E+01  3.77848E+01  1.40364E+01  5.98527E-01  1.71276E+01  7.06700E+00 -1.04571E+01
   4.79059E+00  9.16620E+00 -1.18771E+01 -8.00112E+00 -5.76109E+00 -1.47848E+01 -2.29237E+01 -2.68617E+01 -1.27907E+01 -1.93037E+01
  -3.16705E+01 -2.32795E+01 -1.57905E+01 -5.78001E+00 -9.61020E+00 -5.76176E+00  4.20009E+00  1.01268E+01  1.76797E+01  1.37632E+01
   2.87520E+01  1.28593E+01 -1.77660E+00  1.43406E+01  2.12871E+01  4.15848E+01  5.48710E+01  7.42135E+01  6.83169E+01  7.60406E+01
   1.05960E+02  1.00514E+02  1.06908E+02  1.07426E+02  1.23141E+02  1.32134E+02  1.17485E+02  1.09300E+02  8.09023E+01  6.47118E+01
   5.02490E+01  2.69268E+01  6.45368E+00 -8.79821E+00 -1.25834E+01 -2.44860E+01 -2.71836E+01 -3.38089E+01 -5.47571E+01 -4.69086E+01
  -5.07061E+01 -5.22503E+01 -2.13990E+01 -3.89541E+01 -3.68299E+01 -2.51766E+01 -4.42016E+01 -1.62623E+01 -2.69851E+01 -3.82695E+01
  -1.84799E+01 -2.32694E+01 -2.04226E+01 -1.95366E+01 -1.61709E+01 -2.45479E+01 -2.02026E+01 -2.77017E+01 -3.69701E+01 -3.57090E+01
  -5.17716E+01 -1.32085E+01 -8.11620E+00 -3.22092E+01 -2.36890E+01 -2.08661E+01 -4.20051E+00 -2.43083E+00 -2.74105E+00  9.51145E+00
   1.40189E+01  4.48133E+00  1.66735E+00  1.26261E+01  1.43886E+01  2.31997E+01  2.02410E+01  1.23359E+01  3.23412E+01  3.06795E+01
   3.60689E+01  6.26144E+01  4.96441E+01  5.62884E+01  7.79899E+01  8.29545E+01  8.47703E+01  9.79705E+01  1.06369E+02  8.68485E+01
   9.30297E+01  8.69848E+01  7.04700E+01  5.59409E+01  3.88531E+01  3.39580E+01  2.30208E+01  1.70976E+01  2.77694E+00 -4.07056E-01
  -9.65036E-01 -7.46671E+00 -2.06654E+01 -1.69097E+01 -1.85106E+01 -3.93503E+01 -4.09811E+01 -5.51698E+01 -4.03683E+01 -4.74576E+01
  -5.14523E+01 -2.90793E+01 -5.73746E+01 -5.20376E+01 -3.12309E+01 -3.78185E+01 -4.13542E+01 -4.64749E+01 -4.54301E+01 -3.62108E+01
  -5.54056E+01 -5.83024E+01 -4.48620E+01 -6.01824E+01 -5.86961E+01 -5.92887E+01 -5.16970E+01 -5.23319E+01 -6.10530E+01 -4.80177E+01
  -5.13325E+01 -4.06628E+01 -3.90506E+01 -5.72492E+01 -4.53244E+01 -5.15376E+01 -5.67317E+01 -4.09821E+01 -4.75877E+01 -4.19736E+01
  -5.06165E+01 -5.03283E+01 -4.17597E+01 -5.45794E+01 -4.56713E+01 -4.26605E+01 -3.13555E+01 -3.31249E+01 -3.56176E+01 -4.03349E+01
  -5.45528E+01 -3.53940E+01 -4.46057E+01 -3.95741E+01 -1.62825E+01 -3.13179E+01 -4.69599E+01 -5.55470E+01 -4.23656E+01 -2.65401E+01
  -4.07418E+01 -4.75477E+01 -3.67711E+01 -2.92849E+01 -3.47976E+01 -2.94725E+01 -3.23817E+01 -4.19871E+01 -2.64016E+01 -5.30366E+01
  -5.45017E+01 -2.80124E+01 -3.74923E+01 -4.10222E+01 -3.33625E+01 -1.60493E+01 -4.42930E+01 -4.36576E+01 -2.55508E+01 -4.37224E+01
 NY points of the fit to the data follow
  -7.85736E+01 -7.71347E+01 -7.68031E+01 -7.74380E+01 -7.82893E+01 -7.82368E+01 -7.66976E+01 -7.55101E+01 -7.51279E+01 -7.66198E+01
  -8.01641E+01 -8.55307E+01 -9.09984E+01 -9.48931E+01 -9.75187E+01 -1.00187E+02 -1.03249E+02 -1.07205E+02 -1.11971E+02 -1.16510E+02
  -1.17970E+02 -1.13774E+02 -1.03490E+02 -8.85030E+01 -7.16102E+01 -5.55586E+01 -4.39173E+01 -3.80850E+01 -3.39136E+01 -3.16209E+01
  -3.03418E+01 -2.90828E+01 -2.88288E+01 -2.98615E+01 -3.20532E+01 -3.53616E+01 -3.98099E+01 -4.60390E+01 -5.43946E+01 -6.46846E+01
  -7.50268E+01 -8.27325E+01 -8.51314E+01 -8.08682E+01 -7.01966E+01 -5.51587E+01 -3.98899E+01 -2.80658E+01 -2.05406E+01 -1.72004E+01
  -1.68547E+01 -1.88889E+01 -2.14428E+01 -2.45929E+01 -2.82481E+01 -3.18478E+01 -3.51559E+01 -3.81909E+01 -4.11231E+01 -4.32217E+01
  -4.36173E+01 -4.22105E+01 -3.90901E+01 -3.43907E+01 -2.80755E+01 -2.28732E+01 -2.11267E+01 -2.15118E+01 -2.53304E+01 -3.27129E+01
  -3.94073E+01 -4.32663E+01 -4.36457E+01 -4.01383E+01 -3.28475E+01 -2.39535E+01 -1.70447E+01 -1.21569E+01 -8.59754E+00 -8.06859E+00
  -1.11637E+01 -1.70550E+01 -2.53289E+01 -3.50793E+01 -4.40693E+01 -5.00790E+01 -5.13057E+01 -4.76264E+01 -4.03793E+01 -3.12737E+01
  -2.31731E+01 -1.64242E+01 -1.12872E+01 -7.60937E+00 -4.29743E+00 -1.47921E+00  8.40515E-01  2.48729E+00  3.19063E+00  3.14570E+00
   2.06403E+00 -5.68204E-01 -6.10287E+00 -1.48201E+01 -2.69842E+01 -4.20232E+01 -5.89780E+01 -7.60224E+01 -9.19474E+01 -1.07072E+02
  -1.18680E+02 -1.23646E+02 -1.23472E+02 -1.17464E+02 -1.07019E+02 -9.45494E+01 -8.46081E+01 -7.71495E+01 -7.05748E+01 -6.43888E+01
  -5.82516E+01 -5.19383E+01 -4.52285E+01 -3.77467E+01 -2.91987E+01 -1.91198E+01 -6.72925E+00  6.43203E+00  1.94772E+01  2.97431E+01
   3.31380E+01  2.23315E+01 -4.58524E+00 -4.05365E+01 -7.62123E+01 -1.04499E+02 -1.22225E+02 -1.25062E+02 -1.16614E+02 -1.12990E+02
  -1.12482E+02 -1.12501E+02 -1.12651E+02 -1.12693E+02 -1.12406E+02 -1.11550E+02 -1.10148E+02 -1.08235E+02 -1.05781E+02 -1.02880E+02
  -9.96663E+01 -9.65108E+01 -9.35632E+01 -9.07407E+01 -8.80073E+01 -8.53984E+01 -8.30806E+01 -8.11463E+01 -7.94386E+01 -7.77740E+01
  -7.62117E+01 -7.48854E+01 -7.40147E+01 -7.37746E+01 -7.40310E+01 -7.43855E+01 -7.42764E+01 -7.32817E+01 -7.11349E+01 -6.78773E+01
  -6.30853E+01 -5.66875E+01 -5.01543E+01 -4.51885E+01 -4.24129E+01 -4.11912E+01 -4.12372E+01 -4.27296E+01 -4.54141E+01 -4.92701E+01
  -5.56161E+01 -6.43747E+01 -7.30813E+01 -7.93719E+01 -8.24959E+01 -8.39144E+01 -8.50312E+01 -8.53011E+01 -8.48566E+01 -8.36080E+01
  -8.18138E+01 -7.95877E+01 -7.67673E+01 -7.29131E+01 -6.83597E+01 -6.41933E+01 -6.05882E+01 -5.72038E+01 -5.42554E+01 -5.29530E+01
  -5.27005E+01 -5.15396E+01 -5.14699E+01 -5.32766E+01 -5.64050E+01 -6.10237E+01 -6.67358E+01 -7.43050E+01 -8.24154E+01 -8.90109E+01
  -9.28216E+01 -9.29032E+01 -8.74997E+01 -7.57725E+01 -5.75347E+01 -3.57479E+01 -1.47341E+01  1.33318E+00  9.17054E+00  9.32622E+00
   2.10086E+00 -8.24514E+00 -1.54379E+01 -2.16411E+01 -2.42170E+01 -2.49451E+01 -2.65127E+01 -2.97277E+01 -3.51199E+01 -4.27723E+01
  -5.24000E+01 -6.33558E+01 -7.47656E+01 -8.58073E+01 -9.57774E+01 -1.03991E+02 -1.10025E+02 -1.13725E+02 -1.15321E+02 -1.14917E+02
  -1.12652E+02 -1.09295E+02 -1.04688E+02 -9.90674E+01 -9.35066E+01 -8.85652E+01 -8.51443E+01 -8.47642E+01 -8.67440E+01 -9.06522E+01
  -9.60593E+01 -1.02656E+02 -1.08248E+02 -1.11100E+02 -1.11795E+02 -1.09310E+02 -9.34908E+01 -5.89597E+01 -1.16743E+01  3.50807E+01
   7.42553E+01  1.02642E+02  1.08696E+02  9.31777E+01  8.02740E+01  7.32980E+01  6.80277E+01  6.37020E+01  6.01085E+01  5.70535E+01
   5.46051E+01  5.28682E+01  5.18689E+01  5.13168E+01  5.09692E+01  5.06480E+01  5.01068E+01  4.92908E+01  4.82657E+01  4.70566E+01
   4.55819E+01  4.38904E+01  4.20471E+01  3.99692E+01  3.77675E+01  3.54230E+01  3.30319E+01  3.05205E+01  2.77750E+01  2.46698E+01
   2.12023E+01  1.74172E+01  1.33308E+01  9.15499E+00  5.26780E+00  2.04187E+00 -2.95650E-02 -7.49937E-01 -1.24620E-01  1.74176E+00
   4.43256E+00  7.60440E+00  1.09463E+01  1.42760E+01  1.75129E+01  2.06900E+01  2.37612E+01  2.67189E+01  2.96713E+01  3.27177E+01
   3.57561E+01  3.86723E+01  4.13719E+01  4.37905E+01  4.58092E+01  4.73984E+01  4.85757E+01  4.92173E+01  4.91721E+01  4.83067E+01
   4.66704E+01  4.44160E+01  4.15310E+01  3.80052E+01  3.39040E+01  2.91512E+01  2.34061E+01  1.64445E+01  8.34094E+00 -6.48238E-01
  -9.90590E+00 -1.85839E+01 -2.57312E+01 -3.03226E+01 -3.18153E+01 -2.99326E+01 -2.53306E+01 -1.84781E+01 -1.13711E+01 -6.30069E+00
  -6.26839E+00 -1.22146E+01 -2.28007E+01 -3.51858E+01 -4.52092E+01 -4.98795E+01 -4.74652E+01 -4.03375E+01 -3.30818E+01 -2.56921E+01
  -2.19828E+01 -2.12247E+01 -2.18805E+01 -2.38816E+01 -2.69747E+01 -3.06357E+01 -3.41109E+01 -3.67279E+01 -3.80992E+01 -3.78954E+01
  -3.61963E+01 -3.33557E+01 -2.97000E+01 -2.54571E+01 -2.09539E+01 -1.64205E+01 -1.19984E+01 -7.78541E+00 -3.74911E+00  1.67524E-01
   4.03345E+00  7.98305E+00  1.19567E+01  1.61264E+01  2.05394E+01  2.53214E+01  3.06093E+01  3.64730E+01  4.29845E+01  5.01594E+01
   5.79567E+01  6.62973E+01  7.50998E+01  8.42538E+01  9.31496E+01  1.01175E+02  1.07468E+02  1.11042E+02  1.10857E+02  1.06573E+02
   9.86405E+01  8.81380E+01  7.64841E+01  6.49649E+01  5.44702E+01  4.52076E+01  3.65337E+01  2.77485E+01  1.83903E+01  8.53659E+00
  -1.56596E+00 -1.13382E+01 -1.99712E+01 -2.70980E+01 -3.26999E+01 -3.69090E+01 -3.98608E+01 -4.20099E+01 -4.36572E+01 -4.49196E+01
  -4.58892E+01 -4.67062E+01 -4.72935E+01 -4.76667E+01 -4.78126E+01 -4.78174E+01 -4.76817E+01 -4.75310E+01 -4.74328E+01 -4.73192E+01
  -4.70902E+01 -4.68263E+01 -4.66262E+01 -4.63884E+01 -4.60830E+01 -4.58092E+01 -4.56688E+01 -4.54793E+01 -4.51416E+01 -4.47654E+01
  -4.43743E+01 -4.39932E+01 -4.36527E+01 -4.34173E+01 -4.32797E+01 -4.31592E+01 -4.29306E+01 -4.25635E+01 -4.21093E+01 -4.16369E+01
  -4.11838E+01 -4.07887E+01 -4.04881E+01 -4.01967E+01 -4.00001E+01 -3.98577E+01 -3.97100E+01 -3.95295E+01 -3.92923E+01 -3.89820E+01
  -3.86080E+01 -3.82797E+01 -3.79804E+01 -3.77501E+01 -3.74487E+01 -3.70795E+01 -3.66951E+01 -3.62646E+01 -3.58318E+01 -3.54948E+01
  -3.51914E+01 -3.49268E+01 -3.47345E+01 -3.46088E+01 -3.44811E+01 -3.43690E+01 -3.41583E+01 -3.38171E+01 -3.32764E+01 -3.27389E+01
  -3.22725E+01 -3.19884E+01 -3.18890E+01 -3.19099E+01 -3.19483E+01 -3.18987E+01 -3.17052E+01 -3.14434E+01 -3.11854E+01 -3.10210E+01
 NY background values follow
    -4.888E+01   -4.882E+01   -4.876E+01   -4.871E+01   -4.865E+01   -4.859E+01   -4.854E+01   -4.848E+01   -4.843E+01   -4.837E+01
    -4.831E+01   -4.826E+01   -4.820E+01   -4.815E+01   -4.809E+01   -4.803E+01   -4.798E+01   -4.792E+01   -4.787E+01   -4.781E+01
    -4.775E+01   -4.770E+01   -4.764E+01   -4.758E+01   -4.753E+01   -4.747E+01   -4.742E+01   -4.736E+01   -4.730E+01   -4.725E+01
    -4.719E+01   -4.714E+01   -4.708E+01   -4.702E+01   -4.697E+01   -4.691E+01   -4.685E+01   -4.680E+01   -4.674E+01   -4.669E+01
    -4.663E+01   -4.657E+01   -4.652E+01   -4.646E+01   -4.641E+01   -4.635E+01   -4.629E+01   -4.624E+01   -4.618E+01   -4.613E+01
    -4.607E+01   -4.601E+01   -4.596E+01   -4.590E+01   -4.584E+01   -4.579E+01   -4.573E+01   -4.568E+01   -4.562E+01   -4.556E+01
    -4.551E+01   -4.545E+01   -4.540E+01   -4.534E+01   -4.528E+01   -4.523E+01   -4.517E+01   -4.512E+01   -4.506E+01   -4.500E+01
    -4.495E+01   -4.489E+01   -4.483E+01   -4.478E+01   -4.472E+01   -4.467E+01   -4.461E+01   -4.455E+01   -4.450E+01   -4.444E+01
    -4.439E+01   -4.433E+01   -4.427E+01   -4.422E+01   -4.416E+01   -4.411E+01   -4.405E+01   -4.399E+01   -4.394E+01   -4.388E+01
    -4.382E+01   -4.377E+01   -4.371E+01   -4.366E+01   -4.360E+01   -4.354E+01   -4.349E+01   -4.343E+01   -4.338E+01   -4.332E+01
    -4.326E+01   -4.321E+01   -4.315E+01   -4.310E+01   -4.304E+01   -4.298E+01   -4.293E+01   -4.287E+01   -4.282E+01   -4.276E+01
    -4.270E+01   -4.265E+01   -4.259E+01   -4.253E+01   -4.248E+01   -4.242E+01   -4.237E+01   -4.231E+01   -4.225E+01   -4.220E+01
    -4.214E+01   -4.209E+01   -4.203E+01   -4.197E+01   -4.192E+01   -4.186E+01   -4.181E+01   -4.175E+01   -4.169E+01   -4.164E+01
    -4.158E+01   -4.153E+01   -4.147E+01   -4.141E+01   -4.136E+01   -4.130E+01   -4.125E+01   -4.119E+01   -4.113E+01   -4.108E+01
    -4.102E+01   -4.096E+01   -4.091E+01   -4.085E+01   -4.080E+01   -4.074E+01   -4.068E+01   -4.063E+01   -4.057E+01   -4.052E+01
    -4.046E+01   -4.040E+01   -4.035E+01   -4.029E+01   -4.024E+01   -4.018E+01   -4.012E+01   -4.007E+01   -4.001E+01   -3.996E+01
    -3.990E+01   -3.984E+01   -3.979E+01   -3.973E+01   -3.968E+01   -3.962E+01   -3.956E+01   -3.951E+01   -3.945E+01   -3.940E+01
    -3.934E+01   -3.928E+01   -3.923E+01   -3.917E+01   -3.912E+01   -3.906E+01   -3.900E+01   -3.895E+01   -3.889E+01   -3.884E+01
    -3.878E+01   -3.872E+01   -3.867E+01   -3.861E+01   -3.856E+01   -3.850E+01   -3.844E+01   -3.839E+01   -3.833E+01   -3.828E+01
    -3.822E+01   -3.816E+01   -3.811E+01   -3.805E+01   -3.800E+01   -3.794E+01   -3.788E+01   -3.783E+01   -3.777E+01   -3.772E+01
    -3.766E+01   -3.760E+01   -3.755E+01   -3.749E+01   -3.744E+01   -3.738E+01   -3.732E+01   -3.727E+01   -3.721E+01   -3.716E+01
    -3.710E+01   -3.704E+01   -3.699E+01   -3.693E+01   -3.688E+01   -3.682E+01   -3.676E+01   -3.671E+01   -3.665E+01   -3.660E+01
    -3.654E+01   -3.649E+01   -3.643E+01   -3.637E+01   -3.632E+01   -3.626E+01   -3.621E+01   -3.615E+01   -3.609E+01   -3.604E+01
    -3.598E+01   -3.593E+01   -3.587E+01   -3.581E+01   -3.576E+01   -3.570E+01   -3.565E+01   -3.559E+01   -3.553E+01   -3.548E+01
    -3.542E+01   -3.537E+01   -3.531E+01   -3.526E+01   -3.520E+01   -3.514E+01   -3.509E+01   -3.503E+01   -3.498E+01   -3.492E+01
    -3.486E+01   -3.481E+01   -3.475E+01   -3.470E+01   -3.464E+01   -3.458E+01   -3.453E+01   -3.447E+01   -3.442E+01   -3.436E+01
    -3.431E+01   -3.425E+01   -3.419E+01   -3.414E+01   -3.408E+01   -3.403E+01   -3.397E+01   -3.391E+01   -3.386E+01   -3.380E+01
    -3.375E+01   -3.369E+01   -3.364E+01   -3.358E+01   -3.352E+01   -3.347E+01   -3.341E+01   -3.336E+01   -3.330E+01   -3.324E+01
    -3.319E+01   -3.313E+01   -3.308E+01   -3.302E+01   -3.297E+01   -3.291E+01   -3.285E+01   -3.280E+01   -3.274E+01   -3.269E+01
    -3.263E+01   -3.257E+01   -3.252E+01   -3.246E+01   -3.241E+01   -3.235E+01   -3.230E+01   -3.224E+01   -3.218E+01   -3.213E+01
    -3.207E+01   -3.202E+01   -3.196E+01   -3.190E+01   -3.185E+01   -3.179E+01   -3.174E+01   -3.168E+01   -3.163E+01   -3.157E+01
    -3.151E+01   -3.146E+01   -3.140E+01   -3.135E+01   -3.129E+01   -3.124E+01   -3.118E+01   -3.112E+01   -3.107E+01   -3.101E+01
    -3.096E+01   -3.090E+01   -3.084E+01   -3.079E+01   -3.073E+01   -3.068E+01   -3.062E+01   -3.057E+01   -3.051E+01   -3.045E+01
    -3.040E+01   -3.034E+01   -3.029E+01   -3.023E+01   -3.018E+01   -3.012E+01   -3.006E+01   -3.001E+01   -2.995E+01   -2.990E+01
    -2.984E+01   -2.979E+01   -2.973E+01   -2.967E+01   -2.962E+01   -2.956E+01   -2.951E+01   -2.945E+01   -2.940E+01   -2.934E+01
    -2.928E+01   -2.923E+01   -2.917E+01   -2.912E+01   -2.906E+01   -2.901E+01   -2.895E+01   -2.889E+01   -2.884E+01   -2.878E+01
    -2.873E+01   -2.867E+01   -2.862E+01   -2.856E+01   -2.850E+01   -2.845E+01   -2.839E+01   -2.834E+01   -2.828E+01   -2.823E+01
    -2.817E+01   -2.811E+01   -2.806E+01   -2.800E+01   -2.795E+01   -2.789E+01   -2.784E+01   -2.778E+01   -2.772E+01   -2.767E+01
    -2.761E+01   -2.756E+01   -2.750E+01   -2.745E+01   -2.739E+01   -2.733E+01   -2.728E+01   -2.722E+01   -2.717E+01   -2.711E+01
    -2.706E+01   -2.700E+01   -2.694E+01   -2.689E+01   -2.683E+01   -2.678E+01   -2.672E+01   -2.667E+01   -2.661E+01   -2.655E+01
    -2.650E+01   -2.644E+01   -2.639E+01   -2.633E+01   -2.628E+01   -2.622E+01   -2.616E+01   -2.611E+01   -2.605E+01   -2.600E+01
    -2.594E+01   -2.589E+01   -2.583E+01   -2.577E+01   -2.572E+01   -2.566E+01   -2.561E+01   -2.555E+01   -2.550E+01   -2.544E+01
    -2.538E+01   -2.533E+01   -2.527E+01   -2.522E+01   -2.516E+01   -2.511E+01   -2.505E+01   -2.500E+01   -2.494E+01   -2.488E+01
    -2.483E+01   -2.477E+01   -2.472E+01   -2.466E+01   -2.461E+01   -2.455E+01   -2.449E+01   -2.444E+01   -2.438E+01   -2.433E+01
    -2.427E+01   -2.422E+01   -2.416E+01   -2.410E+01   -2.405E+01   -2.399E+01   -2.394E+01   -2.388E+01   -2.383E+01   -2.377E+01
    -2.371E+01   -2.366E+01   -2.360E+01   -2.355E+01   -2.349E+01   -2.344E+01   -2.338E+01   -2.332E+01   -2.327E+01   -2.321E+01
    -2.316E+01   -2.310E+01   -2.305E+01   -2.299E+01   -2.294E+01   -2.288E+01   -2.282E+01   -2.277E+01   -2.271E+01   -2.266E+01
    -2.260E+01   -2.255E+01   -2.249E+01   -2.243E+01   -2.238E+01   -2.232E+01   -2.227E+01   -2.221E+01   -2.216E+01   -2.210E+01
 Mac      Conc. = 3.47E-04
  -7.22197E+01 -7.28078E+01 -7.33740E+01 -7.39451E+01 -7.45461E+01 -7.52269E+01 -7.61725E+01 -7.75350E+01 -7.91945E+01 -8.09552E+01
  -8.25590E+01 -8.38403E+01 -8.47330E+01 -8.53749E+01 -8.59670E+01 -8.67132E+01 -8.75211E+01 -8.78409E+01 -8.69748E+01 -8.46712E+01
  -8.11226E+01 -7.66752E+01 -7.19838E+01 -6.78669E+01 -6.48671E+01 -6.26397E+01 -6.06063E+01 -5.88442E+01 -5.70993E+01 -5.50857E+01
  -5.29504E+01 -5.09778E+01 -4.93476E+01 -4.81033E+01 -4.73289E+01 -4.68919E+01 -4.64603E+01 -4.57242E+01 -4.45328E+01 -4.29237E+01
  -4.11706E+01 -3.96308E+01 -3.84729E+01 -3.76973E+01 -3.70578E+01 -3.63027E+01 -3.53931E+01 -3.46262E+01 -3.44188E+01 -3.48700E+01
  -3.58938E+01 -3.72338E+01 -3.85600E+01 -3.97418E+01 -4.06274E+01 -4.11656E+01 -4.12779E+01 -4.09322E+01 -4.01357E+01 -3.89462E+01
  -3.75490E+01 -3.60403E+01 -3.46706E+01 -3.37753E+01 -3.34626E+01 -3.36403E+01 -3.41927E+01 -3.50006E+01 -3.56874E+01 -3.59977E+01
  -3.57865E+01 -3.48223E+01 -3.31733E+01 -3.11372E+01 -2.89995E+01 -2.71501E+01 -2.59690E+01 -2.57044E+01 -2.61151E+01 -2.67738E+01
  -2.75087E+01 -2.81602E+01 -2.85724E+01 -2.87026E+01 -2.84111E+01 -2.78554E+01 -2.70845E+01 -2.61274E+01 -2.51045E+01 -2.41709E+01
  -2.33961E+01 -2.27441E+01 -2.22466E+01 -2.20408E+01 -2.21872E+01 -2.28259E+01 -2.41011E+01 -2.60202E+01 -2.84302E+01 -3.11517E+01
  -3.39399E+01 -3.66624E+01 -3.94353E+01 -4.25815E+01 -4.63411E+01 -5.10114E+01 -5.67024E+01 -6.30644E+01 -6.92388E+01 -7.43784E+01
