 LCModel (Version 6.3-1N) Copyright: S.W. Provencher.          Ref.: Magn. Reson. Med. 30:672-679 (1993).                
 Slice_N1@10_10  28-Feb-2025 11:37:04
 27 lines in following concentration table = NCONC+1
    Conc.  %SD /Cr+PCr  Metabolite                                         
 3.41E-04   3% 4.2E-04 Mac                                                 
    1.929  59%   2.399 Cr                                                  
    4.504  25%   5.601 PCr                                                 
    1.655  46%   2.058 Ins                                                 
   11.594   7%  14.417 NAA                                                 
    4.836  16%   6.013 Tau                                                 
    0.801  35%   0.996 PCho                                                
    0.000 999%   0.000 GPC                                                 
   11.406   9%  14.184 Glu                                                 
    2.941  26%   3.658 Gln                                                 
    0.610 103%   0.758 Ala                                                 
    0.486 230%   0.604 Asc                                                 
    2.906  31%   3.613 Asp                                                 
    0.207 235%   0.257 GABA                                                
    0.401 154%   0.499 Glc                                                 
    1.440  31%   1.791 GSH                                                 
    0.808  80%   1.005 Lac                                                 
    2.491  23%   3.097 NAAG                                                
    1.529  69%   1.901 PE                                                  
    0.801  35%   0.996 GPC+PCho                                            
   14.085   6%  17.514 NAA+NAAG                                            
   14.348   9%  17.841 Glu+Gln                                             
    6.434  10%   8.000 Cr+PCr                                              
   14.085   6%  17.514 NAA+NAAG                                            
    6.434  10%   8.000 Cr+PCr                                              
   14.348   9%  17.841 Glu+Gln                                             
   6 lines in following misc. output table
  FWHM = 0.024 ppm    S/N =   4                                            
  Data shift = 0.049 ppm                                                   
  Ph: 146 deg       0.0 deg/ppm                                            
  alphaB,S = 1.7E+00,   3.3E-01                                            
   19 spline knots.   Ns = 5(1)                                            
   2 inflections.     2 extrema                                            
  480 points on ppm-axis = NY
      4.100000     4.091866     4.083733     4.075600     4.067466     4.059333     4.051199     4.043066     4.034933     4.026799
      4.018666     4.010532     4.002399     3.994265     3.986132     3.977998     3.969864     3.961731     3.953597     3.945463
      3.937330     3.929196     3.921062     3.912929     3.904795     3.896662     3.888528     3.880394     3.872261     3.864127
      3.855993     3.847860     3.839726     3.831592     3.823459     3.815325     3.807191     3.799058     3.790924     3.782790
      3.774657     3.766523     3.758389     3.750256     3.742122     3.733989     3.725855     3.717721     3.709588     3.701454
      3.693320     3.685187     3.677053     3.668919     3.660786     3.652652     3.644518     3.636385     3.628251     3.620117
      3.611984     3.603850     3.595716     3.587583     3.579449     3.571316     3.563182     3.555048     3.546915     3.538781
      3.530647     3.522514     3.514380     3.506246     3.498113     3.489979     3.481845     3.473712     3.465578     3.457444
      3.449311     3.441177     3.433043     3.424910     3.416776     3.408643     3.400509     3.392375     3.384242     3.376108
      3.367974     3.359841     3.351707     3.343573     3.335440     3.327306     3.319172     3.311039     3.302905     3.294771
      3.286638     3.278504     3.270370     3.262237     3.254103     3.245970     3.237836     3.229702     3.221569     3.213435
      3.205301     3.197168     3.189034     3.180900     3.172767     3.164633     3.156499     3.148366     3.140232     3.132098
      3.123965     3.115831     3.107697     3.099564     3.091430     3.083297     3.075163     3.067029     3.058896     3.050762
      3.042628     3.034495     3.026361     3.018227     3.010094     3.001960     2.993826     2.985693     2.977559     2.969425
      2.961292     2.953158     2.945024     2.936891     2.928757     2.920624     2.912490     2.904356     2.896223     2.888089
      2.879955     2.871822     2.863688     2.855554     2.847421     2.839287     2.831153     2.823020     2.814886     2.806752
      2.798619     2.790485     2.782351     2.774218     2.766084     2.757951     2.749817     2.741683     2.733550     2.725416
      2.717282     2.709149     2.701015     2.692881     2.684748     2.676614     2.668480     2.660347     2.652213     2.644079
      2.635946     2.627812     2.619678     2.611545     2.603411     2.595278     2.587144     2.579010     2.570877     2.562743
      2.554609     2.546476     2.538342     2.530208     2.522075     2.513941     2.505807     2.497674     2.489540     2.481406
      2.473273     2.465139     2.457006     2.448872     2.440738     2.432605     2.424471     2.416337     2.408204     2.400070
      2.391936     2.383803     2.375669     2.367535     2.359402     2.351268     2.343134     2.335001     2.326867     2.318733
      2.310600     2.302466     2.294333     2.286199     2.278065     2.269932     2.261798     2.253664     2.245531     2.237397
      2.229263     2.221130     2.212996     2.204862     2.196729     2.188595     2.180461     2.172328     2.164194     2.156060
      2.147927     2.139793     2.131660     2.123526     2.115392     2.107259     2.099125     2.090991     2.082858     2.074724
      2.066590     2.058457     2.050323     2.042189     2.034056     2.025922     2.017788     2.009655     2.001521     1.993387
      1.985254     1.977120     1.968987     1.960853     1.952719     1.944586     1.936452     1.928318     1.920185     1.912051
      1.903917     1.895784     1.887650     1.879516     1.871383     1.863249     1.855115     1.846982     1.838848     1.830714
      1.822581     1.814447     1.806314     1.798180     1.790046     1.781913     1.773779     1.765645     1.757512     1.749378
      1.741244     1.733111     1.724977     1.716843     1.708710     1.700576     1.692442     1.684309     1.676175     1.668041
      1.659908     1.651774     1.643641     1.635507     1.627373     1.619240     1.611106     1.602972     1.594839     1.586705
      1.578571     1.570438     1.562304     1.554170     1.546037     1.537903     1.529769     1.521636     1.513502     1.505368
      1.497235     1.489101     1.480968     1.472834     1.464700     1.456567     1.448433     1.440299     1.432166     1.424032
      1.415898     1.407765     1.399631     1.391497     1.383364     1.375230     1.367096     1.358963     1.350829     1.342695
      1.334562     1.326428     1.318295     1.310161     1.302027     1.293894     1.285760     1.277626     1.269493     1.261359
      1.253225     1.245092     1.236958     1.228824     1.220691     1.212557     1.204423     1.196290     1.188156     1.180022
      1.171889     1.163755     1.155622     1.147488     1.139354     1.131221     1.123087     1.114953     1.106820     1.098686
      1.090552     1.082419     1.074285     1.066151     1.058018     1.049884     1.041750     1.033617     1.025483     1.017349
      1.009216     1.001082     0.992949     0.984815     0.976681     0.968548     0.960414     0.952280     0.944147     0.936013
      0.927879     0.919746     0.911612     0.903478     0.895345     0.887211     0.879077     0.870944     0.862810     0.854676
      0.846543     0.838409     0.830276     0.822142     0.814008     0.805875     0.797741     0.789607     0.781474     0.773340
      0.765206     0.757073     0.748939     0.740805     0.732672     0.724538     0.716404     0.708271     0.700137     0.692003
      0.683870     0.675736     0.667603     0.659469     0.651335     0.643202     0.635068     0.626934     0.618801     0.610667
      0.602533     0.594400     0.586266     0.578132     0.569999     0.561865     0.553731     0.545598     0.537464     0.529330
      0.521197     0.513063     0.504930     0.496796     0.488662     0.480529     0.472395     0.464261     0.456128     0.447994
      0.439861     0.431727     0.423593     0.415460     0.407326     0.399192     0.391059     0.382925     0.374792     0.366658
      0.358524     0.350391     0.342257     0.334124     0.325990     0.317856     0.309723     0.301589     0.293455     0.285322
      0.277188     0.269055     0.260921     0.252787     0.244654     0.236520     0.228386     0.220253     0.212119     0.203986
 NY phased data points follow
   3.52978E+01  2.12327E+01  2.63981E+01  3.39229E+01  1.15650E+01  5.91747E+00  2.55994E+01  4.11479E+01  3.37535E+01  2.51645E+01
   1.97503E+01  1.35557E+01  1.59084E+01 -1.42216E+01 -1.30638E+00  1.49999E+01 -5.43069E+00 -7.48519E+00 -3.71868E+01 -5.00036E+01
  -3.62141E+01 -3.82132E+01 -1.54266E+01  3.31014E+01  2.57205E+01  2.23894E+01  5.33447E+01  5.42727E+01  4.92071E+01  4.78191E+01
   6.45276E+01  4.47782E+01  3.91679E+01  5.11513E+01  3.44394E+01  5.31751E+01  5.03485E+01  4.81966E+01  2.49409E+01 -1.16114E+01
  -7.77420E+00 -1.73244E+01 -5.75885E+00  1.47761E+01  2.25502E+01  4.20105E+01  6.43152E+01  7.98599E+01  9.24736E+01  8.82629E+01
   1.07483E+02  1.13805E+02  7.67634E+01  8.31874E+01  8.86701E+01  9.02114E+01  6.40911E+01  4.66132E+01  7.13221E+01  6.39996E+01
   6.48265E+01  6.58071E+01  7.88598E+01  7.04530E+01  7.57943E+01  1.00366E+02  9.51175E+01  9.36509E+01  6.72172E+01  7.96968E+01
   6.85482E+01  5.94401E+01  7.90866E+01  5.58673E+01  8.36182E+01  1.06977E+02  8.54230E+01  7.79499E+01  1.05485E+02  1.00124E+02
   8.42554E+01  8.73495E+01  6.96687E+01  7.57009E+01  5.29932E+01  4.93909E+01  6.65319E+01  6.82911E+01  7.03974E+01  5.56127E+01
   9.07959E+01  1.06206E+02  8.79155E+01  8.99963E+01  1.00292E+02  8.98643E+01  8.45162E+01  1.18426E+02  1.18870E+02  1.03721E+02
   7.97128E+01  9.36053E+01  9.47183E+01  4.26901E+01  4.41316E+01  3.65665E+01  3.64151E+01  2.83971E+01 -1.01247E+01 -3.51508E+01
  -5.08125E+01 -4.53288E+01 -3.71651E+01 -3.10772E+01 -2.77141E+01 -3.48762E+00 -3.17171E+00 -6.88822E+00 -1.20772E+01 -6.70719E+00
   3.10934E+01  2.86644E+01  3.46541E+01  3.46265E+01  6.08561E+01  7.00931E+01  5.03506E+01  6.21307E+01  9.08431E+01  1.61709E+02
   1.59785E+02  1.29381E+02  7.31611E+01  1.20754E-01 -1.96183E+01 -3.29111E+01 -1.85227E+01 -2.41759E+01 -2.11165E+01 -2.91479E+01
  -3.69821E+01 -2.16418E+01 -4.37440E+01 -4.63008E+01 -4.15981E+01 -2.45511E+01 -2.75228E+01 -5.49110E+01 -2.45753E+01 -1.75773E+01
  -2.77063E+01 -1.59145E+01 -2.40285E+01 -1.49613E+01 -5.79483E+00  2.62582E+00  8.36101E+00  1.87000E+00  2.97225E+00  6.12742E+00
   1.18741E+01  8.75342E+00  6.58751E+00 -7.08561E+00 -2.13221E-01  1.07204E+01  8.06710E+00  4.01532E+00 -4.33622E+00  1.29874E+01
   1.44963E+01  2.31733E+01  3.54289E+01  3.63566E+01  3.69119E+01  4.59625E+01  4.91870E+01  4.94900E+01  5.01172E+01  2.08004E+01
   1.37322E+01 -6.29551E+00 -4.33315E+00 -1.85289E+01 -3.48489E+01 -6.68863E+00 -2.03328E+01 -1.65708E+01 -1.93164E+01 -2.49128E+01
  -2.64289E+01 -1.55007E+00  3.91989E+00 -6.57335E+00  2.27999E+01  3.15657E+00  6.95779E+00  2.78729E+01  2.69193E+01  7.01528E+00
   8.54797E+00  2.35262E+01  2.07523E+01  2.95966E+01  1.27368E+01  6.15962E+00 -4.63452E+00 -1.05215E+01 -4.72080E+00 -1.09251E+01
  -2.82100E+01 -2.75740E+01 -2.67085E+01 -2.35448E+01  2.17593E+01  2.89318E+01  5.57735E+01  8.37945E+01  8.34847E+01  7.34991E+01
   2.74946E+01  2.62413E+01  3.59253E+01  2.21243E+01  2.33327E+01  2.46940E+01  2.30038E+01  2.62940E+01  2.09825E+01  3.25864E+01
   2.17577E+01  4.48038E+00 -3.01099E+00 -1.79726E+01 -1.03937E+01 -3.90293E+01 -3.57320E+01 -3.77248E+01 -6.10810E+01 -5.28280E+01
  -6.46538E+01 -5.15177E+01 -5.56373E+01 -5.47926E+01 -2.89181E+01 -2.53615E+01 -3.17646E+01 -3.40241E+01 -3.40664E+01 -5.27153E+01
  -5.31022E+01 -4.25910E+01 -3.18555E+01 -3.15248E+01 -9.57338E+01 -1.38578E+02 -9.29660E+01 -1.09095E+01  1.04098E+02  1.75818E+02
   2.01763E+02  2.04621E+02  1.61180E+02  1.64978E+02  1.48720E+02  1.24530E+02  1.44395E+02  1.26730E+02  1.14049E+02  1.13549E+02
   9.95020E+01  9.86210E+01  1.13460E+02  9.82264E+01  9.45494E+01  1.10802E+02  9.45083E+01  9.63752E+01  9.91984E+01  9.74190E+01
   8.90279E+01  8.64315E+01  1.05680E+02  9.21728E+01  9.14535E+01  9.03100E+01  7.80579E+01  7.70357E+01  6.44473E+01  8.67057E+01
   1.00384E+02  7.79850E+01  7.36210E+01  6.97063E+01  6.49086E+01  5.94910E+01  2.90259E+01  3.43952E+01  5.57556E+01  3.34558E+01
   3.17893E+01  3.90527E+01  4.03816E+01  5.31876E+01  5.06229E+01  4.78542E+01  6.64286E+01  6.57639E+01  5.63980E+01  5.98467E+01
   5.05124E+01  7.07842E+01  7.70058E+01  6.29177E+01  5.96868E+01  7.06534E+01  9.82279E+01  9.87533E+01  1.08820E+02  1.08901E+02
   9.65358E+01  7.75604E+01  7.73487E+01  8.01299E+01  6.17265E+01  8.53041E+01  6.45751E+01  4.60591E+01  6.73669E+01  6.25124E+01
   5.48028E+01  4.78909E+01  2.26767E+01 -1.48833E+01 -3.33886E+01 -3.96314E+01 -1.41671E+01 -2.69537E+01 -3.67262E+01 -7.66094E+00
  -1.95201E+01 -9.39181E+00 -1.39620E+01 -1.64917E+01 -1.69080E+01 -3.37433E+01 -7.09057E+00  6.55406E+00  1.16613E+01  2.61794E+01
   3.29916E+01  3.08477E+01  2.08022E+01  2.37224E+01  3.57848E+01  1.33557E+01  9.43843E+00  2.89914E+01  1.07619E+01  1.85951E+01
  -3.64368E+00 -6.29475E-01  2.77102E+01  5.95579E+00  4.14986E+01  3.97138E+01  4.37681E+01  5.66634E+01  2.07146E+01  3.51934E+01
   4.01894E+01  6.10499E+01  7.99524E+01  6.51098E+01  6.23172E+01  6.08370E+01  6.39666E+01  6.47194E+01  7.42267E+01  9.66780E+01
   9.78888E+01  9.78823E+01  1.20228E+02  1.08108E+02  1.02794E+02  1.18283E+02  1.27211E+02  1.39134E+02  1.45674E+02  1.49220E+02
   1.43006E+02  1.38659E+02  1.24630E+02  1.23493E+02  9.47125E+01  7.67806E+01  8.62566E+01  8.00791E+01  8.02363E+01  4.46868E+01
   5.16591E+01  5.68635E+01  3.54868E+01  2.67087E+01  1.64137E+01  1.43612E+01 -1.25865E+00 -2.97826E+00 -9.79020E+00  4.40339E+00
   5.67150E+00  1.21026E+01  1.00011E+01 -1.95072E+01 -4.82486E+00  4.73849E+00  2.02790E+01  2.33418E-01 -1.29397E+01  9.95183E+00
  -3.30962E+00 -8.81781E+00  1.37191E+00 -4.08179E+00 -7.23945E+00 -6.31663E+00 -5.30479E+00  6.37630E+00 -1.50481E+01 -4.91686E+00
   2.82676E+00 -1.33074E+01  4.55478E+00 -4.28307E+00 -5.85231E+00 -3.84082E+00 -9.50084E+00 -2.58294E+01 -2.37811E+01 -5.33674E+00
  -1.12587E+01 -4.97550E-01 -1.22126E+00 -6.07189E+00 -2.28744E+01 -2.32167E+01  5.22132E+00 -4.08668E+00  1.72310E-01  5.39883E+00
   1.45647E-01 -1.16497E+00 -2.42017E+01 -1.11434E+01  8.13551E+00 -5.87778E+00 -7.91669E+00  6.07947E+00  8.53516E+00  1.03034E+01
   1.16942E+01 -7.75265E+00 -4.46917E+00  1.97467E+00  1.28758E+01  1.99164E+01  5.35519E-01 -4.35602E+00 -1.40997E+00  5.01535E+00
   1.46465E+01  1.16673E+01 -1.25038E+01 -1.83404E+00 -5.02090E+00 -1.05251E+01  1.08784E+00 -3.29378E+00  2.28565E+00 -1.02243E+01
 NY points of the fit to the data follow
   3.61729E+01  3.42262E+01  3.05162E+01  2.65675E+01  2.48862E+01  2.60996E+01  2.77534E+01  2.81141E+01  2.57865E+01  2.11766E+01
   1.56902E+01  1.05114E+01  6.15867E+00  4.01315E+00  3.52067E+00  2.50222E+00  4.16806E+00 -1.71453E+00 -2.25330E+01 -3.61373E+01
  -3.29228E+01 -2.41958E+01  2.60974E+00  2.55874E+01  4.02765E+01  5.02252E+01  5.38593E+01  5.70351E+01  6.07088E+01  6.37413E+01
   6.55367E+01  6.60401E+01  6.58113E+01  6.48851E+01  6.29818E+01  6.03288E+01  5.94879E+01  5.35977E+01  3.53493E+01  1.21503E+01
  -5.32732E+00 -1.62115E+01 -1.02347E+01  5.08253E+00  2.92633E+01  5.02495E+01  6.78449E+01  7.72005E+01  8.10930E+01  8.17870E+01
   8.07205E+01  7.93448E+01  7.70682E+01  7.38631E+01  6.84994E+01  6.35758E+01  6.16552E+01  5.90508E+01  5.86051E+01  6.09413E+01
   6.16728E+01  6.39406E+01  6.76187E+01  7.06110E+01  7.38908E+01  7.67835E+01  7.94950E+01  7.77165E+01  7.11572E+01  6.50997E+01
   6.13914E+01  6.01338E+01  6.31735E+01  6.79441E+01  7.33276E+01  7.85994E+01  8.27986E+01  8.71593E+01  8.94065E+01  9.04905E+01
   8.71730E+01  7.50569E+01  5.89177E+01  4.50646E+01  3.19687E+01  3.42937E+01  3.88632E+01  4.91034E+01  5.82369E+01  6.46815E+01
   6.98024E+01  7.33435E+01  7.65510E+01  7.96417E+01  8.21933E+01  8.41395E+01  8.61135E+01  8.56999E+01  8.51100E+01  8.91783E+01
   9.26751E+01  9.33868E+01  9.02433E+01  7.70138E+01  5.84607E+01  4.90301E+01  4.48871E+01  3.76141E+01  8.92628E+00 -1.90259E+01
  -4.30195E+01 -4.98946E+01 -4.15178E+01 -2.90946E+01 -1.70042E+01 -7.26619E+00  3.06263E-01  7.19621E+00  1.32017E+01  1.88575E+01
   2.41353E+01  2.93392E+01  3.46029E+01  4.04697E+01  4.72953E+01  5.56951E+01  6.67176E+01  7.38586E+01  1.01928E+02  1.54438E+02
   1.69166E+02  1.29288E+02  7.67229E+01  9.11732E+00 -2.39465E+01 -3.35467E+01 -3.28796E+01 -2.83267E+01 -2.53557E+01 -2.47756E+01
  -2.64639E+01 -2.79090E+01 -2.95261E+01 -3.18808E+01 -3.29912E+01 -3.39470E+01 -3.34009E+01 -3.17018E+01 -2.93073E+01 -2.62941E+01
  -2.28834E+01 -2.03366E+01 -1.82301E+01 -1.50018E+01 -1.09727E+01 -7.81152E+00 -6.50989E+00 -6.93962E+00 -6.38282E+00 -2.64131E+00
   2.23655E+00  3.78349E+00  2.20952E+00 -8.53612E-01 -2.32955E+00 -3.45601E-01  1.62022E+00  3.50845E-02 -5.09299E+00 -3.76602E+00
   1.09902E+01  2.82809E+01  3.44962E+01  2.94745E+01  2.37348E+01  2.88984E+01  3.98888E+01  4.37436E+01  3.73678E+01  2.46137E+01
   1.05287E+01  1.70522E+00 -4.93156E+00 -9.32576E+00 -1.27155E+01 -1.49653E+01 -1.63469E+01 -1.71695E+01 -1.59180E+01 -1.19949E+01
  -1.25650E+01 -1.28001E+01 -3.99223E+00  4.53039E+00  8.12494E+00  1.25632E+01  1.40345E+01  1.86510E+01  2.19185E+01  1.77553E+01
   1.90516E+01  2.09120E+01  2.34439E+01  2.47616E+01  2.04091E+01  1.51718E+01  7.90633E+00 -2.13861E-01 -9.25965E+00 -2.23148E+01
  -3.01048E+01 -3.52384E+01 -3.98954E+01 -2.53119E+01  2.11204E+00  2.59127E+01  6.07723E+01  7.60980E+01  7.74148E+01  7.09890E+01
   5.58465E+01  4.48953E+01  3.89169E+01  3.67478E+01  3.76738E+01  3.89548E+01  3.89599E+01  3.66654E+01  3.17118E+01  2.27244E+01
   1.09910E+01 -4.37912E-01 -1.41473E+01 -2.71131E+01 -3.68091E+01 -4.79326E+01 -5.48420E+01 -5.69806E+01 -5.97789E+01 -5.83488E+01
  -5.56187E+01 -5.22304E+01 -4.46245E+01 -3.52932E+01 -2.74443E+01 -1.91112E+01 -1.82406E+01 -1.87439E+01 -1.91850E+01 -2.81981E+01
  -4.60812E+01 -5.99419E+01 -3.48995E+01 -3.69569E+01 -1.05548E+02 -1.41751E+02 -9.73008E+01 -2.34610E+01  9.07685E+01  1.53626E+02
   1.72199E+02  1.68992E+02  1.56492E+02  1.45327E+02  1.36889E+02  1.30014E+02  1.24360E+02  1.19025E+02  1.14028E+02  1.09826E+02
   1.06954E+02  1.05321E+02  1.04454E+02  1.04703E+02  1.04910E+02  1.04603E+02  1.04010E+02  1.02891E+02  1.02058E+02  1.00921E+02
   9.93679E+01  9.71487E+01  9.49386E+01  9.26928E+01  9.02806E+01  8.79160E+01  8.53876E+01  8.28638E+01  8.05678E+01  7.73592E+01
   7.38427E+01  6.99818E+01  6.52442E+01  6.00521E+01  5.46249E+01  4.99072E+01  4.70210E+01  4.64055E+01  4.73234E+01  4.91870E+01
   5.16239E+01  5.45272E+01  5.75653E+01  6.09586E+01  6.42146E+01  6.70902E+01  6.94278E+01  7.19175E+01  7.47887E+01  7.79130E+01
   8.11224E+01  8.37433E+01  8.59696E+01  8.83638E+01  9.03601E+01  9.21269E+01  9.38926E+01  9.48125E+01  9.46762E+01  9.50174E+01
   9.39202E+01  9.06440E+01  8.57761E+01  7.85087E+01  7.06218E+01  6.59691E+01  6.03587E+01  5.47080E+01  4.66288E+01  3.65559E+01
   2.56534E+01  1.49387E+01  5.39650E+00 -2.01972E+00 -6.05375E+00 -6.10515E+00 -2.98828E+00  2.57341E+00  1.01017E+01  1.54107E+01
   1.80915E+01  1.90543E+01  1.71690E+01  1.57556E+01  1.82688E+01  2.15437E+01  2.67249E+01  3.08589E+01  3.40645E+01  3.60617E+01
   3.69889E+01  3.70722E+01  3.53506E+01  3.16763E+01  2.63513E+01  2.03871E+01  1.50097E+01  1.09996E+01  8.95797E+00  8.51090E+00
   9.60206E+00  1.20949E+01  1.55568E+01  1.97194E+01  2.40074E+01  2.83823E+01  3.23019E+01  3.60375E+01  3.97065E+01  4.33442E+01
   4.67937E+01  5.03259E+01  5.38832E+01  5.71623E+01  6.09060E+01  6.52432E+01  6.95318E+01  7.46270E+01  8.07768E+01  8.75118E+01
   9.44188E+01  1.02175E+02  1.10661E+02  1.20228E+02  1.30533E+02  1.41125E+02  1.50598E+02  1.57135E+02  1.58012E+02  1.52503E+02
   1.41857E+02  1.28924E+02  1.15400E+02  1.03660E+02  9.45749E+01  8.68474E+01  7.92628E+01  7.07965E+01  6.10420E+01  4.93122E+01
   3.76932E+01  2.69858E+01  1.77278E+01  1.03075E+01  4.50101E+00  2.26195E-01 -2.59840E+00 -4.58185E+00 -5.95259E+00 -7.48850E+00
  -8.87821E+00 -9.88182E+00 -1.04710E+01 -1.09486E+01 -1.14034E+01 -1.12525E+01 -1.09054E+01 -1.08897E+01 -1.13703E+01 -1.13175E+01
  -1.11024E+01 -1.08765E+01 -1.05486E+01 -1.05573E+01 -1.02885E+01 -1.00842E+01 -1.01205E+01 -1.02855E+01 -1.00394E+01 -9.52636E+00
  -8.99714E+00 -8.44333E+00 -8.41171E+00 -8.64333E+00 -8.79578E+00 -8.67835E+00 -8.58558E+00 -8.14559E+00 -7.68831E+00 -7.42023E+00
  -7.02158E+00 -6.67829E+00 -6.13379E+00 -5.83613E+00 -5.92906E+00 -6.25842E+00 -6.24663E+00 -6.27448E+00 -5.95390E+00 -5.29671E+00
  -5.07681E+00 -5.16026E+00 -5.07472E+00 -5.05116E+00 -4.76494E+00 -4.27184E+00 -3.84770E+00 -3.68318E+00 -3.30472E+00 -3.03919E+00
  -2.60961E+00 -2.45098E+00 -2.28487E+00 -2.46985E+00 -2.52191E+00 -2.80589E+00 -2.76055E+00 -2.18677E+00 -1.31361E+00 -3.80568E-01
   4.65498E-02 -1.31975E-01 -5.40996E-01 -5.92764E-01 -5.55172E-01 -5.03822E-01 -1.39811E-02  2.63091E-01  1.71769E-01  2.27873E-01
 NY background values follow
     5.611E+01    5.599E+01    5.587E+01    5.576E+01    5.564E+01    5.552E+01    5.540E+01    5.528E+01    5.516E+01    5.504E+01
     5.492E+01    5.481E+01    5.469E+01    5.457E+01    5.445E+01    5.433E+01    5.421E+01    5.409E+01    5.397E+01    5.385E+01
     5.374E+01    5.362E+01    5.350E+01    5.338E+01    5.326E+01    5.314E+01    5.302E+01    5.290E+01    5.278E+01    5.266E+01
     5.255E+01    5.243E+01    5.231E+01    5.219E+01    5.207E+01    5.195E+01    5.183E+01    5.171E+01    5.159E+01    5.147E+01
     5.135E+01    5.123E+01    5.111E+01    5.099E+01    5.087E+01    5.075E+01    5.063E+01    5.051E+01    5.039E+01    5.027E+01
     5.015E+01    5.003E+01    4.991E+01    4.979E+01    4.966E+01    4.954E+01    4.942E+01    4.930E+01    4.918E+01    4.905E+01
     4.893E+01    4.881E+01    4.869E+01    4.856E+01    4.844E+01    4.832E+01    4.819E+01    4.807E+01    4.794E+01    4.782E+01
     4.770E+01    4.757E+01    4.745E+01    4.732E+01    4.720E+01    4.707E+01    4.694E+01    4.682E+01    4.669E+01    4.656E+01
     4.644E+01    4.631E+01    4.618E+01    4.606E+01    4.593E+01    4.580E+01    4.567E+01    4.554E+01    4.542E+01    4.529E+01
     4.516E+01    4.503E+01    4.490E+01    4.477E+01    4.464E+01    4.451E+01    4.438E+01    4.425E+01    4.412E+01    4.399E+01
     4.386E+01    4.372E+01    4.359E+01    4.346E+01    4.333E+01    4.320E+01    4.307E+01    4.293E+01    4.280E+01    4.267E+01
     4.254E+01    4.240E+01    4.227E+01    4.214E+01    4.200E+01    4.187E+01    4.174E+01    4.160E+01    4.147E+01    4.134E+01
     4.120E+01    4.107E+01    4.093E+01    4.080E+01    4.067E+01    4.053E+01    4.040E+01    4.026E+01    4.013E+01    3.999E+01
     3.986E+01    3.973E+01    3.959E+01    3.946E+01    3.932E+01    3.919E+01    3.905E+01    3.892E+01    3.878E+01    3.865E+01
     3.851E+01    3.838E+01    3.824E+01    3.811E+01    3.797E+01    3.784E+01    3.770E+01    3.756E+01    3.743E+01    3.729E+01
     3.716E+01    3.702E+01    3.689E+01    3.675E+01    3.661E+01    3.648E+01    3.634E+01    3.621E+01    3.607E+01    3.593E+01
     3.580E+01    3.566E+01    3.553E+01    3.539E+01    3.525E+01    3.512E+01    3.498E+01    3.485E+01    3.471E+01    3.457E+01
     3.444E+01    3.430E+01    3.417E+01    3.403E+01    3.389E+01    3.376E+01    3.362E+01    3.349E+01    3.335E+01    3.322E+01
     3.308E+01    3.294E+01    3.281E+01    3.267E+01    3.254E+01    3.240E+01    3.227E+01    3.213E+01    3.200E+01    3.186E+01
     3.173E+01    3.159E+01    3.146E+01    3.132E+01    3.119E+01    3.105E+01    3.092E+01    3.078E+01    3.065E+01    3.051E+01
     3.038E+01    3.025E+01    3.011E+01    2.998E+01    2.984E+01    2.971E+01    2.958E+01    2.945E+01    2.931E+01    2.918E+01
     2.905E+01    2.891E+01    2.878E+01    2.865E+01    2.852E+01    2.839E+01    2.825E+01    2.812E+01    2.799E+01    2.786E+01
     2.773E+01    2.760E+01    2.747E+01    2.734E+01    2.721E+01    2.708E+01    2.695E+01    2.682E+01    2.669E+01    2.656E+01
     2.643E+01    2.630E+01    2.618E+01    2.605E+01    2.592E+01    2.579E+01    2.566E+01    2.554E+01    2.541E+01    2.528E+01
     2.516E+01    2.503E+01    2.490E+01    2.478E+01    2.465E+01    2.453E+01    2.440E+01    2.428E+01    2.415E+01    2.403E+01
     2.391E+01    2.378E+01    2.366E+01    2.354E+01    2.341E+01    2.329E+01    2.317E+01    2.305E+01    2.293E+01    2.281E+01
     2.268E+01    2.256E+01    2.244E+01    2.232E+01    2.220E+01    2.209E+01    2.197E+01    2.185E+01    2.173E+01    2.161E+01
     2.149E+01    2.138E+01    2.126E+01    2.114E+01    2.103E+01    2.091E+01    2.080E+01    2.068E+01    2.057E+01    2.045E+01
     2.034E+01    2.023E+01    2.012E+01    2.000E+01    1.989E+01    1.978E+01    1.967E+01    1.956E+01    1.945E+01    1.934E+01
     1.923E+01    1.912E+01    1.901E+01    1.890E+01    1.880E+01    1.869E+01    1.858E+01    1.848E+01    1.837E+01    1.827E+01
     1.816E+01    1.806E+01    1.796E+01    1.785E+01    1.775E+01    1.765E+01    1.755E+01    1.745E+01    1.735E+01    1.725E+01
     1.715E+01    1.705E+01    1.696E+01    1.686E+01    1.676E+01    1.667E+01    1.657E+01    1.648E+01    1.638E+01    1.629E+01
     1.619E+01    1.610E+01    1.601E+01    1.592E+01    1.583E+01    1.574E+01    1.565E+01    1.556E+01    1.547E+01    1.538E+01
     1.530E+01    1.521E+01    1.512E+01    1.504E+01    1.495E+01    1.487E+01    1.479E+01    1.470E+01    1.462E+01    1.454E+01
     1.446E+01    1.438E+01    1.430E+01    1.422E+01    1.414E+01    1.406E+01    1.398E+01    1.391E+01    1.383E+01    1.375E+01
     1.368E+01    1.360E+01    1.353E+01    1.345E+01    1.338E+01    1.331E+01    1.323E+01    1.316E+01    1.309E+01    1.302E+01
     1.295E+01    1.288E+01    1.281E+01    1.274E+01    1.267E+01    1.260E+01    1.253E+01    1.247E+01    1.240E+01    1.233E+01
     1.227E+01    1.220E+01    1.214E+01    1.207E+01    1.201E+01    1.194E+01    1.188E+01    1.182E+01    1.175E+01    1.169E+01
     1.163E+01    1.157E+01    1.150E+01    1.144E+01    1.138E+01    1.132E+01    1.126E+01    1.120E+01    1.114E+01    1.108E+01
     1.102E+01    1.096E+01    1.090E+01    1.084E+01    1.078E+01    1.073E+01    1.067E+01    1.061E+01    1.055E+01    1.049E+01
     1.044E+01    1.038E+01    1.032E+01    1.027E+01    1.021E+01    1.015E+01    1.010E+01    1.004E+01    9.983E+00    9.927E+00
     9.871E+00    9.815E+00    9.759E+00    9.704E+00    9.648E+00    9.592E+00    9.537E+00    9.482E+00    9.426E+00    9.371E+00
     9.316E+00    9.261E+00    9.206E+00    9.150E+00    9.095E+00    9.041E+00    8.986E+00    8.931E+00    8.876E+00    8.821E+00
     8.766E+00    8.712E+00    8.657E+00    8.602E+00    8.548E+00    8.493E+00    8.439E+00    8.384E+00    8.330E+00    8.275E+00
     8.221E+00    8.167E+00    8.112E+00    8.058E+00    8.004E+00    7.949E+00    7.895E+00    7.841E+00    7.787E+00    7.732E+00
     7.678E+00    7.624E+00    7.570E+00    7.515E+00    7.461E+00    7.407E+00    7.353E+00    7.299E+00    7.245E+00    7.191E+00
     7.136E+00    7.082E+00    7.028E+00    6.974E+00    6.920E+00    6.866E+00    6.812E+00    6.758E+00    6.704E+00    6.650E+00
     6.595E+00    6.541E+00    6.487E+00    6.433E+00    6.379E+00    6.325E+00    6.271E+00    6.217E+00    6.163E+00    6.108E+00
 Mac      Conc. = 3.41E-04
   3.30843E+01  3.20021E+01  3.12597E+01  3.09900E+01  3.09044E+01  3.05421E+01  2.95188E+01  2.76544E+01  2.51744E+01  2.27388E+01
   2.07347E+01  1.94039E+01  1.89291E+01  1.94099E+01  1.93294E+01  1.71047E+01  1.29437E+01  1.08561E+01  1.18709E+01  1.45991E+01
   1.96438E+01  2.51032E+01  3.00103E+01  3.39769E+01  3.64997E+01  3.78563E+01  3.88462E+01  4.02896E+01  4.24622E+01  4.47208E+01
   4.69641E+01  4.89711E+01  5.08455E+01  5.22939E+01  5.25581E+01  5.16069E+01  5.03324E+01  5.05972E+01  5.29679E+01  5.60007E+01
   5.81118E+01  5.87045E+01  5.82511E+01  5.82170E+01  5.93646E+01  6.09912E+01  6.25604E+01  6.34146E+01  6.33966E+01  6.24899E+01
   6.08102E+01  5.90066E+01  5.71749E+01  5.59095E+01  5.47970E+01  5.34110E+01  5.26342E+01  5.29176E+01  5.35523E+01  5.44941E+01
   5.64024E+01  5.82584E+01  6.00627E+01  6.13161E+01  6.10766E+01  6.00002E+01  5.90685E+01  5.81087E+01  5.67860E+01  5.48697E+01
   5.43058E+01  5.52692E+01  5.77487E+01  6.08380E+01  6.34125E+01  6.51406E+01  6.59479E+01  6.56279E+01  6.48441E+01  6.38868E+01
   6.29775E+01  6.18275E+01  6.08527E+01  6.04208E+01  6.03231E+01  6.07224E+01  6.16680E+01  6.24753E+01  6.34842E+01  6.40869E+01
   6.48354E+01  6.51854E+01  6.57244E+01  6.63654E+01  6.66587E+01  6.60424E+01  6.48633E+01  6.22062E+01  5.88650E+01  5.57570E+01
   5.32577E+01  5.09191E+01  4.87864E+01  4.65864E+01  4.39050E+01  3.96525E+01  3.24920E+01  2.33990E+01  1.46403E+01  7.81370E+00
