 
 $NMID
 ID=''
 FMTDAT='(2E13.5)'
 TRAMP=   1.00000E+0
 VOLUME=   1.00000E+0
 $END
  -3.06745E+5   6.72037E+5
  -1.36820E+6   1.38497E+6
  -1.18426E+6   1.44524E+6
  -1.22908E+6   1.28054E+6
  -1.30763E+6   1.34799E+6
  -1.19587E+6   1.36929E+6
  -1.20052E+6   1.28670E+6
  -1.26300E+6   1.31474E+6
  -1.21072E+6   1.30712E+6
  -1.22933E+6   1.22916E+6
  -1.27260E+6   1.23476E+6
  -1.23816E+6   1.22045E+6
  -1.25300E+6   1.16123E+6
  -1.29098E+6   1.15545E+6
  -1.27114E+6   1.12888E+6
  -1.28104E+6   1.07636E+6
  -1.30714E+6   1.07407E+6
  -1.29303E+6   1.05881E+6
  -1.29443E+6   1.02229E+6
  -1.29974E+6   1.02418E+6
  -1.28538E+6   1.00906E+6
  -1.29029E+6   9.76063E+5
  -1.29777E+6   9.66926E+5
  -1.28802E+6   9.48325E+5
  -1.29328E+6   9.15804E+5
  -1.29394E+6   9.04266E+5
  -1.29139E+6   8.80030E+5
  -1.30196E+6   8.45302E+5
  -1.30593E+6   8.21160E+5
  -1.29809E+6   7.99600E+5
  -1.30302E+6   7.76767E+5
  -1.30153E+6   7.63207E+5
  -1.29348E+6   7.42948E+5
  -1.29246E+6   7.24322E+5
  -1.28402E+6   7.15320E+5
  -1.27319E+6   7.05705E+5
  -1.27301E+6   6.94130E+5
  -1.26840E+6   6.81104E+5
  -1.25844E+6   6.62178E+5
  -1.25673E+6   6.45319E+5
  -1.25217E+6   6.27764E+5
  -1.24494E+6   6.05619E+5
  -1.24070E+6   5.87312E+5
  -1.23714E+6   5.69916E+5
  -1.23166E+6   5.46347E+5
  -1.22871E+6   5.25756E+5
  -1.22417E+6   5.09383E+5
  -1.21783E+6   4.88569E+5
  -1.20934E+6   4.70727E+5
  -1.20034E+6   4.57345E+5
  -1.19336E+6   4.42850E+5
  -1.18787E+6   4.27840E+5
  -1.17987E+6   4.13884E+5
  -1.17261E+6   3.98502E+5
  -1.16653E+6   3.82129E+5
  -1.15921E+6   3.65459E+5
  -1.15149E+6   3.45747E+5
  -1.14365E+6   3.28306E+5
  -1.13495E+6   3.12559E+5
  -1.12813E+6   2.95870E+5
  -1.12211E+6   2.78467E+5
  -1.11383E+6   2.62265E+5
  -1.10691E+6   2.45851E+5
  -1.09967E+6   2.29575E+5
  -1.08933E+6   2.14492E+5
  -1.07926E+6   2.00342E+5
  -1.07090E+6   1.87174E+5
  -1.06251E+6   1.73822E+5
  -1.05501E+6   1.59455E+5
  -1.04850E+6   1.44575E+5
  -1.03954E+6   1.29525E+5
  -1.03001E+6   1.14994E+5
  -1.02266E+6   1.01705E+5
  -1.01539E+6   8.77867E+4
  -1.00645E+6   7.29097E+4
  -9.97345E+5   6.03029E+4
  -9.88800E+5   4.83218E+4
  -9.80561E+5   3.52672E+4
  -9.71862E+5   2.29523E+4
  -9.62512E+5   1.15777E+4
  -9.53333E+5  -2.03407E+2
  -9.44444E+5  -1.12730E+4
  -9.35679E+5  -2.24916E+4
  -9.26382E+5  -3.50979E+4
  -9.16987E+5  -4.77551E+4
  -9.07307E+5  -5.86152E+4
  -8.98033E+5  -7.04238E+4
  -8.89087E+5  -8.18095E+4
  -8.78896E+5  -9.31526E+4
  -8.68862E+5  -1.03017E+5
  -8.59460E+5  -1.11982E+5
  -8.50275E+5  -1.20647E+5
  -8.40839E+5  -1.30067E+5
  -8.30728E+5  -1.37880E+5
  -8.20713E+5  -1.44419E+5
  -8.11032E+5  -1.51339E+5
  -8.02808E+5  -1.57959E+5
  -7.93830E+5  -1.64679E+5
  -7.83881E+5  -1.71565E+5
  -7.74589E+5  -1.78310E+5
  -7.66015E+5  -1.84613E+5
  -7.56507E+5  -1.92671E+5
  -7.45702E+5  -2.00006E+5
  -7.34911E+5  -2.05845E+5
  -7.25393E+5  -2.10940E+5
  -7.16815E+5  -2.16474E+5
  -7.07681E+5  -2.22432E+5
  -6.97551E+5  -2.28236E+5
  -6.87183E+5  -2.32765E+5
  -6.77871E+5  -2.36502E+5
  -6.69759E+5  -2.40388E+5
  -6.61025E+5  -2.45713E+5
  -6.51850E+5  -2.50736E+5
  -6.42346E+5  -2.55466E+5
  -6.32516E+5  -2.59955E+5
  -6.23371E+5  -2.64634E+5
  -6.14097E+5  -2.69258E+5
  -6.03809E+5  -2.73189E+5
  -5.94008E+5  -2.75906E+5
  -5.85742E+5  -2.78433E+5
  -5.77830E+5  -2.82083E+5
  -5.69059E+5  -2.85610E+5
  -5.60494E+5  -2.88686E+5
  -5.51656E+5  -2.92044E+5
  -5.43054E+5  -2.95214E+5
  -5.33718E+5  -2.97764E+5
  -5.25201E+5  -2.99912E+5
  -5.16715E+5  -3.02768E+5
  -5.08185E+5  -3.05995E+5
  -4.99923E+5  -3.08634E+5
  -4.90861E+5  -3.12306E+5
  -4.81329E+5  -3.15406E+5
  -4.72448E+5  -3.17342E+5
  -4.64272E+5  -3.19321E+5
  -4.55826E+5  -3.22106E+5
  -4.47472E+5  -3.23872E+5
  -4.39164E+5  -3.25381E+5
  -4.32060E+5  -3.27121E+5
  -4.24140E+5  -3.29050E+5
  -4.15905E+5  -3.30873E+5
  -4.07705E+5  -3.32096E+5
  -3.99934E+5  -3.32724E+5
  -3.92681E+5  -3.33488E+5
  -3.85511E+5  -3.34886E+5
  -3.77837E+5  -3.36573E+5
  -3.69596E+5  -3.37398E+5
  -3.61576E+5  -3.37718E+5
  -3.54272E+5  -3.38252E+5
  -3.46639E+5  -3.38765E+5
  -3.39588E+5  -3.39266E+5
  -3.32607E+5  -3.39278E+5
  -3.25513E+5  -3.39100E+5
  -3.19096E+5  -3.39170E+5
  -3.12965E+5  -3.39222E+5
  -3.05646E+5  -3.39241E+5
  -2.99486E+5  -3.38614E+5
  -2.93413E+5  -3.37629E+5
  -2.86993E+5  -3.37430E+5
  -2.81082E+5  -3.36511E+5
  -2.74955E+5  -3.35938E+5
  -2.68924E+5  -3.34962E+5
  -2.62944E+5  -3.34109E+5
  -2.56839E+5  -3.32984E+5
  -2.50893E+5  -3.31679E+5
  -2.45364E+5  -3.30493E+5
  -2.39974E+5  -3.28909E+5
  -2.34611E+5  -3.28165E+5
  -2.29404E+5  -3.26956E+5
  -2.23747E+5  -3.25767E+5
  -2.18447E+5  -3.24064E+5
  -2.13465E+5  -3.22734E+5
  -2.08684E+5  -3.21229E+5
  -2.03507E+5  -3.19682E+5
  -1.98497E+5  -3.18081E+5
  -1.93496E+5  -3.16501E+5
  -1.88600E+5  -3.15190E+5
  -1.83757E+5  -3.13859E+5
  -1.78789E+5  -3.12279E+5
  -1.73832E+5  -3.10426E+5
  -1.69261E+5  -3.08572E+5
  -1.65107E+5  -3.07391E+5
  -1.59965E+5  -3.06109E+5
  -1.55245E+5  -3.04488E+5
  -1.50524E+5  -3.02754E+5
  -1.46330E+5  -3.01026E+5
  -1.42025E+5  -2.99089E+5
  -1.37870E+5  -2.97124E+5
  -1.33895E+5  -2.95267E+5
  -1.29855E+5  -2.93037E+5
  -1.26136E+5  -2.91760E+5
  -1.21796E+5  -2.90485E+5
  -1.17262E+5  -2.89107E+5
  -1.12841E+5  -2.86820E+5
  -1.08640E+5  -2.84942E+5
  -1.04889E+5  -2.83135E+5
  -1.00890E+5  -2.81471E+5
  -9.70381E+4  -2.79759E+5
  -9.31478E+4  -2.77965E+5
  -8.89847E+4  -2.76255E+5
  -8.51825E+4  -2.74621E+5
  -8.09425E+4  -2.72930E+5
  -7.74453E+4  -2.70859E+5
  -7.42000E+4  -2.68680E+5
  -7.07300E+4  -2.67070E+5
  -6.73197E+4  -2.65602E+5
  -6.35066E+4  -2.63554E+5
  -5.97137E+4  -2.61464E+5
  -5.66423E+4  -2.59735E+5
  -5.35139E+4  -2.57608E+5
  -5.02294E+4  -2.55843E+5
  -4.67263E+4  -2.53647E+5
  -4.39293E+4  -2.51596E+5
  -4.11054E+4  -2.49685E+5
  -3.79732E+4  -2.48154E+5
  -3.45668E+4  -2.46014E+5
  -3.16432E+4  -2.43534E+5
  -2.91524E+4  -2.41072E+5
  -2.68106E+4  -2.38984E+5
  -2.44512E+4  -2.37089E+5
  -2.17146E+4  -2.35185E+5
  -1.99338E+4  -2.32768E+5
  -1.76030E+4  -2.30592E+5
  -1.50134E+4  -2.28697E+5
  -1.25288E+4  -2.26580E+5
  -1.04174E+4  -2.23936E+5
  -8.74335E+3  -2.21319E+5
  -6.93075E+3  -2.19535E+5
  -5.29672E+3  -2.17587E+5
  -2.84415E+3  -2.15347E+5
  -8.09104E+2  -2.13363E+5
   7.95139E+2  -2.10682E+5
   2.23831E+3  -2.08576E+5
   3.54560E+3  -2.06420E+5
   4.89722E+3  -2.04091E+5
   6.47204E+3  -2.02114E+5
   7.62856E+3  -1.99931E+5
   8.83886E+3  -1.97772E+5
   1.00416E+4  -1.95560E+5
   1.14727E+4  -1.93560E+5
   1.26449E+4  -1.91182E+5
   1.36233E+4  -1.88946E+5
   1.43001E+4  -1.86895E+5
   1.57962E+4  -1.84909E+5
   1.69620E+4  -1.82751E+5
   1.77222E+4  -1.80461E+5
   1.86795E+4  -1.78412E+5
   1.95704E+4  -1.76254E+5
   2.08728E+4  -1.74378E+5
   2.14305E+4  -1.71989E+5
   2.24294E+4  -1.69941E+5
   2.29406E+4  -1.68125E+5
   2.41265E+4  -1.66388E+5
   2.48041E+4  -1.64418E+5
   2.56783E+4  -1.61917E+5
   2.63653E+4  -1.59951E+5
   2.72657E+4  -1.58317E+5
   2.80753E+4  -1.56524E+5
   2.88216E+4  -1.54633E+5
   2.97121E+4  -1.52602E+5
   3.03902E+4  -1.50592E+5
   3.13607E+4  -1.48980E+5
   3.21871E+4  -1.46819E+5
   3.30312E+4  -1.44906E+5
   3.36089E+4  -1.43132E+5
   3.43668E+4  -1.41486E+5
   3.49696E+4  -1.39843E+5
   3.55772E+4  -1.37995E+5
   3.65207E+4  -1.36228E+5
   3.69806E+4  -1.34280E+5
   3.74050E+4  -1.32451E+5
   3.79957E+4  -1.30753E+5
   3.86574E+4  -1.29194E+5
   3.94201E+4  -1.27756E+5
   3.99520E+4  -1.25900E+5
   4.02669E+4  -1.24530E+5
   4.11225E+4  -1.22750E+5
   4.16278E+4  -1.20952E+5
   4.19960E+4  -1.19222E+5
   4.24115E+4  -1.17875E+5
   4.28227E+4  -1.16405E+5
   4.35225E+4  -1.14808E+5
   4.38364E+4  -1.13244E+5
   4.40363E+4  -1.11648E+5
   4.48144E+4  -1.10436E+5
   4.47735E+4  -1.08856E+5
   4.54157E+4  -1.06996E+5
   4.55901E+4  -1.05526E+5
   4.53904E+4  -1.04175E+5
   4.56766E+4  -1.02926E+5
   4.61185E+4  -1.01768E+5
   4.63880E+4  -1.00160E+5
   4.66781E+4  -9.85445E+4
   4.67115E+4  -9.72542E+4
   4.67135E+4  -9.59492E+4
   4.69711E+4  -9.47176E+4
   4.71192E+4  -9.33287E+4
   4.68422E+4  -9.20239E+4
   4.70622E+4  -9.10253E+4
   4.73595E+4  -8.96855E+4
   4.74952E+4  -8.79872E+4
   4.71448E+4  -8.71917E+4
   4.74425E+4  -8.58377E+4
   4.74285E+4  -8.46979E+4
   4.75688E+4  -8.35988E+4
   4.77090E+4  -8.24013E+4
   4.73373E+4  -8.10902E+4
   4.74339E+4  -7.96680E+4
   4.75657E+4  -7.87053E+4
   4.72814E+4  -7.75379E+4
   4.71509E+4  -7.63706E+4
   4.70625E+4  -7.54275E+4
   4.71722E+4  -7.45654E+4
   4.71818E+4  -7.34503E+4
   4.71434E+4  -7.22681E+4
   4.70218E+4  -7.10571E+4
   4.68401E+4  -7.02521E+4
   4.68509E+4  -6.91693E+4
   4.68168E+4  -6.82245E+4
   4.65044E+4  -6.72411E+4
   4.65697E+4  -6.61752E+4
   4.62395E+4  -6.53970E+4
   4.62048E+4  -6.43095E+4
   4.59705E+4  -6.34057E+4
   4.60015E+4  -6.23605E+4
   4.55966E+4  -6.16256E+4
   4.56275E+4  -6.09273E+4
   4.58244E+4  -6.00058E+4
   4.54884E+4  -5.90474E+4
   4.52232E+4  -5.79350E+4
   4.50055E+4  -5.72343E+4
   4.49043E+4  -5.62912E+4
   4.46870E+4  -5.54627E+4
   4.45386E+4  -5.48097E+4
   4.43217E+4  -5.40166E+4
   4.41659E+4  -5.31800E+4
   4.39513E+4  -5.25414E+4
   4.38624E+4  -5.14242E+4
   4.37038E+4  -5.05986E+4
   4.31850E+4  -5.00300E+4
   4.29382E+4  -4.90909E+4
   4.31506E+4  -4.87612E+4
   4.30591E+4  -4.77500E+4
   4.26528E+4  -4.69523E+4
   4.23668E+4  -4.62245E+4
   4.22011E+4  -4.54688E+4
   4.18637E+4  -4.48608E+4
   4.14661E+4  -4.39394E+4
   4.14824E+4  -4.33580E+4
   4.11891E+4  -4.27540E+4
   4.10350E+4  -4.21780E+4
   4.09988E+4  -4.14568E+4
   4.07622E+4  -4.08193E+4
   4.02267E+4  -4.01810E+4
   3.99870E+4  -3.95323E+4
   4.00808E+4  -3.86443E+4
   3.99460E+4  -3.81500E+4
   3.93772E+4  -3.73422E+4
   3.90938E+4  -3.69265E+4
   3.87538E+4  -3.66161E+4
   3.91790E+4  -3.57948E+4
   3.89766E+4  -3.47925E+4
   3.82742E+4  -3.42570E+4
   3.80985E+4  -3.38946E+4
   3.76312E+4  -3.34063E+4
   3.75858E+4  -3.27830E+4
   3.75153E+4  -3.20065E+4
   3.74693E+4  -3.16253E+4
