 
 $NMID
 ID=''
 FMTDAT='(2E13.5)'
 TRAMP=   1.00000E+0
 VOLUME=   1.00000E+0
 $END
  -1.42323E+4   9.49095E+3
  -1.75356E+4   2.94414E+4
   2.24203E+4   3.07835E+4
   3.12870E+4  -5.76876E+3
  -2.67218E+3  -3.09954E+4
  -2.57928E+4  -1.47085E+4
  -1.75405E+4   1.51448E+4
   4.16855E+3   2.35465E+4
   1.90298E+4   4.92390E+3
   9.98161E+3  -1.69063E+4
  -1.20428E+4  -1.64300E+4
  -1.65024E+4   1.97977E+3
  -2.56433E+3   1.39355E+4
   9.30269E+3   6.84654E+3
   1.00530E+4  -7.28126E+3
   1.73101E+3  -9.83885E+3
  -7.81395E+3  -3.18273E+2
  -6.21172E+3   6.84678E+3
   2.95904E+3   4.94380E+3
   5.74492E+3   5.26634E+2
   9.71535E+2  -3.81230E+3
  -2.98008E+3  -4.09667E+3
  -3.01863E+3   1.11711E+3
  -1.03471E+3   3.65429E+3
   1.94641E+3  -1.64376E+2
   3.80896E+3  -1.77537E+3
   6.20281E+2  -1.72866E+2
  -2.98453E+3  -6.67933E+2
  -1.57502E+3  -4.45909E+2
   1.50473E+3   1.26392E+3
   1.78775E+3   7.63255E+2
  -1.78956E+2  -8.75195E+2
  -1.44167E+3  -1.45639E+3
  -8.87127E+2  -1.44683E+3
   1.28951E+3  -6.52067E+2
   2.31015E+3   1.32451E+3
   8.19154E+1   1.19082E+3
  -1.54317E+3  -1.01477E+3
  -3.43930E+2  -9.93133E+2
  -7.94975E+1   5.13242E+2
  -5.60791E+2  -4.86076E+2
   9.08730E+2  -2.13774E+3
   1.57699E+3  -5.98603E+2
   3.70258E+2   9.01251E+2
  -4.11910E+2   7.48590E+2
   5.02358E+2   5.23044E+2
  -3.64901E+2   7.11910E+2
  -1.57504E+3  -9.65672E+2
  -1.06648E+3  -1.91846E+3
   8.51935E+2  -9.92706E+2
   1.30598E+3   4.28550E+0
   4.57649E+2  -3.74933E+2
   2.37992E+2  -4.08013E+2
  -3.02975E+2   2.16132E+2
  -3.14667E+2   6.66406E+2
  -5.57123E+2   1.79058E+2
  -5.22218E+2  -9.02647E+2
   6.53641E+2  -1.52559E+3
   1.19144E+3  -1.47468E+2
   5.41441E+2   8.89467E+2
  -1.89509E+2   6.94288E+2
  -2.31116E+2   4.69260E+2
  -3.83946E+2   7.83954E+2
  -1.68075E+3   2.38853E+2
  -1.34714E+3  -1.26041E+3
   2.18806E+2  -1.53664E+3
   1.27082E+3  -6.16981E+2
   1.22780E+3  -1.63520E+1
   3.67941E+2   5.87550E+2
   2.01404E+2   2.16818E+2
   1.75839E+2  -4.35890E+1
   1.42921E+2   1.35315E+2
   5.72577E+1   4.35613E+2
  -1.44515E+2   4.36597E+2
  -2.16288E+2  -8.21425E+1
   3.34277E+2  -1.57161E+2
  -9.45565E+0   7.48764E+1
  -1.62763E+1   5.13226E+2
  -2.71373E+2   1.52288E+2
  -1.95799E+2  -2.81432E+2
  -6.17083E+0  -4.77093E+2
   5.47391E+2  -4.16051E+2
   5.07986E+2   1.78559E+2
  -1.00580E+2  -1.94937E+2
   2.09784E+2  -2.29803E+2
   8.10151E+2  -1.62388E+2
   5.77882E+2   6.08856E+2
  -3.91378E+0   6.59920E+2
  -1.29205E+2   1.27965E+2
  -1.82628E+1  -4.42815E+1
   2.03315E+2   7.38092E+2
  -4.95720E+2   7.24381E+2
  -5.07283E+2   1.28594E+2
  -3.75891E+2  -5.65969E+2
   1.34231E+2  -7.23855E+2
   2.47362E+2  -7.98878E+1
   2.29508E+2   1.85315E+2
   6.20354E+1   1.02939E+2
   4.78705E+2  -2.95047E+2
   3.14023E+2   1.55413E+2
  -2.37795E+2   7.00848E+2
  -5.66568E+2   3.70607E+2
  -4.47080E+2   1.47839E+2
   3.52303E+2  -4.25564E+2
   6.41223E+2  -6.00087E+1
   2.57290E+2   4.60157E+2
  -6.67221E+2   5.86274E+2
  -5.39418E+2  -2.28195E+2
   2.45267E+2  -8.54321E+2
   1.23154E+3  -1.01830E+2
   5.99337E+2   8.06069E+2
  -1.50234E+2   8.25420E+2
  -5.30518E+2   1.51308E+2
  -8.16671E+1   5.11168E+2
  -1.93751E+2   5.07381E+2
  -3.31712E+2  -7.07950E+1
  -6.90126E+2  -4.38519E+2
  -1.84236E+2  -5.04907E+2
   5.86276E+2  -3.39088E+2
   9.49685E+2   1.47553E+2
   3.51744E+2   5.15135E+2
   6.15816E+1   6.85662E+2
  -1.82549E+2   4.62777E+2
  -4.56859E+2   4.47147E+2
  -2.04797E+2   3.32396E+1
   2.46957E+2  -2.51224E+2
   3.23893E+2  -8.06320E+1
   3.17332E+2  -3.25780E-1
   1.07329E+2   4.08425E+2
  -6.02108E+1   5.42493E+2
  -4.71324E+2   7.47170E+1
  -2.86100E+2  -4.22140E+2
   2.08288E+1  -3.61666E+2
   2.13702E+2   1.92397E+2
   6.81770E+1   3.05419E+2
   4.64201E+2  -8.40927E+1
   4.47262E+2  -1.26593E+2
   1.32639E+2   6.93538E+2
  -2.80657E+2   6.50831E+2
  -4.43541E+2  -7.05849E+1
  -2.05482E+2  -3.19417E+2
   4.55381E+2  -1.73283E+2
   5.98819E+2   4.18919E+2
  -1.94211E+2   4.36398E+2
  -5.57177E+2   1.73521E+2
  -2.49440E+2  -1.41130E+2
  -1.81813E+2   1.82381E+0
  -2.01263E+2  -3.60262E+2
  -4.71401E+1  -2.90699E+2
   1.02755E+2  -2.15283E+2
   1.84550E+2  -2.37034E+1
   3.56600E+2  -5.22683E+1
   2.47154E+2   3.17245E+2
  -4.93160E+1   5.11450E+2
  -3.27900E+2   4.56789E+2
   2.78478E+1  -1.93000E+2
  -2.30888E+1   1.97239E+2
  -5.76338E+2   2.07829E+2
  -4.01366E+2  -8.98397E+1
   3.57717E-1  -6.20366E+1
  -3.36192E+2   1.69100E+2
  -2.29873E+2   2.49544E+1
  -3.26711E+2  -5.02337E+1
   8.76978E+1  -2.77408E+2
   2.84863E+2  -7.44905E+1
   2.75371E+2   1.24346E+2
  -2.64838E+2   2.62820E+2
  -3.47377E+2  -3.13947E+1
   1.08517E+2   1.01902E+2
   3.21811E+0  -4.72324E+1
  -1.78933E+2   2.41672E+2
  -2.23919E+2  -1.02707E+1
  -2.72822E+2   2.34750E+2
  -1.26504E+2  -6.99396E+1
   1.09693E+2  -1.29235E+1
  -1.67248E+2  -3.66517E+1
  -4.96324E+2   1.62564E+2
  -2.88073E+2  -1.63310E+2
   3.78279E+2  -2.22206E+2
   2.70247E+2   1.81615E+2
   6.37221E+0   3.68851E+2
  -4.24500E+2   1.75582E+2
  -3.01689E+2   4.72803E+1
  -3.60459E+0  -8.46277E+1
   7.22327E+1  -2.58506E+2
  -5.53484E+1  -2.51542E+2
   1.21234E+2  -2.94426E+2
   3.49302E+2  -1.60207E+2
   3.79476E+2   3.54793E+2
   3.42204E+1   9.37870E+2
  -3.35945E+2   4.19726E+2
  -4.62603E+2  -3.55270E+2
  -2.10897E+2  -4.78330E+2
   2.83934E+0   2.46563E+1
   1.56056E+2   2.06655E+2
   1.54194E+2   1.36739E+1
  -1.21335E+2   4.01723E+1
  -2.58042E+2   3.16873E+2
  -2.75900E+2   1.47265E+2
  -3.18089E+2  -1.26008E+2
  -2.74329E+2  -3.04248E+2
   4.73184E+1  -5.37936E+2
   5.01474E+2  -2.14426E+2
   1.57209E+2   2.09440E+2
  -2.74700E+2   1.49890E+2
  -3.15443E+2   1.08578E+2
  -1.90658E+2  -1.56868E+2
  -4.63829E+1  -3.62498E+1
  -2.31613E+2   5.72805E-1
  -1.32690E+2  -1.70957E+2
  -2.00533E+1  -1.51256E+2
   2.94897E+2   3.39363E+2
   1.09864E+2   5.59906E+2
  -5.32815E+2   2.21654E+2
  -4.99471E+2  -1.13358E+2
  -1.24736E+2  -5.33271E+2
  -4.65483E+1  -4.73085E+2
   2.54831E+2  -1.67759E+1
   1.53845E+2  -9.52509E+0
  -1.24974E+2   1.63823E+2
  -2.35607E+2   1.46088E+2
  -4.47587E+1   2.97771E+2
  -4.54555E+2   2.29857E+2
  -5.13120E+2   9.47199E+0
  -3.05611E+2  -4.00624E+2
   3.68734E+2  -1.18453E+2
   1.04092E+2  -2.81021E+2
  -1.56893E+2   3.00336E+2
  -4.83496E+2   6.51007E+1
   5.69433E+1  -2.41889E+2
  -3.48832E+1  -1.48038E+2
   5.73681E+0   1.03728E+2
  -1.69483E+2   4.07580E+1
  -2.95892E+2  -5.33607E+1
  -2.55330E+1  -1.51850E+2
  -1.86555E+2   1.13749E+2
   1.44512E+1   1.89617E+1
  -6.37452E+1  -1.24691E+2
  -1.60759E+2   4.68016E+1
   6.31255E+1  -5.71984E-2
   1.73053E+2   1.62386E+2
  -4.04040E+1   1.39522E+2
  -1.24320E+2   1.51562E+2
   8.05923E+1  -3.04174E+2
  -1.25695E+2  -6.98089E+1
  -1.39207E+2   1.47383E+1
  -1.32665E+2  -4.24925E+1
  -5.28940E+1  -1.62162E+2
   1.56911E+2  -2.94666E+0
   2.00237E+2   3.80073E+2
  -1.29982E+2   1.90656E+2
  -3.65451E+2  -1.19242E+1
  -1.30872E+2  -1.60014E+2
  -4.11143E+1  -1.12157E+2
   5.01404E+2  -3.28138E+1
   1.79602E+2   1.15048E+2
  -2.88874E+1   3.39333E+2
  -5.20704E+1   3.15206E+1
   5.48333E+1   1.63772E+2
  -1.98730E+2  -2.23457E+1
  -3.94255E+2  -1.09488E+2
  -3.05483E+2  -2.50228E+2
   3.80206E+2  -9.20739E+1
   4.52893E+2  -7.86779E+1
   2.39360E+2   3.14821E+2
  -1.06914E+2   1.86763E+2
  -3.18844E+2   2.30491E+2
  -8.06517E+1  -1.15143E+2
   6.37790E+1  -2.62283E+2
   4.77310E+1  -1.10977E+2
   9.49605E+1   5.59765E+1
  -1.07563E+2   9.09615E+1
   1.12259E+2   1.88044E+2
  -7.99944E+1   2.38563E+2
  -3.20872E+2   3.52012E+2
  -6.11337E+1  -2.01868E+2
  -1.23821E+2  -2.96748E+2
   1.57198E+2  -1.08306E+2
   1.03936E+2   1.54580E+2
   4.06120E+1   1.37094E+2
  -4.34866E+1  -7.13306E+1
  -9.36526E+1   1.27959E+2
   7.81244E+0  -1.13673E+1
  -1.29643E+2   5.42785E+1
  -1.83927E+2  -5.09188E+1
  -2.71419E+0  -3.21578E+2
   5.31943E+1   1.14009E+2
   8.42066E+1   6.83942E+1
  -3.72141E+2   3.75802E+2
  -5.66372E+1   6.43054E+1
  -2.91880E+2  -5.39946E+1
  -4.49490E+1  -4.09231E+1
  -1.00954E+2  -6.27748E+1
   1.66354E+2  -1.81698E+2
   1.63111E+2  -5.01305E+1
  -1.63420E+2   6.01259E+1
   2.69199E+2   2.31390E+2
  -1.94137E+2  -2.11597E+1
  -2.88163E+2   3.44156E+2
   1.62801E+0  -6.94530E+1
   3.52232E+2   4.67553E+1
   2.97719E+2  -1.17239E+2
  -1.27926E+2   3.69485E+2
  -1.16206E+2   2.16740E+1
   8.54749E+1  -1.80615E+2
   5.42936E+1  -4.35195E+1
   1.53059E+2  -1.04051E+2
   5.40508E+1   1.50926E+2
   2.09887E+2   2.26416E+1
   1.78268E+2  -9.01244E+0
   1.15255E+2   8.56145E+1
  -7.94838E+1   1.16359E+2
   1.06901E+2  -4.61965E+1
  -1.74877E+2  -1.45011E+2
   2.98667E+1  -1.74386E+2
   1.42394E+2  -4.08153E+1
  -1.39535E+2   2.20892E+2
   1.63855E+2   1.47813E+2
   5.71134E+1  -2.55691E+2
   2.48678E+1  -1.56189E+2
  -1.15873E+2  -9.28009E+1
   4.86605E+0  -8.90301E+1
  -6.35767E+1  -6.65644E+1
   2.43025E+1  -3.26703E+1
   2.96638E+2   3.60298E+1
  -8.57965E+1  -3.00583E-1
  -2.77131E+2   1.27326E+2
   1.03913E+1  -1.13553E+2
   1.41841E+1  -1.67804E+2
   7.48763E+1  -7.92046E+1
   6.50171E+1   5.56769E+1
   1.30612E+2  -2.93424E+1
  -8.34935E+0   8.20799E+1
   2.48526E+2  -4.77150E+1
  -1.37455E+2   1.86725E+2
  -1.07507E+2   8.84561E+0
  -1.35263E+2  -2.05202E+2
  -5.56571E+1  -3.56936E+2
   1.87724E+2  -1.91732E+2
  -7.67560E+1   2.04216E+2
  -1.33467E+2  -3.83184E+0
  -1.71107E+2   1.47088E+2
   2.66181E+1   5.06131E+1
   2.95608E+2   5.53589E+1
   1.41195E+1  -7.73389E+1
   3.73590E+0  -1.00559E+2
  -3.62540E+1   3.07085E+1
   1.24145E+2  -7.98903E+0
   4.25915E+2   2.15058E+1
   6.59369E+0   1.34723E+2
   4.47472E+0  -4.42994E+1
  -1.13768E+2  -2.26809E+2
   2.95659E+1  -1.57902E+2
   9.63381E+1   2.10272E+2
  -1.15061E+2   7.20771E+1
  -7.02688E+1  -8.65337E+1
  -1.17649E+2  -3.16475E+2
   1.15098E+1   5.97364E+1
  -2.48907E+2   4.95868E+1
  -2.59391E+2   2.24652E+2
  -2.04722E+2  -1.02767E+2
   1.52667E+1  -7.68240E+1
   8.20776E+1  -5.14311E+1
   8.58373E+1   3.94197E+2
  -4.68173E+1  -5.49894E+1
  -1.18705E+2  -9.59255E+1
   1.13613E+2  -5.93607E+1
