 LCModel (Version 6.3-1N) Copyright: S.W. Provencher.          Ref.: Magn. Reson. Med. 30:672-679 (1993).                
 Slice_N1@16_12  28-Feb-2025 11:39:48
 27 lines in following concentration table = NCONC+1
    Conc.  %SD /Cr+PCr  Metabolite                                         
 2.89E-04   4% 2.7E-04 Mac                                                 
    4.216  20%   3.869 Cr                                                  
    4.503  19%   4.131 PCr                                                 
    6.475  13%   5.941 Ins                                                 
    9.688   8%   8.889 NAA                                                 
    6.853  12%   6.288 Tau                                                 
    0.200 385%   0.184 PCho                                                
    1.121  65%   1.029 GPC                                                 
   10.913   9%  10.013 Glu                                                 
    3.374  23%   3.096 Gln                                                 
    0.000 999%   0.000 Ala                                                 
    1.292  88%   1.185 Asc                                                 
    2.554  38%   2.344 Asp                                                 
    0.647  79%   0.593 GABA                                                
    0.350 197%   0.322 Glc                                                 
    0.893  49%   0.820 GSH                                                 
    1.753  36%   1.608 Lac                                                 
    1.579  32%   1.449 NAAG                                                
    2.957  34%   2.713 PE                                                  
    1.322  20%   1.213 GPC+PCho                                            
   11.267   7%  10.338 NAA+NAAG                                            
   14.287   9%  13.109 Glu+Gln                                             
    8.719   8%   8.000 Cr+PCr                                              
   11.267   7%  10.338 NAA+NAAG                                            
    8.719   8%   8.000 Cr+PCr                                              
   14.287   9%  13.109 Glu+Gln                                             
   6 lines in following misc. output table
  FWHM = 0.016 ppm    S/N =   4                                            
  Data shift = 0.016 ppm                                                   
  Ph:-169 deg       0.0 deg/ppm                                            
  alphaB,S = 3.3E-01,   3.2E-01                                            
   19 spline knots.   Ns = 5(1)                                            
   3 inflections.     2 extrema                                            
  480 points on ppm-axis = NY
      4.100000     4.091866     4.083733     4.075600     4.067466     4.059333     4.051199     4.043066     4.034933     4.026799
      4.018666     4.010532     4.002399     3.994265     3.986132     3.977998     3.969864     3.961731     3.953597     3.945463
      3.937330     3.929196     3.921062     3.912929     3.904795     3.896662     3.888528     3.880394     3.872261     3.864127
      3.855993     3.847860     3.839726     3.831592     3.823459     3.815325     3.807191     3.799058     3.790924     3.782790
      3.774657     3.766523     3.758389     3.750256     3.742122     3.733989     3.725855     3.717721     3.709588     3.701454
      3.693320     3.685187     3.677053     3.668919     3.660786     3.652652     3.644518     3.636385     3.628251     3.620117
      3.611984     3.603850     3.595716     3.587583     3.579449     3.571316     3.563182     3.555048     3.546915     3.538781
      3.530647     3.522514     3.514380     3.506246     3.498113     3.489979     3.481845     3.473712     3.465578     3.457444
      3.449311     3.441177     3.433043     3.424910     3.416776     3.408643     3.400509     3.392375     3.384242     3.376108
      3.367974     3.359841     3.351707     3.343573     3.335440     3.327306     3.319172     3.311039     3.302905     3.294771
      3.286638     3.278504     3.270370     3.262237     3.254103     3.245970     3.237836     3.229702     3.221569     3.213435
      3.205301     3.197168     3.189034     3.180900     3.172767     3.164633     3.156499     3.148366     3.140232     3.132098
      3.123965     3.115831     3.107697     3.099564     3.091430     3.083297     3.075163     3.067029     3.058896     3.050762
      3.042628     3.034495     3.026361     3.018227     3.010094     3.001960     2.993826     2.985693     2.977559     2.969425
      2.961292     2.953158     2.945024     2.936891     2.928757     2.920624     2.912490     2.904356     2.896223     2.888089
      2.879955     2.871822     2.863688     2.855554     2.847421     2.839287     2.831153     2.823020     2.814886     2.806752
      2.798619     2.790485     2.782351     2.774218     2.766084     2.757951     2.749817     2.741683     2.733550     2.725416
      2.717282     2.709149     2.701015     2.692881     2.684748     2.676614     2.668480     2.660347     2.652213     2.644079
      2.635946     2.627812     2.619678     2.611545     2.603411     2.595278     2.587144     2.579010     2.570877     2.562743
      2.554609     2.546476     2.538342     2.530208     2.522075     2.513941     2.505807     2.497674     2.489540     2.481406
      2.473273     2.465139     2.457006     2.448872     2.440738     2.432605     2.424471     2.416337     2.408204     2.400070
      2.391936     2.383803     2.375669     2.367535     2.359402     2.351268     2.343134     2.335001     2.326867     2.318733
      2.310600     2.302466     2.294333     2.286199     2.278065     2.269932     2.261798     2.253664     2.245531     2.237397
      2.229263     2.221130     2.212996     2.204862     2.196729     2.188595     2.180461     2.172328     2.164194     2.156060
      2.147927     2.139793     2.131660     2.123526     2.115392     2.107259     2.099125     2.090991     2.082858     2.074724
      2.066590     2.058457     2.050323     2.042189     2.034056     2.025922     2.017788     2.009655     2.001521     1.993387
      1.985254     1.977120     1.968987     1.960853     1.952719     1.944586     1.936452     1.928318     1.920185     1.912051
      1.903917     1.895784     1.887650     1.879516     1.871383     1.863249     1.855115     1.846982     1.838848     1.830714
      1.822581     1.814447     1.806314     1.798180     1.790046     1.781913     1.773779     1.765645     1.757512     1.749378
      1.741244     1.733111     1.724977     1.716843     1.708710     1.700576     1.692442     1.684309     1.676175     1.668041
      1.659908     1.651774     1.643641     1.635507     1.627373     1.619240     1.611106     1.602972     1.594839     1.586705
      1.578571     1.570438     1.562304     1.554170     1.546037     1.537903     1.529769     1.521636     1.513502     1.505368
      1.497235     1.489101     1.480968     1.472834     1.464700     1.456567     1.448433     1.440299     1.432166     1.424032
      1.415898     1.407765     1.399631     1.391497     1.383364     1.375230     1.367096     1.358963     1.350829     1.342695
      1.334562     1.326428     1.318295     1.310161     1.302027     1.293894     1.285760     1.277626     1.269493     1.261359
      1.253225     1.245092     1.236958     1.228824     1.220691     1.212557     1.204423     1.196290     1.188156     1.180022
      1.171889     1.163755     1.155622     1.147488     1.139354     1.131221     1.123087     1.114953     1.106820     1.098686
      1.090552     1.082419     1.074285     1.066151     1.058018     1.049884     1.041750     1.033617     1.025483     1.017349
      1.009216     1.001082     0.992949     0.984815     0.976681     0.968548     0.960414     0.952280     0.944147     0.936013
      0.927879     0.919746     0.911612     0.903478     0.895345     0.887211     0.879077     0.870944     0.862810     0.854676
      0.846543     0.838409     0.830276     0.822142     0.814008     0.805875     0.797741     0.789607     0.781474     0.773340
      0.765206     0.757073     0.748939     0.740805     0.732672     0.724538     0.716404     0.708271     0.700137     0.692003
      0.683870     0.675736     0.667603     0.659469     0.651335     0.643202     0.635068     0.626934     0.618801     0.610667
      0.602533     0.594400     0.586266     0.578132     0.569999     0.561865     0.553731     0.545598     0.537464     0.529330
      0.521197     0.513063     0.504930     0.496796     0.488662     0.480529     0.472395     0.464261     0.456128     0.447994
      0.439861     0.431727     0.423593     0.415460     0.407326     0.399192     0.391059     0.382925     0.374792     0.366658
      0.358524     0.350391     0.342257     0.334124     0.325990     0.317856     0.309723     0.301589     0.293455     0.285322
      0.277188     0.269055     0.260921     0.252787     0.244654     0.236520     0.228386     0.220253     0.212119     0.203986
 NY phased data points follow
  -1.16767E+02 -1.33891E+02 -1.26504E+02 -1.29985E+02 -1.33459E+02 -1.28369E+02 -1.24395E+02 -1.18325E+02 -1.26791E+02 -1.26294E+02
  -1.42191E+02 -1.47835E+02 -1.35754E+02 -1.50271E+02 -1.51006E+02 -1.47071E+02 -1.44202E+02 -1.52052E+02 -1.72263E+02 -1.77901E+02
  -2.02745E+02 -1.90319E+02 -1.44741E+02 -1.38037E+02 -1.00533E+02 -6.08641E+01 -6.76300E+01 -6.65471E+01 -7.19013E+01 -7.40957E+01
  -6.57218E+01 -6.19064E+01 -7.20944E+01 -7.41372E+01 -6.11110E+01 -7.88889E+01 -7.39138E+01 -7.33105E+01 -7.49944E+01 -9.50646E+01
  -1.45600E+02 -1.30422E+02 -1.29248E+02 -1.18162E+02 -9.70306E+01 -7.36864E+01 -4.18204E+01 -3.68972E+01 -1.07032E+01 -2.10369E+01
  -3.29271E+01 -3.72232E+01 -3.77285E+01 -5.14053E+01 -6.95621E+01 -6.67762E+01 -8.92278E+01 -7.84676E+01 -9.17902E+01 -1.09395E+02
  -8.86271E+01 -7.28479E+01 -6.92773E+01 -5.33065E+01 -2.66244E+01 -3.21116E+01 -2.70654E+01 -4.05443E+01 -7.66715E+01 -1.13204E+02
  -1.10896E+02 -8.69823E+01 -8.50725E+01 -7.05534E+01 -5.42772E+01 -3.35776E+01 -2.77041E+01 -1.46264E+01 -7.96373E+00 -1.31207E+01
  -1.99426E+01 -3.89433E+01 -4.42904E+01 -6.13081E+01 -8.16361E+01 -8.43271E+01 -8.04281E+01 -6.03355E+01 -3.01383E+01 -2.99072E+01
  -1.28393E+01 -5.22506E+00 -7.42282E+00  2.68574E+00 -1.18894E+01  7.99792E+00  5.46821E+00 -4.44142E-01  8.31335E+00 -5.81630E+00
  -5.41060E+00 -7.69277E+00 -3.07733E+01 -5.03794E+01 -5.24399E+01 -7.69021E+01 -9.42663E+01 -1.00235E+02 -1.09966E+02 -1.51360E+02
  -2.01291E+02 -2.22449E+02 -2.11595E+02 -1.63717E+02 -1.34874E+02 -1.07012E+02 -1.06679E+02 -8.60204E+01 -7.91718E+01 -8.92052E+01
  -5.00910E+01 -5.75589E+01 -4.61822E+01 -4.49905E+01 -5.86484E+01 -4.62670E+01 -3.35274E+01 -3.51975E+00  1.31606E+01  4.77429E+01
   9.26552E+01  8.50148E+01 -1.91263E+01 -1.39244E+02 -1.82871E+02 -1.65698E+02 -1.48140E+02 -1.54966E+02 -1.53677E+02 -1.46087E+02
  -1.29869E+02 -1.35925E+02 -1.38080E+02 -1.33977E+02 -1.49128E+02 -1.28204E+02 -1.21068E+02 -1.27695E+02 -1.12692E+02 -1.18227E+02
  -1.13041E+02 -1.04035E+02 -1.17581E+02 -1.13874E+02 -1.01799E+02 -1.04889E+02 -9.38724E+01 -8.96812E+01 -9.82167E+01 -8.09020E+01
  -7.59968E+01 -7.03458E+01 -8.19028E+01 -8.85782E+01 -7.41295E+01 -9.90703E+01 -9.00204E+01 -8.82750E+01 -9.14915E+01 -7.23691E+01
  -7.38382E+01 -6.16113E+01 -4.73087E+01 -3.72319E+01 -4.65480E+01 -6.35216E+01 -7.05863E+01 -3.73742E+01 -3.05624E+01 -7.06120E+01
  -7.55794E+01 -9.67883E+01 -1.10694E+02 -1.05253E+02 -1.02642E+02 -1.07719E+02 -1.08236E+02 -8.96122E+01 -9.35568E+01 -9.49317E+01
  -8.80315E+01 -8.01256E+01 -7.41291E+01 -7.71113E+01 -6.27105E+01 -6.62314E+01 -8.38771E+01 -6.96551E+01 -7.02767E+01 -6.68543E+01
  -5.81828E+01 -6.75854E+01 -5.68610E+01 -5.08525E+01 -4.32489E+01 -5.05687E+01 -7.00989E+01 -7.85142E+01 -9.62380E+01 -1.01288E+02
  -9.18248E+01 -9.56405E+01 -1.01298E+02 -8.11264E+01 -6.05987E+01 -2.42121E+01  2.26991E+01  2.12382E+01  7.61698E+00  6.54069E+00
  -2.39327E+01 -4.30966E+01 -4.48594E+01 -5.64437E+01 -4.88969E+01 -5.58032E+01 -4.71656E+01 -3.09937E+01 -5.04494E+01 -5.69852E+01
  -4.88957E+01 -6.00157E+01 -7.40322E+01 -6.82901E+01 -8.09066E+01 -1.02673E+02 -1.13726E+02 -1.13939E+02 -1.15539E+02 -1.12572E+02
  -1.07889E+02 -1.12323E+02 -1.05610E+02 -9.70081E+01 -7.17673E+01 -6.62030E+01 -7.49138E+01 -7.19988E+01 -7.12331E+01 -7.85004E+01
  -8.78450E+01 -9.52812E+01 -9.34474E+01 -7.37485E+01 -1.06697E+02 -1.33470E+02 -1.64027E+02 -1.08759E+02  8.92526E+01  1.51343E+02
   1.40004E+02  1.36929E+02  1.00254E+02  8.26323E+01  5.50508E+01  4.62925E+01  4.14985E+01  3.40216E+01  4.13214E+01  2.28453E+01
   1.43064E+01  1.93492E+01  2.34319E+01  2.57923E+01  1.77997E+01  3.53475E+01  2.81369E+01  1.52910E+01  1.74504E+01  1.63356E+01
   2.78618E+01  1.40702E+01  1.09614E+01  5.63486E+00  1.06221E+01  9.16247E+00  2.33040E+00  1.64895E+01 -1.06446E+01 -4.34678E+00
  -3.22445E+00 -1.98695E+01 -1.16314E+01 -2.56471E+01 -3.25328E+01 -3.65279E+01 -2.63625E+01 -2.83004E+01 -4.04181E+01 -3.08079E+01
  -2.81837E+01 -1.55723E+01 -7.71430E+00 -1.08362E+00  1.79273E+00  1.18621E+00  2.17680E+01  2.76433E+01  2.95219E+01  3.29505E+01
   3.68541E+01  3.76939E+01  3.33381E+01  3.59072E+01  3.11934E+01  3.75735E+01  4.04250E+01  5.53014E+01  5.38610E+01  2.58746E+01
   4.24452E+01  3.58325E+01  1.61212E+01  3.51874E+01  3.65612E+01  4.14169E+01  6.05711E+01  5.84636E+01  5.02172E+01  5.55987E+01
   7.17511E+01  5.09273E+01  3.35545E+01  2.57378E+01 -1.64740E+01 -2.86266E+01 -4.63480E+01 -5.24351E+01 -3.91984E+01 -4.28503E+01
  -3.85199E+01 -3.75476E+01 -1.98970E+01 -2.12053E+01 -3.03922E+01 -1.42981E+01 -8.84682E+00 -1.99276E+01 -1.46202E+01 -4.42992E+00
  -8.46262E+00 -7.96803E+00 -9.44792E+00 -1.21300E+01 -1.75668E+01 -1.33538E+01 -2.27503E+01 -3.70456E+01 -4.58195E+01 -4.78122E+01
  -3.64077E+01 -3.64972E+01 -4.40462E+01 -4.76164E+01 -2.44117E+01 -4.13024E+01 -4.51551E+01 -1.89913E+01 -2.89722E+01 -2.07107E+01
  -2.07525E+01 -1.70314E+01 -1.09627E+01 -1.34273E+01 -6.93425E+00 -2.46658E+00  1.01855E+01  2.81676E+01  1.67048E+01  1.38946E+01
   3.27143E+01  2.80785E+01  3.51913E+01  3.89090E+01  6.42726E+01  7.56587E+01  7.24043E+01  8.90193E+01  9.15151E+01  1.02204E+02
   9.30775E+01  8.33773E+01  5.21176E+01  3.59882E+01  2.63519E+01  3.63690E+00  1.59975E+01  7.05124E+00  1.52124E+00 -1.25583E+01
  -2.70487E+01 -3.96816E+01 -5.02093E+01 -4.53501E+01 -5.16384E+01 -4.89458E+01 -6.09687E+01 -7.36819E+01 -6.77723E+01 -6.65126E+01
  -7.22767E+01 -5.93988E+01 -5.60573E+01 -6.50690E+01 -6.05938E+01 -6.87013E+01 -6.83953E+01 -5.43504E+01 -5.51340E+01 -6.96240E+01
  -5.73401E+01 -4.84727E+01 -5.54187E+01 -4.92625E+01 -5.37446E+01 -5.16919E+01 -5.26091E+01 -5.52101E+01 -5.25108E+01 -4.93248E+01
  -4.13984E+01 -6.42977E+01 -6.11146E+01 -4.53192E+01 -5.82772E+01 -4.50942E+01 -4.67747E+01 -4.21075E+01 -5.30285E+01 -5.99154E+01
  -4.21717E+01 -6.38190E+01 -4.27824E+01 -4.94173E+01 -6.00145E+01 -4.16721E+01 -4.01726E+01 -2.80622E+01 -4.79090E+01 -4.57183E+01
  -5.62401E+01 -5.80901E+01 -5.31677E+01 -5.81220E+01 -2.75827E+01 -3.42367E+01 -4.41974E+01 -5.51540E+01 -5.34822E+01 -4.17472E+01
  -4.61405E+01 -4.19461E+01 -5.24361E+01 -5.29795E+01 -4.86720E+01 -4.80645E+01 -4.22716E+01 -4.11997E+01 -3.67155E+01 -4.18041E+01
  -4.95583E+01 -4.40967E+01 -3.96993E+01 -4.76760E+01 -6.20326E+01 -4.28724E+01 -4.01197E+01 -5.53976E+01 -3.36388E+01 -3.79353E+01
 NY points of the fit to the data follow
  -1.26538E+02 -1.31304E+02 -1.39405E+02 -1.46962E+02 -1.48016E+02 -1.31075E+02 -1.07358E+02 -1.00742E+02 -1.08885E+02 -1.20177E+02
  -1.32026E+02 -1.42449E+02 -1.48615E+02 -1.50693E+02 -1.49576E+02 -1.46617E+02 -1.41762E+02 -1.42926E+02 -1.59895E+02 -1.71176E+02
  -1.87347E+02 -1.72400E+02 -1.35904E+02 -1.27770E+02 -9.48441E+01 -5.56292E+01 -6.08046E+01 -5.91965E+01 -5.37777E+01 -5.66716E+01
  -5.69390E+01 -5.76772E+01 -5.88517E+01 -6.01247E+01 -6.23238E+01 -6.56794E+01 -7.00860E+01 -7.45735E+01 -8.64235E+01 -1.02497E+02
  -1.26951E+02 -1.40607E+02 -1.34676E+02 -1.17161E+02 -9.45724E+01 -6.86148E+01 -4.74708E+01 -3.88149E+01 -3.91275E+01 -3.89545E+01
  -4.30513E+01 -4.68816E+01 -5.15906E+01 -6.18576E+01 -7.34673E+01 -7.98357E+01 -8.43995E+01 -8.39132E+01 -9.07247E+01 -1.04531E+02
  -9.24157E+01 -8.00261E+01 -8.06225E+01 -6.08431E+01 -4.16632E+01 -3.57278E+01 -3.22540E+01 -4.27129E+01 -6.71065E+01 -9.73184E+01
  -1.06078E+02 -9.12873E+01 -8.61668E+01 -7.64204E+01 -5.20735E+01 -3.71637E+01 -3.01352E+01 -2.41521E+01 -2.10126E+01 -2.23277E+01
  -2.16555E+01 -3.83909E+01 -5.51605E+01 -8.07638E+01 -1.02832E+02 -1.00588E+02 -9.12369E+01 -7.28497E+01 -4.83077E+01 -3.96943E+01
  -3.11583E+01 -2.67968E+01 -2.37156E+01 -1.95379E+01 -1.55744E+01 -1.04131E+01 -5.11763E+00 -3.63331E+00 -2.93647E+00 -5.85634E+00
  -4.91953E+00 -1.56193E+00 -6.11598E+00 -3.03781E+01 -4.25336E+01 -6.89263E+01 -8.38883E+01 -7.87531E+01 -9.40006E+01 -1.36873E+02
  -1.97074E+02 -2.20044E+02 -1.83977E+02 -1.56259E+02 -1.30531E+02 -1.09013E+02 -1.01553E+02 -9.52663E+01 -8.88381E+01 -8.20952E+01
  -7.56827E+01 -6.93415E+01 -6.22615E+01 -5.43731E+01 -4.51051E+01 -3.40654E+01 -2.01112E+01 -5.71572E+00  1.82946E+01  6.31833E+01
   9.43868E+01  8.96938E+01 -5.61706E+00 -1.40135E+02 -1.83895E+02 -1.73425E+02 -1.66131E+02 -1.42397E+02 -1.28869E+02 -1.28258E+02
  -1.28896E+02 -1.29103E+02 -1.29260E+02 -1.28601E+02 -1.27733E+02 -1.27553E+02 -1.25968E+02 -1.22667E+02 -1.19559E+02 -1.15794E+02
  -1.11897E+02 -1.08778E+02 -1.06096E+02 -1.03603E+02 -1.00755E+02 -9.64833E+01 -9.35972E+01 -9.40484E+01 -9.49229E+01 -9.25842E+01
  -8.78147E+01 -8.38129E+01 -8.35654E+01 -8.83535E+01 -9.18876E+01 -9.07414E+01 -8.78849E+01 -8.53396E+01 -8.61478E+01 -8.75493E+01
  -8.16087E+01 -6.59233E+01 -4.83233E+01 -4.65926E+01 -6.07288E+01 -6.68069E+01 -5.58778E+01 -4.46346E+01 -4.56839E+01 -6.26012E+01
  -7.94463E+01 -8.68948E+01 -9.16684E+01 -9.41095E+01 -9.38982E+01 -9.50245E+01 -9.47410E+01 -9.40990E+01 -9.30923E+01 -9.06470E+01
  -8.86001E+01 -8.79826E+01 -8.40136E+01 -8.12938E+01 -7.08748E+01 -6.17471E+01 -7.00260E+01 -6.68629E+01 -5.89562E+01 -6.14216E+01
  -6.09088E+01 -6.29433E+01 -5.70053E+01 -4.81996E+01 -5.18172E+01 -5.89870E+01 -6.69796E+01 -7.57060E+01 -8.51338E+01 -9.62914E+01
  -1.02951E+02 -1.04727E+02 -1.06515E+02 -8.54690E+01 -6.74695E+01 -3.50042E+01  8.21955E+00  1.32848E+01  1.42210E+01  9.78063E+00
  -2.14201E+01 -3.29395E+01 -3.64705E+01 -3.81382E+01 -3.16859E+01 -2.86446E+01 -2.82967E+01 -3.04125E+01 -3.72265E+01 -4.65352E+01
  -5.75117E+01 -6.89793E+01 -8.12104E+01 -9.15608E+01 -1.00324E+02 -1.10884E+02 -1.16926E+02 -1.19290E+02 -1.23476E+02 -1.20021E+02
  -1.14861E+02 -1.13227E+02 -9.98458E+01 -9.03035E+01 -8.05837E+01 -6.77015E+01 -6.89490E+01 -6.90431E+01 -7.38804E+01 -8.20869E+01
  -8.50206E+01 -9.84759E+01 -9.89892E+01 -9.01430E+01 -1.12118E+02 -1.30259E+02 -1.75629E+02 -1.11289E+02  6.55714E+01  1.29680E+02
   1.18162E+02  1.17307E+02  8.09767E+01  5.86040E+01  5.15412E+01  4.78858E+01  4.47414E+01  4.06961E+01  3.73861E+01  3.40892E+01
   3.18936E+01  3.13449E+01  3.16534E+01  3.34701E+01  3.44220E+01  3.52693E+01  3.56896E+01  3.42980E+01  3.33950E+01  3.26143E+01
   3.12069E+01  2.95238E+01  2.72518E+01  2.52817E+01  2.34974E+01  2.18948E+01  1.94948E+01  1.74412E+01  1.55715E+01  1.28728E+01
   1.01289E+01  6.47046E+00  2.31288E+00 -1.36069E+00 -5.61369E+00 -9.42721E+00 -1.11184E+01 -1.08216E+01 -8.57282E+00 -5.45572E+00
  -2.35754E+00  3.93352E-01  3.53401E+00  6.75872E+00  9.60415E+00  1.22219E+01  1.45765E+01  1.65800E+01  1.87415E+01  2.16136E+01
   2.48572E+01  2.71920E+01  2.90377E+01  3.07088E+01  3.21608E+01  3.36910E+01  3.48001E+01  3.49510E+01  3.47954E+01  3.35235E+01
   3.09469E+01  2.84405E+01  2.62346E+01  2.24577E+01  1.84612E+01  1.47098E+01  1.03189E+01  4.43740E+00 -4.21373E+00 -1.49328E+01
  -2.50799E+01 -3.39733E+01 -4.12456E+01 -4.59070E+01 -4.74831E+01 -4.53945E+01 -4.03078E+01 -3.31394E+01 -2.39444E+01 -1.72632E+01
  -1.30746E+01 -1.60787E+01 -2.82793E+01 -3.41304E+01 -3.87031E+01 -3.89820E+01 -2.78658E+01 -2.04541E+01 -1.74747E+01 -1.42704E+01
  -1.42258E+01 -1.49796E+01 -1.73310E+01 -2.05565E+01 -2.54231E+01 -3.13060E+01 -3.59614E+01 -3.87153E+01 -3.95266E+01 -3.87108E+01
  -3.63918E+01 -3.33485E+01 -2.96206E+01 -2.55203E+01 -2.12750E+01 -1.74133E+01 -1.41547E+01 -1.10023E+01 -8.10030E+00 -5.28535E+00
  -2.11977E+00  8.67738E-01  3.79901E+00  6.69269E+00  1.02653E+01  1.38626E+01  1.80211E+01  2.30457E+01  2.83038E+01  3.42232E+01
   4.14413E+01  4.83895E+01  5.53121E+01  6.34106E+01  7.24373E+01  8.03695E+01  8.71457E+01  9.09148E+01  9.01139E+01  8.30893E+01
   7.09320E+01  5.67839E+01  4.36405E+01  3.34533E+01  2.55120E+01  1.95092E+01  1.45021E+01  7.88734E+00 -1.16238E+00 -1.11020E+01
  -2.09524E+01 -3.05670E+01 -3.82654E+01 -4.27612E+01 -4.66581E+01 -4.94379E+01 -5.09113E+01 -5.16502E+01 -5.22341E+01 -5.30863E+01
  -5.39917E+01 -5.48571E+01 -5.53583E+01 -5.53553E+01 -5.53023E+01 -5.54995E+01 -5.53742E+01 -5.48442E+01 -5.48059E+01 -5.52936E+01
  -5.56504E+01 -5.48189E+01 -5.42219E+01 -5.46540E+01 -5.45587E+01 -5.41856E+01 -5.41494E+01 -5.42388E+01 -5.42689E+01 -5.39729E+01
  -5.31796E+01 -5.26047E+01 -5.26510E+01 -5.29178E+01 -5.30513E+01 -5.32710E+01 -5.30602E+01 -5.23397E+01 -5.20847E+01 -5.17767E+01
  -5.13074E+01 -5.12013E+01 -5.09648E+01 -5.04834E+01 -5.04739E+01 -5.07463E+01 -5.10353E+01 -5.11259E+01 -5.05794E+01 -5.00044E+01
  -4.99498E+01 -4.94725E+01 -4.95977E+01 -4.99936E+01 -4.95804E+01 -4.88433E+01 -4.87296E+01 -4.82620E+01 -4.80708E+01 -4.79287E+01
  -4.76985E+01 -4.72497E+01 -4.72568E+01 -4.74450E+01 -4.75196E+01 -4.76003E+01 -4.76240E+01 -4.71717E+01 -4.64725E+01 -4.53074E+01
  -4.47272E+01 -4.49116E+01 -4.54857E+01 -4.58742E+01 -4.58524E+01 -4.54142E+01 -4.49372E+01 -4.48105E+01 -4.45103E+01 -4.42132E+01
 NY background values follow
    -9.778E+01   -9.741E+01   -9.705E+01   -9.668E+01   -9.631E+01   -9.594E+01   -9.558E+01   -9.521E+01   -9.484E+01   -9.447E+01
    -9.411E+01   -9.374E+01   -9.337E+01   -9.300E+01   -9.264E+01   -9.227E+01   -9.190E+01   -9.153E+01   -9.117E+01   -9.080E+01
    -9.043E+01   -9.007E+01   -8.970E+01   -8.933E+01   -8.896E+01   -8.860E+01   -8.823E+01   -8.787E+01   -8.750E+01   -8.714E+01
    -8.677E+01   -8.641E+01   -8.604E+01   -8.568E+01   -8.531E+01   -8.495E+01   -8.459E+01   -8.423E+01   -8.387E+01   -8.351E+01
    -8.315E+01   -8.279E+01   -8.243E+01   -8.208E+01   -8.172E+01   -8.137E+01   -8.102E+01   -8.067E+01   -8.032E+01   -7.997E+01
    -7.963E+01   -7.928E+01   -7.894E+01   -7.860E+01   -7.826E+01   -7.793E+01   -7.759E+01   -7.726E+01   -7.693E+01   -7.660E+01
    -7.628E+01   -7.596E+01   -7.564E+01   -7.532E+01   -7.500E+01   -7.469E+01   -7.438E+01   -7.407E+01   -7.377E+01   -7.346E+01
    -7.316E+01   -7.286E+01   -7.257E+01   -7.227E+01   -7.198E+01   -7.170E+01   -7.141E+01   -7.113E+01   -7.085E+01   -7.057E+01
    -7.029E+01   -7.002E+01   -6.975E+01   -6.948E+01   -6.921E+01   -6.895E+01   -6.869E+01   -6.843E+01   -6.817E+01   -6.792E+01
    -6.767E+01   -6.742E+01   -6.718E+01   -6.693E+01   -6.669E+01   -6.645E+01   -6.622E+01   -6.598E+01   -6.575E+01   -6.552E+01
    -6.529E+01   -6.506E+01   -6.484E+01   -6.461E+01   -6.439E+01   -6.417E+01   -6.395E+01   -6.374E+01   -6.352E+01   -6.331E+01
    -6.309E+01   -6.288E+01   -6.267E+01   -6.246E+01   -6.225E+01   -6.205E+01   -6.184E+01   -6.164E+01   -6.143E+01   -6.123E+01
    -6.102E+01   -6.082E+01   -6.062E+01   -6.042E+01   -6.022E+01   -6.002E+01   -5.982E+01   -5.962E+01   -5.942E+01   -5.922E+01
    -5.902E+01   -5.882E+01   -5.863E+01   -5.843E+01   -5.824E+01   -5.804E+01   -5.785E+01   -5.765E+01   -5.746E+01   -5.727E+01
    -5.707E+01   -5.688E+01   -5.669E+01   -5.650E+01   -5.631E+01   -5.612E+01   -5.592E+01   -5.573E+01   -5.555E+01   -5.536E+01
    -5.517E+01   -5.498E+01   -5.479E+01   -5.460E+01   -5.442E+01   -5.423E+01   -5.404E+01   -5.386E+01   -5.367E+01   -5.348E+01
    -5.330E+01   -5.311E+01   -5.293E+01   -5.275E+01   -5.256E+01   -5.238E+01   -5.220E+01   -5.201E+01   -5.183E+01   -5.165E+01
    -5.147E+01   -5.129E+01   -5.111E+01   -5.093E+01   -5.075E+01   -5.057E+01   -5.039E+01   -5.022E+01   -5.004E+01   -4.986E+01
    -4.969E+01   -4.951E+01   -4.933E+01   -4.916E+01   -4.898E+01   -4.881E+01   -4.864E+01   -4.846E+01   -4.829E+01   -4.812E+01
    -4.795E+01   -4.778E+01   -4.761E+01   -4.744E+01   -4.727E+01   -4.710E+01   -4.693E+01   -4.676E+01   -4.659E+01   -4.643E+01
    -4.626E+01   -4.609E+01   -4.593E+01   -4.576E+01   -4.560E+01   -4.543E+01   -4.527E+01   -4.510E+01   -4.494E+01   -4.478E+01
    -4.462E+01   -4.445E+01   -4.429E+01   -4.413E+01   -4.397E+01   -4.381E+01   -4.365E+01   -4.350E+01   -4.334E+01   -4.318E+01
    -4.302E+01   -4.287E+01   -4.271E+01   -4.256E+01   -4.241E+01   -4.225E+01   -4.210E+01   -4.195E+01   -4.180E+01   -4.165E+01
    -4.150E+01   -4.136E+01   -4.121E+01   -4.107E+01   -4.092E+01   -4.078E+01   -4.064E+01   -4.050E+01   -4.036E+01   -4.022E+01
    -4.008E+01   -3.995E+01   -3.981E+01   -3.968E+01   -3.954E+01   -3.941E+01   -3.928E+01   -3.915E+01   -3.902E+01   -3.890E+01
    -3.877E+01   -3.864E+01   -3.852E+01   -3.840E+01   -3.827E+01   -3.815E+01   -3.803E+01   -3.791E+01   -3.779E+01   -3.767E+01
    -3.755E+01   -3.743E+01   -3.731E+01   -3.720E+01   -3.708E+01   -3.696E+01   -3.685E+01   -3.673E+01   -3.662E+01   -3.650E+01
    -3.639E+01   -3.627E+01   -3.616E+01   -3.605E+01   -3.594E+01   -3.582E+01   -3.571E+01   -3.560E+01   -3.549E+01   -3.538E+01
    -3.527E+01   -3.516E+01   -3.505E+01   -3.494E+01   -3.484E+01   -3.473E+01   -3.462E+01   -3.452E+01   -3.441E+01   -3.431E+01
    -3.420E+01   -3.410E+01   -3.400E+01   -3.390E+01   -3.379E+01   -3.369E+01   -3.360E+01   -3.350E+01   -3.340E+01   -3.330E+01
    -3.321E+01   -3.311E+01   -3.302E+01   -3.292E+01   -3.283E+01   -3.274E+01   -3.266E+01   -3.257E+01   -3.249E+01   -3.240E+01
    -3.232E+01   -3.225E+01   -3.217E+01   -3.210E+01   -3.203E+01   -3.197E+01   -3.190E+01   -3.184E+01   -3.179E+01   -3.174E+01
    -3.169E+01   -3.164E+01   -3.160E+01   -3.157E+01   -3.154E+01   -3.151E+01   -3.149E+01   -3.147E+01   -3.146E+01   -3.145E+01
    -3.145E+01   -3.145E+01   -3.146E+01   -3.148E+01   -3.149E+01   -3.152E+01   -3.155E+01   -3.158E+01   -3.162E+01   -3.166E+01
    -3.170E+01   -3.175E+01   -3.180E+01   -3.186E+01   -3.192E+01   -3.198E+01   -3.205E+01   -3.211E+01   -3.219E+01   -3.226E+01
    -3.234E+01   -3.242E+01   -3.250E+01   -3.258E+01   -3.267E+01   -3.275E+01   -3.284E+01   -3.293E+01   -3.303E+01   -3.312E+01
    -3.321E+01   -3.331E+01   -3.341E+01   -3.350E+01   -3.360E+01   -3.370E+01   -3.380E+01   -3.390E+01   -3.400E+01   -3.410E+01
    -3.420E+01   -3.430E+01   -3.440E+01   -3.451E+01   -3.461E+01   -3.471E+01   -3.481E+01   -3.491E+01   -3.501E+01   -3.511E+01
    -3.521E+01   -3.531E+01   -3.541E+01   -3.551E+01   -3.561E+01   -3.570E+01   -3.580E+01   -3.589E+01   -3.599E+01   -3.608E+01
    -3.617E+01   -3.626E+01   -3.635E+01   -3.643E+01   -3.652E+01   -3.661E+01   -3.669E+01   -3.677E+01   -3.685E+01   -3.693E+01
    -3.701E+01   -3.709E+01   -3.716E+01   -3.724E+01   -3.731E+01   -3.739E+01   -3.746E+01   -3.753E+01   -3.760E+01   -3.766E+01
    -3.773E+01   -3.780E+01   -3.786E+01   -3.793E+01   -3.799E+01   -3.805E+01   -3.811E+01   -3.817E+01   -3.822E+01   -3.828E+01
    -3.834E+01   -3.839E+01   -3.844E+01   -3.850E+01   -3.855E+01   -3.860E+01   -3.865E+01   -3.870E+01   -3.874E+01   -3.879E+01
    -3.884E+01   -3.888E+01   -3.893E+01   -3.897E+01   -3.901E+01   -3.906E+01   -3.910E+01   -3.914E+01   -3.918E+01   -3.922E+01
    -3.926E+01   -3.930E+01   -3.934E+01   -3.938E+01   -3.942E+01   -3.945E+01   -3.949E+01   -3.953E+01   -3.957E+01   -3.961E+01
    -3.964E+01   -3.968E+01   -3.972E+01   -3.975E+01   -3.979E+01   -3.983E+01   -3.986E+01   -3.990E+01   -3.994E+01   -3.997E+01
    -4.001E+01   -4.005E+01   -4.008E+01   -4.012E+01   -4.015E+01   -4.019E+01   -4.023E+01   -4.026E+01   -4.030E+01   -4.033E+01
    -4.037E+01   -4.041E+01   -4.044E+01   -4.048E+01   -4.051E+01   -4.055E+01   -4.058E+01   -4.062E+01   -4.066E+01   -4.069E+01
 Mac      Conc. = 2.89E-04
  -1.17648E+02 -1.18341E+02 -1.18422E+02 -1.18292E+02 -1.18038E+02 -1.17757E+02 -1.18078E+02 -1.19444E+02 -1.21329E+02 -1.23233E+02
  -1.24530E+02 -1.25076E+02 -1.24689E+02 -1.23989E+02 -1.23347E+02 -1.23611E+02 -1.26071E+02 -1.28415E+02 -1.28233E+02 -1.23325E+02
  -1.16116E+02 -1.11506E+02 -1.06925E+02 -1.01993E+02 -1.00082E+02 -9.94149E+01 -9.85239E+01 -9.71345E+01 -9.51989E+01 -9.25817E+01
  -8.97212E+01 -8.77822E+01 -8.63016E+01 -8.47717E+01 -8.39418E+01 -8.41672E+01 -8.50735E+01 -8.51197E+01 -8.29286E+01 -7.90845E+01
  -7.56294E+01 -7.44987E+01 -7.52976E+01 -7.54695E+01 -7.44535E+01 -7.25005E+01 -7.01707E+01 -6.90756E+01 -6.90763E+01 -6.98087E+01
  -7.10749E+01 -7.25541E+01 -7.39215E+01 -7.45289E+01 -7.48143E+01 -7.49410E+01 -7.48575E+01 -7.44270E+01 -7.31017E+01 -7.08399E+01
  -6.89333E+01 -6.74935E+01 -6.50682E+01 -6.33514E+01 -6.38318E+01 -6.44226E+01 -6.55934E+01 -6.64755E+01 -6.65791E+01 -6.69421E+01
  -6.73957E+01 -6.66387E+01 -6.34064E+01 -5.90997E+01 -5.65777E+01 -5.48119E+01 -5.41255E+01 -5.45437E+01 -5.52864E+01 -5.63508E+01
  -5.69836E+01 -5.71230E+01 -5.74857E+01 -5.75035E+01 -5.71644E+01 -5.57661E+01 -5.45796E+01 -5.34818E+01 -5.20598E+01 -5.09689E+01
  -5.03904E+01 -4.96520E+01 -4.91181E+01 -4.84484E+01 -4.83051E+01 -4.82925E+01 -4.94677E+01 -5.19184E+01 -5.46592E+01 -5.73544E+01
  -5.99642E+01 -6.13378E+01 -6.24660E+01 -6.46313E+01 -6.73435E+01 -7.06681E+01 -7.62022E+01 -8.38929E+01 -9.19941E+01 -9.76753E+01
