 
 $NMID
 ID=''
 FMTDAT='(2E13.5)'
 TRAMP=   1.00000E+0
 VOLUME=   1.00000E+0
 $END
  -9.50245E+4   7.52397E+5
  -9.56775E+5   1.84325E+6
  -7.17676E+5   1.88981E+6
  -7.87788E+5   1.69656E+6
  -9.04445E+5   1.75618E+6
  -8.18469E+5   1.78208E+6
  -8.18171E+5   1.69619E+6
  -8.93540E+5   1.70174E+6
  -8.78992E+5   1.69606E+6
  -9.01770E+5   1.64143E+6
  -9.45261E+5   1.63071E+6
  -9.45935E+5   1.60090E+6
  -9.72600E+5   1.55733E+6
  -1.00411E+6   1.54752E+6
  -1.01207E+6   1.51045E+6
  -1.03814E+6   1.46659E+6
  -1.06064E+6   1.45838E+6
  -1.06668E+6   1.42924E+6
  -1.09153E+6   1.39264E+6
  -1.10329E+6   1.38439E+6
  -1.10399E+6   1.35587E+6
  -1.12410E+6   1.32309E+6
  -1.14036E+6   1.30767E+6
  -1.14705E+6   1.27830E+6
  -1.16460E+6   1.24355E+6
  -1.17090E+6   1.22784E+6
  -1.18107E+6   1.19906E+6
  -1.20156E+6   1.16323E+6
  -1.21112E+6   1.13507E+6
  -1.21429E+6   1.10982E+6
  -1.23026E+6   1.08269E+6
  -1.23627E+6   1.05814E+6
  -1.23792E+6   1.03020E+6
  -1.24643E+6   1.00817E+6
  -1.24941E+6   9.87693E+5
  -1.24906E+6   9.66647E+5
  -1.25566E+6   9.49022E+5
  -1.26112E+6   9.28041E+5
  -1.26258E+6   9.00196E+5
  -1.26645E+6   8.76995E+5
  -1.26885E+6   8.53759E+5
  -1.27078E+6   8.26678E+5
  -1.27165E+6   8.02435E+5
  -1.27243E+6   7.79978E+5
  -1.27455E+6   7.53613E+5
  -1.27880E+6   7.29526E+5
  -1.28003E+6   7.05347E+5
  -1.28000E+6   6.78243E+5
  -1.27813E+6   6.54698E+5
  -1.27637E+6   6.34573E+5
  -1.27576E+6   6.12785E+5
  -1.27523E+6   5.90820E+5
  -1.27360E+6   5.71234E+5
  -1.27234E+6   5.49818E+5
  -1.27086E+6   5.26793E+5
  -1.26859E+6   5.04209E+5
  -1.26560E+6   4.81097E+5
  -1.26134E+6   4.57178E+5
  -1.25603E+6   4.35800E+5
  -1.25275E+6   4.15759E+5
  -1.24942E+6   3.93691E+5
  -1.24534E+6   3.71978E+5
  -1.24065E+6   3.50847E+5
  -1.23579E+6   3.30014E+5
  -1.22897E+6   3.08776E+5
  -1.22096E+6   2.88868E+5
  -1.21351E+6   2.69928E+5
  -1.20663E+6   2.51810E+5
  -1.20106E+6   2.32537E+5
  -1.19538E+6   2.12299E+5
  -1.18759E+6   1.91819E+5
  -1.17842E+6   1.73398E+5
  -1.17131E+6   1.55363E+5
  -1.16479E+6   1.36357E+5
  -1.15577E+6   1.17380E+5
  -1.14587E+6   9.95021E+4
  -1.13805E+6   8.20944E+4
  -1.12959E+6   6.50510E+4
  -1.11991E+6   4.70288E+4
  -1.11029E+6   2.97332E+4
  -1.10074E+6   1.27666E+4
  -1.09021E+6  -3.28238E+3
  -1.08046E+6  -1.95857E+4
  -1.07055E+6  -3.65895E+4
  -1.05972E+6  -5.37816E+4
  -1.04814E+6  -6.99316E+4
  -1.03765E+6  -8.48481E+4
  -1.02729E+6  -1.00318E+5
  -1.01585E+6  -1.15800E+5
  -1.00391E+6  -1.29761E+5
  -9.92311E+5  -1.42217E+5
  -9.81785E+5  -1.55199E+5
  -9.70785E+5  -1.69036E+5
  -9.58487E+5  -1.81530E+5
  -9.45680E+5  -1.92586E+5
  -9.34237E+5  -2.02967E+5
  -9.23283E+5  -2.14294E+5
  -9.12292E+5  -2.25432E+5
  -9.00501E+5  -2.36148E+5
  -8.88915E+5  -2.46257E+5
  -8.77946E+5  -2.56888E+5
  -8.65903E+5  -2.67611E+5
  -8.52975E+5  -2.77887E+5
  -8.40480E+5  -2.87328E+5
  -8.28030E+5  -2.95474E+5
  -8.17112E+5  -3.03478E+5
  -8.06231E+5  -3.11964E+5
  -7.93792E+5  -3.21269E+5
  -7.80525E+5  -3.28866E+5
  -7.68610E+5  -3.34383E+5
  -7.58117E+5  -3.40537E+5
  -7.47413E+5  -3.48801E+5
  -7.35185E+5  -3.56754E+5
  -7.22586E+5  -3.63172E+5
  -7.11068E+5  -3.69834E+5
  -6.99423E+5  -3.76808E+5
  -6.86945E+5  -3.83527E+5
  -6.73773E+5  -3.89148E+5
  -6.61560E+5  -3.93640E+5
  -6.50662E+5  -3.97856E+5
  -6.39674E+5  -4.02674E+5
  -6.28190E+5  -4.07768E+5
  -6.17209E+5  -4.12210E+5
  -6.05916E+5  -4.16586E+5
  -5.93711E+5  -4.21047E+5
  -5.81750E+5  -4.24340E+5
  -5.70007E+5  -4.27754E+5
  -5.58325E+5  -4.31192E+5
  -5.46631E+5  -4.34746E+5
  -5.35202E+5  -4.38411E+5
  -5.23255E+5  -4.42894E+5
  -5.10116E+5  -4.46569E+5
  -4.97989E+5  -4.49024E+5
  -4.86676E+5  -4.51368E+5
  -4.75308E+5  -4.54228E+5
  -4.62879E+5  -4.56620E+5
  -4.51265E+5  -4.57993E+5
  -4.40647E+5  -4.59467E+5
  -4.29630E+5  -4.61923E+5
  -4.17919E+5  -4.63969E+5
  -4.05756E+5  -4.64789E+5
  -3.94713E+5  -4.64772E+5
  -3.84140E+5  -4.65227E+5
  -3.73835E+5  -4.66362E+5
  -3.62602E+5  -4.67568E+5
  -3.51269E+5  -4.67790E+5
  -3.39793E+5  -4.67774E+5
  -3.28863E+5  -4.67537E+5
  -3.17919E+5  -4.67223E+5
  -3.07494E+5  -4.66559E+5
  -2.97015E+5  -4.65340E+5
  -2.87182E+5  -4.64523E+5
  -2.77582E+5  -4.63503E+5
  -2.68254E+5  -4.62886E+5
  -2.58460E+5  -4.61323E+5
  -2.48379E+5  -4.59542E+5
  -2.39510E+5  -4.57934E+5
  -2.30694E+5  -4.56488E+5
  -2.21369E+5  -4.54457E+5
  -2.12370E+5  -4.52422E+5
  -2.03788E+5  -4.50574E+5
  -1.94996E+5  -4.48382E+5
  -1.86186E+5  -4.45958E+5
  -1.77293E+5  -4.43311E+5
  -1.69209E+5  -4.40182E+5
  -1.61742E+5  -4.37751E+5
  -1.54021E+5  -4.35692E+5
  -1.46188E+5  -4.33540E+5
  -1.38269E+5  -4.30406E+5
  -1.30743E+5  -4.27473E+5
  -1.24048E+5  -4.24348E+5
  -1.16904E+5  -4.21607E+5
  -1.09973E+5  -4.18945E+5
  -1.02621E+5  -4.15499E+5
  -9.61840E+4  -4.12120E+5
  -8.95048E+4  -4.08945E+5
  -8.27251E+4  -4.06132E+5
  -7.57986E+4  -4.02891E+5
  -6.90495E+4  -3.98911E+5
  -6.31516E+4  -3.95257E+5
  -5.72215E+4  -3.92383E+5
  -5.12451E+4  -3.89271E+5
  -4.48072E+4  -3.85515E+5
  -3.91183E+4  -3.81622E+5
  -3.32698E+4  -3.78061E+5
  -2.81055E+4  -3.74339E+5
  -2.28877E+4  -3.70161E+5
  -1.76979E+4  -3.66056E+5
  -1.29581E+4  -3.62282E+5
  -8.57651E+3  -3.58617E+5
  -3.43831E+3  -3.55358E+5
   2.08965E+3  -3.51344E+5
   7.45737E+3  -3.47105E+5
   1.18537E+4  -3.42393E+5
   1.65516E+4  -3.38396E+5
   2.08398E+4  -3.34475E+5
   2.58018E+4  -3.30403E+5
   3.02523E+4  -3.25845E+5
   3.47291E+4  -3.21639E+5
   3.92133E+4  -3.17229E+5
   4.37998E+4  -3.12809E+5
   4.78384E+4  -3.08116E+5
   5.17398E+4  -3.03099E+5
   5.51774E+4  -2.99101E+5
   5.92727E+4  -2.94680E+5
   6.28887E+4  -2.90160E+5
   6.66651E+4  -2.85342E+5
   7.01211E+4  -2.80615E+5
   7.33823E+4  -2.76364E+5
   7.70517E+4  -2.71550E+5
   8.04903E+4  -2.66303E+5
   8.35503E+4  -2.61603E+5
   8.62570E+4  -2.57458E+5
   8.92868E+4  -2.53399E+5
   9.28390E+4  -2.48279E+5
   9.57281E+4  -2.43091E+5
   9.80609E+4  -2.38198E+5
   1.00295E+5  -2.33725E+5
   1.02629E+5  -2.29245E+5
   1.05025E+5  -2.24728E+5
   1.07163E+5  -2.20267E+5
   1.08999E+5  -2.15503E+5
   1.11272E+5  -2.11248E+5
   1.13240E+5  -2.06991E+5
   1.15017E+5  -2.02252E+5
   1.16547E+5  -1.97627E+5
   1.17703E+5  -1.93299E+5
   1.18991E+5  -1.89387E+5
   1.20922E+5  -1.85335E+5
   1.22403E+5  -1.80978E+5
   1.23598E+5  -1.76572E+5
   1.24160E+5  -1.72307E+5
   1.25203E+5  -1.68413E+5
   1.26335E+5  -1.64843E+5
   1.27105E+5  -1.60623E+5
   1.27584E+5  -1.56949E+5
   1.28627E+5  -1.53434E+5
   1.29080E+5  -1.49789E+5
   1.29664E+5  -1.46071E+5
   1.29956E+5  -1.42495E+5
   1.30100E+5  -1.38922E+5
   1.30098E+5  -1.35766E+5
   1.30581E+5  -1.32509E+5
   1.30826E+5  -1.28900E+5
   1.30746E+5  -1.25456E+5
   1.31008E+5  -1.22447E+5
   1.31004E+5  -1.19451E+5
   1.31313E+5  -1.16307E+5
   1.30972E+5  -1.12693E+5
   1.30384E+5  -1.09843E+5
   1.30246E+5  -1.07282E+5
   1.30399E+5  -1.04546E+5
   1.30318E+5  -1.00956E+5
   1.29866E+5  -9.82069E+4
   1.29098E+5  -9.54264E+4
   1.28717E+5  -9.28981E+4
   1.28408E+5  -9.01286E+4
   1.28110E+5  -8.73451E+4
   1.27676E+5  -8.44873E+4
   1.27267E+5  -8.22341E+4
   1.27027E+5  -7.93413E+4
   1.26954E+5  -7.64723E+4
   1.26019E+5  -7.36047E+4
   1.25286E+5  -7.09413E+4
   1.24395E+5  -6.88102E+4
   1.24124E+5  -6.66924E+4
   1.23525E+5  -6.39788E+4
   1.22849E+5  -6.14467E+4
   1.22051E+5  -5.90512E+4
   1.21178E+5  -5.69294E+4
   1.20389E+5  -5.48309E+4
   1.19459E+5  -5.23619E+4
   1.18715E+5  -5.03316E+4
   1.17910E+5  -4.82324E+4
   1.17525E+5  -4.63764E+4
   1.16505E+5  -4.36955E+4
   1.15569E+5  -4.14341E+4
   1.14397E+5  -3.91473E+4
   1.13537E+5  -3.75012E+4
   1.12833E+5  -3.56145E+4
   1.11868E+5  -3.37494E+4
   1.11001E+5  -3.15914E+4
   1.09905E+5  -3.00007E+4
   1.08852E+5  -2.83142E+4
   1.07737E+5  -2.63512E+4
   1.06991E+5  -2.43629E+4
   1.05528E+5  -2.26349E+4
   1.04361E+5  -2.14478E+4
   1.03525E+5  -2.01730E+4
   1.02846E+5  -1.86174E+4
   1.01484E+5  -1.70231E+4
   1.00419E+5  -1.53851E+4
   9.91623E+4  -1.42136E+4
   9.83035E+4  -1.26216E+4
   9.71903E+4  -1.15331E+4
   9.59750E+4  -1.01233E+4
   9.48205E+4  -9.08847E+3
   9.35921E+4  -7.70983E+3
   9.28150E+4  -6.27285E+3
   9.16202E+4  -5.21552E+3
   9.07030E+4  -4.14232E+3
   8.92716E+4  -3.45421E+3
   8.84460E+4  -2.52640E+3
   8.74521E+4  -1.71285E+3
   8.64150E+4  -4.07953E+2
   8.51328E+4   3.94997E+2
   8.39921E+4   1.37231E+3
   8.29083E+4   2.14774E+3
   8.17393E+4   3.06177E+3
   8.07094E+4   3.71398E+3
   7.96192E+4   4.42537E+3
   7.85212E+4   4.87608E+3
   7.77583E+4   5.68123E+3
   7.66431E+4   6.41273E+3
   7.55843E+4   6.96665E+3
   7.42666E+4   7.45484E+3
   7.32840E+4   8.20999E+3
   7.20734E+4   8.48546E+3
   7.13412E+4   9.20752E+3
   7.02565E+4   9.59290E+3
   6.89655E+4   1.00707E+4
   6.82079E+4   1.03613E+4
   6.69845E+4   1.07630E+4
   6.60599E+4   1.14181E+4
   6.49807E+4   1.15896E+4
   6.41406E+4   1.17779E+4
   6.30107E+4   1.21041E+4
   6.23930E+4   1.25454E+4
   6.09686E+4   1.29532E+4
   6.00091E+4   1.32481E+4
   5.89712E+4   1.34053E+4
   5.80599E+4   1.35092E+4
   5.70645E+4   1.39351E+4
   5.58666E+4   1.40420E+4
   5.50040E+4   1.41250E+4
   5.43000E+4   1.42647E+4
   5.33676E+4   1.47189E+4
   5.23604E+4   1.50397E+4
   5.12193E+4   1.49396E+4
   5.00604E+4   1.49266E+4
   4.93769E+4   1.50227E+4
   4.84992E+4   1.53590E+4
   4.76470E+4   1.56452E+4
   4.63622E+4   1.55000E+4
   4.56613E+4   1.56246E+4
   4.48563E+4   1.58786E+4
   4.40988E+4   1.56427E+4
   4.29903E+4   1.59017E+4
   4.22280E+4   1.57679E+4
   4.14667E+4   1.57334E+4
   4.08336E+4   1.59122E+4
   3.96715E+4   1.59207E+4
   3.88200E+4   1.61714E+4
   3.82369E+4   1.59447E+4
   3.73506E+4   1.60757E+4
   3.66196E+4   1.63555E+4
   3.57945E+4   1.59542E+4
   3.50420E+4   1.59204E+4
   3.44961E+4   1.59295E+4
   3.35338E+4   1.62178E+4
   3.28937E+4   1.62143E+4
   3.22561E+4   1.62685E+4
   3.15267E+4   1.57125E+4
   3.06808E+4   1.59834E+4
   3.02364E+4   1.57108E+4
   2.97596E+4   1.59967E+4
   2.88840E+4   1.61383E+4
