 LCModel (Version 6.3-1N) Copyright: S.W. Provencher.          Ref.: Magn. Reson. Med. 30:672-679 (1993).                
 Slice_N1@11_12  28-Feb-2025 11:37:04
 27 lines in following concentration table = NCONC+1
    Conc.  %SD /Cr+PCr  Metabolite                                         
 3.26E-04   3% 3.3E-04 Mac                                                 
    3.481  23%   3.512 Cr                                                  
    4.448  17%   4.488 PCr                                                 
    6.250  12%   6.305 Ins                                                 
    9.970   6%  10.059 NAA                                                 
    7.662  10%   7.730 Tau                                                 
    0.848  91%   0.856 PCho                                                
    0.475 155%   0.479 GPC                                                 
    9.213   9%   9.295 Glu                                                 
    5.780  12%   5.831 Gln                                                 
    2.296  24%   2.316 Ala                                                 
    1.411  71%   1.424 Asc                                                 
    2.182  38%   2.201 Asp                                                 
    0.422 104%   0.425 GABA                                                
    0.593  99%   0.598 Glc                                                 
    1.234  36%   1.245 GSH                                                 
    0.547 102%   0.552 Lac                                                 
    1.596  29%   1.610 NAAG                                                
    2.866  31%   2.891 PE                                                  
    1.323  17%   1.335 GPC+PCho                                            
   11.566   6%  11.669 NAA+NAAG                                            
   14.993   8%  15.127 Glu+Gln                                             
    7.929   8%   8.000 Cr+PCr                                              
   11.566   6%  11.669 NAA+NAAG                                            
    7.929   8%   8.000 Cr+PCr                                              
   14.993   8%  15.127 Glu+Gln                                             
   6 lines in following misc. output table
  FWHM = 0.024 ppm    S/N =   5                                            
  Data shift = 0.033 ppm                                                   
  Ph: 165 deg       0.0 deg/ppm                                            
  alphaB,S = 2.0E-01,   4.0E-01                                            
   19 spline knots.   Ns = 5(1)                                            
   2 inflections.     1 extrema                                            
  480 points on ppm-axis = NY
      4.100000     4.091866     4.083733     4.075600     4.067466     4.059333     4.051199     4.043066     4.034933     4.026799
      4.018666     4.010532     4.002399     3.994265     3.986132     3.977998     3.969864     3.961731     3.953597     3.945463
      3.937330     3.929196     3.921062     3.912929     3.904795     3.896662     3.888528     3.880394     3.872261     3.864127
      3.855993     3.847860     3.839726     3.831592     3.823459     3.815325     3.807191     3.799058     3.790924     3.782790
      3.774657     3.766523     3.758389     3.750256     3.742122     3.733989     3.725855     3.717721     3.709588     3.701454
      3.693320     3.685187     3.677053     3.668919     3.660786     3.652652     3.644518     3.636385     3.628251     3.620117
      3.611984     3.603850     3.595716     3.587583     3.579449     3.571316     3.563182     3.555048     3.546915     3.538781
      3.530647     3.522514     3.514380     3.506246     3.498113     3.489979     3.481845     3.473712     3.465578     3.457444
      3.449311     3.441177     3.433043     3.424910     3.416776     3.408643     3.400509     3.392375     3.384242     3.376108
      3.367974     3.359841     3.351707     3.343573     3.335440     3.327306     3.319172     3.311039     3.302905     3.294771
      3.286638     3.278504     3.270370     3.262237     3.254103     3.245970     3.237836     3.229702     3.221569     3.213435
      3.205301     3.197168     3.189034     3.180900     3.172767     3.164633     3.156499     3.148366     3.140232     3.132098
      3.123965     3.115831     3.107697     3.099564     3.091430     3.083297     3.075163     3.067029     3.058896     3.050762
      3.042628     3.034495     3.026361     3.018227     3.010094     3.001960     2.993826     2.985693     2.977559     2.969425
      2.961292     2.953158     2.945024     2.936891     2.928757     2.920624     2.912490     2.904356     2.896223     2.888089
      2.879955     2.871822     2.863688     2.855554     2.847421     2.839287     2.831153     2.823020     2.814886     2.806752
      2.798619     2.790485     2.782351     2.774218     2.766084     2.757951     2.749817     2.741683     2.733550     2.725416
      2.717282     2.709149     2.701015     2.692881     2.684748     2.676614     2.668480     2.660347     2.652213     2.644079
      2.635946     2.627812     2.619678     2.611545     2.603411     2.595278     2.587144     2.579010     2.570877     2.562743
      2.554609     2.546476     2.538342     2.530208     2.522075     2.513941     2.505807     2.497674     2.489540     2.481406
      2.473273     2.465139     2.457006     2.448872     2.440738     2.432605     2.424471     2.416337     2.408204     2.400070
      2.391936     2.383803     2.375669     2.367535     2.359402     2.351268     2.343134     2.335001     2.326867     2.318733
      2.310600     2.302466     2.294333     2.286199     2.278065     2.269932     2.261798     2.253664     2.245531     2.237397
      2.229263     2.221130     2.212996     2.204862     2.196729     2.188595     2.180461     2.172328     2.164194     2.156060
      2.147927     2.139793     2.131660     2.123526     2.115392     2.107259     2.099125     2.090991     2.082858     2.074724
      2.066590     2.058457     2.050323     2.042189     2.034056     2.025922     2.017788     2.009655     2.001521     1.993387
      1.985254     1.977120     1.968987     1.960853     1.952719     1.944586     1.936452     1.928318     1.920185     1.912051
      1.903917     1.895784     1.887650     1.879516     1.871383     1.863249     1.855115     1.846982     1.838848     1.830714
      1.822581     1.814447     1.806314     1.798180     1.790046     1.781913     1.773779     1.765645     1.757512     1.749378
      1.741244     1.733111     1.724977     1.716843     1.708710     1.700576     1.692442     1.684309     1.676175     1.668041
      1.659908     1.651774     1.643641     1.635507     1.627373     1.619240     1.611106     1.602972     1.594839     1.586705
      1.578571     1.570438     1.562304     1.554170     1.546037     1.537903     1.529769     1.521636     1.513502     1.505368
      1.497235     1.489101     1.480968     1.472834     1.464700     1.456567     1.448433     1.440299     1.432166     1.424032
      1.415898     1.407765     1.399631     1.391497     1.383364     1.375230     1.367096     1.358963     1.350829     1.342695
      1.334562     1.326428     1.318295     1.310161     1.302027     1.293894     1.285760     1.277626     1.269493     1.261359
      1.253225     1.245092     1.236958     1.228824     1.220691     1.212557     1.204423     1.196290     1.188156     1.180022
      1.171889     1.163755     1.155622     1.147488     1.139354     1.131221     1.123087     1.114953     1.106820     1.098686
      1.090552     1.082419     1.074285     1.066151     1.058018     1.049884     1.041750     1.033617     1.025483     1.017349
      1.009216     1.001082     0.992949     0.984815     0.976681     0.968548     0.960414     0.952280     0.944147     0.936013
      0.927879     0.919746     0.911612     0.903478     0.895345     0.887211     0.879077     0.870944     0.862810     0.854676
      0.846543     0.838409     0.830276     0.822142     0.814008     0.805875     0.797741     0.789607     0.781474     0.773340
      0.765206     0.757073     0.748939     0.740805     0.732672     0.724538     0.716404     0.708271     0.700137     0.692003
      0.683870     0.675736     0.667603     0.659469     0.651335     0.643202     0.635068     0.626934     0.618801     0.610667
      0.602533     0.594400     0.586266     0.578132     0.569999     0.561865     0.553731     0.545598     0.537464     0.529330
      0.521197     0.513063     0.504930     0.496796     0.488662     0.480529     0.472395     0.464261     0.456128     0.447994
      0.439861     0.431727     0.423593     0.415460     0.407326     0.399192     0.391059     0.382925     0.374792     0.366658
      0.358524     0.350391     0.342257     0.334124     0.325990     0.317856     0.309723     0.301589     0.293455     0.285322
      0.277188     0.269055     0.260921     0.252787     0.244654     0.236520     0.228386     0.220253     0.212119     0.203986
 NY phased data points follow
  -3.53338E+01 -4.74112E+01 -3.29364E+01 -5.09981E+01 -4.64479E+01 -2.92555E+01 -3.23770E+01 -3.66366E+01 -4.46421E+01 -5.31440E+01
  -5.03577E+01 -5.90507E+01 -5.87988E+01 -7.29063E+01 -6.95052E+01 -5.38182E+01 -7.50477E+01 -5.36417E+01 -7.91636E+01 -1.21026E+02
  -8.06418E+01 -7.42355E+01 -5.70689E+01 -1.64383E+01 -1.21371E+00  2.10246E+01  1.05551E+01  1.46339E+01  2.03113E+01  4.64833E+00
   1.23960E+01  8.94353E+00  6.59548E+00 -1.36569E+01 -4.08030E+00  1.19853E+01 -1.61256E+01 -1.92938E+01 -4.13200E+01 -6.38046E+01
  -6.29316E+01 -6.27020E+01 -6.06896E+01 -4.42239E+01 -1.83084E+01  7.83996E+00  2.83038E+01  3.26949E+01  3.33216E+01  3.03356E+01
   4.70446E+01  3.49844E+01  2.44515E+01  2.22252E+01 -8.54356E+00 -1.00312E+01  3.10289E+00  6.84807E-02 -3.23405E+01 -1.64499E+01
  -6.32349E+00 -2.47387E+01 -4.40943E+00  2.02143E+01  3.18701E+01  1.12729E+01  1.78384E+01  1.17305E+01 -2.09657E+01 -4.70192E+01
  -3.34838E+01 -8.32831E+00 -2.66655E+01  9.53506E+00  1.91145E+01  1.06390E+01  2.60772E+01  2.02265E+01  2.86519E+01  2.77125E+01
   2.79970E+01  1.38907E+01 -1.28855E+01 -3.07104E+01 -4.50496E+01 -3.83956E+01 -2.66204E+01 -1.09755E+01  1.65767E+01  1.38115E+01
   2.31967E+01  5.06890E+01  3.71367E+01  3.93315E+01  4.49610E+01  4.56854E+01  5.62172E+01  5.98962E+01  5.05073E+01  4.87589E+01
   5.46523E+01  2.85192E+01  3.13242E+01  2.31482E+01 -2.21031E+01 -4.04557E+01 -3.97022E+01 -3.69981E+01 -6.12754E+01 -1.14997E+02
  -1.81344E+02 -1.71489E+02 -1.09698E+02 -9.17377E+01 -8.21513E+01 -7.58376E+01 -4.58675E+01 -3.13115E+01 -5.09533E+01 -3.04721E+01
  -1.83521E+01 -3.99198E+00  1.81913E+00 -1.72104E+00  1.10659E+01  7.99767E+00  3.69534E+01  3.72071E+01  4.73262E+01  1.15614E+02
   1.44435E+02  8.31034E+01 -4.86664E+01 -1.01135E+02 -9.54984E+01 -1.00867E+02 -9.47379E+01 -8.40660E+01 -8.98098E+01 -8.65627E+01
  -6.75291E+01 -9.07418E+01 -8.10415E+01 -7.91561E+01 -8.86283E+01 -6.35499E+01 -7.89086E+01 -7.39986E+01 -6.61602E+01 -8.29701E+01
  -6.43067E+01 -5.22341E+01 -5.65351E+01 -5.19633E+01 -6.30907E+01 -4.80950E+01 -3.79288E+01 -4.86369E+01 -4.96658E+01 -5.52831E+01
  -3.13799E+01 -3.05392E+01 -3.13330E+01 -2.80030E+01 -3.68668E+01 -3.92398E+01 -5.16333E+01 -4.37994E+01 -4.12082E+01 -2.10158E+01
  -1.87789E+01 -1.58869E+01  9.66506E+00 -6.89276E+00 -1.38606E+01  4.52940E+00  1.72825E+01 -1.10748E-01 -5.84992E+00 -1.53716E+01
  -3.85947E+01 -4.40914E+01 -5.59594E+01 -6.27928E+01 -6.76651E+01 -5.26581E+01 -4.56189E+01 -5.15438E+01 -4.01227E+01 -4.07185E+01
  -4.17803E+01 -2.86625E+01 -3.21970E+01 -2.81555E+01 -7.17024E+00 -2.32359E+01 -2.94876E+01 -9.76425E+00 -1.65357E+01 -2.31517E+01
  -1.70443E+01 -1.74614E+01  1.99705E+00  8.99074E+00  5.19014E+00  1.26203E+01 -1.24083E+01 -2.79660E+01 -4.20648E+01 -3.78229E+01
  -4.23356E+01 -6.08588E+01 -2.87578E+01 -2.08990E+01 -7.74100E-01  3.27105E+01  3.90669E+01  4.11071E+01  4.48449E+01  3.09303E+01
  -2.86817E+00  1.29441E+00 -1.36046E+01 -2.67332E+01 -2.32981E+00  9.15225E-01 -8.83601E+00 -1.13667E+01  3.07338E-01 -3.09074E+00
  -1.52210E+01 -2.31501E+01 -3.12894E+01 -4.32875E+01 -6.72978E+01 -5.32318E+01 -5.54289E+01 -8.21286E+01 -7.80246E+01 -9.32273E+01
  -8.04846E+01 -6.79205E+01 -5.83084E+01 -3.61186E+01 -3.01507E+01 -4.12505E+00 -1.33808E+01 -6.66140E+00 -1.52011E+01 -2.48614E+01
  -7.46427E+00 -2.05615E+01 -2.67614E+01 -4.51195E+01 -4.54899E+01 -1.13516E+02 -1.02759E+02  5.01951E+01  1.35409E+02  1.71648E+02
   1.64202E+02  1.62845E+02  1.30016E+02  1.08743E+02  1.19149E+02  8.38468E+01  8.72155E+01  1.04403E+02  9.57285E+01  8.51044E+01
   8.61912E+01  7.61838E+01  8.05997E+01  9.45661E+01  8.96175E+01  8.31150E+01  7.33578E+01  7.61396E+01  7.97732E+01  9.27337E+01
   9.16358E+01  7.84484E+01  7.67918E+01  7.14496E+01  6.49573E+01  6.44819E+01  7.02812E+01  7.12009E+01  7.23750E+01  6.99571E+01
   7.24009E+01  6.94137E+01  5.57257E+01  5.73484E+01  5.21418E+01  5.41541E+01  6.48299E+01  4.36185E+01  5.60053E+01  5.86335E+01
   3.83348E+01  7.15684E+01  7.68021E+01  7.19884E+01  6.78636E+01  7.16854E+01  7.27276E+01  5.76204E+01  7.40286E+01  7.31595E+01
   5.62002E+01  3.26691E+01  5.11726E+01  6.70055E+01  6.25940E+01  7.38659E+01  6.42187E+01  7.45307E+01  7.09803E+01  6.03401E+01
   6.53283E+01  6.76348E+01  5.28255E+01  3.54254E+01  2.67707E+01  2.28774E+01  2.06465E+01 -3.82240E+00 -4.71280E+00  9.80751E+00
  -3.80965E+00 -3.43128E+01 -2.66206E+01 -4.20835E+01 -7.92192E+01 -6.68429E+01 -6.26363E+01 -6.65352E+01 -6.16395E+01 -4.49447E+01
  -5.32762E+01 -3.54050E+01 -2.58425E+01 -4.68006E+01 -2.97985E+01 -2.25137E+01 -4.06351E+00 -1.40704E+01 -1.93257E+01 -1.70639E+01
  -2.80765E+01 -2.06559E+01 -3.07690E+01 -1.59528E+01 -6.27215E+00 -1.62484E+01 -2.78177E+01 -3.98463E+01 -3.51415E+01 -2.39381E+01
  -2.24077E+01 -2.40201E+01 -1.71458E+01 -5.16371E+00 -7.99988E+00 -1.98145E+01  1.05749E+01  1.56951E+01 -1.02505E+00  1.74007E+01
   1.30833E+01  2.95371E+00  1.97708E+01  2.71998E+01  2.29354E+01  2.69105E+01  3.60126E+01  4.33148E+01  3.01337E+01  4.27806E+01
   6.32607E+01  5.91912E+01  7.46104E+01  7.32079E+01  7.42381E+01  9.75020E+01  1.00810E+02  1.10291E+02  1.14828E+02  1.04106E+02
   1.03306E+02  8.10645E+01  7.07199E+01  6.07709E+01  4.48302E+01  4.66824E+01  2.94332E+01  2.88777E+01  1.70226E+01  1.40892E+01
   8.49263E+00 -8.35057E+00 -4.96503E-01 -2.33054E+01 -2.66394E+01 -2.49410E+01 -2.60547E+01 -3.13221E+01 -4.66198E+01 -2.81078E+01
  -3.10411E+01 -4.39077E+01 -3.78584E+01 -2.63603E+01 -3.43468E+01 -5.07469E+01 -3.72512E+01 -3.20634E+01 -4.06909E+01 -3.93750E+01
  -3.88129E+01 -3.97285E+01 -4.17695E+01 -3.75612E+01 -3.88548E+01 -4.27050E+01 -3.06670E+01 -3.17151E+01 -4.57870E+01 -4.63690E+01
  -4.09006E+01 -4.60305E+01 -3.86378E+01 -4.16055E+01 -4.60836E+01 -2.79469E+01 -2.09948E+01 -1.95732E+01 -3.89224E+01 -3.70554E+01
  -3.56787E+01 -3.11520E+01 -2.71875E+01 -4.23298E+01 -1.17416E+01 -2.91495E+01 -3.87970E+01 -1.78997E+01 -2.99242E+01 -3.85184E+01
  -3.66291E+01 -2.80917E+01 -4.60376E+01 -3.58699E+01 -3.62660E+01 -4.11192E+01 -3.55414E+01 -4.06033E+01 -1.96144E+01 -2.40718E+01
  -2.07704E+01 -2.31382E+01 -3.04213E+01 -1.97694E+01 -1.92308E+01 -1.76596E+01 -2.94016E+01 -3.56358E+01 -2.97311E+01 -2.71320E+01
  -2.16593E+01 -1.38614E+01 -2.24165E+01 -2.35765E+01 -3.02645E+01 -3.80067E+01 -2.93362E+01 -3.40839E+01 -3.01402E+01 -3.46702E+01
 NY points of the fit to the data follow
  -4.03969E+01 -4.52100E+01 -5.44039E+01 -6.39860E+01 -5.84504E+01 -3.82515E+01 -2.51766E+01 -2.70703E+01 -3.47425E+01 -4.29962E+01
  -5.22322E+01 -6.02621E+01 -6.47297E+01 -6.63426E+01 -6.53106E+01 -6.32163E+01 -6.25926E+01 -6.40117E+01 -7.60875E+01 -9.97343E+01
  -9.34988E+01 -6.81620E+01 -4.89722E+01 -2.01040E+01  5.10304E+00  1.06347E+01  8.82571E+00  1.11629E+01  1.29414E+01  1.38083E+01
   1.32165E+01  1.18960E+01  1.06665E+01  8.29008E+00  3.97682E+00 -1.90255E+00 -8.25676E+00 -1.66319E+01 -3.29448E+01 -5.97452E+01
  -7.92142E+01 -7.51161E+01 -5.73939E+01 -3.75598E+01 -1.31276E+01  1.02191E+01  2.20532E+01  2.66992E+01  2.89939E+01  2.82512E+01
   2.54188E+01  2.27655E+01  1.92144E+01  1.18339E+01 -3.85473E-01 -9.82024E+00 -9.74439E+00 -1.65202E+01 -3.05726E+01 -2.47520E+01
  -1.31343E+01 -1.44960E+01 -6.42831E+00  1.22284E+01  2.18426E+01  2.55417E+01  2.92572E+01  1.74123E+01 -1.38507E+01 -3.14108E+01
  -2.45388E+01 -2.06110E+01 -1.89258E+01 -3.44049E+00  1.54357E+01  2.55430E+01  3.09372E+01  3.55702E+01  3.88489E+01  3.83808E+01
   2.93045E+01  1.56575E+01 -1.13621E+01 -3.49337E+01 -4.35316E+01 -4.21749E+01 -2.64892E+01 -6.80078E+00  7.38944E+00  1.60017E+01
   2.35604E+01  2.84410E+01  3.27810E+01  3.72875E+01  4.17113E+01  4.58789E+01  5.07357E+01  5.31094E+01  4.82654E+01  4.86609E+01
   5.76164E+01  5.35147E+01  3.57125E+01  2.25611E+01 -4.95086E+00 -3.26050E+01 -3.80545E+01 -3.28863E+01 -5.25940E+01 -1.15539E+02
  -1.56043E+02 -1.44199E+02 -1.18888E+02 -9.99491E+01 -8.05259E+01 -6.51228E+01 -5.62293E+01 -4.82187E+01 -4.04996E+01 -3.34694E+01
  -2.67008E+01 -1.96906E+01 -1.19711E+01 -3.33654E+00  6.59006E+00  1.89051E+01  3.39004E+01  4.87509E+01  6.58698E+01  1.06132E+02
   1.47953E+02  8.16373E+01 -4.45877E+01 -9.77636E+01 -1.00006E+02 -1.02462E+02 -9.75590E+01 -8.41169E+01 -7.97839E+01 -7.97747E+01
  -8.03934E+01 -8.12207E+01 -8.10593E+01 -8.08649E+01 -8.15587E+01 -8.07935E+01 -7.82157E+01 -7.50770E+01 -7.17274E+01 -6.80614E+01
  -6.43667E+01 -6.12436E+01 -5.91980E+01 -5.70949E+01 -5.33332E+01 -4.93876E+01 -4.76227E+01 -4.77648E+01 -4.72833E+01 -4.45947E+01
  -4.01959E+01 -3.77986E+01 -3.98232E+01 -4.26936E+01 -4.32266E+01 -4.11822E+01 -3.81053E+01 -3.68853E+01 -3.91062E+01 -4.04515E+01
  -3.10105E+01 -1.12572E+01 -4.81456E-01 -9.94365E+00 -2.12955E+01 -1.59977E+01 -1.74677E+00  2.95421E+00 -9.13686E+00 -2.46827E+01
  -3.32794E+01 -3.87207E+01 -4.34943E+01 -4.62045E+01 -4.73609E+01 -4.79491E+01 -4.75478E+01 -4.63907E+01 -4.53079E+01 -4.36335E+01
  -3.97250E+01 -3.88831E+01 -3.95599E+01 -2.85142E+01 -1.87064E+01 -2.29832E+01 -2.38793E+01 -1.77535E+01 -1.34274E+01 -1.48436E+01
  -1.71582E+01 -9.68320E+00  3.69712E+00  1.04471E+01  7.49218E+00  3.39264E+00 -1.14205E+00 -1.18823E+01 -2.46100E+01 -3.40854E+01
  -4.11104E+01 -4.17820E+01 -3.53910E+01 -2.89872E+01 -3.82354E+00  2.70853E+01  3.93714E+01  4.72986E+01  4.68011E+01  3.18961E+01
   1.81386E+01  1.30163E+01  1.15731E+01  1.32519E+01  1.60479E+01  1.75750E+01  1.65755E+01  1.18081E+01  4.14361E+00 -5.28917E+00
  -1.68819E+01 -2.94912E+01 -4.04062E+01 -5.14983E+01 -6.36121E+01 -7.16436E+01 -7.77193E+01 -8.39670E+01 -8.35754E+01 -8.04113E+01
  -7.64444E+01 -6.43160E+01 -5.13001E+01 -3.63179E+01 -2.11576E+01 -1.35020E+01 -1.07490E+01 -1.42153E+01 -1.97050E+01 -2.43087E+01
  -3.03851E+01 -4.15485E+01 -5.02075E+01 -3.47195E+01 -4.45872E+01 -1.20576E+02 -1.04269E+02  3.94454E+01  1.36148E+02  1.50596E+02
   1.51681E+02  1.46028E+02  1.26363E+02  1.13542E+02  1.08017E+02  1.03857E+02  9.94074E+01  9.53381E+01  9.17595E+01  8.88668E+01
   8.69632E+01  8.63384E+01  8.64219E+01  8.65698E+01  8.70438E+01  8.65822E+01  8.52368E+01  8.39432E+01  8.28489E+01  8.15146E+01
   7.95492E+01  7.69288E+01  7.43720E+01  7.24347E+01  7.01699E+01  6.73252E+01  6.47263E+01  6.21353E+01  5.92718E+01  5.60221E+01
   5.17658E+01  4.73455E+01  4.29255E+01  3.80453E+01  3.34205E+01  3.02367E+01  2.89853E+01  2.98817E+01  3.22434E+01  3.46924E+01
   3.71112E+01  4.01060E+01  4.33052E+01  4.60984E+01  4.86878E+01  5.10859E+01  5.29998E+01  5.48648E+01  5.76208E+01  6.07513E+01
   6.33853E+01  6.53167E+01  6.68667E+01  6.86768E+01  7.04447E+01  7.14049E+01  7.20708E+01  7.27166E+01  7.18635E+01  7.04961E+01
   7.10150E+01  6.71101E+01  4.96042E+01  3.22149E+01  1.66735E+01  2.41414E+00 -8.58661E-01 -8.93708E-01 -6.15738E+00 -1.40456E+01
  -2.13050E+01 -2.95437E+01 -3.61916E+01 -4.00567E+01 -4.04964E+01 -3.73784E+01 -3.19406E+01 -2.60280E+01 -2.06001E+01 -1.60538E+01
  -1.44450E+01 -1.51685E+01 -1.45015E+01 -1.36732E+01 -1.14543E+01 -6.40199E+00 -2.27096E+00 -3.97071E-01  7.63388E-01  1.60197E+00
   7.51056E-01 -1.26715E+00 -4.13272E+00 -8.89545E+00 -1.52611E+01 -2.08201E+01 -2.45858E+01 -2.67876E+01 -2.70854E+01 -2.57116E+01
  -2.32334E+01 -1.99129E+01 -1.60233E+01 -1.15031E+01 -7.14831E+00 -3.31393E+00  3.37126E-01  3.56028E+00  6.82671E+00  1.04633E+01
   1.40199E+01  1.72913E+01  2.06498E+01  2.43028E+01  2.82887E+01  3.32221E+01  3.83942E+01  4.35989E+01  5.01396E+01  5.79094E+01
   6.53738E+01  7.27492E+01  8.14245E+01  9.08720E+01  9.99147E+01  1.07852E+02  1.13479E+02  1.15296E+02  1.11162E+02  1.00889E+02
   8.72612E+01  7.38480E+01  6.21713E+01  5.19608E+01  4.41570E+01  3.80219E+01  3.08047E+01  2.13545E+01  1.12512E+01  6.96203E-01
  -1.01341E+01 -1.91546E+01 -2.54002E+01 -3.03570E+01 -3.43880E+01 -3.68866E+01 -3.82044E+01 -3.91489E+01 -4.01582E+01 -4.11486E+01
  -4.21949E+01 -4.27618E+01 -4.26176E+01 -4.23588E+01 -4.26523E+01 -4.26343E+01 -4.17993E+01 -4.13202E+01 -4.19141E+01 -4.21325E+01
  -4.10151E+01 -4.03380E+01 -4.05788E+01 -4.04926E+01 -3.98574E+01 -3.94795E+01 -3.95684E+01 -3.96158E+01 -3.91989E+01 -3.82976E+01
  -3.75750E+01 -3.72988E+01 -3.72807E+01 -3.72921E+01 -3.74686E+01 -3.72051E+01 -3.65326E+01 -3.60495E+01 -3.55076E+01 -3.50362E+01
  -3.47889E+01 -3.44862E+01 -3.39283E+01 -3.36745E+01 -3.36895E+01 -3.38792E+01 -3.38970E+01 -3.33286E+01 -3.28958E+01 -3.25323E+01
  -3.19312E+01 -3.18693E+01 -3.20817E+01 -3.17016E+01 -3.10533E+01 -3.06500E+01 -3.01464E+01 -2.97834E+01 -2.95918E+01 -2.92694E+01
  -2.86672E+01 -2.83677E+01 -2.85167E+01 -2.84710E+01 -2.83465E+01 -2.83090E+01 -2.81661E+01 -2.74895E+01 -2.63293E+01 -2.53797E+01
  -2.50993E+01 -2.54291E+01 -2.58501E+01 -2.57937E+01 -2.53402E+01 -2.50120E+01 -2.46791E+01 -2.39694E+01 -2.36691E+01 -2.39620E+01
 NY background values follow
    -8.371E+00   -8.438E+00   -8.504E+00   -8.570E+00   -8.636E+00   -8.701E+00   -8.766E+00   -8.831E+00   -8.895E+00   -8.959E+00
    -9.023E+00   -9.086E+00   -9.149E+00   -9.211E+00   -9.273E+00   -9.334E+00   -9.395E+00   -9.456E+00   -9.515E+00   -9.575E+00
    -9.633E+00   -9.691E+00   -9.748E+00   -9.805E+00   -9.861E+00   -9.917E+00   -9.971E+00   -1.002E+01   -1.008E+01   -1.013E+01
    -1.018E+01   -1.023E+01   -1.028E+01   -1.033E+01   -1.038E+01   -1.043E+01   -1.047E+01   -1.052E+01   -1.056E+01   -1.061E+01
    -1.065E+01   -1.069E+01   -1.073E+01   -1.077E+01   -1.081E+01   -1.085E+01   -1.089E+01   -1.092E+01   -1.096E+01   -1.099E+01
    -1.102E+01   -1.106E+01   -1.109E+01   -1.112E+01   -1.114E+01   -1.117E+01   -1.120E+01   -1.122E+01   -1.125E+01   -1.127E+01
    -1.129E+01   -1.131E+01   -1.133E+01   -1.135E+01   -1.137E+01   -1.138E+01   -1.140E+01   -1.141E+01   -1.142E+01   -1.143E+01
    -1.144E+01   -1.144E+01   -1.145E+01   -1.145E+01   -1.145E+01   -1.145E+01   -1.144E+01   -1.144E+01   -1.143E+01   -1.142E+01
    -1.140E+01   -1.139E+01   -1.137E+01   -1.135E+01   -1.133E+01   -1.130E+01   -1.127E+01   -1.124E+01   -1.121E+01   -1.117E+01
    -1.113E+01   -1.109E+01   -1.104E+01   -1.099E+01   -1.094E+01   -1.089E+01   -1.083E+01   -1.077E+01   -1.071E+01   -1.064E+01
    -1.057E+01   -1.050E+01   -1.043E+01   -1.035E+01   -1.027E+01   -1.019E+01   -1.010E+01   -1.002E+01   -9.926E+00   -9.834E+00
    -9.739E+00   -9.642E+00   -9.542E+00   -9.440E+00   -9.336E+00   -9.229E+00   -9.120E+00   -9.008E+00   -8.895E+00   -8.779E+00
    -8.661E+00   -8.540E+00   -8.418E+00   -8.293E+00   -8.167E+00   -8.038E+00   -7.908E+00   -7.776E+00   -7.643E+00   -7.507E+00
    -7.371E+00   -7.233E+00   -7.094E+00   -6.953E+00   -6.812E+00   -6.669E+00   -6.525E+00   -6.381E+00   -6.236E+00   -6.090E+00
    -5.943E+00   -5.795E+00   -5.648E+00   -5.499E+00   -5.351E+00   -5.202E+00   -5.053E+00   -4.904E+00   -4.755E+00   -4.606E+00
    -4.457E+00   -4.308E+00   -4.160E+00   -4.012E+00   -3.864E+00   -3.716E+00   -3.569E+00   -3.422E+00   -3.275E+00   -3.129E+00
    -2.983E+00   -2.838E+00   -2.693E+00   -2.548E+00   -2.404E+00   -2.260E+00   -2.117E+00   -1.975E+00   -1.832E+00   -1.691E+00
    -1.550E+00   -1.409E+00   -1.270E+00   -1.130E+00   -9.918E-01   -8.539E-01   -7.167E-01   -5.802E-01   -4.444E-01   -3.094E-01
    -1.751E-01   -4.159E-02    9.130E-02    2.236E-01    3.554E-01    4.868E-01    6.178E-01    7.486E-01    8.792E-01    1.010E+00
     1.140E+00    1.271E+00    1.401E+00    1.532E+00    1.663E+00    1.795E+00    1.927E+00    2.059E+00    2.192E+00    2.326E+00
     2.461E+00    2.596E+00    2.732E+00    2.870E+00    3.008E+00    3.148E+00    3.289E+00    3.431E+00    3.574E+00    3.719E+00
     3.866E+00    4.014E+00    4.163E+00    4.314E+00    4.465E+00    4.617E+00    4.770E+00    4.923E+00    5.077E+00    5.230E+00
     5.383E+00    5.536E+00    5.688E+00    5.839E+00    5.990E+00    6.139E+00    6.287E+00    6.433E+00    6.578E+00    6.720E+00
     6.861E+00    6.999E+00    7.135E+00    7.268E+00    7.398E+00    7.525E+00    7.649E+00    7.769E+00    7.886E+00    7.999E+00
     8.108E+00    8.213E+00    8.313E+00    8.408E+00    8.499E+00    8.585E+00    8.666E+00    8.742E+00    8.812E+00    8.877E+00
     8.936E+00    8.988E+00    9.035E+00    9.075E+00    9.109E+00    9.136E+00    9.157E+00    9.170E+00    9.176E+00    9.175E+00
     9.166E+00    9.149E+00    9.125E+00    9.092E+00    9.051E+00    9.002E+00    8.944E+00    8.877E+00    8.802E+00    8.717E+00
     8.623E+00    8.519E+00    8.406E+00    8.284E+00    8.152E+00    8.011E+00    7.860E+00    7.699E+00    7.529E+00    7.349E+00
     7.160E+00    6.961E+00    6.752E+00    6.533E+00    6.305E+00    6.067E+00    5.819E+00    5.561E+00    5.293E+00    5.016E+00
     4.728E+00    4.431E+00    4.123E+00    3.806E+00    3.478E+00    3.141E+00    2.793E+00    2.435E+00    2.067E+00    1.689E+00
     1.301E+00    9.027E-01    4.952E-01    7.890E-02   -3.456E-01   -7.778E-01   -1.217E+00   -1.663E+00   -2.115E+00   -2.573E+00
    -3.035E+00   -3.502E+00   -3.972E+00   -4.446E+00   -4.923E+00   -5.402E+00   -5.883E+00   -6.364E+00   -6.847E+00   -7.329E+00
    -7.811E+00   -8.292E+00   -8.771E+00   -9.248E+00   -9.722E+00   -1.019E+01   -1.066E+01   -1.112E+01   -1.158E+01   -1.203E+01
    -1.248E+01   -1.292E+01   -1.335E+01   -1.378E+01   -1.420E+01   -1.461E+01   -1.502E+01   -1.542E+01   -1.581E+01   -1.619E+01
    -1.657E+01   -1.694E+01   -1.730E+01   -1.765E+01   -1.799E+01   -1.832E+01   -1.865E+01   -1.896E+01   -1.927E+01   -1.956E+01
    -1.985E+01   -2.013E+01   -2.039E+01   -2.065E+01   -2.089E+01   -2.113E+01   -2.135E+01   -2.157E+01   -2.177E+01   -2.196E+01
    -2.214E+01   -2.231E+01   -2.247E+01   -2.261E+01   -2.275E+01   -2.287E+01   -2.299E+01   -2.309E+01   -2.319E+01   -2.328E+01
    -2.336E+01   -2.343E+01   -2.349E+01   -2.354E+01   -2.359E+01   -2.363E+01   -2.366E+01   -2.368E+01   -2.370E+01   -2.371E+01
    -2.372E+01   -2.372E+01   -2.371E+01   -2.370E+01   -2.368E+01   -2.366E+01   -2.364E+01   -2.361E+01   -2.357E+01   -2.354E+01
    -2.350E+01   -2.345E+01   -2.341E+01   -2.336E+01   -2.331E+01   -2.325E+01   -2.320E+01   -2.314E+01   -2.308E+01   -2.302E+01
    -2.295E+01   -2.289E+01   -2.282E+01   -2.276E+01   -2.269E+01   -2.262E+01   -2.255E+01   -2.248E+01   -2.241E+01   -2.234E+01
    -2.227E+01   -2.220E+01   -2.214E+01   -2.207E+01   -2.200E+01   -2.193E+01   -2.187E+01   -2.181E+01   -2.174E+01   -2.168E+01
    -2.163E+01   -2.157E+01   -2.151E+01   -2.146E+01   -2.141E+01   -2.136E+01   -2.131E+01   -2.127E+01   -2.122E+01   -2.118E+01
    -2.114E+01   -2.110E+01   -2.106E+01   -2.103E+01   -2.099E+01   -2.096E+01   -2.093E+01   -2.090E+01   -2.087E+01   -2.084E+01
    -2.082E+01   -2.079E+01   -2.077E+01   -2.075E+01   -2.073E+01   -2.071E+01   -2.069E+01   -2.067E+01   -2.065E+01   -2.064E+01
    -2.063E+01   -2.061E+01   -2.060E+01   -2.059E+01   -2.058E+01   -2.057E+01   -2.057E+01   -2.056E+01   -2.055E+01   -2.055E+01
    -2.054E+01   -2.054E+01   -2.054E+01   -2.054E+01   -2.053E+01   -2.053E+01   -2.053E+01   -2.053E+01   -2.053E+01   -2.053E+01
    -2.054E+01   -2.054E+01   -2.054E+01   -2.054E+01   -2.055E+01   -2.055E+01   -2.055E+01   -2.056E+01   -2.056E+01   -2.057E+01
 Mac      Conc. = 3.26E-04
  -3.16321E+01 -3.22922E+01 -3.26556E+01 -3.30229E+01 -3.33286E+01 -3.38736E+01 -3.52978E+01 -3.74846E+01 -3.99748E+01 -4.21322E+01
  -4.34031E+01 -4.39118E+01 -4.40165E+01 -4.37504E+01 -4.38925E+01 -4.59353E+01 -4.97180E+01 -5.12187E+01 -4.68716E+01 -4.08560E+01
  -3.68472E+01 -3.22548E+01 -2.71180E+01 -2.42171E+01 -2.32987E+01 -2.22738E+01 -2.10185E+01 -1.96704E+01 -1.74335E+01 -1.47481E+01
  -1.28981E+01 -1.17115E+01 -1.03042E+01 -9.21472E+00 -9.25520E+00 -1.03518E+01 -1.12587E+01 -1.01969E+01 -6.84817E+00 -3.35553E+00
  -2.19605E+00 -2.86656E+00 -3.37373E+00 -2.95247E+00 -1.38043E+00  4.32176E-01  1.36108E+00  1.37862E+00  7.32248E-01 -6.63913E-01
  -2.60697E+00 -4.19418E+00 -5.47530E+00 -6.53110E+00 -7.07177E+00 -7.59679E+00 -7.97405E+00 -7.03496E+00 -5.17404E+00 -4.07614E+00
  -2.95285E+00 -7.00336E-01  9.03179E-01  1.02960E+00  2.91042E-01 -1.12442E+00 -2.30884E+00 -2.64835E+00 -3.06973E+00 -4.34304E+00
  -4.68975E+00 -2.20999E+00  1.45014E+00  4.10930E+00  6.01962E+00  7.01334E+00  7.06560E+00  6.35947E+00  4.97620E+00  3.93127E+00
   3.44785E+00  2.85831E+00  2.11323E+00  2.18721E+00  3.15986E+00  4.06356E+00  4.81645E+00  5.94828E+00  6.98615E+00  7.50466E+00
   8.08059E+00  8.63558E+00  8.86992E+00  9.10502E+00  9.22729E+00  8.14198E+00  5.89344E+00  3.11671E+00 -1.43160E-01 -3.21128E+00
  -5.17631E+00 -6.88967E+00 -9.52307E+00 -1.25315E+01 -1.58843E+01 -2.06766E+01 -2.81916E+01 -3.71942E+01 -4.42585E+01 -4.74987E+01
