 
 $NMID
 ID=''
 FMTDAT='(2E13.5)'
 TRAMP=   1.00000E+0
 VOLUME=   1.00000E+0
 $END
  -6.86761E+3   1.11625E+4
   8.09115E+3  -5.18428E+2
  -2.93447E+3  -9.57613E+3
  -6.04412E+2   7.49109E+3
   4.35220E+3   3.03780E+3
  -4.09684E+3  -7.19262E+3
  -4.00469E+2  -1.77133E+2
   6.00843E+3   3.44362E+2
  -1.50067E+3  -2.05330E+3
  -2.07034E+3   4.69770E+3
   2.21471E+3   2.43506E+3
  -2.85305E+3  -3.37820E+3
  -2.29168E+3   1.12675E+3
   1.69514E+3   2.48072E+3
  -2.87007E+3  -1.83795E+3
  -1.94527E+3  -2.03375E+3
   3.40439E+3  -3.13616E+2
   7.74676E+2   8.36917E+2
  -1.42452E+3   7.55397E+2
   9.20273E+2  -8.91539E+2
  -7.33396E+2  -3.49324E+2
  -3.22471E+2   5.19308E+2
   2.08057E+3  -5.41605E+2
  -2.46107E+2   9.88205E+2
  -1.42584E+3   1.00755E+3
   1.26755E+3  -2.14829E+3
   2.00041E+3   3.98444E+2
  -2.96618E+2   3.21479E+3
  -1.65148E+3  -3.89116E+2
  -6.20438E+1  -1.33250E+3
   1.95197E+3   1.52307E+3
  -3.01329E+2   9.20374E+2
  -1.79757E+3   1.30935E+2
  -7.33048E+2   6.08992E+0
  -5.32080E+2  -1.49192E+3
   1.22808E+2  -2.00727E+3
   2.49797E+3   2.29830E+1
   1.17637E+3   9.91322E+2
  -1.09706E+3   6.56478E+2
   3.63050E+2   5.13980E+1
   9.77948E+1   4.52200E+2
  -1.43833E+3   3.54500E+2
  -5.30224E+2  -1.45002E+3
   7.96204E+2  -1.79719E+3
   4.94661E+2  -3.84338E+2
   1.36878E+3   3.48911E+2
   1.27598E+3   1.06020E+3
  -1.04069E+3   1.50297E+3
  -1.69789E+3   5.55750E+2
  -1.28589E+3  -8.94280E+2
  -3.38693E+2  -3.80554E+2
   8.00727E+1  -3.92176E+2
  -1.47717E+2  -7.67714E+2
   2.95834E+2   1.34952E+2
   6.03908E+2   1.04974E+2
   5.60745E+1   2.40521E+2
  -6.24465E+2   8.30319E+2
  -1.11355E+3   3.66946E+2
  -9.15276E+2  -1.39030E+3
   3.75731E+2  -1.19228E+3
   9.85538E+2   2.00230E+2
   8.33468E+2   1.18725E+2
   8.63744E+2   4.96567E+2
   4.73294E+2   1.42543E+3
  -9.99315E+2   1.29362E+3
  -1.55439E+3   5.07886E+2
  -5.49858E+2  -3.53844E+2
  -3.17065E+2  -1.45465E+3
   5.33907E+1  -8.61098E+2
   8.82458E+2   1.34168E+2
   4.82058E+2   1.90285E+2
  -4.24133E+2  -1.95018E+2
   1.40506E+2  -8.63782E+2
   7.58750E+2  -3.73763E+2
   4.84718E+2   5.89867E+2
  -2.89529E+2   4.94487E+2
   5.65635E+1  -2.95394E+2
   7.25971E+2  -1.31561E+2
   5.66470E+2   1.60798E+2
   1.54386E+2   4.80553E+2
  -4.75350E+2   4.33448E+2
  -2.00492E+2  -1.89990E+2
   7.88219E+1  -3.08031E+2
  -1.66135E+2  -1.15605E+2
  -4.30831E+2   2.06334E+2
  -1.00070E+2  -4.68513E+2
   2.87854E+2  -8.21677E+2
   3.83828E+2  -4.56778E+2
   4.81737E+2   2.05443E+1
   2.21612E+1  -8.09215E+1
   4.19358E+2  -1.62132E+2
   7.11140E+2  -4.18242E+2
   7.72333E+2   5.86178E+2
   3.55282E+2   7.32584E+2
  -5.21968E+2   4.94960E+2
  -7.40249E+2  -1.18588E+2
   1.24854E+2  -6.76285E+2
   5.69542E+2  -6.67619E+1
  -1.53196E+2   2.41165E+2
  -3.72525E+2  -3.91612E+2
   5.54736E+2  -5.02326E+2
   7.20579E+2  -5.39527E+1
   1.39153E+2   5.83957E+2
  -4.31393E+2   9.88704E+1
  -2.68175E+2  -6.06341E+2
   5.31990E+2  -2.36173E+2
   7.59793E+2   7.21258E+1
   3.48181E+2   4.45504E+2
  -1.94502E+2   6.59234E+2
  -6.46429E+2  -4.30879E+1
  -3.52322E+1  -5.62973E+2
   1.58661E+2  -5.18786E+2
   4.22266E+2   4.22130E+1
   1.53245E+2   1.44269E+2
   3.11632E+2   9.18584E+1
   2.63553E+2  -1.98627E+1
   4.38306E+2   3.32439E+2
  -2.94530E+2   7.16641E+2
  -5.06588E+2   4.45140E+1
  -6.10721E+2  -4.84809E+2
   4.08111E+1  -8.22774E+2
   5.31916E+2  -1.25576E+1
   1.82424E+2  -1.50777E+2
   8.90590E+1  -2.56163E+2
   3.59670E+2   1.92788E+2
  -3.08065E+1   4.47398E+2
  -1.74081E+2   1.78580E+2
  -2.55539E+2  -1.17120E+2
   1.38039E+2  -1.70056E+2
   1.58612E+2  -1.45693E+2
   3.34437E+2  -1.07479E+2
   2.40072E+2   4.10635E+2
  -4.03700E+2   2.69611E+2
  -3.55275E+2  -3.39288E+1
  -2.09600E+2  -3.92665E+2
  -2.41870E+2   7.20236E+1
  -1.29329E+2   1.37570E+2
  -4.58851E+1  -3.70943E+2
   5.13026E+1  -1.57130E+2
   3.00480E+2   3.12223E+2
   1.51405E+2   4.43204E+2
  -2.50687E+2   3.43884E+2
  -3.03473E+2  -1.83063E+2
  -1.50457E+1  -4.53916E+2
   1.45214E+2   3.16748E+1
   1.79961E+2   1.33084E+2
   1.16086E+2   1.05403E+2
   3.09090E+0   1.45066E+2
   7.31387E+0   4.18386E+2
  -1.68324E+2   9.02952E+1
  -1.56833E+2   3.28030E+2
  -1.65461E+2   7.49350E-1
  -2.24710E+2   3.36922E+1
   1.21083E+2  -2.59287E+1
  -1.72480E+2  -1.68740E+1
   4.09370E+1   4.06186E+1
   2.09453E+2  -6.21774E+1
   5.38753E+1   1.78726E+1
   1.70597E+2   3.49101E+1
   5.07682E+1   1.10916E+2
   1.03843E+1   2.29837E+2
   1.38016E+2  -3.35795E+0
   1.65046E+1   1.37772E+2
  -7.54074E+1   4.74712E+1
  -3.29064E+2   5.39891E+1
  -9.82942E+1   1.63097E+2
  -1.89027E+2  -1.08758E+2
   1.60223E+1   2.27887E+2
  -6.30604E+1   1.17108E+2
  -2.85297E+2   4.09011E+1
  -2.36411E+2  -9.68703E+0
   9.52850E+1   1.40682E+2
  -2.33721E+1  -8.30743E+1
  -8.37536E+1  -8.20502E+0
  -2.48773E+1  -2.08704E+1
  -1.79476E+2  -1.61261E+2
  -8.09478E+1  -2.25900E+2
  -1.19967E+2   9.62882E+1
  -1.72346E+2   3.28269E+2
  -4.21958E+2  -5.80537E+1
  -1.05048E+2  -2.19720E+2
   2.19968E+2  -2.15889E+2
   2.65591E+2  -2.68652E+1
  -1.53095E+2   2.39342E+2
  -2.35570E+2   5.97050E+1
   2.17225E-1   1.56745E+2
  -1.13046E+2   2.64146E+2
  -2.26873E+2   3.25353E+1
  -5.35291E+2   1.33611E+2
  -1.12257E+2  -3.56280E+2
   1.15422E+2   1.71680E+2
   1.73120E+2   3.97842E+1
  -7.12408E+0   2.00695E+2
  -1.91079E+2   3.14643E+2
  -1.42651E+2   2.88435E+2
  -5.57212E+1  -3.11212E+1
  -1.15887E+2  -2.91717E+1
   1.47465E+2   1.74794E+2
   5.56012E+1   7.06860E+1
   1.25390E+2   1.30320E+2
   3.15380E+1   1.66554E+2
   1.91566E+1   2.52108E+2
  -3.01310E+2   3.33654E+2
  -1.47843E+2   1.54259E+2
   2.12077E+2  -1.39893E+1
   1.42631E+2   8.51913E+1
  -7.49725E+1   3.41964E+1
  -6.69355E+1  -1.80794E+1
   2.30789E+1   1.41810E+2
   1.78335E+2   1.16295E+2
  -1.31129E+1   2.14680E+2
  -7.88057E+0   1.90643E+2
  -2.31055E+2   3.21204E+2
   7.47701E+1   2.36230E+2
   6.20575E+1   4.96989E+1
   2.96731E+2   1.47828E+2
   1.08753E+2   1.50694E+2
  -2.28219E+2   1.57689E+2
  -8.71863E+1   3.93314E+1
   1.59243E+2   5.88617E+1
  -1.17096E+2   1.03807E+2
  -2.31411E+2   1.15969E+1
   1.59042E+1  -2.05265E+2
   2.30463E+1  -7.41234E+1
   6.63810E+1   2.14515E+1
  -2.74425E+2  -1.24949E+1
   4.33655E+1   1.81421E+2
  -1.82817E+2  -1.11196E+2
   1.58858E+2   8.34789E+0
   6.58936E+1   3.09656E+1
  -2.08211E+0   9.96234E+1
  -3.33400E+1   1.00489E+2
  -1.63653E+2  -3.52862E+1
   6.32815E+1   2.54394E+2
  -1.39622E+1  -3.59395E+1
  -3.13841E+1  -2.47047E+2
  -1.07638E+2   1.52274E+2
  -3.22736E+1   1.64160E+2
   7.19764E+1   1.78290E+2
  -1.13627E+2   2.09547E+2
  -2.27514E+2  -9.20119E+1
   3.26978E+1   8.48052E+1
   1.08586E+2   1.88244E+2
  -1.13035E+2   3.49720E+1
  -9.51797E+1  -4.84790E+1
   5.25552E+1   1.35481E+2
  -1.61366E+2  -5.48622E+1
   1.50809E+2   7.40371E+0
  -1.52008E+2   2.95082E+2
  -3.76406E+2   9.53810E+1
   2.28539E+2   1.60498E+1
   4.19596E+1  -2.29698E+1
   2.95745E+1  -1.20146E+1
  -2.43204E+1  -9.01336E+1
   3.93933E+1  -1.22738E+1
  -1.90154E+2   5.51088E-1
  -8.25407E+1  -1.53528E+2
   1.19040E+2   1.49979E+1
   1.60700E+2   9.37135E+1
   1.05681E+2  -7.69826E+1
   2.24101E+1  -2.88557E+1
  -9.69026E+1   4.46564E+1
   1.33371E+1   1.37197E+2
  -1.72292E+2   4.94903E+1
  -8.81131E+1   9.57053E+1
  -1.56694E+1   3.53206E+1
   1.33236E+2   8.73423E+1
   8.30610E+1   2.18289E+2
  -1.23346E+2  -1.15756E+2
  -1.18777E+2   3.73778E+1
  -1.42407E+2   6.04083E+0
  -1.18044E+2  -1.09069E+2
  -1.84645E+2   1.47240E+2
   4.57341E+1  -2.28833E+2
  -7.39551E+0  -3.00150E+2
  -1.11362E+2   1.66307E+2
  -8.02777E+1  -7.08714E+1
  -5.39284E+1   1.29482E+2
  -6.09815E+1  -1.19820E+2
   7.51670E+1  -2.23239E+2
   1.21536E+2  -1.84074E+2
   1.84956E+2   7.06693E+1
   2.27202E+1  -6.88978E+1
  -2.69413E+2  -7.05064E+1
  -1.62599E+2  -4.96388E+1
  -1.17311E+2   4.76906E+1
  -1.00769E+2   2.75152E+2
   6.23363E+1  -1.34336E+1
  -3.13506E+2  -4.96656E+1
   4.40338E+1  -9.92314E+1
  -1.11529E+2   1.72298E+2
   6.31563E+1  -1.04493E+2
  -1.72974E+2   4.82726E+1
  -1.10014E+2  -1.13173E+2
  -8.82521E+1  -1.42289E+2
   1.14698E+2  -9.19462E+1
  -1.45893E+2   2.48626E+2
  -1.69735E+1   9.02072E+1
   3.18575E+0   8.50427E+1
   3.94018E+1   6.64849E+1
   1.33199E+2  -3.37531E+1
  -3.19979E+1  -6.61625E+1
   1.15565E+2   1.44642E+2
  -9.71293E+1  -5.63006E+1
  -2.33291E+1   7.29118E+1
  -1.04076E+2   8.86878E+1
   1.35110E+1   4.20372E+0
  -3.90546E+1  -1.52438E+1
   1.25788E+0  -7.38370E+1
  -4.48932E+1   3.16605E+2
  -7.63245E+1  -1.16512E+2
  -1.03450E+2  -1.19399E+2
  -5.50996E+1   8.26268E+1
   1.02704E+2  -3.49572E+1
   1.04922E+2  -1.51774E+2
   1.41632E+2  -2.22670E+0
   9.19840E+0   2.29079E+2
  -6.11495E+1  -5.26531E+1
   1.56172E+1   9.22936E+1
  -1.41158E+2  -7.14678E+0
  -2.25497E+2  -1.78395E+2
  -1.52721E+2  -2.41982E+2
   4.77256E+1   4.53264E+1
   7.45800E+0   1.99173E+1
   1.33120E+1  -1.42755E+2
  -1.11872E+1  -6.82562E+1
  -1.36076E+1   1.04923E+2
   1.94296E+2   2.85936E+2
   1.39963E+0  -2.40039E+2
  -2.42699E+1  -5.51086E+1
  -1.24001E+2   2.75276E+1
   5.48677E+1  -1.84964E+2
  -3.36974E+1  -1.10078E+2
   8.89142E+1  -7.07675E+1
  -2.29873E+2   1.89514E+2
   2.30392E+1  -1.15985E+1
   1.25089E+2   1.05905E+2
   4.24981E+2   7.43415E+1
   2.33191E+2   1.61902E+2
  -1.61779E+2  -6.21052E+1
   9.94768E+1   2.61703E+1
   9.03812E+1  -1.70366E+2
   1.28555E+2  -5.97650E+1
   1.98497E+1  -1.06556E+2
  -5.50571E+1   1.81561E+2
  -1.17786E+2  -6.27875E+1
  -5.23163E+0  -1.92155E+2
   1.03946E+2  -4.12269E+0
  -3.66254E+2  -1.58947E+2
   8.78623E+1   2.76688E+1
  -6.90518E+1   7.89096E+1
   1.95301E+2   1.16402E+2
   1.81093E+2  -7.31997E+1
   1.73287E+1   6.16121E+1
  -9.01199E+1   1.36230E+2
  -4.91476E+1  -6.15231E+1
  -2.33396E+2  -1.05027E+2
  -4.36754E+1  -1.29293E+2
  -2.46821E+2  -8.69748E+1
  -1.75112E+2   2.61440E+2
   2.24698E+1  -2.98927E+2
   4.06161E+1   3.38928E+1
  -1.43010E+1  -1.58800E+2
  -3.45491E+2   4.94401E+1
   2.47501E+2   2.01000E+2
  -3.00143E+1   1.41311E+2
   1.17408E+1   3.84889E+1
