 
 $NMID
 ID=''
 FMTDAT='(2E13.5)'
 TRAMP=   1.00000E+0
 VOLUME=   1.00000E+0
 $END
   2.88463E+5   7.02734E+5
   2.02908E+4   1.97555E+6
   1.78760E+5   1.91780E+6
   3.45197E+4   1.86697E+6
   9.15669E+3   1.95373E+6
   2.48487E+4   1.85944E+6
  -1.00742E+5   1.80693E+6
  -1.37406E+5   1.89079E+6
  -9.63525E+4   1.84850E+6
  -1.71745E+5   1.78251E+6
  -2.32180E+5   1.80144E+6
  -2.37324E+5   1.78050E+6
  -2.76438E+5   1.75074E+6
  -3.01056E+5   1.74561E+6
  -3.22369E+5   1.70507E+6
  -3.66995E+5   1.68247E+6
  -3.89762E+5   1.68826E+6
  -4.16299E+5   1.65006E+6
  -4.67964E+5   1.61822E+6
  -4.93114E+5   1.61003E+6
  -5.19928E+5   1.57683E+6
  -5.61968E+5   1.54960E+6
  -5.83054E+5   1.53402E+6
  -6.06515E+5   1.50168E+6
  -6.44428E+5   1.47273E+6
  -6.56892E+5   1.45562E+6
  -6.74168E+5   1.42767E+6
  -7.01578E+5   1.40572E+6
  -7.17665E+5   1.38229E+6
  -7.33112E+5   1.35212E+6
  -7.60469E+5   1.32854E+6
  -7.77976E+5   1.30455E+6
  -7.99354E+5   1.27247E+6
  -8.23019E+5   1.24613E+6
  -8.37368E+5   1.21798E+6
  -8.55679E+5   1.18890E+6
  -8.80297E+5   1.16488E+6
  -8.98595E+5   1.13524E+6
  -9.12437E+5   1.10251E+6
  -9.27814E+5   1.07891E+6
  -9.40535E+5   1.05233E+6
  -9.52171E+5   1.02137E+6
  -9.60743E+5   9.96870E+5
  -9.71134E+5   9.73652E+5
  -9.82405E+5   9.45302E+5
  -9.93176E+5   9.19914E+5
  -1.00365E+6   8.93761E+5
  -1.01747E+6   8.63171E+5
  -1.02712E+6   8.31439E+5
  -1.03477E+6   8.02666E+5
  -1.04538E+6   7.75195E+5
  -1.05653E+6   7.46873E+5
  -1.06456E+6   7.17325E+5
  -1.07310E+6   6.89706E+5
  -1.08083E+6   6.62130E+5
  -1.08774E+6   6.33728E+5
  -1.09274E+6   6.05064E+5
  -1.09627E+6   5.78179E+5
  -1.09896E+6   5.53662E+5
  -1.10339E+6   5.28152E+5
  -1.10727E+6   5.01577E+5
  -1.11012E+6   4.75611E+5
  -1.11383E+6   4.50587E+5
  -1.11652E+6   4.22798E+5
  -1.11679E+6   3.94440E+5
  -1.11637E+6   3.68959E+5
  -1.11624E+6   3.43785E+5
  -1.11524E+6   3.18110E+5
  -1.11515E+6   2.93430E+5
  -1.11521E+6   2.69117E+5
  -1.11330E+6   2.44006E+5
  -1.10895E+6   2.20242E+5
  -1.10614E+6   1.98631E+5
  -1.10454E+6   1.76320E+5
  -1.10057E+6   1.52788E+5
  -1.09473E+6   1.29897E+5
  -1.08995E+6   1.08120E+5
  -1.08612E+6   8.58722E+4
  -1.08013E+6   6.35116E+4
  -1.07281E+6   4.07481E+4
  -1.06594E+6   1.87172E+4
  -1.05857E+6  -2.21035E+3
  -1.05042E+6  -2.24977E+4
  -1.04185E+6  -4.35508E+4
  -1.03312E+6  -6.41328E+4
  -1.02360E+6  -8.25945E+4
  -1.01411E+6  -1.00238E+5
  -1.00434E+6  -1.18338E+5
  -9.94336E+5  -1.35815E+5
  -9.83819E+5  -1.51636E+5
  -9.72848E+5  -1.66851E+5
  -9.62158E+5  -1.82857E+5
  -9.51628E+5  -1.99742E+5
  -9.39109E+5  -2.15081E+5
  -9.25672E+5  -2.29510E+5
  -9.12658E+5  -2.43610E+5
  -9.00676E+5  -2.57223E+5
  -8.88440E+5  -2.70944E+5
  -8.74982E+5  -2.83978E+5
  -8.61396E+5  -2.96930E+5
  -8.48678E+5  -3.08596E+5
  -8.35670E+5  -3.20736E+5
  -8.21343E+5  -3.32846E+5
  -8.06368E+5  -3.43508E+5
  -7.92651E+5  -3.52606E+5
  -7.80167E+5  -3.61493E+5
  -7.66697E+5  -3.70870E+5
  -7.51572E+5  -3.80476E+5
  -7.36242E+5  -3.89051E+5
  -7.22018E+5  -3.95618E+5
  -7.08503E+5  -4.02840E+5
  -6.94471E+5  -4.11415E+5
  -6.79708E+5  -4.19765E+5
  -6.64771E+5  -4.26814E+5
  -6.49645E+5  -4.33874E+5
  -6.34955E+5  -4.40867E+5
  -6.19861E+5  -4.47820E+5
  -6.04562E+5  -4.53521E+5
  -5.89107E+5  -4.57757E+5
  -5.74719E+5  -4.61552E+5
  -5.61099E+5  -4.66273E+5
  -5.47304E+5  -4.71078E+5
  -5.32917E+5  -4.75134E+5
  -5.18448E+5  -4.78949E+5
  -5.03952E+5  -4.82680E+5
  -4.88807E+5  -4.85970E+5
  -4.74557E+5  -4.88092E+5
  -4.60410E+5  -4.90446E+5
  -4.46269E+5  -4.92861E+5
  -4.32025E+5  -4.95480E+5
  -4.17339E+5  -4.98112E+5
  -4.02163E+5  -5.00356E+5
  -3.87767E+5  -5.01013E+5
  -3.73978E+5  -5.01904E+5
  -3.60158E+5  -5.03159E+5
  -3.45970E+5  -5.03708E+5
  -3.32384E+5  -5.03542E+5
  -3.19619E+5  -5.03300E+5
  -3.06165E+5  -5.03156E+5
  -2.92560E+5  -5.02989E+5
  -2.79186E+5  -5.01835E+5
  -2.66256E+5  -4.99881E+5
  -2.54065E+5  -4.98018E+5
  -2.42305E+5  -4.96661E+5
  -2.30082E+5  -4.95322E+5
  -2.17671E+5  -4.93414E+5
  -2.05499E+5  -4.90117E+5
  -1.93729E+5  -4.87401E+5
  -1.82103E+5  -4.84316E+5
  -1.71253E+5  -4.81033E+5
  -1.60318E+5  -4.77744E+5
  -1.50172E+5  -4.73855E+5
  -1.40299E+5  -4.70068E+5
  -1.30424E+5  -4.66633E+5
  -1.20357E+5  -4.62762E+5
  -1.10441E+5  -4.58136E+5
  -1.01622E+5  -4.53339E+5
  -9.30553E+4  -4.49096E+5
  -8.41056E+4  -4.44511E+5
  -7.51691E+4  -4.39178E+5
  -6.71327E+4  -4.34774E+5
  -5.88530E+4  -4.29767E+5
  -5.05479E+4  -4.24311E+5
  -4.22294E+4  -4.18999E+5
  -3.48145E+4  -4.13130E+5
  -2.79775E+4  -4.07521E+5
  -2.12743E+4  -4.02346E+5
  -1.41583E+4  -3.97356E+5
  -7.41997E+3  -3.91634E+5
  -1.01620E+3  -3.85884E+5
   4.86707E+3  -3.80175E+5
   1.05713E+4  -3.74694E+5
   1.67950E+4  -3.68829E+5
   2.21326E+4  -3.63028E+5
   2.77207E+4  -3.57176E+5
   3.31520E+4  -3.51268E+5
   3.82401E+4  -3.45897E+5
   4.38742E+4  -3.39980E+5
   4.90417E+4  -3.33261E+5
   5.33499E+4  -3.27205E+5
   5.81683E+4  -3.21753E+5
   6.27712E+4  -3.16211E+5
   6.73294E+4  -3.10359E+5
   7.15793E+4  -3.04144E+5
   7.56057E+4  -2.98225E+5
   7.94010E+4  -2.92340E+5
   8.30222E+4  -2.86477E+5
   8.65800E+4  -2.80241E+5
   8.93483E+4  -2.74511E+5
   9.19583E+4  -2.69249E+5
   9.58257E+4  -2.63562E+5
   9.89532E+4  -2.58061E+5
   1.02276E+5  -2.52347E+5
   1.05095E+5  -2.46194E+5
   1.07634E+5  -2.40402E+5
   1.10413E+5  -2.34829E+5
   1.12785E+5  -2.29044E+5
   1.14928E+5  -2.23602E+5
   1.17437E+5  -2.17879E+5
   1.19594E+5  -2.12331E+5
   1.21896E+5  -2.06781E+5
   1.23799E+5  -2.00712E+5
   1.25289E+5  -1.94948E+5
   1.26611E+5  -1.89719E+5
   1.28142E+5  -1.84852E+5
   1.29645E+5  -1.79396E+5
   1.30910E+5  -1.74010E+5
   1.31835E+5  -1.68849E+5
   1.32626E+5  -1.63581E+5
   1.33741E+5  -1.58482E+5
   1.34786E+5  -1.53446E+5
   1.35459E+5  -1.48478E+5
   1.35621E+5  -1.43560E+5
   1.36163E+5  -1.38834E+5
   1.37102E+5  -1.34144E+5
   1.37308E+5  -1.29248E+5
   1.37159E+5  -1.24647E+5
   1.36736E+5  -1.20167E+5
   1.36546E+5  -1.15799E+5
   1.36366E+5  -1.11486E+5
   1.36342E+5  -1.07326E+5
   1.35417E+5  -1.03018E+5
   1.35300E+5  -9.88974E+4
   1.34781E+5  -9.52154E+4
   1.34352E+5  -9.12891E+4
   1.33546E+5  -8.68285E+4
   1.32335E+5  -8.33129E+4
   1.31341E+5  -8.00636E+4
   1.30903E+5  -7.62809E+4
   1.30335E+5  -7.25006E+4
   1.29159E+5  -6.91125E+4
   1.27859E+5  -6.57023E+4
   1.26497E+5  -6.28471E+4
   1.25621E+5  -5.95553E+4
   1.24419E+5  -5.63887E+4
   1.22867E+5  -5.36923E+4
   1.21942E+5  -5.06562E+4
   1.20649E+5  -4.79574E+4
   1.19503E+5  -4.53174E+4
   1.18098E+5  -4.23232E+4
   1.16675E+5  -3.96354E+4
   1.15184E+5  -3.74219E+4
   1.13901E+5  -3.50912E+4
   1.12878E+5  -3.27019E+4
   1.11188E+5  -3.00368E+4
   1.09742E+5  -2.77911E+4
   1.08370E+5  -2.56832E+4
   1.07461E+5  -2.33992E+4
   1.05674E+5  -2.09545E+4
   1.04007E+5  -1.90736E+4
   1.02472E+5  -1.75155E+4
   1.01429E+5  -1.57754E+4
   1.00254E+5  -1.38024E+4
   9.85398E+4  -1.17075E+4
   9.68444E+4  -9.94386E+3
   9.55468E+4  -8.55553E+3
   9.42497E+4  -7.05357E+3
   9.28872E+4  -5.33865E+3
   9.14305E+4  -3.61475E+3
   9.04058E+4  -2.22405E+3
   8.88735E+4  -5.88343E+2
   8.73504E+4   9.67821E+2
   8.60465E+4   2.61383E+3
   8.42940E+4   3.69804E+3
   8.28875E+4   4.77121E+3
   8.15538E+4   5.97332E+3
   8.04012E+4   7.49525E+3
   7.88926E+4   8.56150E+3
   7.74450E+4   9.63033E+3
   7.61620E+4   1.02791E+4
   7.48109E+4   1.14427E+4
   7.35580E+4   1.24588E+4
   7.21718E+4   1.33125E+4
   7.08310E+4   1.40614E+4
   6.96025E+4   1.47475E+4
   6.83961E+4   1.56808E+4
   6.69083E+4   1.69363E+4
   6.55359E+4   1.73773E+4
   6.42359E+4   1.78718E+4
   6.30737E+4   1.83531E+4
   6.21059E+4   1.92758E+4
   6.06517E+4   1.97138E+4
   5.94523E+4   2.02938E+4
   5.83010E+4   2.05887E+4
   5.73556E+4   2.11071E+4
   5.60298E+4   2.17150E+4
   5.46336E+4   2.22722E+4
   5.31948E+4   2.23490E+4
   5.22712E+4   2.23923E+4
   5.12522E+4   2.26708E+4
   5.03467E+4   2.30409E+4
   4.92749E+4   2.37581E+4
   4.77425E+4   2.36060E+4
   4.65443E+4   2.38272E+4
   4.58275E+4   2.39170E+4
   4.46560E+4   2.41722E+4
   4.35710E+4   2.44216E+4
   4.24766E+4   2.44247E+4
   4.16803E+4   2.46675E+4
   4.03828E+4   2.47211E+4
   3.91754E+4   2.49541E+4
   3.80969E+4   2.46267E+4
   3.74386E+4   2.47496E+4
   3.68098E+4   2.50190E+4
   3.55731E+4   2.50983E+4
   3.43872E+4   2.51860E+4
   3.34335E+4   2.51801E+4
   3.26678E+4   2.50364E+4
   3.19478E+4   2.51320E+4
   3.10848E+4   2.47264E+4
   3.00738E+4   2.49423E+4
   2.92612E+4   2.47385E+4
   2.84153E+4   2.46146E+4
   2.79246E+4   2.50255E+4
   2.69468E+4   2.46965E+4
   2.60254E+4   2.46176E+4
   2.53299E+4   2.42622E+4
   2.45049E+4   2.44339E+4
   2.40085E+4   2.44272E+4
   2.30994E+4   2.43387E+4
   2.23947E+4   2.39954E+4
   2.19355E+4   2.39008E+4
   2.10620E+4   2.38645E+4
   2.02547E+4   2.39085E+4
   1.96713E+4   2.35991E+4
   1.92136E+4   2.31386E+4
   1.87005E+4   2.30015E+4
   1.81031E+4   2.32443E+4
   1.73767E+4   2.33344E+4
   1.65326E+4   2.29927E+4
   1.62248E+4   2.25671E+4
   1.56859E+4   2.24103E+4
   1.51968E+4   2.25258E+4
   1.47799E+4   2.22385E+4
   1.41923E+4   2.21129E+4
   1.38971E+4   2.21259E+4
   1.32720E+4   2.19378E+4
   1.27559E+4   2.16539E+4
   1.22401E+4   2.13837E+4
   1.18587E+4   2.10095E+4
   1.14047E+4   2.10321E+4
   1.10915E+4   2.08327E+4
   1.06264E+4   2.08190E+4
   1.01401E+4   2.05696E+4
   9.92232E+3   2.01447E+4
   9.43042E+3   2.02550E+4
   8.96966E+3   1.98941E+4
   8.32139E+3   1.96989E+4
   8.13616E+3   1.95815E+4
   7.88338E+3   1.93304E+4
   7.67199E+3   1.93816E+4
   7.18950E+3   1.94118E+4
   6.59321E+3   1.89873E+4
   6.37312E+3   1.89102E+4
   6.28102E+3   1.84060E+4
   5.98943E+3   1.85305E+4
   5.43635E+3   1.80929E+4
   5.13896E+3   1.79117E+4
   5.02368E+3   1.78360E+4
   4.64431E+3   1.77829E+4
   4.23303E+3   1.76968E+4
   3.80240E+3   1.73449E+4
   3.74496E+3   1.70659E+4
   3.54502E+3   1.69551E+4
   3.17373E+3   1.68147E+4
   2.72548E+3   1.69490E+4
   2.53036E+3   1.66447E+4
