 
 $NMID
 ID=''
 FMTDAT='(2E13.5)'
 TRAMP=   1.00000E+0
 VOLUME=   1.00000E+0
 $END
   2.53339E+4   3.07706E+3
   6.11507E+3  -1.50331E+4
  -1.88527E+3  -7.90439E+3
  -3.52970E+3   1.65399E+3
  -5.82925E+3   3.04140E+3
  -1.26918E+3   1.65195E+3
   5.70850E+3   1.23963E+3
   4.16800E+3   3.50509E+2
  -4.92343E+2  -1.19884E+3
  -2.39473E+3  -7.84063E+2
  -2.98033E+3   1.39639E+3
  -9.54775E+2   1.78917E+3
   1.73382E+3   6.41233E+2
   4.93670E+1  -8.20599E+2
  -1.22763E+3  -2.58059E+3
   6.88501E+2  -2.23871E+3
   1.01199E+3   7.44391E+2
  -8.15235E+2   1.67452E+3
   1.33415E+2  -1.29130E+2
   1.38970E+3  -5.74498E+2
   1.13109E+2  -2.70197E+1
  -4.21643E+2  -3.79361E+2
   3.92324E+2   3.88398E+2
  -1.80575E+1   7.09165E+2
  -5.53757E+2  -3.83019E+2
   7.34024E+2  -1.04611E+3
   1.37703E+3   5.77963E+2
  -1.03701E+3   1.26929E+3
  -1.81935E+3  -2.99970E+2
   1.46269E+2  -5.31034E+2
   9.02853E+2   2.69407E+2
   1.80309E+2   7.14573E+2
  -9.02090E+2   4.83330E+2
  -1.08037E+3  -4.53970E+2
   4.68116E+1  -1.35814E+3
   1.79895E+3  -4.90354E+2
   1.42796E+3   1.43709E+3
  -6.57346E+2   1.04541E+3
  -5.87358E+2  -7.10087E+2
   2.49501E+2  -2.69854E+2
  -5.74212E+2   4.47036E+2
  -5.97806E+2  -5.86775E+2
   6.08606E+2  -1.13708E+3
   9.88408E+2  -1.34598E+2
   4.56560E+2   6.44884E+2
   2.55357E+1   3.35392E+2
   2.10261E+2   4.18796E+2
  -6.84716E+2   9.57302E+2
  -9.20962E+2   1.57224E+2
  -4.49983E+2  -6.64983E+2
   1.81945E+2  -6.28002E+2
   3.28600E+2  -1.40241E+2
   3.47681E+2  -2.19139E+2
   8.82182E+1   1.18176E+2
  -1.07220E+1  -1.06435E+2
  -1.99456E+2   4.14243E+2
  -1.95507E+2   2.02446E+2
  -2.44030E+2  -7.53852E+1
   6.48012E+1  -6.15020E+2
   5.40557E+2  -4.16002E+2
   6.04676E+2   4.10794E+2
   1.14929E+2   3.15386E+2
  -3.32769E+2   5.64466E+2
  -3.29365E+2   5.75766E+2
  -4.77017E+2   5.51145E+2
  -9.04945E+2   1.73648E+2
  -3.80576E+2  -4.47819E+2
   3.39659E+2  -7.40569E+2
   3.34675E+2  -1.09349E+2
  -1.64992E+2   3.14796E+2
  -3.30681E+2   1.55913E+2
  -3.97029E+1  -4.01152E+2
   6.16213E+2   6.69318E+1
   7.29933E+2   7.12970E+2
  -3.35156E+2   2.38773E+2
  -1.93168E+2  -4.83011E+2
   5.30227E+2  -2.69997E+2
   1.06430E+2   1.11557E+2
  -2.05241E+2   1.75966E+2
  -1.84239E+2  -3.00772E+2
  -1.52718E+2  -1.19950E+2
  -3.92108E+2   3.75953E+1
   1.11271E+1  -9.07405E+1
   1.39893E+2  -2.95736E+2
  -1.78646E+2  -3.82857E+2
  -2.22078E+2   1.53776E+2
   3.04585E+2  -2.94276E+0
   2.49896E+2  -3.16665E+1
   1.64340E+2   1.47764E+2
  -3.82407E+1  -3.53279E+1
   3.13408E+2   4.28245E+1
   1.53901E+2   1.16265E+2
   4.98674E+0   3.06080E+2
  -3.30947E+2   2.21266E+2
  -2.69537E+2  -3.04714E+2
  -7.02458E+1  -4.10882E+2
  -8.15178E+1  -2.50029E+2
  -7.69613E+1  -1.30881E+2
  -1.97718E+2  -3.20541E+2
  -9.50011E+1  -3.50280E+2
   2.50273E+2  -1.22636E+2
   1.43410E+2   1.77874E+2
  -5.14262E+1   3.05596E+2
  -3.32484E+2  -3.95267E+2
   1.44396E+2   5.42559E+1
   2.23431E+2  -8.35090E+1
  -1.68136E+2   2.21018E+2
  -3.45708E+2   2.49531E+2
  -3.54716E+2  -1.27187E+2
  -1.28386E+2  -2.65961E+2
   3.55954E+2  -3.37774E+2
   1.51065E+2  -1.75062E+2
   3.23690E+1   4.89785E+2
  -3.01850E+2  -4.95165E+1
   1.29452E+1   1.81197E+2
  -1.58967E+2   2.17360E+2
  -2.55842E+2   2.87112E+2
  -1.21180E+2   1.40600E+2
  -3.88399E+2  -3.66656E+2
   2.11911E+2   1.64481E+1
   1.66445E+2  -1.55112E+2
   1.50037E+2   8.03165E+1
   1.29230E+2  -4.25552E+0
   7.19373E+1   1.27580E+1
   8.95620E+1   1.96090E+2
  -1.98102E+2   1.12260E+2
  -1.00056E+1   2.11057E+1
   1.33897E+2   7.04618E+1
   1.81160E+2   1.93447E+2
   6.15285E+1  -8.75657E+1
  -9.78595E+0   1.55085E+2
  -3.01101E+2  -1.19066E+1
  -8.40220E+1   7.91021E+1
   2.82280E+2  -1.71669E+2
  -1.46651E+2   1.02369E+2
  -2.43006E+2   2.15585E+1
   1.05805E+2  -9.57006E+1
   9.90210E+1   7.57089E+1
  -2.43331E+1   3.68235E+0
  -6.91204E+1   1.24869E+2
  -2.02831E+2  -2.49571E+2
  -9.25126E+1  -9.08637E+1
  -2.03545E+2  -2.32827E+2
   7.68404E+1  -1.16478E+2
  -1.93411E+2   2.05471E+1
  -8.55669E+1   1.63906E+2
  -1.28969E+2  -1.97865E+1
   5.43664E+1  -1.71444E+1
   1.83822E+2  -6.49456E+1
  -8.73796E+1  -8.86058E-1
   5.47783E+1  -1.11932E+2
   1.45734E+1   9.19013E+1
  -9.45712E+1   6.93106E-1
   1.16316E+2   1.83610E+2
   3.06171E+2   1.31923E+2
   2.02879E+1  -9.37134E+1
   1.75195E+2  -5.69037E+0
  -1.26746E+2  -5.44647E+1
   7.60336E+1  -1.19144E+2
   1.39433E+2  -2.89803E+1
  -1.35099E+0   5.49893E+1
  -3.06415E+2  -4.61294E+1
  -7.63771E+1   1.12425E+2
   9.81030E+1  -2.00392E+2
  -5.81723E+1  -3.38426E+2
   1.51208E+1  -2.79492E+2
  -7.67366E+1   8.61958E+1
   1.79521E+1   3.35379E+2
   2.26385E+1   3.70860E+1
   3.34165E+1  -2.17878E+2
   7.63252E+1   3.98294E+1
  -6.35262E+1   3.52163E+1
   1.31709E+2  -7.17356E-1
  -5.35534E+1  -5.38429E+1
  -7.16062E+1  -1.94414E+2
  -1.84419E+2  -5.21263E-1
  -3.59019E+1  -8.37647E+1
  -1.47439E+2   1.52676E+2
  -1.34593E+2   1.82882E+2
   1.65326E+2  -2.38669E+2
   4.04709E+1   2.13089E+1
   2.00757E+2   3.29637E+2
   1.40218E+2  -6.91480E+1
  -1.20081E+1   4.12242E+1
   6.57691E+1   1.27745E+2
   2.53531E+2  -7.01701E+1
   2.69208E+2   2.23922E+2
   2.29076E+1  -1.73649E+2
   3.05036E+1  -3.00704E+1
   1.57499E+2  -2.84659E+1
   2.28137E+2   2.05111E+2
   4.08212E+1   3.00416E+2
   6.13278E+1   1.20886E+2
   1.57608E+1  -1.26307E+2
   1.50521E+2  -6.77973E+1
   5.36617E+1  -2.63368E+1
   9.98905E+1  -2.26459E+1
  -1.77844E+2   1.34978E+2
   1.06055E+2  -3.45333E+1
  -1.42065E+2  -1.65822E+2
   8.75383E+1   1.98938E+2
   7.98761E+1   7.64188E+1
   3.58322E+2  -1.70573E+2
  -1.21434E+2  -1.14444E+2
   2.91836E+2  -3.21057E+2
   2.50069E+2  -1.41195E+2
   6.99220E+1  -6.11490E+1
   6.22329E+0   1.48537E+2
  -2.30441E+1   7.63365E+0
   1.72968E+2  -1.79689E+2
   1.46764E+2  -6.57248E+1
   7.63033E+1  -2.62422E+2
  -4.99325E+0  -1.56012E+2
   2.46539E+2  -3.20959E+1
  -3.43695E+1   9.84013E+1
   5.64898E+1   5.40185E+1
  -9.68544E+0   8.29214E+1
   7.91320E+1  -9.16457E+1
  -7.77684E+0  -1.63708E+2
  -4.83607E+1   1.19512E+2
   8.36406E+1   1.67331E+1
  -3.70806E+1  -5.77445E+1
   5.01130E+1   1.10943E+2
  -3.50514E+1   6.90820E+1
   2.47056E+2  -3.03950E+1
   3.93396E+0   6.31808E+1
  -1.16439E+2   4.88461E+1
  -6.23784E+1  -2.58738E+2
  -8.87981E+1  -3.24969E+1
  -1.38273E+1  -7.15757E+1
  -1.15702E+2  -4.03580E+1
   5.12354E+1  -7.77348E+1
  -4.15335E+0  -1.68812E+1
   2.31999E+2   1.02227E+2
   1.91991E+1  -4.82745E+1
   1.32218E+2   5.36442E+1
  -3.76150E+1   5.80147E+1
  -6.42841E+1   7.54455E+1
   7.49664E+1   1.59709E+2
  -1.78573E+2  -5.64488E+0
  -2.71810E+2  -2.21961E+2
   1.65825E+2  -4.90393E+1
  -8.18415E+1   5.40622E+1
  -6.48962E+1  -5.75461E+1
   1.68947E+1   4.49222E+1
  -1.10362E+2   1.17923E+1
  -3.50998E+1   4.57246E+0
   4.94391E+1   1.15139E+2
  -2.29540E+1  -1.34731E+2
   2.88284E+1  -1.37064E+1
  -1.20650E+2   1.47120E+2
   2.93422E+2  -7.00962E+1
  -1.03867E+2  -1.13939E+2
  -5.67447E+1   1.33687E+2
  -1.24649E+2   1.65407E+2
  -2.03102E+2   5.06589E+1
   7.16310E+0  -1.11154E+2
  -1.59170E+1  -3.91273E+1
   5.18491E+1   5.64335E+0
   5.14453E+1   6.42976E+1
  -2.30691E+1   3.81710E+1
  -8.17174E+1   1.33407E+2
   3.82996E+1   8.52356E+1
  -2.04095E+2   3.02181E+1
   3.29783E+1   2.25571E+1
   1.01721E+2   2.45626E+2
   2.21583E+2   5.96903E+1
   3.81062E+1   9.83765E+1
  -1.44494E+1   1.04401E+2
  -1.19077E+2   6.16093E+1
  -4.01560E+1   2.40944E+2
   2.67977E+2  -2.90396E+1
   3.15325E+1   7.33148E+1
  -1.07619E+2  -4.23105E+1
   1.29886E+0  -2.24781E+2
  -5.81836E+1  -1.05259E+2
   1.00131E+2  -1.19035E+2
   4.41723E+1   6.39732E+1
   4.57440E+1  -2.28426E+2
   1.55638E+2   1.59658E+2
   1.88489E+2   1.85070E+2
   1.07836E+2   1.59421E+2
   2.13767E+2  -8.36509E+1
   2.13568E+2   1.84799E+2
   1.99298E+2  -1.27919E+1
   2.61055E+2  -2.92423E+1
   8.78398E+0  -2.14429E+2
  -1.34593E+2  -7.98660E+1
   2.53733E+1   1.35614E+2
   4.14030E+1  -7.57882E+1
   3.01463E+0   2.47725E+2
  -1.11807E+2   1.47481E+1
  -7.14592E+1   1.09321E+2
   4.88586E+1  -9.83630E+1
   2.14335E+2   5.49315E+1
   8.66561E+0   1.38520E+2
   5.99759E+1  -8.15566E+1
   6.58934E+1   1.03399E+2
   1.34048E+2   4.95486E+1
   1.30734E+2   1.41689E+2
  -6.84049E+1  -5.45356E+0
   6.36733E+1   2.90019E+1
  -4.59864E+1   8.55765E+1
  -1.37428E+0   2.22443E+2
   2.23276E+2   6.70440E+1
  -1.97331E+0   1.41228E+2
  -1.17583E+2  -5.39578E+1
   6.87778E+0  -1.82855E+1
  -9.43246E+1  -7.96136E+1
  -1.67310E+2   8.22448E+1
   8.09288E+1  -7.30832E+1
  -3.91418E+1  -1.98933E+2
   3.03983E+1  -1.88097E+2
  -8.45860E+1   1.33638E+2
   7.97095E+1   8.82655E+1
  -1.00453E+1  -1.70300E+2
   8.22533E+1  -1.85594E+2
   1.14073E+2   1.11188E+2
  -3.81329E+1  -7.60375E+1
   7.63376E+1  -7.65748E+1
  -2.79874E+1   2.35375E+1
  -1.04206E+2  -2.17540E+2
  -6.47471E+1   2.42482E+2
   1.24720E+2   5.14744E+0
   2.32308E+2   1.76500E+0
   1.56654E+2   1.79315E+2
   1.07023E+1   1.69360E+2
  -3.46309E+1   1.15822E+2
  -9.38000E+1   7.52031E+1
   1.54234E+2   1.71376E+2
  -6.36955E+1   8.47486E+1
   6.36784E+1  -7.99957E+1
  -1.40108E+2   6.09899E+1
   8.41986E+1   4.40662E+1
   1.37749E+2   1.72619E+2
   3.93179E+2   8.51230E+1
  -8.02534E+1   8.35250E-1
  -1.73833E+2   4.74982E+1
  -1.38691E+1  -1.63648E+2
  -6.88921E+1  -7.53570E+1
   1.50844E+2   2.20731E+2
   1.23978E+1  -5.84709E+1
   1.64170E+1  -7.73066E+1
   1.20376E+2  -7.08270E+1
  -1.65173E+2  -4.33266E+1
  -2.38611E+1   1.45153E+2
   6.88060E+1   5.85863E+1
  -1.37859E+2   6.77421E+0
   1.53515E+1  -3.54097E+0
   3.24910E+2  -8.15906E+1
   1.09428E+2   4.97730E+1
   1.94571E+2   2.23430E+2
   2.14550E+0  -5.34944E+1
   5.43272E+1  -7.22692E+1
   1.70120E+1  -1.99414E+1
   4.30928E-1  -7.01851E+1
   1.78586E+1   1.54834E+2
   5.62900E+1  -1.53575E+1
   5.61500E+1   1.86816E+1
   8.80513E+1   1.04573E+2
   8.66635E+1   6.04884E+1
   9.84681E+1  -2.13430E+1
  -1.46119E+2   1.57643E+2
  -1.07096E+2   1.33910E+2
   1.91555E+2   2.99850E+1
   2.49976E+2   4.31659E+1
  -5.03183E+1   4.53184E+2
