 
 $NMID
 ID=''
 FMTDAT='(2E13.5)'
 TRAMP=   1.00000E+0
 VOLUME=   1.00000E+0
 $END
   2.33927E+4   7.69965E+4
   5.53057E+4  -1.57518E+3
   1.99795E+4  -2.89138E+4
  -1.01725E+4  -1.93229E+4
  -1.74649E+4  -5.81744E+3
  -8.95104E+3   9.75439E+3
   4.81341E+3   1.47602E+4
   8.96176E+3   2.97934E+3
   2.95917E+3  -5.73943E+3
  -3.10386E+3  -5.37537E+3
  -5.54635E+3  -2.33299E+3
  -2.83956E+3   3.16950E+3
   2.78508E+3   4.42651E+3
   4.38917E+3  -1.92131E+3
   2.66204E+3  -4.49057E+3
   4.19319E+2  -3.49571E+2
  -2.98382E+3   1.51804E+3
  -1.85914E+3   7.52438E+2
   2.31594E+3   9.43519E+2
   1.34386E+3  -2.42794E+2
  -1.28067E+3  -1.05083E+3
  -1.07699E+3   2.30416E+2
  -9.97937E+2   1.45907E+3
  -4.72344E+2   6.99515E+2
   1.64775E+3  -2.86455E+2
   5.79968E+2   3.72136E+1
  -2.34797E+3  -7.24810E+1
  -1.49078E+3  -1.00544E+3
   7.59987E+2  -5.03117E+2
   1.67247E+2   1.05885E+3
  -5.97584E+2   5.10450E+2
  -7.75528E+2  -3.98685E+2
   6.20004E+1  -9.96313E+2
   1.29511E+3  -2.09670E+2
   1.48482E+3   8.61371E+2
  -7.44268E+2   1.54996E+3
  -1.81987E+3   1.40291E+2
  -2.19521E+2  -1.19899E+3
   7.48824E+2   2.66824E+2
  -1.28730E+2   6.41066E+2
   1.88388E+0  -1.00392E+3
   1.10065E+3  -1.22331E+2
   1.45682E+2   9.17874E+2
  -9.69535E+2   7.38161E+2
  -2.80241E+2  -3.44386E+1
  -2.90225E+2  -3.00431E+2
  -7.08577E+2  -8.78280E+2
   2.26438E+2  -1.24098E+3
   1.21034E+3  -2.29486E+2
   5.92571E+2   4.34829E+2
  -1.19869E+2   2.23591E+2
   4.92773E+2   1.29110E+2
   4.23828E+2   1.70817E+1
  -2.91436E+2   9.95798E+1
  -4.37006E+2  -3.57805E+2
  -1.66659E+2  -6.60337E+2
   3.91490E+2  -2.73610E+2
   5.73743E+2   3.62126E+2
  -6.85374E+1   7.32378E+2
  -2.31707E+2   1.91913E+2
  -1.61218E+2  -3.32914E+2
  -2.33503E+2  -5.24679E+2
  -5.52122E+2  -9.63095E+2
  -5.62523E+1  -1.17525E+3
   9.59910E+2  -4.93093E+2
   8.98227E+2   3.66595E+2
   5.74402E+2   8.58186E+2
   1.60679E+2   4.89980E+2
  -4.66877E+2  -4.32149E+1
  -4.22030E+2  -4.71484E+2
  -4.18351E+1  -2.98873E+2
  -1.34736E+1   4.46621E+2
  -7.16850E+2   5.77457E+2
  -4.80020E+2  -2.81912E+2
   1.20447E+2  -4.27328E+2
   1.83122E+2  -8.12821E+0
   6.55267E+1  -1.44938E+2
  -3.70974E+2  -6.02421E+2
  -1.25432E+2  -2.56464E+2
   2.84963E+2   6.40811E+1
   4.33557E+2   3.88258E+2
   1.54906E+2   5.01138E+2
   1.91001E+2  -5.48002E+1
   2.17489E+2  -5.52959E+1
  -3.24483E+1   3.77338E+2
  -3.07582E+2   5.78018E+2
  -4.80137E+2   1.29317E+2
  -2.09185E+2  -1.62501E+1
   2.94004E+2  -6.03634E+1
  -1.08793E+2  -1.21299E+1
  -5.35291E+2   1.60167E+2
  -1.71874E+2  -3.80149E+2
   3.35750E+2  -4.38378E+2
   7.06326E+2  -9.04917E+1
   4.47593E+2   3.38721E+2
   1.30588E+2   6.25916E+2
  -4.08322E+1   1.66302E+2
  -6.06833E+1  -1.92516E+2
   3.15762E+2   3.82243E+2
  -4.45569E+2   5.27857E+2
  -4.61794E+2  -2.88329E+2
   2.24885E+2  -6.28910E+2
   4.12564E+2  -7.07010E+0
   6.00418E+1   4.14587E+2
  -1.07155E+2   3.23955E+2
  -2.16177E+2  -2.33595E+2
   2.58048E+1  -1.92307E+2
   4.31925E+2  -1.67485E+2
   3.77578E+2   5.37261E+1
  -9.37367E+1   4.95497E+2
  -2.13694E+2   1.48695E+2
  -3.23865E+2  -9.58851E+1
   9.18582E+1  -3.42941E+2
   1.80422E+2   1.37759E+2
   9.01456E+1   3.29130E+2
   7.11253E+1  -5.85923E+1
   5.46776E+2  -1.72922E+2
   4.09462E+2   1.71700E+2
   8.58416E+0   3.46582E+2
  -3.13609E+2   2.75331E+2
  -8.03789E+1   7.12292E+1
  -2.82941E+0  -6.79895E+1
   3.40441E+1  -9.10337E+1
   7.82016E+1  -8.63818E+1
   2.44604E+2  -7.56805E+1
   1.52005E+2   7.13848E+1
   9.49948E+1   1.53738E+2
  -2.30510E+2   4.80934E+1
   8.64504E+0  -1.94341E+1
   2.75697E+1  -4.83921E+2
  -6.30432E+1  -3.86417E+1
   1.29852E+2   2.17566E+2
  -1.28724E+2   2.90412E+2
  -2.43563E+1   9.63965E+0
  -4.60580E+1   5.23894E+1
  -4.46140E+1   1.56064E+2
  -2.22441E+2  -1.19979E+1
  -2.52367E+2  -2.54700E+2
   8.48482E+1  -4.09095E+2
   1.18468E+2  -3.91781E+1
   1.70199E+2   2.90942E+2
  -5.18983E+0   1.18692E+2
  -9.26557E+1  -1.45090E+2
  -9.23292E+1  -4.29013E+2
   2.18405E+1  -2.77854E+2
   1.92952E+2   2.33895E+1
  -2.67158E+0   2.54347E+2
  -1.70276E+2   1.62626E+2
   2.84824E+0   1.33561E+2
   5.61898E+1  -3.24063E+1
  -1.96815E+2   2.04989E+2
  -6.95052E+1  -2.42352E+2
  -1.47877E+2  -4.30541E+1
   8.17225E+1  -7.90263E+1
   1.00183E+2   8.54640E+1
  -1.73240E+2   2.48540E+2
   1.39818E+2  -2.35383E+2
   8.36992E+1  -5.44117E+1
   6.45226E+1   3.50005E+2
  -5.55028E+1   1.60932E+1
  -5.63695E+1   2.33601E+2
   1.24977E+2   5.75493E+1
  -2.66481E+0   1.83707E+2
  -3.72102E+2   7.51835E+1
  -1.73022E+2  -1.87526E+2
  -3.16021E+2  -3.41089E+1
  -2.56856E+1  -1.01087E+2
   1.49201E+2  -3.95623E+1
  -1.31294E+1   1.33177E+2
  -2.09076E+2  -9.23062E+1
   6.48900E+1   4.91304E+1
   7.64232E+1   1.68439E+1
  -1.18277E+2   1.00889E+2
   1.75313E+2   2.91798E+2
  -1.67033E+2   1.27770E+2
  -1.52505E+2  -4.25026E+1
   3.63314E+2  -2.93512E+1
   2.23254E+2   2.38337E+2
  -1.02515E+2   1.57773E+1
  -4.31271E+1   3.02798E+1
   3.75353E+1   5.07776E+1
   2.55214E+2   1.73777E+0
  -2.67868E+1   3.12253E+2
   3.93202E+1   9.78145E+1
  -5.49627E+1   1.02645E+2
   5.30400E+1  -5.16588E+1
   2.96907E+2   2.82962E+2
  -1.42502E+2  -7.51220E+1
   2.03371E+2  -5.59151E+1
   1.92246E+1  -2.43014E+2
   3.94849E+2  -1.16342E+2
  -4.51740E+1   1.39178E+2
   3.00926E+1  -2.74542E+2
   5.12897E+1   3.36949E+1
   4.46532E+1  -1.70584E+2
  -1.83791E+2  -5.75922E+1
  -1.09933E+2   1.85957E+2
   2.48172E+2  -8.64355E+1
  -6.22126E+1   1.20175E+1
   1.60077E+2  -6.65187E+1
  -3.04149E+1  -1.94939E+2
  -4.40359E+1  -5.92251E+1
  -2.25977E+1  -3.65513E+1
  -1.05057E+2   1.11328E+2
  -1.81047E+2  -3.75835E+1
   6.69415E+1  -6.86306E+1
  -1.17145E+2   6.92982E+1
  -2.07324E+2  -3.23876E+2
  -3.26632E+2   3.89355E+1
   5.63523E+1   4.57553E+1
   7.46790E+1   1.78680E+2
  -3.25456E+2  -8.55503E+1
   4.81785E+1  -7.08157E+1
   5.08657E+1  -9.59329E+1
  -8.97600E+1   1.96788E+2
  -2.89298E+2   2.47733E+2
   1.03914E+2  -1.20801E+2
  -7.31557E+0  -4.96693E+0
   1.93934E+1   8.84629E+1
   1.55535E+1   1.13433E+2
  -2.27965E+2   1.08814E+2
   1.08494E+1  -6.59415E+1
   3.97923E+1  -9.17707E+0
   9.35184E+1   3.89361E+1
  -2.15986E+2  -4.47510E+1
  -5.10133E+1  -8.29847E+1
  -9.86786E+1  -3.68752E+1
  -9.34468E+1  -4.26904E+1
   9.45225E+1  -1.51591E+2
  -1.23134E+1  -1.83959E+2
  -6.80406E+1  -2.08546E+2
   9.25223E+0  -2.17406E+1
  -5.32708E+1   9.66913E+1
  -8.31986E+1  -8.73345E+1
  -2.06588E+2  -2.98891E+1
   5.88975E+1  -1.08039E+2
  -1.34878E+2  -2.16761E+2
   8.94982E+0  -1.08984E+2
   6.03122E+1   7.23141E+1
  -7.09639E+1   3.06008E+1
   7.76995E+1  -3.52314E+1
  -6.79986E+1   8.62723E+1
  -6.24410E+1  -4.83074E+1
  -5.53894E+1   1.15140E+2
  -1.12285E+2   1.54714E+2
   5.68370E+1  -1.38433E+2
  -8.84447E+1  -3.31454E+1
   1.55849E+2  -9.58782E+1
   1.87843E+1   5.87067E+1
   1.03955E+2   1.54175E+1
  -2.00728E+1   1.73251E+2
   1.95612E+2   5.94165E+1
   2.88928E+1  -3.05646E+1
  -8.36032E+1  -2.81705E+1
  -2.59894E+1   1.76579E+2
  -7.69390E+1  -1.80343E+2
   8.20032E+0   1.33235E+1
  -1.04869E+2   5.31582E+1
   4.94909E+1  -6.85165E+1
  -2.83325E+1   4.02231E+1
  -2.71073E+1   9.64094E+1
  -1.22562E+2   1.36671E+1
  -8.51198E+1  -2.52556E+2
  -3.47521E+1  -3.01634E+2
   7.55353E+1  -1.17241E+2
  -5.14767E+0  -2.12928E+2
  -2.09060E+2  -8.00395E+0
   4.35771E+1  -5.12464E+1
   6.44183E+1   2.00551E+1
  -1.01330E+2   6.24696E+0
  -6.99754E+1   1.13678E+2
  -5.56101E+1  -1.08612E+2
  -8.41995E+1  -1.10584E+2
   8.96140E+0   1.15171E+2
  -4.41733E+1  -2.73301E+2
   4.35165E+1   2.02885E+1
  -4.37370E+1   1.19935E+2
  -1.77090E+2   3.71519E+0
  -8.55237E+1  -1.05484E+2
  -9.79369E+1  -1.68324E+2
  -4.99250E+1   2.35755E+2
   7.33548E+1   1.94058E+1
   6.79091E+1  -9.17769E+1
   6.81471E+1   2.75300E+2
   2.11222E+2   1.36533E+2
  -2.03568E+2  -2.03363E+2
  -1.60922E+2  -2.15517E+2
   4.24999E+1   7.36690E+0
  -1.44807E+2   1.74133E+2
   7.92232E+0   1.78056E+1
  -7.84485E+1  -7.96076E+1
  -1.09487E+2  -1.68623E+2
  -1.78077E+1  -6.10791E+1
  -1.34681E+2   1.75918E+1
   1.53816E+2   7.91110E+1
  -5.14781E+1   4.32752E+1
   1.76714E+2  -1.44742E+1
  -1.42997E+2   1.43587E+2
  -7.70189E+1   3.93315E+1
  -1.75070E+2  -2.06540E+2
  -7.59110E+1   7.47064E+0
  -2.59609E+2  -2.82370E+2
   3.73596E+1  -8.96757E+1
  -1.18168E+2  -3.47987E+1
   1.75544E+1  -2.33377E+1
  -6.06481E+1   2.52089E+1
  -1.27791E+2   2.35038E+1
  -3.80561E+1  -7.67259E+1
  -1.75053E+2   2.97630E+2
  -1.31436E+2  -7.91630E+0
  -1.71614E+2  -3.90654E+1
   2.44584E+2   5.87944E+1
  -6.96896E+1   1.88568E+1
  -2.58226E+2  -4.86991E+1
  -2.43622E+2  -1.27429E+2
  -9.62552E+1  -1.14838E+2
   1.85983E+2  -2.20498E+2
   9.36767E+1   1.83948E+1
  -5.64151E+0  -1.30924E+2
   4.77745E+1  -2.61423E+1
   6.26055E+1  -1.36846E+2
   4.37314E+1  -3.30941E+1
   8.15814E+1   3.78056E+1
   2.02243E+2   2.32311E+1
  -1.51583E+2  -3.84930E+1
  -8.52669E+1  -1.35363E+2
  -1.08695E+2   5.77852E+1
  -1.30963E+2  -1.44285E+2
  -3.70341E+0  -1.58397E+2
   2.79944E+1   1.39529E+2
  -1.28794E+1  -1.79199E+2
   8.98824E+0  -3.31795E+2
  -2.77178E+2   4.12923E+1
  -1.78128E+2  -1.34584E+2
  -1.33147E+1   5.50122E+1
  -2.04223E+1  -2.31230E+2
  -1.84954E+1   1.77298E+2
  -2.08206E+2  -1.34461E+2
   1.06554E+2  -6.13840E+1
   2.85327E+1   5.70460E+1
  -1.73141E+2   1.68882E+2
  -1.00182E+2   2.54524E+1
  -6.54010E+1   4.82926E+1
  -1.83968E+2   2.09831E+1
   2.13117E+1  -1.55080E+2
  -2.35179E+2  -1.33554E+2
   1.26029E+2   6.85020E+1
   4.43259E+1   7.17005E+1
  -1.45761E+2  -3.96191E+1
  -1.96544E+2  -5.30212E+1
  -5.97767E+1   1.54879E+2
   1.21377E+2   6.67344E+1
   1.46872E+2  -7.18037E+1
   8.69266E+1  -2.60727E+1
  -3.37235E+2  -9.01939E+0
  -1.08435E+2   2.88670E+1
   2.33965E+1  -1.38702E+2
  -1.84957E+1  -1.98684E+1
  -1.47298E+2  -9.16591E+1
  -7.89144E+1  -5.28927E+1
   1.17332E+2  -7.29499E+1
  -4.05143E+1  -6.85237E+1
   7.73376E+1   3.19452E+1
   5.61851E+1  -5.86297E+1
  -7.43515E+1   8.00757E+0
  -8.42594E+1  -3.24204E+1
  -4.07802E+1   1.06411E+2
