 LCModel (Version 6.3-1N) Copyright: S.W. Provencher.          Ref.: Magn. Reson. Med. 30:672-679 (1993).                
 Slice_N1@13_19  28-Feb-2025 11:37:56
 27 lines in following concentration table = NCONC+1
    Conc.  %SD /Cr+PCr  Metabolite                                         
 1.59E-04   8% 1.6E-04 Mac                                                 
    5.550  34%   5.509 Cr                                                  
    2.509  73%   2.491 PCr                                                 
    5.138  18%   5.100 Ins                                                 
    8.106  10%   8.047 NAA                                                 
    7.258  13%   7.206 Tau                                                 
    0.927 132%   0.920 PCho                                                
    1.450  79%   1.439 GPC                                                 
    7.776  14%   7.720 Glu                                                 
    3.023  28%   3.001 Gln                                                 
    0.000 999%   0.000 Ala                                                 
    2.300  60%   2.283 Asc                                                 
    2.090  50%   2.075 Asp                                                 
    0.587  96%   0.583 GABA                                                
    0.265 276%   0.263 Glc                                                 
    1.162  45%   1.153 GSH                                                 
    5.161  15%   5.124 Lac                                                 
    0.904  74%   0.898 NAAG                                                
    1.693  73%   1.681 PE                                                  
    2.377  15%   2.360 GPC+PCho                                            
    9.010   9%   8.945 NAA+NAAG                                            
   10.799  13%  10.721 Glu+Gln                                             
    8.058   9%   8.000 Cr+PCr                                              
    9.010   9%   8.945 NAA+NAAG                                            
    8.058   9%   8.000 Cr+PCr                                              
   10.799  13%  10.721 Glu+Gln                                             
   6 lines in following misc. output table
  FWHM = 0.033 ppm    S/N =   3                                            
  Data shift = 0.033 ppm                                                   
  Ph:-113 deg       0.0 deg/ppm                                            
  alphaB,S = 2.5E-01,   1.3E+01                                            
   19 spline knots.   Ns = 5(1)                                            
  ( 4) 2 infls.   ( 3) 1 extrs.                                            
  480 points on ppm-axis = NY
      4.100000     4.091866     4.083733     4.075600     4.067466     4.059333     4.051199     4.043066     4.034933     4.026799
      4.018666     4.010532     4.002399     3.994265     3.986132     3.977998     3.969864     3.961731     3.953597     3.945463
      3.937330     3.929196     3.921062     3.912929     3.904795     3.896662     3.888528     3.880394     3.872261     3.864127
      3.855993     3.847860     3.839726     3.831592     3.823459     3.815325     3.807191     3.799058     3.790924     3.782790
      3.774657     3.766523     3.758389     3.750256     3.742122     3.733989     3.725855     3.717721     3.709588     3.701454
      3.693320     3.685187     3.677053     3.668919     3.660786     3.652652     3.644518     3.636385     3.628251     3.620117
      3.611984     3.603850     3.595716     3.587583     3.579449     3.571316     3.563182     3.555048     3.546915     3.538781
      3.530647     3.522514     3.514380     3.506246     3.498113     3.489979     3.481845     3.473712     3.465578     3.457444
      3.449311     3.441177     3.433043     3.424910     3.416776     3.408643     3.400509     3.392375     3.384242     3.376108
      3.367974     3.359841     3.351707     3.343573     3.335440     3.327306     3.319172     3.311039     3.302905     3.294771
      3.286638     3.278504     3.270370     3.262237     3.254103     3.245970     3.237836     3.229702     3.221569     3.213435
      3.205301     3.197168     3.189034     3.180900     3.172767     3.164633     3.156499     3.148366     3.140232     3.132098
      3.123965     3.115831     3.107697     3.099564     3.091430     3.083297     3.075163     3.067029     3.058896     3.050762
      3.042628     3.034495     3.026361     3.018227     3.010094     3.001960     2.993826     2.985693     2.977559     2.969425
      2.961292     2.953158     2.945024     2.936891     2.928757     2.920624     2.912490     2.904356     2.896223     2.888089
      2.879955     2.871822     2.863688     2.855554     2.847421     2.839287     2.831153     2.823020     2.814886     2.806752
      2.798619     2.790485     2.782351     2.774218     2.766084     2.757951     2.749817     2.741683     2.733550     2.725416
      2.717282     2.709149     2.701015     2.692881     2.684748     2.676614     2.668480     2.660347     2.652213     2.644079
      2.635946     2.627812     2.619678     2.611545     2.603411     2.595278     2.587144     2.579010     2.570877     2.562743
      2.554609     2.546476     2.538342     2.530208     2.522075     2.513941     2.505807     2.497674     2.489540     2.481406
      2.473273     2.465139     2.457006     2.448872     2.440738     2.432605     2.424471     2.416337     2.408204     2.400070
      2.391936     2.383803     2.375669     2.367535     2.359402     2.351268     2.343134     2.335001     2.326867     2.318733
      2.310600     2.302466     2.294333     2.286199     2.278065     2.269932     2.261798     2.253664     2.245531     2.237397
      2.229263     2.221130     2.212996     2.204862     2.196729     2.188595     2.180461     2.172328     2.164194     2.156060
      2.147927     2.139793     2.131660     2.123526     2.115392     2.107259     2.099125     2.090991     2.082858     2.074724
      2.066590     2.058457     2.050323     2.042189     2.034056     2.025922     2.017788     2.009655     2.001521     1.993387
      1.985254     1.977120     1.968987     1.960853     1.952719     1.944586     1.936452     1.928318     1.920185     1.912051
      1.903917     1.895784     1.887650     1.879516     1.871383     1.863249     1.855115     1.846982     1.838848     1.830714
      1.822581     1.814447     1.806314     1.798180     1.790046     1.781913     1.773779     1.765645     1.757512     1.749378
      1.741244     1.733111     1.724977     1.716843     1.708710     1.700576     1.692442     1.684309     1.676175     1.668041
      1.659908     1.651774     1.643641     1.635507     1.627373     1.619240     1.611106     1.602972     1.594839     1.586705
      1.578571     1.570438     1.562304     1.554170     1.546037     1.537903     1.529769     1.521636     1.513502     1.505368
      1.497235     1.489101     1.480968     1.472834     1.464700     1.456567     1.448433     1.440299     1.432166     1.424032
      1.415898     1.407765     1.399631     1.391497     1.383364     1.375230     1.367096     1.358963     1.350829     1.342695
      1.334562     1.326428     1.318295     1.310161     1.302027     1.293894     1.285760     1.277626     1.269493     1.261359
      1.253225     1.245092     1.236958     1.228824     1.220691     1.212557     1.204423     1.196290     1.188156     1.180022
      1.171889     1.163755     1.155622     1.147488     1.139354     1.131221     1.123087     1.114953     1.106820     1.098686
      1.090552     1.082419     1.074285     1.066151     1.058018     1.049884     1.041750     1.033617     1.025483     1.017349
      1.009216     1.001082     0.992949     0.984815     0.976681     0.968548     0.960414     0.952280     0.944147     0.936013
      0.927879     0.919746     0.911612     0.903478     0.895345     0.887211     0.879077     0.870944     0.862810     0.854676
      0.846543     0.838409     0.830276     0.822142     0.814008     0.805875     0.797741     0.789607     0.781474     0.773340
      0.765206     0.757073     0.748939     0.740805     0.732672     0.724538     0.716404     0.708271     0.700137     0.692003
      0.683870     0.675736     0.667603     0.659469     0.651335     0.643202     0.635068     0.626934     0.618801     0.610667
      0.602533     0.594400     0.586266     0.578132     0.569999     0.561865     0.553731     0.545598     0.537464     0.529330
      0.521197     0.513063     0.504930     0.496796     0.488662     0.480529     0.472395     0.464261     0.456128     0.447994
      0.439861     0.431727     0.423593     0.415460     0.407326     0.399192     0.391059     0.382925     0.374792     0.366658
      0.358524     0.350391     0.342257     0.334124     0.325990     0.317856     0.309723     0.301589     0.293455     0.285322
      0.277188     0.269055     0.260921     0.252787     0.244654     0.236520     0.228386     0.220253     0.212119     0.203986
 NY phased data points follow
   3.89295E+01  4.07844E+01  3.19569E+01  3.10859E+01  3.79569E+01  2.68309E+01  3.03681E+01  3.33947E+01  2.87289E+01  4.33106E+01
   2.98823E+01  9.43206E+00  2.66000E+01  2.44363E+01  2.85407E+01  2.14983E+01  1.67646E+01  3.64611E+01  9.33328E+00 -1.20011E+01
  -9.08823E+00 -8.89298E+00 -6.09246E+00  1.13800E+01  2.16129E+01  4.36664E+01  6.93933E+01  6.05134E+01  6.44176E+01  5.97563E+01
   5.96930E+01  7.13426E+01  6.57357E+01  4.75091E+01  7.21954E+01  9.25391E+01  6.08072E+01  7.25742E+01  4.83414E+01  2.25170E+01
   2.72807E+01  1.90655E+01  1.59507E+01  6.14005E+00  3.75340E+01  5.39547E+01  6.19525E+01  7.54022E+01  8.73432E+01  8.16844E+01
   7.39628E+01  9.36735E+01  6.30677E+01  6.56314E+01  6.64794E+01  4.57992E+01  5.07168E+01  3.19682E+01  3.86483E+01  5.16758E+01
   4.28493E+01  3.42340E+01  5.32910E+01  6.63901E+01  6.38422E+01  7.68160E+01  8.61104E+01  8.52725E+01  4.92967E+01  4.72591E+01
   6.20493E+01  3.02025E+01  4.04363E+01  6.37964E+01  7.17855E+01  9.19954E+01  9.38822E+01  8.86017E+01  7.90300E+01  8.63224E+01
   9.18319E+01  8.11535E+01  6.65600E+01  4.71580E+01  4.98519E+01  3.40716E+01  3.52265E+01  5.44258E+01  6.25227E+01  7.98260E+01
   7.97668E+01  9.85218E+01  9.53618E+01  8.80485E+01  1.08964E+02  1.01658E+02  1.09351E+02  1.20690E+02  1.05588E+02  9.96826E+01
   1.03999E+02  1.00892E+02  8.63079E+01  7.95111E+01  7.55754E+01  5.74409E+01  4.33651E+01  3.67701E+01  2.32978E+01 -2.35480E+01
  -6.63886E+01 -8.47436E+01 -8.76320E+01 -4.98125E+01 -2.94941E+01 -3.64920E+00  1.93765E+01  1.32513E+01  2.20842E+01  1.71213E+01
   1.92801E+01  4.23730E+01  5.35737E+01  4.29832E+01  4.58398E+01  6.31201E+01  7.03235E+01  6.57879E+01  6.75594E+01  1.11294E+02
   1.41265E+02  1.08063E+02  6.52464E+01  3.79928E+01 -1.00944E+01 -4.00903E+01 -3.83596E+01 -2.31705E+01 -2.17989E+01 -3.59213E+01
  -2.38061E+01 -2.02283E+01 -2.36754E+01 -2.35439E+01 -1.03364E+01 -1.13126E+01 -2.54734E+01 -2.43643E+01 -1.57932E+01 -6.00554E+00
  -7.45710E+00  5.41993E+00 -9.79890E+00  1.80651E+00  1.00185E+01 -7.96592E+00  1.99863E+01  1.03750E+01  5.17963E+00  1.83526E+01
   2.51422E+01  1.61848E+01 -3.17514E+00  1.44962E+01  2.18104E+01  2.36881E+01  2.27195E+01  1.45017E+01  1.91256E+01  1.10038E+01
   1.65347E+01  3.83089E+01  4.07696E+01  4.67872E+01  3.50390E+01  3.83506E+01  5.57772E+01  4.59945E+01  3.12420E+01  2.27976E+01
   3.04608E+01  7.55258E+00  8.48997E+00  1.88133E+01 -4.71971E+00 -6.32111E+00 -3.30071E+00  3.34296E+00 -1.44308E+00  4.97616E+00
   1.81284E+01  3.66803E+00  3.01549E+00  3.11387E+01  2.43588E+01  2.15507E+01  2.49930E+01  7.58480E+00  3.34250E+01  2.49230E+01
   2.06177E+01  4.45475E+01  4.71492E+01  5.27993E+01  3.83930E+01  3.81981E+01  4.52246E+01  1.55504E+01 -1.44840E+01 -4.64883E+00
  -9.95690E+00 -1.23708E+01  2.57692E+00 -4.92109E+00  6.32589E+00  3.85750E+01  4.91018E+01  5.33809E+01  5.39377E+01  4.02457E+01
   5.36920E+01  3.69122E+01  1.79580E+01  2.49581E+01  2.75297E+01  3.52953E+01  2.08419E+01  3.19277E+01  4.30118E+01  4.59115E+01
   4.45797E+01  3.59330E+01  3.81460E+01  3.11101E+01  1.12047E+01  6.25750E+00 -6.56518E-01 -2.35959E+01 -7.16043E+00 -1.97373E+01
  -2.45542E+01 -8.06384E+00 -7.14856E+00  3.67773E+00  8.41465E+00  1.95030E+01  1.78815E+01  3.28143E+01  1.03647E+01 -7.69799E+00
  -4.45869E+00 -1.25922E+01 -1.03978E+00 -8.22439E+00 -2.14980E+00 -3.07006E+01 -3.84063E+01  3.71203E+01  7.41638E+01  7.16521E+01
   1.25449E+02  1.48661E+02  1.25471E+02  1.22684E+02  9.78357E+01  1.02660E+02  9.81526E+01  8.28118E+01  9.45857E+01  1.06237E+02
   9.26956E+01  8.53703E+01  9.42599E+01  8.77035E+01  9.11323E+01  7.30539E+01  7.61156E+01  7.65685E+01  7.86278E+01  7.75087E+01
   8.32243E+01  1.01422E+02  7.06484E+01  8.79566E+01  7.68793E+01  5.86734E+01  6.97766E+01  6.42339E+01  6.79614E+01  6.38260E+01
   6.80738E+01  4.98872E+01  3.58006E+01  3.91901E+01  3.46065E+01  2.32791E+01  3.82210E+01  3.51674E+01  1.47813E+01  8.19797E+00
   1.53184E+01  3.47916E+01  9.31553E+00  3.02374E+01  4.08545E+01  2.67525E+01  2.86423E+01  2.92117E+01  3.81302E+01  1.99421E+01
   3.30735E+01  3.17667E+01  3.87427E+01  4.30300E+01  3.47100E+01  3.48527E+01  2.54776E+01  4.22162E+01  2.81482E+01  2.43359E+01
   2.18516E+01  1.96303E+01  2.64452E+01  2.79539E+01  4.10248E+01  6.08454E+01  8.02197E+01  7.43071E+01  1.08876E+02  1.09665E+02
   8.33905E+01  8.41092E+01  6.56536E+01  7.64041E+01  7.33015E+01  7.27581E+01  7.00893E+01  5.65305E+01  8.97753E+01  8.63395E+01
   6.11771E+01  6.37329E+01  5.08206E+01  3.98146E+01  2.36116E+01  1.96235E+01  2.73872E+01  2.05261E+01  1.42037E+01  5.43154E-01
   7.04940E+00  1.18186E+01  1.43537E+01  2.49247E+01  2.51287E+01  3.41384E+01  2.10565E+01  9.15239E+00  8.94504E+00  3.74226E+00
   1.08959E+01  1.91942E+01  2.30794E+01  2.43172E+01  2.27074E+01  2.63544E+01  3.56873E+01  3.09541E+01  1.63083E+01  2.77423E+01
   5.06157E+01  3.81166E+01  4.68943E+01  6.91865E+01  5.16176E+01  5.11121E+01  5.33811E+01  6.35594E+01  6.72749E+01  4.95340E+01
   6.57569E+01  7.72718E+01  7.48169E+01  7.03238E+01  6.89818E+01  8.62536E+01  8.79179E+01  8.02883E+01  8.75674E+01  9.34581E+01
   9.56343E+01  9.77740E+01  7.54446E+01  5.65531E+01  6.07677E+01  6.39043E+01  7.06663E+01  6.38507E+01  4.71127E+01  4.10905E+01
   3.25082E+01  2.51966E+01  1.58869E+01  5.39768E+00  9.42062E+00  2.72068E+00 -8.25566E+00 -5.87940E+00 -1.19564E+01 -5.90487E-01
  -2.31414E+00 -1.30662E+01  9.37935E+00  1.94572E+00 -1.01472E+01 -3.59291E+00 -2.41741E+00  3.94573E+00  1.21937E-01 -5.57494E+00
  -7.82416E+00 -3.93541E+00 -1.92978E+00 -5.34087E+00 -1.39175E+01 -2.21518E+01 -6.99411E+00  7.20292E+00  3.77525E+00 -6.97130E+00
  -6.35112E+00  8.06951E-01 -9.30786E+00 -6.98413E+00  2.31720E+00 -5.73873E+00 -5.10541E+00 -9.01156E+00 -1.80419E+01 -2.88629E+00
   1.01364E+01  3.69475E+00 -7.11056E+00 -4.87771E+00 -2.74292E+00 -9.37736E+00 -1.20360E+01 -6.51778E+00  7.39427E+00  6.19954E+00
  -8.76182E+00 -1.55812E+01 -8.22804E+00  3.85552E+00  1.96649E+00 -1.24391E+01 -1.62439E+01 -8.25415E+00  4.57666E-01  3.06608E+00
  -3.15812E+00  6.46075E-01 -1.05138E+01  1.50360E+00  1.01533E+01 -1.10409E+01  7.79102E+00 -2.50348E+00  2.74886E+00  1.22943E+01
  -9.58094E+00  5.67903E+00 -1.01552E+01 -1.40985E+01  7.39483E-01 -1.37985E+01 -7.30404E+00  3.30361E+00 -7.86620E+00 -6.99405E+00
 NY points of the fit to the data follow
   2.69399E+01  2.87383E+01  2.87708E+01  2.76519E+01  2.91814E+01  3.39492E+01  3.84348E+01  4.07447E+01  4.06269E+01  3.73808E+01
   3.20146E+01  2.71805E+01  2.42528E+01  2.25359E+01  2.13348E+01  2.03887E+01  2.00470E+01  1.79902E+01  1.22008E+01  4.27952E+00
  -4.65981E+00 -1.11559E+01 -6.45545E+00  1.24141E+01  3.54120E+01  5.47314E+01  7.03079E+01  7.94639E+01  8.11764E+01  8.05593E+01
   8.02420E+01  7.92736E+01  7.74749E+01  7.49362E+01  7.19586E+01  6.82076E+01  6.38662E+01  5.84011E+01  4.94349E+01  3.71359E+01
   2.59136E+01  1.96930E+01  1.84698E+01  2.30507E+01  3.36058E+01  4.63645E+01  5.76710E+01  6.64845E+01  7.22794E+01  7.46684E+01
   7.42797E+01  7.12086E+01  6.57279E+01  5.83327E+01  5.05914E+01  4.62777E+01  4.49015E+01  4.19052E+01  3.91929E+01  4.09733E+01
   4.38193E+01  4.52972E+01  5.07963E+01  5.96553E+01  6.57810E+01  7.10108E+01  7.55352E+01  7.22628E+01  6.18469E+01  5.30831E+01
   4.87151E+01  4.61378E+01  4.74549E+01  5.50182E+01  6.40896E+01  7.13132E+01  7.78322E+01  8.38407E+01  8.63874E+01  8.56162E+01
   8.06778E+01  7.04019E+01  5.57261E+01  4.07193E+01  3.03468E+01  2.70588E+01  3.22367E+01  4.27526E+01  5.41817E+01  6.44247E+01
   7.26010E+01  7.81431E+01  8.27240E+01  8.69158E+01  9.06351E+01  9.46593E+01  9.91145E+01  1.02238E+02  1.04210E+02  1.08157E+02
   1.10876E+02  1.09314E+02  1.04033E+02  9.51793E+01  7.81621E+01  6.24446E+01  5.92592E+01  5.13295E+01  1.99036E+01 -2.23475E+01
  -5.25312E+01 -6.85789E+01 -7.06621E+01 -5.51716E+01 -3.18260E+01 -1.47992E+01 -3.86896E+00  4.85053E+00  1.23423E+01  1.90969E+01
   2.54646E+01  3.17753E+01  3.83591E+01  4.54101E+01  5.33615E+01  6.28824E+01  7.40971E+01  8.13606E+01  9.06878E+01  1.12820E+02
   1.30966E+02  1.16326E+02  7.47371E+01  3.29129E+01 -3.49987E+00 -3.05429E+01 -3.66206E+01 -2.84806E+01 -2.16769E+01 -1.80094E+01
  -1.55074E+01 -1.38990E+01 -1.27948E+01 -1.19855E+01 -1.13393E+01 -1.03809E+01 -8.86779E+00 -7.04431E+00 -5.12716E+00 -3.19928E+00
  -1.40515E+00  1.67609E-01  1.66478E+00  3.33200E+00  5.39931E+00  7.60449E+00  9.30313E+00  1.01021E+01  1.04383E+01  1.12908E+01
   1.28815E+01  1.42503E+01  1.44504E+01  1.38028E+01  1.30149E+01  1.23346E+01  1.20737E+01  1.23878E+01  1.29228E+01  1.46333E+01
   1.97761E+01  2.72765E+01  3.26104E+01  3.39630E+01  3.39151E+01  3.51358E+01  3.71713E+01  3.79374E+01  3.58659E+01  3.11168E+01
   2.46036E+01  1.74888E+01  1.20041E+01  9.16111E+00  7.70354E+00  6.79409E+00  6.57935E+00  6.53019E+00  6.68349E+00  7.75057E+00
   8.62647E+00  8.75976E+00  1.08935E+01  1.56475E+01  1.95371E+01  2.15540E+01  2.44048E+01  2.78343E+01  2.94874E+01  2.99991E+01
   3.09193E+01  3.27776E+01  3.43947E+01  3.45938E+01  3.39243E+01  3.19780E+01  2.74645E+01  2.14478E+01  1.62363E+01  1.12837E+01
   6.53788E+00  4.32368E+00  4.80846E+00  9.22693E+00  1.90681E+01  3.27881E+01  4.61949E+01  5.72528E+01  6.40836E+01  6.38170E+01
   5.94079E+01  5.48554E+01  5.06060E+01  4.75277E+01  4.60188E+01  4.42119E+01  4.12622E+01  3.68456E+01  3.12804E+01  2.49439E+01
   1.81005E+01  1.13212E+01  4.74065E+00 -1.65023E+00 -7.22654E+00 -1.21655E+01 -1.63154E+01 -1.86410E+01 -1.90426E+01 -1.78634E+01
  -1.50539E+01 -1.03912E+01 -5.02470E+00  4.76083E-01  5.75995E+00  9.94101E+00  1.19961E+01  1.17628E+01  1.00731E+01  7.80942E+00
   3.16597E+00 -3.86678E+00 -4.23742E+00 -4.28940E+00 -1.97843E+01 -3.79007E+01 -2.76924E+01  9.12773E+00  4.75629E+01  8.25352E+01
   1.10416E+02  1.17957E+02  1.09995E+02  1.01995E+02  9.67535E+01  9.25743E+01  8.89029E+01  8.55197E+01  8.25529E+01  8.01323E+01
   7.82919E+01  7.70562E+01  7.64235E+01  7.60910E+01  7.58374E+01  7.56311E+01  7.53216E+01  7.48382E+01  7.41662E+01  7.32096E+01
   7.20486E+01  7.08101E+01  6.94883E+01  6.80924E+01  6.66724E+01  6.52391E+01  6.37373E+01  6.20976E+01  6.03005E+01  5.83510E+01
   5.62770E+01  5.40879E+01  5.19324E+01  5.00933E+01  4.87642E+01  4.81046E+01  4.81790E+01  4.88183E+01  4.98007E+01  5.10325E+01
   5.24143E+01  5.38296E+01  5.52445E+01  5.66266E+01  5.78807E+01  5.90451E+01  6.02504E+01  6.15507E+01  6.28892E+01  6.41665E+01
   6.53130E+01  6.63542E+01  6.72879E+01  6.80194E+01  6.85529E+01  6.89325E+01  6.89675E+01  6.85616E+01  6.78892E+01  6.69622E+01
   6.56828E+01  6.41155E+01  6.23663E+01  6.03896E+01  5.80796E+01  5.52269E+01  5.16884E+01  4.76742E+01  4.35233E+01  3.95829E+01
   3.63134E+01  3.41367E+01  3.33498E+01  3.41793E+01  3.66962E+01  4.07146E+01  4.53737E+01  5.01462E+01  5.70907E+01  6.28288E+01
   6.24200E+01  5.43217E+01  3.95270E+01  2.00014E+01  2.79162E+00 -4.46334E+00 -3.98066E+00  6.52036E-01  7.86047E+00  1.39584E+01
   1.67047E+01  1.78178E+01  1.77363E+01  1.69655E+01  1.60362E+01  1.52921E+01  1.50076E+01  1.53843E+01  1.63833E+01  1.78455E+01
   1.96679E+01  2.17363E+01  2.39235E+01  2.61301E+01  2.82467E+01  3.02224E+01  3.20726E+01  3.38584E+01  3.56249E+01  3.73779E+01
   3.91564E+01  4.09301E+01  4.27516E+01  4.48064E+01  4.70930E+01  4.95250E+01  5.22643E+01  5.54179E+01  5.87618E+01  6.22519E+01
   6.60408E+01  7.00218E+01  7.39551E+01  7.76590E+01  8.07932E+01  8.27744E+01  8.30319E+01  8.11842E+01  7.73561E+01  7.22175E+01
   6.65246E+01  6.08918E+01  5.58435E+01  5.15167E+01  4.74680E+01  4.32843E+01  3.88255E+01  3.40350E+01  2.89672E+01  2.40717E+01
   1.97708E+01  1.61460E+01  1.32091E+01  1.09840E+01  9.35245E+00  8.11331E+00  7.13874E+00  6.31996E+00  5.55599E+00  4.84907E+00
   4.29471E+00  3.88917E+00  3.54733E+00  3.27137E+00  3.12573E+00  2.98740E+00  2.72017E+00  2.45150E+00  2.33256E+00  2.24865E+00
   2.07950E+00  1.92233E+00  1.82757E+00  1.70290E+00  1.50127E+00  1.29102E+00  1.14233E+00  1.05205E+00  9.84447E-01  9.13771E-01
   8.26659E-01  6.53383E-01  4.16090E-01  1.93514E-01  2.89189E-02 -7.51065E-02 -1.18946E-01 -1.36796E-01 -2.02159E-01 -2.92888E-01
  -3.80336E-01 -5.07800E-01 -7.16129E-01 -9.57643E-01 -1.17797E+00 -1.37069E+00 -1.52603E+00 -1.61691E+00 -1.68337E+00 -1.80350E+00
  -1.97580E+00 -2.12084E+00 -2.22849E+00 -2.32018E+00 -2.37479E+00 -2.41449E+00 -2.49695E+00 -2.60291E+00 -2.69247E+00 -2.78932E+00
  -2.93558E+00 -3.11674E+00 -3.29660E+00 -3.47301E+00 -3.64345E+00 -3.72344E+00 -3.69524E+00 -3.63140E+00 -3.60238E+00 -3.67669E+00
  -3.86412E+00 -4.08009E+00 -4.26440E+00 -4.43364E+00 -4.54062E+00 -4.54621E+00 -4.56676E+00 -4.64927E+00 -4.70427E+00 -4.69225E+00
 NY background values follow
     4.881E+01    4.880E+01    4.879E+01    4.877E+01    4.876E+01    4.875E+01    4.874E+01    4.873E+01    4.871E+01    4.870E+01
     4.869E+01    4.868E+01    4.867E+01    4.866E+01    4.865E+01    4.863E+01    4.862E+01    4.861E+01    4.860E+01    4.859E+01
     4.858E+01    4.857E+01    4.856E+01    4.855E+01    4.854E+01    4.853E+01    4.852E+01    4.850E+01    4.849E+01    4.848E+01
     4.847E+01    4.846E+01    4.845E+01    4.844E+01    4.843E+01    4.842E+01    4.841E+01    4.840E+01    4.838E+01    4.837E+01
     4.836E+01    4.835E+01    4.833E+01    4.832E+01    4.830E+01    4.828E+01    4.827E+01    4.825E+01    4.823E+01    4.821E+01
     4.819E+01    4.817E+01    4.814E+01    4.812E+01    4.809E+01    4.806E+01    4.803E+01    4.800E+01    4.797E+01    4.794E+01
     4.790E+01    4.786E+01    4.783E+01    4.778E+01    4.774E+01    4.770E+01    4.765E+01    4.760E+01    4.755E+01    4.750E+01
     4.745E+01    4.739E+01    4.734E+01    4.728E+01    4.722E+01    4.716E+01    4.709E+01    4.703E+01    4.696E+01    4.689E+01
     4.682E+01    4.675E+01    4.667E+01    4.660E+01    4.652E+01    4.644E+01    4.636E+01    4.627E+01    4.619E+01    4.610E+01
     4.601E+01    4.592E+01    4.583E+01    4.573E+01    4.564E+01    4.554E+01    4.544E+01    4.534E+01    4.524E+01    4.514E+01
     4.503E+01    4.493E+01    4.482E+01    4.471E+01    4.460E+01    4.450E+01    4.439E+01    4.428E+01    4.416E+01    4.405E+01
     4.394E+01    4.383E+01    4.371E+01    4.360E+01    4.349E+01    4.337E+01    4.326E+01    4.314E+01    4.303E+01    4.292E+01
     4.280E+01    4.269E+01    4.257E+01    4.246E+01    4.235E+01    4.224E+01    4.212E+01    4.201E+01    4.190E+01    4.179E+01
     4.168E+01    4.157E+01    4.146E+01    4.135E+01    4.124E+01    4.113E+01    4.102E+01    4.091E+01    4.080E+01    4.070E+01
     4.059E+01    4.049E+01    4.038E+01    4.028E+01    4.017E+01    4.007E+01    3.997E+01    3.987E+01    3.977E+01    3.967E+01
     3.957E+01    3.947E+01    3.937E+01    3.928E+01    3.918E+01    3.909E+01    3.899E+01    3.890E+01    3.881E+01    3.872E+01
     3.862E+01    3.853E+01    3.844E+01    3.835E+01    3.826E+01    3.818E+01    3.809E+01    3.800E+01    3.791E+01    3.783E+01
     3.774E+01    3.766E+01    3.757E+01    3.749E+01    3.740E+01    3.732E+01    3.724E+01    3.715E+01    3.707E+01    3.699E+01
     3.691E+01    3.683E+01    3.674E+01    3.666E+01    3.658E+01    3.650E+01    3.642E+01    3.634E+01    3.626E+01    3.618E+01
     3.611E+01    3.603E+01    3.595E+01    3.587E+01    3.579E+01    3.572E+01    3.564E+01    3.557E+01    3.549E+01    3.542E+01
     3.534E+01    3.527E+01    3.519E+01    3.512E+01    3.505E+01    3.497E+01    3.490E+01    3.483E+01    3.476E+01    3.469E+01
     3.462E+01    3.455E+01    3.448E+01    3.441E+01    3.434E+01    3.428E+01    3.421E+01    3.414E+01    3.407E+01    3.401E+01
     3.394E+01    3.387E+01    3.380E+01    3.373E+01    3.367E+01    3.360E+01    3.353E+01    3.346E+01    3.339E+01    3.332E+01
     3.324E+01    3.317E+01    3.310E+01    3.303E+01    3.295E+01    3.287E+01    3.280E+01    3.272E+01    3.264E+01    3.256E+01
     3.248E+01    3.240E+01    3.231E+01    3.223E+01    3.214E+01    3.205E+01    3.196E+01    3.187E+01    3.178E+01    3.169E+01
     3.160E+01    3.150E+01    3.140E+01    3.130E+01    3.120E+01    3.110E+01    3.100E+01    3.090E+01    3.079E+01    3.069E+01
     3.058E+01    3.047E+01    3.036E+01    3.025E+01    3.014E+01    3.002E+01    2.991E+01    2.979E+01    2.967E+01    2.955E+01
     2.943E+01    2.931E+01    2.918E+01    2.906E+01    2.893E+01    2.881E+01    2.868E+01    2.856E+01    2.843E+01    2.830E+01
     2.818E+01    2.805E+01    2.792E+01    2.780E+01    2.768E+01    2.755E+01    2.743E+01    2.731E+01    2.719E+01    2.708E+01
     2.696E+01    2.685E+01    2.674E+01    2.663E+01    2.652E+01    2.642E+01    2.632E+01    2.622E+01    2.613E+01    2.604E+01
     2.595E+01    2.587E+01    2.578E+01    2.571E+01    2.563E+01    2.556E+01    2.549E+01    2.543E+01    2.536E+01    2.530E+01
     2.524E+01    2.519E+01    2.513E+01    2.508E+01    2.502E+01    2.497E+01    2.492E+01    2.487E+01    2.483E+01    2.478E+01
     2.473E+01    2.469E+01    2.464E+01    2.460E+01    2.455E+01    2.451E+01    2.446E+01    2.441E+01    2.437E+01    2.432E+01
     2.427E+01    2.422E+01    2.417E+01    2.412E+01    2.406E+01    2.401E+01    2.395E+01    2.389E+01    2.384E+01    2.377E+01
     2.371E+01    2.365E+01    2.358E+01    2.351E+01    2.344E+01    2.337E+01    2.330E+01    2.322E+01    2.314E+01    2.306E+01
     2.298E+01    2.289E+01    2.280E+01    2.271E+01    2.262E+01    2.252E+01    2.242E+01    2.232E+01    2.221E+01    2.210E+01
     2.199E+01    2.187E+01    2.176E+01    2.163E+01    2.151E+01    2.138E+01    2.125E+01    2.111E+01    2.098E+01    2.083E+01
     2.069E+01    2.054E+01    2.039E+01    2.024E+01    2.008E+01    1.992E+01    1.975E+01    1.959E+01    1.942E+01    1.924E+01
     1.907E+01    1.889E+01    1.870E+01    1.852E+01    1.833E+01    1.814E+01    1.794E+01    1.774E+01    1.754E+01    1.733E+01
     1.712E+01    1.691E+01    1.670E+01    1.648E+01    1.626E+01    1.603E+01    1.581E+01    1.558E+01    1.535E+01    1.511E+01
     1.488E+01    1.464E+01    1.440E+01    1.415E+01    1.391E+01    1.366E+01    1.341E+01    1.316E+01    1.291E+01    1.266E+01
     1.240E+01    1.215E+01    1.189E+01    1.163E+01    1.137E+01    1.111E+01    1.085E+01    1.058E+01    1.032E+01    1.006E+01
     9.792E+00    9.527E+00    9.261E+00    8.995E+00    8.728E+00    8.461E+00    8.193E+00    7.925E+00    7.657E+00    7.388E+00
     7.119E+00    6.850E+00    6.580E+00    6.310E+00    6.041E+00    5.770E+00    5.500E+00    5.230E+00    4.959E+00    4.689E+00
     4.418E+00    4.147E+00    3.877E+00    3.606E+00    3.336E+00    3.065E+00    2.795E+00    2.525E+00    2.255E+00    1.985E+00
     1.715E+00    1.446E+00    1.177E+00    9.075E-01    6.387E-01    3.701E-01    1.016E-01   -1.667E-01   -4.349E-01   -7.030E-01
    -9.710E-01   -1.239E+00   -1.507E+00   -1.774E+00   -2.042E+00   -2.309E+00   -2.577E+00   -2.844E+00   -3.112E+00   -3.379E+00
    -3.647E+00   -3.914E+00   -4.182E+00   -4.449E+00   -4.717E+00   -4.985E+00   -5.252E+00   -5.520E+00   -5.788E+00   -6.056E+00
 Mac      Conc. = 1.59E-04
   3.74597E+01  3.71897E+01  3.69537E+01  3.66897E+01  3.62855E+01  3.56734E+01  3.48546E+01  3.39461E+01  3.31102E+01  3.24530E+01
   3.20189E+01  3.17974E+01  3.17028E+01  3.14133E+01  3.07162E+01  3.00921E+01  3.02804E+01  3.13445E+01  3.29513E+01  3.50183E+01
   3.73217E+01  3.92142E+01  4.05232E+01  4.15572E+01  4.24101E+01  4.31175E+01  4.38976E+01  4.48692E+01  4.58608E+01  4.67287E+01
   4.74790E+01  4.80957E+01  4.84673E+01  4.85693E+01  4.85407E+01  4.86516E+01  4.91853E+01  5.01018E+01  5.10344E+01  5.17004E+01
   5.20580E+01  5.22400E+01  5.24623E+01  5.28804E+01  5.33702E+01  5.37208E+01  5.38357E+01  5.36048E+01  5.30383E+01  5.23406E+01
   5.16790E+01  5.10820E+01  5.06030E+01  5.02532E+01  5.00303E+01  5.00716E+01  5.04202E+01  5.08834E+01  5.14390E+01  5.21348E+01
   5.27811E+01  5.31745E+01  5.33071E+01  5.31422E+01  5.27312E+01  5.23177E+01  5.19730E+01  5.16344E+01  5.14686E+01  5.17563E+01
   5.24534E+01  5.33652E+01  5.43383E+01  5.51892E+01  5.56797E+01  5.57531E+01  5.55268E+01  5.51257E+01  5.46911E+01  5.42646E+01
   5.38784E+01  5.36369E+01  5.36251E+01  5.37646E+01  5.40182E+01  5.43773E+01  5.47451E+01  5.50354E+01  5.52642E+01  5.54498E+01
   5.55380E+01  5.55424E+01  5.54494E+01  5.51345E+01  5.44971E+01  5.35515E+01  5.22810E+01  5.08286E+01  4.94494E+01  4.81515E+01
   4.67955E+01  4.53163E+01  4.36606E+01  4.16159E+01  3.89634E+01  3.57886E+01  3.25195E+01  2.97388E+01  2.78567E+01  2.70899E+01
