 LCModel (Version 6.3-1N) Copyright: S.W. Provencher.          Ref.: Magn. Reson. Med. 30:672-679 (1993).                
 Slice_N1@9_14  28-Feb-2025 11:44:24
 27 lines in following concentration table = NCONC+1
    Conc.  %SD /Cr+PCr  Metabolite                                         
 2.17E-04  11% 5.8E-04 Mac                                                 
    0.925  96%   2.454 Cr                                                  
    2.089  44%   5.546 PCr                                                 
    2.128  34%   5.649 Ins                                                 
    3.744  18%   9.938 NAA                                                 
    2.750  28%   7.299 Tau                                                 
    0.000 999%   0.000 PCho                                                
    0.484  45%   1.284 GPC                                                 
    5.678  20%  15.069 Glu                                                 
    1.919  33%   5.094 Gln                                                 
    0.000 999%   0.000 Ala                                                 
    0.000 999%   0.000 Asc                                                 
    0.788  78%   2.092 Asp                                                 
    0.000 999%   0.000 GABA                                                
    0.138 289%   0.366 Glc                                                 
    0.300 118%   0.797 GSH                                                 
    0.000 999%   0.000 Lac                                                 
    1.259  34%   3.342 NAAG                                                
    1.358  63%   3.604 PE                                                  
    0.484  45%   1.284 GPC+PCho                                            
    5.004  18%  13.280 NAA+NAAG                                            
    7.597  18%  20.163 Glu+Gln                                             
    3.014  22%   8.000 Cr+PCr                                              
    5.004  18%  13.280 NAA+NAAG                                            
    3.014  22%   8.000 Cr+PCr                                              
    7.597  18%  20.163 Glu+Gln                                             
   6 lines in following misc. output table
  FWHM = 0.024 ppm    S/N =   2                                            
  Data shift = 0.016 ppm                                                   
  Ph:-145 deg       0.0 deg/ppm                                            
  alphaB,S = 1.0E-01,   5.2E+00                                            
   19 spline knots.   Ns = 5(1)                                            
  ( 7) 2 infls.   ( 6) 2 extrs.                                            
  480 points on ppm-axis = NY
      4.100000     4.091866     4.083733     4.075600     4.067466     4.059333     4.051199     4.043066     4.034933     4.026799
      4.018666     4.010532     4.002399     3.994265     3.986132     3.977998     3.969864     3.961731     3.953597     3.945463
      3.937330     3.929196     3.921062     3.912929     3.904795     3.896662     3.888528     3.880394     3.872261     3.864127
      3.855993     3.847860     3.839726     3.831592     3.823459     3.815325     3.807191     3.799058     3.790924     3.782790
      3.774657     3.766523     3.758389     3.750256     3.742122     3.733989     3.725855     3.717721     3.709588     3.701454
      3.693320     3.685187     3.677053     3.668919     3.660786     3.652652     3.644518     3.636385     3.628251     3.620117
      3.611984     3.603850     3.595716     3.587583     3.579449     3.571316     3.563182     3.555048     3.546915     3.538781
      3.530647     3.522514     3.514380     3.506246     3.498113     3.489979     3.481845     3.473712     3.465578     3.457444
      3.449311     3.441177     3.433043     3.424910     3.416776     3.408643     3.400509     3.392375     3.384242     3.376108
      3.367974     3.359841     3.351707     3.343573     3.335440     3.327306     3.319172     3.311039     3.302905     3.294771
      3.286638     3.278504     3.270370     3.262237     3.254103     3.245970     3.237836     3.229702     3.221569     3.213435
      3.205301     3.197168     3.189034     3.180900     3.172767     3.164633     3.156499     3.148366     3.140232     3.132098
      3.123965     3.115831     3.107697     3.099564     3.091430     3.083297     3.075163     3.067029     3.058896     3.050762
      3.042628     3.034495     3.026361     3.018227     3.010094     3.001960     2.993826     2.985693     2.977559     2.969425
      2.961292     2.953158     2.945024     2.936891     2.928757     2.920624     2.912490     2.904356     2.896223     2.888089
      2.879955     2.871822     2.863688     2.855554     2.847421     2.839287     2.831153     2.823020     2.814886     2.806752
      2.798619     2.790485     2.782351     2.774218     2.766084     2.757951     2.749817     2.741683     2.733550     2.725416
      2.717282     2.709149     2.701015     2.692881     2.684748     2.676614     2.668480     2.660347     2.652213     2.644079
      2.635946     2.627812     2.619678     2.611545     2.603411     2.595278     2.587144     2.579010     2.570877     2.562743
      2.554609     2.546476     2.538342     2.530208     2.522075     2.513941     2.505807     2.497674     2.489540     2.481406
      2.473273     2.465139     2.457006     2.448872     2.440738     2.432605     2.424471     2.416337     2.408204     2.400070
      2.391936     2.383803     2.375669     2.367535     2.359402     2.351268     2.343134     2.335001     2.326867     2.318733
      2.310600     2.302466     2.294333     2.286199     2.278065     2.269932     2.261798     2.253664     2.245531     2.237397
      2.229263     2.221130     2.212996     2.204862     2.196729     2.188595     2.180461     2.172328     2.164194     2.156060
      2.147927     2.139793     2.131660     2.123526     2.115392     2.107259     2.099125     2.090991     2.082858     2.074724
      2.066590     2.058457     2.050323     2.042189     2.034056     2.025922     2.017788     2.009655     2.001521     1.993387
      1.985254     1.977120     1.968987     1.960853     1.952719     1.944586     1.936452     1.928318     1.920185     1.912051
      1.903917     1.895784     1.887650     1.879516     1.871383     1.863249     1.855115     1.846982     1.838848     1.830714
      1.822581     1.814447     1.806314     1.798180     1.790046     1.781913     1.773779     1.765645     1.757512     1.749378
      1.741244     1.733111     1.724977     1.716843     1.708710     1.700576     1.692442     1.684309     1.676175     1.668041
      1.659908     1.651774     1.643641     1.635507     1.627373     1.619240     1.611106     1.602972     1.594839     1.586705
      1.578571     1.570438     1.562304     1.554170     1.546037     1.537903     1.529769     1.521636     1.513502     1.505368
      1.497235     1.489101     1.480968     1.472834     1.464700     1.456567     1.448433     1.440299     1.432166     1.424032
      1.415898     1.407765     1.399631     1.391497     1.383364     1.375230     1.367096     1.358963     1.350829     1.342695
      1.334562     1.326428     1.318295     1.310161     1.302027     1.293894     1.285760     1.277626     1.269493     1.261359
      1.253225     1.245092     1.236958     1.228824     1.220691     1.212557     1.204423     1.196290     1.188156     1.180022
      1.171889     1.163755     1.155622     1.147488     1.139354     1.131221     1.123087     1.114953     1.106820     1.098686
      1.090552     1.082419     1.074285     1.066151     1.058018     1.049884     1.041750     1.033617     1.025483     1.017349
      1.009216     1.001082     0.992949     0.984815     0.976681     0.968548     0.960414     0.952280     0.944147     0.936013
      0.927879     0.919746     0.911612     0.903478     0.895345     0.887211     0.879077     0.870944     0.862810     0.854676
      0.846543     0.838409     0.830276     0.822142     0.814008     0.805875     0.797741     0.789607     0.781474     0.773340
      0.765206     0.757073     0.748939     0.740805     0.732672     0.724538     0.716404     0.708271     0.700137     0.692003
      0.683870     0.675736     0.667603     0.659469     0.651335     0.643202     0.635068     0.626934     0.618801     0.610667
      0.602533     0.594400     0.586266     0.578132     0.569999     0.561865     0.553731     0.545598     0.537464     0.529330
      0.521197     0.513063     0.504930     0.496796     0.488662     0.480529     0.472395     0.464261     0.456128     0.447994
      0.439861     0.431727     0.423593     0.415460     0.407326     0.399192     0.391059     0.382925     0.374792     0.366658
      0.358524     0.350391     0.342257     0.334124     0.325990     0.317856     0.309723     0.301589     0.293455     0.285322
      0.277188     0.269055     0.260921     0.252787     0.244654     0.236520     0.228386     0.220253     0.212119     0.203986
 NY phased data points follow
  -4.45948E+01 -6.36952E+01 -8.05419E+01 -7.09689E+01 -6.21209E+01 -6.58758E+01 -7.64633E+01 -6.44571E+01 -6.25935E+01 -7.24532E+01
  -6.27018E+01 -6.87132E+01 -8.78819E+01 -9.92843E+01 -8.90991E+01 -9.11698E+01 -9.71222E+01 -9.75262E+01 -1.34957E+02 -1.31597E+02
  -1.32022E+02 -1.52207E+02 -1.34594E+02 -1.39644E+02 -1.09721E+02 -8.28177E+01 -9.01106E+01 -6.06308E+01 -6.40217E+01 -7.29310E+01
  -5.89718E+01 -5.97245E+01 -3.93648E+01 -3.79972E+01 -4.72872E+01 -3.99397E+01 -4.15185E+01 -3.10784E+01 -3.71229E+01 -5.20936E+01
  -7.99099E+01 -1.20355E+02 -1.11555E+02 -1.00685E+02 -9.56611E+01 -7.81516E+01 -6.73536E+01 -4.20014E+01 -2.91281E+01 -1.48188E+01
  -1.66166E+00 -2.26561E+01 -1.54106E+01 -9.74260E+00 -3.83859E+01 -3.36346E+01 -2.67583E+01 -3.54899E+01 -3.92293E+01 -7.78179E+01
  -5.98351E+01 -4.26168E+01 -7.46824E+01 -1.67573E+01 -2.27393E+01 -2.63918E+01  1.16694E+01 -1.28737E+01 -1.63888E+00 -3.86400E+01
  -5.52492E+01 -6.15101E+01 -5.29974E+01 -2.08944E+01 -6.19740E+01 -3.19414E+01 -3.06074E+00 -9.49684E+00 -5.86072E+00  5.28762E+00
   1.98185E+01  1.69102E-01  2.00296E+00 -2.57980E+00 -2.28655E+01 -4.46403E+01 -4.38501E+01 -4.00051E+01 -3.61157E+01 -1.08705E+01
   3.57692E-01  1.47580E+00 -1.65077E+01  6.83421E+00  3.04038E+01  2.16485E+01  4.36249E+01  4.42693E+01  4.84433E+01  5.41949E+01
   3.99377E+01  4.24446E+01  3.81539E+01  3.67681E+01  3.03427E+01  1.98397E+01 -5.32294E-01 -1.09957E+01 -4.81177E+00 -3.62148E+01
  -6.51658E+01 -1.31975E+02 -1.60573E+02 -1.21000E+02 -1.13501E+02 -1.11660E+02 -1.18409E+02 -8.37740E+01 -8.24844E+01 -8.31937E+01
  -6.07704E+01 -8.41343E+01 -7.13728E+01 -6.80076E+01 -4.97119E+01 -3.59665E+01 -3.97325E+01 -1.79336E+01 -4.17544E+00  2.58208E+01
   5.73129E+01  8.76156E+01  1.00294E+02  4.73757E+01 -4.51140E+01 -8.18274E+01 -8.76699E+01 -1.02071E+02 -7.24568E+01 -6.67726E+01
  -9.87245E+01 -8.57997E+01 -9.20554E+01 -1.04695E+02 -8.46804E+01 -1.05724E+02 -1.03840E+02 -9.50665E+01 -1.05786E+02 -1.06742E+02
  -9.34139E+01 -8.69355E+01 -1.05026E+02 -9.09894E+01 -1.00982E+02 -8.63692E+01 -8.96700E+01 -1.08415E+02 -7.72971E+01 -9.47112E+01
  -8.19200E+01 -7.26897E+01 -7.95530E+01 -7.04913E+01 -6.45829E+01 -7.53870E+01 -9.78434E+01 -6.34184E+01 -7.94560E+01 -1.03541E+02
  -6.63645E+01 -6.07827E+01 -6.79999E+01 -3.82150E+01 -2.49382E+01 -5.66891E+01 -3.96343E+01 -2.12436E+01 -3.12327E+01 -2.17842E+01
  -4.35625E+01 -4.78492E+01 -4.01728E+01 -8.13005E+01 -9.52100E+01 -7.84762E+01 -8.45492E+01 -9.29826E+01 -8.20475E+01 -8.51356E+01
  -9.35267E+01 -9.16506E+01 -1.00558E+02 -9.27793E+01 -7.14828E+01 -5.88418E+01 -7.63301E+01 -8.83399E+01 -8.44979E+01 -8.14694E+01
  -6.94367E+01 -8.35102E+01 -7.52175E+01 -5.53625E+01 -5.20996E+01 -5.30448E+01 -6.26421E+01 -6.06735E+01 -7.00488E+01 -9.23991E+01
  -1.07701E+02 -1.09907E+02 -1.11547E+02 -1.01285E+02 -9.76834E+01 -8.47008E+01 -3.90819E+01 -1.27947E+01 -9.24053E+00 -1.19116E+01
  -2.55880E+00 -1.69734E+01 -3.83595E+01 -3.97639E+01 -4.41094E+01 -3.43823E+01 -2.97072E+01 -4.09582E+01 -4.77500E+01 -2.20131E+01
  -1.62603E+01 -4.96732E+01 -5.49548E+01 -5.10430E+01 -5.42480E+01 -5.47339E+01 -6.24747E+01 -7.70234E+01 -9.11601E+01 -9.15912E+01
  -1.11508E+02 -1.29698E+02 -1.08511E+02 -1.10875E+02 -1.09129E+02 -9.92168E+01 -1.03019E+02 -8.92144E+01 -7.75336E+01 -8.25068E+01
  -9.67373E+01 -1.00741E+02 -1.23246E+02 -1.26826E+02 -1.15683E+02 -1.31331E+02 -1.39127E+02 -1.71966E+02 -1.39762E+02 -1.31038E+01
   3.27670E+01  1.85408E+01  5.09862E+01  7.23167E+01  5.49117E+01  2.81386E+01  1.70474E+01  1.86993E+01  2.13246E+01  1.65470E+01
   9.40587E-01  1.19491E+01  2.20190E+01  2.24453E+01  1.06155E+01  1.21986E+01  6.22184E+00 -4.14427E+00  9.98618E+00 -8.52360E+00
   5.06875E+00  9.22877E+00  1.58714E+01  2.54848E+00 -2.28275E+01  1.30912E+01 -4.73655E+00 -1.39542E+01 -2.71711E+01 -3.02018E+01
  -1.61562E+01 -4.29488E+01 -6.28326E+01 -8.48872E+01 -9.10382E+01 -9.83594E+01 -1.03604E+02 -1.13749E+02 -1.25480E+02 -1.38604E+02
  -1.27236E+02 -1.24132E+02 -1.30902E+02 -1.10507E+02 -1.22947E+02 -1.15466E+02 -1.10050E+02 -8.25343E+01 -8.65107E+01 -8.76961E+01
  -5.57172E+01 -8.35117E+01 -5.31779E+01 -6.12686E+01 -4.95109E+01 -2.06422E+01 -4.96172E+01 -2.78115E+01 -2.57860E+01 -8.86098E+00
   3.78908E+00  7.15247E-01  4.29676E+00  1.23900E+00  1.87645E+01  3.29612E+01  5.38423E+01  7.94710E+01  8.12819E+01  8.14827E+01
   1.09732E+02  1.06201E+02  8.12913E+01  6.45317E+01  5.15157E+01  2.65893E+01 -7.10655E+00  7.27671E+00  8.86510E+00 -8.38762E+00
  -3.18107E+00  1.26341E+01  8.95822E+00  7.39309E-01  1.09652E+01 -9.32403E+00  1.62369E+01  6.89276E+01  4.95522E+01  4.35406E+01
   5.84664E+01  3.52389E+01  3.18002E+01  3.66089E+01  2.22742E+01  3.83988E+01  4.19860E+01  3.49069E+01  2.64141E+01  7.28608E+00
   2.22576E+01  1.81468E+01  1.03924E+01  1.60587E+01 -4.03566E+00 -1.31275E+00  3.47802E+00  1.34845E+00  1.81446E+01  8.86904E+00
   7.10030E+00  2.94148E+01  2.44977E+01  3.90151E+01  5.19395E+01  3.98880E+01  3.71950E+01  3.89177E+01  6.16938E+01  4.43689E+01
   3.60951E+01  5.05221E+01  3.95836E+01  6.36370E+01  6.70851E+01  7.17233E+01  8.45549E+01  9.31304E+01  1.17563E+02  1.24503E+02
   1.40680E+02  1.53239E+02  1.49735E+02  1.19002E+02  1.14803E+02  1.10845E+02  7.04704E+01  8.16864E+01  8.73479E+01  8.43260E+01
   7.10607E+01  3.91353E+01  4.54195E+01  3.49311E+01  2.93737E+01  4.02771E+01  1.25516E+01  1.89477E+00  2.70144E+01  1.89098E+01
  -3.56668E+00  1.34874E+01  1.81041E+01 -1.41576E+00 -2.05311E+00  1.99784E+00  1.11161E+00 -2.31415E+00 -7.74276E+00 -1.32241E+01
   5.50979E-01  4.27190E+00 -9.27735E+00 -4.78295E+00 -8.85425E+00 -1.04977E+01 -1.56014E+01 -1.49999E+01 -1.34596E+01 -1.71427E+01
   3.80185E+00 -5.53856E+00 -1.35190E+01  3.21137E+00 -5.84169E+00 -1.84388E+01 -2.37804E+01 -2.53318E+01 -1.20472E+01 -1.42724E+01
  -1.17210E+01 -7.06940E+00 -2.14080E+01 -1.17971E+01 -1.68674E+01 -7.95350E-03  3.05691E+00 -3.44536E+01 -2.92485E+01 -1.73084E+01
  -4.20676E+00 -1.49481E+01 -1.10999E+01  9.38925E+00  6.59896E+00 -1.13867E+01 -2.53535E+01 -1.20063E+01 -2.10659E+01 -8.14473E+00
  -6.55515E+00 -4.75255E+00  5.40772E+00 -2.81143E+01 -1.59546E+01 -2.39844E+00 -9.49450E+00 -2.08280E+01 -2.67575E+01 -1.21633E+01
  -1.25527E+01  5.93384E+00  1.22020E+01 -7.48295E+00 -1.47013E+01 -2.45399E+01 -1.55355E+01 -2.92883E+00 -1.14544E+01 -1.17769E+01
 NY points of the fit to the data follow
  -7.26871E+01 -7.63101E+01 -8.23575E+01 -8.90811E+01 -9.37801E+01 -9.28708E+01 -8.48373E+01 -7.39666E+01 -6.70575E+01 -6.56752E+01
  -6.80644E+01 -7.32705E+01 -7.96016E+01 -8.58862E+01 -8.97139E+01 -8.81329E+01 -9.09511E+01 -9.64049E+01 -1.04757E+02 -1.18327E+02
  -1.34152E+02 -1.43965E+02 -1.37993E+02 -1.19087E+02 -9.94067E+01 -8.30148E+01 -6.91444E+01 -6.24012E+01 -5.72672E+01 -5.20632E+01
  -4.75946E+01 -4.34320E+01 -3.97598E+01 -3.62026E+01 -3.16048E+01 -2.59364E+01 -2.07638E+01 -1.94442E+01 -2.40458E+01 -3.79545E+01
  -6.19292E+01 -8.90515E+01 -1.08759E+02 -1.13013E+02 -1.01722E+02 -8.01745E+01 -5.60562E+01 -3.62611E+01 -2.36692E+01 -1.64187E+01
  -1.28927E+01 -1.28756E+01 -1.56000E+01 -1.86843E+01 -2.28818E+01 -2.95930E+01 -3.44090E+01 -3.73715E+01 -4.22691E+01 -4.95501E+01
  -5.51131E+01 -5.52311E+01 -5.19362E+01 -4.52549E+01 -3.15839E+01 -1.77564E+01 -9.36769E+00 -5.40059E+00 -9.69337E+00 -2.37446E+01
  -4.05485E+01 -5.10765E+01 -5.42134E+01 -5.33619E+01 -4.78341E+01 -3.57872E+01 -2.28279E+01 -9.62579E+00  3.69766E+00  1.32074E+01
   1.77644E+01  1.30662E+01 -2.32805E-01 -1.95965E+01 -3.89969E+01 -5.21714E+01 -5.62503E+01 -5.29867E+01 -4.46300E+01 -3.59114E+01
  -2.93497E+01 -2.35613E+01 -1.95382E+01 -1.57156E+01 -1.12731E+01 -7.90185E+00 -5.35210E+00  3.14378E-01  5.06143E+00  1.19505E+01
   2.06864E+01  2.87697E+01  3.28889E+01  2.76146E+01  2.48702E+01  2.28309E+01  1.77414E+01  1.19516E+01  2.11945E+00 -2.44474E+01
  -6.53238E+01 -1.03380E+02 -1.21437E+02 -1.21108E+02 -1.14802E+02 -1.03123E+02 -9.24933E+01 -8.48206E+01 -7.92089E+01 -7.52176E+01
  -7.26280E+01 -7.14735E+01 -7.13233E+01 -7.15414E+01 -7.00319E+01 -6.72874E+01 -6.46224E+01 -3.99461E+01 -4.53067E+00  3.29687E+01
   6.91059E+01  9.44109E+01  8.88650E+01  4.24912E+01 -1.78303E+01 -5.66743E+01 -7.44942E+01 -8.58388E+01 -8.48615E+01 -8.26262E+01
  -8.24563E+01 -8.37966E+01 -8.54979E+01 -8.75095E+01 -8.97974E+01 -9.20961E+01 -9.39054E+01 -9.44290E+01 -9.34884E+01 -9.16157E+01
  -8.92115E+01 -8.67054E+01 -8.45389E+01 -8.28745E+01 -8.15031E+01 -7.98451E+01 -7.81135E+01 -7.64413E+01 -7.50063E+01 -7.37225E+01
  -7.25171E+01 -7.15877E+01 -7.12448E+01 -7.11361E+01 -7.11947E+01 -7.10217E+01 -7.11910E+01 -7.29683E+01 -7.52809E+01 -7.72298E+01
  -7.74378E+01 -7.36229E+01 -6.60495E+01 -5.90572E+01 -5.62049E+01 -5.76718E+01 -5.68679E+01 -5.09205E+01 -4.48498E+01 -4.38209E+01
  -4.84541E+01 -5.53314E+01 -6.16248E+01 -6.75449E+01 -7.29930E+01 -7.70018E+01 -8.02123E+01 -8.17107E+01 -8.16910E+01 -8.21744E+01
  -8.18003E+01 -7.97411E+01 -7.85844E+01 -7.84589E+01 -7.75307E+01 -7.41117E+01 -7.17390E+01 -7.29696E+01 -7.31224E+01 -7.05477E+01
  -6.84297E+01 -6.70818E+01 -6.39342E+01 -5.77610E+01 -5.15106E+01 -4.85003E+01 -4.80182E+01 -5.24522E+01 -6.06148E+01 -7.49286E+01
  -9.76017E+01 -1.15871E+02 -1.30706E+02 -1.34317E+02 -1.23040E+02 -9.81300E+01 -6.47550E+01 -3.51738E+01 -1.80965E+01 -1.24527E+01
  -1.92187E+01 -3.27713E+01 -4.05932E+01 -4.48634E+01 -4.33407E+01 -3.73424E+01 -2.96385E+01 -2.24211E+01 -1.86196E+01 -1.78265E+01
  -2.16737E+01 -2.98933E+01 -4.05729E+01 -5.36262E+01 -6.72878E+01 -8.06493E+01 -9.24619E+01 -1.02078E+02 -1.09999E+02 -1.15964E+02
  -1.19385E+02 -1.21295E+02 -1.20034E+02 -1.13010E+02 -1.04074E+02 -9.16645E+01 -8.07677E+01 -7.03119E+01 -7.03806E+01 -7.92506E+01
  -8.81906E+01 -9.03231E+01 -1.04138E+02 -1.23796E+02 -1.33049E+02 -1.40915E+02 -1.56783E+02 -1.63135E+02 -1.25922E+02 -6.05802E+01
  -8.76413E+00  1.57927E+01  2.82412E+01  2.67516E+01  1.83911E+01  1.17155E+01  6.56950E+00  1.77510E+00 -2.81395E+00 -6.97567E+00
  -1.05348E+01 -1.28049E+01 -1.39483E+01 -1.40051E+01 -1.38325E+01 -1.33138E+01 -1.28726E+01 -1.26065E+01 -1.25784E+01 -1.24607E+01
  -1.22605E+01 -1.25803E+01 -1.33549E+01 -1.43460E+01 -1.51252E+01 -1.56729E+01 -1.60819E+01 -1.64755E+01 -1.64225E+01 -1.65717E+01
  -1.75042E+01 -1.96790E+01 -2.34191E+01 -2.87411E+01 -3.53216E+01 -4.22528E+01 -4.82559E+01 -5.24111E+01 -5.44624E+01 -5.44355E+01
  -5.30305E+01 -5.06851E+01 -4.75127E+01 -4.38447E+01 -4.02813E+01 -3.69330E+01 -3.39498E+01 -3.10958E+01 -2.81039E+01 -2.46602E+01
  -2.05892E+01 -1.62237E+01 -1.21342E+01 -7.94720E+00 -3.35306E+00  1.54529E+00  6.25490E+00  1.07936E+01  1.50689E+01  1.85907E+01
   2.11849E+01  2.32639E+01  2.55518E+01  2.79497E+01  3.06242E+01  3.35129E+01  3.57821E+01  3.59524E+01  3.25444E+01  2.49572E+01
   1.38496E+01  5.58302E-01 -1.34826E+01 -2.65290E+01 -3.65020E+01 -4.19472E+01 -4.24731E+01 -3.92679E+01 -3.42844E+01 -2.95098E+01
  -2.61455E+01 -2.38882E+01 -2.15188E+01 -1.77635E+01 -1.23046E+01 -5.29654E+00  2.54386E+00  9.94660E+00  1.62805E+01  2.21435E+01
   2.77851E+01  3.19500E+01  3.42453E+01  3.40322E+01  3.07378E+01  2.46499E+01  1.70172E+01  9.70337E+00  3.73427E+00 -6.05871E-01
  -2.76811E+00 -2.91526E+00 -1.54658E+00  1.24893E+00  4.76312E+00  8.58670E+00  1.24605E+01  1.58396E+01  1.88251E+01  2.15564E+01
   2.39678E+01  2.59624E+01  2.77055E+01  2.89377E+01  2.96306E+01  3.02402E+01  3.13372E+01  3.27712E+01  3.42106E+01  3.63855E+01
   3.97397E+01  4.42719E+01  5.05536E+01  6.01388E+01  7.38752E+01  9.09510E+01  1.09756E+02  1.27437E+02  1.40831E+02  1.46996E+02
   1.45073E+02  1.36801E+02  1.25981E+02  1.15555E+02  1.07038E+02  1.01388E+02  9.73514E+01  9.29879E+01  8.62725E+01  7.72528E+01
   6.61451E+01  5.38665E+01  4.19446E+01  3.18068E+01  2.35806E+01  1.72012E+01  1.27660E+01  9.75358E+00  7.53896E+00  5.61915E+00
   3.82808E+00  1.98441E+00  3.77138E-01 -5.56380E-01 -9.40887E-01 -1.43654E+00 -1.87683E+00 -1.99631E+00 -2.15369E+00 -2.74023E+00
  -3.27261E+00 -3.19342E+00 -2.89275E+00 -3.02457E+00 -3.41877E+00 -3.57426E+00 -3.84477E+00 -4.33707E+00 -4.76092E+00 -4.83473E+00
  -4.46262E+00 -4.24936E+00 -4.25020E+00 -4.66689E+00 -5.29949E+00 -6.02091E+00 -6.48198E+00 -6.73038E+00 -6.77597E+00 -6.54122E+00
  -6.30090E+00 -6.09626E+00 -6.08504E+00 -6.10197E+00 -6.37952E+00 -7.04530E+00 -7.74076E+00 -8.09511E+00 -8.30677E+00 -8.41227E+00
  -8.46519E+00 -8.67875E+00 -9.06820E+00 -9.52491E+00 -9.80928E+00 -9.81862E+00 -9.86966E+00 -9.83410E+00 -9.69947E+00 -9.69166E+00
  -9.67410E+00 -9.58221E+00 -9.73434E+00 -1.01876E+01 -1.09610E+01 -1.16344E+01 -1.21153E+01 -1.22213E+01 -1.19107E+01 -1.12909E+01
  -1.07342E+01 -1.05663E+01 -1.09921E+01 -1.17093E+01 -1.22059E+01 -1.24988E+01 -1.27677E+01 -1.29487E+01 -1.32574E+01 -1.38601E+01
 NY background values follow
    -6.571E+01   -6.539E+01   -6.507E+01   -6.475E+01   -6.443E+01   -6.411E+01   -6.378E+01   -6.346E+01   -6.314E+01   -6.281E+01
    -6.248E+01   -6.215E+01   -6.181E+01   -6.147E+01   -6.113E+01   -6.079E+01   -6.044E+01   -6.008E+01   -5.972E+01   -5.936E+01
    -5.899E+01   -5.862E+01   -5.824E+01   -5.785E+01   -5.746E+01   -5.706E+01   -5.666E+01   -5.625E+01   -5.583E+01   -5.540E+01
    -5.496E+01   -5.452E+01   -5.407E+01   -5.361E+01   -5.314E+01   -5.267E+01   -5.219E+01   -5.170E+01   -5.121E+01   -5.072E+01
    -5.022E+01   -4.971E+01   -4.921E+01   -4.870E+01   -4.818E+01   -4.767E+01   -4.715E+01   -4.663E+01   -4.611E+01   -4.559E+01
    -4.507E+01   -4.455E+01   -4.403E+01   -4.351E+01   -4.299E+01   -4.247E+01   -4.196E+01   -4.145E+01   -4.094E+01   -4.044E+01
    -3.993E+01   -3.944E+01   -3.895E+01   -3.846E+01   -3.798E+01   -3.751E+01   -3.704E+01   -3.659E+01   -3.614E+01   -3.570E+01
    -3.527E+01   -3.484E+01   -3.443E+01   -3.404E+01   -3.365E+01   -3.327E+01   -3.291E+01   -3.256E+01   -3.223E+01   -3.191E+01
    -3.161E+01   -3.132E+01   -3.105E+01   -3.079E+01   -3.055E+01   -3.033E+01   -3.013E+01   -2.995E+01   -2.979E+01   -2.965E+01
    -2.953E+01   -2.943E+01   -2.935E+01   -2.929E+01   -2.926E+01   -2.924E+01   -2.924E+01   -2.926E+01   -2.929E+01   -2.935E+01
    -2.942E+01   -2.950E+01   -2.960E+01   -2.972E+01   -2.986E+01   -3.000E+01   -3.016E+01   -3.034E+01   -3.052E+01   -3.072E+01
    -3.093E+01   -3.115E+01   -3.139E+01   -3.163E+01   -3.188E+01   -3.215E+01   -3.242E+01   -3.270E+01   -3.298E+01   -3.328E+01
    -3.358E+01   -3.388E+01   -3.420E+01   -3.452E+01   -3.484E+01   -3.517E+01   -3.550E+01   -3.583E+01   -3.617E+01   -3.652E+01
    -3.686E+01   -3.720E+01   -3.755E+01   -3.790E+01   -3.825E+01   -3.860E+01   -3.895E+01   -3.930E+01   -3.964E+01   -3.999E+01
    -4.033E+01   -4.067E+01   -4.101E+01   -4.134E+01   -4.168E+01   -4.200E+01   -4.232E+01   -4.264E+01   -4.295E+01   -4.326E+01
    -4.356E+01   -4.385E+01   -4.414E+01   -4.441E+01   -4.469E+01   -4.496E+01   -4.522E+01   -4.547E+01   -4.572E+01   -4.596E+01
    -4.620E+01   -4.643E+01   -4.666E+01   -4.688E+01   -4.710E+01   -4.731E+01   -4.751E+01   -4.771E+01   -4.791E+01   -4.810E+01
    -4.829E+01   -4.847E+01   -4.865E+01   -4.882E+01   -4.899E+01   -4.916E+01   -4.932E+01   -4.948E+01   -4.964E+01   -4.979E+01
    -4.993E+01   -5.008E+01   -5.022E+01   -5.036E+01   -5.049E+01   -5.063E+01   -5.076E+01   -5.088E+01   -5.101E+01   -5.113E+01
    -5.125E+01   -5.137E+01   -5.149E+01   -5.160E+01   -5.171E+01   -5.183E+01   -5.194E+01   -5.205E+01   -5.215E+01   -5.226E+01
    -5.237E+01   -5.247E+01   -5.258E+01   -5.268E+01   -5.279E+01   -5.289E+01   -5.300E+01   -5.310E+01   -5.321E+01   -5.331E+01
    -5.342E+01   -5.352E+01   -5.363E+01   -5.374E+01   -5.385E+01   -5.396E+01   -5.407E+01   -5.418E+01   -5.429E+01   -5.440E+01
    -5.452E+01   -5.463E+01   -5.475E+01   -5.487E+01   -5.499E+01   -5.511E+01   -5.523E+01   -5.536E+01   -5.549E+01   -5.561E+01
    -5.575E+01   -5.588E+01   -5.601E+01   -5.615E+01   -5.629E+01   -5.643E+01   -5.657E+01   -5.672E+01   -5.686E+01   -5.701E+01
    -5.717E+01   -5.732E+01   -5.748E+01   -5.764E+01   -5.780E+01   -5.797E+01   -5.813E+01   -5.830E+01   -5.847E+01   -5.864E+01
    -5.881E+01   -5.898E+01   -5.915E+01   -5.932E+01   -5.949E+01   -5.966E+01   -5.983E+01   -6.001E+01   -6.018E+01   -6.035E+01
    -6.052E+01   -6.069E+01   -6.085E+01   -6.102E+01   -6.118E+01   -6.135E+01   -6.151E+01   -6.167E+01   -6.182E+01   -6.198E+01
    -6.213E+01   -6.228E+01   -6.242E+01   -6.255E+01   -6.268E+01   -6.280E+01   -6.290E+01   -6.299E+01   -6.306E+01   -6.312E+01
    -6.315E+01   -6.316E+01   -6.316E+01   -6.312E+01   -6.306E+01   -6.297E+01   -6.285E+01   -6.270E+01   -6.251E+01   -6.229E+01
    -6.203E+01   -6.174E+01   -6.140E+01   -6.102E+01   -6.059E+01   -6.012E+01   -5.960E+01   -5.903E+01   -5.841E+01   -5.774E+01
    -5.701E+01   -5.622E+01   -5.539E+01   -5.450E+01   -5.357E+01   -5.259E+01   -5.157E+01   -5.051E+01   -4.940E+01   -4.827E+01
    -4.710E+01   -4.589E+01   -4.466E+01   -4.340E+01   -4.212E+01   -4.081E+01   -3.948E+01   -3.813E+01   -3.677E+01   -3.540E+01
    -3.401E+01   -3.261E+01   -3.121E+01   -2.980E+01   -2.839E+01   -2.698E+01   -2.557E+01   -2.416E+01   -2.276E+01   -2.137E+01
    -1.999E+01   -1.863E+01   -1.727E+01   -1.594E+01   -1.461E+01   -1.330E+01   -1.201E+01   -1.073E+01   -9.468E+00   -8.226E+00
    -7.002E+00   -5.799E+00   -4.615E+00   -3.453E+00   -2.312E+00   -1.194E+00   -9.858E-02    9.725E-01    2.019E+00    3.040E+00
     4.035E+00    5.003E+00    5.944E+00    6.856E+00    7.739E+00    8.592E+00    9.415E+00    1.021E+01    1.097E+01    1.169E+01
     1.239E+01    1.305E+01    1.368E+01    1.427E+01    1.484E+01    1.537E+01    1.588E+01    1.635E+01    1.680E+01    1.721E+01
     1.760E+01    1.797E+01    1.830E+01    1.861E+01    1.890E+01    1.916E+01    1.939E+01    1.961E+01    1.980E+01    1.997E+01
     2.011E+01    2.024E+01    2.035E+01    2.043E+01    2.050E+01    2.055E+01    2.058E+01    2.059E+01    2.059E+01    2.057E+01
     2.053E+01    2.048E+01    2.042E+01    2.034E+01    2.024E+01    2.014E+01    2.002E+01    1.988E+01    1.974E+01    1.958E+01
     1.941E+01    1.922E+01    1.903E+01    1.882E+01    1.860E+01    1.838E+01    1.814E+01    1.789E+01    1.763E+01    1.737E+01
     1.709E+01    1.680E+01    1.651E+01    1.621E+01    1.590E+01    1.558E+01    1.526E+01    1.493E+01    1.459E+01    1.425E+01
     1.390E+01    1.355E+01    1.319E+01    1.282E+01    1.245E+01    1.208E+01    1.170E+01    1.132E+01    1.093E+01    1.054E+01
     1.015E+01    9.755E+00    9.357E+00    8.957E+00    8.556E+00    8.152E+00    7.748E+00    7.342E+00    6.936E+00    6.529E+00
     6.121E+00    5.714E+00    5.307E+00    4.901E+00    4.496E+00    4.092E+00    3.689E+00    3.288E+00    2.889E+00    2.492E+00
     2.098E+00    1.706E+00    1.317E+00    9.298E-01    5.450E-01    1.622E-01   -2.186E-01   -5.977E-01   -9.750E-01   -1.351E+00
    -1.725E+00   -2.098E+00   -2.469E+00   -2.840E+00   -3.209E+00   -3.577E+00   -3.945E+00   -4.312E+00   -4.678E+00   -5.044E+00
    -5.409E+00   -5.774E+00   -6.139E+00   -6.504E+00   -6.868E+00   -7.234E+00   -7.599E+00   -7.965E+00   -8.331E+00   -8.698E+00
 Mac      Conc. = 2.17E-04
  -7.85592E+01 -7.89098E+01 -7.87769E+01 -7.79655E+01 -7.66830E+01 -7.54005E+01 -7.48002E+01 -7.51420E+01 -7.66769E+01 -7.89491E+01
  -8.10004E+01 -8.19531E+01 -8.15895E+01 -8.13831E+01 -8.23780E+01 -8.47672E+01 -8.94130E+01 -9.56420E+01 -1.00007E+02 -1.00161E+02
  -9.64005E+01 -9.12974E+01 -8.56534E+01 -7.99546E+01 -7.58671E+01 -7.38226E+01 -7.24601E+01 -7.10878E+01 -6.95044E+01 -6.70518E+01
  -6.38294E+01 -6.02786E+01 -5.73416E+01 -5.53884E+01 -5.47374E+01 -5.53116E+01 -5.64051E+01 -5.69852E+01 -5.58597E+01 -5.29863E+01
  -4.97170E+01 -4.75133E+01 -4.68039E+01 -4.64000E+01 -4.52247E+01 -4.26881E+01 -3.93212E+01 -3.62243E+01 -3.40234E+01 -3.29294E+01
  -3.29651E+01 -3.39893E+01 -3.54903E+01 -3.72900E+01 -3.89926E+01 -4.06992E+01 -4.23149E+01 -4.33696E+01 -4.31549E+01 -4.16879E+01
  -3.93084E+01 -3.64415E+01 -3.30310E+01 -2.99298E+01 -2.79069E+01 -2.71491E+01 -2.77577E+01 -2.95676E+01 -3.17317E+01 -3.39175E+01
  -3.61391E+01 -3.68447E+01 -3.53045E+01 -3.16731E+01 -2.74124E+01 -2.35199E+01 -2.03934E+01 -1.84209E+01 -1.77991E+01 -1.83098E+01
  -1.93545E+01 -2.08322E+01 -2.21759E+01 -2.36213E+01 -2.43401E+01 -2.42124E+01 -2.35541E+01 -2.25753E+01 -2.13420E+01 -2.01416E+01
  -1.88904E+01 -1.73170E+01 -1.54678E+01 -1.31363E+01 -1.08050E+01 -8.82497E+00 -7.97366E+00 -8.33485E+00 -9.70894E+00 -1.15724E+01
  -1.29933E+01 -1.30991E+01 -1.17013E+01 -1.01434E+01 -9.56731E+00 -1.09602E+01 -1.59116E+01 -2.49009E+01 -3.68604E+01 -4.89671E+01
