 
 $NMID
 ID=''
 FMTDAT='(2E13.5)'
 TRAMP=   1.00000E+0
 VOLUME=   1.00000E+0
 $END
   5.03194E+5   3.18723E+5
   1.00162E+6   1.26777E+6
   1.16088E+6   1.10072E+6
   1.02708E+6   1.04829E+6
   9.75493E+5   1.12204E+6
   9.41868E+5   1.11661E+6
   8.94443E+5   1.14953E+6
   9.34424E+5   1.18734E+6
   9.39213E+5   1.12153E+6
   8.62734E+5   1.10531E+6
   8.31549E+5   1.14557E+6
   8.25029E+5   1.14724E+6
   8.12748E+5   1.15071E+6
   8.20889E+5   1.14192E+6
   7.94122E+5   1.10477E+6
   7.46368E+5   1.10465E+6
   7.38501E+5   1.13151E+6
   7.27728E+5   1.12892E+6
   7.01297E+5   1.12449E+6
   6.85771E+5   1.11694E+6
   6.52630E+5   1.10440E+6
   6.18570E+5   1.11318E+6
   6.11800E+5   1.11820E+6
   5.99213E+5   1.10576E+6
   5.73655E+5   1.09648E+6
   5.63514E+5   1.08534E+6
   5.47209E+5   1.07527E+6
   5.30240E+5   1.07363E+6
   5.22120E+5   1.06379E+6
   5.12663E+5   1.04744E+6
   4.94048E+5   1.04278E+6
   4.78119E+5   1.03391E+6
   4.57928E+5   1.02250E+6
   4.40572E+5   1.01782E+6
   4.28048E+5   1.01016E+6
   4.13235E+5   9.98385E+5
   3.96273E+5   9.91869E+5
   3.78781E+5   9.82511E+5
   3.60603E+5   9.70627E+5
   3.49225E+5   9.63682E+5
   3.40986E+5   9.53007E+5
   3.29183E+5   9.37756E+5
   3.17526E+5   9.23506E+5
   3.07161E+5   9.13039E+5
   2.96348E+5   9.03597E+5
   2.88625E+5   8.94732E+5
   2.78318E+5   8.82034E+5
   2.62749E+5   8.68694E+5
   2.47586E+5   8.57225E+5
   2.35604E+5   8.48011E+5
   2.24225E+5   8.38611E+5
   2.12284E+5   8.27169E+5
   2.00123E+5   8.15574E+5
   1.87076E+5   8.05598E+5
   1.75711E+5   7.95976E+5
   1.65553E+5   7.85582E+5
   1.56053E+5   7.74140E+5
   1.46686E+5   7.61575E+5
   1.37212E+5   7.49540E+5
   1.28756E+5   7.40026E+5
   1.20462E+5   7.30678E+5
   1.11855E+5   7.20135E+5
   1.02570E+5   7.08748E+5
   9.22981E+4   6.98154E+5
   8.24389E+4   6.87906E+5
   7.38692E+4   6.77208E+5
   6.61512E+4   6.65572E+5
   5.85450E+4   6.54675E+5
   4.98339E+4   6.45641E+5
   4.07701E+4   6.36856E+5
   3.35389E+4   6.26815E+5
   2.85708E+4   6.16087E+5
   2.27094E+4   6.06514E+5
   1.54188E+4   5.97149E+5
   7.75184E+3   5.87987E+5
   2.56908E+3   5.78727E+5
  -2.27662E+3   5.69757E+5
  -8.32655E+3   5.60112E+5
  -1.51020E+4   5.50081E+5
  -2.21169E+4   5.41017E+5
  -2.80058E+4   5.32860E+5
  -3.22805E+4   5.24029E+5
  -3.67391E+4   5.14943E+5
  -4.21027E+4   5.05504E+5
  -4.76496E+4   4.96627E+5
  -5.24772E+4   4.88746E+5
  -5.52068E+4   4.81330E+5
  -5.80590E+4   4.73027E+5
  -6.13985E+4   4.64086E+5
  -6.48128E+4   4.55359E+5
  -6.80518E+4   4.48092E+5
  -7.02345E+4   4.41616E+5
  -7.28467E+4   4.34103E+5
  -7.51479E+4   4.25186E+5
  -7.82134E+4   4.16221E+5
  -8.08990E+4   4.08938E+5
  -8.35036E+4   4.03141E+5
  -8.50171E+4   3.96334E+5
  -8.62026E+4   3.87693E+5
  -8.75264E+4   3.80011E+5
  -9.01896E+4   3.73783E+5
  -9.23752E+4   3.67791E+5
  -9.34092E+4   3.60430E+5
  -9.30401E+4   3.52993E+5
  -9.32086E+4   3.45948E+5
  -9.42556E+4   3.39553E+5
  -9.55226E+4   3.33312E+5
  -9.64805E+4   3.27047E+5
  -9.63065E+4   3.20009E+5
  -9.57636E+4   3.12993E+5
  -9.58713E+4   3.06284E+5
  -9.71747E+4   3.00648E+5
  -9.83311E+4   2.94577E+5
  -9.85427E+4   2.88257E+5
  -9.81967E+4   2.81665E+5
  -9.85610E+4   2.75487E+5
  -9.98162E+4   2.69063E+5
  -1.00141E+5   2.62502E+5
  -9.95349E+4   2.56899E+5
  -9.84999E+4   2.51292E+5
  -9.85645E+4   2.45603E+5
  -9.90438E+4   2.39256E+5
  -9.89213E+4   2.33644E+5
  -9.90204E+4   2.28672E+5
  -9.87849E+4   2.22970E+5
  -9.86946E+4   2.16931E+5
  -9.82047E+4   2.11212E+5
  -9.81162E+4   2.06043E+5
  -9.83759E+4   2.00636E+5
  -9.84108E+4   1.95754E+5
  -9.82319E+4   1.90412E+5
  -9.82484E+4   1.84914E+5
  -9.82805E+4   1.79604E+5
  -9.85072E+4   1.74681E+5
  -9.81237E+4   1.70318E+5
  -9.77400E+4   1.65729E+5
  -9.75639E+4   1.60531E+5
  -9.71537E+4   1.56217E+5
  -9.71351E+4   1.51773E+5
  -9.73433E+4   1.47438E+5
  -9.72296E+4   1.42960E+5
  -9.60836E+4   1.38463E+5
  -9.54442E+4   1.34583E+5
  -9.52665E+4   1.30547E+5
  -9.52819E+4   1.26767E+5
  -9.45121E+4   1.22851E+5
  -9.39456E+4   1.19284E+5
  -9.34672E+4   1.15664E+5
  -9.28907E+4   1.12357E+5
  -9.18131E+4   1.08787E+5
  -9.10947E+4   1.05610E+5
  -9.01010E+4   1.02633E+5
  -8.94022E+4   9.96260E+4
  -8.87063E+4   9.67479E+4
  -8.75660E+4   9.36818E+4
  -8.64516E+4   9.09468E+4
  -8.56030E+4   8.82365E+4
  -8.46535E+4   8.54531E+4
  -8.35557E+4   8.30455E+4
  -8.25277E+4   8.04410E+4
  -8.13242E+4   7.80285E+4
  -8.02547E+4   7.54444E+4
  -7.90193E+4   7.31233E+4
  -7.80886E+4   7.10456E+4
  -7.67546E+4   6.88693E+4
  -7.51857E+4   6.70641E+4
  -7.39981E+4   6.47798E+4
  -7.31380E+4   6.28575E+4
  -7.18779E+4   6.09041E+4
  -7.02003E+4   5.92271E+4
  -6.89431E+4   5.74723E+4
  -6.73977E+4   5.57008E+4
  -6.63584E+4   5.37947E+4
  -6.50448E+4   5.23194E+4
  -6.38305E+4   5.06269E+4
  -6.20653E+4   4.92479E+4
  -6.10484E+4   4.73927E+4
  -5.95495E+4   4.58428E+4
  -5.83548E+4   4.39720E+4
  -5.69259E+4   4.27854E+4
  -5.56728E+4   4.13282E+4
  -5.43633E+4   3.99210E+4
  -5.32044E+4   3.81456E+4
  -5.17476E+4   3.70203E+4
  -5.03216E+4   3.55252E+4
  -4.89699E+4   3.44190E+4
  -4.79350E+4   3.32370E+4
  -4.65040E+4   3.19665E+4
  -4.51806E+4   3.10221E+4
  -4.40596E+4   2.96762E+4
  -4.30403E+4   2.89634E+4
  -4.16692E+4   2.76976E+4
  -4.06048E+4   2.65173E+4
  -3.91559E+4   2.53545E+4
  -3.81892E+4   2.43497E+4
  -3.71441E+4   2.34853E+4
  -3.60941E+4   2.26758E+4
  -3.50047E+4   2.15980E+4
  -3.39618E+4   2.06315E+4
  -3.30007E+4   1.98525E+4
  -3.21475E+4   1.89192E+4
  -3.09657E+4   1.81365E+4
  -3.01637E+4   1.73633E+4
  -2.88309E+4   1.68882E+4
  -2.82282E+4   1.60368E+4
  -2.73108E+4   1.53511E+4
  -2.65196E+4   1.48148E+4
  -2.56083E+4   1.44683E+4
  -2.44682E+4   1.35649E+4
  -2.37962E+4   1.28877E+4
  -2.26365E+4   1.25206E+4
  -2.19567E+4   1.19122E+4
  -2.12615E+4   1.14094E+4
  -2.06339E+4   1.09091E+4
  -1.96307E+4   1.06278E+4
  -1.88692E+4   9.98185E+3
  -1.79106E+4   9.45914E+3
  -1.69987E+4   9.28457E+3
  -1.65691E+4   9.00412E+3
  -1.57541E+4   8.60719E+3
  -1.52138E+4   8.39755E+3
  -1.46282E+4   8.18900E+3
  -1.39543E+4   7.83695E+3
  -1.30786E+4   7.73936E+3
  -1.26172E+4   7.49086E+3
  -1.21458E+4   7.05437E+3
  -1.17375E+4   7.02887E+3
  -1.08750E+4   6.90448E+3
  -1.04368E+4   6.76446E+3
  -1.00624E+4   6.44256E+3
  -9.36314E+3   6.39527E+3
  -8.93162E+3   6.17538E+3
  -8.68851E+3   6.08229E+3
  -8.17763E+3   5.88700E+3
  -7.77093E+3   5.87337E+3
  -7.26549E+3   6.02396E+3
  -7.08849E+3   5.88630E+3
  -6.52429E+3   5.81030E+3
  -6.04801E+3   5.60758E+3
  -5.98678E+3   5.69595E+3
  -5.31052E+3   5.44643E+3
  -5.25207E+3   5.51070E+3
  -4.94361E+3   5.59735E+3
  -4.49351E+3   5.46361E+3
  -4.46925E+3   5.56324E+3
  -4.42912E+3   5.54616E+3
  -3.89056E+3   5.36652E+3
  -3.85211E+3   5.53956E+3
  -3.52010E+3   5.55604E+3
  -3.34259E+3   5.56969E+3
  -3.01281E+3   5.56244E+3
  -3.25408E+3   5.58495E+3
  -2.85337E+3   5.72143E+3
  -2.98445E+3   5.57642E+3
  -2.57746E+3   5.63144E+3
  -2.66566E+3   5.54404E+3
  -2.41852E+3   5.83782E+3
  -2.26038E+3   5.89421E+3
  -2.33428E+3   6.03962E+3
  -2.23166E+3   5.88054E+3
  -2.04671E+3   5.96504E+3
  -1.90130E+3   5.60973E+3
  -2.08926E+3   5.77544E+3
  -1.78803E+3   5.86675E+3
  -1.64436E+3   5.67499E+3
  -1.47866E+3   5.75924E+3
  -1.43911E+3   5.70657E+3
  -1.69107E+3   5.76809E+3
  -1.59383E+3   5.66940E+3
  -1.49853E+3   5.73091E+3
  -1.43061E+3   5.64453E+3
  -1.52811E+3   5.68254E+3
  -1.44028E+3   5.59018E+3
  -1.50449E+3   5.62127E+3
  -1.47334E+3   5.41237E+3
  -1.43675E+3   5.43238E+3
  -1.30708E+3   5.35236E+3
  -1.49693E+3   5.40959E+3
  -1.22065E+3   5.13894E+3
  -1.55517E+3   5.47335E+3
  -1.44960E+3   5.29944E+3
  -1.30120E+3   5.10795E+3
  -1.60397E+3   5.24126E+3
  -1.82506E+3   4.85868E+3
  -1.69319E+3   5.15197E+3
  -1.42325E+3   4.95517E+3
  -1.30291E+3   5.02568E+3
  -1.56268E+3   4.69754E+3
  -1.54183E+3   4.87450E+3
  -1.66027E+3   4.75023E+3
  -1.76729E+3   4.38760E+3
  -1.56262E+3   4.77866E+3
  -1.50348E+3   4.45739E+3
  -1.53566E+3   4.64679E+3
  -1.89065E+3   4.42776E+3
  -1.76829E+3   4.38340E+3
  -1.86723E+3   4.16619E+3
  -1.67623E+3   4.22089E+3
  -1.85834E+3   4.16000E+3
  -1.67499E+3   4.13487E+3
  -1.89318E+3   4.03084E+3
  -1.71492E+3   3.75034E+3
  -1.92430E+3   3.77582E+3
  -2.09701E+3   3.77010E+3
  -2.06083E+3   3.67778E+3
  -1.97465E+3   3.47949E+3
  -2.02044E+3   3.48541E+3
  -1.88300E+3   3.32022E+3
  -1.92546E+3   3.32855E+3
  -2.21799E+3   3.15146E+3
  -2.33210E+3   3.19652E+3
  -2.00023E+3   2.87814E+3
  -1.98526E+3   3.14323E+3
  -1.93074E+3   3.13082E+3
  -2.15301E+3   3.01938E+3
  -2.19591E+3   3.02744E+3
  -2.23105E+3   2.84019E+3
  -2.04556E+3   2.65972E+3
  -2.12098E+3   2.56047E+3
  -2.06708E+3   2.62610E+3
  -1.88951E+3   2.73673E+3
  -2.00367E+3   2.39834E+3
  -2.05592E+3   2.48214E+3
  -1.84109E+3   2.35911E+3
  -2.04896E+3   2.39262E+3
  -1.95408E+3   2.40533E+3
  -2.19570E+3   1.99437E+3
  -2.03578E+3   1.84985E+3
  -1.94913E+3   2.07658E+3
  -1.91100E+3   1.91121E+3
  -1.67769E+3   1.71947E+3
  -1.79733E+3   1.72608E+3
  -1.79895E+3   1.60879E+3
  -1.64737E+3   1.65289E+3
  -1.79892E+3   1.55159E+3
  -1.36663E+3   1.29221E+3
  -1.46873E+3   1.25489E+3
  -1.42472E+3   1.32539E+3
  -1.27323E+3   9.41259E+2
  -1.31044E+3   8.35045E+2
  -1.08729E+3   8.21887E+2
  -1.43327E+3   6.80260E+2
  -1.24513E+3   5.33252E+2
  -1.15760E+3   3.90302E+2
  -1.04799E+3   2.81669E+2
  -8.95032E+2   1.32886E+2
  -9.87540E+2   1.91393E+1
  -6.93055E+2   3.35980E+1
  -7.93591E+2  -1.68610E+2
  -7.51598E+2  -3.11817E+1
  -6.47336E+2  -2.77835E+2
  -4.58003E+2  -3.30339E+2
  -5.03911E+2  -3.11819E+2
  -4.97663E+2  -4.11917E+2
  -4.16776E+2  -6.53361E+2
  -1.96032E+2  -6.59986E+2
   1.04186E+2  -5.10517E+2
   8.02296E+1  -8.38459E+2
   3.84996E+2  -1.02458E+3
   1.57801E+2  -1.15389E+3
   2.85051E+2  -1.10822E+3
   6.02985E+2  -1.03077E+3
   7.76108E+2  -1.15312E+3
   7.77350E+2  -1.20704E+3
   6.22665E+2  -1.05997E+3
   8.42191E+2  -1.29487E+3
   9.27549E+2  -1.39782E+3
