 
 $NMID
 ID=''
 FMTDAT='(2E13.5)'
 TRAMP=   1.00000E+0
 VOLUME=   1.00000E+0
 $END
   7.90095E+4   7.71587E+5
  -5.86785E+5   1.99058E+6
  -3.93388E+5   2.01555E+6
  -4.74083E+5   1.89517E+6
  -5.47811E+5   1.93274E+6
  -5.41720E+5   1.88431E+6
  -6.08656E+5   1.84153E+6
  -6.25804E+5   1.88181E+6
  -6.03491E+5   1.81962E+6
  -6.87140E+5   1.75872E+6
  -7.28430E+5   1.78262E+6
  -7.08144E+5   1.74527E+6
  -7.52444E+5   1.68862E+6
  -7.92018E+5   1.68397E+6
  -7.96774E+5   1.64958E+6
  -8.23900E+5   1.61111E+6
  -8.51045E+5   1.59867E+6
  -8.74582E+5   1.55745E+6
  -9.11002E+5   1.52219E+6
  -9.24216E+5   1.50678E+6
  -9.42399E+5   1.46248E+6
  -9.80119E+5   1.42894E+6
  -9.93766E+5   1.41295E+6
  -1.00509E+6   1.37298E+6
  -1.03640E+6   1.33308E+6
  -1.04688E+6   1.31480E+6
  -1.05661E+6   1.28385E+6
  -1.07732E+6   1.25159E+6
  -1.08968E+6   1.22182E+6
  -1.09891E+6   1.18993E+6
  -1.11892E+6   1.16110E+6
  -1.12889E+6   1.13211E+6
  -1.14166E+6   1.09592E+6
  -1.15777E+6   1.06748E+6
  -1.16417E+6   1.03862E+6
  -1.17375E+6   1.00548E+6
  -1.19146E+6   9.79199E+5
  -1.20161E+6   9.50994E+5
  -1.20626E+6   9.16090E+5
  -1.21584E+6   8.88422E+5
  -1.22254E+6   8.61800E+5
  -1.22670E+6   8.31433E+5
  -1.22903E+6   8.03886E+5
  -1.23319E+6   7.79229E+5
  -1.23817E+6   7.51363E+5
  -1.24275E+6   7.24470E+5
  -1.24618E+6   6.95737E+5
  -1.25107E+6   6.65027E+5
  -1.25258E+6   6.36135E+5
  -1.25237E+6   6.07830E+5
  -1.25578E+6   5.78971E+5
  -1.25845E+6   5.52522E+5
  -1.25822E+6   5.25974E+5
  -1.25892E+6   4.97862E+5
  -1.25918E+6   4.69970E+5
  -1.25864E+6   4.43752E+5
  -1.25623E+6   4.16664E+5
  -1.25189E+6   3.89653E+5
  -1.24706E+6   3.64936E+5
  -1.24462E+6   3.41576E+5
  -1.24169E+6   3.16130E+5
  -1.23738E+6   2.89740E+5
  -1.23304E+6   2.65001E+5
  -1.22853E+6   2.40183E+5
  -1.22129E+6   2.13915E+5
  -1.21309E+6   1.88752E+5
  -1.20610E+6   1.65085E+5
  -1.19884E+6   1.42716E+5
  -1.19162E+6   1.19320E+5
  -1.18469E+6   9.44605E+4
  -1.17627E+6   7.11217E+4
  -1.16622E+6   4.97780E+4
  -1.15757E+6   2.91567E+4
  -1.14937E+6   7.15151E+3
  -1.13934E+6  -1.49009E+4
  -1.12842E+6  -3.57189E+4
  -1.11856E+6  -5.62923E+4
  -1.10833E+6  -7.70888E+4
  -1.09701E+6  -9.79420E+4
  -1.08485E+6  -1.18579E+5
  -1.07253E+6  -1.39225E+5
  -1.06058E+6  -1.58533E+5
  -1.04841E+6  -1.76652E+5
  -1.03542E+6  -1.95897E+5
  -1.02201E+6  -2.15103E+5
  -1.00855E+6  -2.32393E+5
  -9.95649E+5  -2.48524E+5
  -9.82524E+5  -2.64695E+5
  -9.68694E+5  -2.80605E+5
  -9.54438E+5  -2.95000E+5
  -9.40622E+5  -3.08667E+5
  -9.27045E+5  -3.22490E+5
  -9.13357E+5  -3.37009E+5
  -8.97940E+5  -3.50350E+5
  -8.81909E+5  -3.62621E+5
  -8.66901E+5  -3.74403E+5
  -8.52633E+5  -3.86233E+5
  -8.38199E+5  -3.97911E+5
  -8.22163E+5  -4.09209E+5
  -8.06722E+5  -4.19308E+5
  -7.91864E+5  -4.29610E+5
  -7.76840E+5  -4.40049E+5
  -7.60285E+5  -4.49188E+5
  -7.43785E+5  -4.57521E+5
  -7.28426E+5  -4.64818E+5
  -7.13741E+5  -4.71907E+5
  -6.98991E+5  -4.79673E+5
  -6.82316E+5  -4.87179E+5
  -6.65670E+5  -4.93123E+5
  -6.49933E+5  -4.98066E+5
  -6.35067E+5  -5.03134E+5
  -6.19581E+5  -5.09850E+5
  -6.03231E+5  -5.15783E+5
  -5.86831E+5  -5.21558E+5
  -5.70701E+5  -5.26323E+5
  -5.54560E+5  -5.31413E+5
  -5.37952E+5  -5.36385E+5
  -5.21220E+5  -5.39956E+5
  -5.05122E+5  -5.42422E+5
  -4.89946E+5  -5.44898E+5
  -4.75120E+5  -5.48134E+5
  -4.60332E+5  -5.51093E+5
  -4.44881E+5  -5.53569E+5
  -4.29228E+5  -5.56025E+5
  -4.14008E+5  -5.58236E+5
  -3.98112E+5  -5.59682E+5
  -3.82849E+5  -5.60367E+5
  -3.67634E+5  -5.61496E+5
  -3.52908E+5  -5.62372E+5
  -3.37913E+5  -5.63510E+5
  -3.22071E+5  -5.64608E+5
  -3.06174E+5  -5.65234E+5
  -2.90957E+5  -5.64881E+5
  -2.76735E+5  -5.63917E+5
  -2.62218E+5  -5.63788E+5
  -2.47625E+5  -5.62753E+5
  -2.33380E+5  -5.61315E+5
  -2.19984E+5  -5.59653E+5
  -2.06085E+5  -5.58369E+5
  -1.92031E+5  -5.56400E+5
  -1.78225E+5  -5.54105E+5
  -1.65410E+5  -5.50730E+5
  -1.52955E+5  -5.47456E+5
  -1.40398E+5  -5.45080E+5
  -1.27699E+5  -5.42249E+5
  -1.14991E+5  -5.38371E+5
  -1.02383E+5  -5.34221E+5
  -9.05395E+4  -5.29838E+5
  -7.86718E+4  -5.25483E+5
  -6.76034E+4  -5.20535E+5
  -5.65578E+4  -5.15548E+5
  -4.59692E+4  -5.10477E+5
  -3.57014E+4  -5.05697E+5
  -2.59545E+4  -5.00892E+5
  -1.52365E+4  -4.95542E+5
  -5.68025E+3  -4.89684E+5
   3.39019E+3  -4.83734E+5
   1.22904E+4  -4.78051E+5
   2.15387E+4  -4.71776E+5
   3.03534E+4  -4.65923E+5
   3.86674E+4  -4.59616E+5
   4.69106E+4  -4.52959E+5
   5.54676E+4  -4.46497E+5
   6.37481E+4  -4.39876E+5
   7.10657E+4  -4.33047E+5
   7.79912E+4  -4.26256E+5
   8.49751E+4  -4.19705E+5
   9.24275E+4  -4.12981E+5
   9.92290E+4  -4.06421E+5
   1.05593E+5  -3.99343E+5
   1.11415E+5  -3.92588E+5
   1.17759E+5  -3.85901E+5
   1.23576E+5  -3.78811E+5
   1.29361E+5  -3.71749E+5
   1.34896E+5  -3.65003E+5
   1.40093E+5  -3.57985E+5
   1.45596E+5  -3.51032E+5
   1.51315E+5  -3.44068E+5
   1.55904E+5  -3.36387E+5
   1.60862E+5  -3.29168E+5
   1.65343E+5  -3.22514E+5
   1.69933E+5  -3.15512E+5
   1.74291E+5  -3.08207E+5
   1.78666E+5  -3.00868E+5
   1.82393E+5  -2.93845E+5
   1.86067E+5  -2.86923E+5
   1.89521E+5  -2.80018E+5
   1.92945E+5  -2.72806E+5
   1.95709E+5  -2.65781E+5
   1.98203E+5  -2.59324E+5
   2.01848E+5  -2.52997E+5
   2.04951E+5  -2.46004E+5
   2.07627E+5  -2.38521E+5
   2.09983E+5  -2.31389E+5
   2.12094E+5  -2.24523E+5
   2.14528E+5  -2.17678E+5
   2.16373E+5  -2.10752E+5
   2.18518E+5  -2.03870E+5
   2.20245E+5  -1.96805E+5
   2.22051E+5  -1.89991E+5
   2.23884E+5  -1.82931E+5
   2.24981E+5  -1.75994E+5
   2.25437E+5  -1.69300E+5
   2.26428E+5  -1.62768E+5
   2.27105E+5  -1.56517E+5
   2.27947E+5  -1.49764E+5
   2.28627E+5  -1.42947E+5
   2.28913E+5  -1.36266E+5
   2.28936E+5  -1.30091E+5
   2.29202E+5  -1.23612E+5
   2.29169E+5  -1.17460E+5
   2.28722E+5  -1.10889E+5
   2.28406E+5  -1.04950E+5
   2.28382E+5  -9.90635E+4
   2.27952E+5  -9.28484E+4
   2.27191E+5  -8.67653E+4
   2.26172E+5  -8.07178E+4
   2.24864E+5  -7.50878E+4
   2.23601E+5  -7.00021E+4
   2.22420E+5  -6.45799E+4
   2.21219E+5  -5.89714E+4
   2.19507E+5  -5.38867E+4
   2.18158E+5  -4.86932E+4
   2.16341E+5  -4.36236E+4
   2.14894E+5  -3.84470E+4
   2.12873E+5  -3.33555E+4
   2.10502E+5  -2.88158E+4
   2.08473E+5  -2.43307E+4
   2.06972E+5  -1.98623E+4
   2.04664E+5  -1.52185E+4
   2.02481E+5  -1.05843E+4
   2.00150E+5  -6.73608E+3
   1.97722E+5  -2.64485E+3
   1.95430E+5   1.37333E+3
   1.92927E+5   5.27024E+3
   1.90130E+5   9.16766E+3
   1.87902E+5   1.24252E+4
   1.85399E+5   1.59191E+4
   1.82802E+5   1.96495E+4
   1.80127E+5   2.28269E+4
   1.77151E+5   2.58774E+4
   1.74634E+5   2.90802E+4
   1.72015E+5   3.22117E+4
   1.69471E+5   3.54774E+4
   1.66218E+5   3.81665E+4
   1.63750E+5   4.11702E+4
   1.60916E+5   4.39292E+4
   1.58315E+5   4.66053E+4
   1.55086E+5   4.92347E+4
   1.52340E+5   5.16859E+4
   1.49663E+5   5.36937E+4
   1.46916E+5   5.58377E+4
   1.44182E+5   5.84243E+4
   1.41301E+5   6.04481E+4
   1.38195E+5   6.25840E+4
   1.35781E+5   6.43849E+4
   1.32668E+5   6.63057E+4
   1.29874E+5   6.82895E+4
   1.27316E+5   7.02423E+4
   1.24102E+5   7.18574E+4
   1.21485E+5   7.37353E+4
   1.18584E+5   7.56187E+4
   1.15363E+5   7.73052E+4
   1.12332E+5   7.85804E+4
   1.09489E+5   7.96463E+4
   1.06732E+5   8.09713E+4
   1.04083E+5   8.22696E+4
   1.01097E+5   8.37405E+4
   9.83916E+4   8.47200E+4
   9.54342E+4   8.53243E+4
   9.27110E+4   8.64101E+4
   8.99696E+4   8.73656E+4
   8.68887E+4   8.81063E+4
   8.43825E+4   8.86908E+4
   8.17625E+4   8.95590E+4
   7.89088E+4   9.04506E+4
   7.60808E+4   9.10101E+4
   7.32262E+4   9.14827E+4
   7.04231E+4   9.16316E+4
   6.79005E+4   9.20078E+4
   6.53291E+4   9.25472E+4
   6.25961E+4   9.27729E+4
   6.00039E+4   9.29539E+4
   5.73544E+4   9.29656E+4
   5.49845E+4   9.28828E+4
   5.23423E+4   9.33022E+4
   4.98273E+4   9.30054E+4
   4.71423E+4   9.24363E+4
   4.48687E+4   9.26579E+4
   4.25492E+4   9.24453E+4
   4.02736E+4   9.24109E+4
   3.77938E+4   9.17793E+4
   3.52284E+4   9.17422E+4
   3.31252E+4   9.13296E+4
   3.09555E+4   9.07921E+4
   2.82338E+4   9.04568E+4
   2.63885E+4   8.98702E+4
   2.44332E+4   8.93050E+4
   2.19895E+4   8.90426E+4
   2.00470E+4   8.86215E+4
   1.78867E+4   8.78974E+4
   1.57561E+4   8.71710E+4
   1.40621E+4   8.61623E+4
   1.21833E+4   8.56381E+4
   1.01957E+4   8.50118E+4
   8.28031E+3   8.42778E+4
   6.39951E+3   8.32323E+4
   4.56272E+3   8.25873E+4
   2.85575E+3   8.16213E+4
   1.26297E+3   8.08225E+4
  -3.96058E+2   7.97415E+4
  -1.87394E+3   7.89525E+4
  -3.48864E+3   7.77283E+4
  -5.14491E+3   7.70879E+4
  -6.74871E+3   7.61450E+4
  -8.18227E+3   7.47795E+4
  -9.43224E+3   7.41313E+4
  -1.09889E+4   7.29969E+4
  -1.23207E+4   7.18482E+4
  -1.35231E+4   7.07866E+4
  -1.50086E+4   6.97819E+4
  -1.61178E+4   6.86420E+4
  -1.73408E+4   6.71975E+4
  -1.85051E+4   6.64351E+4
  -1.97722E+4   6.49361E+4
  -2.06577E+4   6.36985E+4
  -2.14279E+4   6.26073E+4
  -2.25046E+4   6.15759E+4
  -2.38373E+4   6.03702E+4
  -2.48148E+4   5.92498E+4
  -2.56284E+4   5.79009E+4
  -2.62503E+4   5.67675E+4
  -2.72673E+4   5.56178E+4
  -2.80122E+4   5.42740E+4
  -2.85561E+4   5.33177E+4
  -2.95095E+4   5.19878E+4
  -3.02721E+4   5.07411E+4
  -3.11114E+4   4.95304E+4
  -3.19323E+4   4.80142E+4
  -3.21850E+4   4.68475E+4
  -3.27540E+4   4.57421E+4
  -3.34851E+4   4.46049E+4
  -3.37391E+4   4.31777E+4
  -3.42024E+4   4.20030E+4
  -3.47604E+4   4.09939E+4
  -3.52004E+4   3.97043E+4
  -3.54840E+4   3.84971E+4
  -3.58454E+4   3.71569E+4
  -3.62050E+4   3.59242E+4
  -3.66395E+4   3.48065E+4
  -3.68388E+4   3.38354E+4
  -3.73835E+4   3.27367E+4
  -3.75019E+4   3.16184E+4
  -3.76576E+4   3.03689E+4
  -3.78314E+4   2.91004E+4
  -3.77749E+4   2.79232E+4
  -3.80640E+4   2.69790E+4
  -3.80697E+4   2.58175E+4
  -3.79972E+4   2.45573E+4
  -3.79656E+4   2.36769E+4
  -3.81853E+4   2.28060E+4
  -3.82342E+4   2.15183E+4
  -3.79373E+4   2.05905E+4
  -3.79195E+4   1.92612E+4
  -3.79057E+4   1.85370E+4
  -3.77995E+4   1.72779E+4
  -3.76441E+4   1.64570E+4
