 
 $NMID
 ID=''
 FMTDAT='(2E13.5)'
 TRAMP=   1.00000E+0
 VOLUME=   1.00000E+0
 $END
  -1.09057E+4   4.00624E+3
  -1.71223E+4   1.53657E+4
   4.58316E+3   2.62275E+4
   1.95709E+4   1.05780E+4
   1.23044E+4  -1.44230E+4
  -2.96627E+3  -2.20095E+4
  -1.62050E+4  -8.54220E+3
  -1.41634E+4   1.19116E+4
   5.44058E+3   1.70675E+4
   1.61879E+4   3.01617E+3
   5.92811E+3  -1.24645E+4
  -5.52993E+3  -1.17764E+4
  -7.95252E+3   5.08334E+2
  -5.07697E+3   7.95078E+3
   2.36914E+3   4.42593E+3
   8.53673E+3  -1.39993E+3
   4.32747E+3  -2.56354E+3
  -3.95912E+3  -2.47516E+3
  -5.30313E+3  -1.10036E+3
  -1.01978E+3   2.80297E+3
   2.46018E+3   3.39784E+3
   2.58624E+3  -1.62192E+3
   5.39251E+2  -2.78604E+3
  -1.83036E+3  -8.71044E+2
  -1.44198E+3  -3.24054E+2
   1.58347E+3   1.08477E+3
   2.04985E+3   2.15783E+3
  -7.57197E+1  -1.75901E+1
  -1.11700E+3  -1.51705E+3
  -4.91148E+2   9.03586E+1
  -2.11714E+2   1.18369E+3
   1.18145E+1   9.82906E+2
  -3.76215E+2   1.36389E+1
  -5.70876E+2  -2.19875E+3
   3.19500E+2  -2.52787E+3
   1.85463E+3   6.07830E+2
   3.47593E+2   2.76998E+3
  -9.69730E+2   8.29732E+2
   3.82658E+2  -1.25535E+3
   4.31080E+2  -2.37481E+2
  -1.47174E+3  -2.36389E+1
  -7.40352E+2  -9.09315E+2
   1.67900E+3  -8.44450E+1
   1.29155E+3   1.02213E+3
  -6.40415E+1   4.27445E+2
  -4.33403E+1   1.55582E+2
  -4.64667E+2   1.29540E+3
  -1.80198E+3   4.31595E+2
  -8.50203E+2  -1.45645E+3
   6.16057E+2  -1.23332E+3
   9.18846E+2  -1.01387E+2
   8.86275E+1  -5.58878E+1
   5.51359E+2   3.45362E+2
   4.02936E+2   6.59151E+2
  -1.71058E+1   7.60064E+2
  -7.14911E+2   2.84652E+2
  -6.72233E+2  -3.06658E+2
   6.43605E+1  -7.60309E+2
   1.12205E+3  -3.36139E+2
   9.54763E+2   2.21921E+2
   2.08087E+2   9.11572E+2
   8.27837E+0   9.33271E+2
  -2.00469E+2   1.52906E+3
  -1.18211E+3   8.34207E+2
  -1.11446E+3  -6.53037E+2
  -3.69393E+2  -1.10693E+3
   4.12662E+2  -1.18385E+3
   1.01000E+3  -3.11857E+2
   1.16922E+3   6.71868E+2
   2.89822E+2   6.90288E+2
   2.76831E+1  -2.82816E+2
   1.99424E+2  -4.74014E+2
   4.37105E+2   6.40124E+2
   3.10332E+2   1.30458E+3
  -2.13788E+2   3.75287E+2
   4.73347E+2  -5.15842E+2
   3.17039E+2   2.26350E+2
   2.44755E+0   5.47709E+2
  -3.67675E+2   3.05118E+2
  -1.04227E+2   6.71293E+1
  -2.82114E+1  -2.01049E+2
   4.00230E+2  -5.03150E+2
   4.93319E+2  -2.03637E+2
  -1.19563E+2  -3.63294E+2
   3.30726E+1  -1.31781E+2
   7.08931E+2  -3.98036E+1
   8.13099E+2   4.22170E+1
   4.36530E+2   3.37007E+2
   8.59161E+1  -6.31636E+1
   5.49424E+1  -1.02896E+2
   4.31110E+2   2.52899E+2
   9.11109E+1   6.79785E+2
  -3.96280E+2   3.99399E+2
  -7.79612E+2  -2.63966E+2
  -2.02858E+2  -1.05799E+3
   2.46984E+2  -6.64803E+2
   4.07646E+2  -1.14565E+2
  -9.15969E+1  -2.60044E+2
   2.33807E+2  -5.75222E+2
   7.53500E+2  -2.83748E+2
   1.15942E+2   4.28729E+2
  -4.87446E+2   5.52174E+2
  -6.90149E+2  -9.56787E+1
  -2.27609E+2  -5.78525E+2
   6.68295E+2  -3.93501E+2
   4.15042E+2   1.08986E+2
  -4.36700E+2   3.92583E+2
  -9.34871E+2  -1.66670E+2
  -6.80787E+2  -9.77769E+2
   7.06545E+2  -8.63504E+2
   7.45728E+2   8.98066E+1
   2.84857E+2   4.28004E+2
  -5.31021E+2   9.14476E+1
  -5.09399E+2   2.82743E+2
  -2.32697E+2   2.58482E+2
  -2.02640E+2   2.93117E+2
  -8.51466E+2   3.02252E+1
  -8.13036E+2  -8.48044E+2
  -2.45287E+1  -7.71621E+2
   5.74217E+2  -2.77955E+2
   4.15822E+2   2.23147E+2
   1.03939E+2   4.23928E+2
   1.64373E+2   4.70442E+2
  -3.04084E+2   2.78526E+2
  -4.30497E+2   1.12509E+2
  -4.74249E+2   4.03764E+1
   3.34079E+1  -1.28913E+2
   4.87185E+1  -9.99424E+1
   2.94042E+2   2.60875E+2
  -2.57168E+0   5.21257E+2
  -4.21343E+2   4.63681E+2
  -5.81520E+2  -1.35091E+2
  -3.02123E+1  -4.82337E+2
  -1.32441E+2   5.80497E+1
   3.11538E+1   5.75110E+1
   1.87311E+1  -1.54589E+2
   3.37286E+2  -3.06882E+2
   3.53361E+2   4.51734E+2
   2.96077E+1   5.96529E+2
  -5.37964E+2   1.74974E+2
  -5.98987E+2  -1.41885E+2
   1.11768E+2  -3.07709E+2
   3.99845E+2   1.97642E+2
   3.33482E+2   4.14161E+2
  -5.02347E+2   6.97014E+2
  -3.72046E+2   2.52064E+2
  -2.11406E+2   2.61199E+2
  -2.87798E+2  -6.28342E+1
  -2.71083E+2  -1.25016E+2
  -1.08710E+2  -1.61639E+2
   2.78675E+1  -1.79048E+2
   3.84044E+2  -3.60095E+2
   4.22340E+2   1.21593E+2
   2.05413E+2   5.95673E+2
  -1.60305E+2   4.47007E+2
   1.21811E+2   6.08562E+1
   8.79597E+0   7.94604E+1
  -2.82669E+2   2.87078E+2
  -2.47638E+2  -2.20679E+2
  -1.52845E+2   6.07129E+1
  -3.16670E+2   1.70556E+2
  -6.73363E+1   2.93006E+2
  -3.77939E+2   1.19630E+1
  -4.06077E+1  -4.27283E+2
   2.33280E+2  -3.58700E+2
   3.62935E+2  -1.53245E+2
   1.75525E+1   2.26867E+1
  -3.01791E+2   3.21594E+2
   1.14896E+1   5.94707E+0
   1.42707E+2  -2.30176E+2
   6.82238E+1   6.12789E+1
   1.52143E+2   2.88520E+2
  -2.75196E+2   4.71516E+1
  -1.97780E+2   6.68018E+1
  -2.61108E+2  -1.05950E+1
   8.81042E+1   1.41321E+2
  -4.47868E+2   3.28890E+2
  -3.72464E+2   2.84922E+1
  -4.84148E+1  -3.70096E+2
   1.95885E+2   4.91464E+1
   1.54898E+2   3.67003E+2
  -1.04182E+2   2.53656E+2
  -3.83485E+2   1.33447E+2
  -1.20784E+2  -1.35902E+2
  -3.12295E+2  -1.96479E+2
  -1.46155E+2  -1.82703E+2
  -1.39902E+2  -2.69997E+2
   2.66535E+2  -2.62399E+2
   3.27325E+2  -7.79658E+1
   4.83584E+2   3.40976E+2
   3.09035E+0   6.16525E+2
  -5.43542E+2   2.02549E+2
  -3.17889E+2  -1.14388E+2
  -1.18399E+2  -2.70774E+2
  -2.25376E+1   2.41457E+1
   3.64162E+1  -5.36487E+1
   1.12076E+2   1.00144E+2
  -5.39735E+1   2.51855E+2
  -1.14059E+2   2.86995E+2
  -1.21093E+2   3.42596E+2
  -2.54877E+2   1.64278E+2
  -1.62040E+2  -8.95786E+1
   2.15273E+2  -2.58468E+2
   1.01755E+2  -3.29235E+1
  -2.96719E+1   6.37575E+1
   5.16922E+1   1.18384E+2
  -2.74722E+2   2.28647E+0
  -6.96731E+1   2.27177E+1
  -2.27354E+1   3.04124E+2
  -2.14312E+2   1.00722E+1
  -1.59380E+2  -3.34228E+2
   2.12973E+2  -1.58352E+2
   4.29301E+2   1.27337E+2
  -1.66392E+1   3.81217E+2
  -5.06861E+2   1.91826E+2
  -2.52506E+2  -1.93383E+2
  -6.99765E+1  -1.73407E+2
  -2.60196E+2  -9.77281E+1
   1.86238E+2  -1.26624E+2
  -1.27059E+2   1.02587E+2
  -1.27425E+1  -1.80960E+1
   1.48427E+2  -1.87374E+2
  -1.33907E+2   1.47270E+2
  -1.26411E+2   3.66854E+2
  -2.42804E+2   1.04055E+2
   7.87153E-1  -1.12469E+2
   1.17438E+2  -2.77042E+1
   2.42284E+2   5.47543E+1
  -3.09320E+2   3.25719E+1
  -1.46980E+2  -9.01970E+1
  -1.07370E+2  -4.08109E+1
  -2.60802E+0  -8.86866E+1
  -1.72989E+2   8.98790E+1
  -1.85102E+2   6.53758E+1
  -7.51623E+1  -3.25897E+2
  -1.47378E+1   1.57750E+2
   1.83133E+2  -6.46177E+1
   6.98621E+1  -1.16116E+2
  -3.62976E+0   3.89805E+1
  -4.48554E+1  -4.86517E+1
   1.92959E+2   4.85822E+1
  -5.48281E+1   2.08266E+2
   6.99435E+1   1.87789E+2
   1.03875E+2  -7.54245E+1
  -4.63377E+1  -6.81623E+1
  -4.56501E+1  -5.28852E+0
   1.31878E+2   7.83742E+1
  -1.30577E+2  -1.96380E+2
   2.84325E+2  -3.45092E+1
   1.91648E+2   2.23708E+0
  -1.65991E+1  -1.65178E+1
  -1.38566E+2   2.11614E+2
  -1.13338E+2   1.33682E+1
  -3.01973E+2  -4.02932E+2
   2.98321E+2  -4.44882E+2
   2.54949E+2  -8.05079E+1
   1.77323E+2  -5.71660E+1
   1.25590E+2  -6.97203E+0
   1.19744E+2   5.08628E+1
  -1.73227E+2   2.75710E+2
  -1.61383E+2   2.52284E+1
  -3.93992E+2  -1.59470E+2
   1.19248E+2  -3.24669E+2
   3.80233E+2  -3.10858E+2
   3.58830E+2  -4.20278E+1
   1.25238E+2   1.60095E+2
  -1.67279E+2   8.58316E+1
  -1.98910E+2   4.53158E+1
   1.26436E+2  -9.74201E+1
   7.21886E+1  -3.83304E+1
   1.54010E+2  -3.07083E+2
  -9.08926E+1  -2.10027E+2
   1.01274E+2   3.40237E+1
  -2.04512E+1  -7.36279E+1
  -1.24224E+2   7.80196E+1
   1.06526E+2   2.51791E+2
  -1.01774E+2   8.94818E+1
  -1.31887E+2  -3.31868E+2
   1.02048E+1   6.23903E+1
   9.89086E+1  -8.35463E+1
  -1.23009E+2   5.26292E+1
   1.07160E+2  -8.11052E+1
   3.65935E+2  -6.72925E+1
   8.21903E+1   1.11130E+2
  -3.67090E+2  -5.19862E+1
  -1.30296E+2  -2.83705E+2
  -1.01839E+2  -8.49297E+1
   7.41470E+1  -1.57216E+2
  -6.35720E+1  -1.24197E+1
   1.03852E+2   2.88660E+2
  -2.61833E+2  -1.55687E+2
   6.10300E+1  -6.43563E+1
  -2.92638E+2  -1.41345E+2
   1.80503E+1  -1.01851E+2
   5.26119E+1  -2.19018E+2
   3.00744E+1  -1.06240E+2
   1.32441E+2  -2.50411E+1
   1.70265E+2  -8.57679E+1
  -8.84045E+0   3.55005E+2
   8.79605E+0  -2.97678E+1
   2.88299E+2  -2.92367E+2
   1.54163E+2  -1.42399E+2
  -8.25371E+1   6.66996E+1
  -2.13339E+2  -1.99377E+1
  -2.18796E+2  -1.28984E+2
   1.51952E+2  -1.41861E+2
   1.91667E+2  -1.95486E+2
  -9.92242E+0   8.42964E+1
   1.70432E+2  -1.45888E+2
   5.69760E+1  -1.01116E+2
   3.09942E+1  -7.88773E+1
  -1.63075E+2  -5.65252E+1
  -1.01510E+1   7.41411E+1
   3.81329E+1  -1.32214E+2
   9.02042E+0  -1.81053E+2
   2.63891E+2  -2.01292E+2
  -1.10149E+2   4.11621E+1
   5.94685E+1   7.28808E+1
  -1.47491E+2  -1.62205E+1
   2.14712E+1  -1.37855E+2
  -7.98037E+1  -1.71426E+2
  -2.13705E+0  -1.74438E+2
   4.55243E+1  -8.23320E+1
   1.70047E+1  -3.60313E+1
   5.28806E+1  -1.50014E+2
   1.21143E+2   4.48834E+1
   1.91376E+1   2.50796E+2
  -4.08619E+1   1.05084E+2
  -9.41735E+1  -1.39796E+2
  -2.06976E+2  -8.06857E+1
  -1.13927E+2  -8.92477E+1
   3.53656E+1   1.24202E+1
   7.68467E+1   1.25502E+2
   1.82065E+2  -2.36555E+2
   2.07284E+1   2.27653E+2
  -3.91899E+1   7.86072E+1
   1.00113E+2   1.33146E+2
  -4.33092E+1  -2.55261E+2
  -9.69921E+1  -2.54256E+2
   6.49680E+1  -1.00490E+2
  -2.63231E+2  -1.15518E+2
   2.64460E+1   9.97835E+1
   1.03015E+1  -7.39765E+1
   1.70655E+2  -4.21196E+1
   9.65295E+1  -1.21671E+2
   7.70632E+0  -1.86531E+1
  -2.61506E+1  -1.73128E+2
   1.03820E+2   5.83089E+1
   3.33371E+2  -1.59661E+2
  -1.06428E+1  -2.31210E+1
  -9.37516E+1   5.75126E+1
  -6.28006E+1  -2.31522E+2
   9.91286E+0  -1.88345E+1
   1.21990E+2   1.02069E+2
  -1.37711E+2  -9.59608E+1
  -4.14510E+0  -1.33468E+2
  -1.13034E+2  -2.11647E+2
   2.23125E+2  -1.46412E+2
   1.00630E+2   1.32793E+2
  -1.01778E+2   3.14148E+2
  -2.84220E+2  -4.30482E+1
  -1.88539E+2  -2.00755E+2
   1.20675E+1  -6.45854E+1
   4.15960E+2   1.29030E+2
   1.11899E+1   2.66903E+1
   1.56511E+1  -8.12295E+1
   1.24888E+2  -1.19515E+2
