 
 $NMID
 ID=''
 FMTDAT='(2E13.5)'
 TRAMP=   1.00000E+0
 VOLUME=   1.00000E+0
 $END
  -3.36971E+5   2.93869E+5
  -1.14316E+6   4.73707E+5
  -1.03093E+6   6.34292E+5
  -9.52632E+5   5.51849E+5
  -1.00916E+6   5.57027E+5
  -9.63266E+5   6.39316E+5
  -9.01773E+5   6.32281E+5
  -9.19422E+5   6.30910E+5
  -8.96064E+5   6.65877E+5
  -8.60435E+5   6.61921E+5
  -8.56636E+5   6.62165E+5
  -8.34339E+5   6.77485E+5
  -8.10796E+5   6.74673E+5
  -8.04883E+5   6.78690E+5
  -7.82106E+5   6.85943E+5
  -7.59755E+5   6.82329E+5
  -7.50786E+5   6.88575E+5
  -7.30915E+5   6.96056E+5
  -7.11595E+5   6.95813E+5
  -6.95228E+5   7.05948E+5
  -6.73126E+5   7.11000E+5
  -6.56023E+5   7.10008E+5
  -6.43413E+5   7.15261E+5
  -6.25281E+5   7.16357E+5
  -6.11635E+5   7.11681E+5
  -5.96487E+5   7.16953E+5
  -5.82932E+5   7.16575E+5
  -5.74012E+5   7.09856E+5
  -5.62074E+5   7.07835E+5
  -5.46077E+5   7.08141E+5
  -5.37530E+5   7.05905E+5
  -5.25264E+5   7.06416E+5
  -5.10860E+5   7.04434E+5
  -4.98888E+5   7.04038E+5
  -4.85120E+5   7.05659E+5
  -4.70071E+5   7.06136E+5
  -4.60762E+5   7.07564E+5
  -4.49645E+5   7.08140E+5
  -4.36410E+5   7.04259E+5
  -4.27660E+5   7.02747E+5
  -4.19117E+5   7.01744E+5
  -4.08605E+5   6.97730E+5
  -4.00186E+5   6.94893E+5
  -3.92434E+5   6.94166E+5
  -3.84674E+5   6.90233E+5
  -3.79058E+5   6.87483E+5
  -3.72232E+5   6.85685E+5
  -3.64998E+5   6.81269E+5
  -3.57391E+5   6.77102E+5
  -3.49526E+5   6.76110E+5
  -3.41507E+5   6.74044E+5
  -3.35385E+5   6.71757E+5
  -3.28072E+5   6.69899E+5
  -3.20915E+5   6.67769E+5
  -3.15283E+5   6.64035E+5
  -3.09873E+5   6.61604E+5
  -3.03923E+5   6.57746E+5
  -2.98315E+5   6.53420E+5
  -2.92188E+5   6.50307E+5
  -2.86749E+5   6.47821E+5
  -2.82365E+5   6.44608E+5
  -2.77706E+5   6.41113E+5
  -2.72376E+5   6.38015E+5
  -2.67972E+5   6.34101E+5
  -2.62158E+5   6.29654E+5
  -2.56423E+5   6.24989E+5
  -2.50377E+5   6.21398E+5
  -2.45397E+5   6.17736E+5
  -2.40607E+5   6.14713E+5
  -2.36671E+5   6.10710E+5
  -2.32353E+5   6.05645E+5
  -2.27412E+5   6.01148E+5
  -2.22409E+5   5.96867E+5
  -2.18654E+5   5.92818E+5
  -2.14616E+5   5.87511E+5
  -2.09463E+5   5.81988E+5
  -2.05169E+5   5.77450E+5
  -2.00845E+5   5.72782E+5
  -1.96526E+5   5.67254E+5
  -1.91936E+5   5.61362E+5
  -1.87589E+5   5.55474E+5
  -1.83242E+5   5.49758E+5
  -1.79183E+5   5.43998E+5
  -1.75916E+5   5.37943E+5
  -1.72501E+5   5.30841E+5
  -1.68522E+5   5.24450E+5
  -1.64966E+5   5.18456E+5
  -1.61767E+5   5.11806E+5
  -1.58467E+5   5.04589E+5
  -1.54216E+5   4.97787E+5
  -1.50358E+5   4.91099E+5
  -1.47239E+5   4.84323E+5
  -1.43940E+5   4.77420E+5
  -1.40086E+5   4.69752E+5
  -1.36020E+5   4.61783E+5
  -1.32194E+5   4.54931E+5
  -1.28987E+5   4.47773E+5
  -1.25633E+5   4.40119E+5
  -1.22913E+5   4.32657E+5
  -1.19946E+5   4.24995E+5
  -1.17401E+5   4.17314E+5
  -1.15593E+5   4.09860E+5
  -1.13301E+5   4.01479E+5
  -1.11020E+5   3.92932E+5
  -1.08317E+5   3.85385E+5
  -1.06033E+5   3.78165E+5
  -1.04578E+5   3.70614E+5
  -1.03606E+5   3.61999E+5
  -1.01884E+5   3.53521E+5
  -9.92143E+4   3.46108E+5
  -9.77782E+4   3.38968E+5
  -9.72463E+4   3.31249E+5
  -9.63690E+4   3.23128E+5
  -9.56580E+4   3.15292E+5
  -9.51140E+4   3.07279E+5
  -9.50884E+4   2.99997E+5
  -9.48401E+4   2.91947E+5
  -9.43808E+4   2.83859E+5
  -9.35335E+4   2.76131E+5
  -9.30592E+4   2.69437E+5
  -9.27495E+4   2.62410E+5
  -9.30755E+4   2.55435E+5
  -9.32836E+4   2.48245E+5
  -9.36254E+4   2.41034E+5
  -9.41374E+4   2.33767E+5
  -9.42274E+4   2.26892E+5
  -9.40688E+4   2.19998E+5
  -9.49476E+4   2.13063E+5
  -9.52896E+4   2.06828E+5
  -9.62561E+4   2.00360E+5
  -9.73853E+4   1.93527E+5
  -9.86025E+4   1.86965E+5
  -9.87866E+4   1.80396E+5
  -9.94146E+4   1.74625E+5
  -1.00788E+5   1.68551E+5
  -1.01651E+5   1.62307E+5
  -1.01871E+5   1.56228E+5
  -1.02573E+5   1.50842E+5
  -1.03470E+5   1.45483E+5
  -1.04529E+5   1.39304E+5
  -1.05101E+5   1.33519E+5
  -1.05154E+5   1.28666E+5
  -1.05542E+5   1.23261E+5
  -1.06062E+5   1.18417E+5
  -1.07153E+5   1.13297E+5
  -1.07855E+5   1.08130E+5
  -1.07919E+5   1.03242E+5
  -1.08150E+5   9.83953E+4
  -1.08377E+5   9.35230E+4
  -1.08639E+5   8.89980E+4
  -1.08905E+5   8.42603E+4
  -1.08743E+5   8.01457E+4
  -1.08758E+5   7.60894E+4
  -1.09237E+5   7.21806E+4
  -1.09273E+5   6.77584E+4
  -1.08854E+5   6.37164E+4
  -1.08886E+5   6.00934E+4
  -1.08912E+5   5.62734E+4
  -1.08874E+5   5.21653E+4
  -1.08454E+5   4.90559E+4
  -1.08416E+5   4.53175E+4
  -1.08275E+5   4.18507E+4
  -1.07852E+5   3.80372E+4
  -1.07399E+5   3.49106E+4
  -1.07041E+5   3.14567E+4
  -1.06541E+5   2.86501E+4
  -1.06400E+5   2.55869E+4
  -1.05973E+5   2.25673E+4
  -1.05831E+5   1.94052E+4
  -1.05222E+5   1.64655E+4
  -1.05052E+5   1.38622E+4
  -1.04560E+5   1.11780E+4
  -1.03943E+5   8.20975E+3
  -1.03513E+5   5.25309E+3
  -1.02926E+5   2.81095E+3
  -1.02528E+5   3.64305E+2
  -1.02295E+5  -2.43871E+3
  -1.01477E+5  -5.21540E+3
  -1.00688E+5  -7.81588E+3
  -1.00238E+5  -1.02667E+4
  -9.96365E+4  -1.26577E+4
  -9.90565E+4  -1.50738E+4
  -9.82984E+4  -1.76948E+4
  -9.78714E+4  -2.00770E+4
  -9.70958E+4  -2.21463E+4
  -9.66574E+4  -2.43483E+4
  -9.60117E+4  -2.66406E+4
  -9.53510E+4  -2.86682E+4
  -9.47470E+4  -3.07646E+4
  -9.43789E+4  -3.27824E+4
  -9.37091E+4  -3.52229E+4
  -9.30239E+4  -3.71496E+4
  -9.23092E+4  -3.93803E+4
  -9.13588E+4  -4.12793E+4
  -9.04821E+4  -4.31521E+4
  -8.98811E+4  -4.51990E+4
  -8.96460E+4  -4.71892E+4
  -8.82302E+4  -4.88976E+4
  -8.78124E+4  -5.06247E+4
  -8.67871E+4  -5.27335E+4
  -8.57182E+4  -5.45333E+4
  -8.49541E+4  -5.62825E+4
  -8.39897E+4  -5.75453E+4
  -8.34256E+4  -5.92335E+4
  -8.24592E+4  -6.05892E+4
  -8.14366E+4  -6.23857E+4
  -8.05274E+4  -6.35879E+4
  -7.94560E+4  -6.52803E+4
  -7.86234E+4  -6.65359E+4
  -7.76977E+4  -6.82040E+4
  -7.67786E+4  -6.91178E+4
  -7.56473E+4  -7.04017E+4
  -7.46385E+4  -7.14640E+4
  -7.36084E+4  -7.25772E+4
  -7.26976E+4  -7.37702E+4
  -7.15081E+4  -7.49485E+4
  -7.00581E+4  -7.55851E+4
  -6.91359E+4  -7.63108E+4
  -6.81545E+4  -7.71205E+4
  -6.71156E+4  -7.78555E+4
  -6.60815E+4  -7.86671E+4
  -6.49677E+4  -7.92242E+4
  -6.37916E+4  -8.00071E+4
  -6.22426E+4  -8.01818E+4
  -6.12524E+4  -8.10237E+4
  -5.98777E+4  -8.16965E+4
  -5.87168E+4  -8.18932E+4
  -5.78058E+4  -8.25782E+4
  -5.64859E+4  -8.29583E+4
  -5.55428E+4  -8.35870E+4
  -5.41221E+4  -8.37703E+4
  -5.28691E+4  -8.38872E+4
  -5.17347E+4  -8.38850E+4
  -5.05020E+4  -8.42709E+4
  -4.92467E+4  -8.45663E+4
  -4.81781E+4  -8.45210E+4
  -4.69431E+4  -8.44073E+4
  -4.55566E+4  -8.47085E+4
  -4.44681E+4  -8.47562E+4
  -4.35637E+4  -8.48937E+4
  -4.25658E+4  -8.49171E+4
  -4.12196E+4  -8.48401E+4
  -4.01344E+4  -8.47680E+4
  -3.88102E+4  -8.50389E+4
  -3.77406E+4  -8.47260E+4
  -3.65193E+4  -8.43679E+4
  -3.52420E+4  -8.43203E+4
  -3.41633E+4  -8.40218E+4
  -3.28962E+4  -8.36793E+4
  -3.14119E+4  -8.36106E+4
  -3.08300E+4  -8.35972E+4
  -2.96034E+4  -8.32255E+4
  -2.81157E+4  -8.30957E+4
  -2.69228E+4  -8.27368E+4
  -2.60245E+4  -8.25437E+4
  -2.47891E+4  -8.20888E+4
  -2.36800E+4  -8.19305E+4
  -2.28240E+4  -8.19333E+4
  -2.12949E+4  -8.12098E+4
  -2.02246E+4  -8.11874E+4
  -1.90308E+4  -8.08579E+4
  -1.79058E+4  -8.04322E+4
  -1.68181E+4  -7.99129E+4
  -1.58344E+4  -7.93611E+4
  -1.47921E+4  -7.90770E+4
  -1.35055E+4  -7.88090E+4
  -1.24165E+4  -7.81703E+4
  -1.12000E+4  -7.77910E+4
  -1.04821E+4  -7.71730E+4
  -9.50696E+3  -7.67472E+4
  -8.59893E+3  -7.64221E+4
  -7.40215E+3  -7.55633E+4
  -6.37067E+3  -7.49649E+4
  -5.46077E+3  -7.45234E+4
  -4.40084E+3  -7.39737E+4
  -3.35790E+3  -7.35712E+4
  -2.34323E+3  -7.28396E+4
  -1.56870E+3  -7.20563E+4
  -3.11589E+2  -7.14404E+4
   3.58475E+2  -7.09060E+4
   1.21941E+3  -7.03341E+4
   2.31367E+3  -6.95107E+4
   3.24665E+3  -6.89465E+4
   4.11407E+3  -6.82782E+4
   4.97989E+3  -6.76568E+4
   5.65186E+3  -6.66667E+4
   6.27626E+3  -6.60143E+4
   6.98081E+3  -6.54201E+4
   7.76759E+3  -6.46315E+4
   8.58509E+3  -6.41207E+4
   9.50615E+3  -6.31947E+4
   9.91845E+3  -6.24279E+4
   1.06932E+4  -6.14527E+4
   1.14720E+4  -6.11146E+4
   1.21552E+4  -6.01964E+4
   1.28925E+4  -5.95545E+4
   1.34075E+4  -5.85657E+4
   1.40729E+4  -5.79628E+4
   1.45826E+4  -5.69425E+4
   1.54339E+4  -5.61752E+4
   1.59319E+4  -5.54102E+4
   1.65381E+4  -5.48942E+4
   1.70194E+4  -5.38384E+4
   1.76439E+4  -5.29655E+4
   1.83443E+4  -5.22685E+4
   1.90559E+4  -5.13099E+4
   1.94480E+4  -5.07084E+4
   1.98051E+4  -4.99286E+4
   2.03013E+4  -4.90423E+4
   2.06552E+4  -4.82619E+4
   2.13548E+4  -4.76669E+4
   2.16494E+4  -4.67346E+4
   2.22421E+4  -4.59204E+4
   2.27274E+4  -4.50262E+4
   2.31584E+4  -4.39781E+4
   2.34410E+4  -4.33355E+4
   2.39079E+4  -4.23150E+4
   2.42871E+4  -4.16909E+4
   2.45645E+4  -4.08960E+4
   2.49792E+4  -4.03872E+4
   2.52985E+4  -3.93942E+4
   2.55319E+4  -3.87022E+4
   2.62163E+4  -3.76321E+4
   2.61927E+4  -3.68716E+4
   2.65589E+4  -3.63984E+4
   2.68231E+4  -3.53719E+4
   2.71864E+4  -3.47492E+4
   2.76718E+4  -3.40324E+4
   2.78515E+4  -3.27689E+4
   2.79603E+4  -3.21011E+4
   2.80592E+4  -3.12233E+4
   2.82592E+4  -3.08235E+4
   2.85263E+4  -2.98081E+4
   2.86378E+4  -2.89913E+4
   2.89853E+4  -2.84589E+4
   2.93044E+4  -2.75105E+4
   2.95658E+4  -2.68549E+4
   2.97575E+4  -2.59599E+4
   2.97442E+4  -2.52507E+4
   2.97571E+4  -2.43237E+4
   2.99640E+4  -2.37454E+4
   3.02597E+4  -2.29216E+4
   3.01915E+4  -2.22956E+4
   3.01686E+4  -2.13239E+4
   3.04300E+4  -2.06577E+4
   3.06691E+4  -1.99273E+4
   3.05322E+4  -1.92202E+4
   3.08213E+4  -1.86352E+4
   3.05234E+4  -1.76991E+4
   3.06627E+4  -1.71663E+4
   3.06967E+4  -1.65208E+4
   3.05874E+4  -1.54502E+4
   3.04993E+4  -1.46925E+4
   3.08000E+4  -1.41622E+4
   3.06508E+4  -1.32803E+4
   3.04828E+4  -1.27801E+4
   3.04678E+4  -1.19720E+4
   3.03437E+4  -1.14646E+4
   3.05512E+4  -1.07906E+4
   3.06291E+4  -1.01956E+4
   3.03784E+4  -9.11667E+3
   3.03554E+4  -8.75329E+3
   3.00052E+4  -8.28623E+3
   2.99557E+4  -7.72930E+3
   2.98615E+4  -7.17836E+3
   2.99050E+4  -6.39031E+3
   2.97673E+4  -5.56711E+3
