 
 $NMID
 ID=''
 FMTDAT='(2E13.5)'
 TRAMP=   1.00000E+0
 VOLUME=   1.00000E+0
 $END
   6.98020E+5  -1.01981E+5
   1.79095E+6   4.59417E+5
   1.76367E+6   3.17716E+5
   1.64429E+6   4.16526E+5
   1.70273E+6   4.53596E+5
   1.66680E+6   3.81707E+5
   1.60504E+6   4.09160E+5
   1.62436E+6   4.38214E+5
   1.58258E+6   4.23200E+5
   1.53015E+6   4.67504E+5
   1.53083E+6   4.89000E+5
   1.49140E+6   4.82526E+5
   1.45432E+6   5.18121E+5
   1.44835E+6   5.41904E+5
   1.40693E+6   5.54277E+5
   1.37156E+6   5.90653E+5
   1.36576E+6   6.08715E+5
   1.33477E+6   6.15324E+5
   1.30549E+6   6.39238E+5
   1.29319E+6   6.43096E+5
   1.25731E+6   6.48925E+5
   1.22543E+6   6.71887E+5
   1.20291E+6   6.81079E+5
   1.16441E+6   6.86836E+5
   1.12813E+6   7.03859E+5
   1.10021E+6   7.06014E+5
   1.06080E+6   7.14604E+5
   1.02458E+6   7.32820E+5
   9.91148E+5   7.37979E+5
   9.56983E+5   7.38022E+5
   9.30738E+5   7.45539E+5
   9.06116E+5   7.44587E+5
   8.75499E+5   7.44565E+5
   8.51970E+5   7.47493E+5
   8.29782E+5   7.43340E+5
   8.06516E+5   7.39752E+5
   7.86682E+5   7.41484E+5
   7.62049E+5   7.41250E+5
   7.30962E+5   7.41099E+5
   7.04379E+5   7.42406E+5
   6.75890E+5   7.41637E+5
   6.43912E+5   7.40062E+5
   6.15607E+5   7.37026E+5
   5.88777E+5   7.33429E+5
   5.58553E+5   7.30207E+5
   5.31803E+5   7.26920E+5
   5.07025E+5   7.20920E+5
   4.82198E+5   7.15582E+5
   4.58654E+5   7.08080E+5
   4.37238E+5   7.00316E+5
   4.16888E+5   6.94339E+5
   3.97334E+5   6.88841E+5
   3.76579E+5   6.82247E+5
   3.56168E+5   6.76720E+5
   3.35308E+5   6.70874E+5
   3.13454E+5   6.64272E+5
   2.90959E+5   6.57795E+5
   2.68860E+5   6.49898E+5
   2.48460E+5   6.41440E+5
   2.28759E+5   6.33554E+5
   2.08761E+5   6.25024E+5
   1.89106E+5   6.16009E+5
   1.71332E+5   6.06759E+5
   1.53881E+5   5.97629E+5
   1.36655E+5   5.87619E+5
   1.20730E+5   5.76475E+5
   1.06203E+5   5.66194E+5
   9.14669E+4   5.57010E+5
   7.66894E+4   5.47718E+5
   6.18075E+4   5.38796E+5
   4.74408E+4   5.28931E+5
   3.31638E+4   5.18987E+5
   1.99979E+4   5.08977E+5
   6.57267E+3   4.99317E+5
  -6.65340E+3   4.89198E+5
  -1.95422E+4   4.78753E+5
  -3.11263E+4   4.68200E+5
  -4.27938E+4   4.58203E+5
  -5.39290E+4   4.47351E+5
  -6.46298E+4   4.36838E+5
  -7.49471E+4   4.26295E+5
  -8.44293E+4   4.15537E+5
  -9.35632E+4   4.05308E+5
  -1.02942E+5   3.95092E+5
  -1.12167E+5   3.84717E+5
  -1.20847E+5   3.73900E+5
  -1.28643E+5   3.64083E+5
  -1.37102E+5   3.53955E+5
  -1.44941E+5   3.43321E+5
  -1.51374E+5   3.33367E+5
  -1.57590E+5   3.23435E+5
  -1.63872E+5   3.13601E+5
  -1.69971E+5   3.03989E+5
  -1.75011E+5   2.94102E+5
  -1.79458E+5   2.84897E+5
  -1.83430E+5   2.75435E+5
  -1.87488E+5   2.66626E+5
  -1.91444E+5   2.57869E+5
  -1.95140E+5   2.48967E+5
  -1.97830E+5   2.40424E+5
  -2.01162E+5   2.32113E+5
  -2.04159E+5   2.23706E+5
  -2.07077E+5   2.14735E+5
  -2.08925E+5   2.06134E+5
  -2.10770E+5   1.98151E+5
  -2.12512E+5   1.90456E+5
  -2.14409E+5   1.82542E+5
  -2.15774E+5   1.74465E+5
  -2.16677E+5   1.66547E+5
  -2.16897E+5   1.59220E+5
  -2.17540E+5   1.52279E+5
  -2.18346E+5   1.45146E+5
  -2.18887E+5   1.38037E+5
  -2.18650E+5   1.30761E+5
  -2.18302E+5   1.24097E+5
  -2.18227E+5   1.17509E+5
  -2.17894E+5   1.11188E+5
  -2.16778E+5   1.04519E+5
  -2.15778E+5   9.83767E+4
  -2.14990E+5   9.27257E+4
  -2.14094E+5   8.70921E+4
  -2.13220E+5   8.15360E+4
  -2.11824E+5   7.59021E+4
  -2.10647E+5   7.02548E+4
  -2.09204E+5   6.48194E+4
  -2.07675E+5   5.90152E+4
  -2.05584E+5   5.35243E+4
  -2.03660E+5   4.82515E+4
  -2.02125E+5   4.33179E+4
  -1.99849E+5   3.79827E+4
  -1.97913E+5   3.26364E+4
  -1.95276E+5   2.70473E+4
  -1.93196E+5   2.25032E+4
  -1.91050E+5   1.77810E+4
  -1.88447E+5   1.31725E+4
  -1.86081E+5   8.83020E+3
  -1.84015E+5   4.64408E+3
  -1.81718E+5   4.57138E+2
  -1.79751E+5  -3.33552E+3
  -1.77520E+5  -7.26862E+3
  -1.75109E+5  -1.09718E+4
  -1.72490E+5  -1.51395E+4
  -1.70037E+5  -1.85156E+4
  -1.67501E+5  -2.21159E+4
  -1.65421E+5  -2.56644E+4
  -1.62429E+5  -2.89080E+4
  -1.59860E+5  -3.21583E+4
  -1.57307E+5  -3.51427E+4
  -1.54706E+5  -3.84434E+4
  -1.52157E+5  -4.08718E+4
  -1.49436E+5  -4.36114E+4
  -1.47017E+5  -4.60885E+4
  -1.44518E+5  -4.84013E+4
  -1.42242E+5  -5.10367E+4
  -1.40111E+5  -5.29072E+4
  -1.37707E+5  -5.51087E+4
  -1.35479E+5  -5.70732E+4
  -1.33285E+5  -5.91388E+4
  -1.30957E+5  -6.08721E+4
  -1.28805E+5  -6.26373E+4
  -1.26822E+5  -6.45495E+4
  -1.24462E+5  -6.63707E+4
  -1.22279E+5  -6.77930E+4
  -1.19898E+5  -6.92913E+4
  -1.17761E+5  -7.03895E+4
  -1.15776E+5  -7.17798E+4
  -1.13568E+5  -7.27545E+4
  -1.11762E+5  -7.39626E+4
  -1.09699E+5  -7.48518E+4
  -1.07341E+5  -7.58237E+4
  -1.05570E+5  -7.66523E+4
  -1.03653E+5  -7.75007E+4
  -1.01809E+5  -7.82406E+4
  -9.97116E+4  -7.90072E+4
  -9.76949E+4  -7.94608E+4
  -9.61239E+4  -8.03454E+4
  -9.39427E+4  -8.13256E+4
  -9.18677E+4  -8.15391E+4
  -8.96972E+4  -8.19333E+4
  -8.79074E+4  -8.24340E+4
  -8.60998E+4  -8.30546E+4
  -8.38784E+4  -8.34675E+4
  -8.20568E+4  -8.35640E+4
  -8.01063E+4  -8.41913E+4
  -7.79049E+4  -8.44274E+4
  -7.61175E+4  -8.43968E+4
  -7.41100E+4  -8.46430E+4
  -7.23304E+4  -8.48113E+4
  -7.08007E+4  -8.48783E+4
  -6.91495E+4  -8.51931E+4
  -6.69906E+4  -8.53351E+4
  -6.51542E+4  -8.55892E+4
  -6.29540E+4  -8.57664E+4
  -6.11992E+4  -8.57833E+4
  -5.92198E+4  -8.58153E+4
  -5.74346E+4  -8.59562E+4
  -5.52042E+4  -8.60930E+4
  -5.33798E+4  -8.61363E+4
  -5.13137E+4  -8.60358E+4
  -4.98982E+4  -8.63904E+4
  -4.76482E+4  -8.62117E+4
  -4.57433E+4  -8.59751E+4
  -4.38254E+4  -8.57518E+4
  -4.20393E+4  -8.59008E+4
  -4.02476E+4  -8.57096E+4
  -3.83289E+4  -8.55565E+4
  -3.65637E+4  -8.52794E+4
  -3.47902E+4  -8.54547E+4
  -3.31200E+4  -8.49773E+4
  -3.15272E+4  -8.48663E+4
  -2.93738E+4  -8.49137E+4
  -2.78099E+4  -8.43040E+4
  -2.60024E+4  -8.40945E+4
  -2.42877E+4  -8.39753E+4
  -2.27091E+4  -8.36446E+4
  -2.11551E+4  -8.30354E+4
  -1.93644E+4  -8.26714E+4
  -1.80248E+4  -8.23280E+4
  -1.63579E+4  -8.17478E+4
  -1.48756E+4  -8.12529E+4
  -1.33269E+4  -8.08598E+4
  -1.19771E+4  -8.04266E+4
  -1.06289E+4  -7.97631E+4
  -9.33333E+3  -7.95403E+4
  -7.95255E+3  -7.89277E+4
  -6.31763E+3  -7.82869E+4
  -5.14684E+3  -7.77063E+4
  -3.97233E+3  -7.72534E+4
  -2.89065E+3  -7.66117E+4
  -1.36073E+3  -7.57092E+4
  -2.56722E+2  -7.50233E+4
   8.68979E+2  -7.44174E+4
   1.97233E+3  -7.37048E+4
   3.14165E+3  -7.31480E+4
   3.93568E+3  -7.24034E+4
   5.31161E+3  -7.16622E+4
   6.14299E+3  -7.08849E+4
   7.16294E+3  -7.02250E+4
   8.06438E+3  -6.91872E+4
   8.94533E+3  -6.85556E+4
   9.55060E+3  -6.77821E+4
   1.03819E+4  -6.67844E+4
   1.11732E+4  -6.62161E+4
   1.21439E+4  -6.56037E+4
   1.29769E+4  -6.44576E+4
   1.36297E+4  -6.35660E+4
   1.44243E+4  -6.29453E+4
   1.49953E+4  -6.18248E+4
   1.56222E+4  -6.12077E+4
   1.61503E+4  -6.01649E+4
   1.68304E+4  -5.92518E+4
   1.75953E+4  -5.83932E+4
   1.81677E+4  -5.74037E+4
   1.84254E+4  -5.64303E+4
   1.95352E+4  -5.59406E+4
   1.99601E+4  -5.44391E+4
   2.06686E+4  -5.37793E+4
   2.13140E+4  -5.27511E+4
   2.16958E+4  -5.16020E+4
   2.22468E+4  -5.08126E+4
   2.29057E+4  -4.96681E+4
   2.32740E+4  -4.86831E+4
   2.38173E+4  -4.77123E+4
   2.42841E+4  -4.65080E+4
   2.49830E+4  -4.56948E+4
   2.55036E+4  -4.46837E+4
   2.57456E+4  -4.39432E+4
   2.61694E+4  -4.27011E+4
   2.67451E+4  -4.16128E+4
   2.73278E+4  -4.07262E+4
   2.75519E+4  -3.99022E+4
   2.79926E+4  -3.88847E+4
   2.82447E+4  -3.81639E+4
   2.86986E+4  -3.69839E+4
   2.91822E+4  -3.60495E+4
   2.92436E+4  -3.49622E+4
   2.97147E+4  -3.39104E+4
   3.01061E+4  -3.30820E+4
   3.04795E+4  -3.19749E+4
   3.08125E+4  -3.08036E+4
   3.10597E+4  -3.00238E+4
   3.15433E+4  -2.91031E+4
   3.16465E+4  -2.79536E+4
   3.19587E+4  -2.74625E+4
   3.20802E+4  -2.62777E+4
   3.22363E+4  -2.54948E+4
   3.21913E+4  -2.45858E+4
   3.26171E+4  -2.38346E+4
   3.29190E+4  -2.29000E+4
   3.30408E+4  -2.22016E+4
   3.31424E+4  -2.09633E+4
   3.32379E+4  -2.05564E+4
   3.33481E+4  -1.95604E+4
   3.32959E+4  -1.87887E+4
   3.35055E+4  -1.80906E+4
   3.36369E+4  -1.70334E+4
   3.35726E+4  -1.67182E+4
   3.36507E+4  -1.57699E+4
   3.34680E+4  -1.48322E+4
   3.35657E+4  -1.42161E+4
   3.36536E+4  -1.37096E+4
   3.35474E+4  -1.30491E+4
   3.35396E+4  -1.22800E+4
   3.33247E+4  -1.15506E+4
   3.33001E+4  -1.07932E+4
   3.30765E+4  -1.03734E+4
   3.30866E+4  -9.56394E+3
   3.28481E+4  -8.85618E+3
   3.27455E+4  -8.16560E+3
   3.27192E+4  -7.50404E+3
   3.25687E+4  -6.94065E+3
   3.23358E+4  -6.57154E+3
   3.19038E+4  -5.75710E+3
   3.18250E+4  -5.32112E+3
   3.15631E+4  -4.37803E+3
   3.13518E+4  -4.14296E+3
   3.09619E+4  -3.43940E+3
   3.11217E+4  -2.75807E+3
   3.08237E+4  -2.17357E+3
   3.03867E+4  -1.88000E+3
   3.01912E+4  -1.07676E+3
   2.98919E+4  -7.41759E+2
   2.95412E+4  -9.73013E+1
   2.94645E+4   2.66762E+2
   2.90249E+4   8.34524E+2
   2.89323E+4   1.40686E+3
   2.83287E+4   1.92525E+3
   2.81877E+4   2.53612E+3
   2.81463E+4   2.93881E+3
   2.75700E+4   3.16445E+3
   2.71651E+4   3.82392E+3
   2.68824E+4   4.27660E+3
   2.65338E+4   4.70406E+3
   2.62934E+4   5.12882E+3
   2.63795E+4   5.46472E+3
   2.56357E+4   6.23672E+3
   2.56610E+4   6.32172E+3
   2.49377E+4   6.90734E+3
   2.48048E+4   7.16121E+3
   2.46376E+4   7.51201E+3
   2.39952E+4   7.92347E+3
   2.37328E+4   8.42787E+3
   2.34724E+4   8.71931E+3
   2.32333E+4   8.96371E+3
   2.24621E+4   9.43191E+3
   2.23750E+4   9.50492E+3
   2.21892E+4   1.00459E+4
   2.17245E+4   1.03654E+4
   2.14302E+4   1.05107E+4
   2.12357E+4   1.08046E+4
   2.08250E+4   1.12582E+4
   2.02502E+4   1.14859E+4
   1.99312E+4   1.17618E+4
   1.97401E+4   1.18980E+4
   1.93005E+4   1.19726E+4
   1.88440E+4   1.22386E+4
   1.87498E+4   1.25077E+4
   1.83949E+4   1.27993E+4
   1.78695E+4   1.30893E+4
   1.75044E+4   1.31634E+4
   1.72173E+4   1.31775E+4
   1.68360E+4   1.37976E+4
   1.64485E+4   1.36042E+4
   1.59465E+4   1.38557E+4
   1.57040E+4   1.40035E+4
   1.56207E+4   1.43584E+4
   1.51810E+4   1.42515E+4
