 
 $NMID
 ID=''
 FMTDAT='(2E13.5)'
 TRAMP=   1.00000E+0
 VOLUME=   1.00000E+0
 $END
  -1.57552E+4  -2.36885E+3
  -8.04914E+3   5.02566E+3
  -4.63906E+2   2.01803E+3
   1.90897E+3  -5.25901E+3
   1.14050E+3  -1.28778E+3
  -1.01681E+3  -2.14035E+2
  -3.93434E+3  -3.15724E+3
  -7.57379E+2  -4.46749E+2
   4.08089E+3   7.83137E+2
   2.44039E+3  -1.19654E+3
   1.31300E+2   2.26594E+2
  -9.92175E+1   1.20564E+3
  -9.84365E+2   2.06390E+2
   9.24493E+1   1.49653E+3
   3.13835E+2   1.46464E+3
  -1.75253E+3  -7.88920E+2
  -1.17551E+3  -1.42791E+3
   6.78646E+2  -1.33776E+2
  -3.07412E+2   2.83373E+1
  -1.66174E+2  -2.45549E+2
   8.36550E+2  -6.10899E+2
  -6.80251E+2  -2.92505E+2
  -1.15793E+3  -3.99505E+2
   8.70372E+2  -1.79635E+2
   4.58351E+2   1.05708E+3
  -1.19124E+3   9.57735E+2
   3.31408E+1  -1.51243E+3
   1.09711E+3  -7.15086E+2
   4.78731E+1   1.78627E+3
  -9.50749E+2   8.64344E+2
   5.39511E+1  -1.29087E+3
   1.57919E+3  -4.88161E+2
   4.98021E+2   2.53916E+2
  -2.01377E+2   4.88733E+2
  -3.11701E+2   9.39590E+2
  -4.18437E+2   1.81706E+2
  -3.16950E+2  -6.76416E+2
   4.78266E+2  -8.34867E+2
   6.51666E+2  -5.26929E+2
  -2.52481E+2  -2.40740E+1
   3.11280E+1   4.38958E+2
   3.86981E+2   5.10404E+2
   2.06707E+2  -6.18343E+1
  -4.96594E+2   9.50035E+1
  -8.37319E+2   1.78433E+2
  -6.41307E+2  -4.02330E+2
   3.91743E+2  -1.25144E+3
   1.32091E+3  -3.24480E+2
   5.91727E+2   4.45200E+2
  -1.07099E+2   3.95680E+2
  -2.71360E+2   6.89963E+1
   1.78111E+2   3.69091E+2
  -2.76574E+2   2.66678E+2
  -5.53405E+2  -6.56549E+2
   4.56462E+1  -4.67776E+2
  -9.45033E+1  -6.70542E+1
   1.21675E+2  -8.03431E+1
   2.49828E+2  -1.26810E+2
   4.74667E+1   3.03450E+2
  -3.45897E+2   5.68611E+2
  -6.11583E+2   1.58588E+2
  -2.15319E+2  -2.68773E+2
   1.29951E+2  -3.05242E+2
   2.45981E+2  -2.61985E+2
   1.51015E+2  -1.58381E+2
   4.65881E+2  -1.85361E+2
   6.25029E+2   2.78154E+2
   2.17212E+2   5.12057E+2
  -3.17698E+2   4.26753E+2
   2.68167E+1  -1.12270E+2
   2.76467E+2   4.46321E+0
  -3.21427E+2   2.98900E+2
  -3.10092E+2   2.79883E+2
  -2.14791E+2  -5.10773E+2
  -1.28259E+1  -1.16280E+2
   1.23592E+2   1.84728E+2
  -7.40572E+1   8.63712E+1
   1.04132E+2  -2.90360E+2
   1.27035E+2   7.91425E+0
   6.08702E+1   6.99831E+1
   3.97003E+2  -2.17049E+2
   1.89395E+2  -7.41896E+0
   1.28721E+2   7.35298E+1
   1.50298E+2   3.20190E+2
   3.26741E+2   1.35824E+1
   9.01436E+1   1.58297E+2
  -7.03242E+1   7.17845E+1
  -1.26584E+2   2.62979E+2
   7.79264E+1  -2.59316E+2
  -2.46540E+2   2.12893E+2
  -1.52822E+2   5.39621E+1
  -5.00641E+1  -5.60398E+1
  -1.20787E+2  -1.23543E+2
   1.17004E+2   1.34092E+1
   2.34388E+2   4.45021E+1
  -3.62312E+1  -8.77562E+1
   5.47844E+0   2.28703E+1
  -1.17715E+1   2.89842E+2
   8.75194E+1   2.57494E+2
  -3.22913E+1  -9.46762E-1
  -6.34155E+1   1.87277E+2
  -3.80147E+1   1.10983E+1
  -3.95788E+1  -8.79042E+1
  -9.76206E+1   8.32436E+1
   1.87191E+2   2.15521E+2
  -2.42605E+2   2.24394E+2
  -1.91952E+2   3.49467E+0
  -1.28686E+2  -2.57768E+2
  -8.97897E-1  -4.03691E+1
   1.10053E+0   2.44584E+2
  -1.41463E+2   1.31229E+2
  -8.13879E+0   5.79452E+1
   7.25271E+1  -4.68661E+1
  -9.42331E+1   8.56228E+1
  -7.79724E+1   5.21667E+1
  -3.00931E+1   3.35711E+1
   1.09244E+2  -3.59315E+0
   6.37736E+0   4.60009E+1
   2.39090E+1   3.89791E+1
   1.76570E+1  -1.37656E+2
   4.42193E+0   1.09381E+2
   3.95329E+1   1.35047E+2
   2.14598E+1  -1.19183E+2
  -1.67950E+2  -1.36656E+2
   1.94447E+2  -8.51586E+1
   1.04674E+0  -3.61574E+1
   5.86492E+0  -5.36918E+1
   6.18491E+1   3.77579E+1
   7.87020E+1   8.94961E+1
  -1.55818E+2  -1.99695E+2
  -7.82572E+1  -1.73241E+2
  -6.01337E+1   7.54615E+0
  -9.85455E+1   1.13318E+2
  -8.16273E+1  -4.54560E+1
   2.33110E+2   1.59348E+2
  -1.59544E+2  -8.17144E+1
  -9.94687E+0   1.60926E+2
  -9.16614E+1  -1.45395E+2
   1.78904E+2  -9.48386E+0
  -1.29524E+2  -2.11335E+2
   1.03409E+2  -7.52782E+1
   5.37887E+1  -4.48983E+1
  -5.70880E+1   2.82237E+2
  -2.95516E+1   1.97205E+2
  -4.71104E+1   1.23547E+2
  -3.52184E+1  -1.01319E+2
  -7.73405E-1   9.23683E+1
   2.00548E+1  -3.20022E+1
  -4.32037E+1   1.64616E+2
  -8.84268E+1  -7.51338E+0
   1.12278E+2  -2.37699E+1
  -3.32018E+0   1.62640E+2
  -2.41807E+2   2.03775E+2
  -2.85359E+2  -3.21632E+1
  -1.01449E+2  -1.05860E+2
   1.64499E+2  -1.11564E+2
   4.41198E+1  -2.60260E+1
  -1.06598E+2  -8.52751E+1
   2.44935E+1   7.05746E+0
   2.35327E+2   5.91059E+1
   3.88440E+1   7.26501E+1
   2.67835E+1  -2.63529E+2
  -7.21082E+1   1.98211E+1
   4.35788E+2  -5.21124E+1
   5.12597E+1   7.56967E+1
  -1.29035E+2   8.60252E+1
   5.93983E+1  -2.46389E+2
   3.82194E+2  -2.32486E+1
   4.75294E+1  -3.43485E+1
   2.12306E+2   1.97218E+1
   1.28140E+2   9.12030E+0
   8.41319E+1   7.27989E+1
  -8.31924E+1  -1.59680E+2
   1.53160E+2  -7.28977E+1
   1.29434E+2  -2.52759E+1
   1.87440E+2   2.80879E+2
  -1.90732E+2   2.12517E+2
   1.61880E-1   6.19608E+1
   1.70756E+2  -1.29076E+1
   1.93824E+2  -1.49233E+2
  -1.51964E+2  -2.06797E+2
   1.27708E+2   1.85978E+1
   5.69236E+1   3.61514E+1
   1.51642E+2  -1.02395E+2
   2.60907E+0  -2.52724E+2
  -7.78017E+1  -2.37087E+2
   2.17481E+2  -1.73625E+2
   1.03394E+2  -1.95279E+1
   1.75957E+2   3.27504E+0
  -1.41050E+2   7.01931E+1
  -1.06138E+2   4.88459E+1
  -1.63785E+2   4.76535E+1
  -2.55895E+2  -1.22058E+2
   4.21473E+1   1.48849E+2
   1.06732E+2   1.08508E+2
  -8.74626E+1  -5.51247E+1
  -1.00712E+2  -1.84587E+2
  -4.88359E+1  -1.36462E+2
   2.84001E-1  -4.02060E+1
   9.77626E+1  -2.82915E+2
  -6.25255E+1  -7.72570E-1
  -7.71980E+1  -1.37172E+2
   4.02903E+1   1.72947E+2
  -2.32962E+2   1.61479E+2
  -4.41516E+1   6.77138E+1
  -7.41324E+1  -6.70834E+1
  -6.14323E+1  -2.25853E+2
  -7.75473E+1   2.85937E+1
  -5.17225E+1  -2.46745E+1
   3.21667E+0  -1.14943E+2
   1.17668E+2  -7.92742E+1
   1.64839E+2   8.40345E+1
  -3.14749E+1  -3.36547E+1
  -8.62975E+1  -2.75968E+1
  -2.76665E+1  -1.58762E+2
   2.18033E+1  -7.65443E+1
   2.08666E+2   2.50691E+1
  -3.43549E+1   7.21056E+1
   2.62111E+2   4.75114E+1
  -1.76532E+2  -5.42872E+1
   1.03310E+2  -1.04305E+2
   8.93117E+1   1.44407E+2
   9.54961E+1   3.17666E+1
  -1.00036E+2  -2.21273E+1
   2.35220E+2   5.46564E+1
  -3.91362E+1  -4.96131E+1
   7.85641E+1   1.41920E+2
   4.12291E+1  -7.41622E+1
  -8.35870E+1  -2.04524E+2
   1.78919E+1  -1.14250E+2
  -7.48347E+1  -4.07183E+1
   1.30115E+2  -8.37210E+1
  -3.20876E+1  -1.27405E+2
  -1.13707E+2  -1.58819E+2
   9.39954E+1   1.84018E+2
  -3.55776E+1   2.16693E+2
  -5.77724E+1   8.68829E+1
   4.87245E+1  -8.26035E+0
   1.10227E+1  -2.07904E+2
   9.07362E+1  -6.78598E+1
  -2.21077E+1   1.90260E+2
  -7.02668E+1  -1.11286E+2
  -1.78724E+2  -1.73291E-1
   3.20932E+1  -1.61112E+2
  -1.08842E+2   9.50079E+1
  -1.77544E+2   5.75418E+0
  -1.46116E+1   5.17451E+1
   4.23294E+1   5.44914E+1
  -4.26156E+1   3.19461E+1
  -5.72507E+1   5.51775E+1
  -2.54300E+1  -1.49644E+2
  -5.43194E+1  -7.53547E+1
  -2.26895E+2  -1.39684E+2
  -8.18978E+1   1.97933E+2
  -4.49842E+1  -1.29563E+2
  -1.13322E+2   1.71430E+2
  -3.44037E+2  -8.24363E+0
  -9.22191E+1  -2.64935E+1
  -1.58750E+2  -1.40640E+2
  -1.52717E+1   7.32912E+1
  -2.15326E+2  -1.60972E+2
   7.44546E+1  -1.19388E+2
   1.28927E+2   6.96056E+1
   1.47594E+2   1.00292E+2
  -1.48610E+2   1.42385E+2
   4.11519E+1   2.59683E+1
  -2.31259E+2  -6.09936E+1
   1.78684E+2  -1.47827E+2
   1.98278E+2  -9.84152E+1
  -7.53764E+1   4.26498E+1
  -1.85848E+2  -6.02545E+1
   3.74837E+1   8.21339E+1
   1.73435E+0   7.68991E+1
   7.27264E+1   2.60352E+2
   7.98665E+1  -6.21790E+1
  -7.33322E+1  -2.11884E+1
  -5.04856E+1  -2.28100E+2
   9.10441E+1   2.21822E+1
  -2.19643E+2   4.25230E+1
   5.24801E+1   4.52247E+1
  -1.91321E+2   2.34390E+2
  -1.47696E+2  -1.19513E+2
  -1.01214E+2   2.29313E+1
   9.48368E+1   1.30852E+2
  -1.04907E+2  -1.26696E+2
   1.58686E+2   1.92801E+1
   1.47639E+1  -5.50252E+1
   1.83273E+2   9.02477E+1
  -2.06556E+2   7.53317E+1
  -9.77474E+1  -1.69095E+2
  -2.01368E+2   3.67771E+1
  -1.25418E+2  -1.86417E+1
  -1.97485E+2   1.71083E+2
   3.70348E+1  -5.48780E+1
   2.14559E+2  -9.12475E+1
   1.24930E+2  -5.44878E+1
   3.96656E+1  -4.96589E+1
  -5.69502E+1   4.48443E+1
  -1.26306E+2  -1.49438E+2
   1.16217E+2  -3.27485E+1
   1.75232E+2  -5.52498E+1
   4.19261E+1   5.52256E+1
   4.91446E+1   6.77799E+0
   7.03048E+1  -4.87948E+0
  -1.11524E+2  -7.82725E+1
   1.13662E+2  -1.06052E+2
   1.43681E+2  -1.10646E+2
   2.22665E+1  -1.97569E+0
   1.11975E+1   1.89501E+2
   2.73383E+2   1.36874E+1
  -8.63408E+1  -7.25600E+1
  -2.80906E+1  -3.07957E+1
  -3.21042E+1  -1.78205E+1
   1.64155E+1  -1.69245E+1
  -1.01144E+1   1.34874E+2
   9.93466E+1   7.46939E+1
  -2.52796E+2  -4.93694E+1
   7.39876E+1  -3.00782E+2
  -2.03020E+2   1.94439E+1
  -8.00644E+1  -8.72758E+0
  -4.48230E+1  -4.30805E+1
  -8.59244E+0   2.08560E+0
   6.40516E+1  -1.55125E+2
   1.79621E+2  -1.60796E+2
  -1.68457E+2  -1.27609E+2
  -1.89440E+2   5.48613E+1
  -2.23539E+2  -1.63351E+2
   6.10826E+1  -4.71611E+1
  -2.63895E+2   8.69157E+1
   2.03136E+2   8.20292E+1
  -1.39803E+2  -1.31945E+2
  -1.21643E+2   9.51066E+1
  -4.90538E+1   2.22781E+1
  -2.56228E+2   4.47489E+0
   3.85049E+1   8.14626E+1
  -3.30091E+2  -7.97559E+0
  -1.54157E+2   7.34574E+1
   4.61465E+1  -2.65372E+2
   5.47073E+1   1.59996E+2
   1.79044E+2   9.05007E+1
  -1.24171E+2  -1.22677E+2
  -1.41442E+2   4.03922E+1
   1.89018E+2  -2.31814E+2
  -6.09977E+1  -1.31348E+2
  -2.52970E+2   8.61334E+1
  -1.22338E+2   6.70441E+1
   1.57637E+1  -1.09718E+1
  -4.29121E+1   4.78864E+1
   5.93051E+1  -3.54853E+1
  -2.31917E+1  -1.92120E+2
  -1.06786E+2  -9.78526E+0
   1.83322E+2  -1.43318E+2
   3.58259E+1   2.86544E+2
  -8.76696E+1  -1.76022E+1
   2.45679E+1  -1.22166E+2
   2.13983E+2   1.32453E+2
  -5.83162E+1   1.33563E+2
  -1.55514E+2   6.72299E+1
   1.64518E+0   3.08183E+1
  -5.80511E+1  -1.42877E+2
   8.22220E+1   1.05463E+2
   3.56782E+0  -9.12410E+1
   2.13173E+2   1.16500E+2
  -8.44353E+1  -7.54857E+1
  -1.79064E+2  -1.12350E+2
   5.73460E+1   1.81136E+2
   2.62031E+2   7.59681E+1
