 
 $NMID
 ID=''
 FMTDAT='(2E13.5)'
 TRAMP=   1.00000E+0
 VOLUME=   1.00000E+0
 $END
   3.72103E+5   4.73852E+5
   4.99625E+5   1.55739E+6
   6.77850E+5   1.47978E+6
   5.62264E+5   1.41317E+6
   4.93392E+5   1.46524E+6
   4.39030E+5   1.42808E+6
   3.32601E+5   1.43908E+6
   3.19910E+5   1.51199E+6
   3.41011E+5   1.47695E+6
   2.77965E+5   1.43725E+6
   2.20191E+5   1.44363E+6
   1.76272E+5   1.42772E+6
   1.26870E+5   1.43903E+6
   1.22383E+5   1.45536E+6
   1.09246E+5   1.41453E+6
   5.77637E+4   1.38255E+6
   1.46533E+4   1.38908E+6
  -2.94972E+4   1.38105E+6
  -7.57042E+4   1.37563E+6
  -9.52383E+4   1.36504E+6
  -1.28770E+5   1.32868E+6
  -1.82483E+5   1.30810E+6
  -2.18408E+5   1.30227E+6
  -2.48766E+5   1.28734E+6
  -2.77622E+5   1.27037E+6
  -2.87870E+5   1.24892E+6
  -3.13913E+5   1.21814E+6
  -3.49905E+5   1.20034E+6
  -3.71263E+5   1.18645E+6
  -3.85047E+5   1.16896E+6
  -4.07632E+5   1.14845E+6
  -4.28472E+5   1.11769E+6
  -4.58013E+5   1.08457E+6
  -4.88969E+5   1.06523E+6
  -5.09432E+5   1.04673E+6
  -5.26952E+5   1.02047E+6
  -5.47376E+5   9.92681E+5
  -5.69366E+5   9.60426E+5
  -5.92758E+5   9.30113E+5
  -6.11309E+5   9.10157E+5
  -6.21320E+5   8.88186E+5
  -6.29905E+5   8.60270E+5
  -6.39367E+5   8.31900E+5
  -6.51905E+5   8.05243E+5
  -6.65448E+5   7.80306E+5
  -6.76011E+5   7.59942E+5
  -6.84759E+5   7.34824E+5
  -6.94291E+5   7.02755E+5
  -7.03149E+5   6.70446E+5
  -7.13735E+5   6.42254E+5
  -7.25410E+5   6.15808E+5
  -7.33840E+5   5.88592E+5
  -7.38717E+5   5.60657E+5
  -7.44885E+5   5.32132E+5
  -7.51137E+5   5.03126E+5
  -7.56855E+5   4.74981E+5
  -7.60475E+5   4.49102E+5
  -7.61124E+5   4.25384E+5
  -7.61049E+5   4.00842E+5
  -7.62157E+5   3.74954E+5
  -7.63384E+5   3.48635E+5
  -7.64687E+5   3.24617E+5
  -7.65728E+5   3.00958E+5
  -7.64839E+5   2.75308E+5
  -7.60804E+5   2.49336E+5
  -7.57049E+5   2.24037E+5
  -7.54527E+5   1.99191E+5
  -7.52208E+5   1.75564E+5
  -7.49037E+5   1.53947E+5
  -7.44045E+5   1.32046E+5
  -7.37677E+5   1.09405E+5
  -7.30579E+5   8.69276E+4
  -7.25340E+5   6.68576E+4
  -7.20494E+5   4.75152E+4
  -7.13281E+5   2.80698E+4
  -7.03578E+5   8.63054E+3
  -6.94583E+5  -1.04874E+4
  -6.86829E+5  -3.03072E+4
  -6.78693E+5  -4.97689E+4
  -6.69304E+5  -6.75824E+4
  -6.58572E+5  -8.38343E+4
  -6.46788E+5  -1.00683E+5
  -6.35929E+5  -1.18145E+5
  -6.25332E+5  -1.34910E+5
  -6.14291E+5  -1.50076E+5
  -6.02602E+5  -1.62414E+5
  -5.90267E+5  -1.75244E+5
  -5.77293E+5  -1.88747E+5
  -5.64839E+5  -2.02101E+5
  -5.52963E+5  -2.13138E+5
  -5.41187E+5  -2.22739E+5
  -5.28035E+5  -2.32468E+5
  -5.13785E+5  -2.43017E+5
  -4.99440E+5  -2.53944E+5
  -4.85749E+5  -2.63548E+5
  -4.72886E+5  -2.72210E+5
  -4.59823E+5  -2.79107E+5
  -4.44859E+5  -2.86764E+5
  -4.29484E+5  -2.94964E+5
  -4.15361E+5  -3.02655E+5
  -4.02556E+5  -3.08502E+5
  -3.89279E+5  -3.14255E+5
  -3.74312E+5  -3.18924E+5
  -3.58725E+5  -3.22733E+5
  -3.44847E+5  -3.26882E+5
  -3.32124E+5  -3.31251E+5
  -3.19280E+5  -3.35126E+5
  -3.05251E+5  -3.37697E+5
  -2.89992E+5  -3.39369E+5
  -2.76211E+5  -3.41140E+5
  -2.62988E+5  -3.44228E+5
  -2.50225E+5  -3.46406E+5
  -2.36812E+5  -3.48045E+5
  -2.23042E+5  -3.48334E+5
  -2.09156E+5  -3.49146E+5
  -1.95623E+5  -3.50267E+5
  -1.82993E+5  -3.51505E+5
  -1.70322E+5  -3.51196E+5
  -1.58184E+5  -3.49609E+5
  -1.45944E+5  -3.48165E+5
  -1.33931E+5  -3.47952E+5
  -1.22115E+5  -3.47565E+5
  -1.11023E+5  -3.46698E+5
  -1.00159E+5  -3.44732E+5
  -8.84542E+4  -3.42757E+5
  -7.73256E+4  -3.40454E+5
  -6.63642E+4  -3.37992E+5
  -5.62108E+4  -3.35710E+5
  -4.64231E+4  -3.33107E+5
  -3.64782E+4  -3.29960E+5
  -2.60796E+4  -3.26631E+5
  -1.58732E+4  -3.23356E+5
  -6.74545E+3  -3.19707E+5
   1.71660E+3  -3.15989E+5
   1.01962E+4  -3.12014E+5
   1.90855E+4  -3.07438E+5
   2.76677E+4  -3.03105E+5
   3.52898E+4  -2.98908E+5
   4.31663E+4  -2.94650E+5
   5.06971E+4  -2.90129E+5
   5.79396E+4  -2.84396E+5
   6.45642E+4  -2.78667E+5
   7.09750E+4  -2.73924E+5
   7.77194E+4  -2.69094E+5
   8.35730E+4  -2.63910E+5
   8.93345E+4  -2.57866E+5
   9.47515E+4  -2.51792E+5
   9.98283E+4  -2.45982E+5
   1.05062E+5  -2.40082E+5
   1.09263E+5  -2.34278E+5
   1.13307E+5  -2.28588E+5
   1.17478E+5  -2.22648E+5
   1.21113E+5  -2.16769E+5
   1.25182E+5  -2.10541E+5
   1.28972E+5  -2.04909E+5
   1.31951E+5  -1.98573E+5
   1.34590E+5  -1.93070E+5
   1.37238E+5  -1.87072E+5
   1.39783E+5  -1.81034E+5
   1.42274E+5  -1.75001E+5
   1.44653E+5  -1.69552E+5
   1.46294E+5  -1.63861E+5
   1.48016E+5  -1.57807E+5
   1.49492E+5  -1.51580E+5
   1.50818E+5  -1.45929E+5
   1.51582E+5  -1.40538E+5
   1.53189E+5  -1.35188E+5
   1.53706E+5  -1.29822E+5
   1.54655E+5  -1.24394E+5
   1.54999E+5  -1.18902E+5
   1.55556E+5  -1.13712E+5
   1.55877E+5  -1.08735E+5
   1.55966E+5  -1.03489E+5
   1.55647E+5  -9.83936E+4
   1.55106E+5  -9.37107E+4
   1.55349E+5  -8.88351E+4
   1.55332E+5  -8.39767E+4
   1.55332E+5  -7.92095E+4
   1.54016E+5  -7.43981E+4
   1.53282E+5  -7.01996E+4
   1.52744E+5  -6.55267E+4
   1.52358E+5  -6.11202E+4
   1.51333E+5  -5.67966E+4
   1.50479E+5  -5.27473E+4
   1.49328E+5  -4.87369E+4
   1.48025E+5  -4.46389E+4
   1.46643E+5  -4.04876E+4
   1.45499E+5  -3.69580E+4
   1.43803E+5  -3.32723E+4
   1.42685E+5  -3.02172E+4
   1.41580E+5  -2.63417E+4
   1.39923E+5  -2.24350E+4
   1.38259E+5  -1.90261E+4
   1.36729E+5  -1.58755E+4
   1.34861E+5  -1.25151E+4
   1.33203E+5  -9.80171E+3
   1.31638E+5  -6.36007E+3
   1.29585E+5  -3.50322E+3
   1.28223E+5  -5.59101E+2
   1.26309E+5   2.36282E+3
   1.24376E+5   5.23945E+3
   1.22130E+5   7.83949E+3
   1.19957E+5   1.03133E+4
   1.18383E+5   1.29276E+4
   1.16196E+5   1.51979E+4
   1.14149E+5   1.76438E+4
   1.11955E+5   1.98837E+4
   1.09822E+5   2.18975E+4
   1.07832E+5   2.38356E+4
   1.05874E+5   2.60355E+4
   1.03860E+5   2.79918E+4
   1.01381E+5   2.94656E+4
   9.90508E+4   3.10137E+4
   9.72713E+4   3.27713E+4
   9.51956E+4   3.45445E+4
   9.27366E+4   3.59846E+4
   9.07192E+4   3.70655E+4
   8.87381E+4   3.81952E+4
   8.62922E+4   3.93743E+4
   8.44597E+4   4.05068E+4
   8.22184E+4   4.16214E+4
   8.00673E+4   4.24575E+4
   7.80262E+4   4.34577E+4
   7.62296E+4   4.43798E+4
   7.40608E+4   4.51687E+4
   7.15811E+4   4.57263E+4
   6.97628E+4   4.60775E+4
   6.80928E+4   4.65278E+4
   6.63186E+4   4.72212E+4
   6.40326E+4   4.76116E+4
   6.21819E+4   4.81328E+4
   6.01751E+4   4.80785E+4
   5.83201E+4   4.85144E+4
   5.66271E+4   4.88890E+4
   5.49824E+4   4.89765E+4
   5.31285E+4   4.90289E+4
   5.13116E+4   4.92384E+4
   4.97031E+4   4.94207E+4
   4.80761E+4   4.94742E+4
   4.63387E+4   4.92129E+4
   4.51007E+4   4.89577E+4
   4.34347E+4   4.93609E+4
   4.16163E+4   4.91549E+4
   4.01096E+4   4.89547E+4
   3.84514E+4   4.88251E+4
   3.69728E+4   4.86857E+4
   3.57294E+4   4.83438E+4
   3.41846E+4   4.83609E+4
   3.29839E+4   4.82112E+4
   3.17761E+4   4.75777E+4
   3.06611E+4   4.72674E+4
   2.92490E+4   4.69600E+4
   2.82919E+4   4.68258E+4
   2.68859E+4   4.63030E+4
   2.58187E+4   4.59993E+4
   2.45187E+4   4.54767E+4
   2.35383E+4   4.52158E+4
   2.25303E+4   4.48367E+4
   2.14333E+4   4.46626E+4
   2.03064E+4   4.41257E+4
   1.93824E+4   4.37194E+4
   1.84280E+4   4.32522E+4
   1.72661E+4   4.28701E+4
   1.65691E+4   4.23205E+4
   1.57552E+4   4.19105E+4
   1.47428E+4   4.14750E+4
   1.39507E+4   4.10736E+4
   1.27599E+4   4.04425E+4
   1.22195E+4   3.97751E+4
   1.15464E+4   3.94818E+4
   1.09269E+4   3.88619E+4
   1.01926E+4   3.83356E+4
   9.36006E+3   3.80465E+4
   8.71080E+3   3.72621E+4
   8.06042E+3   3.67620E+4
   7.41396E+3   3.62291E+4
   7.00451E+3   3.56397E+4
   6.09063E+3   3.53053E+4
   5.79851E+3   3.46908E+4
   5.01137E+3   3.41139E+4
   4.80284E+3   3.36425E+4
   4.12457E+3   3.30514E+4
   3.69006E+3   3.26894E+4
   2.88315E+3   3.17901E+4
   2.66355E+3   3.15433E+4
   2.38214E+3   3.09832E+4
   2.00894E+3   3.04254E+4
   1.54718E+3   2.99157E+4
   1.09167E+3   2.93430E+4
   1.09772E+3   2.89530E+4
   4.01032E+2   2.82955E+4
  -9.36412E+1   2.79342E+4
  -2.01272E+2   2.72786E+4
  -7.11873E+2   2.70098E+4
  -1.12619E+3   2.61817E+4
  -1.10776E+3   2.57409E+4
  -1.47249E+3   2.52504E+4
  -1.81197E+3   2.48934E+4
  -2.01229E+3   2.43325E+4
  -2.17616E+3   2.38211E+4
  -2.40656E+3   2.34765E+4
  -2.66227E+3   2.28527E+4
  -3.01974E+3   2.21159E+4
  -3.11072E+3   2.19527E+4
  -3.23634E+3   2.14053E+4
  -3.37948E+3   2.06913E+4
  -3.69479E+3   2.03199E+4
  -3.83103E+3   1.97155E+4
  -4.07326E+3   1.96092E+4
  -4.32605E+3   1.91700E+4
  -4.72990E+3   1.85723E+4
  -4.24861E+3   1.79696E+4
  -4.60065E+3   1.78896E+4
  -4.90212E+3   1.75729E+4
  -4.99331E+3   1.70132E+4
  -4.98913E+3   1.64038E+4
  -5.23680E+3   1.62561E+4
  -5.16549E+3   1.56659E+4
  -5.35706E+3   1.53315E+4
  -5.50893E+3   1.52129E+4
  -5.44970E+3   1.47928E+4
  -5.64936E+3   1.41159E+4
  -5.72719E+3   1.38556E+4
  -5.90051E+3   1.36029E+4
  -5.87687E+3   1.32757E+4
  -6.29540E+3   1.28233E+4
  -6.17654E+3   1.25336E+4
  -6.09845E+3   1.20038E+4
  -5.98432E+3   1.17725E+4
  -6.28017E+3   1.15745E+4
  -6.20081E+3   1.09612E+4
  -6.25611E+3   1.07154E+4
  -6.35962E+3   1.03646E+4
  -6.38274E+3   1.03046E+4
  -6.60422E+3   1.00150E+4
  -6.04617E+3   9.49345E+3
  -6.58635E+3   9.23377E+3
  -6.19637E+3   8.91118E+3
  -6.21464E+3   8.57911E+3
  -6.32913E+3   8.29791E+3
  -6.09868E+3   7.94537E+3
  -6.49210E+3   7.81595E+3
  -6.23918E+3   7.44211E+3
  -6.11194E+3   7.28444E+3
  -6.14854E+3   7.10944E+3
  -6.23039E+3   6.71669E+3
  -6.33637E+3   6.34912E+3
  -6.17234E+3   6.24980E+3
  -6.08103E+3   5.66138E+3
  -6.02676E+3   5.30998E+3
  -5.92432E+3   5.29359E+3
  -6.05977E+3   4.79061E+3
  -5.80839E+3   4.75522E+3
  -5.97955E+3   4.58832E+3
  -5.79358E+3   4.34357E+3
  -5.72478E+3   3.96270E+3
  -5.57388E+3   3.95952E+3
  -5.43527E+3   3.38315E+3
  -5.43897E+3   3.29421E+3
  -5.40057E+3   2.82736E+3
  -5.23137E+3   2.75658E+3
  -5.04940E+3   2.67900E+3
  -4.94256E+3   2.38360E+3
  -4.82667E+3   1.99897E+3
  -4.96083E+3   2.19013E+3
  -4.74244E+3   1.72039E+3
  -4.99371E+3   1.53674E+3
