 
 $NMID
 ID=''
 FMTDAT='(2E13.5)'
 TRAMP=   1.00000E+0
 VOLUME=   1.00000E+0
 $END
   4.33042E+3  -2.09524E+4
  -1.80222E+4  -5.62809E+2
   3.45869E+3   1.44800E+4
   2.03484E+4  -6.78561E+3
  -7.11874E+3  -8.89843E+3
  -1.26840E+4   1.03837E+4
   8.98430E+3   3.49298E+3
   6.21544E+3  -8.94936E+3
  -4.26417E+3  -3.83962E+1
   9.82858E+2   6.10367E+3
   1.99304E+3   2.11085E+3
  -1.29188E+3  -5.74132E+2
  -6.58357E+2  -4.14151E+2
  -1.70206E+3   4.97843E+3
  -9.93532E+2   4.52546E+3
   1.59110E+3  -6.32770E+3
  -1.26320E+3  -4.74472E+3
  -6.63840E+2   6.78607E+3
   2.88432E+3   1.65321E+3
   3.25610E+2  -5.74586E+3
  -1.63484E+3   1.95480E+2
   7.61023E+2   1.20704E+3
  -1.56977E+2  -2.58646E+3
  -9.59428E+2   1.42625E+3
   3.22540E+2   1.61955E+3
  -2.93147E+1  -3.14057E+3
   1.05369E+3  -7.42831E+2
   1.13493E+3   2.63523E+3
  -1.27677E+3   4.83240E+2
  -3.35218E+2  -2.31215E+2
   2.12150E+3   6.80462E+2
   7.31212E+2   1.22975E+1
  -1.42493E+3   9.28086E+2
  -1.36954E+3   1.85284E+3
  -1.40147E+3  -1.23181E+3
  -8.53791E+1  -3.78466E+3
   2.24229E+3  -3.68535E+2
   1.68882E+3   2.62417E+3
  -9.97364E+1  -2.30643E+2
  -4.55789E+2  -1.12317E+3
   2.64696E+2   1.50059E+3
  -6.05467E+2   5.88020E+2
  -9.67044E+2  -2.42506E+3
   3.56907E+2  -2.06456E+3
   1.53150E+3  -6.90080E+2
   1.48595E+3  -6.58690E+2
   1.13578E+3   8.13269E+2
   1.81897E+1   2.08754E+3
  -1.53692E+3   8.49297E+2
  -1.37310E+3  -8.66792E+2
  -5.04891E+2  -8.93934E+2
  -2.58230E+2  -9.29492E+2
   9.52788E+1  -8.54593E+2
   7.72833E+2  -7.26393E+2
   7.57543E+2  -7.88298E+2
   1.40509E+2   2.16109E+1
  -4.79931E+2   1.13268E+3
  -1.51494E+3  -7.66151E+2
  -9.67914E+2  -2.07938E+3
   2.40090E+2  -1.61598E+3
   7.26597E+2  -5.67837E+2
   5.88393E+2  -2.96717E+2
   8.34330E+2   5.47022E+1
   4.88489E+2   1.86532E+3
  -1.03444E+3   1.95091E+3
  -2.20662E+3   3.96256E+2
  -2.05250E+3  -1.15459E+3
  -1.21168E+3  -1.68590E+3
   2.14816E+2  -1.22010E+3
   3.02142E+2  -3.58672E+2
  -7.65408E+2   1.31122E+2
  -8.65181E+2  -6.02372E+2
   2.03031E+2  -1.17334E+3
   6.91733E+2  -9.45399E+1
  -1.86866E+1   5.33493E+2
  -4.19512E+2   1.71974E+2
   2.27674E+0   4.56786E+1
   6.02699E+2  -2.31873E+2
   1.19390E+2   6.09170E+2
  -5.72437E+2   8.85572E+2
  -7.77691E+2   5.87187E+2
  -5.71205E+2  -3.21253E+2
  -6.33315E+1  -9.14634E+1
  -4.36291E+1   4.06398E+2
  -8.17925E+2   1.26469E+2
  -7.62344E+2  -9.91814E+2
   1.18626E+2  -5.14524E+2
   5.43330E+2   1.18661E+2
  -1.32400E+1   5.27523E+1
  -2.46920E+2  -3.80370E+2
   5.97005E+2  -1.05929E+2
   9.14013E+2   4.06968E+2
   4.50424E+2   1.04018E+3
  -6.29635E+2   1.29514E+3
  -9.43096E+2   6.19596E+2
  -8.36513E+2  -7.83824E+2
  -1.49706E+2  -9.55133E+2
   2.03672E+2   1.04350E+2
  -7.96356E+1   1.37133E+2
   1.46480E+1  -7.20933E+2
   9.08990E+2  -4.89140E+2
   1.07012E+3   6.24508E+2
  -1.09422E+2   1.08041E+3
  -1.25898E+3   9.69661E+1
  -4.42236E+2  -8.11518E+2
   8.37914E+2  -1.74488E+2
   9.37582E+2   1.84525E+2
  -4.38737E+2   5.14712E+2
  -1.03509E+3  -3.68613E+1
  -4.53801E+2  -9.68014E+2
   5.35782E+2  -1.18305E+3
   1.00133E+3  -4.78621E+2
   5.58278E+2   9.98147E+1
   3.21814E+2   2.81234E+2
   2.04475E+2  -5.14761E+1
   3.48734E+2   5.26535E+2
   9.82304E+1   1.02776E+3
  -7.34542E+2   5.47724E+2
  -1.18762E+3  -4.90298E+2
  -5.51343E+2  -1.14757E+3
   8.72425E+2  -5.39744E+2
   5.68701E+2  -3.55990E+2
   5.77229E+2  -3.44592E+2
   4.61621E+2   1.27668E+2
   1.85359E+2   5.58573E+2
  -2.91650E+2   5.10187E+2
  -6.12514E+2  -7.92746E+1
  -1.76174E+2  -5.43373E+2
   3.70954E+2  -3.78029E+2
   7.03100E+2  -5.11230E+1
   3.30265E+2   4.74663E+2
  -3.91893E+2   4.98139E+2
  -3.74606E+2  -6.79067E+0
   3.95560E+2  -2.34499E+2
   1.34009E+2   9.31397E+1
  -3.99056E+2  -5.77961E+1
  -1.29956E+2  -1.93818E+2
   2.27963E+2  -2.02849E+2
   2.30042E+2   6.34820E+1
   3.72742E+2   4.87336E+2
  -5.37283E+2   1.72288E+2
  -2.98016E+2  -2.72242E+2
  -1.05576E+2  -9.90661E+2
   7.23157E+2  -2.55412E+2
   9.14720E+2   7.58781E+2
   2.66290E+2   7.63605E+2
  -4.39567E+2   4.62393E+2
  -3.07094E+2   8.68470E+1
  -5.50710E+1   1.42620E+2
  -5.42962E+2  -1.30393E+2
  -7.68634E+2  -3.38539E+2
  -3.07137E+2  -6.38776E+2
   3.84380E+2  -6.28126E+2
   5.81897E+2   1.30203E+2
   1.04546E+1   4.23413E+2
  -3.50593E+1  -1.18534E+2
  -5.05272E+0  -4.09151E+1
   2.42139E+2  -5.80751E+1
   7.50388E+1   1.73587E+2
   2.78586E+2   4.01101E+1
   2.59068E+2   4.04506E+2
   1.37234E+2   2.10038E+2
  -1.90562E+2   3.07842E+2
  -3.67736E+2   4.32702E+2
  -3.87439E+2  -1.24656E+2
  -9.34650E+1  -4.65844E+2
   3.12195E+2  -3.75621E+2
   6.14422E+2   4.51868E+2
   1.54003E+2   3.64572E+2
  -2.17199E+2  -2.28598E+2
  -4.26102E+1  -2.20084E+2
   1.17993E+2   7.71890E+1
   3.29658E+2   4.05849E+2
   1.47263E+1   2.05825E+2
  -1.87275E+2  -1.74787E+2
   3.52947E+2  -2.21287E+2
   5.13062E+2   3.40458E+2
  -2.06461E+2   5.09776E+2
  -3.26073E+2  -8.91783E+1
   1.41613E+2  -4.38515E+2
   3.07232E+2  -1.42623E+2
   2.65252E+2   5.47537E+2
  -6.96790E+1   3.75670E+2
   5.73353E+1   3.91033E+2
  -6.41395E+1   1.92160E+1
  -2.21229E+2   8.57327E+1
  -2.09379E+2   1.20373E+2
  -3.02154E+2  -2.39590E+2
   1.14354E+2  -4.65201E+2
   7.01652E+2  -4.35614E+2
   8.92526E+2   3.13995E+2
   1.47797E+2   5.42934E+2
  -4.29790E+2   7.27784E+2
  -3.61387E+2   5.22401E+1
  -9.76605E+1  -2.43710E+2
  -2.83027E+1  -1.16246E+2
   3.26131E+2   1.25600E+2
   1.42463E+2  -9.07580E+1
   1.69093E+2  -7.68469E+1
   6.04438E+2   4.22771E+2
  -3.83132E+1   4.83731E+2
  -3.42688E+2   1.14531E+2
  -3.10028E+2  -5.67661E+2
   3.78223E+2  -5.24375E+2
   4.64388E+2  -1.57089E+2
   5.23822E+1   2.64054E+2
  -4.83703E+1   2.46351E+2
  -1.17436E+2  -2.27098E+2
   2.93931E+2  -1.98456E+2
   1.59004E+2   1.79246E+2
  -2.73826E+2  -5.24583E+1
  -1.30661E+2  -2.09641E+2
   4.03475E+2  -1.67568E+2
   6.58201E+2   2.36987E+2
   1.70528E+2   6.18929E+2
  -5.43820E+2   5.37963E+2
  -5.86752E+2   6.63347E+1
  -2.02994E+2  -1.47319E+2
   2.42247E+2  -1.06797E+2
   7.50619E+1   1.22857E+1
   6.62095E+1  -1.07667E+2
  -8.23030E+0  -2.89836E+2
   3.61003E+2   9.55858E+1
   3.75368E+2   4.93144E+2
  -2.68899E+2   6.93759E+2
  -4.42393E+2  -1.44730E+1
  -2.75862E+0  -4.67288E+2
   4.39900E+2  -1.65707E+1
   1.62073E+2   3.06943E+2
  -1.24415E+2   4.12733E+2
  -3.71841E+2   1.19511E+2
  -7.77644E+1  -9.30125E+0
  -3.86623E+0  -7.73168E+0
  -1.14780E+2   2.07702E+2
  -2.41054E+2  -1.22324E+2
  -1.04099E+2  -2.41741E+2
   2.90128E+2   1.39993E+2
  -5.77936E+1   3.65401E+1
  -1.61227E+1   3.12330E+2
  -3.31730E+2   5.96802E+1
   6.88724E+1  -3.61416E+2
   2.34656E+2   4.19128E+1
   1.82432E+2   3.49299E+2
  -8.98066E+1   4.61016E+2
  -3.75205E+2  -7.69420E+0
  -4.01065E+1  -2.66842E+2
   5.57417E+1   3.64156E+2
  -1.27278E+2   2.30859E+2
  -3.34373E+2   1.15133E+2
   3.98698E+1  -3.56174E+2
   3.43323E+2  -1.08617E+0
   1.72011E+2   3.57088E+2
  -4.44220E+1   3.76129E+2
  -2.84334E+2   1.46446E+2
  -2.88977E+2  -2.27127E+2
   1.73934E+2  -2.74111E+2
   2.24477E+2   8.33991E+1
  -1.28503E+1   2.65727E+2
   7.55475E+1   1.20827E+2
   2.91505E+1   1.77161E+2
   2.08399E+2   4.14712E+2
  -4.22118E+2   3.12744E+2
  -4.35665E+2   2.83731E+2
  -1.57374E+2  -2.01475E+2
   2.72594E+2  -3.99338E+2
   3.31842E+2  -3.23213E+1
   1.47578E+2   2.69347E+2
  -3.38614E+2   3.10256E+2
  -1.51640E+2  -1.08525E+1
   2.33549E+1  -1.75048E+1
  -2.97990E+0   4.46953E+1
  -2.61212E+1   1.13750E+2
  -9.68267E+1  -1.47551E+2
   1.72197E+2   1.00587E+2
   2.49085E+2   1.10661E+2
  -1.30349E+2   5.69697E+2
  -4.80036E+2   1.99177E+2
  -3.51570E+2  -3.40286E+1
   4.63848E+1  -3.05189E+2
   1.62722E+2   2.06822E+2
  -5.79945E+1   3.53740E+2
   4.49384E+1   7.10357E+1
  -2.52548E+1  -5.05157E+1
   5.26226E+1   2.12624E+2
  -1.44913E+2   2.61752E+2
  -1.52482E+2   2.75692E+2
  -3.00927E+2  -2.75256E+2
   1.67095E+2  -1.09563E+2
   2.87658E+2  -2.68645E+1
   3.84911E+2   2.48020E+2
  -4.96125E+1   2.04425E+2
  -2.22024E+2   2.07008E+2
   1.90360E+2   1.22967E+2
  -2.12667E+2   2.46592E+2
  -1.41273E+2   1.64749E+2
  -1.50911E+2  -5.23838E+1
   2.03104E+2   6.34001E+1
   2.99233E+2  -3.97514E+1
   1.28391E+1   1.99958E+2
  -1.06368E+2   3.20207E+2
  -4.09374E+2  -1.66783E+2
   1.27454E+2  -1.23614E+2
   2.58126E+2   1.71395E+2
  -2.92906E+2   3.18829E+2
  -1.98311E+2   2.51501E+2
  -3.58701E+2  -2.15214E+2
   1.61066E+2  -2.22899E+2
   1.69771E+1  -1.39852E+2
   4.15067E+1   1.54701E+2
  -2.54716E+2  -8.75421E+0
   1.48405E+2   5.13451E+1
   2.84190E+2  -6.49580E+1
   1.17153E+2   4.26416E+2
   7.51003E+0   3.84716E+2
  -8.07902E+1   1.80412E+2
  -1.87819E+2  -1.43832E+2
   2.51030E+2  -1.12022E+0
  -5.05705E+1   3.24696E+2
  -2.81929E+2   1.60753E+2
   2.34379E+2   2.04664E+0
  -6.97638E+1   1.48591E+2
   7.01077E+0   2.66778E+2
  -2.11177E+2   2.22599E+2
  -1.59351E+2  -5.25923E+1
  -1.07306E+0  -1.17212E+2
   3.47375E+2   6.66038E+1
   1.70034E+2   3.35628E+2
  -1.98653E+1   3.61500E+2
  -3.24236E+2   1.22388E+2
  -9.80509E+1  -2.41906E+1
   1.33470E+2   1.79773E+0
   3.15102E+1   7.61959E+1
  -3.99066E+1   7.95020E+0
  -1.18140E+2  -7.88351E+1
   4.04952E+2   1.40347E+2
   7.39151E+1   4.15969E+2
  -7.60621E+0   4.39272E+2
  -2.93626E+2   3.81860E+2
  -2.03254E+2  -2.00706E+2
   5.29459E+1  -4.45120E+2
   9.19323E+1  -1.25323E+1
  -1.54008E+2   1.18080E+2
  -1.97276E+2   2.55786E+1
  -8.32715E+1   7.08319E+1
   1.18097E+2   1.33681E+2
   1.61492E+2   1.97951E+2
  -1.01523E+2  -1.02614E+2
   1.36879E+2  -3.26234E+1
   1.32332E+2   4.55529E+1
   2.90431E+2   2.65414E+1
   7.03815E+0   2.68985E+2
  -2.26333E+2   9.62405E+1
  -6.24842E+1   9.06613E+1
   4.45929E+1  -4.87570E+1
   5.99875E+1   5.03444E+1
  -1.52245E+2   8.33735E+0
  -2.45145E+2  -1.10617E+2
   1.52443E+2   8.11957E+1
   4.42247E+1  -1.43697E+1
  -6.80246E+1   3.77492E+2
  -1.79763E+2   7.35486E+1
  -3.62928E+2   4.61124E+1
   1.64300E+2  -3.53905E+2
   2.42283E+2  -8.30334E+1
   7.82971E+1   1.30121E+2
  -7.68068E+0   1.71057E+2
  -5.48239E+1   1.53553E+1
