 
 $NMID
 ID=''
 FMTDAT='(2E13.5)'
 TRAMP=   1.00000E+0
 VOLUME=   1.00000E+0
 $END
   1.99331E+4   8.09506E+3
   1.52890E+4  -1.11272E+4
  -6.22561E+3  -9.04011E+3
   1.50726E+3   1.05998E+4
   9.41452E+3   3.92009E+3
  -6.79388E+3  -1.18150E+3
  -3.74771E+3   7.16686E+3
   6.98948E+3  -7.84570E+2
  -3.39718E+3  -4.55005E+3
  -3.69976E+3   5.45664E+3
   3.06271E+3   1.30486E+3
  -5.09757E+3  -4.97295E+3
  -4.18351E+3   1.56457E+3
   4.04278E+3   9.08852E+2
  -2.59167E+3  -3.88625E+3
  -2.76798E+3  -1.86270E+3
   5.36780E+3  -2.71390E+3
   1.13939E+3  -1.55959E+3
  -1.30159E+3   2.38810E+3
   3.46014E+3  -1.27121E+2
   1.11337E+3  -6.23690E+2
  -1.44410E+3   2.95329E+3
   2.21823E+3   2.96418E+2
   4.48116E+2  -6.60430E+1
  -2.02700E+3   3.33136E+3
  -7.61693E+2   3.13274E+1
   4.67155E+1  -2.35169E+3
  -2.10045E+2   2.41270E+3
  -1.21600E+3   2.10883E+3
  -2.61010E+3  -1.84506E+3
   1.64867E+2  -1.47128E+3
   1.79771E+3  -4.90963E+2
  -5.20185E+2   5.11737E+2
  -2.20762E+3   8.93990E+2
  -8.29067E+2  -1.87209E+3
   1.04097E+3  -2.94954E+3
   2.70098E+3  -8.35191E+1
   1.54788E+3   1.42506E+3
  -1.93631E+2   2.87787E+1
   7.78506E+2   7.61264E+2
   6.66713E+2   2.23581E+3
  -1.35493E+3   9.89060E+2
  -9.87796E+2  -8.03138E+2
   3.28305E+2  -7.10619E+2
  -1.49245E+2   2.14122E+2
  -4.99666E+2  -5.76610E+1
   1.04027E+3   3.21782E+1
   3.29704E+2   1.21773E+3
  -1.72583E+3   6.49381E+2
  -1.77204E+3  -1.17611E+3
   3.04824E+2  -1.46464E+3
   2.54448E+2  -8.35466E+2
   3.25814E+0  -6.67390E+2
   9.29106E+2  -8.10199E+2
   1.39913E+3  -3.07824E+2
   6.78710E+2   7.81667E+2
  -2.32188E+2   1.45742E+3
  -7.09534E+2   3.40218E+2
  -4.72087E+2  -7.92734E+2
   8.43519E+1  -3.51479E+2
   2.47490E+2  -1.39844E+2
   2.00221E+2   7.76368E+1
   9.08089E+2   5.46664E+1
   2.47423E+2   8.36015E+2
  -1.25580E+3   1.16963E+3
  -1.41994E+3  -1.00603E+2
  -7.22947E+2  -1.11678E+3
  -4.89822E+2  -1.35866E+3
   2.43765E+2  -8.20643E+2
   9.14597E+2  -3.00887E+2
   2.27438E+2   5.72795E+1
  -2.93699E+1  -6.49332E+1
   4.44657E+2  -1.75047E+2
   7.52615E+2   3.60325E+2
   4.74234E+2   6.69303E+2
  -1.04132E+2   3.39428E+2
   7.52768E-1   3.40853E+2
   1.36151E+2   5.52390E+2
  -1.34748E+2   5.02362E+2
  -3.44165E+2   3.14930E+2
  -6.68456E+2   1.41084E+2
  -4.78288E+2  -3.26261E+2
   1.29568E+1  -3.82057E+2
   5.51523E+1  -2.19508E+2
  -2.74394E+2  -4.44671E+2
  -1.83548E+2  -4.74524E+2
   6.11401E+2  -6.68297E+2
   6.99469E+2  -1.55118E+1
   2.29943E+2   1.94444E+2
   2.03595E+2   8.81595E+1
   6.69886E+2  -1.46924E+2
   6.91914E+2   4.00584E+2
   7.92240E+1   9.59478E+2
  -8.87153E+1   9.63844E+2
  -4.74961E+2   1.66614E+2
  -4.96577E+2  -3.33893E+2
  -6.18031E+1  -2.34029E+2
  -1.43038E+2   1.27561E+1
  -3.96012E+2  -1.14360E+2
  -1.99710E+2  -4.64962E+2
   3.45984E+2  -2.51849E+2
   4.38742E+2   1.73233E+2
  -1.02973E+2   4.23815E+2
  -2.44783E+2  -1.82184E+2
   3.00010E+1  -5.42391E+2
   6.16496E+2  -3.89170E+2
   5.85804E+2   3.11937E+2
  -3.10162E+2   6.10055E+2
  -4.57902E+2   1.05669E+2
  -4.60851E+1  -6.33679E+2
   5.10611E+2  -4.55144E+2
   2.98335E+2   1.19608E+2
  -2.04264E+2   2.71427E+2
  -1.70093E+2   2.39499E+2
  -1.09920E+2   7.44114E+1
   9.50965E+1   3.88249E+2
  -4.76713E+2   6.38114E+2
  -6.51960E+2   1.54097E+2
  -5.42406E+2  -5.14505E+2
   8.97785E+1  -7.72254E+2
   2.54603E+2  -3.87973E+2
   1.99654E+2  -1.58520E+2
   8.42025E+1  -4.53163E+1
   1.25458E+2   6.23088E+1
  -3.37316E+2   4.19156E+2
  -2.08317E+2   6.94795E+1
  -2.21441E+2  -1.52639E+1
   2.40130E+2  -4.02447E+2
   2.77439E+2  -5.26902E+1
   7.03521E+1   1.30379E+2
   1.43561E+2   3.00354E+2
  -2.31533E+2   1.75498E+2
  -2.56534E+2  -1.91449E+2
  -1.51015E+2   2.99862E+1
   1.87657E+1   1.53163E+2
   7.47844E+0  -5.03734E+1
   2.30314E+2  -1.33188E+2
   4.46758E+2  -3.10700E+2
   2.49812E+2   2.59537E+2
   9.47774E+1   3.93390E+2
  -2.91124E+2   4.44440E+1
  -2.18610E+2  -4.73605E+2
   4.84628E+1  -2.57632E+2
   3.68151E+2   3.04440E+2
   1.01109E+2   3.09674E+2
  -2.49299E+2   1.67161E+2
  -2.07669E+1   6.79757E+1
   1.82105E+2  -3.59362E+1
  -1.09163E+2  -1.23792E+1
  -1.15682E+2  -1.11538E+2
  -1.50159E+2  -1.47317E+2
  -3.88576E+1  -1.53023E+2
   1.55630E+2  -1.55237E+2
   4.95208E+1  -3.25210E+1
   5.81569E+1   1.48251E+2
   2.96383E+2   2.48711E+1
   2.45308E+2  -4.91037E+1
   1.31607E+2   1.63583E+2
   1.13767E+2   1.77612E+2
   1.05381E+1  -4.62716E+1
  -8.64526E+1   7.71289E+1
  -7.22678E+1   2.45252E+2
  -2.32155E+2   5.45509E+1
  -1.59226E+2  -1.07758E+2
  -3.03008E+1  -4.81634E+1
   1.34596E+2   2.21524E+1
   3.01287E+2   2.06074E+2
  -1.62129E+2   1.58079E+2
  -3.69946E+2   1.10878E+2
   2.51188E+1  -8.90711E+1
   3.09837E+2  -6.25627E+1
  -2.01356E+1   2.15625E+2
  -2.86098E+1   2.30584E+2
  -5.12480E+1  -3.57507E+2
   1.36487E+2   7.68192E+1
  -1.44281E+2   1.03324E+1
   1.35511E+2   8.47657E+0
  -2.16415E+1  -2.06756E+1
  -1.86450E+2   1.12867E+2
   1.43667E+2  -1.26016E+2
   2.35779E+2   1.83648E+2
   3.48747E+1   1.36095E+2
   1.15221E+0   1.00397E+2
  -1.37140E+2   2.58237E+2
  -2.52753E+2  -1.23979E+2
  -4.30426E+1  -1.44258E+2
  -1.29179E+2  -6.51358E+1
  -3.75353E+1   6.72427E+1
   5.41069E+1  -2.43355E+2
   2.99992E+2  -1.21354E+0
   2.35925E+2   1.96411E+2
   1.95349E+1   3.19648E+2
  -2.15294E+2   2.43292E+2
   6.63410E+1   1.22214E+2
   1.20482E+2   2.82923E+1
   2.42063E+1   7.67652E+1
   6.53322E+0  -1.22701E+1
   1.06033E+2   2.62398E+2
  -5.42879E+0  -9.13669E+1
   7.40761E+1   7.97104E+1
   8.43782E+0   1.13823E+2
  -5.14013E+1  -7.02186E+1
   7.65658E+1   1.07467E+2
  -1.90274E+1   3.71410E+1
   1.40304E+1   5.03626E+1
  -1.12205E+1  -2.26210E+2
   1.39265E+1  -2.97475E+1
   8.46219E+1  -2.30289E+2
  -1.52511E+1  -5.97946E+0
  -1.12819E+2  -7.87602E+0
  -3.61945E+1  -1.68279E+2
  -7.60429E+1  -2.50713E+2
   3.76916E+0  -5.32992E+1
  -2.28689E+1   2.94816E+2
  -1.38420E+2   1.86801E+2
   6.23181E+1  -1.37634E+2
  -1.88230E+1   3.82727E+1
   1.03723E+2   1.53309E+2
  -1.25600E+2   1.26398E+2
   3.20625E+1   1.18309E+2
  -1.98112E+2  -1.38458E+2
   3.76405E+1   1.38001E+2
  -3.41067E+1   1.68513E+2
  -1.65981E+2   1.23800E+2
   1.16421E+2   2.05502E+2
  -9.57518E+1  -1.84771E+2
   7.12146E+0   1.18505E+2
  -5.83359E+1   2.05760E+2
  -2.01812E+2  -6.39391E+1
   1.01392E+2  -9.01651E+0
  -1.13423E+2  -1.49742E+2
   1.40569E+2   3.09060E+1
  -1.31968E+2  -1.49757E+2
   5.69061E+1  -5.37155E+1
  -1.97082E+2   1.25634E+2
   4.90357E+1  -1.37686E+2
   1.55619E+2   1.52905E+1
  -7.97726E+1   2.99293E+1
   5.30997E+1  -1.01288E+1
  -8.91295E+1   1.46566E+2
   2.53496E+2  -6.64173E+1
  -1.15714E+0   3.47034E+1
   8.21230E+1  -1.16048E+2
   5.87920E+1   1.94330E+2
  -1.47646E+2   1.56505E+1
  -4.22479E+1   1.60546E+2
   6.70918E+1   2.38721E+2
  -2.08718E+2   6.99376E+1
   7.63429E+1  -2.20154E+1
   7.11381E+1   8.37083E+1
   2.98693E+1  -1.68656E+2
   6.53814E+1   1.75923E+1
  -3.47834E+1  -2.04588E+2
   1.19295E+2  -4.33298E+1
   1.96703E+1  -1.84998E+2
   1.43145E+1   2.15874E+1
  -4.46487E+0  -1.14352E+2
  -1.35984E+2   1.41868E+1
   3.33244E+1  -4.28355E+1
   5.87391E+1  -6.79401E+1
  -1.91602E+1  -2.78384E+2
   7.71683E+1  -2.13196E+2
  -2.92208E+2  -9.82485E+1
   2.81848E+1   1.35398E+2
  -3.43516E+1   1.01520E+2
  -2.68081E+2  -1.13691E+1
  -1.80926E+2  -2.78007E+2
  -2.36766E+1  -8.98312E+1
   6.89954E+1  -1.32256E+2
  -5.87755E+1  -3.32433E+1
   2.86834E+1   2.33134E+1
  -3.12425E+1   2.61302E+1
   1.62014E+2   7.12952E+1
   6.45316E+1  -1.47468E+1
  -2.58582E+1  -2.69338E+2
  -1.23319E+2  -4.35213E+1
  -5.25360E+1  -1.52021E+2
   1.79673E+2  -1.89921E+2
  -1.78804E+1  -6.72533E+1
  -1.54289E+2  -3.88945E+0
  -8.07147E+1  -2.18229E+2
  -1.30478E+2  -7.46938E+1
  -1.89791E+2  -1.07024E+2
  -1.96157E+2   1.19479E+2
  -1.19869E+2  -9.84245E-1
   1.15071E+2  -6.50665E+1
   1.41599E+1   1.07560E+2
  -7.84078E+1   1.28472E+2
   8.54613E+1   6.08889E+1
   2.15294E+2   2.17198E+2
   2.56256E+1  -1.40576E+2
  -5.87539E+1   8.85516E+1
   3.50252E+1  -7.30930E+1
  -1.12847E+1   4.97066E+1
  -6.43608E+0   1.23185E+2
  -2.35465E+2  -1.62119E+2
  -1.23601E+2  -1.72383E+2
  -2.09560E+2   3.73810E+0
   1.52875E+1  -2.54732E+2
  -2.27668E+1  -2.36677E+2
   7.03233E+1  -2.35391E+2
  -1.15768E+2  -2.04919E+1
  -2.67091E+2   2.01589E+2
  -7.90677E+1  -1.54759E+2
  -9.00239E+0  -1.79979E+2
   9.25956E+1  -4.96485E+1
  -8.39672E+1   2.53074E+1
  -1.61867E+2  -2.02793E+2
  -1.93323E+2   3.19381E+0
   1.07435E+2   7.06905E+1
   8.16424E+1  -1.59162E-1
  -1.34237E+2  -2.17912E+1
  -2.34622E+2   1.62202E+2
  -1.75884E+2  -1.36012E+2
  -2.44407E+1   1.73635E+2
  -1.41974E+2  -2.88940E+1
   1.99383E+1  -7.92257E+0
  -1.39571E+2  -7.63314E+1
  -6.00857E+1   3.80694E+1
   6.77786E+1   3.37357E+1
  -1.54738E+1   1.26806E+2
  -9.64426E+1  -1.05314E+2
   6.05317E+1   3.65628E+1
  -5.43470E+1   9.16848E+1
  -1.44690E+2   4.97677E+1
  -2.28125E+2   2.86258E+1
  -1.17294E+2  -2.08580E+2
  -7.33162E+1   1.23427E+1
   8.89717E+1  -1.88906E+1
  -2.09243E+2  -8.16137E+1
   5.22106E+1   1.78624E+2
  -4.98816E+1   6.46618E+1
   7.36053E+1   1.90138E+2
   1.25643E+2  -4.54653E+1
  -8.79500E+1   9.91729E+1
  -1.34934E+1  -9.60277E+1
  -4.60425E+1   1.86099E+2
   4.30662E+1  -2.52609E+2
  -5.74909E+1   2.05545E+2
   1.33379E+0   1.98490E+2
  -1.56448E+2   2.14952E+2
   1.96903E+1  -1.35020E+2
  -1.08203E+2   9.38242E+1
  -1.65098E+2   4.26514E+0
   7.69341E+1  -1.23540E+2
  -4.31778E+1  -3.61166E+1
  -1.26949E+1   3.18081E+1
  -6.89909E+1   1.42574E+2
  -3.99364E+1   8.82886E+1
  -5.00697E+1   1.94311E+2
   1.88394E+1  -3.51373E+1
  -1.10419E+2  -3.74425E+1
   2.92970E+1   6.12481E+1
   1.29687E+2  -1.05888E+2
  -1.42100E+2  -1.62537E+2
   2.99641E+1  -1.27598E+2
  -1.28120E+2   1.42965E+2
   5.33876E+1  -7.00262E+1
   4.05202E+0  -4.99960E+1
  -5.24300E+1   1.84923E+2
  -2.06725E+2   5.09620E+1
  -7.23445E+1  -6.49457E+1
  -1.88828E+2   2.15740E+2
   2.22586E+2   1.60664E+1
  -1.23920E+2  -9.06942E+0
   6.74162E+1  -2.07897E+2
   1.41981E+1  -6.67582E+1
