 
 $NMID
 ID=''
 FMTDAT='(2E13.5)'
 TRAMP=   1.00000E+0
 VOLUME=   1.00000E+0
 $END
  -1.04170E+4   5.05158E+3
  -1.14052E+4   1.99381E+4
   1.75398E+4   2.13210E+4
   2.56677E+4  -5.75802E+3
   1.41730E+3  -2.35650E+4
  -1.71385E+4  -1.14218E+4
  -1.36768E+4   9.56572E+3
   1.86490E+3   1.58966E+4
   1.61592E+4   5.38847E+3
   1.00374E+4  -8.62889E+3
  -1.01387E+4  -1.14334E+4
  -1.43773E+4  -1.07605E+3
  -1.07306E+3   9.61979E+3
   6.82009E+3   8.75103E+3
   4.71446E+3  -3.85622E+3
   1.03782E+3  -1.09942E+4
  -2.25879E+3  -2.14911E+3
  -3.76586E+3   7.39520E+3
  -2.26190E+2   4.28338E+3
   3.88288E+3  -1.90867E+3
   3.19765E+3  -3.25037E+3
  -7.95942E+2  -1.44636E+3
  -3.03799E+3   1.54294E+3
  -1.12760E+3   1.53414E+3
   2.27276E+3  -5.37713E+2
   3.07940E+3  -5.49805E+2
  -9.04751E+1   5.72905E+2
  -2.37191E+3  -7.44222E+2
  -1.06467E+2  -3.09421E+2
   1.82314E+3   2.15964E+3
   1.88613E+2   1.57508E+3
  -8.53061E+2  -1.98204E+3
  -7.20780E+1  -1.78292E+3
  -4.33802E+2   4.68275E+2
  -3.42622E+2  -6.50148E+2
   1.99062E+3  -1.62363E+3
   1.70879E+3   5.43772E+2
  -1.26009E+3   1.74841E+3
  -1.25505E+3  -1.57676E+2
   6.12655E+2  -5.28318E+2
   1.52895E+2   4.33555E+1
  -7.37179E+2  -5.67868E+2
   2.21766E+2  -1.05121E+3
   1.67712E+3  -7.57660E+1
   1.08905E+3   1.17734E+3
   5.32636E+1   1.38072E+3
  -9.83436E+2   9.30251E+2
  -1.53145E+3  -4.01528E+2
  -7.51227E+2  -1.27364E+3
   1.44055E+2  -4.98474E+2
   2.29941E+2  -4.01299E+2
   5.91605E+2  -6.68600E+2
   6.93941E+2  -2.08264E+2
   6.97858E+1   6.21258E+2
  -4.14368E+2   8.49710E+2
  -2.37178E+2   1.83370E+2
  -2.44321E+2  -1.63135E+2
  -6.09300E+2  -9.98890E+2
   6.48526E+2  -1.03950E+3
   9.76573E+2   1.06316E+2
   6.00162E+2   1.10039E+3
   5.45780E+1   1.24349E+3
  -4.47973E+2   3.63110E+2
  -1.08350E+3   3.04441E+2
  -1.76368E+3  -4.02611E+1
  -1.17843E+3  -7.02256E+2
   6.32804E+2  -1.23705E+3
   1.45730E+3  -7.86564E+2
   8.56584E+2   2.71249E+2
  -6.42519E+2   6.74174E+2
  -3.97971E+2  -2.15979E+1
   8.15828E+2   5.02167E+1
   1.08773E+3   6.06689E+2
  -2.80285E+2   5.06894E+2
  -1.10284E+3   2.08595E+2
  -3.57538E+2   2.10399E+2
   2.93454E+2   5.85821E+2
   2.80024E+2   6.39278E+2
  -3.21529E+2   2.14902E+2
  -7.64292E+2  -6.88979E+1
  -7.54325E+2  -2.77834E+2
  -5.20607E+1   2.95567E+1
   2.69087E+2   4.06459E+2
  -1.45516E+1  -1.06639E+2
  -3.38776E+2  -5.84640E+2
   2.02838E+2  -3.05806E+2
   5.23085E+2   6.69777E+2
   1.31571E+2   8.40091E+2
   1.43258E+2   2.42816E+2
   1.87553E+2   8.95922E+1
   1.83019E+2   3.13455E+2
  -3.70948E+2   9.10384E+2
  -6.89939E+2   7.74495E+2
  -8.14907E+2   3.38676E+1
  -1.86426E+2  -7.69829E+2
   3.79943E+2  -7.29621E+2
   4.79436E+2   2.29223E+1
  -1.36655E+2   6.55492E+2
  -1.14921E+1   1.17407E+2
   8.78795E+2  -4.26376E+2
   7.22107E+2   3.33901E+2
  -3.39625E+2   1.17733E+3
  -9.53913E+2   4.13485E+1
  -1.45105E+2  -8.87929E+2
   7.62671E+2  -1.77027E+2
   3.15966E+2   5.85871E+2
  -3.82495E+2   3.38770E+2
  -1.05056E+3  -4.54551E+2
  -2.97506E+2  -6.49474E+2
   9.27189E+2  -5.21034E+2
   1.12754E+3   1.45938E+2
   5.12883E+2   2.19373E+2
  -1.75015E+2   3.40324E+2
  -4.50056E+2   5.24104E+2
  -9.01560E+1   2.45570E+2
  -2.07583E+2   9.91910E+1
  -7.84065E+2   9.65842E+1
  -7.99465E+2  -7.25591E+2
   3.11711E+1  -9.20106E+2
   6.17223E+2  -4.44330E+2
   7.02148E+2   1.63990E+2
   4.54812E+2   6.27047E+2
   2.05041E+1   3.11256E+2
  -2.47073E+2   2.61028E+2
  -7.55162E+2   5.53789E+1
  -5.41999E+2  -5.26160E+1
   1.28652E+2  -3.14474E+2
   4.72996E+2  -3.66205E+2
   1.39609E+2   1.79011E+2
  -2.40837E+2   3.57264E+2
  -6.60490E+2   4.06610E+2
  -4.84452E+2   4.65718E+1
  -9.59939E+0  -4.30076E+2
   4.20110E+1  -1.80252E+2
  -1.64773E+2  -1.36818E+2
  -1.95477E+2  -9.27086E+1
   1.72013E+2  -1.32556E+2
   4.99748E+2   3.37113E+2
   1.08234E+2   6.22417E+2
  -6.02438E+2   7.39361E+1
  -7.43400E+2  -3.79383E+2
   4.98823E+1  -3.48119E+2
   4.69999E+2   4.47292E+1
   4.32200E+2   5.17017E+2
   1.45788E+1   4.02482E+2
  -4.32105E+2   2.24758E+2
  -3.91069E+2   9.38646E+1
  -4.07028E+2  -7.96812E+1
  -1.85641E+2  -2.04633E+2
  -1.95434E+1  -2.43467E+2
   2.39274E+2  -3.66902E+2
   4.83129E+2  -7.27130E+1
   5.34392E+2   3.45228E+2
   2.27028E+2   6.40708E+2
  -2.74663E+2   9.16600E+1
   6.81342E+1  -2.48216E+2
  -6.02206E+1   3.15537E+2
  -7.43922E+1   3.86902E+2
  -4.40874E+2   1.60213E+2
  -1.71850E+2  -1.09995E+2
   1.50191E+2   2.85101E+2
  -2.01048E+2   2.50807E+2
  -3.84537E+2  -9.45333E+1
  -2.31334E+2  -2.16955E+2
   1.46532E+2  -1.78942E+2
   2.12311E+2   5.16106E+1
   2.02131E+2   1.18933E+2
  -5.85034E+1   1.16767E+2
   1.40186E+2  -6.60014E+1
  -7.42632E+1  -2.54389E+2
   2.39324E+2  -9.66315E+1
  -1.10754E+2   3.87668E+2
  -3.36926E+1   1.90405E+1
  -2.03654E+2  -1.20869E+2
   1.49891E+2  -1.30340E+2
   2.08217E+2   2.52715E+2
  -3.48177E+2   1.87184E+2
  -5.48691E+2  -2.10881E+2
   1.94230E+2  -6.21655E+2
   3.33934E+2   1.39673E+2
   8.37635E+1   4.44930E+2
  -1.26469E+2   2.81733E+2
  -1.83492E+2   4.99067E+1
  -3.06359E+2  -2.61244E+2
  -1.08851E+2  -6.13512E+1
  -8.73946E+1  -6.96070E+1
  -9.51821E+0  -4.03546E+2
   3.08069E+2  -3.23576E+2
   2.82164E+2  -1.05620E+2
   3.59923E+2   3.78423E+2
  -2.54611E+2   6.39507E+2
  -6.11617E+2   4.25296E+2
  -2.88685E+2  -2.80283E+2
   1.27943E+2  -3.20504E+2
   5.93914E+1  -9.03757E+1
  -6.32373E+1  -6.11678E+1
  -4.60327E+1   3.92889E+1
   3.38170E+1   2.76310E+1
  -1.27973E+2   1.89372E+2
  -1.45111E+2   2.75423E+2
  -3.15645E+2  -1.29569E+2
  -3.34263E+2  -3.30799E+2
   2.45929E+2  -1.96078E+2
   3.25739E+2  -8.82329E+1
   4.02602E+1  -3.08116E+1
   1.46583E+2   2.06929E+2
   9.41355E+1  -6.83635E+1
  -1.46001E+2   3.71090E+1
  -1.49275E+1  -4.10653E+1
  -1.99618E+2   2.41677E+1
  -2.02279E+2  -4.02399E+2
   1.13856E+2  -2.90155E+2
   3.44026E+2   6.71215E+1
   9.43089E+0   3.60195E+2
  -7.31045E+2   6.02384E+1
  -4.90425E+2  -3.33513E+2
  -7.54128E+1  -2.94518E+2
  -3.75355E+1  -1.58037E+2
   1.24010E+2   1.64905E+1
  -2.13287E+2  -1.27620E+2
   4.44104E+0  -1.71537E+1
   3.37773E+2   2.30390E+1
  -2.37086E+1   4.14771E+2
  -6.62243E+1   7.76581E+1
  -2.72211E+1  -3.33659E+2
  -2.57802E+2  -3.03798E+2
   3.15573E+2  -7.74467E+1
   3.19334E+1   1.92693E+2
  -1.86252E+2   1.85417E+2
   7.02382E+1  -1.66535E+2
   1.15566E+1  -1.03608E+2
   1.36235E+2  -1.06570E+2
  -3.50382E+1   1.06402E+2
  -1.97582E+2  -1.96486E+2
  -1.16556E+2   4.47784E+1
  -6.61146E+1  -3.49757E+2
  -1.04909E+2   2.29713E+2
  -1.32021E+2   1.81307E+1
  -1.55421E+2  -1.91279E+2
   1.61010E+2  -1.35288E+2
   3.46235E+2  -1.00139E+2
  -8.16758E+1   4.14596E+2
   3.47541E+1  -8.36340E+1
  -1.16909E+2  -5.08101E+1
   3.20368E+1  -3.92284E+1
   1.98149E+2   1.14923E+2
   3.50344E+1  -7.24348E+1
  -2.90541E+2  -9.83856E+1
  -4.67959E+0   1.25556E+2
   1.68820E+2  -1.64648E+2
   5.19919E+1  -2.55322E+1
  -2.27950E+2   1.74886E+2
  -1.39270E+2  -2.08476E+1
  -2.55421E+2  -4.81809E+2
   9.60135E+1  -3.08888E+2
   2.35174E+2   1.83110E+2
   1.47329E+2   3.49520E+1
  -5.86675E+1   2.34280E+2
   1.40435E+1   2.09227E+2
  -5.43342E+1   2.73837E+2
  -2.67180E+2   5.76534E+1
  -3.02653E+2  -2.13865E+2
  -9.78574E+0  -3.51843E+2
   3.02169E+2  -2.78153E+2
   2.42250E+2   2.20595E+2
  -1.41482E+2   2.24757E+2
  -2.86682E+2   7.53473E+1
   1.89784E+1   2.75347E+1
   3.54049E+1  -1.33650E+2
   6.17659E+1  -8.19163E+1
  -4.48719E+1   6.59514E+1
   1.06012E+2  -3.78487E+2
   3.01769E+1   5.21633E+1
   2.42742E+2  -2.53156E+2
   1.82161E+2   4.99155E+2
  -2.36141E+2   1.59891E+2
  -1.22458E+1  -1.73310E+2
   5.49725E+1  -1.34186E+2
   1.10598E+2  -9.88811E+1
   2.41766E+1   3.55263E+2
   1.71019E+2  -2.71454E+2
  -9.39982E+1   5.05295E+1
   1.10739E+2   2.94038E+1
  -2.29925E+2   3.44528E+2
  -1.26405E+2   8.50152E+1
  -2.35850E+2  -3.01555E+2
   1.02133E+2  -4.95042E+2
   1.52961E+2  -5.38155E+1
  -1.36420E+1   1.56501E+2
  -2.47352E+0  -1.31805E+1
  -1.86053E+2  -1.19325E+2
   3.40135E+1   3.60611E+1
  -1.60517E+2  -9.75980E+0
   2.97779E+1   2.22114E+1
  -4.55716E+1  -1.95972E+2
   7.15345E+1  -2.38402E+2
   5.89068E+1  -9.51144E+1
  -8.75577E+1  -2.67571E+0
  -1.22384E+2   2.58414E+2
  -9.36774E+1  -1.17323E+2
  -1.53894E+2  -2.71271E+2
  -5.10970E+1  -1.82074E+2
   6.18171E+1  -6.42675E+1
  -2.37582E+2   6.47485E+1
  -2.30723E+2  -1.44764E+2
  -2.15325E+1  -2.79225E+2
   2.47669E+2  -2.93189E+2
   1.23963E+2   4.34983E+1
  -1.95788E+2   6.83888E+1
   1.69840E+2   6.62955E+1
   1.57008E+2  -6.00502E+0
   1.05671E+2  -3.37880E+1
  -2.10150E+2   2.01969E+2
   2.77129E+0  -3.22417E+1
  -6.61764E+1  -3.40912E+2
   1.30752E+2  -6.51739E+1
   3.12919E+0  -1.86189E+2
  -4.28067E+1   1.27305E+2
  -2.29662E+2   2.34409E+2
  -5.52593E+1  -1.36833E+2
  -1.12002E+2  -1.68730E+2
   9.69289E+1   8.95440E+1
  -3.93969E+2   1.01445E+2
   4.16427E+1   4.49375E+1
   6.41496E+1   1.11083E+2
   7.28837E+1   2.65224E+2
  -9.04464E+1   3.87979E+2
  -2.54287E+2   2.59639E+2
  -8.57828E+0  -1.45598E+2
  -1.21949E+2  -1.47854E+2
   1.22599E+2  -3.11791E+1
  -1.66014E+2  -1.72109E+2
   2.44661E+1   3.07512E+1
   1.52970E+2  -8.50386E+1
   8.69549E+1   1.03209E+2
   4.60710E+1   1.93195E+2
  -2.62736E+2   1.47015E+2
  -1.49603E+2  -2.58069E+2
   2.11035E+2  -4.13444E+2
  -1.12137E+2  -2.58865E+1
   2.43559E+2   1.70404E+2
  -1.91314E+1   5.77411E+1
  -1.61449E+2  -1.21734E+2
  -1.61365E+1   1.28060E+1
   3.78482E+1   8.95380E+1
  -2.87498E+1  -4.09769E+1
  -1.30569E+2  -3.25547E+2
   2.81146E+2  -2.29101E+2
   6.19816E+0   6.65922E+1
   1.00254E+2   2.66755E+2
  -2.12574E+2   3.40688E+1
  -5.03287E+1   8.81408E+1
   1.41918E+1  -1.15178E+2
  -1.05485E+2  -2.80667E+2
   1.91385E+2   5.12247E-1
   1.47497E+2  -2.17551E+2
   4.37471E+1  -8.21775E+0
   4.69766E+1  -2.38808E+2
   4.89175E+1   2.48195E+2
   1.92202E+1   2.32642E+2
  -2.01645E+2   1.25944E+2
   6.77383E+1  -1.25968E+2
   2.84434E+2  -3.98870E+1
  -1.45074E+2  -1.31425E+2
  -4.81328E+1   1.91109E+2
  -2.01501E+2   6.42869E+1
   9.99882E+1  -9.85706E+1
