 
 $NMID
 ID=''
 FMTDAT='(2E13.5)'
 TRAMP=   1.00000E+0
 VOLUME=   1.00000E+0
 $END
  -7.04419E+2   8.03119E+3
   7.62950E+3  -1.64107E+3
  -5.17076E+3  -7.28910E+3
  -6.74878E+1   4.86497E+3
   5.41808E+3   1.77689E+3
  -4.44804E+3  -4.30543E+3
  -1.58278E+3   7.61949E+2
   5.80929E+3  -1.67171E+3
   4.55342E+1  -2.88994E+3
  -1.46122E+3   5.10476E+3
   1.22507E+3   3.39989E+3
  -2.79012E+3  -2.92708E+3
   3.93092E+1   7.66595E+2
   3.19036E+3   3.17059E+3
  -2.76503E+3  -1.10710E+3
  -2.28165E+3  -2.51578E+3
   3.17372E+3  -8.42181E+2
   5.65403E+2   9.04144E+2
  -1.42338E+3   4.30504E+2
   1.66134E+3  -8.07706E+2
  -4.20852E+2  -1.57971E+1
  -1.45532E+3  -1.11420E+2
   1.89088E+3  -1.50812E+3
   1.00289E+3   7.85344E+2
  -2.51510E+3   1.16441E+3
  -6.10645E+2  -2.46005E+3
   2.88713E+3  -7.65099E+2
   6.53526E+2   3.50873E+3
  -2.40604E+3   9.27497E+2
  -3.37250E+2  -1.74040E+3
   2.37654E+3   7.68357E+2
  -3.04168E+2   1.89258E+3
  -1.52114E+3   3.47662E+2
  -4.01671E+1  -2.39451E+2
  -5.22009E+2  -2.50156E+2
  -9.54215E+2  -1.70413E+3
   1.42739E+3  -1.29886E+3
   1.69789E+3   6.04393E+2
  -4.09270E+2   1.65758E+3
  -5.01810E+2   4.16631E+2
   1.93819E+2   1.70883E+2
  -6.36107E+2   5.82997E+2
  -1.28007E+3  -7.56467E+2
  -6.88853E+2  -1.59226E+3
   6.91548E+2  -1.29639E+3
   2.01547E+3  -2.84291E+1
   1.25872E+3   1.39207E+3
  -7.84718E+2   1.75969E+3
  -1.36453E+3   5.77548E+2
  -1.08296E+3   1.41111E+2
  -8.60397E+2  -5.19922E+1
  -4.47169E+2  -7.88917E+2
   5.11232E+2  -7.62839E+2
   8.16607E+2   2.61577E+2
   1.26682E+2  -2.24456E+2
   3.23146E+2  -1.20549E+2
   2.84928E+2   9.39194E+2
  -8.53064E+2   1.08311E+3
  -1.41154E+3  -1.18010E+3
   3.45761E+2  -1.47254E+3
   9.61645E+2  -2.84625E+2
   2.05136E+2   7.48384E+1
   9.17920E+2  -2.40175E+2
   1.05989E+3   6.59786E+2
   2.54923E+1   1.47768E+3
  -1.31960E+3   1.15927E+3
  -9.55371E+2  -2.55600E+2
  -9.73164E+2  -7.06700E+2
  -2.48493E+2  -8.62081E+2
   3.59706E+2  -4.80958E+2
   4.50698E+2   6.56038E+0
  -1.97696E+2  -1.11663E+2
  -2.33195E+2  -3.94838E+2
   7.31645E+2  -6.43399E+2
   5.05957E+2   1.02541E+2
  -3.87419E+2   4.67856E+2
  -4.22736E+2  -1.44130E+2
   3.26264E+2  -3.08739E+2
   8.68843E+2  -2.42233E+2
   4.53021E+2   7.45301E+2
  -5.32209E+2   4.79597E+2
  -4.08188E+2  -2.95296E+2
  -1.62539E+2  -1.00967E+2
  -6.90748E+1   4.12256E+2
  -2.01183E+2   2.36139E+2
  -3.91383E+2  -4.76882E+2
  -2.37201E+2  -5.54801E+2
   2.23639E+2  -8.90203E+1
   4.28216E+2  -1.10741E+2
   1.93277E+2  -2.05805E+2
   1.14056E+2  -1.31138E+2
   1.04089E+2  -4.07191E+2
   5.07826E+2   2.46345E+2
   4.93696E+2   8.50496E+2
  -3.37990E+2   7.81944E+2
  -9.85288E+2  -5.80844E+1
  -2.98831E+2  -5.51610E+2
   2.02556E+2  -2.34272E+1
   4.65035E+1   3.00248E+2
  -4.48955E+2  -1.27153E+2
  -2.51813E+1  -6.25592E+2
   5.48174E+2  -1.40416E+2
   1.90599E+2   4.46661E+2
  -2.35789E+2   3.19164E+2
  -4.06073E+2  -1.76653E+2
   1.32507E+2  -4.19783E+2
   5.09342E+2  -3.52328E+2
   3.15986E+2   6.14113E+2
  -1.42183E+2   6.09301E+2
  -7.30361E+2   3.04510E+2
  -5.10902E+2  -8.05255E+2
   3.10008E+2  -6.86996E+2
   5.43097E+2  -1.67369E+2
   1.72589E+2  -1.14326E+1
   4.10910E+1  -2.56160E+2
   4.69272E+2  -2.27563E+2
   5.46208E+2   5.28173E+2
  -4.60177E+1   4.00661E+2
  -4.04022E+2   4.86431E+2
  -5.27963E+2  -1.17318E+1
  -2.67560E+2  -3.86265E+2
   1.07459E+2  -3.91693E+2
   1.45965E+2  -3.71449E+2
   8.23099E+1  -2.56674E+2
   5.02775E+2   1.25897E+2
   3.81439E+2   1.75438E+2
  -2.99884E+2   1.67674E+2
  -2.70866E+2  -8.54334E+1
  -1.13719E+2  -2.85942E+2
   1.28158E+2  -7.33885E+2
   3.81665E+2  -2.30576E+2
   3.35225E+2   5.86187E+2
  -1.30604E+2   3.78530E+2
  -3.86905E+2  -1.78883E+2
   9.71915E+0  -5.56986E+1
   2.51419E+2   2.20820E+2
  -1.71418E+2  -2.61312E+1
  -2.86679E+2  -4.61798E+2
   2.49816E+1  -2.80724E+2
   2.36001E+2   1.60725E+1
   3.48028E+2   3.26999E+2
   1.16986E+1   2.49904E+2
  -2.94659E+2  -1.50846E+2
   1.71095E+1  -3.34025E+2
   1.19081E+1  -4.07810E+2
   3.17783E+2   7.51730E+1
   1.79022E+2  -5.19139E+1
   7.05577E+1   1.78584E+1
  -4.05763E+1   5.90175E+1
  -8.38208E+1   2.72038E+2
  -2.85208E+1   1.85280E+2
  -2.44248E+2  -5.83563E+1
   3.68845E+1  -3.31769E+2
  -2.73107E+2  -8.63297E+1
   6.20877E+1  -1.23285E+2
  -8.96333E+1   1.37030E+2
   1.16730E+1   1.69236E+2
   1.69447E+2  -1.78992E+2
  -5.14183E+1  -2.96729E+1
  -8.37976E+0   1.53574E+2
   1.45120E+2   3.70699E+2
  -4.61437E+1   8.03013E+1
   5.82500E+1   1.25720E+2
   4.40942E+1   1.81232E+2
  -1.63084E+2   5.99830E+1
  -2.45016E+2   8.36338E+1
  -1.69936E+2  -1.38025E+2
   1.45440E+2  -1.15913E+2
   1.05933E+2   9.00164E+1
  -1.13621E+2   1.38820E+2
  -3.66730E+1  -2.27602E+2
   1.65746E+2  -1.87935E+2
   7.95806E+1  -2.19660E+2
   1.00761E+2  -2.38103E+2
  -7.26214E+1  -2.91560E+1
   2.49232E+1  -1.51611E+2
   2.37298E+1   5.45963E+1
   1.98490E+2   6.50430E+1
   5.98905E+1   2.73788E+2
  -1.76914E+2   3.26170E+1
   1.17956E+1  -1.32216E+2
   1.89297E+2  -1.32114E+2
   3.57604E+2  -1.79917E+2
   1.04161E+2   4.87654E+1
   9.15948E+1   2.43121E+2
  -1.29163E+2   3.32622E+2
   6.07979E+0  -8.46727E+1
  -2.91262E+1   2.31916E+1
  -1.54044E+2  -1.14387E+1
   6.95494E+1  -3.67666E+2
   2.58091E+2  -5.03917E+1
   1.50827E+2  -5.42170E+1
  -1.48626E+0   1.16518E+2
  -2.20964E+1   9.28952E+1
  -5.86294E+1   1.15292E+2
  -4.03719E+1   6.86436E+1
  -7.10066E+1  -9.22272E+1
  -1.00506E+2  -5.33310E+1
  -1.62018E+2   2.58346E+1
  -1.45915E+2   6.33851E+1
   1.32063E+2   2.00959E+2
   1.51977E+2   1.00407E+2
  -8.13226E+1   1.54278E+1
   2.49733E+1   1.37857E+2
  -1.83395E+2  -2.58923E+1
  -3.70578E+1   2.08997E+1
   7.05608E+0   1.87674E+1
   6.59989E+1   3.95048E+1
  -1.35514E+2   3.54136E+2
  -3.67125E+1  -1.34615E+2
   8.80371E+1  -1.07417E+0
   5.85972E+1   2.84549E+2
   1.58071E+1  -2.01875E+2
  -1.57718E+2  -1.85722E+2
   3.77746E+0  -4.64074E+0
  -8.03667E+1   7.69913E+1
   4.16509E+1   1.62049E+1
   1.97484E+1   2.84559E+1
   1.50017E+2   3.55444E+1
   1.07816E+2  -5.10776E+1
   5.43637E+1   1.82552E+2
  -1.12950E+2   3.25350E+2
   1.64439E+2   1.14144E+2
  -3.80179E+1  -8.76159E+1
  -3.80911E+1   1.48014E+2
  -2.37654E+2   2.12008E+1
  -3.02159E+0   1.07585E+2
   2.31987E+0   4.58893E+0
   2.80664E+2   3.24322E+2
   5.70185E+1  -1.77862E+1
  -6.38170E+1   2.95849E+2
  -6.16839E+1   6.21880E+1
  -7.05703E+1   4.96566E+1
  -3.66030E+1  -6.32815E+1
   4.30101E+1   2.76442E+2
  -3.84088E+1   1.03867E+2
   3.10964E+2   1.56747E+2
   8.71044E+1   8.35848E+1
  -1.44212E+2   2.68873E+1
  -2.57021E+2   1.43399E+2
  -1.91885E+1  -1.43899E+2
   1.67129E+2   5.83407E+1
  -2.10561E+2   2.63481E+2
  -8.80539E+1   1.41180E+2
   1.08718E+2  -8.56551E+1
  -4.66953E+1  -3.71828E+1
  -4.73981E+1  -8.76175E+1
   7.54160E+1   5.20318E+1
  -3.14468E+1   5.79674E+1
  -4.13288E+0   6.81294E+1
  -1.53720E+1  -1.27091E+2
   1.50475E+2  -6.57967E+1
  -2.20004E+2  -5.08752E+1
   5.61358E+1   2.10208E+2
  -1.19429E+2   4.07016E+1
   4.71795E+1  -9.16724E+1
   2.99141E+2  -5.35900E+1
   1.82698E+2   1.65438E+2
  -9.24776E+1   6.42656E+1
  -2.48210E+2  -1.27790E+2
  -3.29217E+1  -2.03951E+2
  -8.52359E+1  -1.87867E+1
  -4.47647E+1   6.64524E+0
  -4.63323E+1  -1.60560E+2
   2.01856E+2  -3.98529E+1
   1.94330E+2  -1.00704E+2
   4.12714E+1   6.29191E+1
  -8.14805E+1   1.71607E+2
  -1.36825E+1  -4.91821E+1
  -3.83040E+1   3.49041E+2
   8.72327E+1   1.57880E+2
  -1.36887E+2   1.73184E+2
   1.47858E+2   3.76322E+1
  -5.41230E+1  -1.67682E+2
  -8.30168E+1  -5.11566E+1
   3.21857E+1   1.38947E+2
   9.54037E+0   6.88406E+1
  -2.52613E+1  -2.28105E+1
   8.05830E+1  -1.40490E+2
   1.98679E+1   2.60456E+1
  -1.14558E+1  -1.09086E+2
  -5.86886E+1   3.61628E+1
   3.81867E+0   2.80598E+1
   8.33733E+1  -3.48235E+1
   5.22163E+1   7.22381E+1
  -5.13459E+1   9.52859E+1
   1.38327E+2  -7.25795E+1
  -2.14249E+1   2.97067E+1
   3.70217E+1  -1.13544E+2
   1.13379E+2   5.26256E+1
  -2.44960E+2   6.42476E+1
   1.41062E+2   1.12250E+2
  -7.51733E+1   7.83943E+1
  -6.59751E+1   1.43094E+2
  -1.75122E+2  -1.11828E+2
   2.23091E+2  -2.61312E+0
  -1.32431E+2   4.94466E+1
   1.86580E+1   7.31981E+1
   7.23508E+1   3.58233E+1
   3.17212E+1   1.41986E+0
   3.74726E+1  -1.02096E+2
  -7.54335E+1  -2.03500E+2
  -2.26581E+1  -2.96565E+1
   1.34288E+2  -4.31510E+1
  -1.77357E+2   7.13873E+1
   4.71996E+1   4.00762E+2
  -2.86487E+1   2.83937E+1
   8.24822E+1   5.24619E+1
   1.78934E+2   1.47114E+2
   2.23020E+2   2.41673E+2
   1.04035E+2  -2.64679E+1
   9.87097E+1  -4.85093E+0
  -2.03857E+2  -2.89718E+2
   3.23225E+1   1.71940E+2
  -1.19470E+1  -2.79591E+1
   1.94807E+2   1.52204E+2
   1.27692E+2   6.18893E+1
  -8.34284E+1   1.06578E+2
   3.30451E+1   1.75231E+1
  -1.25669E+2  -8.70296E+1
  -2.09731E+2  -1.24656E+2
  -2.37120E+2  -1.09108E+2
   9.33769E+1   2.18232E+2
   1.08023E+2   9.27491E+1
   1.09216E+2   4.14146E+0
   1.01477E+2   1.96379E+2
   1.70928E+2   1.53003E+2
   1.59062E+2   8.37089E+0
  -8.34760E+1   8.46657E+1
   1.04811E+2   2.02378E+2
  -6.91136E+1   1.88903E+2
   1.20696E+2   3.05644E+1
   5.59224E+1   4.25403E+1
   1.04425E+2   2.22610E+2
  -7.17525E+1  -1.27330E+2
  -5.78631E+0  -6.70221E+1
   5.42533E+1   2.71990E+1
   9.44635E+1   6.17958E+1
   4.07292E+1   3.37921E+1
   5.81185E+1   1.99595E+2
   1.73405E+2   6.80326E+1
   1.30763E+2  -3.84505E+1
  -1.55706E+2   1.09622E+2
  -7.90005E+1  -5.54961E+1
  -5.95260E+1   3.05022E+1
   7.70385E+1  -1.38964E+2
  -3.62731E+2  -1.25014E+2
  -6.04997E+1  -2.09066E+1
   9.33648E+0  -4.63677E+1
   2.84851E+2  -3.01482E+1
   3.31115E+2   6.61836E+0
   1.66853E+2   1.15209E+2
   1.36765E+2  -9.70271E+1
  -1.61946E+2   3.16001E+1
  -3.47723E+2   2.74829E+2
  -2.59928E+1  -4.57698E+1
  -1.77264E+2   1.54125E+2
  -1.71310E+1  -1.08971E+2
   2.41831E+2  -2.12023E+1
   9.15960E+1   1.53401E+2
  -4.77814E+1  -2.08148E+1
  -4.27736E+1  -1.33653E+2
   6.60880E+1  -9.77010E+1
   1.34795E+2  -3.36115E+0
   7.53923E+1  -1.24458E+2
   4.17845E+2   1.03127E+2
  -7.31023E+1   1.31609E+2
