 
 $NMID
 ID=''
 FMTDAT='(2E13.5)'
 TRAMP=   1.00000E+0
 VOLUME=   1.00000E+0
 $END
   5.55977E+4   7.46886E+5
  -6.06815E+5   1.86182E+6
  -4.23533E+5   1.85555E+6
  -4.90721E+5   1.74139E+6
  -5.07964E+5   1.81170E+6
  -4.03736E+5   1.79320E+6
  -4.08859E+5   1.74590E+6
  -4.26502E+5   1.78229E+6
  -3.95334E+5   1.75315E+6
  -4.27191E+5   1.71008E+6
  -4.39681E+5   1.72094E+6
  -4.23853E+5   1.68892E+6
  -4.52162E+5   1.65712E+6
  -4.67382E+5   1.65790E+6
  -4.67331E+5   1.62081E+6
  -4.92097E+5   1.59116E+6
  -4.95700E+5   1.59297E+6
  -4.84347E+5   1.56703E+6
  -4.91491E+5   1.54457E+6
  -4.78006E+5   1.54494E+6
  -4.66343E+5   1.52080E+6
  -4.74585E+5   1.49964E+6
  -4.69295E+5   1.49284E+6
  -4.64134E+5   1.46904E+6
  -4.75225E+5   1.44544E+6
  -4.68761E+5   1.43170E+6
  -4.72985E+5   1.40770E+6
  -4.91943E+5   1.38431E+6
  -4.97107E+5   1.36172E+6
  -4.93571E+5   1.33658E+6
  -4.98881E+5   1.32118E+6
  -4.94410E+5   1.30550E+6
  -4.89221E+5   1.28097E+6
  -4.86061E+5   1.26461E+6
  -4.74460E+5   1.25050E+6
  -4.62071E+5   1.23382E+6
  -4.54957E+5   1.22153E+6
  -4.46995E+5   1.20725E+6
  -4.42102E+5   1.18510E+6
  -4.40868E+5   1.16787E+6
  -4.38041E+5   1.14897E+6
  -4.36002E+5   1.12651E+6
  -4.34060E+5   1.10655E+6
  -4.32044E+5   1.08754E+6
  -4.31686E+5   1.06562E+6
  -4.31284E+5   1.04707E+6
  -4.28568E+5   1.02862E+6
  -4.26022E+5   1.00833E+6
  -4.20140E+5   9.88468E+5
  -4.12441E+5   9.71930E+5
  -4.06247E+5   9.55981E+5
  -4.00564E+5   9.39678E+5
  -3.93736E+5   9.22576E+5
  -3.88219E+5   9.06185E+5
  -3.83763E+5   8.89119E+5
  -3.79151E+5   8.70863E+5
  -3.75668E+5   8.51836E+5
  -3.71789E+5   8.33398E+5
  -3.66788E+5   8.14428E+5
  -3.62151E+5   7.96848E+5
  -3.58338E+5   7.79926E+5
  -3.53830E+5   7.62532E+5
  -3.49454E+5   7.45659E+5
  -3.44964E+5   7.28715E+5
  -3.38927E+5   7.11412E+5
  -3.32471E+5   6.95025E+5
  -3.26306E+5   6.78983E+5
  -3.20688E+5   6.62840E+5
  -3.15246E+5   6.48015E+5
  -3.11084E+5   6.32993E+5
  -3.07120E+5   6.16468E+5
  -3.01884E+5   6.00149E+5
  -2.96233E+5   5.84945E+5
  -2.92607E+5   5.70292E+5
  -2.88739E+5   5.54834E+5
  -2.83824E+5   5.39694E+5
  -2.78166E+5   5.25544E+5
  -2.74006E+5   5.11678E+5
  -2.69499E+5   4.97643E+5
  -2.64448E+5   4.83939E+5
  -2.59650E+5   4.70819E+5
  -2.54852E+5   4.57578E+5
  -2.50492E+5   4.44586E+5
  -2.45930E+5   4.31435E+5
  -2.42188E+5   4.18202E+5
  -2.38410E+5   4.05116E+5
  -2.34077E+5   3.92766E+5
  -2.29796E+5   3.80284E+5
  -2.25998E+5   3.67872E+5
  -2.21756E+5   3.56164E+5
  -2.16804E+5   3.44803E+5
  -2.12056E+5   3.34393E+5
  -2.07908E+5   3.23738E+5
  -2.03447E+5   3.13322E+5
  -1.98921E+5   3.03461E+5
  -1.93981E+5   2.93793E+5
  -1.89662E+5   2.85384E+5
  -1.85624E+5   2.76575E+5
  -1.81451E+5   2.67717E+5
  -1.77289E+5   2.58850E+5
  -1.73062E+5   2.50543E+5
  -1.69936E+5   2.42057E+5
  -1.66104E+5   2.33582E+5
  -1.61600E+5   2.25154E+5
  -1.57400E+5   2.17035E+5
  -1.53530E+5   2.10014E+5
  -1.49845E+5   2.02734E+5
  -1.46126E+5   1.96071E+5
  -1.42240E+5   1.89026E+5
  -1.38339E+5   1.82514E+5
  -1.34040E+5   1.76150E+5
  -1.30608E+5   1.70788E+5
  -1.27284E+5   1.64942E+5
  -1.23865E+5   1.58687E+5
  -1.20099E+5   1.53183E+5
  -1.16686E+5   1.47891E+5
  -1.13214E+5   1.42699E+5
  -1.10090E+5   1.37081E+5
  -1.06213E+5   1.32179E+5
  -1.02620E+5   1.27461E+5
  -9.91824E+4   1.23182E+5
  -9.60012E+4   1.18873E+5
  -9.25143E+4   1.14474E+5
  -8.92865E+4   1.10671E+5
  -8.61468E+4   1.06717E+5
  -8.30128E+4   1.02673E+5
  -7.96381E+4   9.88368E+4
  -7.64756E+4   9.54056E+4
  -7.36635E+4   9.20411E+4
  -7.05529E+4   8.85876E+4
  -6.77130E+4   8.51066E+4
  -6.48442E+4   8.18346E+4
  -6.21374E+4   7.86910E+4
  -5.91582E+4   7.58244E+4
  -5.62970E+4   7.31822E+4
  -5.39783E+4   7.05104E+4
  -5.10860E+4   6.78233E+4
  -4.83702E+4   6.56216E+4
  -4.58659E+4   6.31926E+4
  -4.35092E+4   6.12371E+4
  -4.12071E+4   5.87677E+4
  -3.86994E+4   5.67623E+4
  -3.62257E+4   5.45843E+4
  -3.36036E+4   5.28133E+4
  -3.15811E+4   5.07492E+4
  -2.91747E+4   4.89976E+4
  -2.71620E+4   4.69154E+4
  -2.49053E+4   4.58063E+4
  -2.27991E+4   4.37244E+4
  -2.06510E+4   4.22963E+4
  -1.84925E+4   4.09220E+4
  -1.66031E+4   3.94628E+4
  -1.47477E+4   3.84826E+4
  -1.28438E+4   3.70756E+4
  -1.10636E+4   3.59678E+4
  -9.37231E+3   3.45078E+4
  -7.43896E+3   3.36088E+4
  -5.77172E+3   3.25925E+4
  -4.28319E+3   3.18260E+4
  -2.97108E+3   3.07063E+4
  -1.08920E+3   3.01105E+4
   3.78518E+2   2.90704E+4
   1.44511E+3   2.81797E+4
   3.18805E+3   2.73775E+4
   4.63009E+3   2.67344E+4
   5.60260E+3   2.59426E+4
   6.88069E+3   2.55254E+4
   8.17817E+3   2.49078E+4
   9.07664E+3   2.42688E+4
   1.05401E+4   2.40557E+4
   1.17178E+4   2.33865E+4
   1.25575E+4   2.30763E+4
   1.35332E+4   2.25857E+4
   1.44072E+4   2.23602E+4
   1.51154E+4   2.18139E+4
   1.62322E+4   2.17321E+4
   1.70214E+4   2.17138E+4
   1.76849E+4   2.13965E+4
   1.85131E+4   2.07517E+4
   1.92604E+4   2.12957E+4
   2.00458E+4   2.11697E+4
   2.06255E+4   2.11775E+4
   2.13068E+4   2.11304E+4
   2.19375E+4   2.11948E+4
   2.24550E+4   2.11961E+4
   2.29983E+4   2.13600E+4
   2.34894E+4   2.14988E+4
   2.41334E+4   2.17507E+4
   2.46941E+4   2.18969E+4
   2.52452E+4   2.20822E+4
   2.59486E+4   2.26579E+4
   2.62797E+4   2.27079E+4
   2.65839E+4   2.29850E+4
   2.71371E+4   2.30889E+4
   2.76265E+4   2.34631E+4
   2.79907E+4   2.38595E+4
   2.84810E+4   2.43611E+4
   2.86915E+4   2.48101E+4
   2.92691E+4   2.50837E+4
   2.92319E+4   2.56710E+4
   2.95583E+4   2.58941E+4
   3.00509E+4   2.64288E+4
   3.03156E+4   2.66473E+4
   3.04946E+4   2.72157E+4
   3.05761E+4   2.75949E+4
   3.08844E+4   2.79833E+4
   3.08912E+4   2.84353E+4
   3.11774E+4   2.87451E+4
   3.10149E+4   2.92758E+4
   3.15064E+4   2.97110E+4
   3.13898E+4   3.01780E+4
   3.15568E+4   3.08080E+4
   3.15921E+4   3.14356E+4
   3.18706E+4   3.17562E+4
   3.17138E+4   3.20391E+4
   3.18788E+4   3.25885E+4
   3.17093E+4   3.30235E+4
   3.18680E+4   3.33564E+4
   3.18712E+4   3.38296E+4
   3.18383E+4   3.42335E+4
   3.19160E+4   3.44971E+4
   3.17001E+4   3.51298E+4
   3.17764E+4   3.54852E+4
   3.17036E+4   3.60221E+4
   3.13187E+4   3.61329E+4
   3.12447E+4   3.63539E+4
   3.14007E+4   3.69869E+4
   3.09411E+4   3.73852E+4
   3.09301E+4   3.74544E+4
   3.03655E+4   3.79820E+4
   3.02901E+4   3.82681E+4
   3.00516E+4   3.85505E+4
   2.99299E+4   3.86542E+4
   2.92999E+4   3.91334E+4
   2.90996E+4   3.91353E+4
   2.90793E+4   3.93500E+4
   2.83241E+4   3.97677E+4
   2.81153E+4   3.99280E+4
   2.79928E+4   4.01667E+4
   2.76220E+4   4.00850E+4
   2.71193E+4   4.04584E+4
   2.67007E+4   4.08225E+4
   2.62504E+4   4.07109E+4
   2.58785E+4   4.10357E+4
   2.52808E+4   4.12085E+4
   2.49473E+4   4.14813E+4
   2.47473E+4   4.15001E+4
   2.42624E+4   4.15631E+4
   2.37054E+4   4.17178E+4
   2.34497E+4   4.17792E+4
   2.31102E+4   4.17103E+4
   2.26018E+4   4.19934E+4
   2.20793E+4   4.21787E+4
   2.15701E+4   4.22894E+4
   2.12014E+4   4.20109E+4
   2.10048E+4   4.22133E+4
   2.04533E+4   4.24113E+4
   2.00326E+4   4.22303E+4
   1.91772E+4   4.26276E+4
   1.87093E+4   4.24681E+4
   1.82452E+4   4.24020E+4
   1.77600E+4   4.23521E+4
   1.73427E+4   4.22984E+4
   1.68720E+4   4.21136E+4
   1.62534E+4   4.24183E+4
   1.60766E+4   4.25182E+4
   1.51708E+4   4.25699E+4
   1.47418E+4   4.23366E+4
   1.41504E+4   4.20191E+4
   1.41030E+4   4.21943E+4
   1.33786E+4   4.20030E+4
   1.27238E+4   4.19799E+4
   1.25486E+4   4.16977E+4
   1.21907E+4   4.17224E+4
   1.13771E+4   4.14709E+4
   1.08341E+4   4.15409E+4
   1.03847E+4   4.13025E+4
   1.01659E+4   4.09117E+4
   9.72718E+3   4.08577E+4
   9.17855E+3   4.05990E+4
   8.87451E+3   4.07861E+4
   8.53911E+3   4.04364E+4
   8.00504E+3   4.00225E+4
   7.64476E+3   3.97084E+4
   6.71009E+3   3.96464E+4
   6.34094E+3   3.94791E+4
   6.16012E+3   3.88845E+4
   5.78997E+3   3.88153E+4
   5.61634E+3   3.87011E+4
   4.96408E+3   3.82876E+4
   4.62343E+3   3.78208E+4
   4.42956E+3   3.77170E+4
   4.05537E+3   3.73291E+4
   3.76675E+3   3.70821E+4
   3.29950E+3   3.66085E+4
   2.74026E+3   3.65171E+4
   2.48563E+3   3.62182E+4
   1.99966E+3   3.57845E+4
   1.53762E+3   3.52719E+4
   1.49649E+3   3.48863E+4
   8.88652E+2   3.43973E+4
   6.67717E+2   3.40421E+4
   3.89023E+2   3.37653E+4
  -1.26268E+2   3.31905E+4
  -3.62275E+2   3.27240E+4
  -4.97597E+2   3.26443E+4
  -1.02552E+3   3.19528E+4
  -9.72932E+2   3.14990E+4
  -1.61867E+3   3.11713E+4
  -2.04404E+3   3.05303E+4
  -2.42286E+3   3.03414E+4
  -2.81721E+3   2.98380E+4
  -3.09970E+3   2.92620E+4
  -3.30285E+3   2.87892E+4
  -3.44173E+3   2.81303E+4
  -3.63824E+3   2.78656E+4
  -4.14615E+3   2.76194E+4
  -4.66071E+3   2.67265E+4
  -4.61917E+3   2.64908E+4
  -4.90312E+3   2.60395E+4
  -5.06480E+3   2.54185E+4
  -5.55356E+3   2.52436E+4
  -5.70132E+3   2.44408E+4
  -6.07164E+3   2.39312E+4
  -6.29129E+3   2.32414E+4
  -6.42350E+3   2.30990E+4
  -6.68970E+3   2.23821E+4
  -7.27196E+3   2.20154E+4
  -7.47683E+3   2.16273E+4
  -7.73047E+3   2.09597E+4
  -7.71168E+3   2.05327E+4
  -8.07732E+3   2.00646E+4
  -8.24836E+3   1.94808E+4
  -8.47390E+3   1.90563E+4
  -8.93825E+3   1.85149E+4
  -8.97722E+3   1.82051E+4
  -9.33115E+3   1.76860E+4
  -9.36739E+3   1.70594E+4
  -9.69357E+3   1.65774E+4
  -9.96682E+3   1.62011E+4
  -1.00011E+4   1.56659E+4
  -1.01222E+4   1.53010E+4
  -1.04770E+4   1.47087E+4
  -1.05623E+4   1.41114E+4
  -1.07292E+4   1.37536E+4
  -1.08385E+4   1.32156E+4
  -1.10527E+4   1.28491E+4
  -1.10674E+4   1.24029E+4
  -1.15273E+4   1.19567E+4
  -1.13598E+4   1.15007E+4
  -1.19023E+4   1.10793E+4
  -1.16245E+4   1.06509E+4
  -1.18979E+4   1.00799E+4
  -1.18683E+4   9.72899E+3
  -1.18219E+4   9.62573E+3
  -1.19950E+4   8.81416E+3
  -1.19461E+4   8.70411E+3
  -1.21081E+4   8.02759E+3
  -1.21651E+4   7.81297E+3
  -1.25074E+4   7.19864E+3
  -1.23511E+4   6.95225E+3
  -1.22571E+4   6.66209E+3
  -1.23864E+4   6.32750E+3
  -1.23067E+4   5.99642E+3
  -1.23669E+4   5.43318E+3
  -1.22981E+4   5.27320E+3
  -1.23663E+4   4.62986E+3
