 LCModel (Version 6.3-1N) Copyright: S.W. Provencher.          Ref.: Magn. Reson. Med. 30:672-679 (1993).                
 Slice_N1@20_15  28-Feb-2025 11:42:40
 27 lines in following concentration table = NCONC+1
    Conc.  %SD /Cr+PCr  Metabolite                                         
 2.73E-04   4% 2.5E-04 Mac                                                 
    3.167  48%   2.944 Cr                                                  
    5.438  28%   5.056 PCr                                                 
    5.909  15%   5.494 Ins                                                 
    9.204   9%   8.557 NAA                                                 
    4.473  20%   4.158 Tau                                                 
    2.440  10%   2.268 PCho                                                
    0.000 999%   0.000 GPC                                                 
    7.300  14%   6.786 Glu                                                 
    3.315  25%   3.082 Gln                                                 
    0.000 999%   0.000 Ala                                                 
    2.377  51%   2.209 Asc                                                 
    2.646  39%   2.460 Asp                                                 
    1.001  54%   0.930 GABA                                                
    0.703 101%   0.654 Glc                                                 
    1.239  40%   1.152 GSH                                                 
    2.004  34%   1.863 Lac                                                 
    2.926  22%   2.720 NAAG                                                
    0.000 999%   0.000 PE                                                  
    2.440  10%   2.268 GPC+PCho                                            
   12.130   7%  11.277 NAA+NAAG                                            
   10.615  12%   9.868 Glu+Gln                                             
    8.605   8%   8.000 Cr+PCr                                              
   12.130   7%  11.277 NAA+NAAG                                            
    8.605   8%   8.000 Cr+PCr                                              
   10.615  12%   9.868 Glu+Gln                                             
   6 lines in following misc. output table
  FWHM = 0.033 ppm    S/N =   3                                            
  Data shift = 0.008 ppm                                                   
  Ph:-112 deg       0.0 deg/ppm                                            
  alphaB,S = 1.7E-01,   4.0E-01                                            
   19 spline knots.   Ns = 5(1)                                            
   2 inflections.     1 extrema                                            
  480 points on ppm-axis = NY
      4.100000     4.091866     4.083733     4.075600     4.067466     4.059333     4.051199     4.043066     4.034933     4.026799
      4.018666     4.010532     4.002399     3.994265     3.986132     3.977998     3.969864     3.961731     3.953597     3.945463
      3.937330     3.929196     3.921062     3.912929     3.904795     3.896662     3.888528     3.880394     3.872261     3.864127
      3.855993     3.847860     3.839726     3.831592     3.823459     3.815325     3.807191     3.799058     3.790924     3.782790
      3.774657     3.766523     3.758389     3.750256     3.742122     3.733989     3.725855     3.717721     3.709588     3.701454
      3.693320     3.685187     3.677053     3.668919     3.660786     3.652652     3.644518     3.636385     3.628251     3.620117
      3.611984     3.603850     3.595716     3.587583     3.579449     3.571316     3.563182     3.555048     3.546915     3.538781
      3.530647     3.522514     3.514380     3.506246     3.498113     3.489979     3.481845     3.473712     3.465578     3.457444
      3.449311     3.441177     3.433043     3.424910     3.416776     3.408643     3.400509     3.392375     3.384242     3.376108
      3.367974     3.359841     3.351707     3.343573     3.335440     3.327306     3.319172     3.311039     3.302905     3.294771
      3.286638     3.278504     3.270370     3.262237     3.254103     3.245970     3.237836     3.229702     3.221569     3.213435
      3.205301     3.197168     3.189034     3.180900     3.172767     3.164633     3.156499     3.148366     3.140232     3.132098
      3.123965     3.115831     3.107697     3.099564     3.091430     3.083297     3.075163     3.067029     3.058896     3.050762
      3.042628     3.034495     3.026361     3.018227     3.010094     3.001960     2.993826     2.985693     2.977559     2.969425
      2.961292     2.953158     2.945024     2.936891     2.928757     2.920624     2.912490     2.904356     2.896223     2.888089
      2.879955     2.871822     2.863688     2.855554     2.847421     2.839287     2.831153     2.823020     2.814886     2.806752
      2.798619     2.790485     2.782351     2.774218     2.766084     2.757951     2.749817     2.741683     2.733550     2.725416
      2.717282     2.709149     2.701015     2.692881     2.684748     2.676614     2.668480     2.660347     2.652213     2.644079
      2.635946     2.627812     2.619678     2.611545     2.603411     2.595278     2.587144     2.579010     2.570877     2.562743
      2.554609     2.546476     2.538342     2.530208     2.522075     2.513941     2.505807     2.497674     2.489540     2.481406
      2.473273     2.465139     2.457006     2.448872     2.440738     2.432605     2.424471     2.416337     2.408204     2.400070
      2.391936     2.383803     2.375669     2.367535     2.359402     2.351268     2.343134     2.335001     2.326867     2.318733
      2.310600     2.302466     2.294333     2.286199     2.278065     2.269932     2.261798     2.253664     2.245531     2.237397
      2.229263     2.221130     2.212996     2.204862     2.196729     2.188595     2.180461     2.172328     2.164194     2.156060
      2.147927     2.139793     2.131660     2.123526     2.115392     2.107259     2.099125     2.090991     2.082858     2.074724
      2.066590     2.058457     2.050323     2.042189     2.034056     2.025922     2.017788     2.009655     2.001521     1.993387
      1.985254     1.977120     1.968987     1.960853     1.952719     1.944586     1.936452     1.928318     1.920185     1.912051
      1.903917     1.895784     1.887650     1.879516     1.871383     1.863249     1.855115     1.846982     1.838848     1.830714
      1.822581     1.814447     1.806314     1.798180     1.790046     1.781913     1.773779     1.765645     1.757512     1.749378
      1.741244     1.733111     1.724977     1.716843     1.708710     1.700576     1.692442     1.684309     1.676175     1.668041
      1.659908     1.651774     1.643641     1.635507     1.627373     1.619240     1.611106     1.602972     1.594839     1.586705
      1.578571     1.570438     1.562304     1.554170     1.546037     1.537903     1.529769     1.521636     1.513502     1.505368
      1.497235     1.489101     1.480968     1.472834     1.464700     1.456567     1.448433     1.440299     1.432166     1.424032
      1.415898     1.407765     1.399631     1.391497     1.383364     1.375230     1.367096     1.358963     1.350829     1.342695
      1.334562     1.326428     1.318295     1.310161     1.302027     1.293894     1.285760     1.277626     1.269493     1.261359
      1.253225     1.245092     1.236958     1.228824     1.220691     1.212557     1.204423     1.196290     1.188156     1.180022
      1.171889     1.163755     1.155622     1.147488     1.139354     1.131221     1.123087     1.114953     1.106820     1.098686
      1.090552     1.082419     1.074285     1.066151     1.058018     1.049884     1.041750     1.033617     1.025483     1.017349
      1.009216     1.001082     0.992949     0.984815     0.976681     0.968548     0.960414     0.952280     0.944147     0.936013
      0.927879     0.919746     0.911612     0.903478     0.895345     0.887211     0.879077     0.870944     0.862810     0.854676
      0.846543     0.838409     0.830276     0.822142     0.814008     0.805875     0.797741     0.789607     0.781474     0.773340
      0.765206     0.757073     0.748939     0.740805     0.732672     0.724538     0.716404     0.708271     0.700137     0.692003
      0.683870     0.675736     0.667603     0.659469     0.651335     0.643202     0.635068     0.626934     0.618801     0.610667
      0.602533     0.594400     0.586266     0.578132     0.569999     0.561865     0.553731     0.545598     0.537464     0.529330
      0.521197     0.513063     0.504930     0.496796     0.488662     0.480529     0.472395     0.464261     0.456128     0.447994
      0.439861     0.431727     0.423593     0.415460     0.407326     0.399192     0.391059     0.382925     0.374792     0.366658
      0.358524     0.350391     0.342257     0.334124     0.325990     0.317856     0.309723     0.301589     0.293455     0.285322
      0.277188     0.269055     0.260921     0.252787     0.244654     0.236520     0.228386     0.220253     0.212119     0.203986
 NY phased data points follow
   5.34272E+00 -6.21909E+00 -3.62137E+00 -2.38537E+00 -4.60155E+00 -8.57607E+00 -6.01645E+00 -2.54671E+00 -1.26854E+01 -1.77390E+01
  -1.36656E+01 -1.02319E+01 -1.12036E+01 -1.94181E+01 -2.83629E+01 -2.64916E+01 -3.39445E+01 -3.48266E+01 -3.98888E+01 -6.66844E+01
  -7.77633E+01 -7.44923E+01 -4.89459E+01 -2.58864E+01 -1.48956E+01  2.75236E+00  1.74628E+01  2.43502E+01  2.12517E+01  2.23076E+01
   2.96877E+01  3.13238E+01  2.03079E+01  2.98973E+01  2.22773E+01  2.20447E+00  1.34831E+01  6.77231E-01  4.27279E-01 -5.71300E-01
  -1.74790E+01 -1.86882E+01 -2.51848E+01 -1.69004E+01 -1.24638E+01 -3.66734E+00  2.11916E+01  2.75853E+01  3.82052E+01  6.08886E+01
   5.07872E+01  3.05481E+01  4.37939E+01  5.11325E+01  3.37943E+01  2.91387E+01  3.05194E+01  1.45605E+01  4.66129E+00 -1.34714E-01
   1.21319E+00  1.58757E+01  2.70043E+01  2.08123E+01  2.57587E+01  5.62176E+01  4.48146E+01  2.58458E+01  1.74607E+01 -4.28323E+00
  -2.20118E+00 -3.35302E+00  4.50925E+00  1.53082E+01  1.82424E+01  3.33070E+01  3.89626E+01  4.68485E+01  5.25420E+01  5.42902E+01
   4.83537E+01  4.68835E+01  5.34382E+01  3.90241E+01  3.46053E+01  3.55792E+01  2.87143E+01  2.83618E+01  3.21707E+01  3.35610E+01
   5.03411E+01  7.02580E+01  6.48299E+01  7.94211E+01  7.98414E+01  8.30133E+01  9.72619E+01  7.71820E+01  9.12503E+01  9.26994E+01
   7.98023E+01  7.95143E+01  6.03618E+01  5.11989E+01  4.62846E+01  4.42734E+01  3.03297E+01  2.61305E+01  1.21789E+01 -4.01690E+01
  -7.60391E+01 -1.02145E+02 -1.05179E+02 -7.86309E+01 -6.44681E+01 -4.90235E+01 -3.30653E+01 -3.03649E+01 -1.44285E+01 -1.73058E+00
   5.66683E+00  1.42649E+01  1.06656E+01  2.53194E+01  3.70779E+01  3.81719E+01  5.51952E+01  7.05839E+01  8.74790E+01  1.06382E+02
   1.11451E+02  1.13075E+02  9.89721E+01  3.61818E+01 -2.79354E+01 -4.30668E+01 -6.16626E+01 -8.21258E+01 -6.34830E+01 -6.06025E+01
  -6.43367E+01 -5.31502E+01 -5.31228E+01 -4.46322E+01 -4.23696E+01 -4.70778E+01 -5.01348E+01 -4.86775E+01 -3.93581E+01 -3.56582E+01
  -4.16109E+01 -4.71408E+01 -3.34113E+01 -3.17977E+01 -2.09457E+01 -1.06966E+01 -3.16817E+01 -2.13363E+01 -1.64718E+01 -2.61882E+01
  -1.65166E+01 -1.44723E+01 -9.33352E+00 -3.63646E+00 -3.60466E+00 -6.87605E+00 -2.14271E+01 -2.04436E+01 -3.16266E+00 -4.08417E+00
   7.20135E+00  2.60391E+01  2.10256E+01  2.24549E+01  2.61353E+01  2.80475E+01  2.40103E+01  1.56723E+01  1.91755E+01  1.53347E+01
  -5.03983E-01 -1.47647E+01 -1.72523E+01 -1.82050E+01 -2.82748E+01 -4.39204E+01 -4.53274E+01 -3.68691E+01 -3.67090E+01 -3.12802E+01
  -2.39007E+01 -2.01809E+01 -1.80343E+01 -8.86215E+00 -1.12225E+01 -1.54079E+01 -6.13652E+00 -1.12294E+00  9.47662E+00 -6.55396E+00
  -1.02092E+01  7.87200E+00  4.55854E+00  1.35963E+01  1.08550E+01  3.00338E+00  2.03972E+00 -3.50741E+00 -9.46086E+00 -2.24392E+01
  -3.32037E+01 -4.40309E+01 -3.83457E+01 -2.83928E+01 -1.24060E+01  1.51720E+01  1.83353E+01  2.40481E+01  2.68130E+01  1.45354E+01
   1.46482E+01  7.69584E+00 -2.76670E+00 -1.15396E+01 -1.53511E+01 -1.48025E+00  1.27977E+01  1.15153E+01  1.75269E+00  2.80393E+00
   1.37277E+00  8.57222E+00 -1.92302E+00 -2.98236E+01 -1.99053E+01 -1.37812E+01 -2.07468E+01 -4.66124E+01 -5.58260E+01 -3.88922E+01
  -4.09783E+01 -3.71828E+01 -3.47184E+01 -1.73305E+01 -1.37843E+01 -2.08788E+01 -1.58140E+01 -1.40907E+01 -1.45679E+01 -3.01977E+01
  -3.89981E+01 -5.06438E+01 -3.72814E+01 -4.19111E+01 -6.03364E+01 -5.44278E+01 -5.35082E+01 -4.94594E+00  5.31008E+01  1.19013E+02
   1.52375E+02  1.41979E+02  1.43511E+02  1.27356E+02  1.18783E+02  1.08617E+02  9.83464E+01  7.90235E+01  7.84960E+01  9.02543E+01
   7.06046E+01  7.89316E+01  9.51023E+01  8.51179E+01  7.99609E+01  9.13939E+01  9.31188E+01  9.21417E+01  8.55150E+01  9.05541E+01
   1.03603E+02  8.25260E+01  8.06357E+01  8.64989E+01  8.33607E+01  8.11273E+01  6.74540E+01  6.05642E+01  5.69633E+01  5.55174E+01
   5.42546E+01  5.85181E+01  6.00535E+01  5.15553E+01  4.72916E+01  3.10679E+01  2.65642E+01  2.43754E+01  8.20952E+00  2.30616E+01
   9.37826E+00  7.16020E+00  2.36863E+01  5.27161E+00  2.50248E+01  2.12306E+01  1.70223E+01  3.13758E+01  2.24298E+01  2.85940E+01
   3.57313E+01  4.37804E+01  4.67890E+01  5.48061E+01  4.20088E+01  3.64202E+01  5.16646E+01  4.38381E+01  2.89041E+01  1.55744E+01
   2.92633E+01  3.20085E+01  2.02643E+01  1.94199E+01  1.75477E+01  1.61550E+01  2.15561E+01  2.68640E+01  1.48145E+01  2.04543E+01
   2.01686E+01  1.30361E+01  3.06269E+01  3.08488E+01  3.63867E+01  5.73774E+01  6.12278E+01  5.85231E+01  5.56073E+01  7.26309E+01
   7.48561E+01  6.47830E+01  6.60974E+01  4.53637E+01  4.55223E+01  3.98856E+01  3.63678E+01  4.53652E+01  3.56492E+01  4.17461E+01
   5.07536E+01  5.83443E+01  4.09251E+01  3.59662E+01  3.44367E+01  2.06589E+01  2.38035E+01  2.36420E+00  6.55755E+00  1.50262E+01
   7.17937E-01  8.37394E+00  1.65667E+01  1.63692E+01  2.22337E+01  3.12007E+01  2.82962E+01  2.59012E+01  3.48657E+01  3.75849E+01
   3.74016E+01  5.57100E+01  6.25236E+01  5.48686E+01  5.74326E+01  5.67673E+01  6.33310E+01  8.11080E+01  8.96040E+01  8.33326E+01
   8.24260E+01  1.02425E+02  1.13287E+02  1.21788E+02  1.31370E+02  1.27804E+02  1.47191E+02  1.41881E+02  1.44922E+02  1.54150E+02
   1.23282E+02  1.26995E+02  1.12365E+02  1.09515E+02  9.99067E+01  7.59904E+01  9.16997E+01  6.86248E+01  6.54777E+01  6.37828E+01
   3.77019E+01  1.90780E+01  1.88217E+01  2.89332E+01 -7.09098E+00 -1.25837E+01  5.88615E+00  5.58191E-01 -8.04231E+00 -1.71276E+01
  -2.51744E+00  5.17290E+00 -4.12337E+00 -1.07175E+01 -1.12782E+01 -8.94205E+00 -1.55865E+01 -9.67879E+00 -3.60317E+00 -3.62624E+00
  -1.19617E+01 -1.05295E+01  1.09240E+00 -1.79764E+01 -1.17489E+01 -7.92785E+00 -3.65521E+00  2.02824E-01 -2.49170E+01 -1.32110E+01
  -1.22249E+01 -1.01253E+01 -5.15853E-01 -4.74863E+00 -1.58368E+01 -2.64121E+01 -1.79590E+01 -1.36593E+01 -4.63533E+00 -1.17060E+01
  -1.49544E+01 -1.55383E+01 -1.56922E+01 -6.32891E+00 -5.12498E+00 -6.08832E+00 -1.36484E+01 -6.55915E+00  1.04880E+00  5.72705E+00
  -5.97767E+00 -1.08342E+01 -1.77398E+00 -6.43763E+00 -1.33152E+01 -1.38272E+01 -1.25077E-01 -9.96178E+00 -4.21816E+00 -1.98553E+00
  -1.56765E+01 -2.17738E+00 -7.91788E-01 -9.34390E-01 -5.21257E+00 -4.63259E+00  3.21553E-01 -5.92588E+00 -6.26009E+00 -8.16165E+00
  -2.67561E+00  2.86844E+00 -5.52034E+00 -8.79633E+00 -2.20148E+01 -1.24034E+01  5.17404E+00 -1.49131E+01 -2.55429E+00 -1.26509E+00
 NY points of the fit to the data follow
  -1.35554E+01 -1.65473E+01 -2.08324E+01 -2.44058E+01 -2.43807E+01 -2.06836E+01 -1.28161E+01 -6.57372E+00 -5.16588E+00 -8.27344E+00
  -1.18411E+01 -1.53232E+01 -1.69595E+01 -1.82937E+01 -1.95951E+01 -2.19184E+01 -2.52204E+01 -3.24028E+01 -4.39908E+01 -5.54828E+01
  -6.57389E+01 -6.70435E+01 -5.12772E+01 -2.94700E+01 -4.41098E+00  1.24993E+01  2.81689E+01  3.10211E+01  3.53393E+01  3.66746E+01
   3.74335E+01  3.71400E+01  3.58162E+01  3.37719E+01  3.14545E+01  2.91446E+01  2.67854E+01  2.17299E+01  1.24493E+01  6.96633E-01
  -1.30612E+01 -2.15281E+01 -2.32438E+01 -1.56483E+01 -5.99379E+00  6.81106E+00  1.92252E+01  2.91849E+01  3.65023E+01  4.07604E+01
   4.35625E+01  4.33252E+01  4.08982E+01  3.47400E+01  2.59482E+01  1.72487E+01  7.61936E+00  2.70315E+00  1.84044E+00  7.61967E-01
   2.85439E+00  8.32166E+00  1.53370E+01  2.13661E+01  3.20878E+01  4.23151E+01  4.38744E+01  4.03908E+01  3.08439E+01  1.74228E+01
   6.56686E+00  3.84501E+00  7.88153E+00  1.36275E+01  2.21791E+01  3.31834E+01  4.16625E+01  4.77337E+01  5.22095E+01  5.38577E+01
   5.30535E+01  4.74969E+01  4.00652E+01  2.94601E+01  2.21050E+01  1.74293E+01  1.99005E+01  2.51634E+01  3.34748E+01  4.13519E+01
   4.74750E+01  5.30051E+01  5.71255E+01  6.08303E+01  6.42778E+01  6.75129E+01  6.98447E+01  7.13289E+01  7.35341E+01  7.40701E+01
   7.39557E+01  7.33072E+01  6.92568E+01  5.87254E+01  5.11299E+01  4.86158E+01  4.77514E+01  3.32079E+01  1.51874E+01 -2.91072E+01
  -7.10892E+01 -1.00004E+02 -9.31180E+01 -7.95427E+01 -6.08894E+01 -4.32131E+01 -3.10875E+01 -2.13643E+01 -1.30189E+01 -5.64111E+00
   1.34260E+00  8.19923E+00  1.55164E+01  2.36371E+01  3.31376E+01  4.32688E+01  5.23009E+01  6.23623E+01  8.09557E+01  1.05759E+02
   1.19787E+02  1.20764E+02  9.03281E+01  3.35484E+01 -2.48890E+01 -5.45364E+01 -6.42575E+01 -6.68106E+01 -6.07848E+01 -5.74090E+01
  -5.54591E+01 -5.35872E+01 -5.27478E+01 -5.20315E+01 -5.12430E+01 -4.98781E+01 -4.79889E+01 -4.52831E+01 -4.22439E+01 -3.93627E+01
  -3.67627E+01 -3.45859E+01 -3.23908E+01 -2.98921E+01 -2.69587E+01 -2.39879E+01 -2.17330E+01 -2.03570E+01 -1.95696E+01 -1.81425E+01
  -1.62276E+01 -1.41994E+01 -1.31409E+01 -1.33217E+01 -1.38475E+01 -1.39432E+01 -1.34864E+01 -1.41143E+01 -1.43184E+01 -1.17234E+01
  -5.02613E+00  3.56043E+00  1.09402E+01  1.36360E+01  1.21108E+01  1.11010E+01  1.29664E+01  1.50424E+01  1.36856E+01  7.10386E+00
  -1.70007E+00 -1.01737E+01 -1.59366E+01 -2.08053E+01 -2.30089E+01 -2.42802E+01 -2.47576E+01 -2.45918E+01 -2.33516E+01 -2.22139E+01
  -2.12337E+01 -1.85037E+01 -1.50619E+01 -1.16549E+01 -6.38705E+00 -1.24428E+00  1.59367E+00  3.54888E+00  6.14610E+00  8.30280E+00
   8.36897E+00  9.23791E+00  9.60077E+00  1.10812E+01  1.06322E+01  6.90466E+00  2.78252E+00 -2.92798E+00 -8.88446E+00 -1.53081E+01
  -2.03022E+01 -2.40164E+01 -2.53124E+01 -1.94242E+01 -1.08310E+01  3.55696E+00  1.72888E+01  2.79599E+01  3.20411E+01  3.13987E+01
   2.85589E+01  2.29670E+01  2.22728E+01  2.24324E+01  2.38162E+01  2.46027E+01  2.27356E+01  1.80334E+01  1.08822E+01  9.92321E-01
  -9.41620E+00 -2.05962E+01 -3.15702E+01 -4.02220E+01 -4.76178E+01 -5.23357E+01 -5.38405E+01 -5.29624E+01 -5.09233E+01 -4.73378E+01
  -4.29257E+01 -3.93513E+01 -3.38476E+01 -2.85270E+01 -2.28190E+01 -1.98697E+01 -1.75537E+01 -1.90227E+01 -2.17169E+01 -3.01356E+01
  -4.02490E+01 -4.50817E+01 -4.80488E+01 -5.51217E+01 -6.08769E+01 -5.71191E+01 -5.30748E+01 -1.52206E+01  4.15131E+01  1.00015E+02
   1.18372E+02  1.28023E+02  1.22357E+02  1.12879E+02  1.05817E+02  9.98278E+01  9.40752E+01  8.85848E+01  8.36176E+01  7.91877E+01
   7.63290E+01  7.43633E+01  7.39193E+01  7.40302E+01  7.48804E+01  7.57505E+01  7.63225E+01  7.70004E+01  7.66947E+01  7.61981E+01
   7.49790E+01  7.33440E+01  7.15114E+01  6.95404E+01  6.75216E+01  6.53331E+01  6.31214E+01  6.07159E+01  5.80468E+01  5.49948E+01
   5.15072E+01  4.77277E+01  4.38456E+01  4.03019E+01  3.74111E+01  3.59180E+01  3.55508E+01  3.64278E+01  3.80686E+01  4.02134E+01
   4.25967E+01  4.52088E+01  4.78638E+01  5.03364E+01  5.26017E+01  5.47695E+01  5.69180E+01  5.92184E+01  6.16923E+01  6.40841E+01
   6.63566E+01  6.83084E+01  7.01031E+01  7.16405E+01  7.30633E+01  7.39084E+01  7.42620E+01  7.40581E+01  7.32181E+01  7.16196E+01
   6.97269E+01  6.72944E+01  6.45512E+01  6.14204E+01  5.77400E+01  5.30434E+01  4.70192E+01  3.97309E+01  3.13974E+01  2.31466E+01
   1.55521E+01  9.32104E+00  5.24800E+00  3.64351E+00  4.70798E+00  7.81179E+00  1.23728E+01  1.78017E+01  2.37995E+01  2.89146E+01
   3.23026E+01  3.33854E+01  2.91052E+01  2.48012E+01  1.89266E+01  1.79305E+01  1.72604E+01  2.18437E+01  2.43842E+01  2.71829E+01
   2.80923E+01  2.72966E+01  2.51015E+01  2.19833E+01  1.83414E+01  1.53381E+01  1.33083E+01  1.26282E+01  1.31015E+01  1.47646E+01
   1.72279E+01  2.03376E+01  2.38190E+01  2.74897E+01  3.10247E+01  3.44484E+01  3.75595E+01  4.06557E+01  4.36241E+01  4.66597E+01
   4.96449E+01  5.25623E+01  5.56504E+01  5.89803E+01  6.25228E+01  6.67304E+01  7.12512E+01  7.63267E+01  8.17926E+01  8.80268E+01
   9.44886E+01  1.01516E+02  1.09082E+02  1.16757E+02  1.23819E+02  1.29215E+02  1.31666E+02  1.30349E+02  1.25062E+02  1.16857E+02
   1.06894E+02  9.72836E+01  8.84990E+01  8.10082E+01  7.41397E+01  6.75227E+01  6.01295E+01  5.18259E+01  4.30838E+01  3.43566E+01
   2.63858E+01  1.94581E+01  1.41724E+01  9.85133E+00  6.84499E+00  4.48377E+00  2.92185E+00  1.44569E+00  2.43740E-01 -9.05815E-01
  -1.77828E+00 -2.46317E+00 -2.84232E+00 -3.06970E+00 -3.22831E+00 -3.43842E+00 -3.57042E+00 -3.71406E+00 -3.91470E+00 -3.99281E+00
  -3.92574E+00 -3.89374E+00 -3.99978E+00 -4.10589E+00 -4.17484E+00 -4.33555E+00 -4.44785E+00 -4.51787E+00 -4.36862E+00 -4.23139E+00
  -4.15599E+00 -4.29158E+00 -4.51482E+00 -4.73507E+00 -4.94055E+00 -4.87464E+00 -4.85003E+00 -4.62873E+00 -4.60387E+00 -4.43177E+00
  -4.47734E+00 -4.48785E+00 -4.59256E+00 -4.82683E+00 -5.05408E+00 -5.29202E+00 -5.32678E+00 -5.32296E+00 -5.27584E+00 -5.30180E+00
  -5.37711E+00 -5.48088E+00 -5.57318E+00 -5.53441E+00 -5.41439E+00 -5.37866E+00 -5.28089E+00 -5.28685E+00 -5.22226E+00 -5.27761E+00
  -5.25491E+00 -5.42010E+00 -5.59399E+00 -5.88075E+00 -5.99637E+00 -6.04136E+00 -5.87184E+00 -5.61193E+00 -5.28638E+00 -5.27676E+00
  -5.34684E+00 -5.72128E+00 -5.96773E+00 -6.21916E+00 -6.19210E+00 -6.24874E+00 -6.24648E+00 -6.30717E+00 -6.43580E+00 -6.65334E+00
 NY background values follow
     8.393E+00    8.477E+00    8.561E+00    8.645E+00    8.729E+00    8.813E+00    8.898E+00    8.983E+00    9.069E+00    9.155E+00
     9.242E+00    9.330E+00    9.418E+00    9.508E+00    9.598E+00    9.689E+00    9.782E+00    9.875E+00    9.970E+00    1.007E+01
     1.016E+01    1.026E+01    1.036E+01    1.046E+01    1.057E+01    1.067E+01    1.078E+01    1.089E+01    1.100E+01    1.111E+01
     1.123E+01    1.135E+01    1.147E+01    1.159E+01    1.171E+01    1.184E+01    1.196E+01    1.209E+01    1.222E+01    1.235E+01
     1.249E+01    1.262E+01    1.275E+01    1.289E+01    1.303E+01    1.316E+01    1.330E+01    1.344E+01    1.358E+01    1.372E+01
     1.386E+01    1.399E+01    1.413E+01    1.427E+01    1.441E+01    1.455E+01    1.469E+01    1.483E+01    1.496E+01    1.510E+01
     1.524E+01    1.537E+01    1.551E+01    1.564E+01    1.577E+01    1.590E+01    1.603E+01    1.616E+01    1.628E+01    1.641E+01
     1.653E+01    1.665E+01    1.677E+01    1.689E+01    1.701E+01    1.712E+01    1.724E+01    1.735E+01    1.745E+01    1.756E+01
     1.766E+01    1.776E+01    1.786E+01    1.796E+01    1.805E+01    1.814E+01    1.823E+01    1.832E+01    1.840E+01    1.848E+01
     1.855E+01    1.863E+01    1.870E+01    1.876E+01    1.883E+01    1.889E+01    1.895E+01    1.900E+01    1.906E+01    1.911E+01
     1.915E+01    1.920E+01    1.924E+01    1.928E+01    1.931E+01    1.935E+01    1.938E+01    1.941E+01    1.944E+01    1.946E+01
     1.948E+01    1.950E+01    1.952E+01    1.954E+01    1.955E+01    1.956E+01    1.957E+01    1.958E+01    1.958E+01    1.959E+01
     1.959E+01    1.959E+01    1.959E+01    1.958E+01    1.958E+01    1.957E+01    1.956E+01    1.955E+01    1.954E+01    1.952E+01
     1.951E+01    1.949E+01    1.947E+01    1.945E+01    1.943E+01    1.940E+01    1.938E+01    1.935E+01    1.932E+01    1.929E+01
     1.925E+01    1.922E+01    1.918E+01    1.914E+01    1.911E+01    1.906E+01    1.902E+01    1.898E+01    1.893E+01    1.888E+01
     1.883E+01    1.878E+01    1.873E+01    1.868E+01    1.862E+01    1.856E+01    1.851E+01    1.845E+01    1.839E+01    1.832E+01
     1.826E+01    1.820E+01    1.813E+01    1.807E+01    1.800E+01    1.793E+01    1.787E+01    1.780E+01    1.773E+01    1.766E+01
     1.759E+01    1.752E+01    1.744E+01    1.737E+01    1.730E+01    1.723E+01    1.716E+01    1.708E+01    1.701E+01    1.694E+01
     1.686E+01    1.679E+01    1.672E+01    1.665E+01    1.657E+01    1.650E+01    1.643E+01    1.636E+01    1.629E+01    1.622E+01
     1.615E+01    1.609E+01    1.602E+01    1.596E+01    1.589E+01    1.583E+01    1.577E+01    1.571E+01    1.565E+01    1.559E+01
     1.554E+01    1.548E+01    1.543E+01    1.538E+01    1.533E+01    1.529E+01    1.524E+01    1.520E+01    1.516E+01    1.513E+01
     1.509E+01    1.506E+01    1.503E+01    1.500E+01    1.498E+01    1.496E+01    1.493E+01    1.491E+01    1.489E+01    1.488E+01
     1.486E+01    1.485E+01    1.483E+01    1.482E+01    1.480E+01    1.479E+01    1.478E+01    1.477E+01    1.475E+01    1.474E+01
     1.473E+01    1.471E+01    1.470E+01    1.469E+01    1.467E+01    1.465E+01    1.463E+01    1.461E+01    1.459E+01    1.457E+01
     1.454E+01    1.452E+01    1.449E+01    1.446E+01    1.443E+01    1.439E+01    1.435E+01    1.432E+01    1.427E+01    1.423E+01
     1.419E+01    1.414E+01    1.409E+01    1.404E+01    1.398E+01    1.393E+01    1.387E+01    1.381E+01    1.374E+01    1.368E+01
     1.361E+01    1.354E+01    1.346E+01    1.339E+01    1.331E+01    1.323E+01    1.314E+01    1.306E+01    1.297E+01    1.287E+01
     1.278E+01    1.268E+01    1.258E+01    1.248E+01    1.238E+01    1.228E+01    1.217E+01    1.207E+01    1.196E+01    1.186E+01
     1.176E+01    1.165E+01    1.155E+01    1.146E+01    1.136E+01    1.127E+01    1.118E+01    1.109E+01    1.101E+01    1.093E+01
     1.085E+01    1.078E+01    1.072E+01    1.066E+01    1.061E+01    1.057E+01    1.053E+01    1.050E+01    1.047E+01    1.046E+01
     1.045E+01    1.045E+01    1.046E+01    1.048E+01    1.050E+01    1.053E+01    1.057E+01    1.062E+01    1.067E+01    1.073E+01
     1.080E+01    1.087E+01    1.095E+01    1.104E+01    1.113E+01    1.122E+01    1.132E+01    1.143E+01    1.154E+01    1.166E+01
     1.178E+01    1.190E+01    1.203E+01    1.216E+01    1.229E+01    1.243E+01    1.258E+01    1.272E+01    1.287E+01    1.302E+01
     1.317E+01    1.332E+01    1.348E+01    1.364E+01    1.379E+01    1.395E+01    1.411E+01    1.427E+01    1.443E+01    1.459E+01
     1.475E+01    1.491E+01    1.507E+01    1.523E+01    1.538E+01    1.553E+01    1.569E+01    1.583E+01    1.598E+01    1.612E+01
     1.626E+01    1.640E+01    1.653E+01    1.666E+01    1.678E+01    1.690E+01    1.702E+01    1.713E+01    1.723E+01    1.733E+01
     1.742E+01    1.751E+01    1.759E+01    1.766E+01    1.773E+01    1.779E+01    1.784E+01    1.789E+01    1.794E+01    1.797E+01
     1.800E+01    1.802E+01    1.804E+01    1.805E+01    1.806E+01    1.805E+01    1.804E+01    1.803E+01    1.801E+01    1.798E+01
     1.794E+01    1.790E+01    1.785E+01    1.780E+01    1.773E+01    1.766E+01    1.759E+01    1.751E+01    1.742E+01    1.732E+01
     1.722E+01    1.711E+01    1.699E+01    1.686E+01    1.673E+01    1.660E+01    1.646E+01    1.631E+01    1.616E+01    1.600E+01
     1.583E+01    1.566E+01    1.549E+01    1.531E+01    1.512E+01    1.494E+01    1.474E+01    1.455E+01    1.434E+01    1.414E+01
     1.393E+01    1.372E+01    1.350E+01    1.328E+01    1.306E+01    1.284E+01    1.261E+01    1.238E+01    1.214E+01    1.191E+01
     1.167E+01    1.143E+01    1.119E+01    1.095E+01    1.070E+01    1.046E+01    1.021E+01    9.961E+00    9.710E+00    9.459E+00
     9.205E+00    8.951E+00    8.695E+00    8.439E+00    8.182E+00    7.923E+00    7.665E+00    7.405E+00    7.145E+00    6.884E+00
     6.623E+00    6.362E+00    6.100E+00    5.839E+00    5.577E+00    5.315E+00    5.053E+00    4.792E+00    4.531E+00    4.270E+00
     4.009E+00    3.749E+00    3.489E+00    3.230E+00    2.971E+00    2.712E+00    2.454E+00    2.196E+00    1.938E+00    1.681E+00
     1.424E+00    1.167E+00    9.096E-01    6.529E-01    3.963E-01    1.398E-01   -1.166E-01   -3.729E-01   -6.291E-01   -8.853E-01
    -1.142E+00   -1.398E+00   -1.654E+00   -1.910E+00   -2.167E+00   -2.423E+00   -2.680E+00   -2.936E+00   -3.193E+00   -3.451E+00
 Mac      Conc. = 2.73E-04
  -1.08810E+01 -1.12503E+01 -1.13437E+01 -1.16141E+01 -1.20104E+01 -1.29030E+01 -1.41656E+01 -1.57348E+01 -1.72337E+01 -1.84389E+01
  -1.90132E+01 -1.92318E+01 -1.93344E+01 -2.01037E+01 -2.13359E+01 -2.26399E+01 -2.31517E+01 -2.20803E+01 -1.90481E+01 -1.50620E+01
  -1.11476E+01 -7.63020E+00 -4.60146E+00 -2.52298E+00 -1.10707E+00  3.74132E-01  1.82532E+00  3.64261E+00  5.45576E+00  7.42381E+00
   9.05580E+00  1.03331E+01  1.11859E+01  1.14802E+01  1.15075E+01  1.16512E+01  1.25817E+01  1.41707E+01  1.61372E+01  1.77081E+01
   1.84714E+01  1.88672E+01  1.93933E+01  2.03478E+01  2.15614E+01  2.26270E+01  2.32491E+01  2.30582E+01  2.25543E+01  2.15222E+01
   2.04550E+01  1.94622E+01  1.86579E+01  1.80035E+01  1.76102E+01  1.77074E+01  1.81063E+01  1.90646E+01  2.03977E+01  2.17843E+01
   2.31639E+01  2.44356E+01  2.50988E+01  2.51715E+01  2.47426E+01  2.42041E+01  2.34138E+01  2.29438E+01  2.26435E+01  2.29675E+01
   2.40147E+01  2.59808E+01  2.81981E+01  3.00838E+01  3.14442E+01  3.20340E+01  3.21055E+01  3.16220E+01  3.10940E+01  3.03597E+01
   2.98917E+01  2.95814E+01  2.95198E+01  2.99064E+01  3.05351E+01  3.14258E+01  3.21603E+01  3.30602E+01  3.36931E+01  3.43734E+01
   3.48450E+01  3.54115E+01  3.56629E+01  3.56659E+01  3.51448E+01  3.38946E+01  3.20305E+01  2.98795E+01  2.77279E+01  2.56712E+01
   2.39446E+01  2.20747E+01  1.98616E+01  1.68196E+01  1.26537E+01  7.36222E+00  1.29975E+00 -4.26086E+00 -8.37888E+00 -1.02180E+01
