 
 $NMID
 ID=''
 FMTDAT='(2E13.5)'
 TRAMP=   1.00000E+0
 VOLUME=   1.00000E+0
 $END
  -3.36302E+5   5.07074E+5
  -1.26880E+6   9.80626E+5
  -1.09070E+6   1.10998E+6
  -1.07112E+6   9.47457E+5
  -1.18350E+6   9.11101E+5
  -1.17842E+6   8.97046E+5
  -1.19142E+6   8.36075E+5
  -1.22703E+6   8.57709E+5
  -1.17200E+6   8.59374E+5
  -1.16742E+6   7.88352E+5
  -1.20620E+6   7.66583E+5
  -1.19748E+6   7.62603E+5
  -1.19768E+6   7.41790E+5
  -1.19804E+6   7.47636E+5
  -1.16817E+6   7.31441E+5
  -1.16592E+6   6.96653E+5
  -1.18534E+6   6.90230E+5
  -1.18235E+6   6.68498E+5
  -1.18893E+6   6.32294E+5
  -1.19487E+6   6.19065E+5
  -1.18542E+6   5.92199E+5
  -1.19060E+6   5.57216E+5
  -1.19575E+6   5.44586E+5
  -1.18995E+6   5.25305E+5
  -1.18959E+6   4.98168E+5
  -1.18318E+6   4.92660E+5
  -1.17310E+6   4.81013E+5
  -1.17220E+6   4.66186E+5
  -1.16684E+6   4.57513E+5
  -1.15636E+6   4.45616E+5
  -1.15725E+6   4.26448E+5
  -1.15430E+6   4.11525E+5
  -1.14870E+6   3.89205E+5
  -1.14831E+6   3.67933E+5
  -1.14496E+6   3.51988E+5
  -1.14129E+6   3.31933E+5
  -1.14319E+6   3.09827E+5
  -1.13952E+6   2.89455E+5
  -1.13143E+6   2.71729E+5
  -1.12913E+6   2.58366E+5
  -1.12290E+6   2.46594E+5
  -1.11389E+6   2.33677E+5
  -1.10715E+6   2.24120E+5
  -1.10201E+6   2.14869E+5
  -1.09443E+6   2.02768E+5
  -1.08967E+6   1.93120E+5
  -1.08529E+6   1.81058E+5
  -1.07971E+6   1.62640E+5
  -1.07173E+6   1.45291E+5
  -1.06539E+6   1.31226E+5
  -1.06096E+6   1.15890E+5
  -1.05662E+6   9.92936E+4
  -1.05057E+6   8.42995E+4
  -1.04522E+6   6.93911E+4
  -1.03950E+6   5.50691E+4
  -1.03272E+6   4.15662E+4
  -1.02523E+6   2.93555E+4
  -1.01814E+6   1.83515E+4
  -1.01077E+6   8.44879E+3
  -1.00497E+6  -2.43246E+3
  -9.98836E+5  -1.32403E+4
  -9.92237E+5  -2.40889E+4
  -9.85880E+5  -3.61520E+4
  -9.78629E+5  -4.95182E+4
  -9.70218E+5  -6.22994E+4
  -9.61316E+5  -7.36245E+4
  -9.53245E+5  -8.49303E+4
  -9.45009E+5  -9.61864E+4
  -9.37754E+5  -1.07084E+5
  -9.30859E+5  -1.17793E+5
  -9.22478E+5  -1.28579E+5
  -9.13480E+5  -1.37232E+5
  -9.06219E+5  -1.44855E+5
  -8.98728E+5  -1.54285E+5
  -8.89502E+5  -1.63809E+5
  -8.80756E+5  -1.72602E+5
  -8.72679E+5  -1.81209E+5
  -8.64137E+5  -1.90626E+5
  -8.54194E+5  -2.00301E+5
  -8.44160E+5  -2.10297E+5
  -8.33962E+5  -2.19592E+5
  -8.24183E+5  -2.28036E+5
  -8.14304E+5  -2.36231E+5
  -8.04383E+5  -2.44641E+5
  -7.93703E+5  -2.52573E+5
  -7.83624E+5  -2.58751E+5
  -7.73947E+5  -2.64851E+5
  -7.64470E+5  -2.71122E+5
  -7.54749E+5  -2.76483E+5
  -7.44537E+5  -2.80873E+5
  -7.34617E+5  -2.85713E+5
  -7.24792E+5  -2.91732E+5
  -7.14325E+5  -2.97682E+5
  -7.03295E+5  -3.03541E+5
  -6.91627E+5  -3.08734E+5
  -6.80967E+5  -3.13978E+5
  -6.70489E+5  -3.19336E+5
  -6.59914E+5  -3.25494E+5
  -6.48629E+5  -3.30662E+5
  -6.37933E+5  -3.34985E+5
  -6.28241E+5  -3.39024E+5
  -6.17362E+5  -3.44163E+5
  -6.05870E+5  -3.48595E+5
  -5.94676E+5  -3.51523E+5
  -5.84829E+5  -3.54422E+5
  -5.75562E+5  -3.57198E+5
  -5.65578E+5  -3.60572E+5
  -5.54364E+5  -3.64245E+5
  -5.43324E+5  -3.67306E+5
  -5.32940E+5  -3.69223E+5
  -5.23465E+5  -3.71922E+5
  -5.13704E+5  -3.75733E+5
  -5.03063E+5  -3.79386E+5
  -4.92261E+5  -3.82630E+5
  -4.81675E+5  -3.85756E+5
  -4.72105E+5  -3.88970E+5
  -4.61547E+5  -3.92028E+5
  -4.51075E+5  -3.94493E+5
  -4.40540E+5  -3.95733E+5
  -4.31291E+5  -3.97270E+5
  -4.22463E+5  -3.99835E+5
  -4.13022E+5  -4.02089E+5
  -4.03501E+5  -4.03974E+5
  -3.94471E+5  -4.06001E+5
  -3.84448E+5  -4.07907E+5
  -3.74761E+5  -4.09376E+5
  -3.65437E+5  -4.10182E+5
  -3.56371E+5  -4.12068E+5
  -3.47391E+5  -4.13408E+5
  -3.38280E+5  -4.14829E+5
  -3.29003E+5  -4.16259E+5
  -3.18877E+5  -4.17809E+5
  -3.09385E+5  -4.18235E+5
  -3.00930E+5  -4.19075E+5
  -2.92044E+5  -4.19617E+5
  -2.82532E+5  -4.19975E+5
  -2.73893E+5  -4.20114E+5
  -2.65840E+5  -4.20325E+5
  -2.57150E+5  -4.20725E+5
  -2.48484E+5  -4.21131E+5
  -2.39270E+5  -4.20616E+5
  -2.31120E+5  -4.19682E+5
  -2.23279E+5  -4.18743E+5
  -2.14994E+5  -4.18350E+5
  -2.07122E+5  -4.18104E+5
  -1.98995E+5  -4.16982E+5
  -1.91082E+5  -4.15420E+5
  -1.83052E+5  -4.13917E+5
  -1.75602E+5  -4.12268E+5
  -1.68396E+5  -4.10486E+5
  -1.61050E+5  -4.08856E+5
  -1.54212E+5  -4.06987E+5
  -1.47491E+5  -4.05060E+5
  -1.41008E+5  -4.03113E+5
  -1.33676E+5  -4.01237E+5
  -1.26661E+5  -3.98452E+5
  -1.20142E+5  -3.96201E+5
  -1.13886E+5  -3.94047E+5
  -1.07423E+5  -3.91419E+5
  -1.01194E+5  -3.88547E+5
  -9.50941E+4  -3.85991E+5
  -8.86950E+4  -3.83357E+5
  -8.26867E+4  -3.80534E+5
  -7.68276E+4  -3.77302E+5
  -7.12364E+4  -3.74242E+5
  -6.58802E+4  -3.71285E+5
  -6.03935E+4  -3.68410E+5
  -5.48016E+4  -3.65414E+5
  -4.95864E+4  -3.62553E+5
  -4.43070E+4  -3.59006E+5
  -3.94086E+4  -3.55903E+5
  -3.46624E+4  -3.52692E+5
  -2.95510E+4  -3.49570E+5
  -2.45649E+4  -3.46250E+5
  -2.00114E+4  -3.42908E+5
  -1.51475E+4  -3.39611E+5
  -1.02483E+4  -3.36755E+5
  -5.51514E+3  -3.32993E+5
  -6.01624E+2  -3.29113E+5
   3.58029E+3  -3.25817E+5
   7.72752E+3  -3.22700E+5
   1.25860E+4  -3.19594E+5
   1.70749E+4  -3.16281E+5
   2.13728E+4  -3.12524E+5
   2.55597E+4  -3.09285E+5
   2.93437E+4  -3.05614E+5
   3.29525E+4  -3.01982E+5
   3.66499E+4  -2.98698E+5
   4.02832E+4  -2.95179E+5
   4.37852E+4  -2.92235E+5
   4.74051E+4  -2.89147E+5
   5.15480E+4  -2.85630E+5
   5.52327E+4  -2.82075E+5
   5.87337E+4  -2.78063E+5
   6.20293E+4  -2.74596E+5
   6.52908E+4  -2.71162E+5
   6.85579E+4  -2.67723E+5
   7.21620E+4  -2.64002E+5
   7.51734E+4  -2.60726E+5
   7.86597E+4  -2.57067E+5
   8.18804E+4  -2.53401E+5
   8.48441E+4  -2.49532E+5
   8.73509E+4  -2.45659E+5
   8.99713E+4  -2.42294E+5
   9.29200E+4  -2.38659E+5
   9.55696E+4  -2.35054E+5
   9.81809E+4  -2.31287E+5
   1.00386E+5  -2.27459E+5
   1.02814E+5  -2.23829E+5
   1.05412E+5  -2.20002E+5
   1.07398E+5  -2.16076E+5
   1.09360E+5  -2.12355E+5
   1.11283E+5  -2.08741E+5
   1.13560E+5  -2.05334E+5
   1.15503E+5  -2.01297E+5
   1.17469E+5  -1.97404E+5
   1.18982E+5  -1.93358E+5
   1.20029E+5  -1.90112E+5
   1.21766E+5  -1.86315E+5
   1.22761E+5  -1.82523E+5
   1.24065E+5  -1.78825E+5
   1.25118E+5  -1.75127E+5
   1.26153E+5  -1.71984E+5
   1.27374E+5  -1.68201E+5
   1.28391E+5  -1.64540E+5
   1.28934E+5  -1.60485E+5
   1.29612E+5  -1.56967E+5
   1.30048E+5  -1.53615E+5
   1.30790E+5  -1.50285E+5
   1.31480E+5  -1.46885E+5
   1.31974E+5  -1.43029E+5
   1.32059E+5  -1.39531E+5
   1.32375E+5  -1.36271E+5
   1.32674E+5  -1.32934E+5
   1.32547E+5  -1.29517E+5
   1.32461E+5  -1.26470E+5
   1.32739E+5  -1.23249E+5
   1.32837E+5  -1.19981E+5
   1.32787E+5  -1.16888E+5
   1.32837E+5  -1.13736E+5
   1.32293E+5  -1.10675E+5
   1.32234E+5  -1.07650E+5
   1.32089E+5  -1.04618E+5
   1.31842E+5  -1.01399E+5
   1.31372E+5  -9.85034E+4
   1.31034E+5  -9.54614E+4
   1.30837E+5  -9.26574E+4
   1.30180E+5  -8.95845E+4
   1.29866E+5  -8.69235E+4
   1.29271E+5  -8.41218E+4
   1.28975E+5  -8.14964E+4
   1.28374E+5  -7.84902E+4
   1.28103E+5  -7.59540E+4
   1.27435E+5  -7.33237E+4
   1.26598E+5  -7.04564E+4
   1.25887E+5  -6.79361E+4
   1.25411E+5  -6.57184E+4
   1.25010E+5  -6.30078E+4
   1.24141E+5  -6.02499E+4
   1.23766E+5  -5.79367E+4
   1.23204E+5  -5.52174E+4
   1.22518E+5  -5.24935E+4
   1.21284E+5  -4.99877E+4
   1.20468E+5  -4.77471E+4
   1.19461E+5  -4.57899E+4
   1.19041E+5  -4.31114E+4
   1.18294E+5  -4.08150E+4
   1.17295E+5  -3.86036E+4
   1.16362E+5  -3.65084E+4
   1.15448E+5  -3.43594E+4
   1.14272E+5  -3.21140E+4
   1.13324E+5  -3.01756E+4
   1.12351E+5  -2.81396E+4
   1.11632E+5  -2.58197E+4
   1.10267E+5  -2.42028E+4
   1.09583E+5  -2.21545E+4
   1.08350E+5  -2.00177E+4
   1.07052E+5  -1.82042E+4
   1.05799E+5  -1.65682E+4
   1.05103E+5  -1.48791E+4
   1.03940E+5  -1.27447E+4
   1.02350E+5  -1.13258E+4
   1.01344E+5  -9.76533E+3
   1.00137E+5  -8.00726E+3
   9.89644E+4  -6.38302E+3
   9.76916E+4  -4.84000E+3
   9.62932E+4  -3.30218E+3
   9.49571E+4  -2.15063E+3
   9.36209E+4  -8.09059E+2
   9.27368E+4   6.45795E+2
   9.13606E+4   1.96714E+3
   9.01294E+4   3.50933E+3
   8.85614E+4   4.75074E+3
   8.72345E+4   5.92429E+3
   8.60703E+4   7.25689E+3
   8.46703E+4   8.38491E+3
   8.33630E+4   9.43949E+3
   8.20968E+4   1.05407E+4
   8.10064E+4   1.15042E+4
   7.95433E+4   1.27414E+4
   7.81999E+4   1.38812E+4
   7.69366E+4   1.45776E+4
   7.55524E+4   1.56082E+4
   7.44400E+4   1.65850E+4
   7.32535E+4   1.75773E+4
   7.16073E+4   1.85599E+4
   7.03706E+4   1.91477E+4
   6.90305E+4   1.99185E+4
   6.79703E+4   2.07666E+4
   6.65184E+4   2.14389E+4
   6.54797E+4   2.25828E+4
   6.43001E+4   2.29998E+4
   6.32104E+4   2.35527E+4
   6.16101E+4   2.42800E+4
   6.04167E+4   2.49324E+4
   5.93385E+4   2.54444E+4
   5.79557E+4   2.62537E+4
   5.70486E+4   2.67251E+4
   5.57623E+4   2.71980E+4
   5.44446E+4   2.77705E+4
   5.33153E+4   2.82291E+4
   5.22088E+4   2.86829E+4
   5.10309E+4   2.92727E+4
   4.98395E+4   2.94054E+4
   4.87263E+4   3.00290E+4
   4.75869E+4   3.02750E+4
   4.66888E+4   3.04970E+4
   4.56023E+4   3.05734E+4
   4.42884E+4   3.11292E+4
   4.35352E+4   3.13068E+4
   4.24356E+4   3.15505E+4
   4.11823E+4   3.17215E+4
   4.01884E+4   3.20905E+4
   3.92723E+4   3.21190E+4
   3.84764E+4   3.23305E+4
   3.72684E+4   3.26500E+4
   3.65146E+4   3.27323E+4
   3.51939E+4   3.26840E+4
   3.41796E+4   3.28424E+4
   3.33328E+4   3.25101E+4
   3.26081E+4   3.28937E+4
   3.16972E+4   3.27559E+4
   3.06443E+4   3.29162E+4
   2.96137E+4   3.26232E+4
   2.87637E+4   3.27378E+4
   2.78139E+4   3.26274E+4
   2.69421E+4   3.26710E+4
   2.60328E+4   3.23653E+4
   2.53239E+4   3.22850E+4
   2.48086E+4   3.21192E+4
   2.34587E+4   3.22048E+4
   2.28462E+4   3.20595E+4
   2.21121E+4   3.19957E+4
   2.12050E+4   3.15860E+4
   2.06009E+4   3.14639E+4
   1.98153E+4   3.11789E+4
   1.88047E+4   3.08040E+4
   1.83726E+4   3.08389E+4
   1.73576E+4   3.06747E+4
   1.69292E+4   3.05324E+4
   1.62426E+4   3.02063E+4
   1.53670E+4   2.99083E+4
   1.46877E+4   2.96283E+4
   1.41389E+4   2.95023E+4
   1.34719E+4   2.90797E+4
   1.27871E+4   2.87607E+4
   1.22849E+4   2.86888E+4
