 LCModel (Version 6.3-1N) Copyright: S.W. Provencher.          Ref.: Magn. Reson. Med. 30:672-679 (1993).                
 Slice_N1@20_23  28-Feb-2025 11:41:58
 27 lines in following concentration table = NCONC+1
    Conc.  %SD /Cr+PCr  Metabolite                                         
 3.01E-04   5% 5.6E-04 Mac                                                 
    0.000 999%   0.000 Cr                                                  
    4.261  17%   8.000 PCr                                                 
    6.190  17%  11.621 Ins                                                 
    6.343  14%  11.908 NAA                                                 
    2.405  38%   4.516 Tau                                                 
    0.000 999%   0.000 PCho                                                
    0.460  67%   0.865 GPC                                                 
    8.206  14%  15.406 Glu                                                 
    4.030  21%   7.567 Gln                                                 
    0.000 999%   0.000 Ala                                                 
    0.717 184%   1.346 Asc                                                 
    0.800  89%   1.501 Asp                                                 
    0.000 999%   0.000 GABA                                                
    0.259 178%   0.487 Glc                                                 
    0.245 204%   0.461 GSH                                                 
    0.000 999%   0.000 Lac                                                 
    1.901  36%   3.570 NAAG                                                
    0.834 142%   1.565 PE                                                  
    0.460  67%   0.865 GPC+PCho                                            
    8.244  11%  15.478 NAA+NAAG                                            
   12.236  11%  22.973 Glu+Gln                                             
    4.261  17%   8.000 Cr+PCr                                              
    8.244  11%  15.478 NAA+NAAG                                            
    4.261  17%   8.000 Cr+PCr                                              
   12.236  11%  22.973 Glu+Gln                                             
   6 lines in following misc. output table
  FWHM = 0.041 ppm    S/N =   3                                            
  Data shift = 0.041 ppm                                                   
  Ph: -24 deg       0.0 deg/ppm                                            
  alphaB,S = 2.1E-01,   1.3E+01                                            
   19 spline knots.   Ns = 7(1)                                            
  ( 8) 4 infls.   ( 4) 4 extrs.                                            
  480 points on ppm-axis = NY
      4.100000     4.091866     4.083733     4.075600     4.067466     4.059333     4.051199     4.043066     4.034933     4.026799
      4.018666     4.010532     4.002399     3.994265     3.986132     3.977998     3.969864     3.961731     3.953597     3.945463
      3.937330     3.929196     3.921062     3.912929     3.904795     3.896662     3.888528     3.880394     3.872261     3.864127
      3.855993     3.847860     3.839726     3.831592     3.823459     3.815325     3.807191     3.799058     3.790924     3.782790
      3.774657     3.766523     3.758389     3.750256     3.742122     3.733989     3.725855     3.717721     3.709588     3.701454
      3.693320     3.685187     3.677053     3.668919     3.660786     3.652652     3.644518     3.636385     3.628251     3.620117
      3.611984     3.603850     3.595716     3.587583     3.579449     3.571316     3.563182     3.555048     3.546915     3.538781
      3.530647     3.522514     3.514380     3.506246     3.498113     3.489979     3.481845     3.473712     3.465578     3.457444
      3.449311     3.441177     3.433043     3.424910     3.416776     3.408643     3.400509     3.392375     3.384242     3.376108
      3.367974     3.359841     3.351707     3.343573     3.335440     3.327306     3.319172     3.311039     3.302905     3.294771
      3.286638     3.278504     3.270370     3.262237     3.254103     3.245970     3.237836     3.229702     3.221569     3.213435
      3.205301     3.197168     3.189034     3.180900     3.172767     3.164633     3.156499     3.148366     3.140232     3.132098
      3.123965     3.115831     3.107697     3.099564     3.091430     3.083297     3.075163     3.067029     3.058896     3.050762
      3.042628     3.034495     3.026361     3.018227     3.010094     3.001960     2.993826     2.985693     2.977559     2.969425
      2.961292     2.953158     2.945024     2.936891     2.928757     2.920624     2.912490     2.904356     2.896223     2.888089
      2.879955     2.871822     2.863688     2.855554     2.847421     2.839287     2.831153     2.823020     2.814886     2.806752
      2.798619     2.790485     2.782351     2.774218     2.766084     2.757951     2.749817     2.741683     2.733550     2.725416
      2.717282     2.709149     2.701015     2.692881     2.684748     2.676614     2.668480     2.660347     2.652213     2.644079
      2.635946     2.627812     2.619678     2.611545     2.603411     2.595278     2.587144     2.579010     2.570877     2.562743
      2.554609     2.546476     2.538342     2.530208     2.522075     2.513941     2.505807     2.497674     2.489540     2.481406
      2.473273     2.465139     2.457006     2.448872     2.440738     2.432605     2.424471     2.416337     2.408204     2.400070
      2.391936     2.383803     2.375669     2.367535     2.359402     2.351268     2.343134     2.335001     2.326867     2.318733
      2.310600     2.302466     2.294333     2.286199     2.278065     2.269932     2.261798     2.253664     2.245531     2.237397
      2.229263     2.221130     2.212996     2.204862     2.196729     2.188595     2.180461     2.172328     2.164194     2.156060
      2.147927     2.139793     2.131660     2.123526     2.115392     2.107259     2.099125     2.090991     2.082858     2.074724
      2.066590     2.058457     2.050323     2.042189     2.034056     2.025922     2.017788     2.009655     2.001521     1.993387
      1.985254     1.977120     1.968987     1.960853     1.952719     1.944586     1.936452     1.928318     1.920185     1.912051
      1.903917     1.895784     1.887650     1.879516     1.871383     1.863249     1.855115     1.846982     1.838848     1.830714
      1.822581     1.814447     1.806314     1.798180     1.790046     1.781913     1.773779     1.765645     1.757512     1.749378
      1.741244     1.733111     1.724977     1.716843     1.708710     1.700576     1.692442     1.684309     1.676175     1.668041
      1.659908     1.651774     1.643641     1.635507     1.627373     1.619240     1.611106     1.602972     1.594839     1.586705
      1.578571     1.570438     1.562304     1.554170     1.546037     1.537903     1.529769     1.521636     1.513502     1.505368
      1.497235     1.489101     1.480968     1.472834     1.464700     1.456567     1.448433     1.440299     1.432166     1.424032
      1.415898     1.407765     1.399631     1.391497     1.383364     1.375230     1.367096     1.358963     1.350829     1.342695
      1.334562     1.326428     1.318295     1.310161     1.302027     1.293894     1.285760     1.277626     1.269493     1.261359
      1.253225     1.245092     1.236958     1.228824     1.220691     1.212557     1.204423     1.196290     1.188156     1.180022
      1.171889     1.163755     1.155622     1.147488     1.139354     1.131221     1.123087     1.114953     1.106820     1.098686
      1.090552     1.082419     1.074285     1.066151     1.058018     1.049884     1.041750     1.033617     1.025483     1.017349
      1.009216     1.001082     0.992949     0.984815     0.976681     0.968548     0.960414     0.952280     0.944147     0.936013
      0.927879     0.919746     0.911612     0.903478     0.895345     0.887211     0.879077     0.870944     0.862810     0.854676
      0.846543     0.838409     0.830276     0.822142     0.814008     0.805875     0.797741     0.789607     0.781474     0.773340
      0.765206     0.757073     0.748939     0.740805     0.732672     0.724538     0.716404     0.708271     0.700137     0.692003
      0.683870     0.675736     0.667603     0.659469     0.651335     0.643202     0.635068     0.626934     0.618801     0.610667
      0.602533     0.594400     0.586266     0.578132     0.569999     0.561865     0.553731     0.545598     0.537464     0.529330
      0.521197     0.513063     0.504930     0.496796     0.488662     0.480529     0.472395     0.464261     0.456128     0.447994
      0.439861     0.431727     0.423593     0.415460     0.407326     0.399192     0.391059     0.382925     0.374792     0.366658
      0.358524     0.350391     0.342257     0.334124     0.325990     0.317856     0.309723     0.301589     0.293455     0.285322
      0.277188     0.269055     0.260921     0.252787     0.244654     0.236520     0.228386     0.220253     0.212119     0.203986
 NY phased data points follow
   2.20189E+01  1.99161E+01  1.20159E+01  3.99304E+01  2.37468E+01  1.33496E+01  3.03051E+01  2.06078E+01  2.99156E+01  3.75335E+01
   2.07228E+01  1.19133E+01  6.85554E+00  3.45736E+00  3.14101E+00 -4.74939E+00 -1.83873E+01 -1.53656E+01 -1.86324E+01 -3.34414E+01
  -2.53884E+01 -3.03494E+01 -4.02095E+01 -1.18283E+01 -4.35638E-01  7.98367E-01  2.43862E+01  3.44351E+01  3.89201E+01  5.03991E+01
   5.18079E+01  4.58964E+01  5.23872E+01  4.62876E+01  3.88967E+01  3.70812E+01  3.57610E+01  4.57405E+01  3.31564E+01  1.82088E+01
   2.06771E+00 -1.62408E+01 -2.60116E+01 -1.42956E+01 -1.74562E+01 -2.27751E+01  1.47693E+01  7.85550E+00  2.10796E+01  4.58408E+01
   2.41962E+01  3.54112E+01  5.10979E+01  4.09077E+01  3.47311E+01  2.36575E+01  5.66031E+00  1.61426E+01  6.10268E+00 -8.67546E+00
  -6.14893E+00 -9.41530E+00 -6.03165E+00 -5.52977E+00 -7.10043E+00 -1.08021E+01  2.11689E+01  2.64520E+01  5.26894E+00 -9.17783E-01
  -9.70619E+00 -6.42161E+00 -3.07929E+01 -2.22113E+01  1.18870E-01 -1.62676E+00  1.77964E+01  1.45967E+01  9.76093E+00  1.13578E+01
   9.71832E+00  2.40646E+01  2.13338E+01  1.12429E+01  5.30696E+00  3.51326E+00  2.33612E+00 -2.89387E+00  1.24364E+01  1.97469E+01
   2.40927E+01  2.54497E+01  3.73317E+01  4.83479E+01  3.23553E+01  5.87212E+01  6.67762E+01  4.62855E+01  4.84384E+01  5.68534E+01
   6.61231E+01  4.68058E+01  3.24230E+01  3.17228E+01  1.01350E+01 -1.25506E+01 -2.01437E+01 -2.61684E+01 -3.34541E+01 -3.81595E+01
  -4.82312E+01 -7.79117E+01 -8.82966E+01 -8.73991E+01 -9.87360E+01 -8.15798E+01 -7.08484E+01 -6.00934E+01 -3.98726E+01 -2.96400E+01
  -2.91545E+01 -2.91296E+01 -1.56444E+01 -1.40555E+01  1.72645E+00  1.50021E+01  1.01966E+01  3.45257E+01  3.58682E+01  1.97365E+01
   6.13712E+01  7.31977E+01  6.12616E+01  4.85296E+01 -2.53329E+00 -3.36193E+01 -7.16402E+01 -7.67354E+01 -7.44642E+01 -8.46258E+01
  -7.55763E+01 -8.54804E+01 -7.26682E+01 -7.50764E+01 -8.04104E+01 -8.33700E+01 -8.51253E+01 -7.40964E+01 -8.04495E+01 -6.60123E+01
  -6.08832E+01 -7.30231E+01 -7.55558E+01 -6.69973E+01 -5.72363E+01 -5.27842E+01 -4.90101E+01 -4.95271E+01 -5.25914E+01 -5.68683E+01
  -5.88557E+01 -5.24413E+01 -4.58761E+01 -5.10011E+01 -4.15159E+01 -4.53257E+01 -4.67212E+01 -3.59277E+01 -4.63631E+01 -4.42169E+01
  -4.54976E+01 -4.09173E+01 -3.39049E+01 -1.34016E+01  3.85660E+00 -2.01085E+01 -1.05686E+01 -2.15190E+00 -1.21329E+01 -7.43076E+00
  -1.77008E+01 -3.32111E+01 -4.09562E+01 -3.18600E+01 -3.81032E+01 -4.96988E+01 -4.43839E+01 -4.79510E+01 -4.28406E+01 -4.57106E+01
  -4.44265E+01 -3.88698E+01 -4.52835E+01 -3.27721E+01 -4.36657E+01 -5.13376E+01 -3.01460E+01 -3.96817E+01 -4.06638E+01 -3.65969E+01
  -5.15493E+01 -4.08717E+01 -4.10867E+01 -4.93532E+01 -3.96330E+01 -3.89927E+01 -3.94145E+01 -4.33580E+01 -4.54780E+01 -4.64246E+01
  -5.15305E+01 -5.66376E+01 -5.20509E+01 -4.67482E+01 -5.32079E+01 -4.21344E+01 -2.66939E+01  2.37310E+00  3.10654E+01  2.44561E+01
   2.25929E+01  1.16504E+01 -5.26040E+00 -6.21422E+00 -1.35349E+01 -1.33729E+01 -1.22707E+01 -3.34944E+00 -9.36014E+00 -3.06200E+01
  -8.90855E+00 -1.25915E+01 -3.02494E+01 -3.82648E+01 -5.72995E+01 -6.13080E+01 -7.17574E+01 -6.94216E+01 -8.04707E+01 -8.54767E+01
  -8.90912E+01 -1.04615E+02 -9.47639E+01 -1.12027E+02 -1.01643E+02 -7.52253E+01 -7.85588E+01 -7.52848E+01 -7.46641E+01 -6.73971E+01
  -6.60375E+01 -6.51543E+01 -7.88839E+01 -8.11414E+01 -5.44954E+01 -9.10574E+01 -1.11165E+02 -8.26062E+01 -6.88430E+01 -8.48742E+00
   4.61266E+01  7.15889E+01  8.34466E+01  8.38307E+01  9.19777E+01  6.81522E+01  6.42921E+01  6.74512E+01  6.42642E+01  6.78670E+01
   5.93819E+01  7.32063E+01  6.56939E+01  5.33927E+01  4.86820E+01  3.67278E+01  4.83687E+01  4.50647E+01  4.61679E+01  5.57919E+01
   4.17524E+01  4.34228E+01  4.98347E+01  4.02033E+01  4.56327E+01  5.59332E+01  5.72393E+01  6.55953E+01  4.85096E+01  3.78335E+01
   4.75948E+01  2.46009E+01  3.18284E+01  2.78656E+01  8.64582E-02  6.13589E+00 -1.52365E+01 -4.02070E+01 -5.22223E+01 -4.74026E+01
  -3.20133E+01 -4.24060E+01 -5.67452E+01 -6.50117E+01 -8.29566E+01 -1.04800E+02 -1.04702E+02 -9.81939E+01 -7.57407E+01 -5.15697E+01
  -5.99266E+01 -5.89728E+01 -3.55260E+01 -2.02271E+01 -1.25555E+01 -1.76969E+00  5.17527E+00  8.88423E+00  2.49411E+01  4.32588E+01
   3.84475E+01  4.57419E+01  4.50472E+01  3.00388E+01  4.27495E+01  3.73934E+01  2.11532E+01  2.45520E+01  2.55594E+01  1.50319E+01
   2.36166E+01  2.84965E+01  1.89286E+00 -4.29908E+00 -1.09587E+01 -2.96150E+01 -2.14103E+01 -3.38892E+01 -5.07836E+01 -3.06748E+01
  -3.04746E+01 -3.65859E+01 -3.88794E+01 -3.33365E+01 -2.21432E+01 -2.51756E+01 -2.13621E+01 -2.18707E+01 -9.91549E+00  4.51610E+00
  -2.93330E-01 -1.74758E+01 -1.54018E+01 -9.21737E+00 -1.94047E+01 -1.20736E+01 -4.15753E+00 -6.05005E+00 -1.14102E+01 -3.50548E+00
  -1.15610E+01 -6.99985E+00 -1.86588E+00 -1.32136E+01  6.70459E-01 -1.02335E+01  6.18653E-01 -6.72684E-01 -2.47486E+01 -4.16466E+00
   9.05245E+00  1.71724E+00  9.59581E+00  2.27101E+01  2.05259E+01  2.64370E+01  4.13974E+01  5.78405E+01  4.56546E+01  5.06568E+01
   7.00781E+01  7.51349E+01  7.82162E+01  7.04788E+01  9.63781E+01  9.73419E+01  1.10937E+02  1.19032E+02  1.06156E+02  1.30813E+02
   1.25372E+02  1.32797E+02  1.27960E+02  1.20159E+02  1.12908E+02  9.26923E+01  9.70572E+01  6.18954E+01  6.31842E+01  7.25889E+01
   3.46794E+01  4.16210E+01  2.77063E+01  1.57889E+01  3.62978E+01  9.37623E+00  2.60801E+00  1.08353E+00 -1.56011E+01 -1.07293E+01
  -1.63688E+01 -7.81908E+00 -1.32578E+01 -1.99992E+01 -8.36849E+00 -1.69167E+01 -1.56590E+01 -1.03954E+01 -9.78308E+00 -1.16095E+01
  -1.51737E+01 -2.20159E+01 -1.81759E+01 -5.38613E+00 -1.96368E+01 -1.47743E+01 -1.28827E+01 -2.73809E+01 -2.08464E+01 -2.14958E+01
  -1.88748E+01 -1.99653E+01 -1.78831E+01 -1.20755E+01 -1.26597E+01 -1.43473E+01 -1.19277E+01 -1.38807E+01 -2.69200E+01 -1.43767E+01
  -1.56895E+01 -1.91085E+01 -8.73457E+00  2.43573E-01 -4.57818E+00 -2.01570E+01 -9.96611E+00 -2.51582E+01 -1.53862E+01 -1.20817E+01
  -3.10636E+01  5.14157E+00  2.36899E+00 -2.63945E+01 -2.17841E+01 -3.05101E+00 -1.29862E+01 -3.10920E+01 -1.25521E+01 -1.02046E+01
  -1.05524E+01 -4.90697E+00 -4.65990E+00  2.78149E+00 -4.99748E+00 -6.86205E+00 -9.31462E+00 -1.18653E+01 -1.05911E+01 -1.11390E+01
  -5.35126E+00 -1.59866E+01 -4.48327E+00 -1.86618E+00 -1.63964E+01 -1.81721E+01 -7.03303E+00  1.17473E+00 -1.62369E+01 -1.72056E+00
 NY points of the fit to the data follow
   1.63677E+01  1.42023E+01  1.03036E+01  3.69374E+00 -2.37818E+00 -3.90958E+00  1.22576E-01  7.74147E+00  1.52338E+01  1.94992E+01
   1.97372E+01  1.76888E+01  1.57068E+01  1.47408E+01  8.41909E+00 -1.83588E+00 -1.00085E+01 -1.42448E+01 -1.90379E+01 -2.80378E+01
  -3.69474E+01 -3.88958E+01 -3.15563E+01 -1.65878E+01  2.21342E-01  1.27357E+01  2.04915E+01  2.67448E+01  3.24376E+01  3.52458E+01
   3.66873E+01  3.82192E+01  4.05019E+01  4.36528E+01  4.57406E+01  4.56466E+01  4.29892E+01  3.94702E+01  3.40981E+01  2.53922E+01
   1.26666E+01 -2.56100E+00 -1.59937E+01 -2.31336E+01 -2.17760E+01 -1.29186E+01  7.34228E-02  1.40647E+01  2.68194E+01  3.62077E+01
   4.11519E+01  4.46590E+01  4.75259E+01  4.52728E+01  4.02307E+01  3.50370E+01  2.86341E+01  2.01100E+01  9.73146E+00  5.67884E-01
  -6.56383E+00 -9.85642E+00 -6.17370E+00 -4.42500E-02  5.69530E+00  1.44906E+01  2.53540E+01  3.03189E+01  2.47675E+01  1.30905E+01
  -1.53296E-01 -1.26773E+01 -2.07167E+01 -2.25988E+01 -1.91904E+01 -1.20259E+01 -7.04025E-01  1.05794E+01  1.90575E+01  2.46181E+01
   2.79513E+01  2.84249E+01  2.55773E+01  2.03456E+01  1.40046E+01  8.22914E+00  4.73258E+00  4.11230E+00  6.09277E+00  9.70983E+00
   1.38230E+01  1.82519E+01  2.31797E+01  2.72169E+01  3.01994E+01  3.45370E+01  3.90690E+01  4.21412E+01  4.49822E+01  4.65344E+01
   4.68202E+01  4.39731E+01  4.10123E+01  3.70106E+01  2.78089E+01  1.42535E+01  6.01327E-01 -1.10600E+01 -2.27291E+01 -3.56901E+01
  -4.91331E+01 -6.16262E+01 -6.96000E+01 -7.10478E+01 -6.82415E+01 -6.35104E+01 -5.83082E+01 -5.22196E+01 -4.65613E+01 -4.20417E+01
  -3.83234E+01 -3.41431E+01 -2.91728E+01 -2.51225E+01 -2.25827E+01 -8.64355E+00  1.04240E+01  2.55108E+01  3.50597E+01  4.57681E+01
   6.04280E+01  6.87126E+01  6.18916E+01  4.01348E+01  8.67908E+00 -2.15083E+01 -4.20938E+01 -5.42808E+01 -6.33291E+01 -6.96281E+01
  -7.03961E+01 -7.05808E+01 -7.10582E+01 -7.16718E+01 -7.21963E+01 -7.23880E+01 -7.20492E+01 -7.10612E+01 -6.94731E+01 -6.73469E+01
  -6.49312E+01 -6.25186E+01 -6.03575E+01 -5.85312E+01 -5.68860E+01 -5.52548E+01 -5.33711E+01 -5.15434E+01 -5.02181E+01 -4.95889E+01
  -4.89110E+01 -4.77580E+01 -4.65590E+01 -4.61061E+01 -4.68478E+01 -4.77520E+01 -4.71924E+01 -4.53132E+01 -4.45259E+01 -4.59001E+01
  -4.68826E+01 -4.40229E+01 -3.72956E+01 -3.10989E+01 -2.81280E+01 -2.73247E+01 -2.61787E+01 -2.36396E+01 -2.14554E+01 -2.19299E+01
  -2.54822E+01 -3.08146E+01 -3.62918E+01 -4.16084E+01 -4.67908E+01 -5.04133E+01 -5.24425E+01 -5.45840E+01 -5.59830E+01 -5.56279E+01
  -5.50801E+01 -5.53608E+01 -5.65395E+01 -5.57524E+01 -5.35273E+01 -5.19681E+01 -5.02563E+01 -4.82334E+01 -4.61769E+01 -4.37912E+01
  -4.18713E+01 -4.02576E+01 -3.90216E+01 -3.70274E+01 -3.38998E+01 -3.19119E+01 -3.13617E+01 -3.24344E+01 -3.83726E+01 -4.52318E+01
  -5.41421E+01 -6.25542E+01 -6.82872E+01 -6.95521E+01 -6.36871E+01 -5.17549E+01 -3.52978E+01 -1.73689E+01 -3.04766E+00  5.30940E+00
   8.02660E+00  7.18840E+00  4.87371E+00  2.68142E+00  2.81871E+00  3.32312E+00  3.70887E+00  3.45292E+00  1.33867E+00 -3.91805E+00
  -1.15178E+01 -2.15601E+01 -3.30569E+01 -4.52285E+01 -5.71948E+01 -6.82203E+01 -7.84389E+01 -8.62375E+01 -9.18661E+01 -9.52153E+01
  -9.73389E+01 -9.78109E+01 -9.75254E+01 -9.48303E+01 -8.92894E+01 -7.97986E+01 -7.10673E+01 -6.72995E+01 -6.26865E+01 -5.27552E+01
  -5.47825E+01 -6.97898E+01 -8.30386E+01 -8.52671E+01 -8.33558E+01 -8.81208E+01 -9.29175E+01 -8.61520E+01 -6.29051E+01 -2.53109E+01
   1.51616E+01  4.36313E+01  5.76450E+01  6.54583E+01  6.98256E+01  6.69276E+01  6.12478E+01  5.61113E+01  5.16895E+01  4.80209E+01
   4.50414E+01  4.26523E+01  4.09994E+01  3.99707E+01  3.93803E+01  3.88814E+01  3.83635E+01  3.79353E+01  3.75562E+01  3.70996E+01
   3.64339E+01  3.54576E+01  3.43868E+01  3.32561E+01  3.19544E+01  3.06057E+01  2.91151E+01  2.74245E+01  2.53068E+01  2.25759E+01
   1.90705E+01  1.48170E+01  9.96137E+00  4.63887E+00 -8.14370E-01 -5.77616E+00 -9.59314E+00 -1.18690E+01 -1.26696E+01 -1.22179E+01
  -1.07783E+01 -8.70997E+00 -6.10328E+00 -3.18686E+00 -1.51926E-01  2.70185E+00  5.33640E+00  8.03865E+00  1.10235E+01  1.41870E+01
   1.74487E+01  2.07611E+01  2.40848E+01  2.72550E+01  3.03522E+01  3.33055E+01  3.59026E+01  3.79810E+01  3.93936E+01  4.04006E+01
   4.10286E+01  4.11678E+01  4.07083E+01  3.95824E+01  3.78149E+01  3.50935E+01  3.08200E+01  2.42986E+01  1.54104E+01  4.74750E+00
  -6.89048E+00 -1.84773E+01 -2.91157E+01 -3.78916E+01 -4.40461E+01 -4.72179E+01 -4.75328E+01 -4.58490E+01 -4.29732E+01 -3.96656E+01
  -3.63766E+01 -3.31089E+01 -2.95574E+01 -2.51533E+01 -1.99435E+01 -1.44024E+01 -8.92749E+00 -3.89759E+00  1.50642E-01  3.05465E+00
   4.77282E+00  5.07866E+00  3.67042E+00  4.88628E-01 -4.14231E+00 -9.60872E+00 -1.52256E+01 -2.00251E+01 -2.35260E+01 -2.55256E+01
  -2.59170E+01 -2.48933E+01 -2.26710E+01 -1.95605E+01 -1.58677E+01 -1.19270E+01 -8.06655E+00 -4.41152E+00 -1.08503E+00  2.19858E+00
   5.36544E+00  8.20708E+00  1.08281E+01  1.34934E+01  1.63630E+01  1.93741E+01  2.27046E+01  2.66948E+01  3.15674E+01  3.75806E+01
   4.49959E+01  5.41845E+01  6.50251E+01  7.72171E+01  9.01375E+01  1.02914E+02  1.14363E+02  1.22937E+02  1.27323E+02  1.27092E+02
   1.22695E+02  1.15234E+02  1.06320E+02  9.72072E+01  8.85936E+01  8.03907E+01  7.24497E+01  6.40798E+01  5.47403E+01  4.44041E+01
   3.37293E+01  2.33562E+01  1.38368E+01  5.59758E+00 -1.16258E+00 -6.52418E+00 -1.05107E+01 -1.33216E+01 -1.54841E+01 -1.73204E+01
  -1.87897E+01 -1.97552E+01 -2.05025E+01 -2.10903E+01 -2.13563E+01 -2.13051E+01 -2.11765E+01 -2.11338E+01 -2.10300E+01 -2.07731E+01
  -2.04472E+01 -2.01409E+01 -1.98374E+01 -1.95469E+01 -1.92368E+01 -1.88769E+01 -1.85844E+01 -1.83215E+01 -1.80467E+01 -1.75727E+01
  -1.70419E+01 -1.65848E+01 -1.62741E+01 -1.60634E+01 -1.58996E+01 -1.57228E+01 -1.53837E+01 -1.48933E+01 -1.43275E+01 -1.37901E+01
  -1.32896E+01 -1.27702E+01 -1.23312E+01 -1.20103E+01 -1.17423E+01 -1.16131E+01 -1.14864E+01 -1.12839E+01 -1.09531E+01 -1.05857E+01
  -1.02383E+01 -9.94339E+00 -9.66246E+00 -9.38703E+00 -9.00311E+00 -8.49179E+00 -7.97562E+00 -7.52646E+00 -7.05972E+00 -6.60870E+00
  -6.22263E+00 -5.97548E+00 -5.75519E+00 -5.58581E+00 -5.40573E+00 -5.21721E+00 -4.97283E+00 -4.54487E+00 -3.91424E+00 -3.25076E+00
  -2.74512E+00 -2.42996E+00 -2.23285E+00 -2.18367E+00 -2.13409E+00 -2.10007E+00 -2.02690E+00 -1.98524E+00 -1.98789E+00 -2.02782E+00
 NY background values follow
     4.236E+01    4.187E+01    4.139E+01    4.091E+01    4.042E+01    3.994E+01    3.945E+01    3.897E+01    3.848E+01    3.800E+01
     3.752E+01    3.703E+01    3.655E+01    3.607E+01    3.559E+01    3.510E+01    3.462E+01    3.414E+01    3.366E+01    3.318E+01
     3.271E+01    3.223E+01    3.175E+01    3.128E+01    3.080E+01    3.033E+01    2.986E+01    2.938E+01    2.891E+01    2.844E+01
     2.798E+01    2.751E+01    2.704E+01    2.658E+01    2.612E+01    2.566E+01    2.520E+01    2.474E+01    2.428E+01    2.383E+01
     2.337E+01    2.292E+01    2.247E+01    2.202E+01    2.158E+01    2.114E+01    2.069E+01    2.025E+01    1.982E+01    1.938E+01
     1.895E+01    1.852E+01    1.809E+01    1.767E+01    1.724E+01    1.682E+01    1.640E+01    1.599E+01    1.558E+01    1.517E+01
     1.476E+01    1.436E+01    1.395E+01    1.356E+01    1.316E+01    1.277E+01    1.238E+01    1.199E+01    1.161E+01    1.123E+01
     1.085E+01    1.047E+01    1.010E+01    9.728E+00    9.361E+00    8.996E+00    8.635E+00    8.276E+00    7.920E+00    7.567E+00
     7.216E+00    6.869E+00    6.524E+00    6.182E+00    5.842E+00    5.506E+00    5.172E+00    4.841E+00    4.513E+00    4.188E+00
     3.865E+00    3.545E+00    3.228E+00    2.914E+00    2.602E+00    2.293E+00    1.987E+00    1.684E+00    1.384E+00    1.086E+00
     7.914E-01    4.995E-01    2.104E-01   -7.594E-02   -3.594E-01   -6.400E-01   -9.178E-01   -1.193E+00   -1.465E+00   -1.734E+00
    -2.001E+00   -2.264E+00   -2.525E+00   -2.782E+00   -3.037E+00   -3.289E+00   -3.539E+00   -3.785E+00   -4.028E+00   -4.268E+00
    -4.506E+00   -4.741E+00   -4.972E+00   -5.201E+00   -5.427E+00   -5.651E+00   -5.871E+00   -6.089E+00   -6.304E+00   -6.517E+00
    -6.727E+00   -6.934E+00   -7.139E+00   -7.341E+00   -7.541E+00   -7.738E+00   -7.933E+00   -8.126E+00   -8.316E+00   -8.504E+00
    -8.689E+00   -8.873E+00   -9.054E+00   -9.233E+00   -9.409E+00   -9.584E+00   -9.756E+00   -9.927E+00   -1.010E+01   -1.026E+01
    -1.043E+01   -1.059E+01   -1.075E+01   -1.091E+01   -1.106E+01   -1.122E+01   -1.137E+01   -1.153E+01   -1.168E+01   -1.183E+01
    -1.198E+01   -1.212E+01   -1.227E+01   -1.242E+01   -1.256E+01   -1.271E+01   -1.285E+01   -1.299E+01   -1.313E+01   -1.327E+01
    -1.342E+01   -1.356E+01   -1.370E+01   -1.384E+01   -1.398E+01   -1.412E+01   -1.426E+01   -1.440E+01   -1.454E+01   -1.468E+01
    -1.482E+01   -1.496E+01   -1.510E+01   -1.525E+01   -1.539E+01   -1.553E+01   -1.568E+01   -1.582E+01   -1.596E+01   -1.611E+01
    -1.625E+01   -1.640E+01   -1.655E+01   -1.669E+01   -1.684E+01   -1.699E+01   -1.714E+01   -1.728E+01   -1.743E+01   -1.758E+01
    -1.773E+01   -1.788E+01   -1.803E+01   -1.818E+01   -1.833E+01   -1.849E+01   -1.864E+01   -1.879E+01   -1.894E+01   -1.910E+01
    -1.925E+01   -1.940E+01   -1.956E+01   -1.971E+01   -1.987E+01   -2.002E+01   -2.018E+01   -2.033E+01   -2.049E+01   -2.064E+01
    -2.080E+01   -2.096E+01   -2.111E+01   -2.127E+01   -2.142E+01   -2.158E+01   -2.173E+01   -2.189E+01   -2.204E+01   -2.219E+01
    -2.235E+01   -2.250E+01   -2.265E+01   -2.281E+01   -2.296E+01   -2.311E+01   -2.326E+01   -2.341E+01   -2.356E+01   -2.370E+01
    -2.385E+01   -2.400E+01   -2.414E+01   -2.429E+01   -2.443E+01   -2.458E+01   -2.472E+01   -2.486E+01   -2.500E+01   -2.514E+01
    -2.527E+01   -2.541E+01   -2.555E+01   -2.568E+01   -2.581E+01   -2.595E+01   -2.608E+01   -2.621E+01   -2.634E+01   -2.646E+01
    -2.659E+01   -2.671E+01   -2.684E+01   -2.696E+01   -2.708E+01   -2.720E+01   -2.731E+01   -2.743E+01   -2.754E+01   -2.766E+01
    -2.777E+01   -2.788E+01   -2.799E+01   -2.809E+01   -2.820E+01   -2.830E+01   -2.840E+01   -2.849E+01   -2.858E+01   -2.867E+01
    -2.876E+01   -2.884E+01   -2.892E+01   -2.899E+01   -2.906E+01   -2.912E+01   -2.918E+01   -2.924E+01   -2.929E+01   -2.933E+01
    -2.937E+01   -2.940E+01   -2.943E+01   -2.945E+01   -2.946E+01   -2.947E+01   -2.947E+01   -2.947E+01   -2.945E+01   -2.943E+01
    -2.940E+01   -2.936E+01   -2.932E+01   -2.927E+01   -2.921E+01   -2.914E+01   -2.907E+01   -2.899E+01   -2.890E+01   -2.880E+01
    -2.870E+01   -2.859E+01   -2.847E+01   -2.835E+01   -2.822E+01   -2.808E+01   -2.794E+01   -2.779E+01   -2.764E+01   -2.748E+01
    -2.731E+01   -2.713E+01   -2.695E+01   -2.677E+01   -2.658E+01   -2.638E+01   -2.618E+01   -2.597E+01   -2.575E+01   -2.553E+01
    -2.531E+01   -2.508E+01   -2.484E+01   -2.460E+01   -2.436E+01   -2.411E+01   -2.385E+01   -2.360E+01   -2.333E+01   -2.307E+01
    -2.280E+01   -2.253E+01   -2.225E+01   -2.197E+01   -2.169E+01   -2.140E+01   -2.111E+01   -2.082E+01   -2.053E+01   -2.023E+01
    -1.993E+01   -1.963E+01   -1.933E+01   -1.902E+01   -1.872E+01   -1.841E+01   -1.810E+01   -1.779E+01   -1.749E+01   -1.717E+01
    -1.686E+01   -1.655E+01   -1.624E+01   -1.593E+01   -1.562E+01   -1.530E+01   -1.499E+01   -1.468E+01   -1.437E+01   -1.406E+01
    -1.375E+01   -1.344E+01   -1.313E+01   -1.282E+01   -1.251E+01   -1.220E+01   -1.190E+01   -1.159E+01   -1.129E+01   -1.099E+01
    -1.069E+01   -1.039E+01   -1.010E+01   -9.801E+00   -9.508E+00   -9.218E+00   -8.930E+00   -8.644E+00   -8.360E+00   -8.079E+00
    -7.800E+00   -7.525E+00   -7.251E+00   -6.981E+00   -6.713E+00   -6.448E+00   -6.185E+00   -5.925E+00   -5.668E+00   -5.413E+00
    -5.161E+00   -4.911E+00   -4.664E+00   -4.420E+00   -4.179E+00   -3.940E+00   -3.703E+00   -3.469E+00   -3.238E+00   -3.010E+00
    -2.784E+00   -2.561E+00   -2.340E+00   -2.123E+00   -1.907E+00   -1.695E+00   -1.485E+00   -1.277E+00   -1.072E+00   -8.703E-01
    -6.707E-01   -4.738E-01   -2.794E-01   -8.747E-02    1.021E-01    2.893E-01    4.743E-01    6.570E-01    8.377E-01    1.016E+00
     1.193E+00    1.367E+00    1.540E+00    1.711E+00    1.880E+00    2.048E+00    2.214E+00    2.378E+00    2.541E+00    2.702E+00
     2.862E+00    3.021E+00    3.179E+00    3.335E+00    3.490E+00    3.645E+00    3.798E+00    3.950E+00    4.102E+00    4.252E+00
     4.402E+00    4.551E+00    4.700E+00    4.848E+00    4.995E+00    5.142E+00    5.288E+00    5.434E+00    5.579E+00    5.724E+00
     5.868E+00    6.012E+00    6.156E+00    6.299E+00    6.441E+00    6.584E+00    6.726E+00    6.868E+00    7.010E+00    7.151E+00
     7.293E+00    7.434E+00    7.575E+00    7.716E+00    7.858E+00    7.999E+00    8.140E+00    8.281E+00    8.422E+00    8.563E+00
 Mac      Conc. = 3.01E-04
   2.40539E+01  2.31985E+01  2.24902E+01  2.18138E+01  2.10932E+01  2.00829E+01  1.86857E+01  1.69442E+01  1.49853E+01  1.29877E+01
   1.06324E+01  7.99905E+00  5.84910E+00  4.07456E+00  1.83746E+00 -1.18105E+00 -4.33099E+00 -6.45032E+00 -7.05687E+00 -5.86272E+00
  -3.20298E+00  1.78240E-01  3.67876E+00  7.01837E+00  9.83863E+00  1.17553E+01  1.32031E+01  1.48145E+01  1.66509E+01  1.84331E+01
   1.99424E+01  2.11448E+01  2.21733E+01  2.30361E+01  2.34021E+01  2.30709E+01  2.25004E+01  2.23947E+01  2.32576E+01  2.46739E+01
   2.59977E+01  2.68131E+01  2.73478E+01  2.80703E+01  2.90294E+01  3.01320E+01  3.10936E+01  3.16792E+01  3.17043E+01  3.09611E+01
   2.94708E+01  2.75350E+01  2.54941E+01  2.34412E+01  2.13725E+01  1.96581E+01  1.85470E+01  1.82458E+01  1.85208E+01  1.92568E+01
   2.03627E+01  2.17199E+01  2.30812E+01  2.38387E+01  2.35209E+01  2.24477E+01  2.11542E+01  1.96753E+01  1.81174E+01  1.67260E+01
   1.60778E+01  1.64562E+01  1.78223E+01  1.98195E+01  2.18984E+01  2.36033E+01  2.46214E+01  2.48619E+01  2.43572E+01  2.33921E+01
   2.20897E+01  2.07298E+01  1.94999E+01  1.85875E+01  1.80882E+01  1.80805E+01  1.84019E+01  1.89606E+01  1.97647E+01  2.07429E+01
   2.18071E+01  2.28242E+01  2.37547E+01  2.44562E+01  2.49253E+01  2.49526E+01  2.43062E+01  2.29755E+01  2.12971E+01  1.98469E+01
   1.85053E+01  1.68767E+01  1.47973E+01  1.20113E+01  8.29293E+00  3.08776E+00 -3.82864E+00 -1.20065E+01 -2.04063E+01 -2.77653E+01
