 
 $NMID
 ID=''
 FMTDAT='(2E13.5)'
 TRAMP=   1.00000E+0
 VOLUME=   1.00000E+0
 $END
   7.10367E+5   2.44369E+5
   1.59814E+6   1.28689E+6
   1.68566E+6   1.06732E+6
   1.50621E+6   1.10325E+6
   1.56834E+6   1.20758E+6
   1.60240E+6   1.10784E+6
   1.52134E+6   1.09754E+6
   1.54212E+6   1.16508E+6
   1.54092E+6   1.13181E+6
   1.46973E+6   1.15103E+6
   1.46992E+6   1.19639E+6
   1.45574E+6   1.17575E+6
   1.40059E+6   1.19567E+6
   1.39157E+6   1.23270E+6
   1.36509E+6   1.22252E+6
   1.31592E+6   1.23890E+6
   1.31083E+6   1.26979E+6
   1.29245E+6   1.26203E+6
   1.25513E+6   1.26872E+6
   1.25239E+6   1.28052E+6
   1.23344E+6   1.27607E+6
   1.20057E+6   1.28482E+6
   1.18920E+6   1.29553E+6
   1.16799E+6   1.29539E+6
   1.13360E+6   1.30579E+6
   1.12049E+6   1.30913E+6
   1.09663E+6   1.31371E+6
   1.06224E+6   1.32996E+6
   1.03677E+6   1.33616E+6
   1.01401E+6   1.33301E+6
   9.90375E+5   1.34420E+6
   9.72388E+5   1.34790E+6
   9.48608E+5   1.34461E+6
   9.27593E+5   1.34775E+6
   9.14210E+5   1.34518E+6
   9.00520E+5   1.34079E+6
   8.84949E+5   1.34474E+6
   8.67862E+5   1.34526E+6
   8.45169E+5   1.34092E+6
   8.25761E+5   1.34364E+6
   8.05514E+5   1.34409E+6
   7.82365E+5   1.34076E+6
   7.61506E+5   1.33928E+6
   7.42435E+5   1.34001E+6
   7.17767E+5   1.33887E+6
   6.96387E+5   1.33949E+6
   6.76653E+5   1.33894E+6
   6.52665E+5   1.33693E+6
   6.30727E+5   1.33165E+6
   6.13788E+5   1.32722E+6
   5.96493E+5   1.32394E+6
   5.77014E+5   1.32144E+6
   5.58948E+5   1.31733E+6
   5.40160E+5   1.31325E+6
   5.20729E+5   1.30955E+6
   4.99718E+5   1.30561E+6
   4.77322E+5   1.30073E+6
   4.56884E+5   1.29431E+6
   4.38649E+5   1.28832E+6
   4.18660E+5   1.28433E+6
   3.98165E+5   1.28029E+6
   3.78904E+5   1.27383E+6
   3.60102E+5   1.26897E+6
   3.39249E+5   1.26316E+6
   3.19323E+5   1.25475E+6
   3.01666E+5   1.24551E+6
   2.84446E+5   1.23815E+6
   2.66645E+5   1.23083E+6
   2.48191E+5   1.22424E+6
   2.29059E+5   1.21798E+6
   2.09761E+5   1.21014E+6
   1.91235E+5   1.20114E+6
   1.74132E+5   1.19371E+6
   1.55999E+5   1.18657E+6
   1.36891E+5   1.17815E+6
   1.19172E+5   1.16889E+6
   1.02907E+5   1.16093E+6
   8.56367E+4   1.15235E+6
   6.83560E+4   1.14337E+6
   5.16479E+4   1.13345E+6
   3.54334E+4   1.12351E+6
   1.94416E+4   1.11425E+6
   3.54328E+3   1.10525E+6
  -1.35693E+4   1.09520E+6
  -3.07279E+4   1.08517E+6
  -4.64637E+4   1.07534E+6
  -6.16525E+4   1.06578E+6
  -7.80678E+4   1.05581E+6
  -9.30721E+4   1.04533E+6
  -1.07233E+5   1.03460E+6
  -1.20240E+5   1.02438E+6
  -1.33468E+5   1.01513E+6
  -1.46707E+5   1.00481E+6
  -1.59312E+5   9.93483E+5
  -1.70670E+5   9.81818E+5
  -1.80605E+5   9.71264E+5
  -1.91592E+5   9.61790E+5
  -2.03077E+5   9.51781E+5
  -2.13766E+5   9.40754E+5
  -2.23611E+5   9.30112E+5
  -2.33850E+5   9.20525E+5
  -2.45548E+5   9.10207E+5
  -2.56237E+5   8.97985E+5
  -2.65274E+5   8.85565E+5
  -2.73218E+5   8.75376E+5
  -2.81846E+5   8.65527E+5
  -2.90840E+5   8.55316E+5
  -2.99607E+5   8.43420E+5
  -3.06836E+5   8.31560E+5
  -3.12678E+5   8.20575E+5
  -3.19402E+5   8.10802E+5
  -3.27291E+5   8.00393E+5
  -3.35193E+5   7.89161E+5
  -3.42427E+5   7.77360E+5
  -3.49236E+5   7.66137E+5
  -3.56279E+5   7.55130E+5
  -3.63365E+5   7.43564E+5
  -3.69410E+5   7.31074E+5
  -3.73978E+5   7.19024E+5
  -3.78410E+5   7.08651E+5
  -3.83761E+5   6.98522E+5
  -3.89515E+5   6.87594E+5
  -3.94599E+5   6.76905E+5
  -3.99101E+5   6.65479E+5
  -4.04316E+5   6.54182E+5
  -4.08556E+5   6.42013E+5
  -4.12324E+5   6.30584E+5
  -4.16263E+5   6.19502E+5
  -4.20650E+5   6.08694E+5
  -4.25429E+5   5.97062E+5
  -4.30734E+5   5.84788E+5
  -4.34887E+5   5.71969E+5
  -4.38470E+5   5.60216E+5
  -4.41864E+5   5.48842E+5
  -4.45668E+5   5.37103E+5
  -4.49169E+5   5.25269E+5
  -4.51629E+5   5.13573E+5
  -4.54472E+5   5.03113E+5
  -4.57601E+5   4.92225E+5
  -4.60218E+5   4.80295E+5
  -4.62291E+5   4.68354E+5
  -4.63567E+5   4.57228E+5
  -4.64522E+5   4.47379E+5
  -4.67101E+5   4.36895E+5
  -4.69677E+5   4.25959E+5
  -4.71242E+5   4.14470E+5
  -4.72242E+5   4.03243E+5
  -4.73656E+5   3.92202E+5
  -4.73957E+5   3.81730E+5
  -4.74611E+5   3.71201E+5
  -4.74937E+5   3.60990E+5
  -4.74996E+5   3.50977E+5
  -4.75019E+5   3.41913E+5
  -4.75705E+5   3.32285E+5
  -4.75517E+5   3.22588E+5
  -4.74792E+5   3.12983E+5
  -4.74080E+5   3.04587E+5
  -4.73542E+5   2.95732E+5
  -4.72758E+5   2.86838E+5
  -4.71526E+5   2.78157E+5
  -4.70257E+5   2.69832E+5
  -4.69003E+5   2.61112E+5
  -4.67202E+5   2.52268E+5
  -4.65318E+5   2.43847E+5
  -4.63352E+5   2.36172E+5
  -4.61393E+5   2.28686E+5
  -4.59758E+5   2.21378E+5
  -4.58169E+5   2.13712E+5
  -4.55934E+5   2.05972E+5
  -4.53449E+5   1.98977E+5
  -4.50750E+5   1.92206E+5
  -4.48405E+5   1.85505E+5
  -4.45949E+5   1.78422E+5
  -4.43253E+5   1.71408E+5
  -4.40197E+5   1.64822E+5
  -4.37840E+5   1.58487E+5
  -4.35357E+5   1.51694E+5
  -4.32189E+5   1.44623E+5
  -4.28737E+5   1.38182E+5
  -4.25414E+5   1.32411E+5
  -4.22751E+5   1.26252E+5
  -4.19865E+5   1.19874E+5
  -4.16892E+5   1.13250E+5
  -4.13142E+5   1.07579E+5
  -4.09514E+5   1.01721E+5
  -4.05866E+5   9.59282E+4
  -4.02275E+5   9.07787E+4
  -3.98777E+5   8.53897E+4
  -3.94931E+5   8.03364E+4
  -3.91986E+5   7.55027E+4
  -3.88860E+5   6.97971E+4
  -3.85490E+5   6.38438E+4
  -3.81629E+5   5.79314E+4
  -3.77114E+5   5.27355E+4
  -3.73607E+5   4.78363E+4
  -3.70105E+5   4.26714E+4
  -3.66255E+5   3.73338E+4
  -3.62714E+5   3.22026E+4
  -3.59055E+5   2.72799E+4
  -3.55478E+5   2.19166E+4
  -3.51495E+5   1.66581E+4
  -3.46964E+5   1.15744E+4
  -3.42897E+5   7.65173E+3
  -3.39202E+5   3.56012E+3
  -3.35863E+5  -1.55634E+3
  -3.32044E+5  -6.20438E+3
  -3.27698E+5  -1.06969E+4
  -3.23805E+5  -1.47497E+4
  -3.19743E+5  -1.89733E+4
  -3.16077E+5  -2.33516E+4
  -3.11928E+5  -2.72983E+4
  -3.07967E+5  -3.09646E+4
  -3.04351E+5  -3.47458E+4
  -3.00707E+5  -3.88616E+4
  -2.97004E+5  -4.29373E+4
  -2.92062E+5  -4.67217E+4
  -2.88013E+5  -4.94335E+4
  -2.84122E+5  -5.25701E+4
  -2.80473E+5  -5.56359E+4
  -2.76668E+5  -5.87068E+4
  -2.72484E+5  -6.15082E+4
  -2.68765E+5  -6.43389E+4
  -2.65126E+5  -6.68690E+4
  -2.61286E+5  -7.01812E+4
  -2.57196E+5  -7.26172E+4
  -2.53186E+5  -7.44929E+4
  -2.49506E+5  -7.63159E+4
  -2.46112E+5  -7.87646E+4
  -2.42424E+5  -8.12688E+4
  -2.38929E+5  -8.34597E+4
  -2.34699E+5  -8.51586E+4
  -2.31137E+5  -8.67678E+4
  -2.27815E+5  -8.84429E+4
  -2.24402E+5  -9.01820E+4
  -2.20643E+5  -9.14750E+4
  -2.17242E+5  -9.26855E+4
  -2.14255E+5  -9.39800E+4
  -2.10717E+5  -9.55566E+4
  -2.07023E+5  -9.65517E+4
  -2.03646E+5  -9.73482E+4
  -2.00453E+5  -9.79583E+4
  -1.97603E+5  -9.94252E+4
  -1.94260E+5  -1.00509E+5
  -1.90737E+5  -1.01550E+5
  -1.87545E+5  -1.02280E+5
  -1.84308E+5  -1.02533E+5
  -1.81291E+5  -1.03641E+5
  -1.78120E+5  -1.04233E+5
  -1.74684E+5  -1.04592E+5
  -1.71800E+5  -1.04983E+5
  -1.68969E+5  -1.05829E+5
  -1.66322E+5  -1.06356E+5
  -1.62899E+5  -1.06580E+5
  -1.59625E+5  -1.07115E+5
  -1.56641E+5  -1.07249E+5
  -1.54141E+5  -1.07648E+5
  -1.51428E+5  -1.08223E+5
  -1.48064E+5  -1.08641E+5
  -1.45173E+5  -1.09144E+5
  -1.42584E+5  -1.09627E+5
  -1.39518E+5  -1.10099E+5
  -1.36388E+5  -1.10307E+5
  -1.33193E+5  -1.10283E+5
  -1.30577E+5  -1.10281E+5
  -1.27939E+5  -1.10494E+5
  -1.25426E+5  -1.10767E+5
  -1.22319E+5  -1.11463E+5
  -1.19515E+5  -1.11442E+5
  -1.16792E+5  -1.11243E+5
  -1.14525E+5  -1.11008E+5
  -1.11762E+5  -1.11120E+5
  -1.09331E+5  -1.11021E+5
  -1.06602E+5  -1.11017E+5
  -1.04357E+5  -1.11127E+5
  -1.01554E+5  -1.11405E+5
  -9.90603E+4  -1.11632E+5
  -9.62060E+4  -1.11354E+5
  -9.36506E+4  -1.10861E+5
  -9.15279E+4  -1.10828E+5
  -8.93208E+4  -1.11009E+5
  -8.69283E+4  -1.10573E+5
  -8.44247E+4  -1.10326E+5
  -8.23489E+4  -1.10131E+5
  -8.01368E+4  -1.10084E+5
  -7.76162E+4  -1.09875E+5
  -7.55813E+4  -1.09528E+5
  -7.30900E+4  -1.08619E+5
  -7.15646E+4  -1.08230E+5
  -6.96716E+4  -1.08389E+5
  -6.73615E+4  -1.07954E+5
  -6.55800E+4  -1.07907E+5
  -6.33045E+4  -1.07471E+5
  -6.15610E+4  -1.06922E+5
  -5.98514E+4  -1.06512E+5
  -5.78433E+4  -1.06121E+5
  -5.60552E+4  -1.05657E+5
  -5.44023E+4  -1.05328E+5
  -5.27454E+4  -1.04873E+5
  -5.09936E+4  -1.04511E+5
  -4.89968E+4  -1.03860E+5
  -4.73523E+4  -1.03371E+5
  -4.58394E+4  -1.02700E+5
  -4.44094E+4  -1.02421E+5
  -4.27859E+4  -1.02026E+5
  -4.08207E+4  -1.01671E+5
  -3.94917E+4  -1.00560E+5
  -3.79292E+4  -1.00020E+5
  -3.66213E+4  -9.95335E+4
  -3.49589E+4  -9.89253E+4
  -3.36530E+4  -9.82467E+4
  -3.19050E+4  -9.77048E+4
  -3.09871E+4  -9.71492E+4
  -2.93830E+4  -9.66305E+4
  -2.77829E+4  -9.63665E+4
  -2.67002E+4  -9.52269E+4
  -2.53324E+4  -9.46373E+4
  -2.40038E+4  -9.37929E+4
  -2.27763E+4  -9.31766E+4
  -2.16335E+4  -9.24755E+4
  -2.05099E+4  -9.18441E+4
  -1.94481E+4  -9.12330E+4
  -1.77661E+4  -9.06590E+4
  -1.68262E+4  -8.98056E+4
  -1.54985E+4  -8.89702E+4
  -1.45242E+4  -8.81424E+4
  -1.34421E+4  -8.75830E+4
  -1.23390E+4  -8.70115E+4
  -1.07874E+4  -8.66555E+4
  -9.46611E+3  -8.53744E+4
  -8.84912E+3  -8.47639E+4
  -8.03481E+3  -8.39625E+4
  -6.94569E+3  -8.33824E+4
  -5.94672E+3  -8.23446E+4
  -5.27808E+3  -8.17636E+4
  -4.11858E+3  -8.10347E+4
  -3.04176E+3  -8.04728E+4
  -1.79267E+3  -7.97229E+4
  -6.73074E+2  -7.89037E+4
   1.95226E+2  -7.79238E+4
   6.24477E+2  -7.73466E+4
   1.69234E+3  -7.68577E+4
   2.79180E+3  -7.59340E+4
   3.58723E+3  -7.50030E+4
   4.65394E+3  -7.43094E+4
   5.52785E+3  -7.39278E+4
   5.99926E+3  -7.29673E+4
   6.99437E+3  -7.20623E+4
   7.67046E+3  -7.11781E+4
   8.22945E+3  -7.06940E+4
   9.40824E+3  -7.02151E+4
   1.01694E+4  -6.93022E+4
   1.09096E+4  -6.84687E+4
   1.16081E+4  -6.77198E+4
   1.21973E+4  -6.68030E+4
   1.26257E+4  -6.63865E+4
   1.35327E+4  -6.54581E+4
   1.40480E+4  -6.45481E+4
   1.47364E+4  -6.40605E+4
   1.53330E+4  -6.35073E+4
   1.63455E+4  -6.26805E+4
   1.68131E+4  -6.16535E+4
   1.73727E+4  -6.08702E+4
   1.75230E+4  -6.02196E+4
   1.80269E+4  -5.96539E+4
   1.87873E+4  -5.89515E+4
   1.93129E+4  -5.81049E+4
   1.95465E+4  -5.74205E+4
