 LCModel (Version 6.3-1N) Copyright: S.W. Provencher.          Ref.: Magn. Reson. Med. 30:672-679 (1993).                
 Slice_N1@22_11  28-Feb-2025 11:43:00
 27 lines in following concentration table = NCONC+1
    Conc.  %SD /Cr+PCr  Metabolite                                         
 2.04E-04  14% 1.0E-04 Mac                                                 
   15.757  15%   8.000 Cr                                                  
    0.000 999%   0.000 PCr                                                 
    0.000 999%   0.000 Ins                                                 
    1.390 194%   0.706 NAA                                                 
    0.000 999%   0.000 Tau                                                 
    0.000 999%   0.000 PCho                                                
    6.516  12%   3.308 GPC                                                 
   31.071  12%  15.775 Glu                                                 
   16.566  20%   8.411 Gln                                                 
    0.000 999%   0.000 Ala                                                 
  125.157   5%  63.542 Asc                                                 
   12.447  21%   6.319+Asp                                                 
    0.000 999%   0.000 GABA                                                
    2.844  55%   1.444 Glc                                                 
   12.799  18%   6.498 GSH                                                 
    0.605 368%   0.307 Lac                                                 
    3.426  79%   1.740 NAAG                                                
    0.000 999%   0.000 PE                                                  
    6.516  12%   3.308 GPC+PCho                                            
    4.817  51%   2.445 NAA+NAAG                                            
   47.637  13%  24.185 Glu+Gln                                             
   15.757  15%   8.000 Cr+PCr                                              
    4.817  51%   2.445 NAA+NAAG                                            
   15.757  15%   8.000 Cr+PCr                                              
   47.637  13%  24.185 Glu+Gln                                             
   6 lines in following misc. output table
  FWHM = 0.138 ppm    S/N =   8                                            
  Data shift =-0.033 ppm                                                   
  Ph: 130 deg       0.0 deg/ppm                                            
  alphaB,S = 7.0E-02,   1.7E+02                                            
   19 spline knots.   Ns =10(1)                                            
  (14) 5 infls.   ( 9) 1 extrs.                                            
  480 points on ppm-axis = NY
      4.100000     4.091866     4.083733     4.075600     4.067466     4.059333     4.051199     4.043066     4.034933     4.026799
      4.018666     4.010532     4.002399     3.994265     3.986132     3.977998     3.969864     3.961731     3.953597     3.945463
      3.937330     3.929196     3.921062     3.912929     3.904795     3.896662     3.888528     3.880394     3.872261     3.864127
      3.855993     3.847860     3.839726     3.831592     3.823459     3.815325     3.807191     3.799058     3.790924     3.782790
      3.774657     3.766523     3.758389     3.750256     3.742122     3.733989     3.725855     3.717721     3.709588     3.701454
      3.693320     3.685187     3.677053     3.668919     3.660786     3.652652     3.644518     3.636385     3.628251     3.620117
      3.611984     3.603850     3.595716     3.587583     3.579449     3.571316     3.563182     3.555048     3.546915     3.538781
      3.530647     3.522514     3.514380     3.506246     3.498113     3.489979     3.481845     3.473712     3.465578     3.457444
      3.449311     3.441177     3.433043     3.424910     3.416776     3.408643     3.400509     3.392375     3.384242     3.376108
      3.367974     3.359841     3.351707     3.343573     3.335440     3.327306     3.319172     3.311039     3.302905     3.294771
      3.286638     3.278504     3.270370     3.262237     3.254103     3.245970     3.237836     3.229702     3.221569     3.213435
      3.205301     3.197168     3.189034     3.180900     3.172767     3.164633     3.156499     3.148366     3.140232     3.132098
      3.123965     3.115831     3.107697     3.099564     3.091430     3.083297     3.075163     3.067029     3.058896     3.050762
      3.042628     3.034495     3.026361     3.018227     3.010094     3.001960     2.993826     2.985693     2.977559     2.969425
      2.961292     2.953158     2.945024     2.936891     2.928757     2.920624     2.912490     2.904356     2.896223     2.888089
      2.879955     2.871822     2.863688     2.855554     2.847421     2.839287     2.831153     2.823020     2.814886     2.806752
      2.798619     2.790485     2.782351     2.774218     2.766084     2.757951     2.749817     2.741683     2.733550     2.725416
      2.717282     2.709149     2.701015     2.692881     2.684748     2.676614     2.668480     2.660347     2.652213     2.644079
      2.635946     2.627812     2.619678     2.611545     2.603411     2.595278     2.587144     2.579010     2.570877     2.562743
      2.554609     2.546476     2.538342     2.530208     2.522075     2.513941     2.505807     2.497674     2.489540     2.481406
      2.473273     2.465139     2.457006     2.448872     2.440738     2.432605     2.424471     2.416337     2.408204     2.400070
      2.391936     2.383803     2.375669     2.367535     2.359402     2.351268     2.343134     2.335001     2.326867     2.318733
      2.310600     2.302466     2.294333     2.286199     2.278065     2.269932     2.261798     2.253664     2.245531     2.237397
      2.229263     2.221130     2.212996     2.204862     2.196729     2.188595     2.180461     2.172328     2.164194     2.156060
      2.147927     2.139793     2.131660     2.123526     2.115392     2.107259     2.099125     2.090991     2.082858     2.074724
      2.066590     2.058457     2.050323     2.042189     2.034056     2.025922     2.017788     2.009655     2.001521     1.993387
      1.985254     1.977120     1.968987     1.960853     1.952719     1.944586     1.936452     1.928318     1.920185     1.912051
      1.903917     1.895784     1.887650     1.879516     1.871383     1.863249     1.855115     1.846982     1.838848     1.830714
      1.822581     1.814447     1.806314     1.798180     1.790046     1.781913     1.773779     1.765645     1.757512     1.749378
      1.741244     1.733111     1.724977     1.716843     1.708710     1.700576     1.692442     1.684309     1.676175     1.668041
      1.659908     1.651774     1.643641     1.635507     1.627373     1.619240     1.611106     1.602972     1.594839     1.586705
      1.578571     1.570438     1.562304     1.554170     1.546037     1.537903     1.529769     1.521636     1.513502     1.505368
      1.497235     1.489101     1.480968     1.472834     1.464700     1.456567     1.448433     1.440299     1.432166     1.424032
      1.415898     1.407765     1.399631     1.391497     1.383364     1.375230     1.367096     1.358963     1.350829     1.342695
      1.334562     1.326428     1.318295     1.310161     1.302027     1.293894     1.285760     1.277626     1.269493     1.261359
      1.253225     1.245092     1.236958     1.228824     1.220691     1.212557     1.204423     1.196290     1.188156     1.180022
      1.171889     1.163755     1.155622     1.147488     1.139354     1.131221     1.123087     1.114953     1.106820     1.098686
      1.090552     1.082419     1.074285     1.066151     1.058018     1.049884     1.041750     1.033617     1.025483     1.017349
      1.009216     1.001082     0.992949     0.984815     0.976681     0.968548     0.960414     0.952280     0.944147     0.936013
      0.927879     0.919746     0.911612     0.903478     0.895345     0.887211     0.879077     0.870944     0.862810     0.854676
      0.846543     0.838409     0.830276     0.822142     0.814008     0.805875     0.797741     0.789607     0.781474     0.773340
      0.765206     0.757073     0.748939     0.740805     0.732672     0.724538     0.716404     0.708271     0.700137     0.692003
      0.683870     0.675736     0.667603     0.659469     0.651335     0.643202     0.635068     0.626934     0.618801     0.610667
      0.602533     0.594400     0.586266     0.578132     0.569999     0.561865     0.553731     0.545598     0.537464     0.529330
      0.521197     0.513063     0.504930     0.496796     0.488662     0.480529     0.472395     0.464261     0.456128     0.447994
      0.439861     0.431727     0.423593     0.415460     0.407326     0.399192     0.391059     0.382925     0.374792     0.366658
      0.358524     0.350391     0.342257     0.334124     0.325990     0.317856     0.309723     0.301589     0.293455     0.285322
      0.277188     0.269055     0.260921     0.252787     0.244654     0.236520     0.228386     0.220253     0.212119     0.203986
 NY phased data points follow
  -8.08384E+01 -7.96860E+01 -8.39076E+01 -1.01159E+02 -9.21166E+01 -8.62844E+01 -1.05100E+02 -1.02930E+02 -1.22235E+02 -1.21977E+02
  -1.25289E+02 -1.41549E+02 -1.42920E+02 -1.49640E+02 -1.47250E+02 -1.71890E+02 -1.77545E+02 -1.73956E+02 -1.87091E+02 -2.04490E+02
  -2.20271E+02 -2.27840E+02 -2.48826E+02 -2.46992E+02 -2.65737E+02 -2.98260E+02 -3.14048E+02 -3.26258E+02 -3.45835E+02 -3.69703E+02
  -3.76784E+02 -4.07907E+02 -4.44891E+02 -4.94947E+02 -5.38109E+02 -5.84232E+02 -6.48916E+02 -6.81242E+02 -7.20215E+02 -7.58081E+02
  -7.53060E+02 -7.09920E+02 -6.81693E+02 -6.31698E+02 -5.75037E+02 -5.55434E+02 -5.10169E+02 -4.60954E+02 -4.01556E+02 -3.65700E+02
  -3.20843E+02 -2.51743E+02 -2.29947E+02 -1.99046E+02 -1.84780E+02 -1.61703E+02 -1.25840E+02 -1.27532E+02 -1.08878E+02 -9.89486E+01
  -7.99499E+01 -7.01052E+01 -8.83950E+01 -6.64572E+01 -7.63374E+01 -7.73416E+01 -5.17619E+01 -6.23612E+01 -4.60124E+01 -3.07376E+01
  -2.82850E+01 -2.18403E+01 -2.42427E+01 -3.28176E+01 -4.09768E+01 -3.70164E+01 -3.14958E+01 -1.42468E+01 -1.50300E+01 -1.97586E+01
   1.24614E+00 -4.33600E+00 -2.47025E+01 -2.00414E+01 -2.25817E+00  7.48947E-01 -1.30276E+01 -7.57301E+00  5.72758E+00 -1.53541E+01
  -3.16236E+01 -1.56584E+01 -6.93130E+00 -1.20922E+01 -1.11842E+01 -8.07085E+00 -1.10774E+01 -1.47949E+01 -1.77249E+01 -1.54535E+01
  -3.43209E+00 -7.97741E-01 -2.07967E+01 -3.61085E+01 -4.76763E+01 -6.41864E+01 -4.77655E+01 -4.74660E+01 -7.12178E+01 -5.32695E+01
  -6.08787E+01 -6.33131E+01 -5.23632E+01 -7.99827E+01 -6.62639E+01 -6.85749E+01 -8.04269E+01 -5.55881E+01 -4.49020E+01 -2.71289E+01
  -1.52037E+01 -2.09312E+01 -1.24370E+01  3.75325E+00 -8.13674E-01  4.53503E+00 -3.45501E+00  4.53604E+00  2.81916E+01  1.00759E+00
  -1.03263E+01 -1.05837E+01 -4.84570E+00 -1.56851E+01 -2.42141E+01 -2.31519E+01 -2.48955E+01 -2.30796E+01 -8.26471E+01 -9.48309E+01
  -7.79062E+01 -7.19960E+01 -5.81747E+01 -6.75479E+01 -5.68266E+01 -5.74245E+01 -4.89100E+01 -3.76918E+01 -3.31347E+01 -2.74685E+01
  -2.47941E+01 -1.35131E+01 -9.81116E+00 -6.08837E+00 -9.13567E+00  5.21028E+00  1.49343E+01  8.92453E+00  1.71059E+01  2.61476E+01
   2.07366E+01  1.33095E+01  1.91726E+01  1.69059E+01  1.26529E+01  1.36391E+01  1.43317E+01  7.56998E+00  5.27463E+00  1.34636E+01
   2.39481E+01  2.27821E+01  1.38983E+01  1.82870E+01  1.30597E+01  1.98533E+01  1.20589E+01  7.14914E+00  3.37136E+01  2.61797E+01
   1.41363E+01 -5.22517E+00  6.58725E+00  2.56077E+01 -3.97955E+00  5.00069E+00  7.18217E+00  2.87030E+00 -4.22084E-01 -2.01478E+01
   2.17639E+00  1.61208E+00 -1.32507E+01  7.69087E+00  2.46155E+01  2.19941E+01  1.76616E+01  2.08939E+01  1.97578E+01  2.48101E+01
   2.47101E+01  1.26987E+01  2.00365E+01  2.76933E+01  1.95842E+01  3.15777E+01  2.59959E+01  1.50021E+01  2.72193E+01  1.30650E+01
   1.49895E+01  1.90150E+01  1.16963E+01  1.93920E+01  1.72010E+01  2.40936E+01  2.63331E+01  1.39005E+01  2.57700E+01  3.62116E+01
   2.66436E+01  4.57187E+01  4.03965E+01  2.99960E+01  4.25782E+01  1.45360E+01  1.47527E+01  6.54573E+00 -1.14625E+01  1.01880E+01
   1.32350E+00 -1.02445E+01 -4.12553E+00  4.26851E+00  6.65223E-01 -2.45322E+00  2.19020E+00 -1.45392E+01 -1.25124E+01 -6.92441E+00
  -9.90035E+00  6.89387E+00  1.13104E+01  1.45149E+01  1.70474E+01  2.26349E+01  4.31311E+01  4.59844E+01  4.73334E+01  4.84354E+01
   5.10917E+01  5.93477E+01  6.89819E+01  8.09598E+01  7.00622E+01  6.82911E+01  7.19589E+01  7.81148E+01  9.38790E+01  8.39824E+01
   8.76533E+01  8.77143E+01  6.68342E+01  1.09799E+02  1.87198E+02  1.66120E+02  1.01196E+02  9.70378E+01  8.95439E+01  7.14419E+01
   7.28833E+01  7.45215E+01  5.75221E+01  5.36669E+01  4.86855E+01  2.70443E+01  3.98469E+01  2.11683E+01  1.13898E+01  3.13711E+01
   1.92249E+01  1.29951E+01  2.56340E+01  2.67128E+01 -6.79002E+00 -1.25386E+00 -1.35971E-01 -1.60222E+01 -2.79415E+00 -1.14189E+00
  -3.56858E+00 -9.77062E+00 -8.88365E+00 -1.76586E+01 -1.53560E+01 -2.20566E+01 -2.09488E+01 -1.51035E+01 -2.44462E+01 -1.17419E+01
  -3.31060E+01 -2.51692E+01 -1.46252E+01 -1.99682E+01 -1.59543E+01 -1.55840E+01 -8.27122E-01 -1.50440E+01 -9.36908E+00 -6.66482E+00
  -1.49429E+01 -2.02785E+01 -2.04763E+01 -9.27298E+00 -1.00446E+01  3.23726E-01  1.82578E+00 -4.50426E+00 -1.13870E+01  4.16771E+00
   1.78635E+01  1.65626E+01  1.04534E+01  4.59163E+00  1.62567E+01  3.19133E+00 -1.58738E+01 -3.01251E+01 -3.41016E+01 -4.14505E+01
  -4.04663E+01 -1.19115E+01 -1.80750E+01 -2.49472E+01 -1.23611E+01 -1.60807E+01 -2.47737E+01 -4.48363E+01 -5.07872E+01 -4.12375E+01
  -5.67826E+01 -5.34727E+01 -3.76760E+01 -3.14335E+01 -2.60327E+01 -3.18210E+01 -2.92631E+01 -5.97974E+00  5.86191E-01 -2.21366E+01
  -1.26882E+01  2.03172E+00 -4.11522E+00 -1.88594E+01 -1.36747E+01 -1.44586E+01 -3.10238E+01 -1.73482E+01 -2.24011E+01 -6.19486E+00
  -6.37929E+00 -1.14942E+01 -3.46754E+00 -1.82453E+01  2.81936E+00 -1.59658E+00  1.63827E+00  1.02830E+01  1.04946E+00  1.10877E+01
   1.33657E+01  1.51884E+01  1.21128E+01  9.17797E+00  1.52396E+01  7.80094E+00  1.32008E+01  3.61668E+01  1.97643E+01  2.29545E+01
   2.12660E+01  1.10925E+01  2.02256E+01  5.03305E+00  6.10291E+00  9.65819E+00  1.05187E+01 -4.13919E+00  6.58995E+00  4.73103E+00
  -1.40164E+01 -7.17265E+00 -1.95698E+01 -1.76205E+01 -3.62145E+01 -4.38604E+01 -6.24316E+01 -6.13463E+01 -5.12384E+01 -8.56777E+01
  -8.82586E+01 -1.04041E+02 -1.07069E+02 -1.00372E+02 -8.33235E+01 -1.00084E+02 -1.13479E+02 -8.47390E+01 -1.00532E+02 -8.97309E+01
  -8.54131E+01 -8.34363E+01 -7.04627E+01 -5.96497E+01 -5.64907E+01 -6.18799E+01 -5.63127E+01 -7.25409E+01 -4.92174E+01 -3.84179E+01
  -5.23164E+01 -4.52134E+01 -4.14592E+01 -4.02543E+01 -3.55286E+01 -2.43870E+01 -2.62363E+01 -3.54891E+00  3.62202E+00 -1.75396E+01
  -1.29253E+01 -3.73249E+00  1.72320E+00  4.97629E+00 -2.09572E+00  2.42549E-01  3.37121E+00 -9.31156E+00  6.35915E+00  7.61068E+00
   5.24840E+00  1.72421E+01  2.86174E-01  2.46373E+00  7.53249E+00 -7.66536E-01 -9.17123E+00 -2.30471E+00  6.55003E+00  5.47159E+00
   1.51081E+01  1.13560E+01  4.39191E-01 -8.38611E+00 -1.05132E+01 -1.94524E+01 -1.88537E+01 -1.55754E+01 -8.25412E+00  1.32222E+01
  -4.20813E+00 -4.26133E+00 -6.89603E+00 -1.59875E+01 -3.16572E+00 -6.01491E+00  2.74096E+00 -2.58742E+00 -6.71109E+00 -7.19967E+00
  -1.57728E+01 -1.20556E+01  8.85576E-03 -5.45484E+00 -1.34398E+01  2.10106E+00 -3.55097E+00  1.07224E+01  1.18761E+01 -9.13172E+00
 NY points of the fit to the data follow
  -1.51270E+02 -1.59396E+02 -1.64277E+02 -1.68412E+02 -1.71815E+02 -1.73016E+02 -1.70547E+02 -1.63999E+02 -1.54937E+02 -1.45985E+02
  -1.39459E+02 -1.36628E+02 -1.38987E+02 -1.44233E+02 -1.45332E+02 -1.42131E+02 -1.37999E+02 -1.36867E+02 -1.40831E+02 -1.50294E+02
  -1.64737E+02 -1.79797E+02 -1.94703E+02 -2.07189E+02 -2.18266E+02 -2.30104E+02 -2.45122E+02 -2.65141E+02 -2.91981E+02 -3.29069E+02
  -3.76335E+02 -4.29056E+02 -4.79711E+02 -5.21548E+02 -5.59425E+02 -5.94231E+02 -6.25527E+02 -6.54325E+02 -6.77039E+02 -6.88490E+02
  -6.86073E+02 -6.70529E+02 -6.45475E+02 -6.15042E+02 -5.81742E+02 -5.45318E+02 -5.04137E+02 -4.57491E+02 -4.06258E+02 -3.51399E+02
  -2.95286E+02 -2.43027E+02 -1.99374E+02 -1.66916E+02 -1.44612E+02 -1.28551E+02 -1.18142E+02 -1.10017E+02 -1.03875E+02 -1.00036E+02
  -9.74969E+01 -9.49798E+01 -9.17609E+01 -8.76528E+01 -8.30711E+01 -7.88012E+01 -7.55306E+01 -7.32070E+01 -7.11096E+01 -6.88756E+01
  -6.68364E+01 -6.49505E+01 -6.31944E+01 -6.12575E+01 -5.91782E+01 -5.71398E+01 -5.52713E+01 -5.35137E+01 -5.17557E+01 -4.98363E+01
  -4.76923E+01 -4.53830E+01 -4.29560E+01 -4.04505E+01 -3.78630E+01 -3.51937E+01 -3.24241E+01 -2.94739E+01 -2.63409E+01 -2.31313E+01
  -1.98105E+01 -1.63776E+01 -1.29320E+01 -9.28881E+00 -5.21668E+00 -4.10535E-01  5.66178E+00  1.35847E+01  2.36027E+01  2.61906E+01
   1.76198E+01  5.37404E+00 -4.56896E+00 -1.08590E+01 -1.54806E+01 -2.14452E+01 -3.06558E+01 -4.29100E+01 -5.61141E+01 -6.76480E+01
  -7.58054E+01 -8.02668E+01 -8.18803E+01 -8.19979E+01 -8.18404E+01 -8.17594E+01 -8.12377E+01 -7.93885E+01 -7.43083E+01 -6.25445E+01
  -4.12135E+01 -1.51546E+01  5.68516E+00  1.53243E+01  1.76632E+01  1.81860E+01  2.02623E+01  2.44910E+01  2.82338E+01  2.89813E+01
   2.52528E+01  1.72763E+01  7.74958E+00 -1.73877E+00 -9.79009E+00 -1.62482E+01 -2.19017E+01 -2.80380E+01 -3.53875E+01 -4.38478E+01
  -5.30128E+01 -6.18599E+01 -6.75621E+01 -6.62644E+01 -6.07188E+01 -5.59107E+01 -5.17362E+01 -4.83087E+01 -4.56000E+01 -4.27458E+01
  -3.92538E+01 -3.41192E+01 -2.79952E+01 -2.24988E+01 -1.79215E+01 -1.44465E+01 -1.13424E+01 -8.27656E+00 -5.21402E+00 -2.53645E+00
  -4.43223E-01  1.31807E+00  3.28577E+00  5.06282E+00  6.09074E+00  6.98754E+00  7.60820E+00  8.15590E+00  9.13253E+00  1.00031E+01
   1.03684E+01  1.01597E+01  9.41965E+00  8.79140E+00  8.52478E+00  8.20310E+00  7.61091E+00  7.17820E+00  6.65841E+00  6.55063E+00
   6.97694E+00  7.34065E+00  7.91382E+00  8.46137E+00  9.31644E+00  1.04762E+01  1.13458E+01  1.23517E+01  1.32025E+01  1.40851E+01
   1.53900E+01  1.67824E+01  1.89577E+01  2.21931E+01  2.55492E+01  2.88704E+01  3.18387E+01  3.38358E+01  3.49481E+01  3.55167E+01
   3.52878E+01  3.44149E+01  3.26160E+01  2.94063E+01  2.50860E+01  1.93668E+01  1.29398E+01  8.04710E+00  4.06303E+00  3.22607E+00
   5.86311E+00  9.23438E+00  1.39951E+01  1.83291E+01  2.20875E+01  2.62576E+01  3.14249E+01  3.81501E+01  4.56171E+01  5.22354E+01
   5.68924E+01  5.88959E+01  5.82225E+01  5.54044E+01  5.06749E+01  4.46956E+01  3.72115E+01  2.79978E+01  1.70241E+01  4.86887E+00
  -9.00127E+00 -2.15861E+01 -3.22888E+01 -4.05800E+01 -4.49661E+01 -4.65683E+01 -4.56742E+01 -4.30127E+01 -3.84399E+01 -3.24330E+01
  -2.52047E+01 -1.73362E+01 -1.02107E+01 -3.33704E+00  5.55268E+00  1.52570E+01  2.52706E+01  3.42535E+01  4.28251E+01  5.09830E+01
   5.85977E+01  6.57209E+01  7.21851E+01  7.84370E+01  8.40144E+01  8.94383E+01  9.43456E+01  9.85272E+01  1.02042E+02  1.04498E+02
   1.06160E+02  1.06936E+02  1.07171E+02  1.06594E+02  1.04076E+02  9.99658E+01  9.56929E+01  9.07049E+01  8.54191E+01  7.93223E+01
   7.34195E+01  6.77012E+01  6.22114E+01  5.70359E+01  5.20763E+01  4.73717E+01  4.28683E+01  3.85422E+01  3.43479E+01  3.02444E+01
   2.62336E+01  2.23354E+01  1.85774E+01  1.49609E+01  1.14941E+01  8.19634E+00  5.09230E+00  2.24193E+00 -3.29406E-01 -2.58991E+00
  -4.51682E+00 -6.10760E+00 -7.37596E+00 -8.31044E+00 -8.90582E+00 -9.18279E+00 -9.15938E+00 -8.88801E+00 -8.39185E+00 -7.68140E+00
  -6.82180E+00 -5.88808E+00 -4.92211E+00 -3.98677E+00 -3.13463E+00 -2.38615E+00 -1.74600E+00 -1.27032E+00 -9.72513E-01 -8.66287E-01
  -9.67758E-01 -1.30221E+00 -1.93925E+00 -2.95094E+00 -4.36083E+00 -6.13193E+00 -8.20993E+00 -1.05515E+01 -1.30839E+01 -1.57452E+01
  -1.84324E+01 -2.10284E+01 -2.34787E+01 -2.57322E+01 -2.77350E+01 -2.94562E+01 -3.08443E+01 -3.18097E+01 -3.22900E+01 -3.22866E+01
  -3.18015E+01 -3.09904E+01 -3.00125E+01 -2.88521E+01 -2.75916E+01 -2.61839E+01 -2.46404E+01 -2.30642E+01 -2.16363E+01 -2.05378E+01
  -1.98681E+01 -1.95929E+01 -1.96233E+01 -1.98435E+01 -2.01745E+01 -2.05835E+01 -2.10600E+01 -2.16048E+01 -2.21991E+01 -2.27765E+01
  -2.32704E+01 -2.35779E+01 -2.35943E+01 -2.33411E+01 -2.28598E+01 -2.21522E+01 -2.13174E+01 -2.03252E+01 -1.91663E+01 -1.78412E+01
  -1.63520E+01 -1.47130E+01 -1.29866E+01 -1.11776E+01 -9.27729E+00 -7.29810E+00 -5.24520E+00 -3.10102E+00 -8.21766E-01  1.59040E+00
   4.12485E+00  6.74017E+00  9.33770E+00  1.17844E+01  1.39173E+01  1.56160E+01  1.68460E+01  1.76196E+01  1.79086E+01  1.76914E+01
   1.69136E+01  1.55017E+01  1.33894E+01  1.05956E+01  7.16208E+00  3.16327E+00 -1.25805E+00 -6.00927E+00 -1.10193E+01 -1.62269E+01
  -2.15347E+01 -2.68322E+01 -3.19744E+01 -3.68129E+01 -4.12231E+01 -4.51368E+01 -4.85526E+01 -5.15023E+01 -5.40141E+01 -5.61290E+01
  -5.78829E+01 -5.92669E+01 -6.02599E+01 -6.08814E+01 -6.11713E+01 -6.11187E+01 -6.07688E+01 -6.02104E+01 -5.94900E+01 -5.86361E+01
  -5.76664E+01 -5.66161E+01 -5.55012E+01 -5.43170E+01 -5.30468E+01 -5.17039E+01 -5.03048E+01 -4.88715E+01 -4.74157E+01 -4.59334E+01
  -4.44132E+01 -4.28553E+01 -4.12714E+01 -3.96505E+01 -3.80023E+01 -3.63544E+01 -3.47220E+01 -3.30781E+01 -3.14251E+01 -2.97875E+01
  -2.81754E+01 -2.65816E+01 -2.49969E+01 -2.34350E+01 -2.19148E+01 -2.04350E+01 -1.89994E+01 -1.76197E+01 -1.62797E+01 -1.49787E+01
  -1.37279E+01 -1.25308E+01 -1.14021E+01 -1.03436E+01 -9.36512E+00 -8.45587E+00 -7.62126E+00 -6.86479E+00 -6.20111E+00 -5.62169E+00
  -5.12309E+00 -4.71610E+00 -4.38276E+00 -4.11365E+00 -3.89459E+00 -3.73754E+00 -3.63786E+00 -3.58850E+00 -3.57735E+00 -3.58283E+00
  -3.59269E+00 -3.60688E+00 -3.60792E+00 -3.58924E+00 -3.55523E+00 -3.48387E+00 -3.34075E+00 -3.10792E+00 -2.74019E+00 -2.22007E+00
  -1.53071E+00 -6.54199E-01  4.35207E-01  1.78019E+00  3.43356E+00  5.43870E+00  7.88674E+00  1.08687E+01  1.44762E+01  1.87978E+01
 NY background values follow
     5.485E+01    4.426E+01    3.367E+01    2.309E+01    1.253E+01    2.012E+00   -8.454E+00   -1.885E+01   -2.917E+01   -3.939E+01
    -4.950E+01   -5.949E+01   -6.933E+01   -7.903E+01   -8.856E+01   -9.790E+01   -1.071E+02   -1.160E+02   -1.247E+02   -1.332E+02
    -1.414E+02   -1.494E+02   -1.570E+02   -1.644E+02   -1.715E+02   -1.782E+02   -1.846E+02   -1.907E+02   -1.964E+02   -2.017E+02
    -2.066E+02   -2.111E+02   -2.152E+02   -2.189E+02   -2.223E+02   -2.253E+02   -2.279E+02   -2.302E+02   -2.322E+02   -2.338E+02
    -2.351E+02   -2.362E+02   -2.369E+02   -2.374E+02   -2.376E+02   -2.375E+02   -2.373E+02   -2.367E+02   -2.360E+02   -2.351E+02
    -2.339E+02   -2.326E+02   -2.311E+02   -2.294E+02   -2.276E+02   -2.256E+02   -2.235E+02   -2.213E+02   -2.190E+02   -2.166E+02
    -2.141E+02   -2.115E+02   -2.088E+02   -2.061E+02   -2.033E+02   -2.005E+02   -1.976E+02   -1.947E+02   -1.917E+02   -1.887E+02
    -1.857E+02   -1.826E+02   -1.796E+02   -1.765E+02   -1.734E+02   -1.703E+02   -1.672E+02   -1.641E+02   -1.611E+02   -1.580E+02
    -1.550E+02   -1.521E+02   -1.491E+02   -1.462E+02   -1.433E+02   -1.405E+02   -1.378E+02   -1.351E+02   -1.325E+02   -1.300E+02
    -1.275E+02   -1.251E+02   -1.228E+02   -1.206E+02   -1.185E+02   -1.164E+02   -1.143E+02   -1.124E+02   -1.104E+02   -1.085E+02
    -1.067E+02   -1.049E+02   -1.031E+02   -1.014E+02   -9.963E+01   -9.791E+01   -9.621E+01   -9.451E+01   -9.281E+01   -9.111E+01
    -8.940E+01   -8.768E+01   -8.594E+01   -8.418E+01   -8.239E+01   -8.057E+01   -7.871E+01   -7.681E+01   -7.487E+01   -7.287E+01
    -7.082E+01   -6.871E+01   -6.654E+01   -6.433E+01   -6.207E+01   -5.977E+01   -5.743E+01   -5.507E+01   -5.267E+01   -5.026E+01
    -4.782E+01   -4.538E+01   -4.292E+01   -4.046E+01   -3.800E+01   -3.555E+01   -3.310E+01   -3.067E+01   -2.826E+01   -2.587E+01
    -2.350E+01   -2.117E+01   -1.888E+01   -1.662E+01   -1.442E+01   -1.226E+01   -1.015E+01   -8.109E+00   -6.128E+00   -4.215E+00
    -2.375E+00   -6.091E-01    1.082E+00    2.699E+00    4.243E+00    5.715E+00    7.116E+00    8.446E+00    9.707E+00    1.090E+01
     1.202E+01    1.308E+01    1.407E+01    1.500E+01    1.586E+01    1.665E+01    1.739E+01    1.806E+01    1.867E+01    1.922E+01
     1.971E+01    2.015E+01    2.052E+01    2.084E+01    2.110E+01    2.130E+01    2.145E+01    2.155E+01    2.160E+01    2.159E+01
     2.153E+01    2.142E+01    2.127E+01    2.107E+01    2.083E+01    2.055E+01    2.023E+01    1.988E+01    1.950E+01    1.910E+01
     1.867E+01    1.821E+01    1.774E+01    1.725E+01    1.675E+01    1.623E+01    1.571E+01    1.518E+01    1.465E+01    1.412E+01
     1.360E+01    1.307E+01    1.256E+01    1.206E+01    1.157E+01    1.110E+01    1.064E+01    1.021E+01    9.806E+00    9.428E+00
     9.080E+00    8.762E+00    8.470E+00    8.200E+00    7.948E+00    7.711E+00    7.483E+00    7.262E+00    7.043E+00    6.821E+00
     6.594E+00    6.357E+00    6.106E+00    5.837E+00    5.545E+00    5.228E+00    4.881E+00    4.499E+00    4.080E+00    3.618E+00
     3.110E+00    2.552E+00    1.940E+00    1.270E+00    5.375E-01   -2.612E-01   -1.130E+00   -2.073E+00   -3.095E+00   -4.198E+00
    -5.388E+00   -6.664E+00   -8.022E+00   -9.457E+00   -1.097E+01   -1.255E+01   -1.419E+01   -1.589E+01   -1.766E+01   -1.947E+01
    -2.133E+01   -2.324E+01   -2.519E+01   -2.717E+01   -2.919E+01   -3.123E+01   -3.330E+01   -3.538E+01   -3.748E+01   -3.960E+01
    -4.171E+01   -4.384E+01   -4.595E+01   -4.807E+01   -5.017E+01   -5.226E+01   -5.433E+01   -5.638E+01   -5.840E+01   -6.039E+01
    -6.234E+01   -6.426E+01   -6.614E+01   -6.797E+01   -6.977E+01   -7.152E+01   -7.322E+01   -7.488E+01   -7.649E+01   -7.805E+01
    -7.956E+01   -8.101E+01   -8.241E+01   -8.375E+01   -8.504E+01   -8.627E+01   -8.743E+01   -8.854E+01   -8.958E+01   -9.055E+01
    -9.146E+01   -9.230E+01   -9.307E+01   -9.377E+01   -9.440E+01   -9.495E+01   -9.542E+01   -9.582E+01   -9.614E+01   -9.638E+01
    -9.653E+01   -9.661E+01   -9.661E+01   -9.654E+01   -9.640E+01   -9.619E+01   -9.592E+01   -9.560E+01   -9.521E+01   -9.478E+01
    -9.431E+01   -9.379E+01   -9.323E+01   -9.263E+01   -9.201E+01   -9.135E+01   -9.067E+01   -8.997E+01   -8.926E+01   -8.853E+01
    -8.779E+01   -8.704E+01   -8.630E+01   -8.555E+01   -8.482E+01   -8.409E+01   -8.337E+01   -8.267E+01   -8.199E+01   -8.134E+01
    -8.071E+01   -8.012E+01   -7.955E+01   -7.901E+01   -7.851E+01   -7.804E+01   -7.760E+01   -7.719E+01   -7.682E+01   -7.648E+01
    -7.618E+01   -7.591E+01   -7.568E+01   -7.548E+01   -7.533E+01   -7.521E+01   -7.513E+01   -7.509E+01   -7.508E+01   -7.512E+01
    -7.520E+01   -7.532E+01   -7.549E+01   -7.569E+01   -7.594E+01   -7.624E+01   -7.657E+01   -7.696E+01   -7.739E+01   -7.786E+01
    -7.838E+01   -7.895E+01   -7.956E+01   -8.020E+01   -8.088E+01   -8.158E+01   -8.232E+01   -8.307E+01   -8.384E+01   -8.463E+01
    -8.543E+01   -8.623E+01   -8.704E+01   -8.785E+01   -8.865E+01   -8.945E+01   -9.023E+01   -9.101E+01   -9.176E+01   -9.249E+01
    -9.319E+01   -9.386E+01   -9.450E+01   -9.510E+01   -9.566E+01   -9.618E+01   -9.664E+01   -9.706E+01   -9.742E+01   -9.771E+01
    -9.795E+01   -9.812E+01   -9.823E+01   -9.828E+01   -9.827E+01   -9.821E+01   -9.808E+01   -9.790E+01   -9.767E+01   -9.738E+01
    -9.704E+01   -9.665E+01   -9.621E+01   -9.572E+01   -9.518E+01   -9.460E+01   -9.398E+01   -9.331E+01   -9.260E+01   -9.184E+01
    -9.105E+01   -9.022E+01   -8.935E+01   -8.845E+01   -8.751E+01   -8.653E+01   -8.553E+01   -8.449E+01   -8.343E+01   -8.233E+01
    -8.121E+01   -8.007E+01   -7.890E+01   -7.773E+01   -7.654E+01   -7.536E+01   -7.417E+01   -7.299E+01   -7.183E+01   -7.068E+01
    -6.955E+01   -6.845E+01   -6.737E+01   -6.634E+01   -6.535E+01   -6.440E+01   -6.351E+01   -6.267E+01   -6.189E+01   -6.118E+01
    -6.054E+01   -5.997E+01   -5.949E+01   -5.909E+01   -5.878E+01   -5.857E+01   -5.846E+01   -5.845E+01   -5.856E+01   -5.878E+01
    -5.912E+01   -5.957E+01   -6.014E+01   -6.081E+01   -6.158E+01   -6.245E+01   -6.341E+01   -6.446E+01   -6.558E+01   -6.679E+01
    -6.806E+01   -6.940E+01   -7.079E+01   -7.225E+01   -7.375E+01   -7.530E+01   -7.689E+01   -7.851E+01   -8.017E+01   -8.185E+01
    -8.354E+01   -8.526E+01   -8.698E+01   -8.871E+01   -9.044E+01   -9.216E+01   -9.388E+01   -9.557E+01   -9.725E+01   -9.890E+01
 Mac      Conc. = 2.04E-04
   3.68069E+01  2.56613E+01  1.44684E+01  3.38613E+00 -7.45838E+00 -1.80834E+01 -2.85050E+01 -3.87268E+01 -4.87667E+01 -5.86150E+01
  -6.82289E+01 -7.75380E+01 -8.65165E+01 -9.51582E+01 -1.03488E+02 -1.11556E+02 -1.19404E+02 -1.27051E+02 -1.34471E+02 -1.41667E+02
  -1.48621E+02 -1.55325E+02 -1.61774E+02 -1.67981E+02 -1.73972E+02 -1.79737E+02 -1.85298E+02 -1.90656E+02 -1.95731E+02 -2.00417E+02
  -2.04661E+02 -2.08491E+02 -2.11969E+02 -2.15147E+02 -2.18055E+02 -2.20709E+02 -2.23096E+02 -2.25186E+02 -2.26987E+02 -2.28509E+02
  -2.29766E+02 -2.30792E+02 -2.31598E+02 -2.32171E+02 -2.32517E+02 -2.32611E+02 -2.32401E+02 -2.31896E+02 -2.31162E+02 -2.30222E+02
  -2.29115E+02 -2.27824E+02 -2.26324E+02 -2.24615E+02 -2.22732E+02 -2.20692E+02 -2.18461E+02 -2.16036E+02 -2.13445E+02 -2.10723E+02
  -2.07898E+02 -2.05001E+02 -2.02051E+02 -1.99069E+02 -1.96052E+02 -1.92982E+02 -1.89887E+02 -1.86793E+02 -1.83684E+02 -1.80535E+02
  -1.77357E+02 -1.74131E+02 -1.70893E+02 -1.67632E+02 -1.64371E+02 -1.61111E+02 -1.57888E+02 -1.54720E+02 -1.51603E+02 -1.48509E+02
  -1.45467E+02 -1.42503E+02 -1.39627E+02 -1.36866E+02 -1.34229E+02 -1.31712E+02 -1.29317E+02 -1.27088E+02 -1.25067E+02 -1.23294E+02
  -1.21809E+02 -1.20635E+02 -1.19814E+02 -1.19287E+02 -1.18958E+02 -1.18736E+02 -1.18558E+02 -1.18396E+02 -1.18222E+02 -1.18018E+02
  -1.17736E+02 -1.17303E+02 -1.16641E+02 -1.15698E+02 -1.14462E+02 -1.12965E+02 -1.11224E+02 -1.09241E+02 -1.06997E+02 -1.04471E+02
