 
 $NMID
 ID=''
 FMTDAT='(2E13.5)'
 TRAMP=   1.00000E+0
 VOLUME=   1.00000E+0
 $END
  -5.13861E+5   4.79064E+5
  -1.67550E+6   6.76303E+5
  -1.55006E+6   8.04182E+5
  -1.56027E+6   6.64899E+5
  -1.66138E+6   7.02362E+5
  -1.55375E+6   7.34379E+5
  -1.50787E+6   6.18387E+5
  -1.59785E+6   6.00075E+5
  -1.57712E+6   6.50046E+5
  -1.53314E+6   6.22838E+5
  -1.53279E+6   6.01167E+5
  -1.51187E+6   5.80512E+5
  -1.51800E+6   5.50713E+5
  -1.52297E+6   5.72288E+5
  -1.47775E+6   5.74242E+5
  -1.46318E+6   5.35639E+5
  -1.48134E+6   5.29090E+5
  -1.46456E+6   5.22227E+5
  -1.45446E+6   4.94919E+5
  -1.45359E+6   4.86908E+5
  -1.43415E+6   4.67650E+5
  -1.42952E+6   4.41058E+5
  -1.43005E+6   4.38373E+5
  -1.41433E+6   4.26763E+5
  -1.40388E+6   4.02135E+5
  -1.39400E+6   4.02194E+5
  -1.38115E+6   3.96130E+5
  -1.37670E+6   3.83038E+5
  -1.36551E+6   3.78801E+5
  -1.34671E+6   3.73807E+5
  -1.34334E+6   3.58124E+5
  -1.33739E+6   3.47650E+5
  -1.32394E+6   3.34007E+5
  -1.31566E+6   3.22463E+5
  -1.30580E+6   3.14402E+5
  -1.29562E+6   3.00189E+5
  -1.29206E+6   2.85419E+5
  -1.28344E+6   2.75776E+5
  -1.26962E+6   2.65685E+5
  -1.26240E+6   2.55921E+5
  -1.25264E+6   2.49143E+5
  -1.24040E+6   2.41646E+5
  -1.23087E+6   2.36677E+5
  -1.22190E+6   2.32467E+5
  -1.21022E+6   2.25298E+5
  -1.20245E+6   2.19196E+5
  -1.19456E+6   2.11487E+5
  -1.18428E+6   1.99188E+5
  -1.17261E+6   1.89028E+5
  -1.16292E+6   1.81208E+5
  -1.15490E+6   1.71610E+5
  -1.14647E+6   1.60833E+5
  -1.13701E+6   1.51923E+5
  -1.12854E+6   1.43164E+5
  -1.11999E+6   1.34211E+5
  -1.11033E+6   1.25528E+5
  -1.10062E+6   1.17518E+5
  -1.09079E+6   1.11145E+5
  -1.08092E+6   1.05913E+5
  -1.07214E+6   9.89560E+4
  -1.06351E+6   9.15709E+4
  -1.05436E+6   8.50491E+4
  -1.04608E+6   7.76714E+4
  -1.03656E+6   6.90939E+4
  -1.02582E+6   6.07901E+4
  -1.01508E+6   5.43798E+4
  -1.00526E+6   4.72221E+4
  -9.96042E+5   4.03552E+4
  -9.87942E+5   3.37611E+4
  -9.79605E+5   2.69367E+4
  -9.69581E+5   1.99234E+4
  -9.59419E+5   1.41993E+4
  -9.51233E+5   9.72180E+3
  -9.43198E+5   3.86894E+3
  -9.33480E+5  -2.51403E+3
  -9.23303E+5  -8.18704E+3
  -9.14811E+5  -1.33212E+4
  -9.06384E+5  -1.96567E+4
  -8.96414E+5  -2.64349E+4
  -8.86359E+5  -3.32634E+4
  -8.76848E+5  -3.95816E+4
  -8.67937E+5  -4.51619E+4
  -8.58931E+5  -5.07992E+4
  -8.49763E+5  -5.70238E+4
  -8.40429E+5  -6.33207E+4
  -8.31261E+5  -6.78713E+4
  -8.22742E+5  -7.20557E+4
  -8.14226E+5  -7.64741E+4
  -8.05323E+5  -8.07285E+4
  -7.96752E+5  -8.41118E+4
  -7.88522E+5  -8.71795E+4
  -7.80525E+5  -9.09735E+4
  -7.71825E+5  -9.55647E+4
  -7.62533E+5  -9.99214E+4
  -7.53554E+5  -1.03648E+5
  -7.45166E+5  -1.07134E+5
  -7.37202E+5  -1.10780E+5
  -7.29032E+5  -1.14791E+5
  -7.20327E+5  -1.18591E+5
  -7.12534E+5  -1.21470E+5
  -7.05177E+5  -1.24151E+5
  -6.97907E+5  -1.27539E+5
  -6.89304E+5  -1.30403E+5
  -6.80594E+5  -1.32352E+5
  -6.73221E+5  -1.33430E+5
  -6.67040E+5  -1.35002E+5
  -6.59844E+5  -1.37325E+5
  -6.51776E+5  -1.39530E+5
  -6.43403E+5  -1.40827E+5
  -6.36123E+5  -1.41613E+5
  -6.29423E+5  -1.42635E+5
  -6.22832E+5  -1.44914E+5
  -6.15729E+5  -1.47585E+5
  -6.08114E+5  -1.49474E+5
  -6.01042E+5  -1.51041E+5
  -5.94175E+5  -1.52817E+5
  -5.87043E+5  -1.54942E+5
  -5.79194E+5  -1.56292E+5
  -5.71557E+5  -1.56728E+5
  -5.65424E+5  -1.57025E+5
  -5.59421E+5  -1.57848E+5
  -5.52988E+5  -1.58895E+5
  -5.46062E+5  -1.59961E+5
  -5.39581E+5  -1.61133E+5
  -5.32828E+5  -1.62136E+5
  -5.25731E+5  -1.62908E+5
  -5.19239E+5  -1.63241E+5
  -5.12658E+5  -1.63962E+5
  -5.06246E+5  -1.65077E+5
  -4.99811E+5  -1.66314E+5
  -4.93226E+5  -1.68139E+5
  -4.86239E+5  -1.69699E+5
  -4.79387E+5  -1.70224E+5
  -4.73342E+5  -1.70984E+5
  -4.67044E+5  -1.72487E+5
  -4.60323E+5  -1.73619E+5
  -4.54093E+5  -1.74363E+5
  -4.48116E+5  -1.75076E+5
  -4.42548E+5  -1.76608E+5
  -4.36084E+5  -1.78113E+5
  -4.29301E+5  -1.79065E+5
  -4.23201E+5  -1.79047E+5
  -4.17348E+5  -1.79439E+5
  -4.11904E+5  -1.80678E+5
  -4.06255E+5  -1.82068E+5
  -3.99891E+5  -1.82808E+5
  -3.94104E+5  -1.83282E+5
  -3.88453E+5  -1.84151E+5
  -3.82680E+5  -1.84366E+5
  -3.77138E+5  -1.84863E+5
  -3.71627E+5  -1.85486E+5
  -3.66379E+5  -1.85495E+5
  -3.61761E+5  -1.85678E+5
  -3.56709E+5  -1.86349E+5
  -3.51603E+5  -1.86672E+5
  -3.46121E+5  -1.86662E+5
  -3.41481E+5  -1.86745E+5
  -3.36587E+5  -1.87258E+5
  -3.31509E+5  -1.87358E+5
  -3.26846E+5  -1.87159E+5
  -3.21948E+5  -1.86855E+5
  -3.17668E+5  -1.87091E+5
  -3.12380E+5  -1.87227E+5
  -3.07662E+5  -1.86889E+5
  -3.03314E+5  -1.86378E+5
  -2.99308E+5  -1.85901E+5
  -2.95164E+5  -1.86051E+5
  -2.91152E+5  -1.86523E+5
  -2.86538E+5  -1.85990E+5
  -2.82581E+5  -1.85660E+5
  -2.78595E+5  -1.84976E+5
  -2.74763E+5  -1.84657E+5
  -2.70952E+5  -1.84385E+5
  -2.66931E+5  -1.84135E+5
  -2.62784E+5  -1.83622E+5
  -2.59479E+5  -1.83433E+5
  -2.55977E+5  -1.83447E+5
  -2.51281E+5  -1.83365E+5
  -2.47547E+5  -1.82492E+5
  -2.44153E+5  -1.82141E+5
  -2.40803E+5  -1.82102E+5
  -2.37046E+5  -1.81878E+5
  -2.33016E+5  -1.81927E+5
  -2.29409E+5  -1.81393E+5
  -2.26231E+5  -1.81037E+5
  -2.22285E+5  -1.80276E+5
  -2.18771E+5  -1.79915E+5
  -2.15492E+5  -1.79080E+5
  -2.12548E+5  -1.78360E+5
  -2.09810E+5  -1.78052E+5
  -2.06335E+5  -1.78122E+5
  -2.02420E+5  -1.77945E+5
  -1.98498E+5  -1.77338E+5
  -1.95263E+5  -1.76424E+5
  -1.92387E+5  -1.75983E+5
  -1.89142E+5  -1.75507E+5
  -1.85554E+5  -1.75301E+5
  -1.82121E+5  -1.74700E+5
  -1.79224E+5  -1.74302E+5
  -1.75630E+5  -1.73806E+5
  -1.71868E+5  -1.73326E+5
  -1.68445E+5  -1.72594E+5
  -1.65359E+5  -1.71687E+5
  -1.62332E+5  -1.71085E+5
  -1.59386E+5  -1.70600E+5
  -1.56039E+5  -1.70295E+5
  -1.52561E+5  -1.69508E+5
  -1.49378E+5  -1.68634E+5
  -1.46714E+5  -1.67792E+5
  -1.43213E+5  -1.67334E+5
  -1.40100E+5  -1.66545E+5
  -1.36808E+5  -1.65529E+5
  -1.34123E+5  -1.64768E+5
  -1.31037E+5  -1.64450E+5
  -1.27654E+5  -1.63948E+5
  -1.24535E+5  -1.62364E+5
  -1.21651E+5  -1.61376E+5
  -1.18905E+5  -1.60148E+5
  -1.16285E+5  -1.59169E+5
  -1.13151E+5  -1.58384E+5
  -1.10855E+5  -1.57511E+5
  -1.08072E+5  -1.56450E+5
  -1.05315E+5  -1.55294E+5
  -1.02525E+5  -1.54345E+5
  -9.95312E+4  -1.53127E+5
  -9.70120E+4  -1.51685E+5
  -9.49298E+4  -1.50671E+5
  -9.24118E+4  -1.49753E+5
  -8.97702E+4  -1.48750E+5
  -8.73939E+4  -1.47637E+5
  -8.47563E+4  -1.46261E+5
  -8.26604E+4  -1.44807E+5
  -8.04136E+4  -1.43938E+5
  -7.79886E+4  -1.42664E+5
  -7.61581E+4  -1.41245E+5
  -7.40190E+4  -1.39920E+5
  -7.22911E+4  -1.38882E+5
  -7.00761E+4  -1.37799E+5
  -6.78145E+4  -1.36342E+5
  -6.58994E+4  -1.35014E+5
  -6.43766E+4  -1.33599E+5
  -6.25142E+4  -1.32684E+5
  -6.03314E+4  -1.31354E+5
  -5.86953E+4  -1.30174E+5
  -5.68848E+4  -1.28679E+5
  -5.51701E+4  -1.27598E+5
  -5.35465E+4  -1.26398E+5
  -5.17085E+4  -1.24966E+5
  -5.03167E+4  -1.23393E+5
  -4.86901E+4  -1.22111E+5
  -4.72197E+4  -1.21091E+5
  -4.55655E+4  -1.19804E+5
  -4.39727E+4  -1.18609E+5
  -4.22914E+4  -1.17332E+5
  -4.11160E+4  -1.15600E+5
  -3.97399E+4  -1.14636E+5
  -3.83410E+4  -1.13547E+5
  -3.67303E+4  -1.12445E+5
  -3.51340E+4  -1.10847E+5
  -3.36870E+4  -1.09844E+5
  -3.21639E+4  -1.09053E+5
  -3.08323E+4  -1.07372E+5
  -2.94630E+4  -1.05893E+5
  -2.81913E+4  -1.04649E+5
  -2.70578E+4  -1.03591E+5
  -2.54548E+4  -1.02583E+5
  -2.43096E+4  -1.01464E+5
  -2.28543E+4  -1.00074E+5
  -2.17399E+4  -9.87215E+4
  -2.07680E+4  -9.76056E+4
  -1.95153E+4  -9.62410E+4
  -1.81327E+4  -9.50814E+4
  -1.72150E+4  -9.39805E+4
  -1.60996E+4  -9.26913E+4
  -1.48940E+4  -9.18861E+4
  -1.35084E+4  -9.03449E+4
  -1.24117E+4  -8.91372E+4
  -1.14939E+4  -8.76950E+4
  -1.05178E+4  -8.65345E+4
  -9.61148E+3  -8.58629E+4
  -8.42987E+3  -8.43574E+4
  -7.29412E+3  -8.31257E+4
  -6.76534E+3  -8.21222E+4
  -5.84967E+3  -8.11174E+4
  -4.64803E+3  -7.99160E+4
  -3.99294E+3  -7.83476E+4
  -3.08687E+3  -7.74523E+4
  -2.70389E+3  -7.63827E+4
  -1.72934E+3  -7.52112E+4
  -1.06135E+3  -7.42814E+4
  -1.51538E+2  -7.32714E+4
   6.46550E+2  -7.18857E+4
   1.13811E+3  -7.09209E+4
   1.89527E+3  -6.96261E+4
   2.27287E+3  -6.86829E+4
   3.20041E+3  -6.74647E+4
   3.59392E+3  -6.65579E+4
   4.03319E+3  -6.55591E+4
   4.76715E+3  -6.45865E+4
   5.41263E+3  -6.32921E+4
   5.91712E+3  -6.22051E+4
   6.15841E+3  -6.11821E+4
   6.58461E+3  -6.05268E+4
   7.26000E+3  -5.93812E+4
   7.65216E+3  -5.83920E+4
   8.03564E+3  -5.72778E+4
   8.16604E+3  -5.64682E+4
   8.57572E+3  -5.55836E+4
   9.06751E+3  -5.47060E+4
   9.24140E+3  -5.35058E+4
   9.73113E+3  -5.29728E+4
   1.00169E+4  -5.18877E+4
   1.05365E+4  -5.11277E+4
   1.06341E+4  -5.01715E+4
   1.10664E+4  -4.92537E+4
   1.11016E+4  -4.84732E+4
   1.15793E+4  -4.77892E+4
   1.18227E+4  -4.67421E+4
   1.17718E+4  -4.57017E+4
   1.23022E+4  -4.52334E+4
   1.25110E+4  -4.43774E+4
   1.25763E+4  -4.33562E+4
   1.28409E+4  -4.25952E+4
   1.30954E+4  -4.19373E+4
   1.31289E+4  -4.10773E+4
   1.34596E+4  -4.05129E+4
   1.33875E+4  -3.97264E+4
   1.36880E+4  -3.85174E+4
   1.39202E+4  -3.83140E+4
   1.40174E+4  -3.72553E+4
   1.39226E+4  -3.67674E+4
   1.44762E+4  -3.59006E+4
   1.41545E+4  -3.52132E+4
   1.44423E+4  -3.44783E+4
   1.45463E+4  -3.39970E+4
   1.48544E+4  -3.33091E+4
   1.49294E+4  -3.26969E+4
   1.48282E+4  -3.18050E+4
   1.47428E+4  -3.11264E+4
   1.47989E+4  -3.07910E+4
   1.50548E+4  -3.01620E+4
   1.52308E+4  -2.92949E+4
   1.52965E+4  -2.88424E+4
   1.49949E+4  -2.80241E+4
   1.55317E+4  -2.75248E+4
   1.49927E+4  -2.69744E+4
   1.53548E+4  -2.63810E+4
   1.54860E+4  -2.57892E+4
   1.56324E+4  -2.53058E+4
   1.56422E+4  -2.47792E+4
   1.56062E+4  -2.41770E+4
   1.57037E+4  -2.39236E+4
   1.57089E+4  -2.29880E+4
   1.58966E+4  -2.28802E+4
   1.59020E+4  -2.23409E+4
   1.59870E+4  -2.16706E+4
   1.59304E+4  -2.12412E+4
   1.57770E+4  -2.09370E+4
   1.60453E+4  -2.03444E+4
   1.59430E+4  -1.99489E+4
   1.60559E+4  -1.92912E+4
   1.60583E+4  -1.90094E+4
   1.60131E+4  -1.84217E+4
   1.62513E+4  -1.78277E+4
   1.60445E+4  -1.74481E+4
   1.61079E+4  -1.71668E+4
   1.60318E+4  -1.65116E+4
