 
 $NMID
 ID=''
 FMTDAT='(2E13.5)'
 TRAMP=   1.00000E+0
 VOLUME=   1.00000E+0
 $END
  -1.19813E+3   5.57460E+3
   9.48849E+3  -3.28120E+3
   2.45748E+3   9.99418E+2
   4.98417E+2   3.91478E+3
  -1.02966E+3  -3.40723E+3
  -1.31404E+3  -9.91709E+2
   1.50624E+3   5.05956E+3
   8.01583E+2   2.46475E+3
  -7.92735E+2  -2.59921E+2
  -8.41779E+2  -6.97365E+2
  -2.28397E+3  -1.60725E+3
  -2.04742E+3   3.96910E+2
   1.22276E+3   1.62222E+3
   1.38155E+3  -1.73320E+3
   8.44316E+2  -2.70552E+3
   1.20973E+3   2.61280E+2
  -8.19546E+2   1.66089E+3
  -1.14411E+3   6.03717E+2
   1.95763E+3   1.38135E+2
   9.63867E+2  -3.99321E+2
  -1.22734E+3  -4.37232E+2
  -2.24021E+2   3.21717E+2
  -1.72651E+2   1.16951E+3
  -3.28363E+2   3.05465E+2
   1.26897E+3  -1.05644E+3
   6.92986E+2  -4.23717E+2
  -1.73449E+3   8.58346E+2
  -1.44086E+3  -2.50044E+2
   6.13640E+2  -7.09757E+2
   7.68174E+2   2.16860E+2
  -4.71340E+2   4.93752E+1
  -1.02135E+3  -4.70732E+2
  -4.54350E+2  -6.75261E+2
   4.77885E+2  -6.81879E+2
   1.35033E+3  -2.40961E+2
   7.37813E+2   1.07600E+3
  -1.28748E+3   8.34577E+2
  -1.16530E+3  -7.28965E+2
   2.34645E+2  -4.14356E+2
   1.41195E+2   6.60531E+2
  -4.45926E+2  -3.91215E+2
   2.89636E+2  -5.74206E+2
   7.98770E+2   4.82908E+2
  -1.43179E+2   1.15848E+3
  -5.29962E+2   6.28542E+2
  -8.83764E+2   1.36251E+1
  -1.00539E+3  -3.43310E+2
  -2.14462E+2  -4.35787E+2
   5.87546E+2  -4.74170E+2
   4.21020E+2  -1.31253E+2
   1.95672E+2   6.48770E+1
   3.04416E+2   2.08320E+2
   3.61725E+2   3.97593E+2
  -3.29273E+2   5.62991E+2
  -1.60780E+2   1.68241E+2
  -7.80372E+1  -3.07299E+2
  -1.12753E+2  -4.11050E+2
   1.67670E+2  -1.10797E+2
   1.61359E+2   4.58712E+2
   5.40877E+2   7.38198E+2
   5.92167E+1   3.42876E+2
  -4.85216E+2  -8.94809E+1
  -5.32007E+2  -6.41513E+2
  -1.96900E+2  -8.57084E+2
   1.06950E+2  -4.87117E+2
   3.92527E+2  -2.19012E+2
   9.45399E+2  -3.84238E+1
   8.90111E+2   1.46713E+2
  -4.92610E+1   3.60345E+2
  -8.59472E+2  -2.78544E+2
  -3.40539E+2  -4.17147E+2
   1.41581E+2   8.90490E+1
  -2.19193E+2   9.55131E+2
  -4.23218E+2   1.98883E+2
  -1.83345E+2  -5.25872E+2
   2.93679E+2  -3.47871E+2
  -1.15491E+2  -5.41429E+1
  -6.00543E+2  -3.62257E+2
  -1.74779E+2  -1.96533E+2
   1.67564E+2  -3.12695E+2
   2.51901E+2  -2.34084E+1
   1.07691E+2   5.30956E+1
   1.26170E+2  -1.62876E+2
   4.22873E+1  -5.13000E+1
   2.18309E+2   1.17054E+2
  -7.52829E+1   5.57202E+2
  -2.52889E+2   1.32931E+2
  -2.06755E+2  -7.44890E-1
   1.23176E+2   3.61341E+1
  -2.61295E+2   1.08763E+2
  -3.85237E+2   3.59877E+2
  -2.14502E+2  -8.53238E+1
  -8.43599E+1  -2.69683E+2
   2.65344E+2  -3.49443E+2
   3.46022E+2  -1.20501E+2
   3.85562E+2   3.76228E+2
   1.55269E+2   3.32224E+2
  -3.15308E+2   5.00646E+1
   1.19101E+2   2.19941E+2
   1.61440E+2   6.97518E+2
  -1.15514E+2   1.61719E+2
  -1.40636E+2  -3.46443E+2
   5.97190E+1  -2.02760E+2
   2.66271E+2  -1.33331E+2
   1.60860E+2   2.32441E+2
  -1.85768E+2   2.03485E+2
  -1.59957E+2   1.61739E+1
   3.44705E+2  -3.66029E+2
   5.70174E+2  -2.58121E+2
   2.52627E+2   2.30212E+2
  -7.23553E+1   1.94737E+2
  -2.78340E+2  -4.11715E+1
  -5.73372E+1  -1.57464E+2
   1.06095E+2   8.71237E+1
   2.57251E+1   2.79390E+2
   8.24524E+1  -9.84723E+1
   2.25772E+2  -3.93107E+2
   2.72900E+2  -2.50308E+2
   1.47851E+2   2.97448E+1
   1.74839E+2   2.55748E+2
   3.05390E+1   3.49370E+2
   1.95598E+1   1.27649E+2
  -3.38644E+1   2.47123E+0
   8.43268E+1  -9.38876E+1
   3.09220E+1  -2.81871E+2
   1.35514E+2   6.81613E+1
   2.19211E+2   1.71521E+1
  -2.31410E+1  -1.52495E+2
   1.91585E+2   1.60359E+2
   1.04103E+1  -9.41110E+1
  -2.46910E+2  -7.27666E+1
   1.06635E+2  -1.22840E+2
   8.27556E+1   7.67093E+1
  -3.41719E+1   8.23159E+1
   3.41712E+1  -4.09774E+0
  -2.57814E+1  -2.19131E+1
   4.70164E+1  -1.22278E+2
  -1.38469E+2   1.42463E+2
  -6.29595E+1  -8.88164E+1
  -1.10908E+2  -2.47965E+2
   1.11808E+1   1.16442E+2
   1.77331E+2   4.84375E+1
   2.12207E+2   1.91556E+0
  -5.09850E+1  -1.13102E+2
  -2.27748E+2  -2.69037E+2
   6.51316E+1  -6.88484E+1
  -2.34755E+1   1.32073E+1
  -2.46320E+2   2.63340E+1
   1.60470E+2  -1.02403E+2
   5.89416E+1  -1.87069E+2
  -8.43222E+1   2.24720E+2
   1.70109E+2  -1.20882E+2
   5.21214E+1   6.39153E+1
  -1.31204E+2   3.08476E+1
  -1.02680E+2  -2.38247E+2
  -1.14495E+1   2.35015E+2
   1.63803E+2  -1.00340E+2
  -2.19103E+1  -3.86589E+1
  -3.57124E+1   1.02345E+2
  -1.63691E+2  -3.65810E+1
   2.03828E+1   1.19675E+2
   6.31094E+1   1.41269E+2
  -1.57562E+2  -1.32831E+2
  -2.61317E+2  -8.37585E+1
  -3.59101E+1  -1.55879E+2
  -3.44649E+2   3.63329E+0
  -1.59187E+2   5.08355E+1
  -4.67960E+1  -5.52307E+1
   1.48920E+2   4.87668E+1
  -1.31418E+2   3.84026E+1
   1.45435E+1   7.93702E+1
  -9.35128E+1  -1.50234E+1
  -2.19218E+2   1.02847E+2
  -9.62567E+1   1.88538E+2
  -2.35495E+2   1.60010E+1
  -9.52852E+1   8.18234E+1
  -7.61470E+1  -1.87113E+2
   1.75051E+2  -2.48625E+2
  -6.04926E+1  -5.35476E+1
   1.50323E+0  -1.67661E+1
  -3.28498E+2   7.38919E+1
   2.81507E+0  -5.67098E+1
  -1.85077E+2   1.59094E+2
  -5.32980E+1   1.45205E+1
  -1.28249E+2   2.14302E+1
  -5.60101E+1  -1.32372E+2
   2.47973E+2   1.65673E+2
  -2.66984E+2  -1.30607E+2
   1.16249E+2   5.93700E+1
   4.74559E+1  -4.09349E+0
  -3.80424E+1   1.85767E+2
  -2.48819E+2   6.01333E+1
  -7.95071E+0  -3.91751E+2
   1.00086E+2  -4.51580E+1
  -2.56490E+1   2.38728E+1
  -2.96471E+2  -6.63594E+1
  -1.93873E+2   1.31585E+2
  -9.18271E+1  -1.39394E+2
  -1.01509E+2   1.79935E+2
  -2.73728E+1  -8.93908E+1
  -2.37982E+2  -2.63069E+2
   1.03866E+2  -1.96854E+2
   9.14785E+1   1.30245E+2
  -2.47355E+1   1.96042E+2
  -1.90438E+2   6.69477E+0
  -1.12356E+2  -2.01497E+2
  -2.64416E+2   9.72280E+1
  -1.93185E+2  -2.14266E+2
  -2.19949E+2   3.15514E+1
  -4.05534E+1   6.27902E+1
  -1.68982E+2   3.98619E+1
  -2.42723E+2   8.84444E+1
   3.18508E+1   1.09981E+2
  -2.47993E+2   2.65353E+2
  -1.69566E+2   1.68823E+1
  -2.36775E+2  -1.16605E+2
   1.26100E+2  -1.75956E+2
  -7.72467E+1   5.64268E+1
   1.77871E+2   5.48659E+1
   1.31466E+2   2.82086E+1
  -8.99467E+1   2.30047E+2
  -2.82460E+1  -3.66675E+1
   6.89061E+1  -2.29212E+1
  -7.79380E+1  -1.77859E+1
  -2.04979E+2  -1.87410E+2
   7.62445E+1   8.04186E+1
  -1.33750E+2   5.74300E+1
  -2.76701E+2   4.22711E+1
  -9.77997E+0  -6.19016E+1
  -8.32382E+1  -2.25370E+2
  -2.01674E+2  -4.13018E+2
  -2.89722E+1  -5.07180E+0
  -1.23701E+2   1.94982E+2
  -2.07395E+2  -5.53657E+1
  -1.42887E+2  -6.84318E+1
  -3.01089E+1   1.31345E+2
  -1.32822E+2  -1.67457E+2
  -9.69112E+0  -4.24953E+0
   1.85730E+2   1.70889E+1
   6.79371E+1  -3.62575E+0
   1.42076E+2   1.48698E+2
  -6.28225E+1   1.30234E+2
  -1.82363E+2   6.27954E+1
  -1.99679E+2   1.54877E+1
  -5.97272E+1   9.35689E+1
   1.04130E+2  -1.36638E+2
  -1.29883E+2  -4.20759E+1
  -7.36935E+0  -1.67324E+2
   2.05795E+2  -9.79275E+1
   8.42458E+0   3.80991E+1
  -1.06416E+2   1.97437E+2
   1.45324E+2   1.49920E+2
  -1.40529E+2  -2.41351E+2
  -6.37803E+1   5.31931E+1
   2.25252E+2   3.40057E+2
  -3.31512E+1   1.41988E+1
   1.14865E+2   1.05797E+2
  -2.81196E+1   1.37729E+0
   1.02184E+2   3.60190E+1
  -1.74751E+2  -1.16278E+1
  -1.32801E+2   1.87695E+0
  -9.03735E+1   1.78245E+2
  -4.52656E+1  -1.49249E+2
   6.29775E+1  -2.75872E+2
   2.51816E+2   9.79802E+0
   2.23292E+1  -1.63661E+2
  -6.16646E+1   1.40201E+2
  -6.35332E+1  -1.74382E+2
  -6.47331E-1  -1.60479E+1
  -2.92985E+0  -9.22473E+1
   3.08932E+1  -2.56207E+1
   1.06245E+1  -6.57970E+1
  -1.63835E+2  -5.43232E+1
  -2.07582E+2   1.02551E+2
  -1.48628E+2  -6.11230E+1
  -7.47532E+1   6.97483E+1
   6.15054E+1  -2.40641E+1
   6.71979E+1   3.60381E+1
   6.03296E+1  -4.69280E+1
  -3.65603E+1   5.79695E+0
   7.87310E+1   1.18337E+2
  -4.48767E+0  -4.15910E+1
   4.15085E+1  -1.27102E+2
  -3.91818E+1   4.93379E+1
   1.22399E+2   1.50824E+1
  -1.24763E+2  -3.54255E+2
  -1.11568E+2  -1.44173E+2
   9.18086E+1   8.04611E+1
  -2.99170E+2   2.11638E+2
   4.47006E+1   1.31301E+2
  -4.42665E+1  -7.31274E+1
  -2.50903E+2   2.67212E+1
  -6.75484E+0  -3.01824E+1
  -5.71849E+1   1.71972E+2
   2.24602E+2   4.73329E+1
  -1.05327E+2  -1.05002E+2
   1.78445E+2  -2.52028E+1
  -8.40005E+1   1.17298E+2
   1.27776E+2   4.71478E+1
  -1.54543E+2  -1.12285E+2
   1.27043E+2   8.90645E+1
  -3.23045E+2  -1.48475E+2
   1.35100E+2  -4.46330E+1
  -1.14629E+2   7.70763E+1
   2.09115E+1   2.96597E+1
  -4.63171E+1   7.89501E+0
  -9.61029E+1   6.42362E+1
   7.80034E+1  -6.64768E+1
  -5.97578E+1   3.80046E+2
  -9.73081E+1   7.66890E+0
  -1.11596E+2   6.61507E+1
   1.05404E+2   1.80322E+2
  -6.13045E+1   1.27761E+2
  -1.40302E+2   1.71040E+2
  -1.82331E+2  -1.26802E+2
   3.18030E+1  -7.40423E+1
   1.02469E+2  -1.08802E+2
   1.58013E+2   1.72298E+2
   6.78170E+1   5.99755E+1
   1.61667E+2   1.06889E+2
   5.01084E+1  -4.77623E+1
  -1.45120E+0  -1.78943E+1
   5.49160E+1   1.12693E+2
   1.56254E+2  -6.96804E+0
  -2.74889E+1  -4.44669E+1
  -8.39018E+1   9.46486E+1
  -1.37440E+2   1.86845E+1
  -2.14279E+2   1.14031E+2
  -1.82797E+2  -1.16079E+2
   9.25250E+1  -3.04088E+1
   1.29606E+2  -5.77301E+1
   1.21219E+2  -1.69284E+2
  -9.52977E+1   1.63027E+2
   4.21541E+1   1.74288E+1
  -4.44547E+1   9.41571E+1
  -9.64898E+0  -9.01194E+1
  -7.40173E+1   5.17234E+1
  -1.93316E+2  -1.02863E+2
   8.08547E+1  -1.42449E+2
   1.82920E+2  -1.84218E+2
  -1.45893E+2   6.62059E+1
  -6.04037E+1   7.31100E+1
  -7.29808E+1   1.79852E+2
  -1.60812E+2  -3.67587E+1
  -6.45429E+1  -8.89801E+1
  -1.18108E+2  -1.38071E+2
  -3.76623E+1   1.92572E+2
   5.62505E+1   5.15575E+1
   4.77601E+1   6.79393E+1
  -1.48252E+2   1.10736E+2
   6.80186E+1   1.57090E+1
   1.47137E+2  -1.05198E+2
   1.77814E+2   2.21732E+1
   1.36741E+2  -6.57672E+0
  -3.03190E+2   7.29579E+1
  -1.60178E+2   9.77835E+1
   7.77191E+1  -2.25943E+2
  -2.14068E+1   6.31445E+1
  -2.36779E+2  -4.67916E+1
  -2.25415E+1   4.74668E+1
  -5.81676E+0   1.51594E+1
  -1.02576E+1  -2.01957E+2
   2.38361E+2   5.92544E+1
  -2.19868E+1   4.76633E+1
  -1.65330E+2   4.78792E+1
  -9.96675E+1   1.22216E+2
  -1.40943E+2   3.69296E+1
