 
 $NMID
 ID=''
 FMTDAT='(2E13.5)'
 TRAMP=   1.00000E+0
 VOLUME=   1.00000E+0
 $END
   5.40087E+5   5.30746E+5
   8.63049E+5   1.90305E+6
   1.06191E+6   1.75827E+6
   8.84752E+5   1.67725E+6
   8.46319E+5   1.79338E+6
   9.09690E+5   1.75773E+6
   8.57543E+5   1.70447E+6
   8.15588E+5   1.75295E+6
   8.10938E+5   1.74707E+6
   7.60422E+5   1.73804E+6
   7.28133E+5   1.75669E+6
   7.00052E+5   1.74184E+6
   6.53879E+5   1.74332E+6
   6.28585E+5   1.75643E+6
   5.89847E+5   1.73856E+6
   5.41672E+5   1.73803E+6
   5.22810E+5   1.75172E+6
   4.93529E+5   1.73800E+6
   4.51230E+5   1.73438E+6
   4.38139E+5   1.73836E+6
   4.11661E+5   1.72520E+6
   3.73942E+5   1.72248E+6
   3.53378E+5   1.72376E+6
   3.25592E+5   1.71323E+6
   2.87003E+5   1.70819E+6
   2.69527E+5   1.70260E+6
   2.40633E+5   1.69500E+6
   2.02089E+5   1.69287E+6
   1.73576E+5   1.68350E+6
   1.49852E+5   1.67089E+6
   1.20477E+5   1.66938E+6
   9.79463E+4   1.66182E+6
   7.20211E+4   1.64795E+6
   4.88799E+4   1.64128E+6
   3.29204E+4   1.63231E+6
   1.53098E+4   1.62191E+6
  -5.13030E+3   1.61813E+6
  -2.52835E+4   1.60906E+6
  -4.76955E+4   1.59491E+6
  -6.91169E+4   1.58717E+6
  -9.00648E+4   1.57591E+6
  -1.12493E+5   1.56140E+6
  -1.31982E+5   1.54981E+6
  -1.51168E+5   1.53958E+6
  -1.74007E+5   1.52572E+6
  -1.95564E+5   1.51539E+6
  -2.15828E+5   1.50431E+6
  -2.38531E+5   1.48939E+6
  -2.57721E+5   1.47317E+6
  -2.73731E+5   1.46065E+6
  -2.91371E+5   1.44803E+6
  -3.10393E+5   1.43509E+6
  -3.26890E+5   1.42221E+6
  -3.43874E+5   1.40906E+6
  -3.62556E+5   1.39424E+6
  -3.81364E+5   1.37963E+6
  -3.99153E+5   1.36376E+6
  -4.15979E+5   1.34694E+6
  -4.31982E+5   1.33122E+6
  -4.47412E+5   1.31714E+6
  -4.64448E+5   1.30123E+6
  -4.81213E+5   1.28594E+6
  -4.96730E+5   1.27112E+6
  -5.12504E+5   1.25389E+6
  -5.27782E+5   1.23548E+6
  -5.40615E+5   1.21848E+6
  -5.53131E+5   1.20114E+6
  -5.66575E+5   1.18353E+6
  -5.80656E+5   1.16877E+6
  -5.95184E+5   1.15235E+6
  -6.09215E+5   1.13335E+6
  -6.21413E+5   1.11514E+6
  -6.33274E+5   1.09910E+6
  -6.46783E+5   1.08236E+6
  -6.59774E+5   1.06353E+6
  -6.70711E+5   1.04467E+6
  -6.81427E+5   1.02772E+6
  -6.93249E+5   1.01020E+6
  -7.04644E+5   9.91729E+5
  -7.14354E+5   9.72738E+5
  -7.24415E+5   9.54266E+5
  -7.34071E+5   9.35681E+5
  -7.43760E+5   9.17379E+5
  -7.53442E+5   8.98297E+5
  -7.62883E+5   8.78627E+5
  -7.71408E+5   8.59580E+5
  -7.79535E+5   8.41370E+5
  -7.88097E+5   8.23250E+5
  -7.95564E+5   8.04168E+5
  -8.01720E+5   7.86087E+5
  -8.07251E+5   7.68385E+5
  -8.13416E+5   7.51235E+5
  -8.19925E+5   7.33441E+5
  -8.24224E+5   7.14931E+5
  -8.27732E+5   6.96693E+5
  -8.31090E+5   6.80220E+5
  -8.35188E+5   6.64026E+5
  -8.39547E+5   6.46717E+5
  -8.42787E+5   6.29276E+5
  -8.45078E+5   6.12782E+5
  -8.48644E+5   5.96469E+5
  -8.52611E+5   5.78940E+5
  -8.54643E+5   5.60717E+5
  -8.55190E+5   5.43360E+5
  -8.56107E+5   5.27463E+5
  -8.57628E+5   5.12429E+5
  -8.59437E+5   4.96286E+5
  -8.60567E+5   4.79217E+5
  -8.59772E+5   4.62547E+5
  -8.58464E+5   4.47621E+5
  -8.58356E+5   4.33215E+5
  -8.59529E+5   4.18134E+5
  -8.59751E+5   4.01124E+5
  -8.58917E+5   3.84906E+5
  -8.58136E+5   3.69623E+5
  -8.57549E+5   3.53453E+5
  -8.56865E+5   3.36917E+5
  -8.54616E+5   3.20740E+5
  -8.51235E+5   3.05842E+5
  -8.48943E+5   2.92049E+5
  -8.47684E+5   2.77820E+5
  -8.45621E+5   2.63337E+5
  -8.43172E+5   2.48799E+5
  -8.41023E+5   2.34556E+5
  -8.38260E+5   2.19726E+5
  -8.34242E+5   2.04763E+5
  -8.30702E+5   1.90622E+5
  -8.27543E+5   1.76538E+5
  -8.24151E+5   1.62436E+5
  -8.20872E+5   1.47869E+5
  -8.17969E+5   1.32631E+5
  -8.13259E+5   1.16691E+5
  -8.08325E+5   1.02821E+5
  -8.03719E+5   8.93565E+4
  -7.99474E+5   7.55450E+4
  -7.94847E+5   6.13780E+4
  -7.89464E+5   4.83413E+4
  -7.84658E+5   3.62023E+4
  -7.79932E+5   2.31357E+4
  -7.74530E+5   9.50939E+3
  -7.68335E+5  -3.44139E+3
  -7.61713E+5  -1.50840E+4
  -7.55681E+5  -2.57783E+4
  -7.50457E+5  -3.77690E+4
  -7.44896E+5  -5.03609E+4
  -7.38054E+5  -6.21827E+4
  -7.30645E+5  -7.35775E+4
  -7.23877E+5  -8.46383E+4
  -7.16539E+5  -9.50994E+4
  -7.09778E+5  -1.05646E+5
  -7.02133E+5  -1.15942E+5
  -6.94575E+5  -1.24945E+5
  -6.88093E+5  -1.33647E+5
  -6.81227E+5  -1.42989E+5
  -6.73774E+5  -1.52491E+5
  -6.65573E+5  -1.60894E+5
  -6.58397E+5  -1.68391E+5
  -6.51159E+5  -1.76733E+5
  -6.43506E+5  -1.84616E+5
  -6.35498E+5  -1.92044E+5
  -6.27645E+5  -1.99286E+5
  -6.19707E+5  -2.06505E+5
  -6.11231E+5  -2.13825E+5
  -6.02634E+5  -2.20504E+5
  -5.94155E+5  -2.26709E+5
  -5.86348E+5  -2.32149E+5
  -5.78730E+5  -2.38429E+5
  -5.70749E+5  -2.44797E+5
  -5.62295E+5  -2.50603E+5
  -5.53889E+5  -2.55727E+5
  -5.45685E+5  -2.60292E+5
  -5.37676E+5  -2.65355E+5
  -5.29583E+5  -2.70365E+5
  -5.21008E+5  -2.75328E+5
  -5.12319E+5  -2.79792E+5
  -5.04530E+5  -2.84117E+5
  -4.96249E+5  -2.89132E+5
  -4.87176E+5  -2.94053E+5
  -4.78023E+5  -2.97540E+5
  -4.69364E+5  -3.01135E+5
  -4.61631E+5  -3.04970E+5
  -4.53379E+5  -3.09501E+5
  -4.44272E+5  -3.13139E+5
  -4.35813E+5  -3.16663E+5
  -4.26847E+5  -3.19606E+5
  -4.18617E+5  -3.22461E+5
  -4.10113E+5  -3.25333E+5
  -4.01576E+5  -3.27627E+5
  -3.93292E+5  -3.29980E+5
  -3.85873E+5  -3.32255E+5
  -3.77888E+5  -3.35664E+5
  -3.68966E+5  -3.38792E+5
  -3.59779E+5  -3.41266E+5
  -3.51121E+5  -3.42793E+5
  -3.42419E+5  -3.44894E+5
  -3.34264E+5  -3.47092E+5
  -3.25791E+5  -3.49219E+5
  -3.17007E+5  -3.51050E+5
  -3.08590E+5  -3.52519E+5
  -3.00145E+5  -3.54954E+5
  -2.91204E+5  -3.56629E+5
  -2.81979E+5  -3.57424E+5
  -2.73681E+5  -3.57822E+5
  -2.65911E+5  -3.58999E+5
  -2.57772E+5  -3.60117E+5
  -2.49229E+5  -3.60804E+5
  -2.40606E+5  -3.61593E+5
  -2.32609E+5  -3.62185E+5
  -2.24566E+5  -3.62548E+5
  -2.16395E+5  -3.62842E+5
  -2.07781E+5  -3.63059E+5
  -1.99973E+5  -3.62796E+5
  -1.92504E+5  -3.62627E+5
  -1.84781E+5  -3.62866E+5
  -1.76750E+5  -3.63191E+5
  -1.68391E+5  -3.62557E+5
  -1.61042E+5  -3.61165E+5
  -1.53711E+5  -3.59915E+5
  -1.46579E+5  -3.59544E+5
  -1.39529E+5  -3.58675E+5
  -1.32296E+5  -3.57456E+5
  -1.25812E+5  -3.55723E+5
  -1.19025E+5  -3.54538E+5
  -1.11898E+5  -3.53369E+5
  -1.04785E+5  -3.51946E+5
  -9.81762E+4  -3.49801E+5
  -9.21114E+4  -3.47782E+5
  -8.62654E+4  -3.46359E+5
  -7.97354E+4  -3.44662E+5
  -7.32811E+4  -3.42671E+5
  -6.71047E+4  -3.40089E+5
  -6.16358E+4  -3.37992E+5
  -5.62063E+4  -3.35913E+5
  -5.05422E+4  -3.33401E+5
  -4.53251E+4  -3.31061E+5
  -4.01588E+4  -3.28369E+5
  -3.53063E+4  -3.26035E+5
  -2.99593E+4  -3.23643E+5
  -2.49242E+4  -3.20968E+5
  -1.99422E+4  -3.17854E+5
  -1.55833E+4  -3.14845E+5
  -1.11259E+4  -3.12742E+5
  -6.33202E+3  -3.10059E+5
  -1.50845E+3  -3.07292E+5
   2.75587E+3  -3.03900E+5
   6.78699E+3  -3.01030E+5
   1.09090E+4  -2.98344E+5
   1.54007E+4  -2.95280E+5
   1.93957E+4  -2.91967E+5
   2.30421E+4  -2.88646E+5
   2.67067E+4  -2.86130E+5
   3.05500E+4  -2.83176E+5
   3.47455E+4  -2.79977E+5
   3.83100E+4  -2.76431E+5
   4.15079E+4  -2.73147E+5
   4.47515E+4  -2.69838E+5
   4.84561E+4  -2.66793E+5
   5.21462E+4  -2.63839E+5
   5.56793E+4  -2.60555E+5
   5.91531E+4  -2.57074E+5
   6.28058E+4  -2.53912E+5
   6.62222E+4  -2.50342E+5
   6.95623E+4  -2.46651E+5
   7.24109E+4  -2.42687E+5
   7.51187E+4  -2.39804E+5
   7.80038E+4  -2.37109E+5
   8.16775E+4  -2.33323E+5
   8.43990E+4  -2.29324E+5
   8.69315E+4  -2.25976E+5
   8.93872E+4  -2.22825E+5
   9.22528E+4  -2.19221E+5
   9.47161E+4  -2.15648E+5
   9.71231E+4  -2.12298E+5
   9.95149E+4  -2.08862E+5
   1.02225E+5  -2.05759E+5
   1.04751E+5  -2.02224E+5
   1.07270E+5  -1.98322E+5
   1.09175E+5  -1.94970E+5
   1.10967E+5  -1.91187E+5
   1.13079E+5  -1.87923E+5
   1.15184E+5  -1.84423E+5
   1.16939E+5  -1.80956E+5
   1.18451E+5  -1.77653E+5
   1.20406E+5  -1.74091E+5
   1.22002E+5  -1.70781E+5
   1.23903E+5  -1.66400E+5
   1.24635E+5  -1.63212E+5
   1.25985E+5  -1.59985E+5
   1.27199E+5  -1.57095E+5
   1.28720E+5  -1.53635E+5
   1.29983E+5  -1.50303E+5
   1.31001E+5  -1.46797E+5
   1.32024E+5  -1.43398E+5
   1.32727E+5  -1.40319E+5
   1.33703E+5  -1.36879E+5
   1.34311E+5  -1.33598E+5
   1.34903E+5  -1.30744E+5
   1.35696E+5  -1.27778E+5
   1.36624E+5  -1.24436E+5
   1.37464E+5  -1.20830E+5
   1.37832E+5  -1.17982E+5
   1.38224E+5  -1.14947E+5
   1.38294E+5  -1.12153E+5
   1.38804E+5  -1.08783E+5
   1.39431E+5  -1.05694E+5
   1.39482E+5  -1.02496E+5
   1.39510E+5  -9.94309E+4
   1.39523E+5  -9.67614E+4
   1.39841E+5  -9.40009E+4
   1.39805E+5  -9.04899E+4
   1.39770E+5  -8.78907E+4
   1.39797E+5  -8.51223E+4
   1.39680E+5  -8.26714E+4
   1.40009E+5  -7.95642E+4
   1.39590E+5  -7.65035E+4
   1.39173E+5  -7.37404E+4
   1.38963E+5  -7.13279E+4
   1.38952E+5  -6.85674E+4
   1.38561E+5  -6.54206E+4
   1.38084E+5  -6.31808E+4
   1.37689E+5  -6.05712E+4
   1.37201E+5  -5.78954E+4
   1.36998E+5  -5.54539E+4
   1.36352E+5  -5.24499E+4
   1.35396E+5  -5.04358E+4
   1.35123E+5  -4.81913E+4
   1.35020E+5  -4.54701E+4
   1.34217E+5  -4.28540E+4
   1.33623E+5  -4.02739E+4
   1.32672E+5  -3.76574E+4
   1.31797E+5  -3.54872E+4
   1.31033E+5  -3.31227E+4
   1.30324E+5  -3.10754E+4
   1.29484E+5  -2.89088E+4
   1.28914E+5  -2.68306E+4
   1.28107E+5  -2.45273E+4
   1.27472E+5  -2.18413E+4
   1.26275E+5  -1.98441E+4
   1.25168E+5  -1.77019E+4
   1.24282E+5  -1.57255E+4
   1.23424E+5  -1.37758E+4
   1.22657E+5  -1.17878E+4
   1.21786E+5  -9.64572E+3
   1.20388E+5  -7.60379E+3
   1.19774E+5  -5.97801E+3
   1.18348E+5  -3.83841E+3
   1.17512E+5  -1.99864E+3
   1.16048E+5  -3.87316E+2
   1.15147E+5   1.17413E+3
   1.14129E+5   2.85460E+3
   1.13009E+5   4.42151E+3
   1.12110E+5   6.36888E+3
   1.10621E+5   8.00509E+3
   1.09307E+5   9.35757E+3
   1.08262E+5   1.08658E+4
   1.07162E+5   1.26925E+4
   1.05789E+5   1.40676E+4
   1.04647E+5   1.52632E+4
   1.03503E+5   1.67162E+4
   1.02623E+5   1.81113E+4
   1.01076E+5   1.97310E+4
   9.95546E+4   2.09711E+4
   9.83094E+4   2.19442E+4
   9.71609E+4   2.28923E+4
   9.61576E+4   2.41872E+4
   9.48629E+4   2.56696E+4
   9.36724E+4   2.67656E+4
