 
 $NMID
 ID=''
 FMTDAT='(2E13.5)'
 TRAMP=   1.00000E+0
 VOLUME=   1.00000E+0
 $END
   7.03833E+5  -5.94000E+4
   1.84482E+6   5.00616E+5
   1.82061E+6   3.04315E+5
   1.67549E+6   4.22771E+5
   1.76437E+6   4.88594E+5
   1.74679E+6   3.96610E+5
   1.67086E+6   4.35564E+5
   1.71164E+6   4.94578E+5
   1.69174E+6   4.69452E+5
   1.63282E+6   5.19783E+5
   1.64486E+6   5.68463E+5
   1.61808E+6   5.62042E+5
   1.57222E+6   6.02466E+5
   1.57058E+6   6.45076E+5
   1.53498E+6   6.57417E+5
   1.49325E+6   6.94196E+5
   1.49193E+6   7.24495E+5
   1.46524E+6   7.31749E+5
   1.43030E+6   7.56315E+5
   1.42357E+6   7.68484E+5
   1.39635E+6   7.75674E+5
   1.36627E+6   8.00333E+5
   1.35241E+6   8.17232E+5
   1.32338E+6   8.26815E+5
   1.29004E+6   8.49345E+5
   1.27239E+6   8.59932E+5
   1.24244E+6   8.75876E+5
   1.20801E+6   9.02197E+5
   1.17931E+6   9.15959E+5
   1.15073E+6   9.23488E+5
   1.12467E+6   9.41282E+5
   1.10016E+6   9.49246E+5
   1.07033E+6   9.54600E+5
   1.04612E+6   9.64126E+5
   1.02469E+6   9.65464E+5
   1.00297E+6   9.66020E+5
   9.83168E+5   9.73325E+5
   9.59377E+5   9.78163E+5
   9.30695E+5   9.80989E+5
   9.06115E+5   9.86978E+5
   8.79179E+5   9.90973E+5
   8.50548E+5   9.93899E+5
   8.24430E+5   9.96949E+5
   7.98016E+5   1.00039E+6
   7.69030E+5   1.00348E+6
   7.43030E+5   1.00721E+6
   7.16137E+5   1.00970E+6
   6.87201E+5   1.01074E+6
   6.61454E+5   1.00742E+6
   6.38957E+5   1.00511E+6
   6.15427E+5   1.00434E+6
   5.91541E+5   1.00265E+6
   5.68199E+5   9.99447E+5
   5.45367E+5   9.97818E+5
   5.21445E+5   9.94751E+5
   4.96048E+5   9.91023E+5
   4.70192E+5   9.87050E+5
   4.46605E+5   9.81635E+5
   4.23656E+5   9.76173E+5
   4.00850E+5   9.71636E+5
   3.77620E+5   9.66797E+5
   3.54708E+5   9.60417E+5
   3.32309E+5   9.54756E+5
   3.09907E+5   9.47670E+5
   2.88256E+5   9.38583E+5
   2.67985E+5   9.28929E+5
   2.48566E+5   9.20126E+5
   2.28889E+5   9.11478E+5
   2.09399E+5   9.03611E+5
   1.88586E+5   8.95551E+5
   1.68747E+5   8.85244E+5
   1.49458E+5   8.74684E+5
   1.31826E+5   8.65062E+5
   1.12911E+5   8.55910E+5
   9.40426E+4   8.44662E+5
   7.66231E+4   8.32894E+5
   6.03651E+4   8.22361E+5
   4.29903E+4   8.11167E+5
   2.64740E+4   7.98804E+5
   1.08332E+4   7.86696E+5
  -4.25716E+3   7.74112E+5
  -1.90944E+4   7.61591E+5
  -3.41245E+4   7.49078E+5
  -4.92814E+4   7.36407E+5
  -6.39956E+4   7.23059E+5
  -7.75620E+4   7.09609E+5
  -9.11614E+4   6.96767E+5
  -1.05300E+5   6.83153E+5
  -1.17907E+5   6.69344E+5
  -1.29491E+5   6.55980E+5
  -1.40243E+5   6.42453E+5
  -1.51378E+5   6.29028E+5
  -1.62304E+5   6.15326E+5
  -1.72065E+5   6.01429E+5
  -1.80873E+5   5.87185E+5
  -1.88917E+5   5.73633E+5
  -1.97585E+5   5.61319E+5
  -2.06096E+5   5.48189E+5
  -2.14003E+5   5.34306E+5
  -2.20931E+5   5.20990E+5
  -2.28435E+5   5.08496E+5
  -2.36398E+5   4.95088E+5
  -2.43611E+5   4.80668E+5
  -2.48797E+5   4.66628E+5
  -2.54457E+5   4.54229E+5
  -2.59740E+5   4.42534E+5
  -2.65447E+5   4.29283E+5
  -2.70450E+5   4.15652E+5
  -2.74112E+5   4.02589E+5
  -2.77079E+5   3.90974E+5
  -2.80670E+5   3.79479E+5
  -2.84873E+5   3.67178E+5
  -2.88382E+5   3.54768E+5
  -2.91230E+5   3.42800E+5
  -2.93836E+5   3.30897E+5
  -2.96619E+5   3.18929E+5
  -2.98938E+5   3.06992E+5
  -3.00212E+5   2.95170E+5
  -3.00831E+5   2.83990E+5
  -3.01901E+5   2.73602E+5
  -3.03287E+5   2.63129E+5
  -3.03893E+5   2.52342E+5
  -3.04176E+5   2.42075E+5
  -3.04290E+5   2.31350E+5
  -3.04161E+5   2.21036E+5
  -3.03032E+5   2.10405E+5
  -3.02366E+5   2.00224E+5
  -3.01401E+5   1.90585E+5
  -3.00704E+5   1.80738E+5
  -2.99670E+5   1.70961E+5
  -2.98407E+5   1.60493E+5
  -2.96485E+5   1.50440E+5
  -2.94209E+5   1.40955E+5
  -2.92368E+5   1.31995E+5
  -2.90193E+5   1.22547E+5
  -2.87824E+5   1.13303E+5
  -2.84801E+5   1.04783E+5
  -2.81811E+5   9.63138E+4
  -2.79278E+5   8.80678E+4
  -2.76408E+5   7.92887E+4
  -2.72804E+5   7.09519E+4
  -2.68864E+5   6.34272E+4
  -2.65559E+5   5.62407E+4
  -2.62269E+5   4.84889E+4
  -2.58754E+5   4.06471E+4
  -2.54622E+5   3.32199E+4
  -2.50679E+5   2.62249E+4
  -2.46758E+5   1.91846E+4
  -2.42247E+5   1.24721E+4
  -2.38066E+5   6.29495E+3
  -2.33588E+5   3.16649E+2
  -2.29355E+5  -5.92419E+3
  -2.25243E+5  -1.15008E+4
  -2.21120E+5  -1.71888E+4
  -2.16743E+5  -2.27731E+4
  -2.12172E+5  -2.77742E+4
  -2.07811E+5  -3.28321E+4
  -2.03423E+5  -3.72961E+4
  -1.98771E+5  -4.17748E+4
  -1.94304E+5  -4.62004E+4
  -1.90201E+5  -5.05655E+4
  -1.85254E+5  -5.48099E+4
  -1.80871E+5  -5.85285E+4
  -1.76307E+5  -6.22271E+4
  -1.71742E+5  -6.58408E+4
  -1.67533E+5  -6.89175E+4
  -1.63296E+5  -7.20201E+4
  -1.59219E+5  -7.53160E+4
  -1.54561E+5  -7.84926E+4
  -1.50066E+5  -8.06303E+4
  -1.46069E+5  -8.33230E+4
  -1.41909E+5  -8.55441E+4
  -1.37583E+5  -8.81494E+4
  -1.33178E+5  -8.97018E+4
  -1.29057E+5  -9.16887E+4
  -1.25193E+5  -9.37589E+4
  -1.20863E+5  -9.55310E+4
  -1.16461E+5  -9.74829E+4
  -1.12364E+5  -9.84397E+4
  -1.08756E+5  -9.96464E+4
  -1.04809E+5  -1.01205E+5
  -1.00675E+5  -1.02514E+5
  -9.65742E+4  -1.03428E+5
  -9.26993E+4  -1.04423E+5
  -8.86278E+4  -1.05124E+5
  -8.49951E+4  -1.05807E+5
  -8.12493E+4  -1.05997E+5
  -7.76394E+4  -1.06516E+5
  -7.41979E+4  -1.06907E+5
  -7.06856E+4  -1.07505E+5
  -6.72299E+4  -1.07652E+5
  -6.33019E+4  -1.07912E+5
  -5.97111E+4  -1.07930E+5
  -5.61172E+4  -1.08038E+5
  -5.27715E+4  -1.07773E+5
  -4.93477E+4  -1.07502E+5
  -4.58660E+4  -1.07499E+5
  -4.25284E+4  -1.07050E+5
  -3.92434E+4  -1.06822E+5
  -3.61238E+4  -1.06204E+5
  -3.27927E+4  -1.05994E+5
  -2.95117E+4  -1.05163E+5
  -2.65020E+4  -1.04082E+5
  -2.35174E+4  -1.03742E+5
  -2.04624E+4  -1.03092E+5
  -1.76529E+4  -1.02392E+5
  -1.46627E+4  -1.01197E+5
  -1.19520E+4  -1.00383E+5
  -8.95716E+3  -9.93508E+4
  -6.40174E+3  -9.86866E+4
  -3.50530E+3  -9.72688E+4
  -1.05215E+3  -9.59586E+4
   1.13717E+3  -9.52236E+4
   4.01446E+3  -9.42591E+4
   6.47097E+3  -9.30836E+4
   8.76006E+3  -9.14255E+4
   1.11255E+4  -9.01031E+4
   1.32879E+4  -8.91128E+4
   1.52020E+4  -8.77347E+4
   1.73190E+4  -8.62086E+4
   1.93832E+4  -8.49157E+4
   2.09953E+4  -8.36611E+4
   2.29750E+4  -8.28236E+4
   2.47549E+4  -8.11771E+4
   2.62835E+4  -7.96383E+4
   2.78699E+4  -7.82274E+4
   2.92506E+4  -7.68865E+4
   3.09283E+4  -7.56588E+4
   3.22755E+4  -7.46564E+4
   3.35415E+4  -7.28224E+4
   3.49807E+4  -7.14351E+4
   3.59937E+4  -7.02459E+4
   3.71528E+4  -6.90287E+4
   3.82965E+4  -6.77193E+4
   3.94051E+4  -6.63592E+4
   4.03246E+4  -6.51860E+4
   4.09417E+4  -6.38274E+4
   4.17661E+4  -6.23233E+4
   4.27136E+4  -6.09920E+4
   4.31612E+4  -5.97298E+4
   4.37296E+4  -5.85184E+4
   4.44884E+4  -5.71898E+4
   4.51303E+4  -5.59636E+4
   4.58735E+4  -5.46807E+4
   4.61783E+4  -5.35266E+4
   4.65318E+4  -5.20961E+4
   4.70096E+4  -5.09002E+4
   4.77328E+4  -4.95967E+4
   4.78897E+4  -4.83609E+4
   4.81598E+4  -4.73004E+4
   4.86248E+4  -4.60357E+4
   4.89189E+4  -4.47810E+4
   4.93670E+4  -4.33018E+4
   4.93484E+4  -4.23306E+4
   4.95601E+4  -4.09646E+4
   4.96419E+4  -4.00743E+4
   4.99015E+4  -3.89432E+4
   5.02417E+4  -3.76320E+4
   5.03432E+4  -3.63699E+4
   5.05277E+4  -3.52428E+4
   5.03828E+4  -3.38305E+4
   5.06892E+4  -3.28047E+4
   5.05848E+4  -3.13133E+4
   5.05937E+4  -3.06125E+4
   5.07365E+4  -2.95142E+4
   5.06876E+4  -2.83664E+4
   5.07705E+4  -2.71012E+4
   5.06463E+4  -2.60652E+4
   5.05094E+4  -2.50722E+4
   5.05179E+4  -2.41102E+4
   5.07064E+4  -2.28358E+4
   5.05034E+4  -2.19337E+4
   5.06026E+4  -2.11152E+4
   5.04334E+4  -2.02916E+4
   5.01738E+4  -1.91986E+4
   5.01742E+4  -1.81894E+4
   5.01688E+4  -1.68763E+4
   4.98358E+4  -1.59176E+4
   5.00569E+4  -1.52618E+4
   4.96939E+4  -1.44583E+4
   4.94519E+4  -1.34797E+4
   4.90469E+4  -1.26384E+4
   4.94252E+4  -1.15978E+4
   4.90903E+4  -1.09523E+4
   4.89695E+4  -1.02193E+4
   4.87740E+4  -9.57647E+3
   4.82568E+4  -8.74179E+3
   4.78548E+4  -8.06139E+3
   4.79453E+4  -7.55014E+3
   4.77212E+4  -6.52837E+3
   4.75015E+4  -6.14361E+3
   4.74681E+4  -5.29537E+3
   4.70908E+4  -4.55298E+3
   4.65419E+4  -3.86967E+3
   4.63924E+4  -3.45276E+3
   4.62014E+4  -2.76027E+3
   4.60772E+4  -2.33772E+3
   4.57758E+4  -1.64917E+3
   4.55047E+4  -1.37218E+3
   4.51049E+4  -8.53509E+2
   4.48187E+4  -3.28999E+2
   4.46073E+4   1.63561E+2
   4.45221E+4   5.24866E+2
   4.40029E+4   1.02738E+3
   4.38912E+4   1.16737E+3
   4.33023E+4   1.89288E+3
   4.32230E+4   2.11909E+3
   4.29046E+4   2.76624E+3
   4.25530E+4   3.03857E+3
   4.21285E+4   3.37795E+3
   4.19393E+4   3.84265E+3
   4.17538E+4   3.84777E+3
   4.11428E+4   4.57589E+3
   4.07987E+4   4.74372E+3
   4.05775E+4   5.10173E+3
   4.01954E+4   5.17697E+3
   3.99051E+4   5.54541E+3
   3.93323E+4   6.09915E+3
   3.90715E+4   6.23314E+3
   3.86415E+4   6.30381E+3
   3.82108E+4   6.68704E+3
   3.80028E+4   6.82955E+3
   3.75458E+4   7.18214E+3
   3.71495E+4   7.44244E+3
   3.66632E+4   7.65477E+3
   3.65667E+4   8.13006E+3
   3.59794E+4   8.42928E+3
   3.56740E+4   8.50608E+3
   3.56370E+4   8.83477E+3
   3.49637E+4   8.88287E+3
   3.45733E+4   9.23817E+3
   3.42192E+4   9.27327E+3
   3.37712E+4   9.24719E+3
   3.35621E+4   9.71948E+3
   3.33835E+4   9.97444E+3
   3.28335E+4   1.03967E+4
   3.24966E+4   1.03081E+4
   3.21094E+4   1.05415E+4
   3.17683E+4   1.05515E+4
   3.10051E+4   1.09724E+4
   3.09217E+4   1.10772E+4
   3.04871E+4   1.13488E+4
   3.00833E+4   1.12870E+4
   2.96803E+4   1.17308E+4
   2.92966E+4   1.16486E+4
   2.88465E+4   1.18966E+4
   2.86573E+4   1.22041E+4
   2.82734E+4   1.22624E+4
   2.80811E+4   1.24013E+4
   2.75450E+4   1.22762E+4
   2.72626E+4   1.29431E+4
   2.68239E+4   1.28455E+4
   2.64812E+4   1.30127E+4
   2.61594E+4   1.29288E+4
   2.56172E+4   1.29716E+4
   2.53528E+4   1.34916E+4
   2.51175E+4   1.33309E+4
   2.46344E+4   1.35140E+4
   2.46661E+4   1.36972E+4
   2.40939E+4   1.35616E+4
   2.36549E+4   1.41026E+4
   2.34257E+4   1.39838E+4
   2.29664E+4   1.39844E+4
   2.27519E+4   1.39087E+4
   2.26048E+4   1.42098E+4
   2.22438E+4   1.42484E+4
   2.18425E+4   1.43109E+4
