 LCModel (Version 6.3-1N) Copyright: S.W. Provencher.          Ref.: Magn. Reson. Med. 30:672-679 (1993).                
 Slice_N1@9_16  28-Feb-2025 11:44:24
 27 lines in following concentration table = NCONC+1
    Conc.  %SD /Cr+PCr  Metabolite                                         
 7.78E-05   7% 1.0E-03 Mac                                                 
    0.215 107%   2.874 Cr                                                  
    0.384  58%   5.126 PCr                                                 
    0.560  32%   7.481 Ins                                                 
    0.945  13%  12.614 NAA                                                 
    0.634  24%   8.465 Tau                                                 
    0.000 999%   0.000 PCho                                                
    0.146  37%   1.948 GPC                                                 
    1.569  13%  20.937 Glu                                                 
    1.104  16%  14.733 Gln                                                 
    0.167  82%   2.225 Ala                                                 
    0.000 999%   0.000 Asc                                                 
    0.203  95%   2.708 Asp                                                 
    0.000 999%   0.000 GABA                                                
 3.41E-02 372%   0.455 Glc                                                 
    0.000 999%   0.000 GSH                                                 
    0.178  77%   2.377 Lac                                                 
    0.558  18%   7.445 NAAG                                                
    0.140 156%   1.871 PE                                                  
    0.146  37%   1.948 GPC+PCho                                            
    1.503  11%  20.059 NAA+NAAG                                            
    2.673  10%  35.670 Glu+Gln                                             
    0.599  18%   8.000 Cr+PCr                                              
    1.503  11%  20.059 NAA+NAAG                                            
    0.599  18%   8.000 Cr+PCr                                              
    2.673  10%  35.670 Glu+Gln                                             
   6 lines in following misc. output table
  FWHM = 0.041 ppm    S/N =   2                                            
  Data shift = 0.008 ppm                                                   
  Ph: -96 deg       0.0 deg/ppm                                            
  alphaB,S = 9.9E-02,   1.0E+00                                            
   19 spline knots.   Ns = 6(1)                                            
   3 inflections.     2 extrema                                            
  480 points on ppm-axis = NY
      4.100000     4.091866     4.083733     4.075600     4.067466     4.059333     4.051199     4.043066     4.034933     4.026799
      4.018666     4.010532     4.002399     3.994265     3.986132     3.977998     3.969864     3.961731     3.953597     3.945463
      3.937330     3.929196     3.921062     3.912929     3.904795     3.896662     3.888528     3.880394     3.872261     3.864127
      3.855993     3.847860     3.839726     3.831592     3.823459     3.815325     3.807191     3.799058     3.790924     3.782790
      3.774657     3.766523     3.758389     3.750256     3.742122     3.733989     3.725855     3.717721     3.709588     3.701454
      3.693320     3.685187     3.677053     3.668919     3.660786     3.652652     3.644518     3.636385     3.628251     3.620117
      3.611984     3.603850     3.595716     3.587583     3.579449     3.571316     3.563182     3.555048     3.546915     3.538781
      3.530647     3.522514     3.514380     3.506246     3.498113     3.489979     3.481845     3.473712     3.465578     3.457444
      3.449311     3.441177     3.433043     3.424910     3.416776     3.408643     3.400509     3.392375     3.384242     3.376108
      3.367974     3.359841     3.351707     3.343573     3.335440     3.327306     3.319172     3.311039     3.302905     3.294771
      3.286638     3.278504     3.270370     3.262237     3.254103     3.245970     3.237836     3.229702     3.221569     3.213435
      3.205301     3.197168     3.189034     3.180900     3.172767     3.164633     3.156499     3.148366     3.140232     3.132098
      3.123965     3.115831     3.107697     3.099564     3.091430     3.083297     3.075163     3.067029     3.058896     3.050762
      3.042628     3.034495     3.026361     3.018227     3.010094     3.001960     2.993826     2.985693     2.977559     2.969425
      2.961292     2.953158     2.945024     2.936891     2.928757     2.920624     2.912490     2.904356     2.896223     2.888089
      2.879955     2.871822     2.863688     2.855554     2.847421     2.839287     2.831153     2.823020     2.814886     2.806752
      2.798619     2.790485     2.782351     2.774218     2.766084     2.757951     2.749817     2.741683     2.733550     2.725416
      2.717282     2.709149     2.701015     2.692881     2.684748     2.676614     2.668480     2.660347     2.652213     2.644079
      2.635946     2.627812     2.619678     2.611545     2.603411     2.595278     2.587144     2.579010     2.570877     2.562743
      2.554609     2.546476     2.538342     2.530208     2.522075     2.513941     2.505807     2.497674     2.489540     2.481406
      2.473273     2.465139     2.457006     2.448872     2.440738     2.432605     2.424471     2.416337     2.408204     2.400070
      2.391936     2.383803     2.375669     2.367535     2.359402     2.351268     2.343134     2.335001     2.326867     2.318733
      2.310600     2.302466     2.294333     2.286199     2.278065     2.269932     2.261798     2.253664     2.245531     2.237397
      2.229263     2.221130     2.212996     2.204862     2.196729     2.188595     2.180461     2.172328     2.164194     2.156060
      2.147927     2.139793     2.131660     2.123526     2.115392     2.107259     2.099125     2.090991     2.082858     2.074724
      2.066590     2.058457     2.050323     2.042189     2.034056     2.025922     2.017788     2.009655     2.001521     1.993387
      1.985254     1.977120     1.968987     1.960853     1.952719     1.944586     1.936452     1.928318     1.920185     1.912051
      1.903917     1.895784     1.887650     1.879516     1.871383     1.863249     1.855115     1.846982     1.838848     1.830714
      1.822581     1.814447     1.806314     1.798180     1.790046     1.781913     1.773779     1.765645     1.757512     1.749378
      1.741244     1.733111     1.724977     1.716843     1.708710     1.700576     1.692442     1.684309     1.676175     1.668041
      1.659908     1.651774     1.643641     1.635507     1.627373     1.619240     1.611106     1.602972     1.594839     1.586705
      1.578571     1.570438     1.562304     1.554170     1.546037     1.537903     1.529769     1.521636     1.513502     1.505368
      1.497235     1.489101     1.480968     1.472834     1.464700     1.456567     1.448433     1.440299     1.432166     1.424032
      1.415898     1.407765     1.399631     1.391497     1.383364     1.375230     1.367096     1.358963     1.350829     1.342695
      1.334562     1.326428     1.318295     1.310161     1.302027     1.293894     1.285760     1.277626     1.269493     1.261359
      1.253225     1.245092     1.236958     1.228824     1.220691     1.212557     1.204423     1.196290     1.188156     1.180022
      1.171889     1.163755     1.155622     1.147488     1.139354     1.131221     1.123087     1.114953     1.106820     1.098686
      1.090552     1.082419     1.074285     1.066151     1.058018     1.049884     1.041750     1.033617     1.025483     1.017349
      1.009216     1.001082     0.992949     0.984815     0.976681     0.968548     0.960414     0.952280     0.944147     0.936013
      0.927879     0.919746     0.911612     0.903478     0.895345     0.887211     0.879077     0.870944     0.862810     0.854676
      0.846543     0.838409     0.830276     0.822142     0.814008     0.805875     0.797741     0.789607     0.781474     0.773340
      0.765206     0.757073     0.748939     0.740805     0.732672     0.724538     0.716404     0.708271     0.700137     0.692003
      0.683870     0.675736     0.667603     0.659469     0.651335     0.643202     0.635068     0.626934     0.618801     0.610667
      0.602533     0.594400     0.586266     0.578132     0.569999     0.561865     0.553731     0.545598     0.537464     0.529330
      0.521197     0.513063     0.504930     0.496796     0.488662     0.480529     0.472395     0.464261     0.456128     0.447994
      0.439861     0.431727     0.423593     0.415460     0.407326     0.399192     0.391059     0.382925     0.374792     0.366658
      0.358524     0.350391     0.342257     0.334124     0.325990     0.317856     0.309723     0.301589     0.293455     0.285322
      0.277188     0.269055     0.260921     0.252787     0.244654     0.236520     0.228386     0.220253     0.212119     0.203986
 NY phased data points follow
  -4.38723E+01 -6.80687E+01 -3.83574E+01 -5.38558E+01 -7.76526E+01 -5.94170E+01 -5.59764E+01 -3.69449E+01 -5.52920E+01 -5.02988E+01
  -4.87204E+01 -5.83201E+01 -6.64158E+01 -7.52295E+01 -5.47345E+01 -7.77321E+01 -1.04379E+02 -9.37904E+01 -8.70657E+01 -1.23890E+02
  -1.34188E+02 -1.21281E+02 -1.35227E+02 -1.15654E+02 -1.02958E+02 -9.59211E+01 -8.83589E+01 -9.85390E+01 -7.23896E+01 -5.89127E+01
  -6.01516E+01 -4.50199E+01 -5.41112E+01 -3.27265E+01 -3.47860E+01 -3.74714E+01 -2.84270E+01 -6.38275E+01 -5.06650E+01 -8.18052E+01
  -9.81930E+01 -1.03421E+02 -1.47817E+02 -1.20382E+02 -1.12994E+02 -9.22652E+01 -4.46000E+01 -4.19912E+01 -4.11249E+01 -7.17045E+00
  -7.08174E+00 -1.34175E+01 -2.12508E+01 -4.69231E+01 -1.65158E+01 -2.86988E+01 -3.52692E+01 -2.55449E+01 -5.02677E+01 -5.08696E+01
  -5.04862E+01 -4.03337E+01 -2.22781E+01 -1.50232E+01 -1.30673E+01 -8.46585E+00 -1.15759E+00  7.15212E+00 -2.82573E+01 -4.21886E+01
  -4.62676E+01 -5.64590E+01 -4.78996E+01 -5.36812E+01 -1.22894E+01 -7.12530E+00  1.23228E+01  2.64247E+01  2.27158E+01  3.03354E+01
   1.32801E+01  3.76946E+01  3.06154E+00  3.81605E+00  1.18595E+00 -1.58420E+01 -1.54098E+00 -1.59475E+01  4.19317E+00 -6.31904E+00
   2.74340E+01  4.14203E+01  3.45941E+01  5.89105E+01  5.90321E+01  8.22893E+01  7.25955E+01  7.30424E+01  8.67841E+01  9.78577E+01
   1.03204E+02  9.61616E+01  1.00566E+02  9.43364E+01  9.23057E+01  6.72565E+01  5.33537E+01  4.77624E+01 -2.59195E+00 -2.22053E+01
  -4.00198E+01 -9.58763E+01 -1.08552E+02 -1.04170E+02 -1.06280E+02 -9.35286E+01 -7.58670E+01 -6.84218E+01 -7.11472E+01 -6.87977E+01
  -6.26416E+01 -5.79133E+01 -5.87220E+01 -3.44705E+01 -2.47337E+01 -2.98029E+01  8.89967E-01  3.19695E+01  2.98514E+01  4.96832E+01
   1.05121E+02  1.04682E+02  8.51803E+01  3.82089E+01 -1.57482E+01 -3.13397E+01 -4.50384E+01 -4.87074E+01 -6.22401E+01 -4.34895E+01
  -4.33944E+01 -6.85204E+01 -7.07844E+01 -7.10867E+01 -6.27976E+01 -6.48373E+01 -7.35561E+01 -9.48608E+01 -8.84481E+01 -8.77541E+01
  -8.48544E+01 -6.67797E+01 -8.21499E+01 -6.14411E+01 -6.26428E+01 -7.66680E+01 -6.85467E+01 -7.60805E+01 -5.82546E+01 -6.66509E+01
  -6.95573E+01 -4.87965E+01 -6.03993E+01 -5.78661E+01 -5.66647E+01 -5.87954E+01 -7.02548E+01 -7.82711E+01 -5.82638E+01 -5.68168E+01
  -4.09653E+01 -4.87266E+01 -4.37565E+01 -1.96214E+01 -2.61062E+01 -8.47813E+00 -3.55469E+01 -2.58697E+01 -1.89480E+01 -3.68596E+01
  -1.69944E+01 -6.35803E+01 -5.03152E+01 -3.93291E+01 -6.74163E+01 -7.44613E+01 -8.73211E+01 -6.99540E+01 -7.59295E+01 -6.08354E+01
  -7.04194E+01 -8.34932E+01 -7.66750E+01 -7.71076E+01 -6.54065E+01 -9.11795E+01 -8.42332E+01 -8.64141E+01 -9.26676E+01 -7.89144E+01
  -8.63872E+01 -7.60338E+01 -5.92407E+01 -6.85864E+01 -6.63789E+01 -4.69771E+01 -7.15190E+01 -6.88712E+01 -7.51308E+01 -8.95916E+01
  -9.39026E+01 -1.29331E+02 -1.08196E+02 -6.68913E+01 -5.92105E+01 -5.00437E+01  1.79922E+00  1.87145E+01  1.82244E+01  3.42608E+01
   1.33261E+01  1.73334E+01  1.31057E+01 -1.64289E+01 -1.03244E+01 -2.34705E+00 -1.78198E+01 -1.02358E+00 -6.39712E+00 -9.35239E+00
   4.89434E+00 -2.13971E+01 -2.50933E+01 -3.22727E+01 -3.79720E+01 -5.52291E+01 -7.20805E+01 -7.46311E+01 -9.44036E+01 -1.12845E+02
  -1.17553E+02 -1.18447E+02 -1.27866E+02 -1.10345E+02 -9.56260E+01 -7.72314E+01 -7.81372E+01 -7.90346E+01 -7.39408E+01 -9.56499E+01
  -1.10830E+02 -1.20098E+02 -1.14174E+02 -1.40107E+02 -1.59304E+02 -1.80654E+02 -1.72275E+02 -1.26674E+02 -9.28444E+01 -3.55130E+01
   9.67684E+00  4.93536E+01  5.75786E+01  4.43171E+01  1.56708E+01  2.95333E+01  3.18923E+01  9.18993E-01  1.45101E+01  4.19089E+00
   1.38220E+01 -1.96194E+00 -6.93568E+00  7.46424E+00 -1.38410E+00  4.71392E+00 -7.88500E+00 -1.60429E+01 -1.49441E+01 -1.21481E+01
  -2.81589E+01 -1.50918E+01 -9.73054E+00 -2.81659E+01 -3.16150E+01 -4.96666E+01 -4.79747E+01 -3.31273E+01 -4.64517E+01 -5.80914E+01
  -4.22693E+01 -6.64863E+01 -6.46730E+01 -6.32383E+01 -8.96212E+01 -8.06761E+01 -8.74305E+01 -8.51215E+01 -8.72650E+01 -8.02666E+01
  -8.01358E+01 -8.48486E+01 -7.40893E+01 -7.69843E+01 -6.93153E+01 -6.43008E+01 -5.97269E+01 -4.95713E+01 -3.44988E+01 -3.63112E+01
  -1.85927E+01  2.17860E+01  4.34309E+01  7.19405E+01  7.94619E+01  8.96503E+01  1.25875E+02  1.30061E+02  1.33864E+02  1.57225E+02
   1.62119E+02  1.67366E+02  1.83711E+02  1.84077E+02  1.57412E+02  1.67130E+02  1.72289E+02  1.61008E+02  1.74814E+02  1.60787E+02
   1.37550E+02  1.10211E+02  1.03879E+02  8.29755E+01  6.52068E+01  4.68581E+01  2.84588E+01  5.52981E+01  4.21127E+01  6.22623E+01
   5.58593E+01  4.60390E+01  7.38760E+01  6.24318E+01  7.48323E+01  6.07101E+01  5.90555E+01  6.29501E+01  7.69978E+01  8.36762E+01
   6.24833E+01  9.53757E+01  1.05175E+02  9.81674E+01  8.45514E+01  7.11372E+01  8.23361E+01  8.31997E+01  8.27868E+01  7.81226E+01
   5.77206E+01  5.23574E+01  6.75186E+01  5.65630E+01  5.60577E+01  5.48559E+01  4.29269E+01  5.12916E+01  5.71654E+01  5.56036E+01
   4.85775E+01  6.32095E+01  5.69112E+01  5.07539E+01  6.18390E+01  4.18950E+01  4.53324E+01  6.06396E+01  6.13915E+01  5.80049E+01
   6.21507E+01  7.35595E+01  1.00001E+02  1.18240E+02  1.19506E+02  1.34600E+02  1.46391E+02  1.76450E+02  1.81875E+02  1.79692E+02
   1.70904E+02  1.75539E+02  2.06790E+02  1.76615E+02  1.80332E+02  1.78949E+02  1.55830E+02  1.53041E+02  1.55875E+02  1.69730E+02
   1.52773E+02  1.42557E+02  1.15001E+02  9.85406E+01  1.02178E+02  9.26114E+01  9.03859E+01  9.82514E+01  7.95046E+01  6.40839E+01
   7.24676E+01  5.68336E+01  7.72720E+01  6.68727E+01  6.36520E+01  7.56169E+01  6.30386E+01  7.57574E+01  6.26261E+01  7.85932E+01
   6.02401E+01  2.68203E+01  6.08196E+01  7.27078E+01  5.04958E+01  5.49933E+01  4.85573E+01  4.55868E+01  6.34534E+01  3.76169E+01
   5.31344E+01  6.47114E+01  6.83337E+01  6.61535E+01  4.54764E+01  5.50902E+01  5.10940E+01  5.87025E+01  3.42134E+01  3.94945E+01
   5.36283E+01  3.43380E+01  3.71333E+01  3.80207E+01  5.07549E+01  4.02292E+01  5.00449E+01  6.32002E+01  4.14726E+01  3.31861E+01
   3.73090E+01  3.95228E+01  3.97101E+01  4.60921E+01  4.92643E+01  4.01080E+01  3.47831E+01  4.21534E+01  2.88322E+01  2.36339E+01
   4.35900E+01  5.90565E+01  3.72220E+01  2.12124E+01  3.10532E+01  3.09862E+01  4.64503E+01  4.88221E+01  4.65920E+01  3.17507E+01
   3.64533E+01  4.41921E+01  4.48243E+01  6.19967E+01  3.10362E+01  4.37280E+01  4.24007E+01  2.12242E+01  5.63777E+01  6.10959E+01
 NY points of the fit to the data follow
  -7.03343E+01 -7.15455E+01 -7.35941E+01 -7.54856E+01 -7.55876E+01 -7.32550E+01 -6.93284E+01 -6.42421E+01 -5.88515E+01 -5.44249E+01
  -5.33212E+01 -5.71252E+01 -6.36921E+01 -7.03656E+01 -7.41194E+01 -8.02244E+01 -8.77776E+01 -9.55434E+01 -1.05746E+02 -1.15452E+02
  -1.21496E+02 -1.23730E+02 -1.21348E+02 -1.14197E+02 -1.04339E+02 -9.31433E+01 -8.13005E+01 -6.94761E+01 -5.93927E+01 -5.05069E+01
  -4.34942E+01 -3.86929E+01 -3.25954E+01 -2.11414E+01 -1.00885E+01  2.01882E+00  3.19257E+00 -6.88560E+00 -3.10162E+01 -6.27784E+01
  -9.34076E+01 -1.14542E+02 -1.21910E+02 -1.14385E+02 -9.64111E+01 -7.32657E+01 -4.93618E+01 -2.96523E+01 -1.45180E+01 -6.75097E+00
  -4.28213E+00 -8.07311E+00 -1.20154E+01 -1.40429E+01 -1.96052E+01 -2.49351E+01 -2.72618E+01 -3.12828E+01 -3.60529E+01 -3.95045E+01
  -4.19202E+01 -4.19014E+01 -3.66768E+01 -2.57160E+01 -1.54526E+01 -8.68364E+00 -4.22099E+00 -5.91161E+00 -1.31261E+01 -2.23574E+01
  -3.10032E+01 -3.66587E+01 -3.82906E+01 -3.60296E+01 -2.95773E+01 -1.89946E+01 -6.22160E+00  8.55390E+00  1.93057E+01  2.70209E+01
   2.70346E+01  1.92778E+01  6.35799E+00 -8.15980E+00 -2.14387E+01 -3.04737E+01 -3.43659E+01 -3.32721E+01 -2.80457E+01 -2.07282E+01
  -1.21374E+01 -4.69181E+00  1.86115E+00  7.34794E+00  1.09068E+01  1.26714E+01  1.83454E+01  2.65432E+01  3.71756E+01  5.35692E+01
   6.77561E+01  7.54153E+01  7.38355E+01  7.65599E+01  7.73271E+01  6.95687E+01  5.49202E+01  3.40757E+01  6.49814E+00 -2.25504E+01
  -4.96359E+01 -7.05742E+01 -8.16976E+01 -8.53356E+01 -8.36704E+01 -7.99753E+01 -7.34255E+01 -6.89494E+01 -6.78856E+01 -6.88522E+01
  -7.01118E+01 -6.68505E+01 -5.59566E+01 -4.05278E+01 -2.68970E+01 -1.95504E+01  2.06719E+00  3.20219E+01  5.87232E+01  8.01244E+01
   9.26691E+01  9.04098E+01  7.50502E+01  5.01162E+01  2.16387E+01 -3.59613E+00 -2.29096E+01 -3.72984E+01 -4.81093E+01 -5.20104E+01
  -5.48603E+01 -5.85795E+01 -6.26322E+01 -6.63172E+01 -6.87815E+01 -6.95661E+01 -6.90738E+01 -6.76645E+01 -6.57785E+01 -6.41948E+01
  -6.31919E+01 -6.23803E+01 -6.11289E+01 -5.93822E+01 -5.74040E+01 -5.63559E+01 -5.58580E+01 -5.51628E+01 -5.48257E+01 -5.54074E+01
  -5.62410E+01 -5.62034E+01 -5.48638E+01 -5.28262E+01 -5.19519E+01 -5.45218E+01 -6.01932E+01 -6.47597E+01 -6.56304E+01 -6.28196E+01
  -5.77800E+01 -5.30555E+01 -4.92489E+01 -4.49709E+01 -4.13117E+01 -3.76338E+01 -3.35187E+01 -3.00783E+01 -2.90449E+01 -3.09774E+01
  -3.54041E+01 -4.14811E+01 -4.79538E+01 -5.39401E+01 -5.96236E+01 -6.30271E+01 -6.25297E+01 -6.11967E+01 -6.21404E+01 -6.33031E+01
  -6.37324E+01 -6.52989E+01 -6.82877E+01 -7.10040E+01 -7.09254E+01 -6.95332E+01 -6.87459E+01 -6.88958E+01 -7.03020E+01 -7.22067E+01
  -7.39976E+01 -7.48343E+01 -7.06316E+01 -6.19294E+01 -5.08031E+01 -4.15558E+01 -3.90347E+01 -4.20570E+01 -6.13803E+01 -8.40456E+01
  -1.05411E+02 -1.21741E+02 -1.24155E+02 -1.11908E+02 -9.19321E+01 -6.86630E+01 -4.82819E+01 -3.53133E+01 -2.97671E+01 -2.89568E+01
  -2.85235E+01 -2.76547E+01 -2.10529E+01 -1.08950E+01  1.21172E+00  1.41385E+01  2.55683E+01  3.12734E+01  3.27091E+01  2.78873E+01
   1.40154E+01 -3.41420E+00 -2.50067E+01 -4.59184E+01 -6.40852E+01 -7.53130E+01 -8.59651E+01 -9.45056E+01 -1.02789E+02 -1.12389E+02
  -1.20316E+02 -1.22433E+02 -1.21252E+02 -1.15076E+02 -1.03637E+02 -9.08299E+01 -7.31665E+01 -6.83427E+01 -8.22451E+01 -9.80806E+01
  -1.00011E+02 -1.11549E+02 -1.36320E+02 -1.55286E+02 -1.65450E+02 -1.67286E+02 -1.55100E+02 -1.29726E+02 -9.55397E+01 -5.67324E+01
  -2.52863E+01 -4.87973E+00  8.13546E+00  1.59750E+01  1.43584E+01  7.87491E+00  2.00212E+00 -3.05329E+00 -6.62280E+00 -9.53291E+00
  -1.14794E+01 -1.27024E+01 -1.30015E+01 -1.26673E+01 -1.13737E+01 -9.68283E+00 -7.71810E+00 -5.33954E+00 -2.71003E+00 -3.89972E-01
   1.88767E+00  4.13688E+00  6.36107E+00  9.09677E+00  1.17587E+01  1.47544E+01  1.76474E+01  1.97197E+01  1.99208E+01  1.76761E+01
   1.24983E+01  4.88533E+00 -4.02383E+00 -1.30920E+01 -2.13774E+01 -2.77296E+01 -3.16701E+01 -3.32921E+01 -3.26716E+01 -3.02657E+01
  -2.68638E+01 -2.33741E+01 -1.98689E+01 -1.65880E+01 -1.31148E+01 -9.30181E+00 -5.28683E+00 -7.91171E-01  4.53268E+00  1.01891E+01
   1.63327E+01  2.34176E+01  3.12456E+01  3.91613E+01  4.73696E+01  5.57635E+01  6.53681E+01  7.66042E+01  8.74405E+01  9.97032E+01
   1.11365E+02  1.20903E+02  1.27704E+02  1.31443E+02  1.31598E+02  1.27924E+02  1.20311E+02  1.08346E+02  9.23982E+01  7.40555E+01
   5.51898E+01  3.79290E+01  2.50759E+01  1.71732E+01  1.35495E+01  1.42624E+01  1.93219E+01  2.53269E+01  3.35963E+01  4.21194E+01
   4.91584E+01  5.46870E+01  5.90827E+01  6.28291E+01  6.70083E+01  7.25272E+01  8.00697E+01  8.91846E+01  9.81379E+01  1.05516E+02
   1.09193E+02  1.08767E+02  1.03775E+02  9.51829E+01  8.43975E+01  7.32836E+01  6.29236E+01  5.46193E+01  4.88452E+01  4.57576E+01
   4.52090E+01  4.62152E+01  4.81877E+01  5.06845E+01  5.31385E+01  5.53479E+01  5.70702E+01  5.81580E+01  5.80768E+01  5.74602E+01
   5.61225E+01  5.36466E+01  5.05149E+01  4.74766E+01  4.43061E+01  4.11310E+01  3.85919E+01  3.71900E+01  3.78725E+01  4.23927E+01
   5.21620E+01  6.90687E+01  9.31978E+01  1.22320E+02  1.52270E+02  1.79241E+02  1.99654E+02  2.11003E+02  2.13663E+02  2.10452E+02
   2.04396E+02  1.97860E+02  1.93063E+02  1.89626E+02  1.86483E+02  1.81732E+02  1.74743E+02  1.64570E+02  1.51958E+02  1.37897E+02
   1.23860E+02  1.11097E+02  1.00592E+02  9.24805E+01  8.63126E+01  8.16445E+01  7.80480E+01  7.52653E+01  7.27010E+01  7.04072E+01
   6.86487E+01  6.76399E+01  6.66673E+01  6.56370E+01  6.49973E+01  6.45442E+01  6.40431E+01  6.34620E+01  6.30484E+01  6.28600E+01
   6.27495E+01  6.23092E+01  6.16066E+01  6.08576E+01  6.01859E+01  5.96645E+01  5.92768E+01  5.93437E+01  5.92254E+01  5.89906E+01
   5.83926E+01  5.75442E+01  5.66135E+01  5.57926E+01  5.50212E+01  5.43917E+01  5.42149E+01  5.41788E+01  5.43260E+01  5.43524E+01
   5.40897E+01  5.36008E+01  5.28593E+01  5.19194E+01  5.12524E+01  5.06469E+01  5.00620E+01  4.94845E+01  4.88890E+01  4.81719E+01
   4.75664E+01  4.69675E+01  4.64917E+01  4.59444E+01  4.56993E+01  4.56124E+01  4.55773E+01  4.55765E+01  4.55663E+01  4.52481E+01
   4.45505E+01  4.33742E+01  4.21558E+01  4.11415E+01  4.07141E+01  4.07524E+01  4.09769E+01  4.12671E+01  4.14675E+01  4.11549E+01
   4.04333E+01  3.97448E+01  3.91862E+01  3.84165E+01  3.77303E+01  3.66943E+01  3.52095E+01  3.33720E+01  3.13810E+01  2.94017E+01
 NY background values follow
    -7.196E+01   -7.138E+01   -7.079E+01   -7.021E+01   -6.963E+01   -6.904E+01   -6.846E+01   -6.788E+01   -6.729E+01   -6.670E+01
    -6.611E+01   -6.551E+01   -6.491E+01   -6.431E+01   -6.370E+01   -6.309E+01   -6.247E+01   -6.184E+01   -6.120E+01   -6.056E+01
    -5.991E+01   -5.925E+01   -5.857E+01   -5.789E+01   -5.720E+01   -5.650E+01   -5.578E+01   -5.505E+01   -5.431E+01   -5.356E+01
    -5.279E+01   -5.200E+01   -5.121E+01   -5.039E+01   -4.957E+01   -4.873E+01   -4.788E+01   -4.703E+01   -4.616E+01   -4.528E+01
    -4.439E+01   -4.349E+01   -4.258E+01   -4.167E+01   -4.075E+01   -3.983E+01   -3.890E+01   -3.796E+01   -3.702E+01   -3.608E+01
    -3.514E+01   -3.419E+01   -3.324E+01   -3.229E+01   -3.134E+01   -3.039E+01   -2.944E+01   -2.850E+01   -2.755E+01   -2.661E+01
    -2.567E+01   -2.474E+01   -2.381E+01   -2.289E+01   -2.197E+01   -2.107E+01   -2.017E+01   -1.929E+01   -1.843E+01   -1.757E+01
    -1.674E+01   -1.592E+01   -1.512E+01   -1.434E+01   -1.358E+01   -1.285E+01   -1.213E+01   -1.145E+01   -1.079E+01   -1.016E+01
    -9.559E+00   -8.989E+00   -8.451E+00   -7.947E+00   -7.478E+00   -7.045E+00   -6.649E+00   -6.293E+00   -5.976E+00   -5.701E+00
    -5.470E+00   -5.281E+00   -5.136E+00   -5.032E+00   -4.968E+00   -4.945E+00   -4.959E+00   -5.012E+00   -5.100E+00   -5.225E+00
    -5.383E+00   -5.575E+00   -5.799E+00   -6.054E+00   -6.340E+00   -6.654E+00   -6.997E+00   -7.367E+00   -7.763E+00   -8.183E+00
    -8.628E+00   -9.095E+00   -9.585E+00   -1.009E+01   -1.062E+01   -1.117E+01   -1.174E+01   -1.232E+01   -1.292E+01   -1.353E+01
    -1.416E+01   -1.480E+01   -1.545E+01   -1.611E+01   -1.678E+01   -1.746E+01   -1.815E+01   -1.884E+01   -1.954E+01   -2.025E+01
    -2.096E+01   -2.168E+01   -2.240E+01   -2.312E+01   -2.385E+01   -2.457E+01   -2.529E+01   -2.602E+01   -2.674E+01   -2.746E+01
    -2.817E+01   -2.888E+01   -2.959E+01   -3.029E+01   -3.098E+01   -3.167E+01   -3.234E+01   -3.301E+01   -3.366E+01   -3.431E+01
    -3.494E+01   -3.556E+01   -3.617E+01   -3.677E+01   -3.735E+01   -3.792E+01   -3.848E+01   -3.903E+01   -3.956E+01   -4.008E+01
    -4.059E+01   -4.109E+01   -4.157E+01   -4.204E+01   -4.250E+01   -4.295E+01   -4.338E+01   -4.380E+01   -4.421E+01   -4.461E+01
    -4.500E+01   -4.537E+01   -4.573E+01   -4.607E+01   -4.641E+01   -4.673E+01   -4.704E+01   -4.734E+01   -4.763E+01   -4.790E+01
    -4.816E+01   -4.841E+01   -4.865E+01   -4.887E+01   -4.908E+01   -4.929E+01   -4.948E+01   -4.966E+01   -4.983E+01   -4.999E+01
    -5.014E+01   -5.028E+01   -5.041E+01   -5.053E+01   -5.065E+01   -5.075E+01   -5.085E+01   -5.094E+01   -5.102E+01   -5.109E+01
    -5.115E+01   -5.121E+01   -5.126E+01   -5.131E+01   -5.134E+01   -5.138E+01   -5.140E+01   -5.142E+01   -5.144E+01   -5.145E+01
    -5.145E+01   -5.145E+01   -5.145E+01   -5.144E+01   -5.143E+01   -5.141E+01   -5.139E+01   -5.136E+01   -5.133E+01   -5.130E+01
    -5.126E+01   -5.122E+01   -5.117E+01   -5.112E+01   -5.106E+01   -5.100E+01   -5.094E+01   -5.087E+01   -5.080E+01   -5.072E+01
    -5.064E+01   -5.056E+01   -5.047E+01   -5.038E+01   -5.029E+01   -5.019E+01   -5.009E+01   -4.998E+01   -4.988E+01   -4.976E+01
    -4.965E+01   -4.953E+01   -4.941E+01   -4.928E+01   -4.914E+01   -4.900E+01   -4.885E+01   -4.869E+01   -4.852E+01   -4.834E+01
    -4.815E+01   -4.794E+01   -4.773E+01   -4.749E+01   -4.725E+01   -4.699E+01   -4.671E+01   -4.641E+01   -4.610E+01   -4.577E+01
    -4.541E+01   -4.504E+01   -4.464E+01   -4.422E+01   -4.378E+01   -4.332E+01   -4.282E+01   -4.231E+01   -4.176E+01   -4.119E+01
    -4.059E+01   -3.996E+01   -3.930E+01   -3.861E+01   -3.789E+01   -3.714E+01   -3.635E+01   -3.553E+01   -3.468E+01   -3.379E+01
    -3.287E+01   -3.192E+01   -3.092E+01   -2.989E+01   -2.883E+01   -2.772E+01   -2.658E+01   -2.540E+01   -2.418E+01   -2.291E+01
    -2.161E+01   -2.027E+01   -1.888E+01   -1.745E+01   -1.598E+01   -1.446E+01   -1.290E+01   -1.129E+01   -9.637E+00   -7.937E+00
    -6.190E+00   -4.398E+00   -2.564E+00   -6.911E-01    1.217E+00    3.159E+00    5.129E+00    7.125E+00    9.144E+00    1.118E+01
     1.324E+01    1.531E+01    1.738E+01    1.947E+01    2.156E+01    2.365E+01    2.573E+01    2.781E+01    2.988E+01    3.194E+01
     3.398E+01    3.600E+01    3.800E+01    3.998E+01    4.193E+01    4.384E+01    4.572E+01    4.756E+01    4.936E+01    5.111E+01
     5.282E+01    5.448E+01    5.609E+01    5.765E+01    5.917E+01    6.064E+01    6.206E+01    6.344E+01    6.477E+01    6.606E+01
     6.730E+01    6.851E+01    6.966E+01    7.078E+01    7.186E+01    7.289E+01    7.388E+01    7.484E+01    7.575E+01    7.663E+01
     7.747E+01    7.827E+01    7.903E+01    7.975E+01    8.044E+01    8.110E+01    8.172E+01    8.230E+01    8.285E+01    8.337E+01
     8.386E+01    8.431E+01    8.473E+01    8.512E+01    8.548E+01    8.581E+01    8.610E+01    8.638E+01    8.662E+01    8.683E+01
     8.702E+01    8.718E+01    8.731E+01    8.742E+01    8.751E+01    8.757E+01    8.760E+01    8.761E+01    8.760E+01    8.757E+01
     8.752E+01    8.744E+01    8.735E+01    8.723E+01    8.710E+01    8.694E+01    8.677E+01    8.658E+01    8.638E+01    8.615E+01
     8.591E+01    8.566E+01    8.539E+01    8.511E+01    8.481E+01    8.449E+01    8.417E+01    8.382E+01    8.347E+01    8.310E+01
     8.272E+01    8.233E+01    8.193E+01    8.151E+01    8.108E+01    8.064E+01    8.019E+01    7.973E+01    7.926E+01    7.878E+01
     7.830E+01    7.780E+01    7.729E+01    7.677E+01    7.625E+01    7.572E+01    7.518E+01    7.463E+01    7.408E+01    7.352E+01
     7.295E+01    7.238E+01    7.180E+01    7.122E+01    7.063E+01    7.004E+01    6.945E+01    6.885E+01    6.825E+01    6.764E+01
     6.704E+01    6.643E+01    6.582E+01    6.521E+01    6.460E+01    6.399E+01    6.338E+01    6.278E+01    6.217E+01    6.156E+01
     6.096E+01    6.036E+01    5.976E+01    5.917E+01    5.857E+01    5.799E+01    5.741E+01    5.683E+01    5.626E+01    5.569E+01
     5.513E+01    5.458E+01    5.403E+01    5.349E+01    5.295E+01    5.242E+01    5.190E+01    5.137E+01    5.086E+01    5.035E+01
     4.984E+01    4.933E+01    4.883E+01    4.834E+01    4.784E+01    4.735E+01    4.687E+01    4.638E+01    4.590E+01    4.542E+01
     4.494E+01    4.447E+01    4.399E+01    4.352E+01    4.305E+01    4.257E+01    4.210E+01    4.163E+01    4.117E+01    4.070E+01
 Mac      Conc. = 7.78E-05
  -7.15963E+01 -6.91842E+01 -6.66637E+01 -6.49211E+01 -6.42207E+01 -6.48310E+01 -6.65446E+01 -6.83213E+01 -6.90826E+01 -6.85443E+01
  -6.87938E+01 -7.19260E+01 -7.69765E+01 -8.37573E+01 -9.20509E+01 -9.93994E+01 -1.03836E+02 -1.04517E+02 -1.02053E+02 -9.71747E+01
  -9.14824E+01 -8.62897E+01 -8.21709E+01 -7.92576E+01 -7.72874E+01 -7.54129E+01 -7.29337E+01 -6.96621E+01 -6.54890E+01 -6.13146E+01
  -5.84593E+01 -5.77399E+01 -5.83941E+01 -5.90822E+01 -5.91882E+01 -5.83175E+01 -5.64510E+01 -5.44797E+01 -5.25222E+01 -5.06590E+01
  -4.86525E+01 -4.61360E+01 -4.25842E+01 -3.82520E+01 -3.39455E+01 -2.98592E+01 -2.65758E+01 -2.46914E+01 -2.40492E+01 -2.46931E+01
  -2.68773E+01 -2.97159E+01 -3.24826E+01 -3.52904E+01 -3.78092E+01 -3.88425E+01 -3.83780E+01 -3.61315E+01 -3.22741E+01 -2.77520E+01
  -2.33955E+01 -1.94299E+01 -1.64413E+01 -1.54489E+01 -1.69026E+01 -1.99403E+01 -2.36441E+01 -2.73013E+01 -2.91631E+01 -2.89235E+01
  -2.61780E+01 -2.14400E+01 -1.59793E+01 -1.07996E+01 -6.37484E+00 -3.25615E+00 -2.06510E+00 -2.48765E+00 -3.95286E+00 -5.78833E+00
  -7.88106E+00 -9.35624E+00 -1.01332E+01 -1.01834E+01 -9.47921E+00 -8.17051E+00 -6.56121E+00 -4.48382E+00 -1.50211E+00  2.15987E+00
   6.65377E+00  1.15973E+01  1.61989E+01  1.95064E+01  2.17881E+01  2.30779E+01  2.36222E+01  2.44787E+01  2.64721E+01  3.05278E+01
   3.57592E+01  4.00306E+01  4.11754E+01  3.75230E+01  2.87295E+01  1.53883E+01 -3.93476E-01 -1.57942E+01 -2.87839E+01 -3.83344E+01
