 
 $NMID
 ID=''
 FMTDAT='(2E13.5)'
 TRAMP=   1.00000E+0
 VOLUME=   1.00000E+0
 $END
   1.23470E+4   1.46002E+4
   3.16712E+4   8.76754E+3
   1.76747E+4  -3.10015E+4
  -2.96008E+4  -1.77961E+4
  -2.43161E+4   2.84014E+4
   2.28207E+4   2.28083E+4
   2.58263E+4  -1.73762E+4
  -1.03098E+4  -2.16507E+4
  -2.11725E+4   7.61751E+3
  -1.46229E+3   2.02671E+4
   1.17314E+4   1.70025E+3
   3.65193E+3  -1.39885E+4
  -9.25419E+3  -3.72264E+3
  -6.76242E+3   8.62590E+3
   4.02714E+3   1.42597E+3
   6.17629E+3  -6.00134E+3
  -1.01673E+3  -8.25081E+2
  -5.25326E+3   2.89132E+3
  -1.30851E+3   1.26252E+3
   3.62360E+3   4.26215E+2
   1.55398E+3  -6.55397E+2
  -1.37441E+3  -1.26576E+3
  -6.91999E+2   6.41872E+2
   9.54567E+1   1.22618E+3
  -4.97864E+1  -3.85998E+2
   1.17642E+3   4.15367E+2
   4.99938E+2   1.07484E+3
  -1.73541E+3   4.66466E+2
  -9.25478E+2  -5.27961E+1
   6.34132E+2   6.44659E+2
   2.00431E+2   3.03146E+2
  -2.52829E+2  -5.97360E+2
  -6.53112E+2  -4.79500E+2
  -9.33189E+2  -8.58270E+2
   1.36065E+3  -1.40273E+3
   3.05412E+3  -3.55195E+2
   4.68770E+2   1.85802E+3
  -1.88425E+3   8.09704E+2
  -9.37500E+1  -6.35413E+2
   1.13197E+3  -2.24364E+2
  -1.01778E+3  -2.22745E+2
  -8.60187E+2  -1.49959E+3
   1.88697E+3  -8.37262E+2
   1.80963E+3   7.29220E+2
  -2.48079E+2   7.28997E+2
  -8.83165E+2   1.60190E+2
  -3.35911E+2   8.29257E+2
  -1.06896E+3  -9.94577E+1
  -6.70110E+2  -1.86388E+3
   1.93648E+2  -1.70031E+3
   6.35398E+2   1.00957E+1
   1.08764E+3   3.62753E+2
   6.48481E+2  -1.29181E+2
   2.56925E+1   4.26737E+0
  -3.03109E+2   9.17773E+2
  -5.27962E+2   5.31895E+2
  -3.77713E+2  -7.76654E+2
   3.72779E+2  -1.40266E+3
   8.00103E+2  -3.98852E+2
   3.36524E+2   9.30190E+2
  -2.88922E+2   7.15207E+2
   3.56933E+2   6.49127E+1
  -3.84655E+2   7.42989E+2
  -1.70823E+3   4.13366E+2
  -1.44757E+3  -1.09448E+3
   5.43817E+2  -1.68761E+3
   1.18664E+3  -8.21418E+2
   5.89958E+2  -1.56933E+2
   3.71591E+2   2.78851E+2
   6.00030E+2   4.48896E+2
  -1.04638E+1  -8.30716E+1
  -5.35846E+1  -6.79692E+2
   1.57326E+2   2.14547E+2
   9.76955E+1   9.94646E+2
  -5.07427E+2   1.07084E+2
  -7.88585E+1  -6.73693E+2
   1.52280E+2  -4.18534E+2
  -1.99614E+2   6.45007E+2
  -7.17273E+2   4.85674E+2
  -5.04991E+2  -8.55309E+2
  -2.25809E+2  -4.19702E+2
   2.24206E+2  -2.87481E+1
  -1.32985E+2  -2.69664E+2
  -1.74969E+2  -4.72569E+2
   4.69937E+1  -3.64440E+2
   3.47211E+2   1.43308E+2
   2.97988E+2   4.51299E+2
  -1.10305E+2   2.83934E+1
   6.92103E+1  -1.13525E+2
   9.38416E+1   4.55018E+2
  -3.52830E+1   3.83696E+2
  -3.06393E+2   6.11981E+2
  -4.45649E+2   7.65084E+1
  -8.12996E+2  -3.20861E+2
   1.61038E+1  -3.82043E+2
   7.48549E+2  -4.66157E+1
   1.94505E+2   4.16288E+2
  -3.74509E+2   1.47183E+2
   3.43759E+1  -3.30618E+1
   6.19249E+2   1.62939E+2
   1.26484E+2   7.40616E+2
  -9.71293E+2   3.15242E+2
  -4.49551E+2  -3.03664E+2
   5.65722E+2  -2.38208E+2
   5.25267E+2  -1.08517E+1
  -6.58683E+1   3.13837E+2
  -4.64581E+2   2.99504E+2
  -2.41811E+2   5.23753E+1
   2.13892E+2  -4.49178E+2
   7.86605E+2  -1.80690E+2
   4.30559E+2   4.31131E+2
  -1.04394E+2   7.77605E+2
  -3.32916E+2   6.27280E+2
  -4.12642E+2   2.39352E+2
  -5.26910E+1   2.47593E+2
  -5.74752E+2   2.06545E+1
  -5.83268E+2  -3.89773E+2
   5.94573E+1  -6.37493E+2
   4.67207E+2  -6.62894E+2
   7.81414E+2  -6.57257E+1
   4.14549E+2   5.74382E+2
   2.06831E+2   5.66025E+2
   5.52882E+1   3.59892E+2
  -2.64026E+2   1.72899E+2
  -3.83566E+2   8.76539E+1
   9.06337E+1  -2.90665E+2
   2.53166E+2  -1.29593E+2
   2.38512E+2   6.19387E+1
   1.20952E+2   2.33911E+2
  -1.71501E+2   4.03733E+2
  -2.63835E+2   2.30794E+2
   4.53826E+1  -8.12385E+1
   2.55023E+2  -3.83611E+2
   7.09843E+1   2.63750E+2
   4.45742E+1  -3.27882E+2
   4.23026E+2  -9.30407E+1
   1.39395E+2   1.23566E+2
   3.16568E+1   5.07445E+2
  -2.83583E+2   4.49936E+2
  -3.64260E+2  -2.62582E+1
  -2.58729E+2  -3.93619E+2
   2.71700E+2  -1.65808E+2
   4.56494E+2   3.07016E+2
   2.67119E+2   3.82629E+2
  -2.43185E+2   3.37395E+2
  -5.63335E+2   3.92412E+1
  -9.22858E+1  -3.69711E+2
   6.11342E+1   1.66134E+2
  -4.18757E+2  -7.26725E+1
   3.41556E+1  -3.03692E+2
   2.78555E+2  -1.48801E+2
   4.09495E+2   1.10525E+2
   1.04129E+2   4.35062E+2
  -2.08525E+2   4.43561E+2
  -3.20175E+2   1.41860E+2
  -7.21629E+1   2.02127E+2
   8.09296E+1   3.00816E+2
  -1.68862E+2   8.97527E+1
  -1.01060E+2  -7.49876E+1
   1.30548E+2  -1.29167E+2
  -1.31929E+2  -6.73692E+1
  -3.54704E+2   3.18823E+1
  -3.56465E+2  -1.60769E+2
   2.86006E+2  -1.27505E+2
   1.61962E+2  -1.03877E+2
   1.47884E+2  -1.04797E+1
   2.14424E+1   2.56667E+2
  -1.74815E+2  -6.61258E+0
  -1.82220E+2  -1.29519E+2
   5.84426E+1   1.74378E+0
   4.86181E+1  -2.76144E+1
  -1.42708E+2   1.10590E+2
   3.64893E+0   7.06086E+1
  -2.83503E+2   2.95209E+2
   3.33216E+2   2.91678E+1
  -2.66415E+2  -2.31326E+1
  -3.41095E+1   3.42918E+1
  -3.73038E+2  -2.08997E+2
   3.44705E+1  -2.35648E+1
   7.18958E+1   2.09998E+2
  -9.53178E+1   3.27943E+2
  -1.56100E+2   1.68544E+2
  -3.43821E+2   1.72732E+2
  -3.25945E+2  -2.03822E+1
   9.13115E+1  -1.13615E+2
   9.49125E-1  -4.56433E+1
   3.23586E+1  -1.28550E+2
   1.05177E+2  -1.05498E+1
   2.91348E+2   1.19984E+2
  -8.94926E+1   2.37800E+2
  -3.28293E+2   2.92161E+2
  -2.22380E+2  -1.07372E+2
  -2.38731E+2  -9.94512E+1
   1.88775E+2  -6.59852E+1
   1.47026E+2  -7.37076E+1
   1.98275E+2   9.98142E+1
  -1.15426E+2   1.26267E+2
  -1.81725E+2   4.55132E+1
  -1.43488E+2   6.59840E+1
  -2.37612E+2  -3.01137E+1
  -1.27823E+2  -2.11173E+2
   3.58432E+1  -2.15228E+2
   3.45871E+2   1.56013E+2
  -9.93469E+1   1.12031E+2
  -5.49951E+1  -2.08684E+1
  -1.86884E+2  -2.10212E+2
  -6.30542E+0   7.47401E+1
  -1.09890E+2   1.70932E+1
  -9.87875E+0  -6.26187E+1
  -8.03054E+0   1.68723E+2
   8.36983E+1  -6.50179E+1
   1.82450E+2  -7.39594E+1
   1.13969E+2   3.69188E+2
  -1.63063E+2   2.55074E+2
  -1.42508E+2  -2.09958E+1
   4.68772E+1  -8.34595E+1
  -3.41332E+0  -1.94641E+2
   1.60485E+2  -2.42685E+2
   2.45125E+2   7.67972E+1
  -2.66732E+1  -8.82072E+1
   8.22052E+1  -3.02338E+1
  -7.17541E+1   2.36413E+2
   5.82722E+1   2.50021E+2
  -1.03871E+2   7.80730E+1
  -1.34665E+1   1.53188E+2
   8.56654E+1  -7.54745E+1
   1.17503E+1  -6.58999E+1
  -1.05689E+2   1.73108E+2
  -2.17629E+2   1.15112E+2
   4.54139E+1  -1.36382E+1
   8.28695E+1   1.08832E+2
   7.02532E+1  -1.76251E+2
  -4.35052E+0   1.39109E+2
  -8.70278E+1  -1.79935E+2
  -8.39703E+1   4.15854E+1
  -8.42208E+1  -1.21853E+2
   1.18602E+2   2.27968E+2
   1.32917E+2  -9.44144E+1
   1.29495E+2  -4.27221E+1
   7.75807E+1  -1.49269E+2
   1.13879E+2   1.06326E+2
   7.40514E+1   2.30103E+2
  -2.01774E+2   6.19630E+1
  -1.86776E+2  -1.61900E+2
  -1.41915E+2  -1.29208E+2
   1.86156E+2  -8.42033E+1
  -4.16285E-1   3.65062E+1
   9.22705E+1   2.09701E+1
   1.46088E+2   1.19874E+2
  -2.22662E+1   3.60488E+1
   1.53710E+2   8.28772E+1
  -5.16632E+1  -8.98323E+0
   7.81004E+1  -4.44155E+1
   8.05308E+1   3.01987E+1
   4.27466E+2  -1.85970E+2
   3.93571E+1   7.09374E+1
   6.38430E+1   1.56370E+2
   1.67168E+2  -5.48646E+1
   4.74837E+1  -3.80169E+1
  -3.75888E+1   4.47820E+0
  -3.41016E+1   1.43593E+2
  -1.20437E+2  -1.97932E+2
   2.77042E+1  -3.44059E+2
   2.70792E+2  -1.74519E+2
   5.78014E+1   1.71092E+2
  -7.52790E+1   1.29205E+2
  -2.17345E+2  -1.24879E+2
  -2.36365E+1  -2.32004E+2
  -7.61364E+0  -1.38969E+2
  -1.20295E+2  -2.29166E+2
   2.95872E+1  -5.98942E+1
   1.47721E+1   1.40702E+2
   1.09064E+2   1.75825E+2
   1.51552E+2   2.95576E+2
   3.51098E+0  -1.02617E+2
  -2.90532E+2  -2.43802E+2
   7.72345E+1  -1.69283E+2
   1.50248E+2  -7.78153E+1
   3.02687E+2  -7.13726E+1
   2.03254E+2  -4.48070E+1
   9.39910E+1   6.03522E+1
   1.47349E+2  -3.62019E+0
  -1.15340E+2   4.85946E+1
  -3.42664E+1   1.31153E+2
  -2.21837E+2  -1.34892E+2
   1.03393E+1  -3.87930E+2
   1.18876E+2  -2.22282E+2
   3.43897E+2  -3.90089E+1
   1.94202E+2   7.49389E+0
   1.17525E+2   1.29727E+2
   1.77999E+2   3.11300E+1
  -9.11671E+1  -1.23309E+2
  -7.76821E+0   4.88148E+1
  -1.72207E+1   6.41304E+1
   1.34586E+1  -1.21814E+2
  -8.89544E+0  -1.87897E+2
  -7.62490E+1   3.63938E+2
  -6.93866E+1   1.55263E+2
  -3.73653E+2   1.32386E+1
   1.93075E+2   6.44010E+1
   1.28991E+2   1.18853E+2
   1.84744E+2   2.36345E+1
  -6.43875E+1   1.08904E+2
  -2.04177E-1  -3.65077E+1
   7.25721E+1  -1.23157E+0
   1.22250E+2  -2.34147E+2
   1.68318E+2   3.10020E+0
  -8.29433E+1  -1.00164E+1
   1.60777E+2   4.73904E+1
  -5.25595E+1  -1.92073E+2
   1.81389E+2   7.46366E+1
   8.40981E+1   5.59325E+1
   8.43440E+1   1.88388E+2
  -2.58654E+1  -3.56340E+0
   5.88246E+1  -2.74744E+2
   8.60255E+1  -3.11694E+2
   1.02214E+2   1.60992E+0
   2.20904E+2  -9.16713E+1
   7.91156E+1  -8.52627E+1
   2.19833E+2  -1.91785E+2
   1.10365E+2  -9.37892E+1
   9.87191E+0  -2.53098E+2
   9.93672E+1  -1.12177E+2
  -1.14918E+2  -2.94342E+1
  -1.58640E+1   5.11234E+1
  -3.04737E+1   2.08732E+2
   1.98972E+2   1.22263E+2
  -4.88579E+1   9.09338E+1
  -2.47535E+2  -8.74319E+1
   2.19903E+2  -1.81940E+2
  -1.16600E+2  -1.18836E+1
   1.31333E+2   3.09587E+1
  -3.90707E+0  -3.63141E+1
   2.92537E+2  -7.18569E+0
  -1.05020E+2   9.88093E+1
  -1.79729E+2   2.49747E+2
  -1.41692E+2   3.20211E+2
  -8.29172E+1  -2.13002E+2
   3.55318E+2   1.96320E+1
   1.59817E+2  -6.95175E+1
   1.62307E+2   2.05917E+2
  -3.20690E+1   2.73327E+2
  -7.63466E+1   2.41228E+2
   7.91534E+1  -2.16020E+2
  -7.55351E+1   8.33665E+1
  -1.12181E+2  -6.63024E+1
  -2.28479E+0   1.10855E+2
  -1.07246E+1  -3.58131E+2
   9.28919E+1   1.85593E+2
   3.04325E+2   1.41197E+2
  -1.76412E+2  -1.70709E+2
   8.63290E+1  -4.32055E+1
  -6.22478E+1  -1.04791E+2
   1.56914E+2   1.30475E+2
  -1.61238E+2  -6.88750E+0
   3.87523E+1  -1.38207E+2
   3.30534E+2  -1.03410E+2
   1.66342E+2   3.72221E+1
   1.62281E+2   2.18985E+2
  -1.28910E+1  -1.35387E+0
  -1.16950E+2   1.10256E+2
  -4.27931E+1  -2.57851E+2
   3.13492E+2  -9.10716E+0
   8.34147E+1   1.72263E+2
  -1.44492E+1   6.17400E+1
  -2.16591E+2  -7.76349E+1
  -3.27055E+1   3.03516E+1
