 LCModel (Version 6.3-1N) Copyright: S.W. Provencher.          Ref.: Magn. Reson. Med. 30:672-679 (1993).                
 Slice_N1@21_17  28-Feb-2025 11:42:18
 27 lines in following concentration table = NCONC+1
    Conc.  %SD /Cr+PCr  Metabolite                                         
 3.20E-04   4% 3.6E-04 Mac                                                 
    0.000 999%   0.000 Cr                                                  
    7.042  11%   8.000 PCr                                                 
    7.360  15%   8.362 Ins                                                 
    1.026 102%   1.165 NAA                                                 
    6.573  19%   7.468 Tau                                                 
    0.000 999%   0.000 PCho                                                
    1.553  19%   1.764 GPC                                                 
    7.236  17%   8.221 Glu                                                 
    3.120  31%   3.545 Gln                                                 
    0.000 999%   0.000 Ala                                                 
    1.229 126%   1.397 Asc                                                 
    1.911  55%   2.171 Asp                                                 
    0.619  95%   0.703 GABA                                                
    0.506 137%   0.575 Glc                                                 
    1.924  31%   2.186 GSH                                                 
   13.578   7%  15.427 Lac                                                 
    6.588  12%   7.485 NAAG                                                
    0.000 999%   0.000 PE                                                  
    1.553  19%   1.764 GPC+PCho                                            
    7.614  13%   8.650 NAA+NAAG                                            
   10.356  15%  11.765 Glu+Gln                                             
    7.042  11%   8.000 Cr+PCr                                              
    7.614  13%   8.650 NAA+NAAG                                            
    7.042  11%   8.000 Cr+PCr                                              
   10.356  15%  11.765 Glu+Gln                                             
   6 lines in following misc. output table
  FWHM = 0.057 ppm    S/N =   3                                            
  Data shift =-0.008 ppm                                                   
  Ph: -90 deg       0.0 deg/ppm                                            
  alphaB,S = 1.3E-01,   1.3E+01                                            
   19 spline knots.   Ns = 6(1)                                            
  ( 3) 2 infls.   ( 3) 1 extrs.                                            
  480 points on ppm-axis = NY
      4.100000     4.091866     4.083733     4.075600     4.067466     4.059333     4.051199     4.043066     4.034933     4.026799
      4.018666     4.010532     4.002399     3.994265     3.986132     3.977998     3.969864     3.961731     3.953597     3.945463
      3.937330     3.929196     3.921062     3.912929     3.904795     3.896662     3.888528     3.880394     3.872261     3.864127
      3.855993     3.847860     3.839726     3.831592     3.823459     3.815325     3.807191     3.799058     3.790924     3.782790
      3.774657     3.766523     3.758389     3.750256     3.742122     3.733989     3.725855     3.717721     3.709588     3.701454
      3.693320     3.685187     3.677053     3.668919     3.660786     3.652652     3.644518     3.636385     3.628251     3.620117
      3.611984     3.603850     3.595716     3.587583     3.579449     3.571316     3.563182     3.555048     3.546915     3.538781
      3.530647     3.522514     3.514380     3.506246     3.498113     3.489979     3.481845     3.473712     3.465578     3.457444
      3.449311     3.441177     3.433043     3.424910     3.416776     3.408643     3.400509     3.392375     3.384242     3.376108
      3.367974     3.359841     3.351707     3.343573     3.335440     3.327306     3.319172     3.311039     3.302905     3.294771
      3.286638     3.278504     3.270370     3.262237     3.254103     3.245970     3.237836     3.229702     3.221569     3.213435
      3.205301     3.197168     3.189034     3.180900     3.172767     3.164633     3.156499     3.148366     3.140232     3.132098
      3.123965     3.115831     3.107697     3.099564     3.091430     3.083297     3.075163     3.067029     3.058896     3.050762
      3.042628     3.034495     3.026361     3.018227     3.010094     3.001960     2.993826     2.985693     2.977559     2.969425
      2.961292     2.953158     2.945024     2.936891     2.928757     2.920624     2.912490     2.904356     2.896223     2.888089
      2.879955     2.871822     2.863688     2.855554     2.847421     2.839287     2.831153     2.823020     2.814886     2.806752
      2.798619     2.790485     2.782351     2.774218     2.766084     2.757951     2.749817     2.741683     2.733550     2.725416
      2.717282     2.709149     2.701015     2.692881     2.684748     2.676614     2.668480     2.660347     2.652213     2.644079
      2.635946     2.627812     2.619678     2.611545     2.603411     2.595278     2.587144     2.579010     2.570877     2.562743
      2.554609     2.546476     2.538342     2.530208     2.522075     2.513941     2.505807     2.497674     2.489540     2.481406
      2.473273     2.465139     2.457006     2.448872     2.440738     2.432605     2.424471     2.416337     2.408204     2.400070
      2.391936     2.383803     2.375669     2.367535     2.359402     2.351268     2.343134     2.335001     2.326867     2.318733
      2.310600     2.302466     2.294333     2.286199     2.278065     2.269932     2.261798     2.253664     2.245531     2.237397
      2.229263     2.221130     2.212996     2.204862     2.196729     2.188595     2.180461     2.172328     2.164194     2.156060
      2.147927     2.139793     2.131660     2.123526     2.115392     2.107259     2.099125     2.090991     2.082858     2.074724
      2.066590     2.058457     2.050323     2.042189     2.034056     2.025922     2.017788     2.009655     2.001521     1.993387
      1.985254     1.977120     1.968987     1.960853     1.952719     1.944586     1.936452     1.928318     1.920185     1.912051
      1.903917     1.895784     1.887650     1.879516     1.871383     1.863249     1.855115     1.846982     1.838848     1.830714
      1.822581     1.814447     1.806314     1.798180     1.790046     1.781913     1.773779     1.765645     1.757512     1.749378
      1.741244     1.733111     1.724977     1.716843     1.708710     1.700576     1.692442     1.684309     1.676175     1.668041
      1.659908     1.651774     1.643641     1.635507     1.627373     1.619240     1.611106     1.602972     1.594839     1.586705
      1.578571     1.570438     1.562304     1.554170     1.546037     1.537903     1.529769     1.521636     1.513502     1.505368
      1.497235     1.489101     1.480968     1.472834     1.464700     1.456567     1.448433     1.440299     1.432166     1.424032
      1.415898     1.407765     1.399631     1.391497     1.383364     1.375230     1.367096     1.358963     1.350829     1.342695
      1.334562     1.326428     1.318295     1.310161     1.302027     1.293894     1.285760     1.277626     1.269493     1.261359
      1.253225     1.245092     1.236958     1.228824     1.220691     1.212557     1.204423     1.196290     1.188156     1.180022
      1.171889     1.163755     1.155622     1.147488     1.139354     1.131221     1.123087     1.114953     1.106820     1.098686
      1.090552     1.082419     1.074285     1.066151     1.058018     1.049884     1.041750     1.033617     1.025483     1.017349
      1.009216     1.001082     0.992949     0.984815     0.976681     0.968548     0.960414     0.952280     0.944147     0.936013
      0.927879     0.919746     0.911612     0.903478     0.895345     0.887211     0.879077     0.870944     0.862810     0.854676
      0.846543     0.838409     0.830276     0.822142     0.814008     0.805875     0.797741     0.789607     0.781474     0.773340
      0.765206     0.757073     0.748939     0.740805     0.732672     0.724538     0.716404     0.708271     0.700137     0.692003
      0.683870     0.675736     0.667603     0.659469     0.651335     0.643202     0.635068     0.626934     0.618801     0.610667
      0.602533     0.594400     0.586266     0.578132     0.569999     0.561865     0.553731     0.545598     0.537464     0.529330
      0.521197     0.513063     0.504930     0.496796     0.488662     0.480529     0.472395     0.464261     0.456128     0.447994
      0.439861     0.431727     0.423593     0.415460     0.407326     0.399192     0.391059     0.382925     0.374792     0.366658
      0.358524     0.350391     0.342257     0.334124     0.325990     0.317856     0.309723     0.301589     0.293455     0.285322
      0.277188     0.269055     0.260921     0.252787     0.244654     0.236520     0.228386     0.220253     0.212119     0.203986
 NY phased data points follow
  -3.70273E+00  4.14189E+00 -5.53394E-01 -2.99164E+00 -1.07658E+01 -2.12196E+01 -8.99882E+00  4.95517E+00 -7.14429E+00 -9.29695E+00
  -6.02238E+00 -1.05592E+01 -6.86925E+00 -1.79233E+01 -2.58672E+01 -2.55533E+01 -2.93087E+01 -2.70962E+01 -2.70473E+01 -4.02594E+01
  -4.62711E+01 -4.37630E+01 -3.29517E+01 -2.58955E+01 -1.93055E+01  7.50949E+00  4.33338E-02  5.69842E+00  2.75351E+01  2.60677E+01
   2.96961E+01  1.24548E+01  1.61611E+01  2.26012E+01  1.02365E+01  1.87066E+01  2.05416E+01  1.44800E+01  2.46002E-01 -1.61336E+01
  -2.30945E+01 -2.50983E+01 -1.63045E+01 -2.84188E+01 -2.27970E+01  3.82642E+00  1.11149E+01  3.32388E+01  2.24752E+01  3.38859E+01
   6.00871E+01  3.83539E+01  3.45760E+01  2.94598E+01  2.98046E+01  2.39113E+01  5.89831E+00 -8.19917E+00  1.49480E+01  2.28271E+01
  -7.44343E+00  7.68809E+00  5.90358E-01  1.48910E+01  3.89748E+01  2.54399E+01  2.23437E+01  2.30384E+01  1.88090E+01  3.17268E+00
   2.29399E+00 -1.22129E+01 -5.15139E+00  9.05099E+00  6.20176E+00  1.82896E+01  3.03674E+01  4.05388E+01  3.49658E+01  3.68324E+01
   2.99695E+01  3.86542E+01  3.63793E+01  1.53514E+01  2.51508E+01  1.69597E+01  1.10674E+01  2.47487E+01  3.34569E+01  2.81475E+01
   3.92147E+01  4.97321E+01  6.00050E+01  7.54435E+01  6.86184E+01  7.81636E+01  6.98961E+01  6.78463E+01  8.98344E+01  8.23912E+01
   8.29864E+01  7.96899E+01  5.04363E+01  5.14090E+01  4.58320E+01  2.24282E+01  2.33230E+01  2.96810E+00 -1.68266E+01 -3.83155E+01
  -7.91720E+01 -9.50173E+01 -7.49936E+01 -7.50737E+01 -8.46588E+01 -4.58566E+01 -2.25470E+01 -8.10158E+00 -3.66135E+00 -3.33348E-01
   1.13807E+01  1.34262E+01  2.94630E+01  2.15551E+01  4.02757E+01  4.79329E+01  4.42418E+01  7.55517E+01  7.69217E+01  8.27522E+01
   8.91154E+01  8.22158E+01  5.89534E+01  3.85219E+01  1.97471E+01 -1.92828E+01 -4.49699E+01 -5.94871E+01 -5.50784E+01 -5.07825E+01
  -3.78390E+01 -2.75419E+01 -3.23849E+01 -2.92841E+01 -4.92201E+01 -4.99531E+01 -3.58417E+01 -3.66925E+01 -3.10727E+01 -4.06825E+01
  -2.60639E+01 -1.26154E+01 -3.67027E+01 -2.46035E+01 -1.20201E+01 -1.35830E+01 -1.19026E+01 -1.65652E+01 -7.87383E+00 -9.96433E+00
   8.35158E+00  1.79110E+01 -6.74946E+00 -2.69760E+00  1.57591E+01  1.52607E+01  3.44085E+00  7.66943E+00  7.37423E+00  3.93637E-01
  -3.95654E+00 -9.38434E-01  9.08801E+00  3.58681E+00  6.59988E+00  1.11732E+01  9.91179E+00  9.00083E+00 -3.58140E+00 -1.44053E+01
  -5.27147E+00 -7.04893E+00 -2.74197E+01 -3.47757E+01 -3.80280E+01 -3.36603E+01 -3.94179E+01 -4.15060E+01 -2.77240E+01 -2.62750E+01
  -1.49572E+01 -1.15900E+01 -8.40991E+00 -4.20306E+00 -1.89295E+01 -5.24127E+00 -8.26571E+00 -2.40881E+01 -5.98806E+00 -4.40404E+00
   2.95757E+00  1.02123E+01  3.07496E+00 -2.10257E-01  3.99121E-01  6.29412E+00 -4.00265E-01 -5.76074E+00 -1.89696E+01 -3.37566E+01
  -3.47030E+01 -2.67603E+01 -2.65800E+01 -1.56869E+01  3.01032E+00 -8.58761E-01  1.35938E+01  1.94673E+01  1.78298E+01  1.63889E+01
   9.12412E+00  2.62098E+00 -2.50330E+00 -9.22997E-01 -1.18334E+00  1.49311E+01  5.94505E+00  3.17777E+00  9.34418E+00  3.19584E+00
   2.50303E+00  1.05836E+00 -3.67314E+00 -1.13221E+01 -9.18343E+00 -3.14633E+01 -1.79754E+01 -1.85507E+01 -3.45589E+01 -3.33369E+01
  -4.12541E+01 -1.82064E+01 -3.36767E+01 -2.04213E+01 -3.41494E+00 -9.41062E+00 -5.92336E+00 -8.41826E+00 -4.94027E+00 -1.20614E+01
   2.01227E+00 -1.80872E+01 -3.17210E+01 -3.34362E+01 -2.94583E+01 -1.80370E+01 -4.03737E+00  3.62187E+01  6.35026E+01  1.01974E+02
   1.18278E+02  1.69564E+02  1.76700E+02  1.29584E+02  1.27969E+02  1.05341E+02  9.82049E+01  8.75665E+01  7.87523E+01  8.00061E+01
   8.26121E+01  7.14480E+01  7.04160E+01  8.76598E+01  8.92123E+01  9.62852E+01  7.61901E+01  8.09430E+01  8.41471E+01  8.30729E+01
   8.89228E+01  7.54570E+01  8.24026E+01  7.32337E+01  6.91347E+01  7.21077E+01  6.99498E+01  6.15614E+01  5.53687E+01  5.94247E+01
   5.09093E+01  4.66462E+01  3.85804E+01  3.00254E+01  3.48197E+01  3.99735E+01  3.69014E+01  3.47175E+01  2.95086E+01  1.31682E+01
   1.42103E+01  2.70100E+01  2.31218E+01  3.73639E+01  2.59797E+01  8.45290E+00  4.10070E+01  3.03843E+01  1.64183E+01  2.75415E+01
   2.83856E+01  1.82553E+01  1.01372E+01  1.21938E+01  1.26342E+01  2.54835E+01  2.16314E+01  1.85934E+01  1.43874E+01  2.62118E+01
   2.51537E+01  1.01998E+01  2.79101E+01  1.82306E+01  1.53336E+01  2.36446E+01  4.01533E+01  3.93663E+01  2.65726E+01  2.84838E+01
   2.24757E+01  2.44520E+01  2.28095E+01  4.30560E+01  3.37090E+01  2.36794E+01  3.92558E+01  4.04472E+01  4.52502E+01  4.53269E+01
   5.84410E+01  4.17430E+01  2.86198E+01  3.08641E+01  1.14054E+01 -8.67841E+00 -2.79247E+01 -4.19107E+01 -5.91603E+01 -7.33638E+01
  -8.27148E+01 -8.33122E+01 -8.49256E+01 -7.46315E+01 -8.34026E+01 -8.85976E+01 -6.38330E+01 -7.42715E+01 -7.02785E+01 -6.31177E+01
  -5.55545E+01 -4.60714E+01 -4.59396E+01 -2.36764E+01 -2.83597E+01 -1.92808E+01  1.19545E-01 -7.19884E+00  1.74745E+00  1.06075E+01
   1.82549E+01  2.58429E+01  2.38114E+01  3.49869E+01  4.45660E+01  4.23210E+01  4.47902E+01  5.27960E+01  6.35422E+01  5.82322E+01
   5.97330E+01  7.41984E+01  7.30661E+01  8.94989E+01  1.01846E+02  1.08233E+02  1.27196E+02  1.09113E+02  1.05775E+02  1.23454E+02
   1.23102E+02  1.24217E+02  1.09029E+02  9.71579E+01  8.96695E+01  8.31153E+01  7.34332E+01  6.43016E+01  6.70996E+01  5.79094E+01
   5.20735E+01  2.40051E+01  6.86502E-01  5.56049E+00 -6.38509E+00 -1.27887E+01 -1.42689E+01 -1.57642E+01 -1.47160E+01 -2.35946E+01
  -2.33797E+01 -1.28799E+01 -1.91601E+01 -2.49030E+01 -1.75482E+01 -1.46998E+01 -1.49907E+01 -1.75923E+01 -2.25118E+01 -2.40569E+01
  -1.79249E+01 -1.45476E+01 -1.33991E+01 -6.04087E+00 -5.65468E+00 -1.76007E+01 -1.24471E+01 -1.03980E+01 -1.97961E+01 -1.49259E+01
  -2.49984E+01 -2.57045E+01 -1.35902E+01 -1.33598E+01 -1.51853E+01 -6.57576E+00 -8.85938E+00 -1.87784E+01 -1.17027E+01 -2.25987E+01
  -1.93506E+01 -1.35422E+01 -7.87449E+00 -1.59519E+01 -3.22628E+01 -9.38854E+00 -1.62086E+01 -8.80801E+00 -1.02026E+01 -2.08444E+01
  -2.41662E+00 -1.22093E+01 -1.47901E+01 -1.41009E+01 -5.64285E+00 -1.81219E+01 -2.38749E+01 -1.54495E+00 -8.65418E+00 -1.03434E+01
  -1.27156E+01 -1.30328E+01 -1.21024E+01 -5.50783E+00 -3.43988E+00 -1.22113E+01 -7.92538E+00 -8.77099E+00  1.13739E+00 -1.37791E+01
  -1.55175E+01 -6.26890E-01 -1.10260E+01  5.67730E+00 -5.15155E+00 -1.49506E+01 -3.65610E+00 -3.11775E+00 -3.29601E+00 -1.29635E+01
 NY points of the fit to the data follow
  -4.17786E+01 -3.66107E+01 -3.08725E+01 -2.46956E+01 -1.90860E+01 -1.37467E+01 -8.25192E+00 -4.43884E+00 -1.33100E+00 -1.93736E-01
   3.30477E-03 -6.35314E-01 -4.45692E+00 -1.13388E+01 -1.85446E+01 -2.48352E+01 -3.09509E+01 -3.64852E+01 -4.18188E+01 -4.68181E+01
  -4.76140E+01 -4.29081E+01 -3.48230E+01 -2.46460E+01 -1.24767E+01  2.19216E+00  1.71785E+01  2.47410E+01  2.54957E+01  2.66315E+01
   2.84322E+01  3.01520E+01  3.10291E+01  3.07806E+01  2.92679E+01  2.69007E+01  2.36028E+01  1.93016E+01  1.43261E+01  8.10423E+00
   1.45472E+00 -3.92833E+00 -7.26396E+00 -8.43557E+00 -6.84541E+00 -1.84080E+00  6.61705E+00  1.72988E+01  2.50938E+01  3.06655E+01
   3.35927E+01  3.41926E+01  3.23701E+01  2.87645E+01  2.52450E+01  2.13149E+01  1.69316E+01  1.35514E+01  1.03042E+01  7.26062E+00
   5.96628E+00  5.19832E+00  4.98207E+00  6.74316E+00  9.65813E+00  1.51828E+01  2.19132E+01  2.45197E+01  2.56351E+01  2.52209E+01
   2.11788E+01  1.66512E+01  1.21657E+01  8.96766E+00  8.85297E+00  1.32730E+01  2.22071E+01  3.02739E+01  3.59025E+01  4.14182E+01
   4.45257E+01  4.37951E+01  3.99141E+01  3.40954E+01  2.76637E+01  2.14039E+01  1.67462E+01  1.52450E+01  1.72695E+01  2.21938E+01
   3.07809E+01  3.87755E+01  4.72164E+01  5.35039E+01  5.83053E+01  6.24731E+01  6.57932E+01  6.85527E+01  7.07496E+01  7.13386E+01
   7.11920E+01  6.99865E+01  6.52457E+01  5.79000E+01  4.77981E+01  3.42601E+01  1.97691E+01  2.83801E+00 -1.72814E+01 -3.52735E+01
  -4.94903E+01 -5.98858E+01 -6.39493E+01 -6.62052E+01 -6.26699E+01 -4.98549E+01 -3.54559E+01 -2.42800E+01 -1.50320E+01 -6.86049E+00
   8.99434E-01  8.56720E+00  1.64302E+01  2.47938E+01  3.42279E+01  4.33348E+01  5.26621E+01  6.19304E+01  6.90927E+01  7.54458E+01
   7.81139E+01  7.18266E+01  5.77741E+01  3.96926E+01  1.92492E+01 -2.57042E+00 -2.56726E+01 -4.46126E+01 -4.71291E+01 -4.42357E+01
  -4.22931E+01 -4.14542E+01 -4.10058E+01 -4.08008E+01 -4.07433E+01 -4.06420E+01 -4.02659E+01 -3.95468E+01 -3.81732E+01 -3.61508E+01
  -3.39393E+01 -3.13934E+01 -2.88425E+01 -2.64251E+01 -2.41926E+01 -2.19964E+01 -1.98163E+01 -1.78043E+01 -1.59090E+01 -1.41754E+01
  -1.25007E+01 -1.09013E+01 -9.56170E+00 -8.40790E+00 -7.15333E+00 -5.33168E+00 -3.29471E+00 -1.55166E+00 -3.02226E-01  9.09682E-01
   2.60296E+00  4.53220E+00  5.82287E+00  5.71861E+00  5.27175E+00  4.63158E+00  3.56151E+00  1.02067E+00 -3.23780E+00 -7.43461E+00
  -1.02671E+01 -1.20016E+01 -1.35680E+01 -1.47592E+01 -1.59436E+01 -1.66161E+01 -1.68845E+01 -1.67026E+01 -1.55487E+01 -1.39104E+01
  -1.12800E+01 -8.01008E+00 -4.99726E+00 -1.88045E+00  1.22517E+00  3.78962E+00  5.64187E+00  5.84504E+00  4.97828E+00  5.23265E+00
   4.66824E+00  3.05896E+00  2.12285E+00  1.21545E+00  7.30344E-01 -5.52077E-01 -2.68075E+00 -4.69218E+00 -7.00956E+00 -9.40023E+00
  -1.18270E+01 -1.40737E+01 -1.48531E+01 -1.42114E+01 -1.15658E+01 -6.43628E+00  2.17534E-02  7.30655E+00  1.52237E+01  2.20267E+01
   2.64185E+01  2.91290E+01  2.85691E+01  2.67208E+01  2.47255E+01  2.11499E+01  1.79669E+01  1.41386E+01  8.65227E+00  1.24300E+00
  -7.84644E+00 -1.83832E+01 -2.94685E+01 -3.96314E+01 -4.88233E+01 -5.56106E+01 -5.88763E+01 -5.92583E+01 -5.59951E+01 -4.97652E+01
  -4.26523E+01 -3.43391E+01 -2.65716E+01 -2.16655E+01 -1.68874E+01 -1.50104E+01 -1.55776E+01 -1.66966E+01 -1.85646E+01 -2.14778E+01
  -2.47039E+01 -2.75751E+01 -2.99175E+01 -2.74661E+01 -1.59515E+01  1.75131E+00  2.17820E+01  4.45831E+01  7.03678E+01  9.57507E+01
   1.12260E+02  1.10917E+02  1.08420E+02  1.05982E+02  1.02385E+02  9.70571E+01  9.16120E+01  8.66160E+01  8.19877E+01  7.76813E+01
   7.36890E+01  7.02061E+01  6.74799E+01  6.57233E+01  6.49443E+01  6.50502E+01  6.56494E+01  6.64908E+01  6.74717E+01  6.81068E+01
   6.82514E+01  6.80254E+01  6.72409E+01  6.59358E+01  6.40102E+01  6.16798E+01  5.90698E+01  5.61635E+01  5.30411E+01  4.96241E+01
   4.60445E+01  4.23907E+01  3.86277E+01  3.49722E+01  3.16404E+01  2.89041E+01  2.70143E+01  2.60195E+01  2.59662E+01  2.69015E+01
   2.86158E+01  3.08615E+01  3.33904E+01  3.60191E+01  3.86778E+01  4.13322E+01  4.39765E+01  4.65558E+01  4.90875E+01  5.15514E+01
   5.39577E+01  5.62602E+01  5.84601E+01  6.04765E+01  6.21050E+01  6.33234E+01  6.41801E+01  6.45479E+01  6.44014E+01  6.36648E+01
   6.22853E+01  6.03082E+01  5.77275E+01  5.44870E+01  5.07453E+01  4.64024E+01  4.12986E+01  3.55039E+01  2.93573E+01  2.30088E+01
   1.68321E+01  1.13323E+01  7.20179E+00  5.17863E+00  5.78214E+00  9.24143E+00  1.45406E+01  2.18632E+01  3.03510E+01  3.79744E+01
   4.54984E+01  4.93567E+01  4.56410E+01  3.51840E+01  1.74938E+01 -6.14879E+00 -3.16916E+01 -5.67469E+01 -7.66329E+01 -8.32049E+01
  -8.21686E+01 -7.36270E+01 -6.06080E+01 -5.28550E+01 -4.85502E+01 -4.62057E+01 -4.47803E+01 -4.35765E+01 -4.20896E+01 -3.99078E+01
  -3.68552E+01 -3.30208E+01 -2.86723E+01 -2.38966E+01 -1.89387E+01 -1.39426E+01 -8.98751E+00 -4.20852E+00  4.52355E-01  4.99607E+00
   9.44022E+00  1.39097E+01  1.84566E+01  2.31474E+01  2.81129E+01  3.33821E+01  3.90185E+01  4.51475E+01  5.17963E+01  5.89588E+01
   6.65527E+01  7.44045E+01  8.23538E+01  9.01927E+01  9.73919E+01  1.03466E+02  1.08025E+02  1.10470E+02  1.10276E+02  1.07326E+02
   1.01935E+02  9.44826E+01  8.56444E+01  7.62078E+01  6.69508E+01  5.82164E+01  4.99356E+01  4.18644E+01  3.37831E+01  2.56901E+01
   1.75859E+01  9.77794E+00  2.65556E+00 -3.43236E+00 -8.44833E+00 -1.22742E+01 -1.50135E+01 -1.70558E+01 -1.85303E+01 -1.95763E+01
  -2.02926E+01 -2.08166E+01 -2.12072E+01 -2.14322E+01 -2.15123E+01 -2.14111E+01 -2.11787E+01 -2.09456E+01 -2.06985E+01 -2.04031E+01
  -2.00387E+01 -1.97294E+01 -1.94401E+01 -1.91105E+01 -1.86601E+01 -1.82588E+01 -1.80133E+01 -1.76980E+01 -1.73035E+01 -1.69027E+01
  -1.65594E+01 -1.62236E+01 -1.58654E+01 -1.55066E+01 -1.51965E+01 -1.49536E+01 -1.46547E+01 -1.43155E+01 -1.39170E+01 -1.34854E+01
  -1.30511E+01 -1.26519E+01 -1.23106E+01 -1.20046E+01 -1.18068E+01 -1.16006E+01 -1.13903E+01 -1.11838E+01 -1.09878E+01 -1.07276E+01
  -1.04191E+01 -1.00943E+01 -9.77670E+00 -9.48123E+00 -9.16567E+00 -8.84779E+00 -8.53618E+00 -8.15485E+00 -7.78115E+00 -7.48614E+00
  -7.20933E+00 -6.96276E+00 -6.77081E+00 -6.55963E+00 -6.36333E+00 -6.15812E+00 -5.92471E+00 -5.61594E+00 -5.28225E+00 -4.92398E+00
  -4.61710E+00 -4.36978E+00 -4.16867E+00 -4.06309E+00 -4.02389E+00 -4.00368E+00 -3.87578E+00 -3.71132E+00 -3.50297E+00 -3.28015E+00
 NY background values follow
     5.569E+00    5.570E+00    5.571E+00    5.572E+00    5.574E+00    5.576E+00    5.578E+00    5.581E+00    5.585E+00    5.590E+00
     5.597E+00    5.604E+00    5.613E+00    5.623E+00    5.636E+00    5.650E+00    5.666E+00    5.684E+00    5.705E+00    5.728E+00
     5.754E+00    5.783E+00    5.815E+00    5.850E+00    5.888E+00    5.929E+00    5.974E+00    6.023E+00    6.075E+00    6.132E+00
     6.193E+00    6.258E+00    6.327E+00    6.400E+00    6.478E+00    6.560E+00    6.646E+00    6.736E+00    6.829E+00    6.927E+00
     7.029E+00    7.135E+00    7.244E+00    7.357E+00    7.474E+00    7.595E+00    7.719E+00    7.847E+00    7.979E+00    8.114E+00
     8.252E+00    8.394E+00    8.540E+00    8.688E+00    8.840E+00    8.996E+00    9.154E+00    9.316E+00    9.481E+00    9.649E+00
     9.819E+00    9.993E+00    1.017E+01    1.035E+01    1.053E+01    1.072E+01    1.090E+01    1.109E+01    1.128E+01    1.148E+01
     1.167E+01    1.187E+01    1.207E+01    1.227E+01    1.247E+01    1.267E+01    1.288E+01    1.308E+01    1.329E+01    1.349E+01
     1.370E+01    1.391E+01    1.412E+01    1.432E+01    1.453E+01    1.474E+01    1.495E+01    1.516E+01    1.536E+01    1.557E+01
     1.578E+01    1.598E+01    1.619E+01    1.639E+01    1.659E+01    1.679E+01    1.699E+01    1.719E+01    1.739E+01    1.759E+01
     1.778E+01    1.798E+01    1.817E+01    1.836E+01    1.855E+01    1.874E+01    1.892E+01    1.911E+01    1.929E+01    1.947E+01
     1.964E+01    1.982E+01    1.999E+01    2.016E+01    2.033E+01    2.050E+01    2.066E+01    2.082E+01    2.098E+01    2.114E+01
     2.129E+01    2.144E+01    2.159E+01    2.173E+01    2.187E+01    2.201E+01    2.214E+01    2.227E+01    2.240E+01    2.253E+01
     2.265E+01    2.276E+01    2.288E+01    2.299E+01    2.309E+01    2.319E+01    2.329E+01    2.338E+01    2.347E+01    2.356E+01
     2.364E+01    2.371E+01    2.379E+01    2.385E+01    2.392E+01    2.397E+01    2.403E+01    2.407E+01    2.412E+01    2.415E+01
     2.419E+01    2.421E+01    2.424E+01    2.425E+01    2.427E+01    2.427E+01    2.428E+01    2.428E+01    2.427E+01    2.426E+01
     2.425E+01    2.423E+01    2.421E+01    2.418E+01    2.415E+01    2.412E+01    2.408E+01    2.405E+01    2.400E+01    2.396E+01
     2.391E+01    2.386E+01    2.381E+01    2.375E+01    2.369E+01    2.363E+01    2.357E+01    2.351E+01    2.344E+01    2.337E+01
     2.330E+01    2.323E+01    2.316E+01    2.308E+01    2.301E+01    2.293E+01    2.285E+01    2.277E+01    2.269E+01    2.260E+01
     2.252E+01    2.243E+01    2.234E+01    2.225E+01    2.216E+01    2.207E+01    2.198E+01    2.188E+01    2.179E+01    2.169E+01
     2.159E+01    2.149E+01    2.139E+01    2.128E+01    2.118E+01    2.107E+01    2.097E+01    2.086E+01    2.075E+01    2.064E+01
     2.053E+01    2.042E+01    2.030E+01    2.019E+01    2.007E+01    1.995E+01    1.982E+01    1.970E+01    1.957E+01    1.944E+01
     1.930E+01    1.916E+01    1.902E+01    1.887E+01    1.872E+01    1.856E+01    1.840E+01    1.824E+01    1.807E+01    1.789E+01
     1.771E+01    1.752E+01    1.732E+01    1.712E+01    1.691E+01    1.670E+01    1.647E+01    1.624E+01    1.601E+01    1.576E+01
     1.551E+01    1.524E+01    1.497E+01    1.469E+01    1.441E+01    1.411E+01    1.381E+01    1.350E+01    1.318E+01    1.285E+01
     1.252E+01    1.218E+01    1.183E+01    1.147E+01    1.111E+01    1.074E+01    1.036E+01    9.971E+00    9.578E+00    9.177E+00
     8.769E+00    8.354E+00    7.932E+00    7.502E+00    7.067E+00    6.624E+00    6.174E+00    5.718E+00    5.255E+00    4.785E+00
     4.309E+00    3.827E+00    3.339E+00    2.846E+00    2.349E+00    1.848E+00    1.343E+00    8.353E-01    3.256E-01   -1.858E-01
    -6.983E-01   -1.211E+00   -1.724E+00   -2.237E+00   -2.748E+00   -3.258E+00   -3.765E+00   -4.269E+00   -4.770E+00   -5.267E+00
    -5.760E+00   -6.247E+00   -6.729E+00   -7.204E+00   -7.672E+00   -8.134E+00   -8.587E+00   -9.032E+00   -9.467E+00   -9.893E+00
    -1.031E+01   -1.071E+01   -1.111E+01   -1.149E+01   -1.187E+01   -1.223E+01   -1.258E+01   -1.292E+01   -1.325E+01   -1.356E+01
    -1.387E+01   -1.416E+01   -1.444E+01   -1.471E+01   -1.496E+01   -1.520E+01   -1.543E+01   -1.565E+01   -1.586E+01   -1.605E+01
    -1.623E+01   -1.639E+01   -1.654E+01   -1.668E+01   -1.680E+01   -1.691E+01   -1.700E+01   -1.709E+01   -1.715E+01   -1.720E+01
    -1.724E+01   -1.726E+01   -1.727E+01   -1.726E+01   -1.724E+01   -1.721E+01   -1.716E+01   -1.710E+01   -1.703E+01   -1.695E+01
    -1.685E+01   -1.674E+01   -1.662E+01   -1.649E+01   -1.634E+01   -1.619E+01   -1.602E+01   -1.585E+01   -1.566E+01   -1.547E+01
    -1.526E+01   -1.505E+01   -1.483E+01   -1.459E+01   -1.435E+01   -1.411E+01   -1.385E+01   -1.359E+01   -1.331E+01   -1.304E+01
    -1.275E+01   -1.246E+01   -1.216E+01   -1.186E+01   -1.155E+01   -1.124E+01   -1.092E+01   -1.060E+01   -1.027E+01   -9.941E+00
    -9.609E+00   -9.274E+00   -8.938E+00   -8.600E+00   -8.260E+00   -7.920E+00   -7.579E+00   -7.238E+00   -6.898E+00   -6.558E+00
    -6.219E+00   -5.882E+00   -5.547E+00   -5.214E+00   -4.884E+00   -4.557E+00   -4.234E+00   -3.914E+00   -3.599E+00   -3.289E+00
    -2.984E+00   -2.684E+00   -2.389E+00   -2.099E+00   -1.815E+00   -1.536E+00   -1.263E+00   -9.942E-01   -7.311E-01   -4.733E-01
    -2.208E-01    2.632E-02    2.682E-01    5.046E-01    7.358E-01    9.616E-01    1.182E+00    1.397E+00    1.607E+00    1.811E+00
     2.010E+00    2.203E+00    2.391E+00    2.574E+00    2.751E+00    2.923E+00    3.089E+00    3.250E+00    3.406E+00    3.555E+00
     3.700E+00    3.839E+00    3.973E+00    4.102E+00    4.226E+00    4.345E+00    4.459E+00    4.569E+00    4.675E+00    4.776E+00
     4.874E+00    4.967E+00    5.057E+00    5.143E+00    5.226E+00    5.305E+00    5.381E+00    5.454E+00    5.525E+00    5.592E+00
     5.657E+00    5.720E+00    5.780E+00    5.838E+00    5.894E+00    5.948E+00    6.001E+00    6.052E+00    6.101E+00    6.149E+00
     6.196E+00    6.242E+00    6.287E+00    6.331E+00    6.374E+00    6.417E+00    6.458E+00    6.498E+00    6.538E+00    6.577E+00
     6.615E+00    6.653E+00    6.690E+00    6.726E+00    6.762E+00    6.798E+00    6.833E+00    6.868E+00    6.902E+00    6.936E+00
     6.970E+00    7.004E+00    7.037E+00    7.070E+00    7.104E+00    7.137E+00    7.170E+00    7.204E+00    7.237E+00    7.271E+00
 Mac      Conc. = 3.20E-04
  -1.60650E+01 -1.66704E+01 -1.72579E+01 -1.79567E+01 -1.87231E+01 -1.95654E+01 -2.05105E+01 -2.16297E+01 -2.29110E+01 -2.42964E+01
  -2.56690E+01 -2.68724E+01 -2.78293E+01 -2.85546E+01 -2.90472E+01 -2.93824E+01 -2.94228E+01 -2.89253E+01 -2.77849E+01 -2.61343E+01
  -2.37436E+01 -2.05932E+01 -1.69639E+01 -1.34574E+01 -1.06535E+01 -8.27282E+00 -6.08851E+00 -4.25549E+00 -2.62105E+00 -9.41816E-01
   7.48715E-01  2.39269E+00  3.84731E+00  5.08439E+00  6.00874E+00  6.75837E+00  7.51286E+00  8.41006E+00  9.45834E+00  1.05646E+01
   1.18127E+01  1.31570E+01  1.44717E+01  1.55423E+01  1.62630E+01  1.67728E+01  1.72577E+01  1.77207E+01  1.79270E+01  1.77499E+01
   1.71750E+01  1.63599E+01  1.55177E+01  1.47517E+01  1.41957E+01  1.38831E+01  1.40067E+01  1.44851E+01  1.51678E+01  1.61021E+01
   1.72289E+01  1.84284E+01  1.95138E+01  2.02697E+01  2.06669E+01  2.08922E+01  2.08995E+01  2.06978E+01  2.05428E+01  2.06511E+01
   2.11635E+01  2.21672E+01  2.34110E+01  2.48419E+01  2.63470E+01  2.78588E+01  2.90194E+01  2.96215E+01  2.97637E+01  2.96887E+01
   2.94702E+01  2.92076E+01  2.91014E+01  2.92070E+01  2.95669E+01  3.01297E+01  3.08587E+01  3.17573E+01  3.27320E+01  3.36370E+01
   3.43985E+01  3.50145E+01  3.53611E+01  3.54992E+01  3.52515E+01  3.46693E+01  3.36499E+01  3.21970E+01  3.03540E+01  2.82115E+01
   2.57380E+01  2.30790E+01  2.01973E+01  1.70479E+01  1.36011E+01  9.68428E+00  5.27688E+00  7.71533E-01 -3.37280E+00 -6.87889E+00
