 LCModel (Version 6.3-1N) Copyright: S.W. Provencher.          Ref.: Magn. Reson. Med. 30:672-679 (1993).                
 Slice_N1@16_14  28-Feb-2025 11:39:11
 27 lines in following concentration table = NCONC+1
    Conc.  %SD /Cr+PCr  Metabolite                                         
 2.02E-04  11% 1.4E-04 Mac                                                 
    4.310  58%   3.020 Cr                                                  
    7.107  35%   4.980 PCr                                                 
   11.218  15%   7.861 Ins                                                 
   16.384   9%  11.481 NAA                                                 
    8.933  18%   6.259 Tau                                                 
    0.000 999%   0.000 PCho                                                
    3.163  13%   2.216 GPC                                                 
   11.549  15%   8.093 Glu                                                 
    4.336  33%   3.038 Gln                                                 
    8.011  16%   5.613 Ala                                                 
    4.155  52%   2.912 Asc                                                 
    2.572  80%   1.802 Asp                                                 
    2.529  41%   1.772 GABA                                                
    2.480  59%   1.738 Glc                                                 
    2.309  37%   1.618 GSH                                                 
    0.000 999%   0.000 Lac                                                 
    2.579  43%   1.807 NAAG                                                
    0.000 999%   0.000 PE                                                  
    3.163  13%   2.216 GPC+PCho                                            
   18.962   7%  13.287 NAA+NAAG                                            
   15.885  14%  11.131 Glu+Gln                                             
   11.417  10%   8.000 Cr+PCr                                              
   18.962   7%  13.287 NAA+NAAG                                            
   11.417  10%   8.000 Cr+PCr                                              
   15.885  14%  11.131 Glu+Gln                                             
   6 lines in following misc. output table
  FWHM = 0.033 ppm    S/N =   3                                            
  Data shift = 0.024 ppm                                                   
  Ph:-121 deg       0.0 deg/ppm                                            
  alphaB,S = 9.4E-02,   2.1E+01                                            
   19 spline knots.   Ns = 5(1)                                            
  ( 4) 4 infls.   ( 3) 1 extrs.                                            
  480 points on ppm-axis = NY
      4.100000     4.091866     4.083733     4.075600     4.067466     4.059333     4.051199     4.043066     4.034933     4.026799
      4.018666     4.010532     4.002399     3.994265     3.986132     3.977998     3.969864     3.961731     3.953597     3.945463
      3.937330     3.929196     3.921062     3.912929     3.904795     3.896662     3.888528     3.880394     3.872261     3.864127
      3.855993     3.847860     3.839726     3.831592     3.823459     3.815325     3.807191     3.799058     3.790924     3.782790
      3.774657     3.766523     3.758389     3.750256     3.742122     3.733989     3.725855     3.717721     3.709588     3.701454
      3.693320     3.685187     3.677053     3.668919     3.660786     3.652652     3.644518     3.636385     3.628251     3.620117
      3.611984     3.603850     3.595716     3.587583     3.579449     3.571316     3.563182     3.555048     3.546915     3.538781
      3.530647     3.522514     3.514380     3.506246     3.498113     3.489979     3.481845     3.473712     3.465578     3.457444
      3.449311     3.441177     3.433043     3.424910     3.416776     3.408643     3.400509     3.392375     3.384242     3.376108
      3.367974     3.359841     3.351707     3.343573     3.335440     3.327306     3.319172     3.311039     3.302905     3.294771
      3.286638     3.278504     3.270370     3.262237     3.254103     3.245970     3.237836     3.229702     3.221569     3.213435
      3.205301     3.197168     3.189034     3.180900     3.172767     3.164633     3.156499     3.148366     3.140232     3.132098
      3.123965     3.115831     3.107697     3.099564     3.091430     3.083297     3.075163     3.067029     3.058896     3.050762
      3.042628     3.034495     3.026361     3.018227     3.010094     3.001960     2.993826     2.985693     2.977559     2.969425
      2.961292     2.953158     2.945024     2.936891     2.928757     2.920624     2.912490     2.904356     2.896223     2.888089
      2.879955     2.871822     2.863688     2.855554     2.847421     2.839287     2.831153     2.823020     2.814886     2.806752
      2.798619     2.790485     2.782351     2.774218     2.766084     2.757951     2.749817     2.741683     2.733550     2.725416
      2.717282     2.709149     2.701015     2.692881     2.684748     2.676614     2.668480     2.660347     2.652213     2.644079
      2.635946     2.627812     2.619678     2.611545     2.603411     2.595278     2.587144     2.579010     2.570877     2.562743
      2.554609     2.546476     2.538342     2.530208     2.522075     2.513941     2.505807     2.497674     2.489540     2.481406
      2.473273     2.465139     2.457006     2.448872     2.440738     2.432605     2.424471     2.416337     2.408204     2.400070
      2.391936     2.383803     2.375669     2.367535     2.359402     2.351268     2.343134     2.335001     2.326867     2.318733
      2.310600     2.302466     2.294333     2.286199     2.278065     2.269932     2.261798     2.253664     2.245531     2.237397
      2.229263     2.221130     2.212996     2.204862     2.196729     2.188595     2.180461     2.172328     2.164194     2.156060
      2.147927     2.139793     2.131660     2.123526     2.115392     2.107259     2.099125     2.090991     2.082858     2.074724
      2.066590     2.058457     2.050323     2.042189     2.034056     2.025922     2.017788     2.009655     2.001521     1.993387
      1.985254     1.977120     1.968987     1.960853     1.952719     1.944586     1.936452     1.928318     1.920185     1.912051
      1.903917     1.895784     1.887650     1.879516     1.871383     1.863249     1.855115     1.846982     1.838848     1.830714
      1.822581     1.814447     1.806314     1.798180     1.790046     1.781913     1.773779     1.765645     1.757512     1.749378
      1.741244     1.733111     1.724977     1.716843     1.708710     1.700576     1.692442     1.684309     1.676175     1.668041
      1.659908     1.651774     1.643641     1.635507     1.627373     1.619240     1.611106     1.602972     1.594839     1.586705
      1.578571     1.570438     1.562304     1.554170     1.546037     1.537903     1.529769     1.521636     1.513502     1.505368
      1.497235     1.489101     1.480968     1.472834     1.464700     1.456567     1.448433     1.440299     1.432166     1.424032
      1.415898     1.407765     1.399631     1.391497     1.383364     1.375230     1.367096     1.358963     1.350829     1.342695
      1.334562     1.326428     1.318295     1.310161     1.302027     1.293894     1.285760     1.277626     1.269493     1.261359
      1.253225     1.245092     1.236958     1.228824     1.220691     1.212557     1.204423     1.196290     1.188156     1.180022
      1.171889     1.163755     1.155622     1.147488     1.139354     1.131221     1.123087     1.114953     1.106820     1.098686
      1.090552     1.082419     1.074285     1.066151     1.058018     1.049884     1.041750     1.033617     1.025483     1.017349
      1.009216     1.001082     0.992949     0.984815     0.976681     0.968548     0.960414     0.952280     0.944147     0.936013
      0.927879     0.919746     0.911612     0.903478     0.895345     0.887211     0.879077     0.870944     0.862810     0.854676
      0.846543     0.838409     0.830276     0.822142     0.814008     0.805875     0.797741     0.789607     0.781474     0.773340
      0.765206     0.757073     0.748939     0.740805     0.732672     0.724538     0.716404     0.708271     0.700137     0.692003
      0.683870     0.675736     0.667603     0.659469     0.651335     0.643202     0.635068     0.626934     0.618801     0.610667
      0.602533     0.594400     0.586266     0.578132     0.569999     0.561865     0.553731     0.545598     0.537464     0.529330
      0.521197     0.513063     0.504930     0.496796     0.488662     0.480529     0.472395     0.464261     0.456128     0.447994
      0.439861     0.431727     0.423593     0.415460     0.407326     0.399192     0.391059     0.382925     0.374792     0.366658
      0.358524     0.350391     0.342257     0.334124     0.325990     0.317856     0.309723     0.301589     0.293455     0.285322
      0.277188     0.269055     0.260921     0.252787     0.244654     0.236520     0.228386     0.220253     0.212119     0.203986
 NY phased data points follow
  -9.20209E+01 -9.38613E+01 -1.15819E+02 -1.05787E+02 -1.11704E+02 -1.05122E+02 -1.00871E+02 -8.56866E+01 -9.13018E+01 -1.09749E+02
  -1.13220E+02 -1.21235E+02 -1.09468E+02 -1.29236E+02 -1.23268E+02 -1.25392E+02 -1.27421E+02 -1.24890E+02 -1.51825E+02 -1.60121E+02
  -2.19211E+02 -1.99825E+02 -1.56926E+02 -1.73576E+02 -1.33183E+02 -9.23072E+01 -7.89635E+01 -1.01447E+02 -9.01851E+01 -7.52496E+01
  -9.76860E+01 -8.35341E+01 -7.50843E+01 -6.79354E+01 -7.17939E+01 -7.24270E+01 -6.42242E+01 -6.58408E+01 -6.37431E+01 -9.84042E+01
  -1.16771E+02 -1.26584E+02 -1.57364E+02 -1.42886E+02 -1.29457E+02 -1.30049E+02 -9.90027E+01 -7.65597E+01 -6.10764E+01 -4.97475E+01
  -5.42430E+01 -4.41699E+01 -3.99702E+01 -3.95778E+01 -4.89569E+01 -7.21106E+01 -8.70892E+01 -7.05905E+01 -7.92479E+01 -1.25564E+02
  -9.95232E+01 -8.40882E+01 -9.36875E+01 -8.66708E+01 -6.15929E+01 -1.44197E+01 -1.70008E+01 -2.84129E+01 -5.21372E+01 -9.95113E+01
  -1.34754E+02 -1.13965E+02 -1.06032E+02 -1.33433E+02 -8.93814E+01 -4.79460E+01 -4.81470E+01 -3.69512E+01 -1.97058E+01 -4.17785E+01
  -3.57090E+01 -1.13847E+01 -2.39441E+01 -3.56170E+01 -7.17136E+01 -8.48507E+01 -9.00209E+01 -9.04623E+01 -6.82278E+01 -5.42223E+01
  -4.15212E+01 -2.62090E+01 -1.14263E+01 -1.34281E+01 -4.87294E+00  7.01396E+00  1.08575E+01  2.91897E+01  3.34015E+01  1.81240E+01
   3.31753E+01  3.32831E+01  2.84990E+01  1.98899E+01 -1.31937E+01 -1.83868E+01 -4.69538E+01 -4.12022E+01 -4.28272E+01 -8.08999E+01
  -1.28935E+02 -1.98358E+02 -1.82987E+02 -1.70270E+02 -1.64902E+02 -1.34328E+02 -1.20439E+02 -1.11539E+02 -1.15214E+02 -9.93137E+01
  -9.41946E+01 -9.35589E+01 -7.39594E+01 -6.61629E+01 -6.62585E+01 -5.15416E+01 -4.14955E+01 -3.67541E+01 -8.14436E+00  1.82232E+01
   7.53508E+01  1.49163E+02  9.95833E+01 -2.84728E+01 -1.02119E+02 -1.08313E+02 -1.03121E+02 -1.15377E+02 -1.15162E+02 -1.15806E+02
  -1.10676E+02 -1.08033E+02 -1.07298E+02 -1.26818E+02 -1.28994E+02 -1.07223E+02 -1.29819E+02 -1.06569E+02 -1.05885E+02 -1.15881E+02
  -1.07162E+02 -1.25529E+02 -1.09052E+02 -1.03504E+02 -1.02607E+02 -1.11241E+02 -1.00595E+02 -9.40893E+01 -1.10363E+02 -1.06302E+02
  -1.03142E+02 -9.77483E+01 -9.75123E+01 -8.85443E+01 -8.87802E+01 -8.98758E+01 -9.78175E+01 -9.67168E+01 -9.62277E+01 -9.30356E+01
  -7.88687E+01 -8.49317E+01 -5.42928E+01 -4.13238E+01 -6.12914E+01 -7.06349E+01 -5.71222E+01 -4.06279E+01 -3.44495E+01 -4.16195E+01
  -6.59672E+01 -7.46731E+01 -9.69932E+01 -9.98528E+01 -9.57073E+01 -1.02248E+02 -9.91616E+01 -9.44235E+01 -1.01130E+02 -9.53570E+01
  -7.80410E+01 -1.04898E+02 -1.05631E+02 -9.25079E+01 -7.70194E+01 -6.42510E+01 -7.61308E+01 -7.17464E+01 -6.91902E+01 -5.34125E+01
  -6.01205E+01 -6.83753E+01 -4.94902E+01 -5.50015E+01 -4.97905E+01 -5.29791E+01 -6.00477E+01 -4.97012E+01 -7.95567E+01 -8.91153E+01
  -9.75311E+01 -1.23990E+02 -1.25899E+02 -1.29150E+02 -1.05869E+02 -8.79281E+01 -5.17294E+01 -3.12024E+01 -2.91618E+01 -1.62142E+01
  -5.50333E+01 -7.01208E+01 -6.43712E+01 -6.35301E+01 -7.32270E+01 -7.22576E+01 -6.58259E+01 -7.21487E+01 -5.28841E+01 -5.50757E+01
  -5.88020E+01 -5.00845E+01 -6.16368E+01 -8.41489E+01 -7.89343E+01 -8.83381E+01 -1.13614E+02 -9.89643E+01 -1.11849E+02 -1.31586E+02
  -1.30417E+02 -1.28629E+02 -1.12638E+02 -1.09512E+02 -1.16894E+02 -1.01383E+02 -7.96103E+01 -7.66533E+01 -8.86640E+01 -1.04041E+02
  -1.12535E+02 -1.17119E+02 -1.28039E+02 -1.20594E+02 -1.07099E+02 -1.62511E+02 -2.65495E+02 -2.58980E+02 -6.50477E+01  6.99955E+01
   6.27071E+01  6.86293E+01  6.88224E+01  5.85966E+01  4.66730E+01  4.53148E+01  3.38329E+01  3.55290E+01  4.23729E+01  2.12245E+01
   2.58614E+01  1.88745E+01  1.57400E+01  2.21169E+01  3.54042E+01  3.89617E+01  3.47162E+01  3.84541E+01  3.50720E+01  4.34856E+01
   3.24744E+01  3.87506E+01  4.88666E+01  4.46598E+01  3.57070E+01  3.77674E+01  5.29642E+01  3.48664E+01  3.98287E+01  4.84701E+01
   3.91062E+01  4.70553E+01  4.00491E+01  2.78948E+01  3.78634E+01  2.11179E+01 -5.25863E-01 -2.90621E+00 -1.79675E+01 -2.43861E+01
  -3.51855E+01 -3.43375E+01 -2.68005E+01 -3.66288E+01 -4.67154E+01 -4.96575E+01 -5.28005E+01 -6.05334E+01 -6.26929E+01 -5.31041E+01
  -4.85516E+01 -5.94794E+01 -5.76127E+01 -7.02813E+01 -7.46998E+01 -7.76250E+01 -9.54427E+01 -1.05018E+02 -1.23217E+02 -1.29298E+02
  -1.40486E+02 -1.33139E+02 -1.39396E+02 -1.49139E+02 -1.61722E+02 -1.94257E+02 -1.78613E+02 -1.84238E+02 -1.72102E+02 -1.42506E+02
  -1.26850E+02 -9.89955E+01 -9.57964E+01 -9.23495E+01 -9.97549E+01 -9.42203E+01 -9.10580E+01 -9.93596E+01 -8.80992E+01 -7.90302E+01
  -6.74286E+01 -5.68909E+01 -4.29316E+01 -4.80730E+01 -4.59714E+01 -2.91712E+01 -3.13360E+01 -2.42615E+01 -2.20573E+01 -1.69327E+01
  -1.97115E+01 -2.34944E+01 -2.01656E+01 -2.94340E+01 -1.66908E+01 -2.74403E+01 -3.33102E+01 -2.93865E+01 -5.59579E+01 -5.58821E+01
  -5.77677E+01 -5.75486E+01 -5.84831E+01 -6.00677E+01 -6.08057E+01 -7.41309E+01 -4.73294E+01 -3.74869E+01 -4.32916E+01 -4.18577E+01
  -3.83664E+01 -2.45097E+01 -4.10778E+01 -3.33328E+01 -2.99756E+01 -3.07742E+01 -9.53953E+00 -3.69016E+00  2.58296E+01  2.69325E+01
   2.11302E+01  2.48957E+01  2.91690E+01  5.66549E+01  4.98717E+01  5.74323E+01  7.36975E+01  8.75428E+01  1.07601E+02  1.09502E+02
   1.19576E+02  1.17072E+02  1.10887E+02  9.36748E+01  7.43298E+01  7.85427E+01  6.57926E+01  5.63802E+01  6.13291E+01  4.53158E+01
   4.62566E+01  3.87035E+01  1.34242E+01  5.59416E+00 -2.51841E+01 -1.81780E+01 -1.17015E+01 -3.04118E+01 -2.20979E+01 -3.43840E+01
  -3.22802E+01 -3.20740E+01 -2.82561E+01 -1.67377E+01 -3.36973E+01 -3.32730E+01 -2.24528E+01 -2.43433E+01 -3.80868E+01 -3.36283E+01
  -1.76145E+01 -2.61302E+01 -3.81493E+01 -3.29842E+01 -2.61151E+01 -4.03596E+01 -4.33025E+01 -2.73385E+01 -2.86504E+01 -3.30510E+01
  -4.64205E+01 -5.05805E+01 -3.20248E+01 -3.53329E+01 -3.22492E+01 -3.66006E+01 -4.31947E+01 -2.68277E+01 -4.08754E+01 -4.23828E+01
  -3.10714E+01 -4.35917E+01 -4.35163E+01 -3.36956E+01 -3.70009E+01 -4.33988E+01 -3.64803E+01 -4.00643E+01 -4.79053E+01 -4.60498E+01
  -3.52935E+01 -2.87525E+01 -3.89975E+01 -2.88266E+01 -2.27623E+01 -3.76177E+01 -4.00281E+01 -3.59042E+01 -4.33194E+01 -4.23711E+01
  -4.07937E+01 -4.53360E+01 -2.54395E+01 -3.46862E+01 -4.01706E+01 -3.73130E+01 -4.24383E+01 -1.96686E+01 -3.31338E+01 -3.38626E+01
  -2.61002E+01 -3.55431E+01 -3.37616E+01 -3.73833E+01 -3.05340E+01 -2.47121E+01 -3.17237E+01 -3.88822E+01 -2.55152E+01 -3.16738E+01
 NY points of the fit to the data follow
  -1.12856E+02 -1.17636E+02 -1.27262E+02 -1.39278E+02 -1.44623E+02 -1.35294E+02 -1.15633E+02 -1.00003E+02 -9.62003E+01 -9.95601E+01
  -1.03476E+02 -1.07179E+02 -1.10558E+02 -1.12904E+02 -1.15486E+02 -1.19272E+02 -1.22528E+02 -1.25878E+02 -1.37226E+02 -1.59041E+02
  -1.82580E+02 -1.90424E+02 -1.75609E+02 -1.48813E+02 -1.21083E+02 -9.66141E+01 -7.77483E+01 -6.58889E+01 -5.76395E+01 -5.04653E+01
  -4.89122E+01 -4.97956E+01 -5.18967E+01 -5.58513E+01 -6.26906E+01 -7.06664E+01 -7.82322E+01 -8.46357E+01 -9.44650E+01 -1.11368E+02
  -1.33162E+02 -1.48998E+02 -1.50114E+02 -1.39487E+02 -1.26448E+02 -1.11547E+02 -9.33196E+01 -7.36978E+01 -6.02257E+01 -5.12691E+01
  -4.56916E+01 -4.28710E+01 -4.52281E+01 -5.52502E+01 -7.06825E+01 -8.15445E+01 -8.46226E+01 -8.67459E+01 -9.56085E+01 -1.06856E+02
  -1.08607E+02 -1.01683E+02 -9.43227E+01 -8.43279E+01 -6.57358E+01 -4.49218E+01 -3.29982E+01 -3.36441E+01 -5.06072E+01 -7.75333E+01
  -9.50355E+01 -9.79722E+01 -9.66946E+01 -9.36972E+01 -8.11033E+01 -6.06723E+01 -4.51879E+01 -3.62698E+01 -2.79443E+01 -2.14691E+01
  -1.88893E+01 -2.24008E+01 -3.25989E+01 -4.95231E+01 -6.91351E+01 -8.36897E+01 -8.79634E+01 -8.20729E+01 -7.00954E+01 -5.66948E+01
  -4.41435E+01 -3.38012E+01 -2.36908E+01 -1.53819E+01 -8.45576E+00 -1.46902E+00  6.21881E+00  1.23997E+01  1.56616E+01  1.74039E+01
   1.98706E+01  2.16717E+01  1.81222E+01  7.86420E+00 -8.76111E+00 -3.15484E+01 -4.51441E+01 -4.03155E+01 -3.78172E+01 -7.42703E+01
  -1.43997E+02 -1.94854E+02 -1.98218E+02 -1.78457E+02 -1.63287E+02 -1.49825E+02 -1.29203E+02 -1.13279E+02 -1.00813E+02 -9.02911E+01
  -8.07970E+01 -7.16998E+01 -6.26490E+01 -5.31143E+01 -4.23857E+01 -3.02613E+01 -1.76257E+01 -1.02034E+01 -1.66602E+00  2.63687E+01
   7.36245E+01  1.01863E+02  6.72898E+01 -1.68323E+01 -8.78604E+01 -1.16029E+02 -1.25953E+02 -1.38790E+02 -1.43065E+02 -1.37898E+02
  -1.33236E+02 -1.29968E+02 -1.27853E+02 -1.26817E+02 -1.25735E+02 -1.24771E+02 -1.23462E+02 -1.21420E+02 -1.18683E+02 -1.16130E+02
  -1.14227E+02 -1.12284E+02 -1.10298E+02 -1.08062E+02 -1.05347E+02 -1.02088E+02 -9.90702E+01 -9.75848E+01 -9.76571E+01 -9.73426E+01
  -9.49697E+01 -9.15485E+01 -8.98417E+01 -9.08232E+01 -9.22381E+01 -9.19344E+01 -9.06008E+01 -9.04540E+01 -9.20927E+01 -9.24090E+01
  -8.58370E+01 -7.06267E+01 -5.40491E+01 -4.78900E+01 -5.39276E+01 -5.85339E+01 -5.08750E+01 -3.76444E+01 -3.42918E+01 -4.51622E+01
  -6.13901E+01 -7.42872E+01 -8.33401E+01 -9.12549E+01 -9.70803E+01 -9.96972E+01 -1.01272E+02 -1.02518E+02 -1.03075E+02 -1.01998E+02
  -1.00588E+02 -1.00475E+02 -9.92712E+01 -9.25332E+01 -8.04738E+01 -7.06838E+01 -6.69649E+01 -6.27760E+01 -5.43480E+01 -4.88710E+01
  -5.15438E+01 -5.48418E+01 -5.23097E+01 -4.84485E+01 -4.88918E+01 -5.35118E+01 -5.86118E+01 -6.40465E+01 -7.14553E+01 -8.01904E+01
  -8.94021E+01 -9.74398E+01 -1.03717E+02 -1.03964E+02 -9.64962E+01 -8.10751E+01 -5.94351E+01 -3.83776E+01 -2.42244E+01 -1.88471E+01
  -2.09425E+01 -2.69762E+01 -3.27735E+01 -3.34451E+01 -3.33458E+01 -3.36269E+01 -3.57820E+01 -4.09895E+01 -4.87913E+01 -5.90030E+01
  -7.03232E+01 -8.14165E+01 -9.24984E+01 -1.02275E+02 -1.10454E+02 -1.16865E+02 -1.21638E+02 -1.24479E+02 -1.25867E+02 -1.25572E+02
  -1.24290E+02 -1.22202E+02 -1.17625E+02 -1.10876E+02 -1.03861E+02 -9.70716E+01 -9.24214E+01 -9.14138E+01 -9.36663E+01 -9.83078E+01
  -1.09076E+02 -1.25384E+02 -1.31983E+02 -1.26733E+02 -1.40347E+02 -1.93438E+02 -2.43418E+02 -2.12917E+02 -1.00920E+02  5.12637E+00
   5.00579E+01  6.13422E+01  7.36323E+01  7.58129E+01  6.53281E+01  5.50534E+01  4.55140E+01  3.64623E+01  2.80057E+01  2.03017E+01
   1.41170E+01  9.64758E+00  7.09119E+00  6.40571E+00  7.00091E+00  8.45648E+00  1.00148E+01  1.13067E+01  1.15547E+01  1.07215E+01
   9.40574E+00  7.37582E+00  5.16569E+00  2.64876E+00 -4.80797E-02 -2.76109E+00 -5.46527E+00 -8.31991E+00 -1.14399E+01 -1.47875E+01
  -1.82827E+01 -2.18840E+01 -2.54876E+01 -2.88053E+01 -3.13419E+01 -3.28058E+01 -3.33232E+01 -3.31646E+01 -3.26145E+01 -3.17292E+01
  -3.05284E+01 -2.91440E+01 -2.77656E+01 -2.64563E+01 -2.52048E+01 -2.39395E+01 -2.24973E+01 -2.07485E+01 -1.88583E+01 -1.70557E+01
  -1.53334E+01 -1.35092E+01 -1.15256E+01 -9.44674E+00 -7.27171E+00 -5.16486E+00 -3.86868E+00  2.47051E-01  5.54301E+00  6.17088E+00
  -7.70255E+00 -3.88021E+01 -7.66680E+01 -1.08757E+02 -1.28059E+02 -1.32051E+02 -1.25330E+02 -1.16646E+02 -1.13214E+02 -1.09423E+02
  -1.06830E+02 -1.05846E+02 -1.04689E+02 -1.02488E+02 -9.91040E+01 -9.48985E+01 -9.05179E+01 -8.65365E+01 -8.30893E+01 -8.00036E+01
  -7.68050E+01 -7.31942E+01 -6.91958E+01 -6.51199E+01 -6.14003E+01 -5.83223E+01 -5.58901E+01 -5.38945E+01 -5.23212E+01 -5.13857E+01
  -5.11589E+01 -5.17289E+01 -5.30773E+01 -5.48523E+01 -5.64142E+01 -5.72673E+01 -5.73118E+01 -5.64889E+01 -5.48224E+01 -5.24242E+01
  -4.94518E+01 -4.60311E+01 -4.23557E+01 -3.86623E+01 -3.50894E+01 -3.16443E+01 -2.82637E+01 -2.48749E+01 -2.15085E+01 -1.81646E+01
  -1.49129E+01 -1.16126E+01 -8.13281E+00 -4.42585E+00 -5.00905E-01  3.66420E+00  8.19311E+00  1.31952E+01  1.85482E+01  2.40777E+01
   2.98224E+01  3.60342E+01  4.24837E+01  4.87131E+01  5.41654E+01  5.81924E+01  5.98482E+01  5.84948E+01  5.44255E+01  4.87319E+01
   4.25796E+01  3.66933E+01  3.14139E+01  2.68442E+01  2.25734E+01  1.79888E+01  1.27552E+01  7.05354E+00  1.20924E+00 -4.44159E+00
  -9.38208E+00 -1.34024E+01 -1.66236E+01 -1.91713E+01 -2.09502E+01 -2.21077E+01 -2.29646E+01 -2.37426E+01 -2.44270E+01 -2.49545E+01
  -2.52421E+01 -2.53901E+01 -2.55194E+01 -2.56306E+01 -2.55865E+01 -2.54780E+01 -2.55282E+01 -2.57136E+01 -2.57489E+01 -2.55919E+01
  -2.55447E+01 -2.56790E+01 -2.57738E+01 -2.57581E+01 -2.58467E+01 -2.60807E+01 -2.62461E+01 -2.62396E+01 -2.61521E+01 -2.61523E+01
  -2.63171E+01 -2.65972E+01 -2.69020E+01 -2.71719E+01 -2.73483E+01 -2.74380E+01 -2.75217E+01 -2.76400E+01 -2.77827E+01 -2.79277E+01
  -2.80768E+01 -2.82222E+01 -2.84822E+01 -2.88643E+01 -2.92469E+01 -2.95350E+01 -2.97079E+01 -2.98502E+01 -3.00037E+01 -3.02283E+01
  -3.05063E+01 -3.07980E+01 -3.09662E+01 -3.10379E+01 -3.11327E+01 -3.12847E+01 -3.14341E+01 -3.15768E+01 -3.16815E+01 -3.17994E+01
  -3.20073E+01 -3.23119E+01 -3.26016E+01 -3.28919E+01 -3.31393E+01 -3.32790E+01 -3.31862E+01 -3.30015E+01 -3.29401E+01 -3.31425E+01
  -3.35034E+01 -3.38261E+01 -3.40290E+01 -3.41595E+01 -3.42436E+01 -3.43091E+01 -3.43651E+01 -3.45061E+01 -3.46851E+01 -3.47398E+01
 NY background values follow
    -8.912E+01   -8.894E+01   -8.876E+01   -8.857E+01   -8.839E+01   -8.821E+01   -8.802E+01   -8.783E+01   -8.764E+01   -8.744E+01
    -8.724E+01   -8.704E+01   -8.684E+01   -8.663E+01   -8.642E+01   -8.620E+01   -8.598E+01   -8.575E+01   -8.552E+01   -8.529E+01
    -8.505E+01   -8.480E+01   -8.455E+01   -8.429E+01   -8.402E+01   -8.375E+01   -8.347E+01   -8.318E+01   -8.289E+01   -8.259E+01
    -8.228E+01   -8.196E+01   -8.164E+01   -8.130E+01   -8.097E+01   -8.062E+01   -8.026E+01   -7.991E+01   -7.954E+01   -7.917E+01
    -7.879E+01   -7.841E+01   -7.802E+01   -7.763E+01   -7.723E+01   -7.683E+01   -7.643E+01   -7.602E+01   -7.561E+01   -7.520E+01
    -7.478E+01   -7.436E+01   -7.394E+01   -7.352E+01   -7.309E+01   -7.267E+01   -7.224E+01   -7.182E+01   -7.139E+01   -7.096E+01
    -7.053E+01   -7.011E+01   -6.968E+01   -6.926E+01   -6.884E+01   -6.841E+01   -6.799E+01   -6.757E+01   -6.716E+01   -6.674E+01
    -6.633E+01   -6.592E+01   -6.551E+01   -6.511E+01   -6.470E+01   -6.430E+01   -6.391E+01   -6.352E+01   -6.313E+01   -6.274E+01
    -6.236E+01   -6.198E+01   -6.161E+01   -6.124E+01   -6.088E+01   -6.052E+01   -6.017E+01   -5.982E+01   -5.948E+01   -5.914E+01
    -5.881E+01   -5.849E+01   -5.817E+01   -5.786E+01   -5.755E+01   -5.725E+01   -5.696E+01   -5.667E+01   -5.639E+01   -5.611E+01
    -5.584E+01   -5.558E+01   -5.533E+01   -5.508E+01   -5.483E+01   -5.460E+01   -5.437E+01   -5.415E+01   -5.393E+01   -5.373E+01
    -5.353E+01   -5.333E+01   -5.315E+01   -5.297E+01   -5.279E+01   -5.263E+01   -5.247E+01   -5.232E+01   -5.218E+01   -5.204E+01
    -5.191E+01   -5.179E+01   -5.168E+01   -5.158E+01   -5.148E+01   -5.139E+01   -5.131E+01   -5.123E+01   -5.116E+01   -5.110E+01
    -5.104E+01   -5.100E+01   -5.095E+01   -5.092E+01   -5.089E+01   -5.087E+01   -5.086E+01   -5.085E+01   -5.085E+01   -5.085E+01
    -5.086E+01   -5.088E+01   -5.091E+01   -5.094E+01   -5.097E+01   -5.101E+01   -5.106E+01   -5.112E+01   -5.118E+01   -5.124E+01
    -5.131E+01   -5.139E+01   -5.147E+01   -5.156E+01   -5.165E+01   -5.174E+01   -5.184E+01   -5.195E+01   -5.205E+01   -5.216E+01
    -5.227E+01   -5.239E+01   -5.250E+01   -5.262E+01   -5.274E+01   -5.286E+01   -5.298E+01   -5.310E+01   -5.322E+01   -5.335E+01
    -5.347E+01   -5.359E+01   -5.370E+01   -5.382E+01   -5.394E+01   -5.405E+01   -5.416E+01   -5.427E+01   -5.437E+01   -5.447E+01
    -5.457E+01   -5.467E+01   -5.475E+01   -5.484E+01   -5.492E+01   -5.500E+01   -5.507E+01   -5.513E+01   -5.520E+01   -5.525E+01
    -5.530E+01   -5.535E+01   -5.539E+01   -5.543E+01   -5.545E+01   -5.548E+01   -5.550E+01   -5.551E+01   -5.551E+01   -5.551E+01
    -5.550E+01   -5.549E+01   -5.547E+01   -5.544E+01   -5.541E+01   -5.536E+01   -5.531E+01   -5.526E+01   -5.519E+01   -5.512E+01
    -5.504E+01   -5.495E+01   -5.486E+01   -5.476E+01   -5.465E+01   -5.454E+01   -5.442E+01   -5.430E+01   -5.417E+01   -5.404E+01
    -5.391E+01   -5.377E+01   -5.364E+01   -5.350E+01   -5.336E+01   -5.322E+01   -5.308E+01   -5.294E+01   -5.280E+01   -5.266E+01
    -5.253E+01   -5.240E+01   -5.227E+01   -5.214E+01   -5.202E+01   -5.191E+01   -5.179E+01   -5.169E+01   -5.159E+01   -5.150E+01
    -5.141E+01   -5.134E+01   -5.127E+01   -5.121E+01   -5.116E+01   -5.112E+01   -5.110E+01   -5.108E+01   -5.108E+01   -5.109E+01
    -5.112E+01   -5.116E+01   -5.122E+01   -5.129E+01   -5.138E+01   -5.149E+01   -5.162E+01   -5.177E+01   -5.193E+01   -5.212E+01
    -5.233E+01   -5.256E+01   -5.281E+01   -5.309E+01   -5.339E+01   -5.372E+01   -5.407E+01   -5.445E+01   -5.485E+01   -5.528E+01
    -5.575E+01   -5.623E+01   -5.675E+01   -5.729E+01   -5.786E+01   -5.844E+01   -5.905E+01   -5.967E+01   -6.032E+01   -6.098E+01
    -6.165E+01   -6.234E+01   -6.304E+01   -6.375E+01   -6.447E+01   -6.519E+01   -6.592E+01   -6.666E+01   -6.740E+01   -6.814E+01
    -6.888E+01   -6.962E+01   -7.035E+01   -7.108E+01   -7.181E+01   -7.253E+01   -7.324E+01   -7.394E+01   -7.462E+01   -7.530E+01
    -7.595E+01   -7.660E+01   -7.722E+01   -7.783E+01   -7.842E+01   -7.898E+01   -7.953E+01   -8.005E+01   -8.054E+01   -8.101E+01
    -8.145E+01   -8.187E+01   -8.225E+01   -8.260E+01   -8.292E+01   -8.321E+01   -8.346E+01   -8.368E+01   -8.386E+01   -8.400E+01
    -8.410E+01   -8.416E+01   -8.418E+01   -8.416E+01   -8.409E+01   -8.398E+01   -8.381E+01   -8.360E+01   -8.334E+01   -8.303E+01
    -8.267E+01   -8.226E+01   -8.180E+01   -8.129E+01   -8.073E+01   -8.013E+01   -7.949E+01   -7.880E+01   -7.808E+01   -7.732E+01
    -7.652E+01   -7.569E+01   -7.482E+01   -7.393E+01   -7.300E+01   -7.205E+01   -7.108E+01   -7.007E+01   -6.905E+01   -6.801E+01
    -6.694E+01   -6.586E+01   -6.476E+01   -6.365E+01   -6.253E+01   -6.140E+01   -6.026E+01   -5.911E+01   -5.795E+01   -5.679E+01
    -5.563E+01   -5.447E+01   -5.331E+01   -5.215E+01   -5.100E+01   -4.984E+01   -4.870E+01   -4.756E+01   -4.642E+01   -4.530E+01
    -4.418E+01   -4.308E+01   -4.199E+01   -4.091E+01   -3.985E+01   -3.880E+01   -3.778E+01   -3.676E+01   -3.577E+01   -3.480E+01
    -3.385E+01   -3.293E+01   -3.203E+01   -3.115E+01   -3.030E+01   -2.948E+01   -2.869E+01   -2.793E+01   -2.720E+01   -2.650E+01
    -2.583E+01   -2.520E+01   -2.461E+01   -2.404E+01   -2.351E+01   -2.301E+01   -2.254E+01   -2.210E+01   -2.169E+01   -2.131E+01
    -2.096E+01   -2.064E+01   -2.035E+01   -2.008E+01   -1.984E+01   -1.963E+01   -1.945E+01   -1.929E+01   -1.915E+01   -1.904E+01
    -1.896E+01   -1.889E+01   -1.885E+01   -1.884E+01   -1.884E+01   -1.887E+01   -1.892E+01   -1.898E+01   -1.907E+01   -1.918E+01
    -1.931E+01   -1.945E+01   -1.962E+01   -1.980E+01   -1.999E+01   -2.020E+01   -2.043E+01   -2.067E+01   -2.092E+01   -2.119E+01
    -2.147E+01   -2.176E+01   -2.206E+01   -2.236E+01   -2.268E+01   -2.301E+01   -2.334E+01   -2.368E+01   -2.403E+01   -2.438E+01
    -2.473E+01   -2.509E+01   -2.545E+01   -2.582E+01   -2.618E+01   -2.655E+01   -2.692E+01   -2.728E+01   -2.765E+01   -2.801E+01
    -2.837E+01   -2.873E+01   -2.908E+01   -2.943E+01   -2.978E+01   -3.013E+01   -3.048E+01   -3.082E+01   -3.116E+01   -3.150E+01
    -3.184E+01   -3.217E+01   -3.251E+01   -3.284E+01   -3.317E+01   -3.350E+01   -3.383E+01   -3.416E+01   -3.449E+01   -3.482E+01
    -3.515E+01   -3.548E+01   -3.580E+01   -3.613E+01   -3.646E+01   -3.678E+01   -3.711E+01   -3.744E+01   -3.777E+01   -3.810E+01
 Mac      Conc. = 2.02E-04
  -1.03457E+02 -1.03514E+02 -1.03550E+02 -1.03654E+02 -1.03955E+02 -1.04614E+02 -1.05571E+02 -1.06599E+02 -1.07448E+02 -1.07997E+02
  -1.08222E+02 -1.08184E+02 -1.08121E+02 -1.08551E+02 -1.09603E+02 -1.10478E+02 -1.10036E+02 -1.08046E+02 -1.05388E+02 -1.02716E+02
  -9.99612E+01 -9.72293E+01 -9.50975E+01 -9.37053E+01 -9.24905E+01 -9.11728E+01 -8.97236E+01 -8.81311E+01 -8.65363E+01 -8.51061E+01
  -8.38285E+01 -8.26399E+01 -8.17528E+01 -8.13858E+01 -8.12926E+01 -8.08147E+01 -7.95152E+01 -7.76689E+01 -7.60295E+01 -7.51045E+01
  -7.46266E+01 -7.40229E+01 -7.30301E+01 -7.18151E+01 -7.06837E+01 -6.98352E+01 -6.93646E+01 -6.92479E+01 -6.94386E+01 -6.98481E+01
  -7.02536E+01 -7.05404E+01 -7.06961E+01 -7.07613E+01 -7.06504E+01 -7.01932E+01 -6.93486E+01 -6.82492E+01 -6.70853E+01 -6.57946E+01
  -6.43707E+01 -6.32036E+01 -6.26183E+01 -6.25044E+01 -6.25009E+01 -6.24404E+01 -6.23907E+01 -6.24472E+01 -6.23997E+01 -6.16943E+01
  -6.01032E+01 -5.81474E+01 -5.64039E+01 -5.50339E+01 -5.39977E+01 -5.33902E+01 -5.32191E+01 -5.32518E+01 -5.32789E+01 -5.32849E+01
  -5.32654E+01 -5.31479E+01 -5.27215E+01 -5.20294E+01 -5.12375E+01 -5.04049E+01 -4.95159E+01 -4.86427E+01 -4.78741E+01 -4.71990E+01
  -4.65532E+01 -4.59797E+01 -4.55446E+01 -4.54088E+01 -4.57588E+01 -4.66508E+01 -4.79002E+01 -4.92683E+01 -5.05375E+01 -5.16594E+01
  -5.28063E+01 -5.41806E+01 -5.58058E+01 -5.79136E+01 -6.09587E+01 -6.50140E+01 -6.92558E+01 -7.25835E+01 -7.44402E+01 -7.49122E+01
