 
 $NMID
 ID=''
 FMTDAT='(2E13.5)'
 TRAMP=   1.00000E+0
 VOLUME=   1.00000E+0
 $END
  -1.78558E+4   6.37280E+3
  -6.51538E+3   2.50487E+4
   1.86148E+4   9.54570E+3
  -6.90432E+3  -9.21025E+3
  -2.37502E+4   9.85202E+3
   5.10559E+3   9.56764E+3
   7.30240E+3  -1.26762E+4
  -1.17905E+4  -2.53420E+3
   1.01550E+3   7.31052E+3
   5.95679E+3  -8.23048E+3
  -7.99806E+3  -6.20092E+3
   7.11505E+2   3.65754E+3
   7.33729E+3  -4.16661E+3
  -5.76103E+3  -3.01863E+3
  -1.04068E+3   4.48466E+3
   9.02091E+3  -8.03025E+2
  -7.13706E+2   4.07219E+2
  -4.14453E+3   6.47194E+3
   1.44147E+3   1.07655E+3
  -1.05625E+3  -5.70750E+2
  -1.40505E+3   3.44755E+3
   1.42155E+3  -6.38971E+2
  -9.58352E+2  -1.11700E+3
  -1.50577E+3   1.82760E+3
   9.12469E+2  -2.17737E+3
   1.29129E+3  -2.16004E+3
   1.28120E+3   2.44033E+3
  -4.37298E+2  -3.68261E+2
  -1.04220E+3  -2.80399E+3
   1.37265E+3   2.77717E+2
   8.27038E+2   1.10361E+3
  -1.72753E+3  -1.45999E+2
  -1.24789E+3  -4.24189E+2
  -7.15262E+2  -1.73815E+3
  -3.20217E+2  -1.71845E+3
   2.27330E+3   4.87972E+2
   2.54063E+2   1.84023E+3
  -2.86890E+3   8.02847E+2
  -3.34825E+2  -3.75609E+2
   6.71512E+2  -6.91756E+2
  -1.75117E+3   1.80041E+2
   3.07774E+1  -7.71423E+2
   1.97316E+3  -1.23598E+3
   1.39057E+3   8.72722E+2
   6.37082E+2   1.25881E+3
   7.26150E+1   9.81697E+2
  -1.70506E+3   1.71882E+3
  -1.62078E+3   2.03406E+2
  -4.72409E+2  -2.25887E+3
   1.51302E+2  -1.09667E+3
   9.58661E+2   2.52536E+2
   5.73351E+2  -6.99707E+2
   3.64582E+2  -1.32333E+2
   8.79578E+2   1.00252E+3
   2.99877E+2   2.50372E+2
  -6.10692E+2   4.05240E+2
  -1.27143E+2  -2.68604E+2
   4.68519E+2  -1.18791E+3
   1.14298E+3  -3.31726E+2
   1.73798E+3   7.20346E+2
   6.03437E+2   3.16913E+2
  -6.60993E+1   8.89972E+2
  -5.08206E+2   1.13714E+3
  -1.32750E+3  -2.83725E+2
  -1.83105E+3  -1.23743E+3
   1.52107E+1  -1.77254E+3
   1.29187E+3  -1.91832E+3
   1.45699E+3  -1.05087E+3
   1.23312E+3   5.10520E+2
   2.21041E+0   1.31434E+2
  -8.65995E+2  -5.52362E+2
   9.02613E+2  -8.04112E+2
   1.20556E+3   2.76445E+2
  -6.98536E+2   7.08011E+2
  -6.19355E+2  -2.55164E+2
   3.49256E+1  -8.32609E+2
  -2.60670E+2   1.33028E+2
  -4.70894E+2   4.18044E+2
  -4.94686E+2  -6.00827E+2
  -5.56387E+2  -7.85309E+2
  -4.19189E+2  -7.20390E+2
   2.97614E+1  -6.71273E+2
   1.57974E+2  -4.70610E+2
   2.03764E+1  -3.06967E+2
   1.40965E+2  -6.72493E+2
   4.34807E+2  -6.98861E+2
   5.24558E+2   2.15104E+2
  -6.50183E+1   3.62563E+2
  -4.59064E+2   3.90608E+1
   1.13855E+2   9.23867E+1
   3.38364E+2   3.39737E+2
  -4.35877E+2   4.87367E+2
  -1.37214E+3   7.91417E+1
  -1.16698E+3  -7.60754E+2
   4.14250E+1  -1.15289E+3
   4.07159E+2  -5.82603E+2
   4.32439E+2  -7.96284E+1
  -3.12808E+2   1.89874E+1
   1.73834E+2  -2.24209E+2
   8.04483E+2  -3.61218E+1
   9.46748E+1   7.39536E+2
  -1.09374E+3   6.84218E+2
  -8.14609E+2  -1.78434E+2
  -9.94590E+1  -5.82768E+2
   3.79857E+2  -3.06792E+2
   3.45386E+2   7.30434E+2
  -5.29274E+2   7.22151E+2
  -8.39506E+2  -5.21866E+2
  -3.25280E+2  -1.29328E+3
   1.01730E+3  -5.24056E+2
   1.08713E+3   6.93544E+2
   1.80202E+2   8.44493E+2
  -5.63018E+2   3.79938E+2
  -2.10899E+2   3.17564E+2
  -1.68416E+2   2.86866E+2
  -6.45911E+2   1.67144E+2
  -1.10340E+3  -3.81965E+2
  -3.41477E+2  -1.00260E+3
   5.04037E+2  -1.06619E+3
   1.12483E+3  -5.78484E+1
   8.16976E+2   4.81938E+2
   1.07888E+2   6.41741E+2
   6.27328E+0   5.02205E+2
  -1.89756E+2   4.50559E+2
  -8.05042E+2   2.69408E+1
  -3.73128E+2  -3.80428E+2
   2.66448E+2  -3.74798E+2
   2.87338E+2  -1.88672E+2
   2.80649E+2   2.43548E+2
   6.80747E+1   6.26956E+2
  -6.43242E+2   2.38535E+2
  -5.91743E+2  -5.86695E+2
   2.30176E+2  -3.29194E+2
   2.73483E+2  -2.31009E+2
  -7.00225E+1   4.85649E+1
   8.16734E+1  -3.06353E+2
   3.34924E+2  -1.79019E+2
   3.67626E+2   5.30491E+2
  -1.83261E+2   7.33600E+2
  -6.40927E+2   5.59816E+0
  -4.64040E+2  -4.71533E+2
   3.31001E+2  -5.20377E+2
   7.82539E+2   1.49138E+2
   1.47378E+2   5.41164E+2
  -7.14926E+2   4.65140E+2
  -8.51551E+2  -1.37574E+2
  -3.23421E+2  -2.61823E+2
   3.61422E+0  -1.52892E+2
  -1.89221E+2  -3.77775E+1
  -2.59765E+2  -3.75210E+2
   2.68297E+2  -3.49273E+2
   5.56608E+2  -1.69535E+2
   6.24125E+2   5.01099E+2
  -6.96984E+1   7.82080E+2
  -4.54718E+2   1.11719E+2
  -1.49327E+2  -2.46216E+2
   7.57416E+1   3.98103E+2
  -2.95718E+2   4.79530E+2
  -2.32318E+2   4.07059E+1
  -1.03900E+2   1.18116E+1
  -3.60491E+2   1.02292E+2
  -3.65416E+2   3.32606E+2
  -3.39630E+2   1.87630E+2
  -2.63063E+1  -4.20923E+2
   1.72894E+2  -1.51745E+2
   6.00019E+2   1.39159E+2
   1.22475E+2   4.19914E+2
  -1.38377E+2   4.19626E+2
  -3.61804E+2   1.35768E+2
   3.88690E+2  -1.34743E+1
   1.38509E+2   1.71850E+2
  -2.97726E+2   4.16439E+2
  -1.70650E+2   4.99381E+2
   1.11179E+1   1.59278E+2
   1.61493E+2   9.95925E+1
   9.86050E+1   5.02529E+2
  -4.62493E+2   7.13378E+2
  -4.52733E+2  -9.68224E+1
   1.79244E+2  -3.73883E+2
   5.05419E+2   2.77278E+2
   2.91158E+2   5.96689E+2
  -1.51102E+2   3.79665E+2
  -2.76971E+2  -1.05354E+1
  -8.47713E+1  -1.87609E+1
   4.01233E+0  -1.32654E+2
   8.65697E+1  -2.26233E+0
   4.79004E+1  -2.37270E+2
   2.00797E+2  -2.63155E+2
   4.11577E+2   2.66080E+2
   4.71014E+2   6.04584E+2
  -1.73435E+2   8.23606E+2
  -8.67920E+2   2.40064E+2
  -2.67035E+2  -1.71852E+2
  -9.89249E+0  -4.11737E+2
   1.78459E+2  -1.44678E+2
   3.79878E+1   5.78299E+1
   2.06549E+1   7.61173E+1
   2.37710E+2   4.20671E+1
  -1.72008E+2   2.84195E+2
  -2.71276E+2   6.13576E+1
  -1.82308E+2   3.59929E+1
  -1.50020E+1  -5.32646E+2
   4.45687E+2  -4.25221E+1
   5.39383E+2   2.65147E+2
   7.03491E+1   2.97757E+2
  -5.02516E+2   3.06740E+1
   7.08945E+1   3.93809E+1
   2.13395E+1  -5.41795E+1
  -1.01017E+2   2.78798E+1
  -2.85441E+1   3.69562E+1
  -1.35652E+2  -3.31261E+1
   1.45310E+2  -1.01683E+2
   3.72086E+2   3.97802E+2
  -2.85859E+2   4.41919E+2
  -6.01373E+2   3.93810E+1
  -5.41768E+2  -2.30727E+2
   1.44010E+2  -3.27361E+2
   4.10776E+2  -3.20752E+2
   2.07500E+2  -4.37547E+1
  -1.71564E+2   9.08157E+1
   7.05507E+1   1.06855E+2
   2.69676E+2   2.37857E+2
  -8.16934E+1   3.42895E+2
  -3.28015E+2   1.32003E+2
  -3.02514E+2  -1.60710E+2
   1.20020E+1  -1.74142E+2
   3.01765E+2   4.84299E+1
   3.90716E+1   5.00561E+2
  -2.62484E+2   7.78221E+1
  -4.57527E+2  -1.15480E+2
  -1.83214E+2  -2.72213E+2
   3.31156E+1   8.60442E+1
  -1.46520E+1   3.84658E+2
  -3.55693E+1  -1.83776E+2
  -1.52200E+2   4.49396E+1
   1.16738E+2   7.63075E+0
   1.65969E+1   1.98994E+2
  -1.26547E+2   2.99539E+2
  -1.99749E+2  -2.36465E+1
   6.09826E+1  -1.91500E+2
   8.44478E+1   3.99868E+1
  -4.30600E+1   2.82495E+2
  -2.18232E+2   2.18872E+2
  -3.51563E+1  -6.13269E+1
   6.22143E+1  -4.58270E+0
   3.19545E+1  -3.80090E+1
  -1.17339E+2   2.72380E+2
  -2.26414E+2  -2.34904E+1
   5.56377E+1  -4.41148E+2
   2.41157E+2   9.81402E+1
  -3.06816E+1   3.84755E+2
   4.93142E+1   3.47241E+2
  -5.32667E+2  -7.31832E+1
  -2.52881E+2  -2.94635E+2
   1.39978E+2  -1.46406E+2
   1.82028E+2   1.05363E+2
   8.53001E+1   2.03385E+2
  -6.78852E+1   1.76796E+2
  -7.09360E+1   1.02196E+2
  -8.34063E+0   2.36464E+2
  -2.35155E+2   4.16485E+2
  -3.34831E+2  -2.11646E+2
  -2.32152E+2  -4.79534E+2
   3.26522E+2  -1.20366E+2
   2.42660E+2   2.35818E+1
   3.24039E+1   3.00966E+2
  -2.67634E+2   1.60762E+2
  -2.88267E+2  -2.28919E+2
  -1.04908E+1  -1.53484E+2
  -1.91897E+1  -6.52498E+1
   2.75637E+1   9.62511E+1
  -5.79908E+1   4.78936E+1
   1.51497E+2  -6.96575E+1
   3.31551E+2   2.98397E+1
   4.90503E+1   2.10142E+2
  -2.00051E+2   1.72562E+2
  -1.89089E+2  -2.04296E+2
   2.02943E+2  -3.63661E+2
   2.25433E+2   1.00532E+2
  -3.07679E+1   1.38130E+2
   6.27930E+1  -5.97967E+1
  -1.73606E+1  -1.38712E+2
   2.25108E+0  -3.07182E+1
  -8.02801E+1   2.28892E+2
  -2.24369E+2  -1.71523E+1
  -2.64214E+2  -2.60390E+2
   7.50975E+1  -2.00642E+2
   1.18169E+2  -1.95852E+2
   2.43813E+2   1.73519E+2
  -9.93195E+1   3.17113E+2
  -3.98608E+2  -1.04298E+2
   5.38288E+1  -1.58125E+2
  -1.69236E+2  -1.81101E+1
   3.95196E+1  -5.36456E+1
  -9.02747E+1  -2.37178E+2
   4.32649E+1   4.28310E+1
   1.73925E+2  -1.62875E+2
  -3.82794E+1   2.62404E+2
  -4.58460E+1   1.88314E+1
  -1.31698E+2  -1.42488E+2
   5.40996E+1  -2.42769E+2
   1.09135E+2  -8.08240E+0
   8.64332E+1   2.51359E+2
  -1.34140E+2   3.39302E+2
  -1.77823E+2  -2.04454E+2
   1.00306E+2  -2.29170E+2
   2.34184E+1  -1.20323E+2
  -6.83892E+1  -6.40442E+0
   9.04696E+1   2.11826E+2
  -9.54628E+1  -5.38380E+1
   2.02894E+2  -9.23126E+1
   8.02246E+1   1.66044E+2
  -1.48659E+2   3.00219E+2
  -2.84026E+2  -9.92496E+1
  -2.50459E+2  -2.32831E+2
  -4.36579E+1   1.21421E+0
   7.80122E+1   1.09535E+2
   1.04433E+2   2.13878E+2
  -1.76424E+2  -7.79824E+1
  -3.91749E+1  -5.22372E+1
   2.22793E+2   3.34248E+1
  -9.54169E+1  -3.96445E+0
  -1.83359E+2   1.99779E+2
  -9.11000E+1   9.38334E+1
  -1.64050E+2   4.45383E+1
   1.91651E+2   9.40616E+1
  -1.97284E+2   2.78187E+2
  -2.16742E+2  -5.85982E+0
  -1.24951E+2  -2.38025E+2
  -1.45086E+2  -2.45907E+2
   1.31733E+2  -2.29477E+2
   2.90997E+2  -2.21634E+2
  -1.26081E+2  -1.45276E+2
  -3.66401E+1  -1.02858E+2
   7.39856E+1   2.27150E+2
   3.80969E+1   2.91285E+2
  -3.47638E+2   5.63314E-1
  -3.64366E+2  -3.15910E+2
  -1.41643E+2  -3.42228E+2
   2.90494E+2   1.82408E+2
   1.25848E+2   1.48480E+2
  -5.94046E+1   2.02582E+2
  -4.04533E+1  -1.38492E+2
   8.62283E+1  -1.02732E+2
   3.75771E+1   3.22186E+1
  -5.38354E+1  -1.32527E+2
   8.84955E+1  -1.06423E+1
   4.44694E+2  -2.27877E+2
   2.10862E+2   5.92043E+1
   1.07106E+2   9.73880E+1
  -4.86885E+1   2.10976E+2
  -1.38527E+2  -1.95459E+2
  -8.86105E+1  -2.14377E+2
  -8.27442E+1   1.02219E+1
   2.39344E+2   2.19832E+2
   7.22228E+1  -2.59864E+2
   2.14775E+2  -2.15314E+2
   1.05573E+2  -6.94516E+1
   5.01599E+1   6.69996E+0
  -5.46196E+1   2.30126E+2
  -4.57324E+2  -2.42191E+1
  -4.76932E+1  -2.29706E+2
   4.36654E+2  -2.05018E+2
   1.67890E+2   3.43338E+2
   1.54991E+2   1.08938E+2
  -2.82827E+1   2.85716E+1
   6.19439E+1  -1.76610E+1
