 
 $NMID
 ID=''
 FMTDAT='(2E13.5)'
 TRAMP=   1.00000E+0
 VOLUME=   1.00000E+0
 $END
   3.48791E+5   7.11410E+5
   1.45086E+5   2.06751E+6
   3.31256E+5   1.99422E+6
   2.32459E+5   1.90732E+6
   2.57520E+5   1.98305E+6
   3.66570E+5   1.92673E+6
   3.52388E+5   1.88195E+6
   3.57750E+5   1.92501E+6
   3.89795E+5   1.88877E+6
   3.51840E+5   1.86342E+6
   3.49521E+5   1.88133E+6
   3.62798E+5   1.84453E+6
   3.35283E+5   1.82712E+6
   3.27278E+5   1.84106E+6
   3.17559E+5   1.80937E+6
   2.90853E+5   1.79069E+6
   2.98045E+5   1.79873E+6
   3.06950E+5   1.77502E+6
   2.98960E+5   1.75538E+6
   3.21988E+5   1.74982E+6
   3.33443E+5   1.72597E+6
   3.24627E+5   1.71175E+6
   3.33031E+5   1.70488E+6
   3.38076E+5   1.68260E+6
   3.26589E+5   1.66850E+6
   3.31987E+5   1.65699E+6
   3.24874E+5   1.64030E+6
   3.04427E+5   1.63014E+6
   2.95849E+5   1.61759E+6
   2.94705E+5   1.59672E+6
   2.88726E+5   1.58584E+6
   2.92534E+5   1.57177E+6
   2.94657E+5   1.55079E+6
   2.96402E+5   1.53608E+6
   3.05657E+5   1.51818E+6
   3.18074E+5   1.49768E+6
   3.26530E+5   1.48458E+6
   3.31394E+5   1.47021E+6
   3.30754E+5   1.44945E+6
   3.30242E+5   1.43453E+6
   3.28087E+5   1.41936E+6
   3.22594E+5   1.40119E+6
   3.19469E+5   1.38360E+6
   3.17176E+5   1.36930E+6
   3.09828E+5   1.35376E+6
   3.04461E+5   1.34006E+6
   3.01770E+5   1.32472E+6
   2.97787E+5   1.30834E+6
   2.96556E+5   1.28966E+6
   2.98153E+5   1.27312E+6
   2.99697E+5   1.25764E+6
   3.00086E+5   1.24220E+6
   3.00570E+5   1.22678E+6
   3.00377E+5   1.21192E+6
   2.98604E+5   1.19619E+6
   2.95605E+5   1.18097E+6
   2.90492E+5   1.16647E+6
   2.86018E+5   1.15042E+6
   2.82934E+5   1.13418E+6
   2.80908E+5   1.12015E+6
   2.76901E+5   1.10679E+6
   2.73043E+5   1.09215E+6
   2.70410E+5   1.07845E+6
   2.67417E+5   1.06393E+6
   2.64854E+5   1.04863E+6
   2.63229E+5   1.03298E+6
   2.62198E+5   1.01825E+6
   2.60371E+5   1.00375E+6
   2.58271E+5   9.91197E+5
   2.54990E+5   9.78641E+5
   2.50324E+5   9.64948E+5
   2.47046E+5   9.50563E+5
   2.44438E+5   9.37342E+5
   2.40883E+5   9.25455E+5
   2.36930E+5   9.12746E+5
   2.33628E+5   8.98353E+5
   2.31088E+5   8.85794E+5
   2.28404E+5   8.73496E+5
   2.25527E+5   8.60879E+5
   2.22671E+5   8.48073E+5
   2.19633E+5   8.35216E+5
   2.17154E+5   8.22398E+5
   2.13771E+5   8.10320E+5
   2.09940E+5   7.99253E+5
   2.05574E+5   7.86793E+5
   2.01258E+5   7.75056E+5
   1.97537E+5   7.63401E+5
   1.94014E+5   7.52439E+5
   1.89660E+5   7.41279E+5
   1.85951E+5   7.29847E+5
   1.83236E+5   7.17882E+5
   1.80742E+5   7.06696E+5
   1.77558E+5   6.96186E+5
   1.74765E+5   6.84721E+5
   1.72166E+5   6.72844E+5
   1.70968E+5   6.61336E+5
   1.69069E+5   6.51047E+5
   1.66596E+5   6.40934E+5
   1.63778E+5   6.30454E+5
   1.61174E+5   6.19783E+5
   1.58475E+5   6.09803E+5
   1.54853E+5   6.00465E+5
   1.51029E+5   5.90026E+5
   1.47689E+5   5.79851E+5
   1.45057E+5   5.69469E+5
   1.42584E+5   5.60417E+5
   1.39897E+5   5.51363E+5
   1.36234E+5   5.42106E+5
   1.32887E+5   5.32383E+5
   1.30753E+5   5.22145E+5
   1.28843E+5   5.13219E+5
   1.25924E+5   5.05264E+5
   1.22426E+5   4.97084E+5
   1.19209E+5   4.88141E+5
   1.16054E+5   4.79737E+5
   1.12534E+5   4.71948E+5
   1.08506E+5   4.63867E+5
   1.05325E+5   4.55330E+5
   1.02344E+5   4.46817E+5
   9.96914E+4   4.39172E+5
   9.72018E+4   4.31499E+5
   9.43417E+4   4.24533E+5
   9.10720E+4   4.17311E+5
   8.77679E+4   4.10174E+5
   8.46909E+4   4.02857E+5
   8.12401E+4   3.95330E+5
   7.86733E+4   3.88147E+5
   7.53262E+4   3.81811E+5
   7.22576E+4   3.75321E+5
   6.90451E+4   3.68765E+5
   6.49461E+4   3.62733E+5
   6.09477E+4   3.56564E+5
   5.76450E+4   3.49665E+5
   5.46551E+4   3.43355E+5
   5.13619E+4   3.37689E+5
   4.76943E+4   3.31778E+5
   4.50028E+4   3.25376E+5
   4.23598E+4   3.19993E+5
   3.92259E+4   3.14403E+5
   3.60338E+4   3.08840E+5
   3.27840E+4   3.02564E+5
   3.02890E+4   2.97109E+5
   2.77065E+4   2.91342E+5
   2.52264E+4   2.86182E+5
   2.21189E+4   2.80900E+5
   1.93049E+4   2.75753E+5
   1.68451E+4   2.70047E+5
   1.36325E+4   2.65087E+5
   1.11564E+4   2.59788E+5
   8.56872E+3   2.54900E+5
   6.62173E+3   2.49825E+5
   4.13179E+3   2.44457E+5
   2.02661E+3   2.39869E+5
  -7.02458E+1   2.35319E+5
  -2.33501E+3   2.30721E+5
  -4.47163E+3   2.25810E+5
  -6.05748E+3   2.21205E+5
  -7.86720E+3   2.16387E+5
  -9.98584E+3   2.12105E+5
  -1.16540E+4   2.07506E+5
  -1.30336E+4   2.03358E+5
  -1.51815E+4   1.98994E+5
  -1.66978E+4   1.94554E+5
  -1.82158E+4   1.90357E+5
  -1.95103E+4   1.86016E+5
  -2.09938E+4   1.81909E+5
  -2.25753E+4   1.78065E+5
  -2.42764E+4   1.74234E+5
  -2.57692E+4   1.70344E+5
  -2.68043E+4   1.66275E+5
  -2.82532E+4   1.62455E+5
  -2.93689E+4   1.58697E+5
  -3.06623E+4   1.55038E+5
  -3.19723E+4   1.51807E+5
  -3.33223E+4   1.47820E+5
  -3.42961E+4   1.44608E+5
  -3.56173E+4   1.41103E+5
  -3.69616E+4   1.37650E+5
  -3.78097E+4   1.34133E+5
  -3.89716E+4   1.31123E+5
  -3.97506E+4   1.27603E+5
  -4.12210E+4   1.24624E+5
  -4.19300E+4   1.21662E+5
  -4.34482E+4   1.18543E+5
  -4.40851E+4   1.15134E+5
  -4.50446E+4   1.12297E+5
  -4.58277E+4   1.09575E+5
  -4.63960E+4   1.06524E+5
  -4.71544E+4   1.03660E+5
  -4.78698E+4   1.01167E+5
  -4.86422E+4   9.85003E+4
  -4.95700E+4   9.56130E+4
  -5.05896E+4   9.25810E+4
  -5.12021E+4   9.00712E+4
  -5.17077E+4   8.71978E+4
  -5.25000E+4   8.49006E+4
  -5.30716E+4   8.21951E+4
  -5.37456E+4   7.96413E+4
  -5.44648E+4   7.74203E+4
  -5.53550E+4   7.48679E+4
  -5.56101E+4   7.23855E+4
  -5.58148E+4   6.99941E+4
  -5.62154E+4   6.77141E+4
  -5.67069E+4   6.56333E+4
  -5.72223E+4   6.32959E+4
  -5.78602E+4   6.09331E+4
  -5.80409E+4   5.87524E+4
  -5.83119E+4   5.65789E+4
  -5.89072E+4   5.46205E+4
  -5.92946E+4   5.22864E+4
  -5.92348E+4   5.04253E+4
  -5.93722E+4   4.81458E+4
  -5.97897E+4   4.65964E+4
  -6.01005E+4   4.44398E+4
  -6.03613E+4   4.23162E+4
  -6.03100E+4   4.05717E+4
  -6.01919E+4   3.85715E+4
  -6.00968E+4   3.67656E+4
  -6.02645E+4   3.51141E+4
  -6.01854E+4   3.34442E+4
  -6.03191E+4   3.17343E+4
  -6.02852E+4   3.01873E+4
  -6.02932E+4   2.84603E+4
  -6.02162E+4   2.70506E+4
  -5.99822E+4   2.51497E+4
  -5.98719E+4   2.36323E+4
  -5.97591E+4   2.25708E+4
  -5.95454E+4   2.10413E+4
  -5.95361E+4   1.95226E+4
  -5.92544E+4   1.80288E+4
  -5.87258E+4   1.67089E+4
  -5.83832E+4   1.54937E+4
  -5.78950E+4   1.40771E+4
  -5.76550E+4   1.27988E+4
  -5.76134E+4   1.17692E+4
  -5.72161E+4   1.04735E+4
  -5.69130E+4   9.29348E+3
  -5.63543E+4   8.20702E+3
  -5.59297E+4   6.76190E+3
  -5.54024E+4   5.44160E+3
  -5.53868E+4   5.08810E+3
  -5.50028E+4   3.68895E+3
  -5.45964E+4   2.90475E+3
  -5.40377E+4   1.82836E+3
  -5.33996E+4   5.54123E+2
  -5.32861E+4  -3.11890E+1
  -5.28622E+4  -1.00514E+3
  -5.23788E+4  -1.98805E+3
  -5.17852E+4  -2.80306E+3
  -5.12693E+4  -3.48229E+3
  -5.11087E+4  -4.52602E+3
  -5.06016E+4  -5.48788E+3
  -5.00027E+4  -6.61317E+3
  -4.94671E+4  -7.14367E+3
  -4.88495E+4  -7.89728E+3
  -4.82417E+4  -8.52771E+3
  -4.81397E+4  -9.27982E+3
  -4.76157E+4  -1.00842E+4
  -4.71849E+4  -1.09146E+4
  -4.67037E+4  -1.18678E+4
  -4.60634E+4  -1.23751E+4
  -4.52843E+4  -1.30576E+4
  -4.48852E+4  -1.37372E+4
  -4.44140E+4  -1.46702E+4
  -4.40854E+4  -1.50926E+4
  -4.33646E+4  -1.58365E+4
  -4.28271E+4  -1.62738E+4
  -4.22746E+4  -1.71717E+4
  -4.14682E+4  -1.76961E+4
  -4.08620E+4  -1.81663E+4
  -4.02758E+4  -1.87679E+4
  -3.97354E+4  -1.91849E+4
  -3.91136E+4  -1.98335E+4
  -3.87410E+4  -2.03609E+4
  -3.82483E+4  -2.06983E+4
  -3.74034E+4  -2.15275E+4
  -3.66400E+4  -2.20074E+4
  -3.58836E+4  -2.26920E+4
  -3.54792E+4  -2.28353E+4
  -3.47727E+4  -2.33897E+4
  -3.44142E+4  -2.39887E+4
  -3.33739E+4  -2.42883E+4
  -3.28164E+4  -2.47850E+4
  -3.24425E+4  -2.49174E+4
  -3.13870E+4  -2.55984E+4
  -3.09478E+4  -2.57355E+4
  -3.03074E+4  -2.61633E+4
  -2.96205E+4  -2.62287E+4
  -2.89589E+4  -2.67914E+4
  -2.84812E+4  -2.72774E+4
  -2.77889E+4  -2.74647E+4
  -2.70475E+4  -2.75411E+4
  -2.61617E+4  -2.80280E+4
  -2.57499E+4  -2.81947E+4
  -2.51328E+4  -2.84322E+4
  -2.46212E+4  -2.85887E+4
  -2.39027E+4  -2.89454E+4
  -2.32875E+4  -2.91639E+4
  -2.23667E+4  -2.94456E+4
  -2.19165E+4  -2.97554E+4
  -2.10392E+4  -2.94605E+4
  -2.07459E+4  -2.99055E+4
  -2.00290E+4  -3.02169E+4
  -1.94432E+4  -3.01927E+4
  -1.86713E+4  -3.02284E+4
  -1.80367E+4  -3.02888E+4
  -1.75990E+4  -3.05290E+4
  -1.70199E+4  -3.05025E+4
  -1.62683E+4  -3.09073E+4
  -1.57470E+4  -3.07970E+4
  -1.49859E+4  -3.09097E+4
  -1.46631E+4  -3.09906E+4
  -1.39700E+4  -3.13352E+4
  -1.31664E+4  -3.12866E+4
  -1.24465E+4  -3.14203E+4
  -1.21164E+4  -3.12259E+4
  -1.16390E+4  -3.14693E+4
  -1.09566E+4  -3.13878E+4
  -1.02280E+4  -3.13230E+4
  -9.94924E+3  -3.13727E+4
  -9.16237E+3  -3.14656E+4
  -8.92772E+3  -3.15027E+4
  -7.99295E+3  -3.16068E+4
  -7.76581E+3  -3.15422E+4
  -7.18700E+3  -3.15128E+4
  -6.34602E+3  -3.15030E+4
  -6.12937E+3  -3.13237E+4
  -5.57651E+3  -3.16847E+4
  -4.82295E+3  -3.12503E+4
  -4.37021E+3  -3.12892E+4
  -3.92519E+3  -3.11105E+4
  -3.51260E+3  -3.08653E+4
  -2.88184E+3  -3.11890E+4
  -2.51480E+3  -3.09173E+4
  -1.58923E+3  -3.08881E+4
  -1.40561E+3  -3.10506E+4
  -8.41496E+2  -3.10477E+4
  -1.28232E+2  -3.05847E+4
   1.39179E+2  -3.03229E+4
   4.64334E+2  -3.05814E+4
   9.74080E+2  -3.03143E+4
   1.49715E+3  -3.03110E+4
   2.07227E+3  -3.00381E+4
   2.26041E+3  -2.98396E+4
   2.89810E+3  -2.96450E+4
   3.39771E+3  -2.93085E+4
   3.51157E+3  -2.92279E+4
   3.76649E+3  -2.88002E+4
   4.28107E+3  -2.88183E+4
   4.17687E+3  -2.88911E+4
   5.01898E+3  -2.83233E+4
   5.49411E+3  -2.81779E+4
   5.68920E+3  -2.76311E+4
   6.15113E+3  -2.76787E+4
   6.52898E+3  -2.71768E+4
   6.82003E+3  -2.70520E+4
   7.21884E+3  -2.68345E+4
   7.31932E+3  -2.66867E+4
   7.66510E+3  -2.64607E+4
   8.10960E+3  -2.63666E+4
   8.58153E+3  -2.59595E+4
   8.63851E+3  -2.53475E+4
   8.70770E+3  -2.52672E+4
   9.12307E+3  -2.47751E+4
   9.23929E+3  -2.46856E+4
   9.80236E+3  -2.44646E+4
   9.77010E+3  -2.41745E+4
