 
 $NMID
 ID=''
 FMTDAT='(2E13.5)'
 TRAMP=   1.00000E+0
 VOLUME=   1.00000E+0
 $END
  -1.14152E+4   1.27093E+4
   8.47655E+3   9.20755E+3
   7.36586E+3  -1.30134E+4
  -9.07503E+3  -5.80041E+2
  -1.22698E+3   1.17605E+4
   5.61840E+3  -6.69739E+3
  -3.59356E+3  -6.38370E+3
   8.08061E+2   7.68519E+3
   5.83682E+3  -1.61057E+3
  -2.76954E+3  -3.61694E+3
  -2.89269E+3   8.84093E+3
   2.03393E+3   1.35010E+3
  -1.33107E+3  -6.06247E+3
  -1.32017E+3   3.68230E+3
   1.20671E+3   2.16634E+3
  -2.58545E+3  -6.06152E+3
  -6.63364E+2  -8.62057E+2
   3.40336E+3   2.80310E+3
  -4.31273E+2  -7.41161E+2
  -1.58229E+3   1.75050E+2
   2.17105E+2  -2.11059E+2
  -3.45419E+2  -2.05250E+3
   7.29760E+2   5.32443E+2
   1.09339E+3   2.21009E+3
  -1.90174E+3  -9.14288E+2
  -9.58960E+1  -2.22156E+3
   2.90827E+3   4.60491E+2
  -1.00582E+3   2.30943E+3
  -2.89377E+3   7.62164E+0
   1.05622E+3  -1.75224E+3
   2.13970E+3   8.85616E+2
  -1.14539E+3   2.10673E+3
  -1.35805E+3  -7.94565E+1
  -4.10434E+2  -6.26973E+2
  -5.08781E+2  -5.22401E+2
   1.81584E+2  -2.37819E+3
   1.41084E+3  -8.21892E+2
   1.11204E+3   1.38394E+3
  -4.28761E+2   9.30225E+2
  -5.89810E+2   1.84412E+2
   5.79177E+1   9.03529E+2
  -6.95056E+2   1.14401E+2
  -9.93684E+2  -1.59837E+3
   3.98243E+2  -1.37090E+3
   1.57199E+3  -9.33028E+2
   1.62180E+3   5.04944E+2
   9.57836E+2   1.75041E+3
  -8.38867E+2   1.57211E+3
  -1.96485E+3  -3.37097E+1
  -1.24659E+3  -4.50410E+2
  -3.16792E+2  -4.13101E+2
   2.11558E+1  -7.10657E+2
   4.08000E+2  -4.84203E+2
   9.32962E+2  -3.83450E+1
   7.29500E+2  -8.67492E+1
   3.78686E+2   3.75897E+2
  -1.68348E+2   7.40208E+2
  -7.46921E+2   1.30153E+2
  -5.71435E+2  -1.40042E+3
   9.69111E+2  -9.87034E+2
   1.18024E+3  -1.21548E+2
   3.69194E+2   1.93538E+2
   9.73189E+2   4.18046E+2
   5.66940E+2   1.33556E+3
  -7.89322E+2   1.27740E+3
  -1.34541E+3   4.91140E+2
  -7.54296E+2  -8.94906E+2
  -4.16897E+2  -1.14775E+3
   4.21025E+2  -8.84307E+2
   8.24350E+2  -7.68580E+1
   1.44653E+2   3.60310E+2
  -2.80816E+2  -3.83097E+2
   3.29802E+2  -7.44343E+2
   8.88489E+2  -4.68085E+1
   1.47197E+2   5.24546E+2
  -2.77020E+2   2.06471E+2
   1.17307E+2  -4.77008E+2
   6.84904E+2   1.24925E+2
   8.51214E+2   3.61346E+2
   2.88472E+2   6.99972E+2
  -6.06909E+2   4.69753E+2
  -3.88568E+2  -3.16574E+2
  -1.48611E+2  -3.37580E+2
  -2.33309E+1   1.42480E+2
  -6.19139E+1   3.07109E+2
  -2.99725E+2  -5.68085E+2
   1.60053E+2  -8.56870E+2
   6.67546E+2  -1.01100E+1
   5.06499E+2   1.45836E+2
   1.58232E+0  -2.12633E+1
   3.50853E+2  -5.50146E+2
   7.34980E+2  -1.56331E+2
   4.02213E+2   6.13004E+2
  -2.38353E+2   9.40857E+2
  -3.19491E+2   2.89434E+2
  -6.37225E+2  -5.70490E+2
  -6.28026E+1  -5.12810E+2
   2.73733E+2  -8.05567E+1
   8.76146E+1  -1.58786E+2
   4.80831E+0  -3.12563E+2
   5.38923E+2  -7.54279E+2
   4.37392E+2   1.72438E+2
   7.29757E+1   4.81383E+2
  -3.95729E+2   2.18850E+2
  -3.78387E+2  -4.30648E+2
   4.25805E+2  -5.59216E+2
   7.49425E+2  -8.44151E+1
  -1.48460E+2   7.01985E+2
  -8.84099E+2   3.09520E+2
  -7.47540E+2  -4.88295E+2
   2.72314E+2  -1.16342E+3
   7.93637E+2  -3.98638E+2
   4.43134E+2   2.08083E+2
   1.07376E+2   1.18919E+2
   3.15995E+2  -6.93427E+1
   6.51091E+2   3.24419E+2
   1.09219E+1   8.24226E+2
  -7.26018E+2   3.58236E+2
  -7.19826E+2  -1.41254E+1
  -3.72638E+2  -6.37526E+2
   1.61210E+2  -7.15712E+2
   4.53701E+2  -2.25241E+2
   3.69265E+2  -2.93377E+2
   1.99978E+2  -1.97665E+2
   4.07350E+2   4.16509E+2
  -4.26187E+1   3.76149E+2
  -3.67435E+2  -1.19544E+2
   2.17429E+1  -3.77871E+2
  -5.93669E+1  -3.78678E+2
   3.85685E+2  -2.87031E+2
   2.90924E+2   6.03269E+1
  -3.02406E+1   6.23614E+2
  -4.43825E+2   1.86801E+2
  -3.92447E+2  -5.52148E+2
   1.37198E+2  -8.89592E+1
   6.94626E+1   1.33185E+2
  -3.03666E+2  -6.08511E+1
   2.09441E+2  -4.97723E+2
   3.15598E+2   1.14829E+1
   1.68064E+2   2.14888E+2
  -1.76685E+2   6.81132E+2
  -4.11254E+2   3.02690E+2
  -3.01532E+2  -4.38601E+2
   2.54601E+2  -5.52390E+2
   2.37141E+2  -1.21115E+2
   2.17994E+2   3.27985E+2
  -1.12372E+2   6.79188E+1
  -7.96587E+1   2.97072E+2
  -2.17734E+2   8.02365E+1
  -3.44616E+2   2.75324E+2
  -2.59424E+2   7.45642E+1
  -3.51436E+2  -3.29195E+2
   2.52526E+1  -5.05447E+2
  -6.57572E+1   1.27940E+2
   2.05625E+2   9.54262E+1
  -3.02395E+2   1.79513E+2
  -5.60304E+1  -6.70580E+0
   1.23409E+2   2.25614E+0
   1.36588E+2   1.30624E+2
  -1.49856E+2   2.34028E+2
  -1.19498E+2   3.70104E+2
  -1.09475E+2   1.81230E+2
  -9.57860E+1   3.29703E+2
  -1.97748E+2   3.20440E+2
  -2.90297E+2   1.32139E+1
  -2.44808E+2  -6.13444E+1
  -7.51254E+1   9.25659E+1
  -2.63764E+1   1.17178E+2
   9.40100E+1   1.83471E+2
  -1.58069E+2   1.65387E+2
   8.14144E+0  -2.52743E+2
   3.84953E+2  -8.75097E+1
   8.11296E+1   8.72811E+1
   1.12221E+2   2.07891E+2
  -1.18021E+2  -1.36470E+2
   1.20908E+2  -7.54492E+0
   1.71796E+2   3.71849E+2
   9.55062E+0   2.67938E+2
  -8.04588E+1   1.12445E+2
  -3.40506E+2  -3.17226E+2
   2.73057E+2  -1.92011E+2
   4.06736E+2   1.81044E+0
   1.97441E+2   1.94794E+2
   7.72344E+1   2.84037E+2
  -3.39593E+2   3.97861E+2
  -9.70100E+1   3.67650E+2
  -9.09428E+1  -9.01069E+1
  -1.47999E+2  -2.59849E+2
  -1.61381E+2  -5.40524E+1
   2.77690E+2  -1.27671E+2
   4.29645E+2   2.36020E+1
   1.25511E+2   1.97002E+2
  -1.92890E+2   5.07060E+2
  -1.12425E+2   1.69636E+2
  -1.86388E+2   2.70947E+1
  -1.59716E+1   8.36947E+1
  -4.01081E+1  -7.36804E+1
  -1.08637E+2  -1.16314E+2
   7.49723E+1   1.59086E+2
   1.14919E+2   1.82279E+2
   1.80151E+1   3.75879E+2
  -3.26321E+2   2.50260E+2
  -3.16020E+2   3.48362E+1
  -1.30101E+2   5.42467E+1
  -1.61548E+2  -1.46478E+2
   1.89363E+1  -3.54865E+1
   7.26391E+0   2.22318E+2
  -1.16468E+2   7.56097E+1
  -1.26294E+2   3.01349E+2
   4.74291E+1  -1.75363E+2
  -2.50362E+1   1.66006E+2
  -8.76162E+1   2.06512E+2
   7.07552E+1  -3.82167E+2
   4.27744E+1  -1.13663E+2
   1.31288E+2   1.69655E+2
  -1.36627E+2   2.08503E+2
   4.47225E+0   1.49029E+2
  -1.56007E+1  -6.33313E+1
   8.60425E+1   1.76182E+2
  -8.11118E+1  -8.41877E+1
  -1.66329E+2   2.32620E+2
  -2.90123E+2   6.03175E+1
   6.67138E+1   1.46835E+1
   8.06247E+0  -9.23652E+1
  -1.06599E+2   1.80724E+2
  -2.44510E+2  -4.13949E+1
   7.67190E+1  -5.32172E+0
   1.09031E+2  -1.40402E+2
   2.93079E+2   1.68925E+2
   4.53706E+1   8.32856E+1
  -1.68811E+2   1.42179E+2
  -5.28903E+1  -1.39876E+2
   1.29307E+1   3.92792E+1
   5.49792E+1  -2.10468E+1
  -1.31862E+2   3.88969E+2
  -7.01954E+1  -1.65696E+1
   1.20774E+2   1.64895E+2
   1.02178E+2   3.06929E+2
  -1.66381E+2   8.56122E+1
  -1.52463E+2   8.79830E+1
  -1.07050E+2  -8.26256E+1
   1.72946E+2  -3.41266E+1
  -8.25058E+1   8.90033E+1
  -1.05795E+2   1.48492E+2
  -2.40674E+0   1.80467E+1
  -1.01756E+2   1.48822E+2
   9.57320E+1  -2.80063E+2
  -2.30315E+1   4.39607E+1
  -1.12127E+2   1.11336E+2
  -1.28822E+2  -7.17070E+1
  -7.40814E+1  -7.19783E+1
   1.02939E+2   1.85478E+2
  -2.58800E+2  -2.31477E+1
  -1.98129E+2   1.67237E+2
  -2.51688E+2   1.03092E+2
   1.35545E+2  -1.46158E+2
   1.66604E+2  -2.30115E+2
   5.16693E+1   7.81687E+1
  -2.44321E+2   9.16827E+1
  -2.95544E+1  -1.27913E+2
   2.96760E+1  -1.68951E+2
  -5.83712E+1   9.28259E+1
  -1.47548E+2   1.94921E+2
  -1.28893E+2  -1.57784E+2
   1.22270E+2  -1.09221E+2
   1.58119E+2   3.69445E+1
  -2.25634E+0   9.96518E+0
  -1.00471E+2   1.93781E+2
  -4.13153E+1  -4.20701E+1
  -1.36980E+2   1.16646E+2
  -1.10993E+2   1.69735E+2
  -7.86724E+1   1.46160E+2
   1.62293E+2   9.49902E+1
  -1.60594E+2  -2.61775E+2
   1.67470E+2  -2.17308E+1
   5.18024E+1   2.34613E+2
   4.51575E+0   1.17818E+2
  -3.11181E+1   1.24518E+2
   2.65549E+1  -1.85882E+2
  -1.30273E+2  -2.26107E+0
  -1.11484E+2   1.15714E+1
  -9.97123E+1   9.79534E+1
  -1.58034E+2   7.75853E+1
   3.29494E+1  -1.67626E+2
   9.51094E+1   1.14810E+1
  -2.93484E+2   2.02596E+2
  -1.07189E+2   2.59614E+1
   8.22299E+1   7.82594E+1
   2.67067E+0  -1.01676E+2
   9.46280E+1   6.54323E+1
  -2.18258E+2  -4.99457E+1
   1.08853E+2   2.45826E+2
  -3.31732E+2   1.74310E+2
  -6.87045E+1   1.97840E+2
  -1.57579E+2  -9.57913E+1
  -7.90363E+1   2.26690E+2
  -2.55404E+2   1.27025E+2
   1.23814E+1  -6.81670E+1
  -4.54107E+1   1.40608E+2
   1.39188E+2   6.43973E+1
   3.60860E+1  -3.88216E+1
  -6.88553E+1  -2.91085E+2
   7.13641E+1  -4.18116E+1
   2.28285E+2  -2.86236E+1
   2.92814E+1   1.51472E+2
  -1.71585E+2   2.78084E+2
  -1.62947E+2   1.67355E+2
   1.09330E+2  -1.07358E+2
   1.19905E+2   3.65903E+1
   9.32535E+1   7.75581E+1
  -6.22957E+1   3.17973E+2
   2.14404E+1   1.47790E+2
  -2.73400E+2  -9.80402E+1
  -6.78343E+1   1.74718E+2
  -1.04273E+2  -6.98276E+1
   2.54905E+0   1.69577E+2
  -6.49012E+1  -8.07795E+1
  -1.95479E+1   2.79209E+1
   6.11620E+1   1.75532E+2
  -3.02837E+2   1.15525E+0
  -2.11467E+2  -2.26590E+1
  -2.17546E+2  -7.96600E+1
  -1.54163E+2   2.62300E+2
   4.16854E+1   6.05235E+0
   4.73965E+1   1.53714E+1
   2.57434E+0   1.70411E+2
   3.14649E+1  -4.43508E+1
   1.99732E+2   5.25125E+1
  -1.49555E+2   1.74947E+2
  -4.41022E+1   1.81569E+2
  -1.46570E+2   3.66082E+1
   6.22366E+1   1.95363E+1
  -1.64114E+1   1.14027E+2
   1.40380E+1   1.16750E+2
  -1.23385E+2   3.84367E+1
   8.41766E+1  -1.36370E+2
  -1.20326E+1  -1.67939E+2
   8.12980E+1   9.39789E+1
  -4.27271E+1  -4.70454E+1
   1.08127E+2   1.73994E+2
  -7.71467E+1   5.06819E+1
   1.86938E+2   4.45252E+1
  -1.93330E+1   7.34053E+1
   4.98625E+1  -2.17480E+1
   4.13701E+1   1.03175E+2
  -1.05173E+2  -5.03027E+1
  -1.99460E+2  -2.44477E+2
   4.59383E+1  -3.92793E+1
  -1.39576E+2  -3.36482E+1
   2.70887E+2   1.28946E+2
   1.86588E+2  -5.53131E+1
   6.62448E+1  -6.74442E+1
   1.81221E+2   3.44410E+1
  -1.39966E+2   2.52332E+1
  -3.58948E+2   1.68804E+2
   9.18581E+1  -1.31070E+2
  -4.97832E+1   2.23631E+2
   1.35811E+2  -1.33820E+1
   1.35278E+2   6.60772E+1
   1.80200E+2   5.25979E+1
  -6.22406E+1  -1.93690E+2
  -1.28098E+2  -1.17621E+2
   1.88445E+2  -7.70833E+0
   1.40967E+2   6.51287E+1
  -5.37184E+1  -1.63623E+2
   2.38805E+2   4.74637E+1
   1.56516E+2   4.73812E+1
