 
 $NMID
 ID=''
 FMTDAT='(2E13.5)'
 TRAMP=   1.00000E+0
 VOLUME=   1.00000E+0
 $END
   7.33620E+5   1.17895E+5
   1.73194E+6   1.02897E+6
   1.81709E+6   8.16680E+5
   1.67497E+6   8.36661E+5
   1.71610E+6   9.03181E+5
   1.71939E+6   8.31591E+5
   1.66580E+6   8.33379E+5
   1.69383E+6   8.66140E+5
   1.67528E+6   8.30907E+5
   1.62023E+6   8.60185E+5
   1.63346E+6   8.93284E+5
   1.62154E+6   8.66989E+5
   1.57816E+6   8.79055E+5
   1.57294E+6   9.08040E+5
   1.55672E+6   9.02193E+5
   1.52613E+6   9.04530E+5
   1.51893E+6   9.20681E+5
   1.50229E+6   9.26368E+5
   1.48400E+6   9.30233E+5
   1.47673E+6   9.23261E+5
   1.45290E+6   9.27846E+5
   1.43832E+6   9.41521E+5
   1.43177E+6   9.37960E+5
   1.40788E+6   9.37820E+5
   1.38646E+6   9.51671E+5
   1.37971E+6   9.46795E+5
   1.35920E+6   9.49458E+5
   1.33840E+6   9.63710E+5
   1.32159E+6   9.65049E+5
   1.30289E+6   9.63188E+5
   1.28889E+6   9.72704E+5
   1.27493E+6   9.70316E+5
   1.25396E+6   9.70776E+5
   1.24219E+6   9.76508E+5
   1.23146E+6   9.68958E+5
   1.21579E+6   9.63716E+5
   1.20677E+6   9.70973E+5
   1.19688E+6   9.70302E+5
   1.17539E+6   9.65379E+5
   1.16067E+6   9.68838E+5
   1.14929E+6   9.70055E+5
   1.13163E+6   9.66137E+5
   1.11371E+6   9.64850E+5
   1.10126E+6   9.66289E+5
   1.08577E+6   9.65872E+5
   1.07042E+6   9.67099E+5
   1.05373E+6   9.68943E+5
   1.03539E+6   9.69513E+5
   1.01914E+6   9.66499E+5
   1.00553E+6   9.64262E+5
   9.90879E+5   9.64162E+5
   9.76109E+5   9.64035E+5
   9.62948E+5   9.61897E+5
   9.48518E+5   9.60204E+5
   9.32132E+5   9.59665E+5
   9.16437E+5   9.58818E+5
   9.00128E+5   9.56758E+5
   8.82959E+5   9.53705E+5
   8.67650E+5   9.51553E+5
   8.53982E+5   9.49384E+5
   8.38412E+5   9.47410E+5
   8.22128E+5   9.46207E+5
   8.07045E+5   9.45366E+5
   7.90901E+5   9.42196E+5
   7.73939E+5   9.38006E+5
   7.58546E+5   9.33506E+5
   7.43293E+5   9.29844E+5
   7.28468E+5   9.25029E+5
   7.14065E+5   9.22629E+5
   6.98367E+5   9.21137E+5
   6.81250E+5   9.17785E+5
   6.65421E+5   9.12144E+5
   6.51654E+5   9.08656E+5
   6.36434E+5   9.06570E+5
   6.19265E+5   9.03033E+5
   6.03716E+5   8.97660E+5
   5.89201E+5   8.93827E+5
   5.73777E+5   8.90518E+5
   5.58083E+5   8.86267E+5
   5.42460E+5   8.81201E+5
   5.27474E+5   8.76294E+5
   5.12519E+5   8.71868E+5
   4.97528E+5   8.67226E+5
   4.81542E+5   8.62926E+5
   4.65878E+5   8.58676E+5
   4.51017E+5   8.53669E+5
   4.36968E+5   8.48889E+5
   4.21713E+5   8.44409E+5
   4.06855E+5   8.39401E+5
   3.93422E+5   8.33682E+5
   3.80634E+5   8.28184E+5
   3.67861E+5   8.23307E+5
   3.53891E+5   8.18062E+5
   3.41059E+5   8.11672E+5
   3.28108E+5   8.04535E+5
   3.16545E+5   7.98325E+5
   3.05327E+5   7.92841E+5
   2.93728E+5   7.87144E+5
   2.81585E+5   7.80580E+5
   2.70191E+5   7.74599E+5
   2.59664E+5   7.69362E+5
   2.47407E+5   7.63832E+5
   2.35249E+5   7.56890E+5
   2.24085E+5   7.49464E+5
   2.14957E+5   7.42786E+5
   2.05385E+5   7.36918E+5
   1.94982E+5   7.31428E+5
   1.84142E+5   7.24291E+5
   1.74721E+5   7.16042E+5
   1.66945E+5   7.08590E+5
   1.58192E+5   7.02616E+5
   1.48640E+5   6.96784E+5
   1.38874E+5   6.89893E+5
   1.29710E+5   6.82585E+5
   1.20664E+5   6.75826E+5
   1.11506E+5   6.69171E+5
   1.02008E+5   6.62368E+5
   9.30583E+4   6.54487E+5
   8.55452E+4   6.46528E+5
   7.87407E+4   6.39045E+5
   7.10654E+4   6.32853E+5
   6.31609E+4   6.26499E+5
   5.56250E+4   6.19677E+5
   4.81410E+4   6.12489E+5
   4.01445E+4   6.04919E+5
   3.29703E+4   5.97040E+5
   2.60219E+4   5.89848E+5
   1.88872E+4   5.82630E+5
   1.18149E+4   5.75839E+5
   4.66176E+3   5.69108E+5
  -3.41249E+3   5.62128E+5
  -1.10756E+4   5.54201E+5
  -1.79230E+4   5.46325E+5
  -2.42458E+4   5.39546E+5
  -3.11784E+4   5.32458E+5
  -3.78095E+4   5.24634E+5
  -4.33428E+4   5.17093E+5
  -4.91654E+4   5.10340E+5
  -5.52479E+4   5.03921E+5
  -6.15516E+4   4.96360E+5
  -6.70438E+4   4.88581E+5
  -7.18970E+4   4.81077E+5
  -7.62667E+4   4.74333E+5
  -8.17203E+4   4.67824E+5
  -8.74203E+4   4.61274E+5
  -9.25342E+4   4.53744E+5
  -9.70383E+4   4.46231E+5
  -1.01836E+5   4.38912E+5
  -1.06144E+5   4.32231E+5
  -1.09772E+5   4.25175E+5
  -1.14031E+5   4.18322E+5
  -1.17235E+5   4.11639E+5
  -1.20425E+5   4.05633E+5
  -1.23990E+5   3.99521E+5
  -1.27820E+5   3.92771E+5
  -1.30469E+5   3.85782E+5
  -1.33063E+5   3.79933E+5
  -1.35644E+5   3.73967E+5
  -1.38077E+5   3.67707E+5
  -1.40527E+5   3.61350E+5
  -1.42468E+5   3.55571E+5
  -1.44747E+5   3.49513E+5
  -1.47076E+5   3.43423E+5
  -1.48632E+5   3.37098E+5
  -1.50013E+5   3.31211E+5
  -1.51245E+5   3.25791E+5
  -1.53032E+5   3.20812E+5
  -1.54723E+5   3.15410E+5
  -1.55692E+5   3.09677E+5
  -1.56860E+5   3.04326E+5
  -1.57576E+5   2.99320E+5
  -1.58315E+5   2.94302E+5
  -1.59487E+5   2.89049E+5
  -1.60015E+5   2.83797E+5
  -1.60715E+5   2.78736E+5
  -1.61313E+5   2.74007E+5
  -1.62067E+5   2.69306E+5
  -1.63086E+5   2.63861E+5
  -1.63134E+5   2.58496E+5
  -1.63485E+5   2.54270E+5
  -1.63881E+5   2.49912E+5
  -1.64584E+5   2.45208E+5
  -1.65327E+5   2.40182E+5
  -1.65247E+5   2.35657E+5
  -1.65619E+5   2.31041E+5
  -1.65475E+5   2.26406E+5
  -1.65495E+5   2.22185E+5
  -1.65515E+5   2.17826E+5
  -1.65104E+5   2.13749E+5
  -1.65328E+5   2.10204E+5
  -1.65604E+5   2.06364E+5
  -1.66158E+5   2.01841E+5
  -1.66240E+5   1.97191E+5
  -1.65876E+5   1.92879E+5
  -1.65848E+5   1.89069E+5
  -1.65631E+5   1.85107E+5
  -1.65855E+5   1.81128E+5
  -1.65886E+5   1.77218E+5
  -1.65884E+5   1.73407E+5
  -1.66214E+5   1.69506E+5
  -1.66208E+5   1.65576E+5
  -1.65871E+5   1.61371E+5
  -1.65333E+5   1.57929E+5
  -1.65116E+5   1.54540E+5
  -1.65338E+5   1.50817E+5
  -1.65300E+5   1.47223E+5
  -1.65032E+5   1.43617E+5
  -1.64456E+5   1.40368E+5
  -1.64205E+5   1.36925E+5
  -1.64417E+5   1.33504E+5
  -1.63807E+5   1.30099E+5
  -1.63373E+5   1.26992E+5
  -1.63030E+5   1.23773E+5
  -1.63390E+5   1.20694E+5
  -1.63211E+5   1.17082E+5
  -1.62272E+5   1.13848E+5
  -1.61742E+5   1.10939E+5
  -1.61160E+5   1.08127E+5
  -1.60544E+5   1.05366E+5
  -1.60035E+5   1.02776E+5
  -1.59410E+5   9.99454E+4
  -1.58916E+5   9.73330E+4
  -1.58228E+5   9.48868E+4
  -1.57874E+5   9.20330E+4
  -1.57229E+5   8.92455E+4
  -1.56384E+5   8.69778E+4
  -1.55313E+5   8.47706E+4
  -1.54800E+5   8.26205E+4
  -1.54734E+5   8.01538E+4
  -1.53805E+5   7.78406E+4
  -1.52857E+5   7.51867E+4
  -1.51790E+5   7.33307E+4
  -1.51098E+5   7.11385E+4
  -1.50390E+5   6.91673E+4
  -1.49340E+5   6.74268E+4
  -1.48429E+5   6.53010E+4
  -1.48047E+5   6.35693E+4
  -1.46986E+5   6.16061E+4
  -1.45751E+5   5.99033E+4
  -1.45160E+5   5.79454E+4
  -1.44138E+5   5.65301E+4
  -1.43301E+5   5.47040E+4
  -1.42752E+5   5.31069E+4
  -1.41595E+5   5.09860E+4
  -1.40567E+5   4.92433E+4
  -1.39565E+5   4.78002E+4
  -1.39010E+5   4.62649E+4
  -1.38088E+5   4.45816E+4
  -1.36889E+5   4.28367E+4
  -1.36016E+5   4.16930E+4
  -1.34981E+5   3.98275E+4
  -1.34458E+5   3.84700E+4
  -1.33754E+5   3.69524E+4
  -1.32220E+5   3.53448E+4
  -1.31342E+5   3.39487E+4
  -1.30435E+5   3.23624E+4
  -1.30031E+5   3.07057E+4
  -1.28844E+5   2.92960E+4
  -1.28288E+5   2.77502E+4
  -1.27444E+5   2.62053E+4
  -1.26690E+5   2.45452E+4
  -1.25716E+5   2.28748E+4
  -1.24642E+5   2.13293E+4
  -1.23779E+5   2.00572E+4
  -1.22944E+5   1.88708E+4
  -1.22206E+5   1.75132E+4
  -1.21618E+5   1.57300E+4
  -1.20503E+5   1.41102E+4
  -1.19590E+5   1.28009E+4
  -1.18739E+5   1.17342E+4
  -1.17878E+5   1.05392E+4
  -1.17255E+5   9.16128E+3
  -1.16142E+5   7.66093E+3
  -1.15585E+5   6.53736E+3
  -1.14758E+5   4.97786E+3
  -1.14195E+5   3.69036E+3
  -1.12967E+5   2.14343E+3
  -1.11987E+5   1.33921E+3
  -1.11017E+5   1.58583E+2
  -1.10445E+5  -1.13235E+3
  -1.09550E+5  -2.54208E+3
  -1.08638E+5  -3.69007E+3
  -1.07560E+5  -4.77051E+3
  -1.06867E+5  -5.97878E+3
  -1.05901E+5  -7.21362E+3
  -1.05122E+5  -8.56876E+3
  -1.03746E+5  -9.11741E+3
  -1.03159E+5  -1.01261E+4
  -1.02385E+5  -1.12950E+4
  -1.01403E+5  -1.24562E+4
  -1.00554E+5  -1.35441E+4
  -9.94558E+4  -1.44773E+4
  -9.88123E+4  -1.53492E+4
  -9.77887E+4  -1.64621E+4
  -9.68103E+4  -1.74060E+4
  -9.56560E+4  -1.83022E+4
  -9.50424E+4  -1.93880E+4
  -9.40566E+4  -1.99136E+4
  -9.32681E+4  -2.11821E+4
  -9.20847E+4  -2.20671E+4
  -9.12044E+4  -2.28977E+4
  -9.01787E+4  -2.34170E+4
  -8.94678E+4  -2.41304E+4
  -8.85873E+4  -2.53158E+4
  -8.72027E+4  -2.64323E+4
  -8.63923E+4  -2.68327E+4
  -8.54172E+4  -2.77961E+4
  -8.45653E+4  -2.84520E+4
  -8.34125E+4  -2.92439E+4
  -8.25359E+4  -3.00671E+4
  -8.14080E+4  -3.06526E+4
  -8.06132E+4  -3.12198E+4
  -7.98594E+4  -3.21925E+4
  -7.86502E+4  -3.30828E+4
  -7.75283E+4  -3.35352E+4
  -7.67882E+4  -3.42594E+4
  -7.55848E+4  -3.49859E+4
  -7.48273E+4  -3.57472E+4
  -7.41102E+4  -3.64378E+4
  -7.28761E+4  -3.68073E+4
  -7.20438E+4  -3.75326E+4
  -7.09802E+4  -3.84135E+4
  -6.99542E+4  -3.89440E+4
  -6.86555E+4  -3.95288E+4
  -6.78918E+4  -3.97548E+4
  -6.68815E+4  -4.03001E+4
  -6.64417E+4  -4.12610E+4
  -6.52463E+4  -4.19179E+4
  -6.39326E+4  -4.23159E+4
  -6.29274E+4  -4.29076E+4
  -6.23394E+4  -4.30884E+4
  -6.13779E+4  -4.34612E+4
  -6.00714E+4  -4.40225E+4
  -5.94338E+4  -4.44745E+4
  -5.84847E+4  -4.49241E+4
  -5.76860E+4  -4.55990E+4
  -5.67644E+4  -4.62449E+4
  -5.56275E+4  -4.65292E+4
  -5.45576E+4  -4.67154E+4
  -5.37368E+4  -4.71925E+4
  -5.29026E+4  -4.75292E+4
  -5.19722E+4  -4.77436E+4
  -5.08427E+4  -4.83115E+4
  -4.96949E+4  -4.85555E+4
  -4.86892E+4  -4.88800E+4
  -4.80968E+4  -4.93443E+4
  -4.68488E+4  -4.95096E+4
  -4.62174E+4  -4.97041E+4
  -4.52683E+4  -4.97650E+4
  -4.46610E+4  -5.03205E+4
  -4.35827E+4  -5.06526E+4
  -4.24407E+4  -5.08999E+4
  -4.13643E+4  -5.10004E+4
  -4.05972E+4  -5.08896E+4
  -3.99552E+4  -5.11765E+4
  -3.87197E+4  -5.14058E+4
  -3.79973E+4  -5.14194E+4
  -3.71539E+4  -5.14838E+4
  -3.62101E+4  -5.18305E+4
  -3.53979E+4  -5.21336E+4
  -3.42850E+4  -5.19517E+4
  -3.35380E+4  -5.19730E+4
  -3.27500E+4  -5.19463E+4
  -3.20886E+4  -5.22339E+4
  -3.10641E+4  -5.19977E+4
  -3.03722E+4  -5.20275E+4
  -2.95135E+4  -5.21941E+4
