 
 $NMID
 ID=''
 FMTDAT='(2E13.5)'
 TRAMP=   1.00000E+0
 VOLUME=   1.00000E+0
 $END
   5.80954E+5  -1.23526E+5
   1.59271E+6   2.45354E+5
   1.57497E+6   3.68259E+4
   1.47004E+6   6.10285E+4
   1.53113E+6   3.18826E+4
   1.50593E+6  -1.06715E+5
   1.44801E+6  -1.41305E+5
   1.47260E+6  -1.60420E+5
   1.44543E+6  -2.22588E+5
   1.40286E+6  -2.28400E+5
   1.40752E+6  -2.47681E+5
   1.37532E+6  -2.93890E+5
   1.33774E+6  -3.01122E+5
   1.33528E+6  -3.13379E+5
   1.30489E+6  -3.37071E+5
   1.27279E+6  -3.40558E+5
   1.26484E+6  -3.63139E+5
   1.23134E+6  -3.98666E+5
   1.19505E+6  -4.14924E+5
   1.17551E+6  -4.46647E+5
   1.13959E+6  -4.77162E+5
   1.10596E+6  -4.88169E+5
   1.08514E+6  -5.07995E+5
   1.05058E+6  -5.29279E+5
   1.01825E+6  -5.33354E+5
   9.92844E+5  -5.47674E+5
   9.63515E+5  -5.57405E+5
   9.38279E+5  -5.53230E+5
   9.14763E+5  -5.56313E+5
   8.81637E+5  -5.66005E+5
   8.54230E+5  -5.69807E+5
   8.25974E+5  -5.78401E+5
   7.90850E+5  -5.85921E+5
   7.59770E+5  -5.90612E+5
   7.28705E+5  -5.99761E+5
   6.91653E+5  -6.09347E+5
   6.58896E+5  -6.14782E+5
   6.29665E+5  -6.19492E+5
   5.97736E+5  -6.18526E+5
   5.69706E+5  -6.15232E+5
   5.43507E+5  -6.13243E+5
   5.15933E+5  -6.08970E+5
   4.90188E+5  -6.02230E+5
   4.65631E+5  -5.96939E+5
   4.40885E+5  -5.89746E+5
   4.18989E+5  -5.82037E+5
   3.95778E+5  -5.75344E+5
   3.70554E+5  -5.67173E+5
   3.45323E+5  -5.58721E+5
   3.21068E+5  -5.51706E+5
   2.96598E+5  -5.43394E+5
   2.73329E+5  -5.34137E+5
   2.50520E+5  -5.25661E+5
   2.29257E+5  -5.15798E+5
   2.08663E+5  -5.04144E+5
   1.88824E+5  -4.92852E+5
   1.71019E+5  -4.81144E+5
   1.53660E+5  -4.68475E+5
   1.36207E+5  -4.55357E+5
   1.19418E+5  -4.42896E+5
   1.03898E+5  -4.30716E+5
   8.89384E+4  -4.17404E+5
   7.38585E+4  -4.04444E+5
   5.92645E+4  -3.90858E+5
   4.49231E+4  -3.77712E+5
   3.11894E+4  -3.63775E+5
   1.82188E+4  -3.49983E+5
   5.87530E+3  -3.36520E+5
  -5.87099E+3  -3.23277E+5
  -1.60555E+4  -3.10170E+5
  -2.60444E+4  -2.96459E+5
  -3.60404E+4  -2.83256E+5
  -4.41408E+4  -2.70061E+5
  -5.22292E+4  -2.56715E+5
  -6.03595E+4  -2.43715E+5
  -6.83598E+4  -2.30832E+5
  -7.49411E+4  -2.17744E+5
  -8.17500E+4  -2.04675E+5
  -8.80077E+4  -1.92711E+5
  -9.37885E+4  -1.80935E+5
  -9.88264E+4  -1.68884E+5
  -1.03953E+5  -1.57067E+5
  -1.08584E+5  -1.45829E+5
  -1.12076E+5  -1.34780E+5
  -1.14956E+5  -1.24039E+5
  -1.18033E+5  -1.13493E+5
  -1.21006E+5  -1.03559E+5
  -1.23009E+5  -9.37613E+4
  -1.25027E+5  -8.42026E+4
  -1.26394E+5  -7.50128E+4
  -1.27909E+5  -6.60599E+4
  -1.29149E+5  -5.71047E+4
  -1.30182E+5  -4.83440E+4
  -1.30795E+5  -4.03509E+4
  -1.31421E+5  -3.25879E+4
  -1.31769E+5  -2.46298E+4
  -1.32403E+5  -1.73862E+4
  -1.32251E+5  -1.05805E+4
  -1.31650E+5  -4.00917E+3
  -1.31119E+5   2.46203E+3
  -1.30332E+5   8.33270E+3
  -1.29811E+5   1.40332E+4
  -1.28928E+5   1.88039E+4
  -1.27780E+5   2.37677E+4
  -1.26803E+5   2.88428E+4
  -1.25122E+5   3.31733E+4
  -1.23947E+5   3.74777E+4
  -1.22478E+5   4.13690E+4
  -1.20826E+5   4.51184E+4
  -1.19216E+5   4.87819E+4
  -1.17309E+5   5.19336E+4
  -1.15803E+5   5.51022E+4
  -1.14305E+5   5.77302E+4
  -1.12418E+5   6.00186E+4
  -1.10743E+5   6.22910E+4
  -1.09042E+5   6.42380E+4
  -1.07359E+5   6.61722E+4
  -1.05371E+5   6.73114E+4
  -1.03416E+5   6.89412E+4
  -1.01772E+5   7.00145E+4
  -9.98748E+4   7.14668E+4
  -9.77593E+4   7.24048E+4
  -9.57570E+4   7.30772E+4
  -9.44002E+4   7.41766E+4
  -9.28453E+4   7.44134E+4
  -9.12643E+4   7.48433E+4
  -8.93631E+4   7.50822E+4
  -8.79670E+4   7.52909E+4
  -8.66240E+4   7.52321E+4
  -8.50670E+4   7.50835E+4
  -8.37409E+4   7.47691E+4
  -8.25746E+4   7.41269E+4
  -8.13657E+4   7.34576E+4
  -8.01208E+4   7.27962E+4
  -7.89314E+4   7.24015E+4
  -7.80841E+4   7.14943E+4
  -7.70268E+4   7.07144E+4
  -7.59458E+4   7.00264E+4
  -7.49194E+4   6.92233E+4
  -7.45005E+4   6.81413E+4
  -7.34657E+4   6.71580E+4
  -7.25298E+4   6.60039E+4
  -7.16624E+4   6.51143E+4
  -7.05057E+4   6.40065E+4
  -7.00735E+4   6.31333E+4
  -6.95050E+4   6.16934E+4
  -6.88159E+4   6.07095E+4
  -6.82212E+4   5.93748E+4
  -6.76807E+4   5.81429E+4
  -6.65184E+4   5.69679E+4
  -6.64904E+4   5.57434E+4
  -6.57703E+4   5.46784E+4
  -6.55256E+4   5.33711E+4
  -6.47304E+4   5.24222E+4
  -6.42101E+4   5.12175E+4
  -6.38241E+4   4.99115E+4
  -6.34571E+4   4.87397E+4
  -6.25852E+4   4.77522E+4
  -6.20969E+4   4.64047E+4
  -6.15451E+4   4.53615E+4
  -6.10849E+4   4.41715E+4
  -6.05323E+4   4.31433E+4
  -5.98572E+4   4.19271E+4
  -5.94067E+4   4.08566E+4
  -5.90185E+4   3.95044E+4
  -5.82520E+4   3.87454E+4
  -5.78723E+4   3.77419E+4
  -5.74796E+4   3.68704E+4
  -5.68177E+4   3.54783E+4
  -5.61141E+4   3.45061E+4
  -5.56067E+4   3.34050E+4
  -5.48168E+4   3.25290E+4
  -5.45461E+4   3.13472E+4
  -5.38184E+4   3.05039E+4
  -5.29534E+4   2.93893E+4
  -5.26242E+4   2.84699E+4
  -5.18409E+4   2.74869E+4
  -5.16690E+4   2.65395E+4
  -5.10072E+4   2.54981E+4
  -5.01665E+4   2.45091E+4
  -4.97627E+4   2.37905E+4
  -4.91151E+4   2.28713E+4
  -4.86471E+4   2.18566E+4
  -4.80375E+4   2.09475E+4
  -4.72431E+4   2.01540E+4
  -4.70002E+4   1.92043E+4
  -4.61770E+4   1.84730E+4
  -4.53509E+4   1.76396E+4
  -4.50645E+4   1.68154E+4
  -4.42289E+4   1.60656E+4
  -4.38334E+4   1.53492E+4
  -4.32156E+4   1.42375E+4
  -4.27281E+4   1.37643E+4
  -4.22557E+4   1.27315E+4
  -4.15877E+4   1.19126E+4
  -4.11014E+4   1.13307E+4
  -4.05499E+4   1.04725E+4
  -3.99376E+4   9.87104E+3
  -3.95469E+4   9.14422E+3
  -3.90298E+4   8.59804E+3
  -3.84962E+4   7.86590E+3
  -3.77644E+4   7.32028E+3
  -3.74400E+4   6.51467E+3
  -3.68060E+4   6.01046E+3
  -3.67324E+4   5.70375E+3
  -3.59122E+4   4.99495E+3
  -3.54080E+4   4.50839E+3
  -3.51268E+4   3.97014E+3
  -3.47354E+4   3.47425E+3
  -3.41426E+4   3.42082E+3
  -3.36478E+4   2.78149E+3
  -3.32487E+4   2.42520E+3
  -3.28044E+4   1.93849E+3
  -3.22539E+4   1.70609E+3
  -3.18935E+4   1.47743E+3
  -3.12445E+4   9.83655E+2
  -3.07791E+4   7.97506E+2
  -3.01029E+4   6.69440E+2
  -2.96489E+4   1.79342E+2
  -2.92618E+4  -8.47651E+1
  -2.87625E+4  -2.46061E+1
  -2.83048E+4  -2.06480E+2
  -2.77296E+4  -6.69575E+2
  -2.74592E+4  -7.97796E+2
  -2.69005E+4  -7.31567E+2
  -2.60522E+4  -9.94376E+2
  -2.58933E+4  -1.02789E+3
  -2.51030E+4  -1.21897E+3
  -2.50107E+4  -1.43257E+3
  -2.45169E+4  -1.68454E+3
  -2.39918E+4  -1.71869E+3
  -2.36162E+4  -1.60429E+3
  -2.30350E+4  -1.61708E+3
  -2.26717E+4  -1.79613E+3
  -2.20261E+4  -1.88804E+3
  -2.14861E+4  -1.74687E+3
  -2.09593E+4  -1.97585E+3
  -2.03941E+4  -1.99222E+3
  -2.01787E+4  -2.03838E+3
  -1.94696E+4  -2.06703E+3
  -1.91381E+4  -1.95758E+3
  -1.89113E+4  -2.25381E+3
  -1.84169E+4  -2.04947E+3
  -1.79054E+4  -2.39632E+3
  -1.74105E+4  -2.45236E+3
  -1.67573E+4  -2.31374E+3
  -1.64585E+4  -2.25758E+3
  -1.60440E+4  -2.33932E+3
  -1.54860E+4  -2.62727E+3
  -1.51241E+4  -2.48052E+3
  -1.47923E+4  -2.69229E+3
  -1.44213E+4  -2.76887E+3
  -1.40423E+4  -2.86214E+3
  -1.37044E+4  -2.95351E+3
  -1.29025E+4  -2.93037E+3
  -1.26399E+4  -3.15146E+3
  -1.24716E+4  -3.22249E+3
  -1.19106E+4  -3.56884E+3
  -1.16967E+4  -3.64269E+3
  -1.14646E+4  -3.44233E+3
  -1.11488E+4  -3.67383E+3
  -1.09563E+4  -3.88909E+3
  -1.05839E+4  -4.28931E+3
  -1.01416E+4  -4.29104E+3
  -9.84830E+3  -4.14152E+3
  -9.81350E+3  -4.39727E+3
  -9.34136E+3  -4.52668E+3
  -8.85049E+3  -4.64597E+3
  -8.85416E+3  -4.79774E+3
  -8.44396E+3  -4.90966E+3
  -8.12103E+3  -4.92794E+3
  -7.98513E+3  -5.02620E+3
  -7.65634E+3  -5.13870E+3
  -7.44866E+3  -5.24897E+3
  -7.08234E+3  -5.34735E+3
  -6.75173E+3  -5.41452E+3
  -6.61499E+3  -5.76933E+3
  -6.47737E+3  -5.91229E+3
  -6.34328E+3  -6.04282E+3
  -6.29798E+3  -6.14642E+3
  -6.04019E+3  -6.33137E+3
  -5.60935E+3  -6.53227E+3
  -5.57189E+3  -6.51379E+3
  -5.42016E+3  -6.87044E+3
  -5.58135E+3  -6.98541E+3
  -5.32532E+3  -6.76153E+3
  -5.07783E+3  -7.38744E+3
  -4.98394E+3  -7.36712E+3
  -4.84879E+3  -7.22217E+3
  -4.74141E+3  -7.46260E+3
  -4.46303E+3  -7.45652E+3
  -4.36560E+3  -7.79124E+3
  -4.45278E+3  -8.05351E+3
  -4.50178E+3  -8.02147E+3
  -4.46550E+3  -7.93688E+3
  -4.35010E+3  -8.28697E+3
  -4.39271E+3  -8.47418E+3
  -4.43595E+3  -8.52816E+3
  -4.39418E+3  -8.59948E+3
  -4.07571E+3  -8.70786E+3
  -4.10156E+3  -8.89028E+3
  -4.13618E+3  -8.93765E+3
  -4.05938E+3  -8.86790E+3
  -4.38241E+3  -9.05184E+3
  -4.18980E+3  -9.16721E+3
  -4.22748E+3  -9.36689E+3
  -4.04913E+3  -9.18149E+3
  -4.27751E+3  -9.25955E+3
  -4.26508E+3  -9.36409E+3
  -4.11351E+3  -9.40247E+3
  -3.97284E+3  -9.59972E+3
  -4.09008E+3  -9.60486E+3
  -4.37833E+3  -9.55327E+3
  -4.38794E+3  -9.56208E+3
  -4.25673E+3  -9.82083E+3
  -4.51296E+3  -9.79252E+3
  -4.48526E+3  -9.73184E+3
  -4.34290E+3  -9.65935E+3
  -4.60121E+3  -9.79190E+3
  -4.28516E+3  -9.80650E+3
  -4.79574E+3  -9.56871E+3
  -4.59830E+3  -9.36376E+3
  -4.71032E+3  -9.63589E+3
  -4.47621E+3  -9.72738E+3
  -4.65830E+3  -9.62118E+3
  -4.66757E+3  -9.58668E+3
  -4.85890E+3  -9.75711E+3
  -4.65537E+3  -9.40731E+3
  -4.88046E+3  -9.44658E+3
  -4.59684E+3  -9.51806E+3
  -4.73955E+3  -9.62237E+3
  -4.61260E+3  -9.47141E+3
  -4.61887E+3  -9.54200E+3
  -4.59745E+3  -9.66399E+3
  -5.01232E+3  -9.56523E+3
  -4.90889E+3  -9.39165E+3
  -4.72176E+3  -9.79493E+3
  -4.84406E+3  -9.52071E+3
  -4.77701E+3  -9.74323E+3
  -4.79556E+3  -9.64978E+3
  -4.65478E+3  -9.70340E+3
  -4.67258E+3  -9.39032E+3
  -4.73954E+3  -9.53579E+3
  -4.88021E+3  -9.56204E+3
  -4.74826E+3  -9.46965E+3
  -4.94753E+3  -9.62805E+3
  -4.57268E+3  -9.68499E+3
  -4.49231E+3  -9.26468E+3
  -4.59967E+3  -9.17783E+3
  -4.68488E+3  -9.34671E+3
  -4.50521E+3  -9.43287E+3
  -4.49719E+3  -9.22446E+3
  -4.35263E+3  -9.12568E+3
  -4.33939E+3  -9.32941E+3
  -4.28237E+3  -9.47909E+3
  -4.64990E+3  -9.35722E+3
  -4.33429E+3  -9.41518E+3
  -4.40846E+3  -9.49364E+3
  -4.47479E+3  -9.55837E+3
  -4.37034E+3  -9.64100E+3
  -4.25243E+3  -9.36681E+3
  -4.31092E+3  -9.48910E+3
  -4.21866E+3  -9.60542E+3
  -4.28140E+3  -9.40082E+3
  -4.22203E+3  -9.66946E+3
  -4.52750E+3  -9.75304E+3
  -4.35154E+3  -9.56909E+3
