 LCModel (Version 6.3-1N) Copyright: S.W. Provencher.          Ref.: Magn. Reson. Med. 30:672-679 (1993).                
 Slice_N1@10_12  28-Feb-2025 11:37:04
 27 lines in following concentration table = NCONC+1
    Conc.  %SD /Cr+PCr  Metabolite                                         
 3.57E-04   4% 3.8E-04 Mac                                                 
    2.346  47%   2.466 Cr                                                  
    5.264  21%   5.534 PCr                                                 
    6.554  14%   6.889 Ins                                                 
   10.659   8%  11.205 NAA                                                 
    7.066  13%   7.428 Tau                                                 
    1.195  26%   1.256 PCho                                                
    0.000 999%   0.000 GPC                                                 
    9.930  11%  10.438 Glu                                                 
    6.079  15%   6.390 Gln                                                 
    2.973  25%   3.125 Ala                                                 
    0.370 331%   0.389 Asc                                                 
    1.912  49%   2.010 Asp                                                 
    0.222 227%   0.233 GABA                                                
    0.610 103%   0.641 Glc                                                 
    0.775  70%   0.815 GSH                                                 
    0.309 229%   0.325 Lac                                                 
    2.255  27%   2.371 NAAG                                                
    3.102  38%   3.261 PE                                                  
    1.195  26%   1.256 GPC+PCho                                            
   12.914   7%  13.576 NAA+NAAG                                            
   16.008   9%  16.828 Glu+Gln                                             
    7.610  10%   8.000 Cr+PCr                                              
   12.914   7%  13.576 NAA+NAAG                                            
    7.610  10%   8.000 Cr+PCr                                              
   16.008   9%  16.828 Glu+Gln                                             
   6 lines in following misc. output table
  FWHM = 0.033 ppm    S/N =   4                                            
  Data shift = 0.033 ppm                                                   
  Ph: 152 deg       0.0 deg/ppm                                            
  alphaB,S = 1.9E-01,   4.0E-01                                            
   19 spline knots.   Ns = 5(1)                                            
   1 inflections.     2 extrema                                            
  480 points on ppm-axis = NY
      4.100000     4.091866     4.083733     4.075600     4.067466     4.059333     4.051199     4.043066     4.034933     4.026799
      4.018666     4.010532     4.002399     3.994265     3.986132     3.977998     3.969864     3.961731     3.953597     3.945463
      3.937330     3.929196     3.921062     3.912929     3.904795     3.896662     3.888528     3.880394     3.872261     3.864127
      3.855993     3.847860     3.839726     3.831592     3.823459     3.815325     3.807191     3.799058     3.790924     3.782790
      3.774657     3.766523     3.758389     3.750256     3.742122     3.733989     3.725855     3.717721     3.709588     3.701454
      3.693320     3.685187     3.677053     3.668919     3.660786     3.652652     3.644518     3.636385     3.628251     3.620117
      3.611984     3.603850     3.595716     3.587583     3.579449     3.571316     3.563182     3.555048     3.546915     3.538781
      3.530647     3.522514     3.514380     3.506246     3.498113     3.489979     3.481845     3.473712     3.465578     3.457444
      3.449311     3.441177     3.433043     3.424910     3.416776     3.408643     3.400509     3.392375     3.384242     3.376108
      3.367974     3.359841     3.351707     3.343573     3.335440     3.327306     3.319172     3.311039     3.302905     3.294771
      3.286638     3.278504     3.270370     3.262237     3.254103     3.245970     3.237836     3.229702     3.221569     3.213435
      3.205301     3.197168     3.189034     3.180900     3.172767     3.164633     3.156499     3.148366     3.140232     3.132098
      3.123965     3.115831     3.107697     3.099564     3.091430     3.083297     3.075163     3.067029     3.058896     3.050762
      3.042628     3.034495     3.026361     3.018227     3.010094     3.001960     2.993826     2.985693     2.977559     2.969425
      2.961292     2.953158     2.945024     2.936891     2.928757     2.920624     2.912490     2.904356     2.896223     2.888089
      2.879955     2.871822     2.863688     2.855554     2.847421     2.839287     2.831153     2.823020     2.814886     2.806752
      2.798619     2.790485     2.782351     2.774218     2.766084     2.757951     2.749817     2.741683     2.733550     2.725416
      2.717282     2.709149     2.701015     2.692881     2.684748     2.676614     2.668480     2.660347     2.652213     2.644079
      2.635946     2.627812     2.619678     2.611545     2.603411     2.595278     2.587144     2.579010     2.570877     2.562743
      2.554609     2.546476     2.538342     2.530208     2.522075     2.513941     2.505807     2.497674     2.489540     2.481406
      2.473273     2.465139     2.457006     2.448872     2.440738     2.432605     2.424471     2.416337     2.408204     2.400070
      2.391936     2.383803     2.375669     2.367535     2.359402     2.351268     2.343134     2.335001     2.326867     2.318733
      2.310600     2.302466     2.294333     2.286199     2.278065     2.269932     2.261798     2.253664     2.245531     2.237397
      2.229263     2.221130     2.212996     2.204862     2.196729     2.188595     2.180461     2.172328     2.164194     2.156060
      2.147927     2.139793     2.131660     2.123526     2.115392     2.107259     2.099125     2.090991     2.082858     2.074724
      2.066590     2.058457     2.050323     2.042189     2.034056     2.025922     2.017788     2.009655     2.001521     1.993387
      1.985254     1.977120     1.968987     1.960853     1.952719     1.944586     1.936452     1.928318     1.920185     1.912051
      1.903917     1.895784     1.887650     1.879516     1.871383     1.863249     1.855115     1.846982     1.838848     1.830714
      1.822581     1.814447     1.806314     1.798180     1.790046     1.781913     1.773779     1.765645     1.757512     1.749378
      1.741244     1.733111     1.724977     1.716843     1.708710     1.700576     1.692442     1.684309     1.676175     1.668041
      1.659908     1.651774     1.643641     1.635507     1.627373     1.619240     1.611106     1.602972     1.594839     1.586705
      1.578571     1.570438     1.562304     1.554170     1.546037     1.537903     1.529769     1.521636     1.513502     1.505368
      1.497235     1.489101     1.480968     1.472834     1.464700     1.456567     1.448433     1.440299     1.432166     1.424032
      1.415898     1.407765     1.399631     1.391497     1.383364     1.375230     1.367096     1.358963     1.350829     1.342695
      1.334562     1.326428     1.318295     1.310161     1.302027     1.293894     1.285760     1.277626     1.269493     1.261359
      1.253225     1.245092     1.236958     1.228824     1.220691     1.212557     1.204423     1.196290     1.188156     1.180022
      1.171889     1.163755     1.155622     1.147488     1.139354     1.131221     1.123087     1.114953     1.106820     1.098686
      1.090552     1.082419     1.074285     1.066151     1.058018     1.049884     1.041750     1.033617     1.025483     1.017349
      1.009216     1.001082     0.992949     0.984815     0.976681     0.968548     0.960414     0.952280     0.944147     0.936013
      0.927879     0.919746     0.911612     0.903478     0.895345     0.887211     0.879077     0.870944     0.862810     0.854676
      0.846543     0.838409     0.830276     0.822142     0.814008     0.805875     0.797741     0.789607     0.781474     0.773340
      0.765206     0.757073     0.748939     0.740805     0.732672     0.724538     0.716404     0.708271     0.700137     0.692003
      0.683870     0.675736     0.667603     0.659469     0.651335     0.643202     0.635068     0.626934     0.618801     0.610667
      0.602533     0.594400     0.586266     0.578132     0.569999     0.561865     0.553731     0.545598     0.537464     0.529330
      0.521197     0.513063     0.504930     0.496796     0.488662     0.480529     0.472395     0.464261     0.456128     0.447994
      0.439861     0.431727     0.423593     0.415460     0.407326     0.399192     0.391059     0.382925     0.374792     0.366658
      0.358524     0.350391     0.342257     0.334124     0.325990     0.317856     0.309723     0.301589     0.293455     0.285322
      0.277188     0.269055     0.260921     0.252787     0.244654     0.236520     0.228386     0.220253     0.212119     0.203986
 NY phased data points follow
  -7.70139E+00 -2.23357E+01 -9.80069E+00 -1.42429E+01 -2.74991E+01 -1.97061E+01  3.09640E-01  8.93287E-01 -1.27609E+01 -1.71234E+01
  -2.11243E+01 -2.78799E+01 -3.20951E+01 -4.26444E+01 -2.49700E+01 -2.33745E+01 -4.12234E+01 -2.41014E+01 -4.94320E+01 -8.64150E+01
  -6.01758E+01 -4.94467E+01 -2.01634E+01  8.80006E+00  1.05707E+01  5.00357E+01  6.10197E+01  5.17300E+01  4.20236E+01  4.47613E+01
   5.13971E+01  5.52264E+01  4.29573E+01  2.08915E+01  4.28853E+01  4.23043E+01  3.85650E+01  2.28418E+01 -9.00863E+00 -1.82076E+01
  -2.17917E+01 -2.81793E+01 -3.36298E+01 -1.74320E+01  6.90412E+00  4.01632E+01  5.28577E+01  7.78363E+01  7.31352E+01  6.91176E+01
   9.57640E+01  6.41812E+01  7.41906E+01  7.27829E+01  4.05551E+01  4.23596E+01  4.64680E+01  3.48025E+01  1.12273E+01  1.89383E+01
   9.72831E+00  1.07071E+01  2.41377E+01  3.63507E+01  6.19057E+01  5.77320E+01  6.38339E+01  5.56007E+01  2.93727E+01  4.40716E+00
  -1.45330E+01  3.33502E-01  1.11345E+01  3.09873E+01  4.44413E+01  5.22413E+01  5.57767E+01  4.81281E+01  5.86634E+01  5.71533E+01
   6.76725E+01  4.95590E+01  1.57581E+01  1.09641E+01 -1.06055E+01 -2.09956E+00  1.44592E+01  2.59468E+01  4.38425E+01  3.43487E+01
   4.47160E+01  7.09482E+01  6.71657E+01  6.68180E+01  7.85479E+01  8.43655E+01  7.53862E+01  7.59763E+01  8.50159E+01  7.03104E+01
   6.81161E+01  5.89024E+01  5.53470E+01  3.88763E+01  3.43491E-01  2.62082E-02 -3.21368E+00 -1.28188E+01 -2.49641E+01 -6.06068E+01
  -1.43598E+02 -1.55947E+02 -9.42153E+01 -8.24985E+01 -5.60603E+01 -4.34302E+01 -1.93937E+01  1.36364E+00 -2.53083E+01 -6.95754E+00
   4.14481E+00  9.39845E+00  2.16952E+01  1.28743E+01  2.67475E+01  3.11874E+01  4.73823E+01  6.84449E+01  7.15477E+01  1.23644E+02
   1.56027E+02  1.17087E+02  3.46625E+01 -3.87151E+01 -6.18265E+01 -7.79260E+01 -8.77628E+01 -6.17537E+01 -5.83116E+01 -7.35945E+01
  -4.88897E+01 -6.44044E+01 -6.17866E+01 -4.44442E+01 -6.36943E+01 -3.83328E+01 -4.97250E+01 -4.93576E+01 -2.67103E+01 -6.11288E+01
  -4.71440E+01 -3.10709E+01 -4.32986E+01 -1.82979E+01 -3.13482E+01 -1.70100E+01  2.47737E+00 -2.14101E+01 -1.31175E+01 -2.80536E+01
  -9.67954E+00 -5.66657E+00 -1.57658E+01 -3.64945E+00 -1.19992E+01 -6.18521E+00 -2.43133E+01 -1.58285E+01 -2.92061E-02  7.50298E+00
   5.60472E+00  6.70896E+00  2.51507E+01  2.49602E+01  2.96458E+01  3.10891E+01  3.55263E+01  2.48503E+01  2.60579E+01  1.15489E+01
   1.43078E+00  2.41229E+00 -2.30521E+01 -2.88759E+01 -3.61775E+01 -2.83199E+01 -2.21390E+01 -2.25307E+01 -1.57873E+01 -7.51048E+00
  -1.56310E+01 -2.59450E+00  9.27422E+00 -3.38831E+00  3.32471E+00 -1.45040E+01 -2.98383E+00  4.15775E+00  8.17091E-01  6.78871E+00
   9.93739E+00  1.76619E+01  1.98382E+01  3.81544E+01  3.22254E+01  2.90502E+01  2.33180E+01  1.99475E+01  1.56842E+00 -1.04173E+01
  -1.25068E+01 -2.23651E+01 -9.76881E+00 -1.12980E+01  2.46349E+01  4.72344E+01  7.28578E+01  8.99647E+01  7.69170E+01  7.90827E+01
   5.32666E+01  3.48035E+01  8.38111E+00  1.14872E+01  2.09436E+01  2.12922E+01  1.65821E+01  5.47437E+00  3.48551E+01  1.66966E+01
   1.03506E+00  2.55158E+00 -4.85217E+00 -7.19191E+00 -3.82242E+01 -2.01447E+01 -2.59002E+01 -6.55004E+01 -6.11614E+01 -7.28485E+01
  -7.18132E+01 -5.64197E+01 -3.56684E+01 -3.07441E+01 -1.68592E+01  4.41138E+00  1.00095E+01  2.14150E+01 -5.00038E+00  3.54152E+00
  -4.70976E+00 -1.43328E+01 -1.05904E+01 -2.13429E+01 -2.39670E+01 -8.35650E+01 -7.31414E+01 -1.31191E+01  8.78397E+01  1.79355E+02
   2.08566E+02  2.20200E+02  1.63487E+02  1.50213E+02  1.52112E+02  1.28430E+02  1.20217E+02  1.24607E+02  1.18225E+02  1.14717E+02
   1.13876E+02  9.41123E+01  1.01950E+02  1.04928E+02  1.02943E+02  9.45595E+01  8.93050E+01  8.92267E+01  8.74739E+01  9.86334E+01
   1.09141E+02  8.77609E+01  8.09888E+01  9.48059E+01  8.91607E+01  1.00938E+02  8.38794E+01  9.24736E+01  8.24358E+01  6.64399E+01
   9.08279E+01  7.92237E+01  6.85383E+01  6.85926E+01  8.06854E+01  6.58444E+01  7.58817E+01  6.72353E+01  7.57001E+01  8.53350E+01
   6.44741E+01  1.03557E+02  9.44187E+01  9.63197E+01  9.18973E+01  9.29188E+01  9.35542E+01  8.96765E+01  9.90608E+01  9.55536E+01
   1.13598E+02  7.47234E+01  1.03345E+02  1.21037E+02  1.12148E+02  1.38824E+02  1.13750E+02  1.06747E+02  1.03822E+02  9.58167E+01
   8.17508E+01  8.21794E+01  7.13545E+01  6.37117E+01  6.27254E+01  5.67147E+01  5.47541E+01  2.60288E+01  7.05052E+00  6.45556E+00
   3.17793E+00 -3.64097E+01 -3.54458E+01 -5.20035E+01 -9.21471E+01 -7.90916E+01 -9.70794E+01 -9.66156E+01 -7.56496E+01 -7.46880E+01
  -7.19469E+01 -4.60908E+01 -3.86438E+01 -5.21727E+01 -3.48594E+01 -2.47307E+01 -2.33468E+01 -2.07456E+01 -2.43814E+01 -2.35342E+01
  -1.64059E+01 -2.89624E+01 -3.79379E+01 -7.17152E+00 -4.21920E+00 -2.56004E+01 -2.53263E+01 -3.69581E+01 -2.93158E+01 -2.50319E+01
  -2.02160E+01 -3.02490E+00 -1.86960E+01 -8.16448E-01  4.65282E+00 -4.90066E+00  1.24469E+01  1.57516E+01  7.14066E+00  1.65287E+01
   2.03646E+01  5.98074E+00  3.31729E+01  3.21305E+01  2.88993E+01  4.27597E+01  3.64454E+01  3.84642E+01  3.69774E+01  4.87048E+01
   5.31405E+01  6.07990E+01  7.66910E+01  7.32842E+01  6.81099E+01  1.02015E+02  1.09128E+02  1.14767E+02  1.29609E+02  1.11117E+02
   1.18712E+02  8.48064E+01  8.94775E+01  7.91378E+01  4.46519E+01  6.77708E+01  3.83118E+01  2.73830E+01  2.04400E+01  1.87297E+01
   1.80677E+01  7.02509E+00  1.69082E+00 -1.68929E+01 -1.03525E+01 -2.18526E+01 -2.83627E+01 -3.78400E+01 -3.90371E+01 -2.55455E+01
  -2.32768E+01 -2.37736E+01 -4.73953E+01 -2.65081E+01 -1.15663E+01 -4.45279E+01 -3.79922E+01 -2.32620E+01 -2.64025E+01 -2.34185E+01
  -2.89884E+01 -2.83617E+01 -3.19649E+01 -3.05181E+01 -2.06946E+01 -4.07575E+01 -3.32700E+01 -3.29016E+01 -4.94188E+01 -3.57302E+01
  -3.29423E+01 -2.06418E+01 -2.58856E+01 -2.96925E+01 -1.85554E+01 -2.75580E+01 -1.10906E+01 -1.23194E+01 -3.26971E+01 -3.77654E+01
  -4.09636E+01 -2.99496E+01 -2.18824E+01 -2.01650E+01 -1.62638E+01 -2.59138E+01 -2.78869E+01 -1.18222E+01 -1.85971E+01 -2.22251E+01
  -9.16527E+00 -1.33154E+01 -2.91264E+01 -3.21140E+01 -3.02992E+01 -2.45043E+01 -2.16100E+01 -3.63451E+01 -1.20363E+01 -9.99901E+00
  -1.20882E+01 -1.51569E+00 -2.78313E+01 -1.40690E+01 -1.55469E+01 -2.96653E+00  7.90317E-02 -3.26129E+01 -1.47461E+01 -3.27549E+00
  -8.63273E+00 -1.67494E+01 -7.16561E-01 -7.87322E+00 -2.55711E+01 -1.08715E+01 -9.58663E+00 -7.11812E+00 -2.24638E+01 -1.83175E+01
 NY points of the fit to the data follow
  -5.19532E+00 -1.03105E+01 -1.99080E+01 -3.00631E+01 -3.13919E+01 -2.03785E+01 -5.51266E+00  3.96225E+00  3.64140E+00 -3.17269E+00
  -1.24549E+01 -2.25862E+01 -2.97842E+01 -3.46212E+01 -3.70922E+01 -3.61488E+01 -3.31620E+01 -3.42883E+01 -4.16154E+01 -6.51263E+01
  -5.78191E+01 -4.43956E+01 -1.39960E+01  1.35437E+01  2.86374E+01  4.31509E+01  4.16404E+01  4.26410E+01  4.42147E+01  4.49635E+01
   4.59985E+01  4.59289E+01  4.50776E+01  4.29454E+01  3.94509E+01  3.54793E+01  3.14514E+01  2.56343E+01  1.24593E+01 -1.01055E+01
  -3.30321E+01 -4.52604E+01 -3.82424E+01 -1.78933E+01  1.19981E+01  3.81058E+01  5.62466E+01  6.45135E+01  6.54573E+01  6.43494E+01
   6.13000E+01  5.94116E+01  5.77606E+01  5.26033E+01  4.41284E+01  3.31039E+01  2.59946E+01  1.94264E+01  8.61222E+00  9.28349E+00
   1.05686E+01  1.41422E+01  2.25395E+01  3.12100E+01  4.66869E+01  5.77340E+01  6.29241E+01  5.87570E+01  3.47082E+01  1.29721E+01
   3.27627E+00  1.82219E+00  8.46969E+00  1.82701E+01  3.33473E+01  4.80212E+01  5.74571E+01  6.52892E+01  7.05579E+01  7.09933E+01
   6.41368E+01  5.15278E+01  2.55905E+01  9.09944E+00 -7.99587E+00 -5.13448E+00  5.60773E+00  2.07502E+01  3.72104E+01  4.55317E+01
   5.35947E+01  5.80903E+01  6.23475E+01  6.68181E+01  7.04645E+01  7.47582E+01  7.80989E+01  8.06276E+01  8.01736E+01  8.20908E+01
   8.86865E+01  8.24600E+01  7.28691E+01  5.22101E+01  2.36166E+01  1.02982E+01 -4.30130E+00  1.52462E+00 -2.77348E+01 -6.99587E+01
  -1.04663E+02 -1.18108E+02 -1.00377E+02 -8.04707E+01 -5.69777E+01 -4.11931E+01 -3.12820E+01 -2.29087E+01 -1.52803E+01 -8.07869E+00
  -1.39804E+00  5.54155E+00  1.26776E+01  2.07624E+01  3.05049E+01  4.26000E+01  5.57363E+01  6.80995E+01  9.02401E+01  1.20425E+02
   1.55718E+02  1.17467E+02  5.03229E+01 -2.92128E+01 -7.31087E+01 -7.87084E+01 -7.82152E+01 -6.29901E+01 -5.80803E+01 -5.71920E+01
  -5.67062E+01 -5.63677E+01 -5.59919E+01 -5.58522E+01 -5.55661E+01 -5.43475E+01 -5.24925E+01 -4.90253E+01 -4.52745E+01 -4.12165E+01
  -3.74236E+01 -3.47951E+01 -3.24433E+01 -3.02154E+01 -2.71584E+01 -2.38208E+01 -2.14727E+01 -1.99206E+01 -1.91657E+01 -1.76724E+01
  -1.50344E+01 -1.26620E+01 -1.21882E+01 -1.32523E+01 -1.39126E+01 -1.20269E+01 -9.46567E+00 -9.29901E+00 -1.20524E+01 -1.35498E+01
  -5.79321E+00  1.01649E+01  2.28988E+01  2.26779E+01  1.49572E+01  1.26421E+01  1.94759E+01  2.85460E+01  2.62098E+01  1.68621E+01
   3.40026E+00 -7.49346E+00 -1.39309E+01 -1.84613E+01 -1.97463E+01 -2.06367E+01 -2.07256E+01 -2.02276E+01 -1.91059E+01 -1.78161E+01
  -1.56281E+01 -1.57353E+01 -1.63125E+01 -9.08257E+00 -2.34736E+00  1.11741E+00  3.76564E+00  4.79452E+00  1.13488E+01  1.21560E+01
   1.13389E+01  1.66441E+01  2.35364E+01  3.35147E+01  3.63098E+01  3.55129E+01  3.03888E+01  2.02714E+01  8.93363E+00 -3.21452E+00
  -1.19096E+01 -1.92614E+01 -1.62886E+01 -1.30551E+01  1.40267E+01  3.61588E+01  6.15485E+01  7.73550E+01  7.56601E+01  7.08464E+01
   5.51308E+01  4.63536E+01  4.30923E+01  4.23762E+01  4.52076E+01  4.63966E+01  4.50304E+01  4.02107E+01  3.25973E+01  2.16545E+01
   9.50237E+00 -4.50684E+00 -1.72709E+01 -3.01719E+01 -4.21967E+01 -5.03090E+01 -5.75156E+01 -6.13305E+01 -6.16527E+01 -6.15277E+01
  -5.90971E+01 -5.15179E+01 -4.38330E+01 -2.63513E+01 -1.31863E+01 -8.43496E-01  7.08714E+00  2.79595E+00  2.75575E+00 -4.49146E+00
  -1.22507E+01 -2.28893E+01 -2.65895E+01 -1.91734E+01 -2.73104E+01 -8.19886E+01 -7.81020E+01 -1.77112E+01  8.44482E+01  1.64204E+02
   1.85592E+02  1.88666E+02  1.66995E+02  1.48720E+02  1.40651E+02  1.35278E+02  1.30145E+02  1.25508E+02  1.20718E+02  1.16965E+02
   1.14292E+02  1.12582E+02  1.12105E+02  1.11472E+02  1.11297E+02  1.10154E+02  1.08906E+02  1.07698E+02  1.06393E+02  1.05018E+02
   1.02852E+02  1.00363E+02  9.77227E+01  9.51909E+01  9.22640E+01  8.95287E+01  8.64565E+01  8.35607E+01  8.03490E+01  7.62227E+01
   7.18730E+01  6.67762E+01  6.12743E+01  5.54522E+01  5.01733E+01  4.65898E+01  4.54020E+01  4.61187E+01  4.82515E+01  5.06257E+01
   5.34787E+01  5.64104E+01  5.95747E+01  6.26704E+01  6.54317E+01  6.78455E+01  6.98100E+01  7.22018E+01  7.50515E+01  7.79728E+01
   8.06913E+01  8.26906E+01  8.46133E+01  8.64147E+01  8.80805E+01  8.93215E+01  9.03117E+01  9.01745E+01  8.91443E+01  8.96230E+01
   8.98535E+01  9.01601E+01  7.71118E+01  6.07391E+01  3.85704E+01  1.69730E+01  3.91644E+00 -6.01633E+00 -8.67387E+00 -1.37073E+01
  -2.05969E+01 -2.72885E+01 -3.45181E+01 -3.84476E+01 -3.88322E+01 -3.52514E+01 -2.97387E+01 -2.35209E+01 -1.82796E+01 -1.47777E+01
  -1.21306E+01 -1.06224E+01 -8.17427E+00 -5.62465E+00 -1.84387E+00  2.01166E+00  5.17889E+00  7.45378E+00  8.72855E+00  9.10010E+00
   8.31817E+00  6.21138E+00  2.20331E+00 -3.36635E+00 -1.02323E+01 -1.63168E+01 -2.09795E+01 -2.36054E+01 -2.40019E+01 -2.29685E+01
  -2.02199E+01 -1.67438E+01 -1.23082E+01 -7.76551E+00 -3.27373E+00  9.82786E-01  4.82111E+00  8.53581E+00  1.21276E+01  1.58489E+01
   1.94329E+01  2.30812E+01  2.68522E+01  3.05572E+01  3.49721E+01  3.97922E+01  4.52829E+01  5.13884E+01  5.86547E+01  6.63511E+01
   7.45386E+01  8.32191E+01  9.31903E+01  1.03715E+02  1.14460E+02  1.23934E+02  1.30884E+02  1.32396E+02  1.27372E+02  1.16260E+02
   1.01772E+02  8.72640E+01  7.39713E+01  6.39291E+01  5.57232E+01  4.87700E+01  4.03701E+01  3.05716E+01  1.92905E+01  7.00484E+00
  -4.32548E+00 -1.40178E+01 -2.14339E+01 -2.70214E+01 -3.12629E+01 -3.36410E+01 -3.52802E+01 -3.62723E+01 -3.71675E+01 -3.82935E+01
  -3.90303E+01 -3.96671E+01 -3.95495E+01 -3.96985E+01 -3.93691E+01 -3.88865E+01 -3.82469E+01 -3.80583E+01 -3.83229E+01 -3.76980E+01
  -3.71875E+01 -3.63824E+01 -3.61213E+01 -3.56788E+01 -3.50891E+01 -3.47957E+01 -3.45034E+01 -3.43188E+01 -3.34596E+01 -3.26626E+01
  -3.17278E+01 -3.13204E+01 -3.11241E+01 -3.11064E+01 -3.09459E+01 -3.03520E+01 -2.98464E+01 -2.89297E+01 -2.83688E+01 -2.75639E+01
  -2.70340E+01 -2.62867E+01 -2.56297E+01 -2.52890E+01 -2.53054E+01 -2.53291E+01 -2.49321E+01 -2.44083E+01 -2.36480E+01 -2.28596E+01
  -2.25065E+01 -2.22691E+01 -2.20743E+01 -2.14303E+01 -2.08036E+01 -1.99236E+01 -1.94633E+01 -1.87166E+01 -1.83566E+01 -1.75812E+01
  -1.71137E+01 -1.66638E+01 -1.64671E+01 -1.63950E+01 -1.61469E+01 -1.60372E+01 -1.52077E+01 -1.41855E+01 -1.28245E+01 -1.19332E+01
  -1.16581E+01 -1.17464E+01 -1.18685E+01 -1.14941E+01 -1.10406E+01 -1.04819E+01 -9.80234E+00 -9.30934E+00 -9.06389E+00 -8.84559E+00
 NY background values follow
     2.379E+01    2.378E+01    2.376E+01    2.375E+01    2.374E+01    2.373E+01    2.371E+01    2.370E+01    2.369E+01    2.368E+01
     2.367E+01    2.366E+01    2.364E+01    2.363E+01    2.362E+01    2.361E+01    2.359E+01    2.358E+01    2.357E+01    2.355E+01
     2.354E+01    2.352E+01    2.351E+01    2.349E+01    2.347E+01    2.346E+01    2.344E+01    2.342E+01    2.340E+01    2.338E+01
     2.336E+01    2.334E+01    2.331E+01    2.329E+01    2.326E+01    2.324E+01    2.321E+01    2.318E+01    2.315E+01    2.312E+01
     2.309E+01    2.306E+01    2.303E+01    2.299E+01    2.296E+01    2.292E+01    2.289E+01    2.285E+01    2.281E+01    2.277E+01
     2.272E+01    2.268E+01    2.264E+01    2.259E+01    2.254E+01    2.250E+01    2.245E+01    2.240E+01    2.235E+01    2.229E+01
     2.224E+01    2.218E+01    2.213E+01    2.207E+01    2.201E+01    2.195E+01    2.189E+01    2.183E+01    2.177E+01    2.171E+01
     2.165E+01    2.160E+01    2.154E+01    2.148E+01    2.142E+01    2.136E+01    2.131E+01    2.125E+01    2.120E+01    2.115E+01
     2.110E+01    2.105E+01    2.101E+01    2.096E+01    2.092E+01    2.088E+01    2.085E+01    2.081E+01    2.078E+01    2.076E+01
     2.073E+01    2.071E+01    2.069E+01    2.068E+01    2.067E+01    2.066E+01    2.066E+01    2.066E+01    2.066E+01    2.067E+01
     2.068E+01    2.070E+01    2.072E+01    2.074E+01    2.076E+01    2.079E+01    2.083E+01    2.086E+01    2.090E+01    2.095E+01
     2.099E+01    2.105E+01    2.110E+01    2.116E+01    2.122E+01    2.129E+01    2.136E+01    2.144E+01    2.152E+01    2.160E+01
     2.169E+01    2.178E+01    2.187E+01    2.197E+01    2.207E+01    2.218E+01    2.229E+01    2.240E+01    2.251E+01    2.263E+01
     2.275E+01    2.287E+01    2.300E+01    2.313E+01    2.326E+01    2.339E+01    2.353E+01    2.366E+01    2.380E+01    2.394E+01
     2.408E+01    2.423E+01    2.437E+01    2.452E+01    2.466E+01    2.481E+01    2.496E+01    2.510E+01    2.525E+01    2.540E+01
     2.555E+01    2.570E+01    2.585E+01    2.600E+01    2.615E+01    2.629E+01    2.644E+01    2.659E+01    2.674E+01    2.688E+01
     2.703E+01    2.717E+01    2.732E+01    2.746E+01    2.760E+01    2.774E+01    2.788E+01    2.802E+01    2.816E+01    2.829E+01
     2.843E+01    2.856E+01    2.869E+01    2.882E+01    2.895E+01    2.907E+01    2.919E+01    2.932E+01    2.943E+01    2.955E+01
     2.966E+01    2.978E+01    2.988E+01    2.999E+01    3.009E+01    3.020E+01    3.030E+01    3.039E+01    3.049E+01    3.058E+01
     3.067E+01    3.076E+01    3.084E+01    3.092E+01    3.100E+01    3.108E+01    3.116E+01    3.123E+01    3.130E+01    3.137E+01
     3.144E+01    3.150E+01    3.156E+01    3.162E+01    3.168E+01    3.174E+01    3.179E+01    3.184E+01    3.189E+01    3.194E+01
     3.198E+01    3.202E+01    3.207E+01    3.210E+01    3.214E+01    3.217E+01    3.220E+01    3.223E+01    3.225E+01    3.227E+01
     3.229E+01    3.230E+01    3.231E+01    3.232E+01    3.232E+01    3.232E+01    3.232E+01    3.231E+01    3.229E+01    3.228E+01
     3.225E+01    3.223E+01    3.219E+01    3.216E+01    3.212E+01    3.207E+01    3.202E+01    3.196E+01    3.190E+01    3.183E+01
     3.175E+01    3.167E+01    3.159E+01    3.149E+01    3.140E+01    3.129E+01    3.118E+01    3.106E+01    3.094E+01    3.081E+01
     3.068E+01    3.054E+01    3.039E+01    3.024E+01    3.008E+01    2.991E+01    2.974E+01    2.956E+01    2.937E+01    2.918E+01
     2.898E+01    2.877E+01    2.856E+01    2.834E+01    2.811E+01    2.788E+01    2.764E+01    2.739E+01    2.714E+01    2.687E+01
     2.661E+01    2.633E+01    2.605E+01    2.576E+01    2.546E+01    2.515E+01    2.484E+01    2.452E+01    2.419E+01    2.385E+01
     2.350E+01    2.315E+01    2.278E+01    2.241E+01    2.203E+01    2.164E+01    2.124E+01    2.083E+01    2.041E+01    1.998E+01
     1.954E+01    1.909E+01    1.863E+01    1.817E+01    1.769E+01    1.720E+01    1.669E+01    1.618E+01    1.566E+01    1.512E+01
     1.458E+01    1.402E+01    1.346E+01    1.288E+01    1.229E+01    1.170E+01    1.110E+01    1.049E+01    9.870E+00    9.247E+00
     8.618E+00    7.985E+00    7.346E+00    6.704E+00    6.058E+00    5.410E+00    4.759E+00    4.107E+00    3.454E+00    2.800E+00
     2.147E+00    1.494E+00    8.429E-01    1.935E-01   -4.533E-01   -1.097E+00   -1.737E+00   -2.373E+00   -3.004E+00   -3.629E+00
    -4.249E+00   -4.861E+00   -5.468E+00   -6.067E+00   -6.658E+00   -7.242E+00   -7.817E+00   -8.384E+00   -8.942E+00   -9.491E+00
    -1.003E+01   -1.056E+01   -1.108E+01   -1.159E+01   -1.208E+01   -1.257E+01   -1.305E+01   -1.351E+01   -1.396E+01   -1.440E+01
    -1.482E+01   -1.523E+01   -1.563E+01   -1.602E+01   -1.638E+01   -1.674E+01   -1.708E+01   -1.740E+01   -1.771E+01   -1.801E+01
    -1.828E+01   -1.854E+01   -1.879E+01   -1.901E+01   -1.923E+01   -1.943E+01   -1.961E+01   -1.978E+01   -1.993E+01   -2.007E+01
    -2.020E+01   -2.031E+01   -2.041E+01   -2.050E+01   -2.057E+01   -2.063E+01   -2.068E+01   -2.072E+01   -2.075E+01   -2.076E+01
    -2.077E+01   -2.076E+01   -2.075E+01   -2.072E+01   -2.068E+01   -2.064E+01   -2.058E+01   -2.052E+01   -2.045E+01   -2.037E+01
    -2.028E+01   -2.018E+01   -2.008E+01   -1.997E+01   -1.985E+01   -1.972E+01   -1.959E+01   -1.946E+01   -1.931E+01   -1.916E+01
    -1.901E+01   -1.885E+01   -1.868E+01   -1.852E+01   -1.834E+01   -1.817E+01   -1.799E+01   -1.780E+01   -1.761E+01   -1.742E+01
    -1.723E+01   -1.704E+01   -1.684E+01   -1.664E+01   -1.644E+01   -1.624E+01   -1.603E+01   -1.583E+01   -1.563E+01   -1.542E+01
    -1.522E+01   -1.501E+01   -1.481E+01   -1.461E+01   -1.440E+01   -1.420E+01   -1.400E+01   -1.379E+01   -1.359E+01   -1.339E+01
    -1.319E+01   -1.299E+01   -1.278E+01   -1.258E+01   -1.238E+01   -1.218E+01   -1.198E+01   -1.178E+01   -1.158E+01   -1.138E+01
    -1.118E+01   -1.098E+01   -1.078E+01   -1.059E+01   -1.039E+01   -1.019E+01   -9.994E+00   -9.797E+00   -9.602E+00   -9.406E+00
    -9.211E+00   -9.016E+00   -8.822E+00   -8.628E+00   -8.435E+00   -8.242E+00   -8.049E+00   -7.857E+00   -7.665E+00   -7.474E+00
    -7.283E+00   -7.092E+00   -6.901E+00   -6.711E+00   -6.521E+00   -6.332E+00   -6.142E+00   -5.953E+00   -5.764E+00   -5.576E+00
    -5.387E+00   -5.199E+00   -5.011E+00   -4.823E+00   -4.636E+00   -4.448E+00   -4.261E+00   -4.074E+00   -3.887E+00   -3.700E+00
 Mac      Conc. = 3.57E-04
  -1.47415E+00 -2.21017E+00 -2.59267E+00 -2.64173E+00 -2.78060E+00 -3.59800E+00 -5.22443E+00 -7.69207E+00 -1.01151E+01 -1.24578E+01
  -1.36305E+01 -1.43324E+01 -1.39446E+01 -1.36667E+01 -1.48843E+01 -1.77279E+01 -2.13392E+01 -2.10461E+01 -1.77084E+01 -1.23549E+01
  -6.29493E+00 -6.84173E-01  4.11523E+00  6.99213E+00  8.35021E+00  9.58420E+00  1.07496E+01  1.27542E+01  1.53512E+01  1.78945E+01
   2.02283E+01  2.20004E+01  2.36516E+01  2.42801E+01  2.37782E+01  2.26117E+01  2.22366E+01  2.40317E+01  2.73661E+01  3.04602E+01
   3.16804E+01  3.15406E+01  3.10699E+01  3.17249E+01  3.34450E+01  3.52407E+01  3.66048E+01  3.65654E+01  3.58923E+01  3.41630E+01
   3.21218E+01  3.02756E+01  2.87137E+01  2.77988E+01  2.67339E+01  2.60249E+01  2.58885E+01  2.69476E+01  2.82994E+01  2.99620E+01
   3.20684E+01  3.40970E+01  3.54592E+01  3.57422E+01  3.45729E+01  3.34955E+01  3.20366E+01  3.11717E+01  2.97839E+01  2.87112E+01
   2.94498E+01  3.19226E+01  3.53982E+01  3.84566E+01  4.05101E+01  4.15487E+01  4.13700E+01  4.04473E+01  3.93445E+01  3.82803E+01
   3.73515E+01  3.64390E+01  3.57195E+01  3.59785E+01  3.62558E+01  3.75093E+01  3.83768E+01  3.97287E+01  4.05194E+01  4.12479E+01
   4.18179E+01  4.23941E+01  4.27999E+01  4.33043E+01  4.28967E+01  4.16608E+01  3.92802E+01  3.59679E+01  3.24997E+01  2.94901E+01
   2.73166E+01  2.51750E+01  2.28387E+01  1.99659E+01  1.58814E+01  9.49998E+00  5.34621E-01 -8.90300E+00 -1.62700E+01 -2.04806E+01
