 LCModel (Version 6.3-1N) Copyright: S.W. Provencher.          Ref.: Magn. Reson. Med. 30:672-679 (1993).                
 Slice_N1@12_9  28-Feb-2025 11:37:19
 27 lines in following concentration table = NCONC+1
    Conc.  %SD /Cr+PCr  Metabolite                                         
 1.72E-04  18% 1.0E-04 Mac                                                 
   13.266  17%   8.000 Cr                                                  
    0.000 999%   0.000 PCr                                                 
    6.734  46%   4.061 Ins                                                 
    9.529  30%   5.747 NAA                                                 
   20.587  23%  12.415 Tau                                                 
    0.000 999%   0.000 PCho                                                
    0.153 683% 9.3E-02 GPC                                                 
   21.414  15%  12.914 Glu                                                 
    0.000 999%   0.000 Gln                                                 
    0.000 999%   0.000 Ala                                                 
    0.000 999%   0.000 Asc                                                 
    3.024  57%   1.824 Asp                                                 
    0.000 999%   0.000 GABA                                                
    0.619 177%   0.373 Glc                                                 
    0.000 999%   0.000 GSH                                                 
   29.421   8%  17.743 Lac                                                 
    4.387  60%   2.645 NAAG                                                
    9.941  44%   5.995 PE                                                  
    0.153 683% 9.3E-02 GPC+PCho                                            
   13.916  16%   8.392 NAA+NAAG                                            
   21.414  15%  12.914 Glu+Gln                                             
   13.266  17%   8.000 Cr+PCr                                              
   13.916  16%   8.392 NAA+NAAG                                            
   13.266  17%   8.000 Cr+PCr                                              
   21.414  15%  12.914 Glu+Gln                                             
   6 lines in following misc. output table
  FWHM = 0.138 ppm    S/N =   2                                            
  Data shift =-0.008 ppm                                                   
  Ph: 114 deg       0.0 deg/ppm                                            
  alphaB,S = 9.6E-02,   1.7E+02                                            
   18 spline knots.   Ns =11(1)                                            
  (15) 4 infls.   (13) 1 extrs.                                            
  480 points on ppm-axis = NY
      4.100000     4.091866     4.083733     4.075600     4.067466     4.059333     4.051199     4.043066     4.034933     4.026799
      4.018666     4.010532     4.002399     3.994265     3.986132     3.977998     3.969864     3.961731     3.953597     3.945463
      3.937330     3.929196     3.921062     3.912929     3.904795     3.896662     3.888528     3.880394     3.872261     3.864127
      3.855993     3.847860     3.839726     3.831592     3.823459     3.815325     3.807191     3.799058     3.790924     3.782790
      3.774657     3.766523     3.758389     3.750256     3.742122     3.733989     3.725855     3.717721     3.709588     3.701454
      3.693320     3.685187     3.677053     3.668919     3.660786     3.652652     3.644518     3.636385     3.628251     3.620117
      3.611984     3.603850     3.595716     3.587583     3.579449     3.571316     3.563182     3.555048     3.546915     3.538781
      3.530647     3.522514     3.514380     3.506246     3.498113     3.489979     3.481845     3.473712     3.465578     3.457444
      3.449311     3.441177     3.433043     3.424910     3.416776     3.408643     3.400509     3.392375     3.384242     3.376108
      3.367974     3.359841     3.351707     3.343573     3.335440     3.327306     3.319172     3.311039     3.302905     3.294771
      3.286638     3.278504     3.270370     3.262237     3.254103     3.245970     3.237836     3.229702     3.221569     3.213435
      3.205301     3.197168     3.189034     3.180900     3.172767     3.164633     3.156499     3.148366     3.140232     3.132098
      3.123965     3.115831     3.107697     3.099564     3.091430     3.083297     3.075163     3.067029     3.058896     3.050762
      3.042628     3.034495     3.026361     3.018227     3.010094     3.001960     2.993826     2.985693     2.977559     2.969425
      2.961292     2.953158     2.945024     2.936891     2.928757     2.920624     2.912490     2.904356     2.896223     2.888089
      2.879955     2.871822     2.863688     2.855554     2.847421     2.839287     2.831153     2.823020     2.814886     2.806752
      2.798619     2.790485     2.782351     2.774218     2.766084     2.757951     2.749817     2.741683     2.733550     2.725416
      2.717282     2.709149     2.701015     2.692881     2.684748     2.676614     2.668480     2.660347     2.652213     2.644079
      2.635946     2.627812     2.619678     2.611545     2.603411     2.595278     2.587144     2.579010     2.570877     2.562743
      2.554609     2.546476     2.538342     2.530208     2.522075     2.513941     2.505807     2.497674     2.489540     2.481406
      2.473273     2.465139     2.457006     2.448872     2.440738     2.432605     2.424471     2.416337     2.408204     2.400070
      2.391936     2.383803     2.375669     2.367535     2.359402     2.351268     2.343134     2.335001     2.326867     2.318733
      2.310600     2.302466     2.294333     2.286199     2.278065     2.269932     2.261798     2.253664     2.245531     2.237397
      2.229263     2.221130     2.212996     2.204862     2.196729     2.188595     2.180461     2.172328     2.164194     2.156060
      2.147927     2.139793     2.131660     2.123526     2.115392     2.107259     2.099125     2.090991     2.082858     2.074724
      2.066590     2.058457     2.050323     2.042189     2.034056     2.025922     2.017788     2.009655     2.001521     1.993387
      1.985254     1.977120     1.968987     1.960853     1.952719     1.944586     1.936452     1.928318     1.920185     1.912051
      1.903917     1.895784     1.887650     1.879516     1.871383     1.863249     1.855115     1.846982     1.838848     1.830714
      1.822581     1.814447     1.806314     1.798180     1.790046     1.781913     1.773779     1.765645     1.757512     1.749378
      1.741244     1.733111     1.724977     1.716843     1.708710     1.700576     1.692442     1.684309     1.676175     1.668041
      1.659908     1.651774     1.643641     1.635507     1.627373     1.619240     1.611106     1.602972     1.594839     1.586705
      1.578571     1.570438     1.562304     1.554170     1.546037     1.537903     1.529769     1.521636     1.513502     1.505368
      1.497235     1.489101     1.480968     1.472834     1.464700     1.456567     1.448433     1.440299     1.432166     1.424032
      1.415898     1.407765     1.399631     1.391497     1.383364     1.375230     1.367096     1.358963     1.350829     1.342695
      1.334562     1.326428     1.318295     1.310161     1.302027     1.293894     1.285760     1.277626     1.269493     1.261359
      1.253225     1.245092     1.236958     1.228824     1.220691     1.212557     1.204423     1.196290     1.188156     1.180022
      1.171889     1.163755     1.155622     1.147488     1.139354     1.131221     1.123087     1.114953     1.106820     1.098686
      1.090552     1.082419     1.074285     1.066151     1.058018     1.049884     1.041750     1.033617     1.025483     1.017349
      1.009216     1.001082     0.992949     0.984815     0.976681     0.968548     0.960414     0.952280     0.944147     0.936013
      0.927879     0.919746     0.911612     0.903478     0.895345     0.887211     0.879077     0.870944     0.862810     0.854676
      0.846543     0.838409     0.830276     0.822142     0.814008     0.805875     0.797741     0.789607     0.781474     0.773340
      0.765206     0.757073     0.748939     0.740805     0.732672     0.724538     0.716404     0.708271     0.700137     0.692003
      0.683870     0.675736     0.667603     0.659469     0.651335     0.643202     0.635068     0.626934     0.618801     0.610667
      0.602533     0.594400     0.586266     0.578132     0.569999     0.561865     0.553731     0.545598     0.537464     0.529330
      0.521197     0.513063     0.504930     0.496796     0.488662     0.480529     0.472395     0.464261     0.456128     0.447994
      0.439861     0.431727     0.423593     0.415460     0.407326     0.399192     0.391059     0.382925     0.374792     0.366658
      0.358524     0.350391     0.342257     0.334124     0.325990     0.317856     0.309723     0.301589     0.293455     0.285322
      0.277188     0.269055     0.260921     0.252787     0.244654     0.236520     0.228386     0.220253     0.212119     0.203986
 NY phased data points follow
  -1.54150E+02 -1.54048E+02 -1.68615E+02 -1.58779E+02 -1.47351E+02 -1.56442E+02 -1.61065E+02 -1.58491E+02 -1.60050E+02 -1.57505E+02
  -1.59195E+02 -1.55470E+02 -1.64819E+02 -1.62392E+02 -1.38104E+02 -1.68205E+02 -1.84707E+02 -1.71614E+02 -1.60557E+02 -1.74867E+02
  -1.80652E+02 -1.60774E+02 -1.55975E+02 -1.38526E+02 -1.24136E+02 -1.20171E+02 -1.30689E+02 -1.08906E+02 -9.69469E+01 -1.06184E+02
  -8.01336E+01 -8.32733E+01 -1.14327E+02 -1.03590E+02 -7.61046E+01 -9.59810E+01 -8.97221E+01 -9.87647E+01 -1.07058E+02 -9.38296E+01
  -1.22407E+02 -1.14147E+02 -9.79588E+01 -9.55309E+01 -1.13019E+02 -1.07206E+02 -7.91700E+01 -7.40038E+01 -6.97660E+01 -6.96191E+01
  -6.32706E+01 -7.54676E+01 -6.77377E+01 -6.23130E+01 -8.86017E+01 -9.05269E+01 -6.83527E+01 -8.60382E+01 -9.11814E+01 -6.25053E+01
  -8.96607E+01 -9.79624E+01 -9.92514E+01 -8.63565E+01 -5.92110E+01 -7.98755E+01 -6.82365E+01 -6.58128E+01 -9.79918E+01 -8.25257E+01
  -7.74403E+01 -9.95422E+01 -8.51979E+01 -7.28718E+01 -7.34498E+01 -8.13601E+01 -7.00071E+01 -7.09912E+01 -8.75590E+01 -7.23582E+01
  -7.92576E+01 -9.56432E+01 -9.33062E+01 -6.98102E+01 -7.75795E+01 -8.63264E+01 -9.28327E+01 -1.05053E+02 -8.01002E+01 -8.45190E+01
  -1.06397E+02 -1.06185E+02 -7.34980E+01 -7.80726E+01 -6.77066E+01 -5.93190E+01 -8.30650E+01 -6.92526E+01 -9.90182E+01 -9.49558E+01
  -8.02128E+01 -9.84050E+01 -1.12784E+02 -1.21098E+02 -1.25103E+02 -1.28002E+02 -1.26960E+02 -1.54809E+02 -1.56930E+02 -1.79944E+02
  -1.92655E+02 -1.91914E+02 -1.97570E+02 -1.81950E+02 -1.81566E+02 -1.58356E+02 -1.58572E+02 -1.59821E+02 -1.45582E+02 -1.30301E+02
  -1.16573E+02 -1.19143E+02 -1.03667E+02 -9.07967E+01 -1.05799E+02 -1.02817E+02 -8.60848E+01 -9.24989E+01 -8.05374E+01 -8.16362E+01
  -7.98982E+01 -8.23260E+01 -8.28317E+01 -9.96820E+01 -1.38738E+02 -1.37569E+02 -1.71670E+02 -1.66608E+02 -1.52383E+02 -1.71728E+02
  -1.82192E+02 -1.85936E+02 -1.77715E+02 -1.84095E+02 -1.60046E+02 -1.59907E+02 -1.62396E+02 -1.47509E+02 -1.53071E+02 -1.62519E+02
  -1.38713E+02 -1.28087E+02 -1.38085E+02 -1.15151E+02 -1.33091E+02 -1.23216E+02 -1.23141E+02 -1.24848E+02 -1.04713E+02 -1.27351E+02
  -1.10251E+02 -9.89866E+01 -9.91705E+01 -8.84148E+01 -9.75818E+01 -1.05494E+02 -8.76695E+01 -8.82065E+01 -9.34816E+01 -9.40168E+01
  -8.98103E+01 -7.54465E+01 -9.16194E+01 -8.44758E+01 -8.46073E+01 -6.72390E+01 -6.56832E+01 -9.26131E+01 -9.42445E+01 -9.84616E+01
  -9.56465E+01 -1.18670E+02 -1.06324E+02 -1.07849E+02 -1.24652E+02 -1.22203E+02 -1.23343E+02 -1.19426E+02 -1.26020E+02 -1.15896E+02
  -1.19277E+02 -1.08581E+02 -1.20388E+02 -1.13148E+02 -1.11654E+02 -1.13866E+02 -8.29374E+01 -1.04739E+02 -7.65882E+01 -9.61462E+01
  -1.11770E+02 -8.36029E+01 -1.11039E+02 -1.02184E+02 -9.73270E+01 -1.10041E+02 -1.22662E+02 -1.22092E+02 -1.30987E+02 -1.24270E+02
  -1.20014E+02 -1.15131E+02 -9.49764E+01 -1.07929E+02 -8.69874E+01 -8.03149E+01 -6.13195E+01 -4.82901E+01 -5.33206E+01 -4.10698E+01
  -4.92933E+01 -4.38449E+01 -6.33587E+01 -5.41798E+01 -4.41257E+01 -5.55544E+01 -5.72138E+01 -7.21140E+01 -6.46983E+01 -6.50955E+01
  -6.61665E+01 -6.15735E+01 -6.87428E+01 -9.60839E+01 -9.61367E+01 -9.33348E+01 -1.03389E+02 -1.09174E+02 -1.33619E+02 -1.02284E+02
  -1.13953E+02 -1.49811E+02 -1.34570E+02 -1.39597E+02 -1.19131E+02 -1.00124E+02 -1.17335E+02 -1.32105E+02 -1.20947E+02 -1.02838E+02
  -1.04610E+02 -1.17236E+02 -1.08186E+02 -1.03236E+02 -9.46261E+01 -7.88981E+01 -8.34803E+01 -5.19422E+01 -2.75840E+01  1.80861E+00
   1.88039E+01  3.35857E+01  6.23077E+01  5.41360E+01  9.96188E+01  8.77195E+01  4.84413E+01  5.70261E+01  4.46715E+01  4.93470E+01
   3.37438E+01  3.78778E+01  2.63401E+01 -1.36848E+00  1.23461E+01  2.40652E+01  2.17595E+01 -1.84900E+00  1.10882E+01  1.80018E+01
   8.32257E+00  1.60561E+01 -3.07357E+00 -2.13516E+01 -4.18584E+01 -4.35295E+01 -2.84517E+01 -2.77717E+01 -4.95589E+01 -7.02952E+01
  -4.62287E+01 -6.37522E+01 -8.31115E+01 -5.82738E+01 -6.51187E+01 -8.08056E+01 -8.12580E+01 -6.77576E+01 -8.06926E+01 -9.71301E+01
  -7.83781E+01 -6.79442E+01 -8.46163E+01 -8.05386E+01 -6.28568E+01 -6.21794E+01 -5.24764E+01 -6.24088E+01 -4.43661E+01 -3.73408E+01
  -4.34243E+01 -3.29097E+01 -4.62913E+01 -2.70759E+01 -4.93129E+01 -5.01765E+01 -2.63002E+01 -3.93490E+00  3.26032E+01  2.79711E+01
   6.33514E+01  7.13592E+01  1.25711E+02  1.76804E+02  1.67697E+02  2.00724E+02  1.85035E+02  2.04024E+02  2.01583E+02  1.57645E+02
   1.32365E+02  8.63725E+01  6.84724E+01  4.75938E+01  3.04020E+01 -1.29122E+00 -1.43509E+01 -4.12894E+00 -2.06661E+01 -1.85728E+01
  -3.40753E+01 -4.31706E+01 -3.37723E+01 -5.90348E+01 -5.08509E+01 -3.19509E+01 -6.48878E+01 -6.07945E+01 -5.18596E+01 -5.76875E+01
  -3.64148E+01 -5.42913E+01 -6.61229E+01 -5.43967E+01 -5.55047E+01 -5.05707E+01 -4.62647E+01 -5.92959E+01 -5.92207E+01 -4.92134E+01
  -6.12146E+01 -5.05183E+01 -5.40400E+01 -4.83251E+01 -2.05118E+01 -2.59680E+01 -3.12256E+01 -2.85373E+01 -8.02629E+00 -1.38609E+01
  -1.65514E+01  2.64654E+00 -6.80267E+00 -1.68837E+01 -7.18268E+00  3.59156E+00 -6.42448E+00  1.04871E+01  1.08382E+00 -2.32774E+01
   5.21037E+00  1.20922E+01  5.17931E+00  2.55886E+01  3.45832E+01  1.57634E+01  2.16434E+01  3.41798E+01  3.24038E+01  2.16813E+01
   2.67733E+01  2.89742E+01  6.27591E+00  1.60406E+01 -9.33269E+00 -3.15574E+01 -2.34193E+01 -4.30710E+01 -3.82962E+01 -3.93385E+01
  -6.76778E+01 -7.41875E+01 -6.61329E+01 -7.07997E+01 -7.67296E+01 -8.46306E+01 -7.23086E+01 -8.46160E+01 -1.11926E+02 -9.02142E+01
  -9.73467E+01 -1.02447E+02 -8.67027E+01 -8.92487E+01 -9.67757E+01 -1.07009E+02 -9.66630E+01 -8.52351E+01 -8.27529E+01 -9.44701E+01
  -1.00132E+02 -8.59234E+01 -1.07826E+02 -1.05458E+02 -7.91703E+01 -9.23960E+01 -8.76528E+01 -9.03394E+01 -9.79818E+01 -8.68196E+01
  -9.14125E+01 -9.32061E+01 -7.84989E+01 -7.29663E+01 -6.77299E+01 -7.68583E+01 -1.00571E+02 -7.32524E+01 -8.28506E+01 -7.90582E+01
  -6.99336E+01 -8.95292E+01 -5.67907E+01 -8.83710E+01 -7.85211E+01 -7.15509E+01 -8.94305E+01 -6.16630E+01 -7.21906E+01 -5.07814E+01
  -6.00342E+01 -6.48630E+01 -6.62532E+01 -7.51643E+01 -6.33835E+01 -6.91915E+01 -4.82609E+01 -6.23900E+01 -8.33336E+01 -8.16703E+01
  -7.71411E+01 -6.35042E+01 -5.75826E+01 -6.85961E+01 -6.70889E+01 -4.63676E+01 -6.16637E+01 -7.37359E+01 -6.31399E+01 -6.81192E+01
  -7.16266E+01 -6.45396E+01 -8.05739E+01 -6.91424E+01 -4.05710E+01 -4.79330E+01 -6.03546E+01 -5.08870E+01 -4.23133E+01 -6.78093E+01
 NY points of the fit to the data follow
  -1.65381E+02 -1.62027E+02 -1.59846E+02 -1.58747E+02 -1.58204E+02 -1.57636E+02 -1.56758E+02 -1.55669E+02 -1.54749E+02 -1.54777E+02
  -1.56345E+02 -1.60516E+02 -1.67036E+02 -1.72004E+02 -1.73621E+02 -1.71808E+02 -1.67685E+02 -1.62525E+02 -1.57162E+02 -1.51903E+02
  -1.46779E+02 -1.41619E+02 -1.36106E+02 -1.30029E+02 -1.23459E+02 -1.16748E+02 -1.10332E+02 -1.04569E+02 -9.95688E+01 -9.53836E+01
  -9.22534E+01 -9.03696E+01 -8.99258E+01 -9.07549E+01 -9.27482E+01 -9.57201E+01 -9.88210E+01 -1.00756E+02 -1.01809E+02 -1.02448E+02
  -1.02955E+02 -1.03376E+02 -1.03574E+02 -1.03353E+02 -1.02575E+02 -1.01369E+02 -9.97186E+01 -9.76379E+01 -9.57423E+01 -9.40689E+01
  -9.22498E+01 -9.04456E+01 -8.85649E+01 -8.64257E+01 -8.41678E+01 -8.20643E+01 -8.04017E+01 -7.92719E+01 -7.90861E+01 -8.00101E+01
  -8.13744E+01 -8.26782E+01 -8.37627E+01 -8.42934E+01 -8.39749E+01 -8.27570E+01 -8.07716E+01 -7.81875E+01 -7.51652E+01 -7.18244E+01
  -6.86331E+01 -6.63518E+01 -6.59987E+01 -6.86572E+01 -7.35727E+01 -8.04132E+01 -8.74555E+01 -9.33190E+01 -9.75196E+01 -1.00243E+02
  -1.02009E+02 -1.03455E+02 -1.05167E+02 -1.07198E+02 -1.09056E+02 -1.10327E+02 -1.10595E+02 -1.09418E+02 -1.06645E+02 -1.02341E+02
  -9.63103E+01 -8.84511E+01 -7.98329E+01 -7.11609E+01 -6.38333E+01 -5.91297E+01 -5.73163E+01 -5.88536E+01 -6.33282E+01 -7.04815E+01
  -7.94157E+01 -8.92060E+01 -9.92476E+01 -1.09291E+02 -1.19296E+02 -1.29246E+02 -1.39046E+02 -1.48473E+02 -1.57188E+02 -1.64806E+02
  -1.70903E+02 -1.75123E+02 -1.77233E+02 -1.76978E+02 -1.74173E+02 -1.69006E+02 -1.61984E+02 -1.53234E+02 -1.43030E+02 -1.31043E+02
  -1.15795E+02 -9.94356E+01 -8.73797E+01 -8.13677E+01 -8.04278E+01 -8.24467E+01 -8.55540E+01 -8.86172E+01 -9.12954E+01 -9.38895E+01
  -9.70500E+01 -1.01403E+02 -1.07231E+02 -1.14368E+02 -1.22279E+02 -1.30299E+02 -1.37911E+02 -1.44794E+02 -1.50894E+02 -1.56284E+02
  -1.60914E+02 -1.64605E+02 -1.66886E+02 -1.66857E+02 -1.63837E+02 -1.59220E+02 -1.54977E+02 -1.51236E+02 -1.47916E+02 -1.44862E+02
  -1.41878E+02 -1.38918E+02 -1.36121E+02 -1.33605E+02 -1.31375E+02 -1.29302E+02 -1.27318E+02 -1.25441E+02 -1.23718E+02 -1.22086E+02
  -1.20253E+02 -1.17817E+02 -1.14937E+02 -1.12137E+02 -1.09720E+02 -1.07696E+02 -1.05617E+02 -1.03218E+02 -1.00799E+02 -9.86572E+01
  -9.69915E+01 -9.58753E+01 -9.52397E+01 -9.49495E+01 -9.48754E+01 -9.49938E+01 -9.53653E+01 -9.60382E+01 -9.70645E+01 -9.83984E+01
  -9.99330E+01 -1.01746E+02 -1.03825E+02 -1.05789E+02 -1.07132E+02 -1.07828E+02 -1.08162E+02 -1.08157E+02 -1.07827E+02 -1.07215E+02
  -1.06433E+02 -1.05539E+02 -1.04600E+02 -1.03726E+02 -1.03045E+02 -1.02640E+02 -1.02551E+02 -1.02814E+02 -1.03501E+02 -1.04722E+02
  -1.06557E+02 -1.09172E+02 -1.12641E+02 -1.16164E+02 -1.19492E+02 -1.21587E+02 -1.21127E+02 -1.18496E+02 -1.13403E+02 -1.06863E+02
  -9.99999E+01 -9.33536E+01 -8.71146E+01 -8.11432E+01 -7.52274E+01 -6.91411E+01 -6.29057E+01 -5.68109E+01 -5.12683E+01 -4.67053E+01
  -4.34577E+01 -4.18058E+01 -4.16718E+01 -4.30513E+01 -4.59095E+01 -4.99474E+01 -5.52274E+01 -6.13837E+01 -6.83124E+01 -7.54529E+01
  -8.24169E+01 -8.93094E+01 -9.54539E+01 -1.01055E+02 -1.05958E+02 -1.10168E+02 -1.13567E+02 -1.16160E+02 -1.18225E+02 -1.20108E+02
  -1.21894E+02 -1.24471E+02 -1.27277E+02 -1.28949E+02 -1.29370E+02 -1.30126E+02 -1.31943E+02 -1.31729E+02 -1.28149E+02 -1.21437E+02
  -1.12768E+02 -1.03149E+02 -9.33357E+01 -8.37070E+01 -7.43223E+01 -6.50600E+01 -5.56756E+01 -4.60959E+01 -3.63503E+01 -2.67287E+01
  -1.75186E+01 -9.06608E+00 -1.64461E+00  4.54477E+00  9.40965E+00  1.26428E+01  1.47759E+01  1.61961E+01  1.64197E+01  1.47711E+01
   1.17207E+01  8.86772E+00  6.36295E+00  4.19085E+00  2.30179E+00  6.37577E-01 -8.63303E-01 -2.23988E+00 -3.54011E+00 -4.80485E+00
  -6.06772E+00 -7.33205E+00 -8.59005E+00 -9.80307E+00 -1.09434E+01 -1.19949E+01 -1.29326E+01 -1.37389E+01 -1.43767E+01 -1.48308E+01
  -1.50794E+01 -1.51067E+01 -1.48954E+01 -1.44285E+01 -1.36904E+01 -1.26770E+01 -1.13915E+01 -9.85664E+00 -8.09562E+00 -6.13159E+00
  -3.99512E+00 -1.72292E+00  6.46603E-01  3.07572E+00  5.51617E+00  7.92734E+00  1.02892E+01  1.25851E+01  1.47961E+01  1.69107E+01
   1.89156E+01  2.08125E+01  2.25793E+01  2.41716E+01  2.55479E+01  2.66955E+01  2.76318E+01  2.84058E+01  2.91085E+01  2.98500E+01
   3.07783E+01  3.20584E+01  3.38721E+01  3.64185E+01  3.99374E+01  4.47853E+01  5.15602E+01  6.11982E+01  7.16786E+01  7.88196E+01
   8.14362E+01  7.62088E+01  6.48848E+01  5.10299E+01  3.76122E+01  2.60725E+01  1.63308E+01  7.36932E+00 -2.07960E+00 -1.29537E+01
  -2.55455E+01 -3.93964E+01 -5.35868E+01 -6.71443E+01 -7.92457E+01 -8.94844E+01 -9.77335E+01 -1.03914E+02 -1.07954E+02 -1.09439E+02
  -1.07657E+02 -1.02267E+02 -9.44420E+01 -8.57203E+01 -7.69332E+01 -7.00082E+01 -6.43538E+01 -5.94967E+01 -5.51582E+01 -5.11626E+01
  -4.74020E+01 -4.37888E+01 -4.02865E+01 -3.68737E+01 -3.35273E+01 -3.02199E+01 -2.69421E+01 -2.36762E+01 -2.03921E+01 -1.70630E+01
  -1.36707E+01 -1.02150E+01 -6.73469E+00 -3.29445E+00 -2.25507E-02  2.94944E+00  5.50795E+00  7.60353E+00  9.23073E+00  1.04022E+01
   1.11423E+01  1.14522E+01  1.12907E+01  1.05901E+01  9.29830E+00  7.37929E+00  4.83438E+00  1.71962E+00 -1.86417E+00 -5.82261E+00
  -1.00579E+01 -1.44758E+01 -1.89793E+01 -2.34857E+01 -2.79164E+01 -3.21997E+01 -3.62770E+01 -4.00999E+01 -4.36484E+01 -4.69207E+01
  -4.99302E+01 -5.26759E+01 -5.51570E+01 -5.73782E+01 -5.93484E+01 -6.10722E+01 -6.25571E+01 -6.38340E+01 -6.49354E+01 -6.58986E+01
  -6.67464E+01 -6.75019E+01 -6.81831E+01 -6.88083E+01 -6.93773E+01 -6.98884E+01 -7.03421E+01 -7.07483E+01 -7.11204E+01 -7.14664E+01
  -7.17971E+01 -7.21039E+01 -7.23835E+01 -7.26339E+01 -7.28555E+01 -7.30479E+01 -7.32144E+01 -7.33611E+01 -7.34904E+01 -7.36048E+01
  -7.37012E+01 -7.37892E+01 -7.38665E+01 -7.39246E+01 -7.39636E+01 -7.39840E+01 -7.39878E+01 -7.39841E+01 -7.39710E+01 -7.39453E+01
  -7.39034E+01 -7.38466E+01 -7.37733E+01 -7.36892E+01 -7.35953E+01 -7.34916E+01 -7.33736E+01 -7.32456E+01 -7.31116E+01 -7.29736E+01
  -7.28316E+01 -7.26859E+01 -7.25330E+01 -7.23708E+01 -7.21908E+01 -7.19989E+01 -7.17999E+01 -7.16077E+01 -7.14295E+01 -7.12625E+01
  -7.11014E+01 -7.09482E+01 -7.07972E+01 -7.06445E+01 -7.04961E+01 -7.03629E+01 -7.02402E+01 -7.01317E+01 -7.00255E+01 -6.99135E+01
  -6.97856E+01 -6.96448E+01 -6.94935E+01 -6.93314E+01 -6.91607E+01 -6.89883E+01 -6.88091E+01 -6.86048E+01 -6.83531E+01 -6.80452E+01
 NY background values follow
    -1.501E+02   -1.496E+02   -1.491E+02   -1.486E+02   -1.481E+02   -1.476E+02   -1.471E+02   -1.466E+02   -1.461E+02   -1.456E+02
    -1.451E+02   -1.446E+02   -1.441E+02   -1.436E+02   -1.431E+02   -1.425E+02   -1.420E+02   -1.415E+02   -1.410E+02   -1.405E+02
    -1.400E+02   -1.395E+02   -1.390E+02   -1.385E+02   -1.380E+02   -1.375E+02   -1.370E+02   -1.365E+02   -1.360E+02   -1.355E+02
    -1.350E+02   -1.345E+02   -1.340E+02   -1.335E+02   -1.330E+02   -1.325E+02   -1.320E+02   -1.315E+02   -1.310E+02   -1.306E+02
    -1.301E+02   -1.296E+02   -1.291E+02   -1.287E+02   -1.282E+02   -1.278E+02   -1.273E+02   -1.269E+02   -1.264E+02   -1.260E+02
    -1.255E+02   -1.251E+02   -1.247E+02   -1.243E+02   -1.239E+02   -1.235E+02   -1.231E+02   -1.227E+02   -1.223E+02   -1.220E+02
    -1.216E+02   -1.212E+02   -1.209E+02   -1.205E+02   -1.202E+02   -1.199E+02   -1.196E+02   -1.193E+02   -1.190E+02   -1.187E+02
    -1.184E+02   -1.181E+02   -1.179E+02   -1.176E+02   -1.174E+02   -1.171E+02   -1.169E+02   -1.166E+02   -1.164E+02   -1.162E+02
    -1.159E+02   -1.157E+02   -1.155E+02   -1.153E+02   -1.150E+02   -1.148E+02   -1.146E+02   -1.144E+02   -1.142E+02   -1.140E+02
    -1.137E+02   -1.135E+02   -1.133E+02   -1.131E+02   -1.129E+02   -1.127E+02   -1.124E+02   -1.122E+02   -1.120E+02   -1.118E+02
    -1.115E+02   -1.113E+02   -1.110E+02   -1.108E+02   -1.106E+02   -1.103E+02   -1.100E+02   -1.098E+02   -1.095E+02   -1.093E+02
    -1.090E+02   -1.087E+02   -1.084E+02   -1.081E+02   -1.078E+02   -1.075E+02   -1.072E+02   -1.069E+02   -1.065E+02   -1.062E+02
    -1.059E+02   -1.055E+02   -1.052E+02   -1.048E+02   -1.044E+02   -1.041E+02   -1.037E+02   -1.033E+02   -1.029E+02   -1.024E+02
    -1.020E+02   -1.016E+02   -1.011E+02   -1.007E+02   -1.002E+02   -9.979E+01   -9.932E+01   -9.885E+01   -9.838E+01   -9.790E+01
    -9.741E+01   -9.693E+01   -9.644E+01   -9.595E+01   -9.545E+01   -9.496E+01   -9.446E+01   -9.397E+01   -9.347E+01   -9.298E+01
    -9.248E+01   -9.199E+01   -9.150E+01   -9.101E+01   -9.053E+01   -9.005E+01   -8.957E+01   -8.910E+01   -8.863E+01   -8.817E+01
    -8.772E+01   -8.727E+01   -8.682E+01   -8.639E+01   -8.596E+01   -8.553E+01   -8.511E+01   -8.470E+01   -8.429E+01   -8.389E+01
    -8.350E+01   -8.311E+01   -8.272E+01   -8.235E+01   -8.197E+01   -8.161E+01   -8.124E+01   -8.089E+01   -8.054E+01   -8.019E+01
    -7.985E+01   -7.951E+01   -7.918E+01   -7.886E+01   -7.854E+01   -7.822E+01   -7.791E+01   -7.760E+01   -7.730E+01   -7.701E+01
    -7.671E+01   -7.643E+01   -7.614E+01   -7.586E+01   -7.559E+01   -7.532E+01   -7.505E+01   -7.479E+01   -7.454E+01   -7.428E+01
    -7.403E+01   -7.379E+01   -7.355E+01   -7.332E+01   -7.308E+01   -7.286E+01   -7.263E+01   -7.241E+01   -7.220E+01   -7.199E+01
    -7.178E+01   -7.158E+01   -7.138E+01   -7.118E+01   -7.099E+01   -7.081E+01   -7.062E+01   -7.045E+01   -7.027E+01   -7.010E+01
    -6.993E+01   -6.977E+01   -6.961E+01   -6.945E+01   -6.930E+01   -6.915E+01   -6.901E+01   -6.887E+01   -6.873E+01   -6.861E+01
    -6.848E+01   -6.837E+01   -6.826E+01   -6.816E+01   -6.806E+01   -6.797E+01   -6.789E+01   -6.782E+01   -6.776E+01   -6.771E+01
    -6.767E+01   -6.764E+01   -6.762E+01   -6.761E+01   -6.761E+01   -6.762E+01   -6.765E+01   -6.769E+01   -6.774E+01   -6.781E+01
    -6.789E+01   -6.798E+01   -6.809E+01   -6.821E+01   -6.835E+01   -6.850E+01   -6.867E+01   -6.886E+01   -6.906E+01   -6.927E+01
    -6.949E+01   -6.972E+01   -6.996E+01   -7.019E+01   -7.044E+01   -7.068E+01   -7.092E+01   -7.115E+01   -7.139E+01   -7.161E+01
    -7.183E+01   -7.203E+01   -7.222E+01   -7.240E+01   -7.256E+01   -7.270E+01   -7.282E+01   -7.292E+01   -7.300E+01   -7.305E+01
    -7.307E+01   -7.306E+01   -7.302E+01   -7.295E+01   -7.284E+01   -7.270E+01   -7.251E+01   -7.229E+01   -7.202E+01   -7.171E+01
    -7.136E+01   -7.097E+01   -7.054E+01   -7.007E+01   -6.956E+01   -6.902E+01   -6.845E+01   -6.784E+01   -6.721E+01   -6.654E+01
    -6.585E+01   -6.513E+01   -6.438E+01   -6.361E+01   -6.281E+01   -6.200E+01   -6.116E+01   -6.030E+01   -5.943E+01   -5.854E+01
    -5.763E+01   -5.671E+01   -5.578E+01   -5.484E+01   -5.389E+01   -5.292E+01   -5.196E+01   -5.098E+01   -5.000E+01   -4.902E+01
    -4.803E+01   -4.705E+01   -4.606E+01   -4.508E+01   -4.410E+01   -4.313E+01   -4.216E+01   -4.121E+01   -4.026E+01   -3.932E+01
    -3.840E+01   -3.749E+01   -3.660E+01   -3.572E+01   -3.486E+01   -3.402E+01   -3.321E+01   -3.242E+01   -3.165E+01   -3.091E+01
    -3.019E+01   -2.951E+01   -2.885E+01   -2.823E+01   -2.764E+01   -2.709E+01   -2.658E+01   -2.610E+01   -2.566E+01   -2.526E+01
    -2.491E+01   -2.460E+01   -2.433E+01   -2.411E+01   -2.393E+01   -2.380E+01   -2.371E+01   -2.366E+01   -2.365E+01   -2.368E+01
    -2.375E+01   -2.386E+01   -2.400E+01   -2.418E+01   -2.439E+01   -2.464E+01   -2.492E+01   -2.522E+01   -2.556E+01   -2.593E+01
    -2.633E+01   -2.676E+01   -2.721E+01   -2.769E+01   -2.819E+01   -2.871E+01   -2.926E+01   -2.983E+01   -3.042E+01   -3.103E+01
    -3.165E+01   -3.230E+01   -3.296E+01   -3.364E+01   -3.433E+01   -3.503E+01   -3.575E+01   -3.648E+01   -3.722E+01   -3.796E+01
    -3.872E+01   -3.948E+01   -4.024E+01   -4.101E+01   -4.178E+01   -4.255E+01   -4.332E+01   -4.409E+01   -4.486E+01   -4.562E+01
    -4.638E+01   -4.713E+01   -4.787E+01   -4.861E+01   -4.933E+01   -5.005E+01   -5.075E+01   -5.143E+01   -5.211E+01   -5.276E+01
    -5.340E+01   -5.402E+01   -5.462E+01   -5.520E+01   -5.575E+01   -5.629E+01   -5.679E+01   -5.728E+01   -5.774E+01   -5.817E+01
    -5.858E+01   -5.897E+01   -5.933E+01   -5.968E+01   -6.000E+01   -6.029E+01   -6.057E+01   -6.082E+01   -6.106E+01   -6.127E+01
    -6.147E+01   -6.164E+01   -6.179E+01   -6.193E+01   -6.205E+01   -6.215E+01   -6.223E+01   -6.229E+01   -6.234E+01   -6.236E+01
    -6.238E+01   -6.237E+01   -6.235E+01   -6.232E+01   -6.227E+01   -6.220E+01   -6.213E+01   -6.203E+01   -6.193E+01   -6.181E+01
    -6.167E+01   -6.153E+01   -6.137E+01   -6.121E+01   -6.103E+01   -6.084E+01   -6.064E+01   -6.044E+01   -6.022E+01   -6.000E+01
    -5.977E+01   -5.953E+01   -5.929E+01   -5.904E+01   -5.878E+01   -5.852E+01   -5.826E+01   -5.799E+01   -5.772E+01   -5.744E+01
    -5.717E+01   -5.689E+01   -5.661E+01   -5.633E+01   -5.604E+01   -5.576E+01   -5.548E+01   -5.520E+01   -5.492E+01   -5.465E+01
 Mac      Conc. = 1.72E-04
  -1.63885E+02 -1.63886E+02 -1.63949E+02 -1.64043E+02 -1.64079E+02 -1.64005E+02 -1.63795E+02 -1.63426E+02 -1.62904E+02 -1.62261E+02
  -1.61530E+02 -1.60720E+02 -1.59826E+02 -1.58832E+02 -1.57710E+02 -1.56451E+02 -1.55072E+02 -1.53603E+02 -1.52073E+02 -1.50514E+02
  -1.48958E+02 -1.47434E+02 -1.45950E+02 -1.44487E+02 -1.43026E+02 -1.41580E+02 -1.40195E+02 -1.38893E+02 -1.37669E+02 -1.36518E+02
  -1.35408E+02 -1.34312E+02 -1.33225E+02 -1.32159E+02 -1.31135E+02 -1.30174E+02 -1.29294E+02 -1.28494E+02 -1.27766E+02 -1.27098E+02
  -1.26479E+02 -1.25905E+02 -1.25367E+02 -1.24855E+02 -1.24362E+02 -1.23900E+02 -1.23456E+02 -1.23001E+02 -1.22526E+02 -1.22039E+02
  -1.21565E+02 -1.21122E+02 -1.20704E+02 -1.20294E+02 -1.19877E+02 -1.19453E+02 -1.19008E+02 -1.18507E+02 -1.17935E+02 -1.17300E+02
  -1.16618E+02 -1.15922E+02 -1.15236E+02 -1.14586E+02 -1.13988E+02 -1.13440E+02 -1.12932E+02 -1.12448E+02 -1.11982E+02 -1.11523E+02
  -1.11055E+02 -1.10570E+02 -1.10076E+02 -1.09574E+02 -1.09075E+02 -1.08590E+02 -1.08118E+02 -1.07662E+02 -1.07230E+02 -1.06824E+02
  -1.06439E+02 -1.06077E+02 -1.05749E+02 -1.05472E+02 -1.05257E+02 -1.05110E+02 -1.05019E+02 -1.04991E+02 -1.05040E+02 -1.05181E+02
  -1.05443E+02 -1.05864E+02 -1.06503E+02 -1.07388E+02 -1.08500E+02 -1.09775E+02 -1.11129E+02 -1.12487E+02 -1.13792E+02 -1.15012E+02
  -1.16136E+02 -1.17163E+02 -1.18081E+02 -1.18863E+02 -1.19477E+02 -1.19903E+02 -1.20115E+02 -1.20101E+02 -1.19846E+02 -1.19333E+02
