 
 $NMID
 ID=''
 FMTDAT='(2E13.5)'
 TRAMP=   1.00000E+0
 VOLUME=   1.00000E+0
 $END
   1.17977E+4   1.44879E+4
   1.46418E+4  -1.15803E+3
   7.86164E+2  -1.31601E+4
  -5.18908E+3   7.51028E+3
   3.01077E+3   7.97792E+3
  -8.64316E+2  -7.93713E+3
  -2.42535E+3  -1.65370E+3
   5.14464E+3   4.37479E+3
  -3.52810E+2  -1.03025E+3
  -5.41717E+3   2.80585E+3
   1.32697E+3   2.18999E+3
   3.16185E+2  -4.12764E+3
  -3.91138E+3   6.63004E+2
  -8.29808E+2   2.18449E+3
   6.21041E+0  -4.76848E+3
  -1.57971E+2  -1.98649E+3
   2.87239E+3   3.18024E+3
   3.53520E+2  -4.79183E+0
  -7.96017E+2  -1.02882E+3
   2.32940E+3   1.30498E+3
  -1.73678E+2   3.15807E+2
  -1.80930E+3  -2.86432E+2
   2.13861E+3   5.41806E+2
   1.07365E+3   1.09446E+3
  -2.19275E+3  -7.25372E+1
   5.74552E+2  -1.62038E+3
   2.14757E+3  -2.13705E+0
  -1.23217E+3   2.59160E+3
  -1.95632E+3  -4.54263E+2
   1.77271E+2  -2.77599E+3
   1.48984E+3   4.89381E+2
   1.78672E+1   1.93863E+3
  -2.17826E+3   5.64778E+1
  -1.43272E+3  -1.31048E+3
   1.05379E+3  -2.02401E+3
   1.73926E+3  -8.49309E+2
   7.21082E+2   1.67202E+3
  -4.16274E+2   1.07930E+3
  -2.06285E+2  -3.57917E+2
   1.23365E+2   4.03541E+2
  -1.31240E+3   5.26399E+2
  -1.31688E+3  -9.93634E+2
   6.50968E+2  -1.15379E+3
   1.00798E+3  -2.09593E+2
  -3.03887E+2  -3.27484E+2
   6.89800E+2   3.89060E+2
   7.21886E+2   1.63464E+3
  -1.42980E+3   1.68033E+3
  -1.90654E+3  -5.08796E+2
   1.68333E+2  -1.35785E+3
   6.82434E+2  -7.34300E+1
   1.46651E+2   1.25542E+2
   2.65725E+2  -6.12620E+2
   9.80464E+2   8.12246E+1
   6.79328E+2   7.37910E+2
  -1.71265E+2   4.74245E+2
  -7.43185E+2  -3.33353E+1
  -5.26539E+2  -6.37473E+2
   5.03580E+2  -7.48136E+2
   7.69383E+2  -3.38992E+2
   3.85319E+2  -9.21473E+1
   7.84644E+2   4.55424E+2
   3.60632E+2   9.98426E+2
  -7.65773E+2   1.30265E+3
  -1.15782E+3   1.00665E+2
  -8.43832E+2  -7.97706E+2
   1.78608E+1  -7.19171E+2
   3.67982E+1  -7.65050E+2
   3.23304E+2  -6.54370E+2
   8.02918E+2   1.48453E+2
  -5.33344E+1   3.01665E+2
  -3.04441E+2  -3.24503E+2
   2.17253E+2  -7.67719E+2
   7.60319E+2   2.44209E+2
   8.87696E+1   6.66025E+2
  -5.22512E+2  -1.57489E+2
  -1.36076E+2  -5.44753E+2
   2.35728E+2   2.07317E+1
   2.55533E+1   5.93401E+2
  -5.72720E+2  -1.42794E+2
  -1.67522E+2  -1.74701E+2
  -4.39052E+1  -9.55655E+1
   2.31697E+2   1.01105E+2
  -4.69584E+2  -1.71831E+2
  -2.72784E+2  -4.16867E+2
   5.17873E+1  -4.03964E+2
   3.64505E+2  -2.06908E+2
  -1.91325E+1  -7.21387E+1
  -1.91222E+2   1.35825E+2
   1.99334E+2   2.11591E+2
   3.63866E+2  -4.58594E+1
   1.56398E+2   2.65622E+1
  -6.56252E+1   5.00695E+2
  -1.45144E+2   5.12951E+2
  -6.39238E+2   9.37140E+1
   6.48150E+1  -6.61378E+2
   2.98152E+2  -2.02614E+2
   2.92938E+2   3.53289E+2
  -5.90751E+1   1.89810E+2
   1.57975E+2  -4.85843E+2
   5.30201E+2  -9.81789E+1
   2.06436E+2   5.77490E+2
  -4.71319E+2   5.37606E+2
  -4.15930E+2  -3.07559E+2
   7.38321E+1  -5.87881E+2
   2.99738E+2   2.44459E+2
   2.63073E+2   2.55870E+2
  -1.31002E+2   1.37787E+2
  -6.32917E+2   2.71507E+1
   9.18227E+1  -1.81777E+2
   2.42762E+2  -2.35632E+2
   6.03965E+2   5.17405E+1
   1.52586E+2   2.96448E+2
  -9.65403E+1   3.55084E+2
   1.90077E+2   1.26752E+2
  -9.65792E+0   7.19357E+1
  -7.33519E+1   3.56135E+2
  -5.76079E+2   8.70417E+0
  -2.22774E+2  -5.19272E+2
   6.56016E+1  -6.50063E+2
   3.26365E+2   8.38788E+1
   2.19415E+2   1.89156E+2
   5.50155E+1   1.94292E+2
   1.62605E+2   1.66605E+2
  -3.15931E+2   4.16451E+2
  -3.49935E+2   1.63452E+2
   6.99534E+1   1.47071E+0
   8.77585E+1  -6.42323E+1
   2.24776E+1   2.29191E+1
   2.69686E+2   1.05077E+2
  -1.22630E+2   2.97649E+2
  -2.37626E+2   3.97380E+2
  -1.96565E+2  -6.47568E+0
  -6.08660E+1  -2.37576E+1
  -1.51860E+2  -1.27371E+2
  -7.09109E+1  -3.64077E+1
   1.17286E+2   1.41181E+1
   1.71020E+2   8.48465E+1
   3.57081E+0   1.76992E+2
   1.50921E+2   2.68112E+2
  -9.16705E+1  -3.40879E+0
  -1.04333E+2   1.94022E+1
   2.96333E+2  -2.35305E+2
   3.57021E+2   5.83107E-1
   1.15868E+2   2.21305E+2
  -9.16768E+1   2.85611E+2
   1.00811E+2  -3.95454E+1
  -6.06239E-1  -5.21483E+1
  -4.86176E+1   1.63610E+2
   1.78667E+2  -2.43803E+1
   1.07717E+2  -1.42561E+2
   2.61082E+2  -1.03614E+2
   4.96938E+1  -5.39804E+1
   1.95820E+2   1.42825E+2
  -7.06019E+0   1.64371E+2
   6.20576E+1   6.36168E+1
   2.49795E+2  -7.19756E+1
   2.19694E+2  -1.09392E+2
   4.63039E+0   5.47950E+0
   1.28930E+2  -9.27547E+1
  -1.33261E+1   2.18366E+2
   1.37859E+2  -4.50167E+1
   1.19592E+1  -2.91491E+1
  -2.70386E+1   2.97661E+1
  -7.09289E+1   4.99894E+1
   4.61695E+1  -3.03433E+2
   1.40414E+2  -5.87283E+1
  -9.13449E+1  -1.72120E+1
  -2.63410E+2   9.49020E+1
   1.98931E+1  -2.86311E+2
  -1.33514E+2  -2.38073E+2
   5.81372E+1   1.78726E+2
   3.60571E+1   4.78584E+1
  -2.63179E+2  -1.68162E+2
  -2.79795E+2  -1.45885E+2
   7.47680E+1  -1.90527E+2
  -2.90228E+1   9.06371E+1
  -5.36986E-1  -1.78934E+1
  -3.66016E+2  -7.74138E+1
  -8.49760E+1  -1.41953E+2
   1.20670E+2  -1.05312E+2
  -2.99030E+1   2.32534E+2
  -6.15171E+1  -1.94993E+2
   1.46068E+2  -3.20291E+2
  -1.60102E+2  -2.46831E+2
   2.31746E+0  -1.20168E+2
  -6.02860E+1  -7.05422E+1
  -2.55110E+2   6.58766E+1
  -3.02768E+1   2.11731E+0
   1.54686E+2  -3.93296E+2
  -4.95037E+1   2.19566E+2
  -2.79118E+2  -1.24823E+2
  -2.41945E+2   8.05903E+0
  -2.09031E+2   5.25278E+1
  -1.91088E+2  -2.23408E+1
  -8.57824E+1   2.57919E+1
   3.49796E+1  -5.93903E+1
   1.00297E+2  -1.38094E+2
   8.93525E+1  -2.21630E+2
   9.87757E+1   7.23930E+1
  -8.92877E+1   2.83072E+1
  -1.06129E+2  -1.36708E+2
  -1.40076E+2  -8.82221E+1
  -1.20082E+2   1.49338E+2
   1.98308E+2  -8.22288E+1
   5.26093E+1   1.57199E+2
  -4.44077E+2  -1.13061E+1
  -1.74621E+2  -1.63298E+1
  -1.41076E+2   2.39278E+2
  -6.82079E+1   2.72393E+2
  -1.97026E+2   9.09088E+1
   1.82343E+2  -5.98690E+1
   1.59439E+2   2.18948E+2
   1.66926E+2   1.42788E+2
  -3.45478E+1   1.46167E+2
  -1.65744E+2   1.20351E+2
   2.54984E+1   2.69354E+2
   1.84044E+2   6.62075E+1
  -3.60494E+1   2.66262E+2
   2.56541E+2   6.74184E+1
  -4.23959E+1   1.14950E+1
  -1.60769E+2  -2.69294E+1
   1.93830E+2  -1.00190E+2
  -7.05127E+1  -4.85084E+1
   1.88864E+1   1.12030E+2
  -1.83109E+2  -8.92057E+1
  -1.87271E+2   7.14737E+1
  -4.03070E+1   8.45408E+1
   6.24703E+1   1.84557E+2
   4.12617E+1  -1.54568E+2
  -6.78887E+1   4.34736E+1
  -4.12617E+1   2.97332E+1
   8.27320E+1  -7.34678E+1
  -1.52532E+2   2.01293E+0
  -1.05716E+2   2.15887E+2
  -2.36993E+2   1.35372E+2
   4.61662E+1  -6.55691E+1
  -4.11707E+1   1.55773E+2
  -3.68949E+1   3.43133E+1
  -2.30727E+2  -3.82393E+0
  -2.32944E+1   2.40097E+1
   2.50066E+2   3.56451E+1
  -1.38794E+2  -2.47596E+1
   1.70663E+1   7.69973E+1
   1.60037E+2   2.60954E+1
   6.82242E+1   9.55684E+1
  -9.32237E+1   9.58651E+1
   9.35412E+1  -7.89578E+1
   6.99110E+1  -8.44467E+1
  -3.17863E+1  -2.92841E+1
   8.40563E+1  -1.94327E+2
   4.67897E+1  -5.68277E-2
  -4.37905E+1   1.01181E+2
  -1.58806E+2  -1.24902E+2
  -3.01745E+1  -2.24183E+2
  -2.64917E+2   1.78660E+2
  -6.90967E+1  -7.88042E+1
  -6.94566E+1  -1.32554E+2
   6.10774E+1  -7.91736E+0
   2.13559E+2  -1.91515E+1
   5.61019E+1   1.24468E+2
  -1.50532E+1  -1.88103E+1
  -7.85728E+1   3.89023E+1
   9.28842E+0  -1.21546E+2
  -3.86800E+1  -4.45804E+1
  -1.12476E+2   7.64164E+1
   1.96030E+2  -1.69498E+2
   1.99358E+1   5.65433E+1
  -2.73763E+1  -2.19577E+2
   1.70446E+2   7.22274E+1
  -7.50595E+1  -1.40269E+2
   8.12735E+1   1.43613E+2
   2.40355E+1   3.29107E+1
   2.11777E+2  -2.40090E+2
   9.34960E+1   5.81658E+1
  -1.14722E+1   1.34581E+2
  -1.49436E+1  -9.54532E+1
   1.75491E+1   8.59504E+1
   6.74055E+1  -2.59608E+2
  -1.40780E+2   2.53163E+1
  -1.18965E+2  -1.13180E+2
   4.01407E+1  -7.79995E+1
   1.18617E+2  -5.42906E-1
   1.35372E+2   2.88825E+1
   5.81372E+1   4.07751E+1
  -1.12197E+1  -1.52271E+2
   1.65533E+2   1.58499E+2
  -3.50554E+1   1.04468E+2
  -1.25225E+2  -2.10379E+1
  -4.13483E+1  -7.79802E+1
  -1.13206E+1   3.01360E+0
  -1.55391E+2  -1.92056E+2
  -1.03906E+2   1.54454E+2
   1.42874E+1  -1.30787E+2
   8.09453E+1  -2.76771E+2
  -3.33619E+1   6.83288E+1
   2.17758E+1   4.78130E+1
  -4.24500E+1   8.54900E+1
  -1.45179E+2  -5.52865E+1
   9.68700E+1  -6.86379E+0
   3.06360E+1   3.78620E+1
   7.14751E+1   1.98168E+2
   1.67779E+1   1.64038E+2
   7.28487E+1  -6.05534E+1
   2.25019E+1  -2.70523E+0
  -2.70436E+1  -2.16343E+2
  -3.22016E+1   2.40156E+2
   8.02866E+1  -6.02319E+1
   1.25687E+2  -4.10358E+0
   8.88915E+0   9.78530E+1
   1.07571E+2   1.33758E+1
  -9.85910E+1   1.89409E+2
   1.49280E+2   9.51045E+1
   7.04998E+1   6.17878E+1
   1.26858E+2  -9.06671E+1
  -1.62337E+1   1.75480E+2
   8.70615E+1   3.74055E+1
  -4.09681E+1  -2.74926E+1
  -3.33649E+1  -5.96893E+1
  -1.65659E+2  -1.78588E+2
   1.57405E+1   7.23376E+1
   7.49708E+1   6.65518E+1
  -9.44261E+1  -8.99954E+1
   3.46856E+2  -3.68556E+1
   4.28471E+0  -2.79541E+2
  -4.88751E+1  -3.55273E+0
   1.46319E+1   1.15922E+2
  -4.25954E+1  -1.02385E+2
   1.89547E+2  -1.06705E+2
  -3.08837E+1  -1.43911E+2
   2.02779E+1  -2.52421E+1
   4.58013E+0  -2.12453E+2
  -8.14909E+1  -3.28224E+1
  -8.83189E+1   2.67956E+1
  -3.83807E+2   8.95627E+1
  -1.25534E+2   3.16986E+1
   1.04496E+2  -4.07099E+1
  -2.22353E+2  -1.03511E+2
   1.60192E+2  -4.16835E+1
   8.69897E+1  -6.05693E+1
   1.55109E+2  -8.51047E+1
  -2.67348E+2   7.74883E+1
  -1.19565E+2   1.14567E+2
  -1.21842E+2  -7.84813E+1
   2.08437E+2   9.21738E+1
  -1.33832E+2   1.16569E+1
  -6.86484E+1  -4.47875E+1
  -6.55430E+0  -1.33282E+1
  -1.42250E+2   1.01299E+2
   2.25216E+2  -5.46029E+1
  -1.95754E+2   1.57662E+2
  -8.97174E+1   5.07244E+1
   4.51763E+1  -4.55627E-1
  -2.06311E+1  -2.06816E+2
  -2.20248E+1  -1.35702E+2
  -5.25086E+1  -2.09458E+1
   9.27376E-1  -1.26350E+2
   2.79712E+2  -9.04417E+1
  -4.59175E+1   6.55359E+1
  -3.14511E+2  -3.37187E+2
  -2.95150E+2  -1.51395E+2
  -4.28928E+1  -8.78368E+1
   2.06053E+2  -1.95875E+2
  -2.25714E+2   1.67306E+1
  -1.83669E+2   1.06727E+2
   2.81489E+1   1.79069E+2
  -7.87100E+1   1.90428E+2
