 
 $NMID
 ID=''
 FMTDAT='(2E13.5)'
 TRAMP=   1.00000E+0
 VOLUME=   1.00000E+0
 $END
   7.49791E+5   5.70287E+4
   1.83497E+6   8.16704E+5
   1.83317E+6   6.14350E+5
   1.67928E+6   7.19068E+5
   1.76909E+6   7.86560E+5
   1.75606E+6   6.84607E+5
   1.67873E+6   7.18364E+5
   1.72254E+6   7.74104E+5
   1.69936E+6   7.40427E+5
   1.63415E+6   7.90726E+5
   1.64913E+6   8.33799E+5
   1.61907E+6   8.16194E+5
   1.56896E+6   8.57423E+5
   1.56969E+6   8.96478E+5
   1.52863E+6   8.98006E+5
   1.48298E+6   9.34345E+5
   1.48655E+6   9.62515E+5
   1.45723E+6   9.61459E+5
   1.42051E+6   9.84073E+5
   1.42016E+6   9.91894E+5
   1.39201E+6   9.92247E+5
   1.35991E+6   1.01679E+6
   1.35019E+6   1.02924E+6
   1.32044E+6   1.03244E+6
   1.28611E+6   1.05454E+6
   1.27187E+6   1.06134E+6
   1.23960E+6   1.07239E+6
   1.20377E+6   1.09861E+6
   1.17729E+6   1.10885E+6
   1.14763E+6   1.11231E+6
   1.12164E+6   1.13015E+6
   1.10012E+6   1.13432E+6
   1.07056E+6   1.13548E+6
   1.04798E+6   1.14507E+6
   1.03020E+6   1.14374E+6
   1.00933E+6   1.14077E+6
   9.92179E+5   1.14770E+6
   9.71992E+5   1.15073E+6
   9.43208E+5   1.15118E+6
   9.19631E+5   1.15671E+6
   8.95661E+5   1.15940E+6
   8.66863E+5   1.16078E+6
   8.41192E+5   1.16336E+6
   8.17135E+5   1.16536E+6
   7.88133E+5   1.16772E+6
   7.62707E+5   1.17186E+6
   7.37171E+5   1.17285E+6
   7.08886E+5   1.17286E+6
   6.84666E+5   1.16989E+6
   6.63608E+5   1.16691E+6
   6.40900E+5   1.16516E+6
   6.18403E+5   1.16382E+6
   5.97132E+5   1.16034E+6
   5.74510E+5   1.15834E+6
   5.51060E+5   1.15570E+6
   5.26843E+5   1.15220E+6
   5.01286E+5   1.14852E+6
   4.77441E+5   1.14377E+6
   4.55099E+5   1.13815E+6
   4.32291E+5   1.13412E+6
   4.09425E+5   1.13036E+6
   3.86672E+5   1.12456E+6
   3.64225E+5   1.11954E+6
   3.41729E+5   1.11326E+6
   3.20101E+5   1.10498E+6
   2.99632E+5   1.09599E+6
   2.79842E+5   1.08800E+6
   2.60198E+5   1.07973E+6
   2.40449E+5   1.07271E+6
   2.18813E+5   1.06608E+6
   1.97657E+5   1.05691E+6
   1.77670E+5   1.04697E+6
   1.59118E+5   1.03857E+6
   1.39237E+5   1.03050E+6
   1.18620E+5   1.02071E+6
   9.99085E+4   1.00977E+6
   8.25696E+4   1.00051E+6
   6.38764E+4   9.90703E+5
   4.57353E+4   9.79531E+5
   2.84347E+4   9.68401E+5
   1.13576E+4   9.56944E+5
  -5.41930E+3   9.45913E+5
  -2.21246E+4   9.34936E+5
  -3.95031E+4   9.23196E+5
  -5.68324E+4   9.11336E+5
  -7.28546E+4   8.99076E+5
  -8.89557E+4   8.87643E+5
  -1.05706E+5   8.75449E+5
  -1.20982E+5   8.63167E+5
  -1.35063E+5   8.50673E+5
  -1.48279E+5   8.38315E+5
  -1.61954E+5   8.26568E+5
  -1.75294E+5   8.14221E+5
  -1.87780E+5   8.01225E+5
  -1.98863E+5   7.87972E+5
  -2.08846E+5   7.75293E+5
  -2.20021E+5   7.64357E+5
  -2.30993E+5   7.52562E+5
  -2.41427E+5   7.39794E+5
  -2.50693E+5   7.27234E+5
  -2.60668E+5   7.15699E+5
  -2.71458E+5   7.03557E+5
  -2.81681E+5   6.89646E+5
  -2.89895E+5   6.76107E+5
  -2.97549E+5   6.64267E+5
  -3.05468E+5   6.53045E+5
  -3.13738E+5   6.40840E+5
  -3.21479E+5   6.27208E+5
  -3.27675E+5   6.14209E+5
  -3.32787E+5   6.02530E+5
  -3.38571E+5   5.91296E+5
  -3.45294E+5   5.79275E+5
  -3.51590E+5   5.66762E+5
  -3.57147E+5   5.54257E+5
  -3.62282E+5   5.42071E+5
  -3.67726E+5   5.29978E+5
  -3.72622E+5   5.17486E+5
  -3.76608E+5   5.04319E+5
  -3.79456E+5   4.92030E+5
  -3.82591E+5   4.80923E+5
  -3.86319E+5   4.69655E+5
  -3.89656E+5   4.57766E+5
  -3.92354E+5   4.46461E+5
  -3.94983E+5   4.34551E+5
  -3.97640E+5   4.22558E+5
  -3.99035E+5   4.10069E+5
  -4.00595E+5   3.98197E+5
  -4.01931E+5   3.86658E+5
  -4.04168E+5   3.75078E+5
  -4.05754E+5   3.63081E+5
  -4.07754E+5   3.50376E+5
  -4.08713E+5   3.37518E+5
  -4.09082E+5   3.25640E+5
  -4.09789E+5   3.14109E+5
  -4.10396E+5   3.02174E+5
  -4.10603E+5   2.89978E+5
  -4.10360E+5   2.78800E+5
  -4.09886E+5   2.68097E+5
  -4.10275E+5   2.57108E+5
  -4.09709E+5   2.45211E+5
  -4.08547E+5   2.33771E+5
  -4.06945E+5   2.23313E+5
  -4.05492E+5   2.13449E+5
  -4.04864E+5   2.02731E+5
  -4.04053E+5   1.91759E+5
  -4.01987E+5   1.81060E+5
  -4.00499E+5   1.70561E+5
  -3.98766E+5   1.60038E+5
  -3.96371E+5   1.50235E+5
  -3.94235E+5   1.40480E+5
  -3.91765E+5   1.31153E+5
  -3.89457E+5   1.21679E+5
  -3.87004E+5   1.12909E+5
  -3.84856E+5   1.04005E+5
  -3.82228E+5   9.51144E+4
  -3.79056E+5   8.67469E+4
  -3.75938E+5   7.88196E+4
  -3.73275E+5   7.10420E+4
  -3.70053E+5   6.34646E+4
  -3.66734E+5   5.56293E+4
  -3.63784E+5   4.82959E+4
  -3.60031E+5   4.08607E+4
  -3.56387E+5   3.34886E+4
  -3.52713E+5   2.65991E+4
  -3.49003E+5   2.01582E+4
  -3.45385E+5   1.43372E+4
  -3.41910E+5   8.03247E+3
  -3.38548E+5   1.57730E+3
  -3.34472E+5  -4.30507E+3
  -3.30402E+5  -9.58185E+3
  -3.26594E+5  -1.49713E+4
  -3.22625E+5  -2.01579E+4
  -3.18474E+5  -2.56649E+4
  -3.14106E+5  -3.04887E+4
  -3.09884E+5  -3.51394E+4
  -3.06141E+5  -4.00972E+4
  -3.01795E+5  -4.48928E+4
  -2.96906E+5  -4.97912E+4
  -2.92395E+5  -5.36852E+4
  -2.88310E+5  -5.75632E+4
  -2.84192E+5  -6.19369E+4
  -2.79776E+5  -6.62732E+4
  -2.75134E+5  -7.02168E+4
  -2.70144E+5  -7.38060E+4
  -2.65450E+5  -7.73706E+4
  -2.60932E+5  -8.06855E+4
  -2.56126E+5  -8.36297E+4
  -2.51619E+5  -8.66518E+4
  -2.47122E+5  -8.94553E+4
  -2.43113E+5  -9.25300E+4
  -2.38654E+5  -9.55808E+4
  -2.33610E+5  -9.89619E+4
  -2.28622E+5  -1.01706E+5
  -2.23482E+5  -1.04419E+5
  -2.18996E+5  -1.06706E+5
  -2.14295E+5  -1.09328E+5
  -2.09441E+5  -1.11833E+5
  -2.04797E+5  -1.13937E+5
  -2.00003E+5  -1.16354E+5
  -1.95397E+5  -1.18817E+5
  -1.90374E+5  -1.21156E+5
  -1.85326E+5  -1.22855E+5
  -1.80482E+5  -1.24024E+5
  -1.75985E+5  -1.26038E+5
  -1.71557E+5  -1.27959E+5
  -1.66942E+5  -1.29865E+5
  -1.61816E+5  -1.31192E+5
  -1.57327E+5  -1.32336E+5
  -1.52636E+5  -1.33612E+5
  -1.48157E+5  -1.35222E+5
  -1.43429E+5  -1.36161E+5
  -1.39037E+5  -1.36971E+5
  -1.34809E+5  -1.38377E+5
  -1.30362E+5  -1.39420E+5
  -1.25770E+5  -1.40507E+5
  -1.21088E+5  -1.40724E+5
  -1.16701E+5  -1.40917E+5
  -1.12773E+5  -1.41649E+5
  -1.08798E+5  -1.41942E+5
  -1.04659E+5  -1.42103E+5
  -1.00656E+5  -1.42359E+5
  -9.69324E+4  -1.42811E+5
  -9.30655E+4  -1.43036E+5
  -8.90288E+4  -1.43278E+5
  -8.53399E+4  -1.42842E+5
  -8.16958E+4  -1.42548E+5
  -7.81981E+4  -1.42167E+5
  -7.48337E+4  -1.42341E+5
  -7.12275E+4  -1.42445E+5
  -6.79266E+4  -1.41640E+5
  -6.42447E+4  -1.41047E+5
  -6.15474E+4  -1.40611E+5
  -5.81586E+4  -1.40143E+5
  -5.51926E+4  -1.39727E+5
  -5.20936E+4  -1.38944E+5
  -4.94333E+4  -1.38229E+5
  -4.68489E+4  -1.37646E+5
  -4.40847E+4  -1.36879E+5
  -4.10485E+4  -1.35798E+5
  -3.84615E+4  -1.34861E+5
  -3.62643E+4  -1.33631E+5
  -3.41190E+4  -1.33069E+5
  -3.13313E+4  -1.32147E+5
  -2.85482E+4  -1.31156E+5
  -2.64268E+4  -1.30044E+5
  -2.43507E+4  -1.28622E+5
  -2.20726E+4  -1.27823E+5
  -1.95246E+4  -1.26551E+5
  -1.75166E+4  -1.25278E+5
  -1.56267E+4  -1.24140E+5
  -1.36451E+4  -1.23051E+5
  -1.15043E+4  -1.21799E+5
  -9.34081E+3  -1.20218E+5
  -7.35056E+3  -1.19009E+5
  -5.58362E+3  -1.17424E+5
  -3.98259E+3  -1.16435E+5
  -2.10193E+3  -1.15330E+5
  -9.66348E+0  -1.13874E+5
   1.72338E+3  -1.12329E+5
   3.34994E+3  -1.11025E+5
   5.16531E+3  -1.09612E+5
   7.09931E+3  -1.08034E+5
   8.55488E+3  -1.06127E+5
   1.00744E+4  -1.04877E+5
   1.15727E+4  -1.03774E+5
   1.30835E+4  -1.02177E+5
   1.49518E+4  -1.00705E+5
   1.62605E+4  -9.90982E+4
   1.76064E+4  -9.77203E+4
   1.89505E+4  -9.62231E+4
   2.05686E+4  -9.45407E+4
   2.15755E+4  -9.28177E+4
   2.31273E+4  -9.18239E+4
   2.44254E+4  -9.02886E+4
   2.56259E+4  -8.88404E+4
   2.67403E+4  -8.74810E+4
   2.82015E+4  -8.54311E+4
   2.91729E+4  -8.37817E+4
   3.03558E+4  -8.25600E+4
   3.12789E+4  -8.12043E+4
   3.20865E+4  -7.94842E+4
   3.31272E+4  -7.81160E+4
   3.42018E+4  -7.63080E+4
   3.50589E+4  -7.51157E+4
   3.60353E+4  -7.37368E+4
   3.68245E+4  -7.21591E+4
   3.73088E+4  -7.05771E+4
   3.76945E+4  -6.93429E+4
   3.85661E+4  -6.82304E+4
   3.94901E+4  -6.67537E+4
   4.00648E+4  -6.51001E+4
   4.06919E+4  -6.36455E+4
   4.10624E+4  -6.23856E+4
   4.14219E+4  -6.09523E+4
   4.20309E+4  -5.96667E+4
   4.22688E+4  -5.82263E+4
   4.29136E+4  -5.71893E+4
   4.32858E+4  -5.57617E+4
   4.35481E+4  -5.45936E+4
   4.40020E+4  -5.30761E+4
   4.41727E+4  -5.20705E+4
   4.43455E+4  -5.07819E+4
   4.47803E+4  -4.94666E+4
   4.48713E+4  -4.82830E+4
   4.53034E+4  -4.72487E+4
   4.52019E+4  -4.57101E+4
   4.55111E+4  -4.47720E+4
   4.54254E+4  -4.33455E+4
   4.55695E+4  -4.22825E+4
   4.55613E+4  -4.10614E+4
   4.56669E+4  -4.01572E+4
   4.59557E+4  -3.92759E+4
   4.58268E+4  -3.78725E+4
   4.57499E+4  -3.68839E+4
   4.56044E+4  -3.56686E+4
   4.57003E+4  -3.48253E+4
   4.54858E+4  -3.38189E+4
   4.55011E+4  -3.24933E+4
   4.52114E+4  -3.13978E+4
   4.51844E+4  -3.06593E+4
   4.48649E+4  -2.94758E+4
   4.50448E+4  -2.84466E+4
   4.47035E+4  -2.74643E+4
   4.44403E+4  -2.64329E+4
   4.40618E+4  -2.55976E+4
   4.41390E+4  -2.44586E+4
   4.39238E+4  -2.35724E+4
   4.37913E+4  -2.27934E+4
   4.37610E+4  -2.13687E+4
   4.31136E+4  -2.08006E+4
   4.27927E+4  -1.96953E+4
   4.24239E+4  -1.92700E+4
   4.21328E+4  -1.81635E+4
   4.19431E+4  -1.72282E+4
   4.16988E+4  -1.66460E+4
   4.15064E+4  -1.56127E+4
   4.12725E+4  -1.49740E+4
   4.09046E+4  -1.39614E+4
   4.05778E+4  -1.34512E+4
   3.97805E+4  -1.24931E+4
   3.96589E+4  -1.18663E+4
   3.93822E+4  -1.10177E+4
   3.90101E+4  -1.03630E+4
   3.87449E+4  -9.59663E+3
   3.81243E+4  -9.02771E+3
   3.77284E+4  -8.22238E+3
   3.72987E+4  -7.34024E+3
   3.68975E+4  -6.84941E+3
   3.66826E+4  -6.22695E+3
   3.63907E+4  -5.82897E+3
   3.61811E+4  -4.87074E+3
   3.54565E+4  -4.28951E+3
   3.51445E+4  -3.73634E+3
   3.46667E+4  -3.24910E+3
   3.40199E+4  -2.84128E+3
   3.34994E+4  -2.05971E+3
   3.33818E+4  -1.55967E+3
   3.30087E+4  -1.05362E+3
   3.26620E+4  -4.79152E+2
   3.24471E+4  -1.66250E+2
   3.17863E+4   7.14723E+2
   3.12353E+4   1.04031E+3
   3.06074E+4   1.17217E+3
   3.04119E+4   1.65836E+3
   3.01692E+4   2.04382E+3
   2.99266E+4   2.56829E+3
   2.91660E+4   3.06316E+3
