 LCModel (Version 6.3-1N) Copyright: S.W. Provencher.          Ref.: Magn. Reson. Med. 30:672-679 (1993).                
 Slice_N1@12_15  28-Feb-2025 11:40:09
 27 lines in following concentration table = NCONC+1
    Conc.  %SD /Cr+PCr  Metabolite                                         
 2.53E-04   5% 3.3E-04 Mac                                                 
    3.079  38%   4.059 Cr                                                  
    2.989  39%   3.941 PCr                                                 
    4.299  20%   5.668 Ins                                                 
    7.495  10%   9.881 NAA                                                 
    4.923  17%   6.490 Tau                                                 
    1.944  12%   2.563 PCho                                                
    0.000 999%   0.000 GPC                                                 
    7.474  14%   9.853 Glu                                                 
    4.417  19%   5.823 Gln                                                 
    0.000 999%   0.000 Ala                                                 
    4.254  26%   5.608 Asc                                                 
    1.257  63%   1.657 Asp                                                 
    0.521  84%   0.686 GABA                                                
    0.761  68%   1.003 Glc                                                 
    2.014  25%   2.655 GSH                                                 
    2.177  31%   2.870 Lac                                                 
    1.810  30%   2.386 NAAG                                                
    0.000 999%   0.000 PE                                                  
    1.944  12%   2.563 GPC+PCho                                            
    9.305  10%  12.267 NAA+NAAG                                            
   11.891  12%  15.677 Glu+Gln                                             
    6.068  11%   8.000 Cr+PCr                                              
    9.305  10%  12.267 NAA+NAAG                                            
    6.068  11%   8.000 Cr+PCr                                              
   11.891  12%  15.677 Glu+Gln                                             
   6 lines in following misc. output table
  FWHM = 0.024 ppm    S/N =   3                                            
  Data shift = 0.033 ppm                                                   
  Ph: 173 deg       0.0 deg/ppm                                            
  alphaB,S = 9.9E-02,   1.1E+01                                            
   19 spline knots.   Ns = 5(1)                                            
  ( 6) 3 infls.   ( 4) 2 extrs.                                            
  480 points on ppm-axis = NY
      4.100000     4.091866     4.083733     4.075600     4.067466     4.059333     4.051199     4.043066     4.034933     4.026799
      4.018666     4.010532     4.002399     3.994265     3.986132     3.977998     3.969864     3.961731     3.953597     3.945463
      3.937330     3.929196     3.921062     3.912929     3.904795     3.896662     3.888528     3.880394     3.872261     3.864127
      3.855993     3.847860     3.839726     3.831592     3.823459     3.815325     3.807191     3.799058     3.790924     3.782790
      3.774657     3.766523     3.758389     3.750256     3.742122     3.733989     3.725855     3.717721     3.709588     3.701454
      3.693320     3.685187     3.677053     3.668919     3.660786     3.652652     3.644518     3.636385     3.628251     3.620117
      3.611984     3.603850     3.595716     3.587583     3.579449     3.571316     3.563182     3.555048     3.546915     3.538781
      3.530647     3.522514     3.514380     3.506246     3.498113     3.489979     3.481845     3.473712     3.465578     3.457444
      3.449311     3.441177     3.433043     3.424910     3.416776     3.408643     3.400509     3.392375     3.384242     3.376108
      3.367974     3.359841     3.351707     3.343573     3.335440     3.327306     3.319172     3.311039     3.302905     3.294771
      3.286638     3.278504     3.270370     3.262237     3.254103     3.245970     3.237836     3.229702     3.221569     3.213435
      3.205301     3.197168     3.189034     3.180900     3.172767     3.164633     3.156499     3.148366     3.140232     3.132098
      3.123965     3.115831     3.107697     3.099564     3.091430     3.083297     3.075163     3.067029     3.058896     3.050762
      3.042628     3.034495     3.026361     3.018227     3.010094     3.001960     2.993826     2.985693     2.977559     2.969425
      2.961292     2.953158     2.945024     2.936891     2.928757     2.920624     2.912490     2.904356     2.896223     2.888089
      2.879955     2.871822     2.863688     2.855554     2.847421     2.839287     2.831153     2.823020     2.814886     2.806752
      2.798619     2.790485     2.782351     2.774218     2.766084     2.757951     2.749817     2.741683     2.733550     2.725416
      2.717282     2.709149     2.701015     2.692881     2.684748     2.676614     2.668480     2.660347     2.652213     2.644079
      2.635946     2.627812     2.619678     2.611545     2.603411     2.595278     2.587144     2.579010     2.570877     2.562743
      2.554609     2.546476     2.538342     2.530208     2.522075     2.513941     2.505807     2.497674     2.489540     2.481406
      2.473273     2.465139     2.457006     2.448872     2.440738     2.432605     2.424471     2.416337     2.408204     2.400070
      2.391936     2.383803     2.375669     2.367535     2.359402     2.351268     2.343134     2.335001     2.326867     2.318733
      2.310600     2.302466     2.294333     2.286199     2.278065     2.269932     2.261798     2.253664     2.245531     2.237397
      2.229263     2.221130     2.212996     2.204862     2.196729     2.188595     2.180461     2.172328     2.164194     2.156060
      2.147927     2.139793     2.131660     2.123526     2.115392     2.107259     2.099125     2.090991     2.082858     2.074724
      2.066590     2.058457     2.050323     2.042189     2.034056     2.025922     2.017788     2.009655     2.001521     1.993387
      1.985254     1.977120     1.968987     1.960853     1.952719     1.944586     1.936452     1.928318     1.920185     1.912051
      1.903917     1.895784     1.887650     1.879516     1.871383     1.863249     1.855115     1.846982     1.838848     1.830714
      1.822581     1.814447     1.806314     1.798180     1.790046     1.781913     1.773779     1.765645     1.757512     1.749378
      1.741244     1.733111     1.724977     1.716843     1.708710     1.700576     1.692442     1.684309     1.676175     1.668041
      1.659908     1.651774     1.643641     1.635507     1.627373     1.619240     1.611106     1.602972     1.594839     1.586705
      1.578571     1.570438     1.562304     1.554170     1.546037     1.537903     1.529769     1.521636     1.513502     1.505368
      1.497235     1.489101     1.480968     1.472834     1.464700     1.456567     1.448433     1.440299     1.432166     1.424032
      1.415898     1.407765     1.399631     1.391497     1.383364     1.375230     1.367096     1.358963     1.350829     1.342695
      1.334562     1.326428     1.318295     1.310161     1.302027     1.293894     1.285760     1.277626     1.269493     1.261359
      1.253225     1.245092     1.236958     1.228824     1.220691     1.212557     1.204423     1.196290     1.188156     1.180022
      1.171889     1.163755     1.155622     1.147488     1.139354     1.131221     1.123087     1.114953     1.106820     1.098686
      1.090552     1.082419     1.074285     1.066151     1.058018     1.049884     1.041750     1.033617     1.025483     1.017349
      1.009216     1.001082     0.992949     0.984815     0.976681     0.968548     0.960414     0.952280     0.944147     0.936013
      0.927879     0.919746     0.911612     0.903478     0.895345     0.887211     0.879077     0.870944     0.862810     0.854676
      0.846543     0.838409     0.830276     0.822142     0.814008     0.805875     0.797741     0.789607     0.781474     0.773340
      0.765206     0.757073     0.748939     0.740805     0.732672     0.724538     0.716404     0.708271     0.700137     0.692003
      0.683870     0.675736     0.667603     0.659469     0.651335     0.643202     0.635068     0.626934     0.618801     0.610667
      0.602533     0.594400     0.586266     0.578132     0.569999     0.561865     0.553731     0.545598     0.537464     0.529330
      0.521197     0.513063     0.504930     0.496796     0.488662     0.480529     0.472395     0.464261     0.456128     0.447994
      0.439861     0.431727     0.423593     0.415460     0.407326     0.399192     0.391059     0.382925     0.374792     0.366658
      0.358524     0.350391     0.342257     0.334124     0.325990     0.317856     0.309723     0.301589     0.293455     0.285322
      0.277188     0.269055     0.260921     0.252787     0.244654     0.236520     0.228386     0.220253     0.212119     0.203986
 NY phased data points follow
   2.35653E+01  3.55166E+01  2.46663E+01  2.03832E+01  3.46054E+01  1.25658E+01  3.26932E+01  3.12459E+01  1.99353E+01  7.48307E+00
   5.39041E+00  7.32566E+00 -2.19711E+01 -2.73188E+00 -1.86854E+01 -2.57787E+01 -3.06509E+01 -5.11052E+01 -6.01904E+01 -7.52291E+01
  -4.51790E+01 -2.78181E+01 -1.16248E+01 -7.39932E+00  5.80043E+00  1.20673E+01 -1.05011E+01  2.64866E+00 -6.21381E+00 -2.28948E+01
  -2.56105E+01 -3.25409E+01 -2.96936E+01 -3.78445E+01 -5.21288E+01 -4.96877E+01 -5.42811E+01 -6.32194E+01 -7.31939E+01 -9.60203E+01
  -9.08731E+01 -6.79287E+01 -5.84825E+01 -3.46266E+01 -8.14560E+00  8.94304E+00  2.61792E+01  2.56673E+01  2.66122E+01  1.78087E+01
   2.46568E+01  3.65789E+01  2.18669E+01  6.55834E+00 -1.95983E+01 -5.51982E+00  2.73075E+00 -1.05630E+01 -4.26966E+00  4.79492E+00
   1.24566E+01  1.54267E+01  4.64651E+01  5.57907E+01  4.58254E+01  4.65336E+01  3.46910E+01  1.31476E+01 -7.95950E+00 -7.19665E+00
   2.00549E+01  3.03795E+01  3.18692E+01  5.84630E+01  6.48581E+01  7.58168E+01  7.26077E+01  6.77794E+01  6.92561E+01  5.14555E+01
   5.60191E+01  4.58039E+01  3.39951E+01  1.90891E+01  2.39517E+01  2.72448E+01  2.89392E+01  6.03085E+01  6.39285E+01  6.67965E+01
   6.35498E+01  7.75228E+01  8.40816E+01  8.10980E+01  9.21598E+01  7.88138E+01  8.58575E+01  7.64621E+01  4.25700E+01  5.55605E+01
   5.93041E+01  2.31886E+01  1.89886E+01  2.61307E+00 -7.54281E+00 -8.71363E+00 -4.14880E+01 -4.10744E+01 -7.56881E+01 -1.40264E+02
  -1.52992E+02 -9.64509E+01 -4.67914E+01 -3.24847E+01  7.59953E+00  5.79291E+00  1.36430E+01  3.48281E+01  1.74897E+01  2.84406E+01
   3.28945E+01  4.11547E+01  4.62811E+01  4.92921E+01  8.34942E+01  7.57019E+01  8.06286E+01  1.00150E+02  9.88790E+01  1.29986E+02
   1.12087E+02  1.00316E+01 -7.46433E+01 -9.27311E+01 -8.84774E+01 -6.81323E+01 -5.44303E+01 -4.39535E+01 -3.64402E+01 -4.16893E+01
  -2.69166E+01 -3.32753E+01 -2.80130E+01 -2.39321E+01 -1.55965E+01 -8.27986E+00 -1.75984E+01 -1.03022E+01 -1.75480E+01  4.16774E+00
  -3.03483E+00  2.86382E+00  2.23899E+01  3.75043E+00  1.93094E+01  1.35038E+01  1.14547E+01  1.57002E+01  1.41812E+01  1.60758E+01
   1.51043E+01  2.41731E+01  1.97124E+01  1.52008E+01  2.35984E+01  2.66458E+01  2.33156E+01  3.04485E+01  1.96545E+01  3.63607E+01
   6.31633E+01  5.89853E+01  6.40641E+01  4.20613E+01  3.21467E+01  4.85960E+01  4.51652E+01  3.59070E+01  1.50597E+01  1.17648E+01
   2.28397E+01  6.55128E+00  1.15941E+01  3.73452E+00 -6.72622E+00  5.92863E+00  4.06850E+00  2.08599E+01  1.89810E+01  1.69734E+01
   1.43962E+01  3.35400E+01  5.42583E+01  3.84178E+01  4.52942E+01  2.84398E+01  3.41226E+01  5.66240E+01  5.00507E+01  3.11147E+01
   3.68352E+01  6.26377E+01  5.47047E+01  5.20452E+01  5.53267E+01  4.78333E+01  1.82911E+01  6.03078E+00  1.57643E+01  2.96460E+01
   3.21822E+01  4.09901E+01  6.17717E+01  4.89375E+01  7.97599E+01  1.08755E+02  9.99162E+01  8.93960E+01  7.55288E+01  5.72681E+01
   4.57071E+01  4.31299E+01  2.97413E+01  4.60884E+01  4.62356E+01  4.32816E+01  4.91147E+01  4.54738E+01  4.22706E+01  4.15180E+01
   4.57429E+01  2.61790E+01  2.59852E+01  1.67828E+01  1.08147E+01  1.01134E+01 -6.64178E+00  6.50224E-01  4.54417E+00  1.68250E+01
   3.17824E+01  2.74740E+01  4.13137E+01  6.20243E+01  5.85484E+01  6.48560E+01  5.71341E+01  4.13473E+01  3.46556E+01  3.63252E+01
   3.43937E+01  2.24800E+01  4.18814E+01  4.56092E+01  3.92123E+01  9.85840E+00  7.79166E+01  2.12414E+02  2.16838E+02  2.17615E+02
   2.06927E+02  1.82509E+02  1.78043E+02  1.48801E+02  1.36306E+02  1.34957E+02  1.24500E+02  1.03890E+02  1.10689E+02  1.24720E+02
   1.18115E+02  1.13196E+02  1.13517E+02  1.14909E+02  1.08815E+02  1.08284E+02  1.23380E+02  1.14788E+02  1.04067E+02  1.08789E+02
   1.13576E+02  1.26838E+02  1.11453E+02  1.03134E+02  9.56671E+01  8.67954E+01  9.76558E+01  9.50381E+01  9.01243E+01  1.02120E+02
   1.07174E+02  9.00514E+01  1.00794E+02  8.31166E+01  8.88489E+01  1.05359E+02  8.69374E+01  1.11261E+02  1.06597E+02  1.13291E+02
   1.20465E+02  1.24071E+02  1.20550E+02  1.12707E+02  1.38656E+02  1.34993E+02  1.45846E+02  1.46038E+02  1.58690E+02  1.67079E+02
   1.51041E+02  1.45883E+02  1.42614E+02  1.50295E+02  1.22237E+02  1.47553E+02  1.64473E+02  1.20668E+02  1.23852E+02  1.31056E+02
   1.23316E+02  1.24757E+02  1.23961E+02  1.07651E+02  1.12502E+02  1.23877E+02  1.14146E+02  1.00344E+02  9.69352E+01  8.61143E+01
   5.26176E+01  4.38619E+01  5.02473E+01  4.49574E+01  3.17118E+01  4.02927E+01  5.72828E+01  7.18552E+01  9.08661E+01  9.17152E+01
   1.01166E+02  9.60891E+01  9.07865E+01  8.28414E+01  7.95568E+01  1.02460E+02  6.84860E+01  5.02666E+01  5.44398E+01  3.49381E+01
   3.98130E+01  2.54075E+01  1.38189E+01  1.89381E+01  2.12785E+01  2.39196E+01  1.70834E+01  7.22740E+00  3.85669E+00  1.44416E+01
   7.33543E+00 -1.90169E+00 -2.40832E+00  1.40533E+01  3.77259E+01  3.24848E+01  3.93564E+01  4.56372E+01  4.83630E+01  6.03133E+01
   6.91294E+01  6.64172E+01  6.76252E+01  7.81848E+01  7.17312E+01  9.01234E+01  8.21321E+01  6.84833E+01  1.03666E+02  1.05857E+02
   9.99304E+01  1.13242E+02  1.18580E+02  1.21093E+02  1.37515E+02  1.32992E+02  1.42817E+02  1.58647E+02  1.18227E+02  1.13339E+02
   1.20813E+02  9.54553E+01  6.41627E+01  5.49562E+01  4.90336E+01  3.46911E+01  4.91572E+01  4.74941E+01  4.71140E+01  2.29067E+01
   4.64444E+00  1.04528E+01 -5.44985E+00 -5.54340E+00 -6.22410E+00  1.11232E+00 -1.16692E+01 -1.35260E+00  3.76692E+00 -1.15442E+01
   7.01197E+00 -4.36401E+00  3.51031E+00  5.57592E+00  1.43558E+01  2.07669E+01  6.18948E+00  2.19138E+01  1.32906E+01  7.54002E+00
   1.39923E+01  1.46981E+01  6.01193E+00  2.22087E+01  2.52549E+01  1.20513E+01  1.95883E+01  1.00637E+01  1.80184E+01  1.32975E+01
   1.86486E+01  1.57255E+01  1.19028E+01  1.69559E+01  1.10319E+01  2.59852E+01  1.20329E+01  2.46955E+01  1.73166E+01  1.67014E+01
   3.81538E+01  2.05900E+01  3.39793E+01  3.01999E+01  2.18973E+01  2.92792E+01  3.24702E+01  2.46521E+01  3.44273E+01  3.46571E+01
   1.66354E+01  2.66076E+01  2.56529E+01  3.76691E+01  2.80484E+01  3.10189E+01  4.21105E+01  2.36428E+01  2.35182E+01  2.28450E+01
   3.22576E+01  3.63317E+01  3.47753E+01  2.61305E+01  3.14656E+01  3.42128E+01  2.97980E+01  3.42286E+01  2.89709E+01  3.33428E+01
   2.60757E+01  3.33791E+01  2.55307E+01  2.20185E+01  4.09193E+01  3.99267E+01  3.30812E+01  2.21737E+01  3.00493E+01  2.21663E+01
 NY points of the fit to the data follow
  -1.05350E+01 -1.35901E+01 -1.50832E+01 -1.19507E+01 -4.13850E+00  2.15234E+00  5.71474E-01 -7.39958E+00 -1.59241E+01 -2.13957E+01
  -2.29570E+01 -2.02586E+01 -1.63657E+01 -1.53004E+01 -1.87035E+01 -2.59187E+01 -3.37074E+01 -4.32025E+01 -5.33639E+01 -5.66031E+01
  -4.63821E+01 -2.52075E+01  2.72970E-01  2.36739E+01  3.71876E+01  3.78367E+01  3.13462E+01  2.64035E+01  2.21626E+01  1.81903E+01
   1.59495E+01  1.31041E+01  9.17786E+00  3.86075E+00 -2.78977E+00 -1.22828E+01 -2.52215E+01 -4.47684E+01 -6.86976E+01 -8.44452E+01
  -7.99102E+01 -6.00618E+01 -3.76941E+01 -1.62982E+01  5.03444E+00  2.24035E+01  3.14171E+01  3.72296E+01  3.89837E+01  3.63528E+01
   3.04149E+01  2.30606E+01  1.38934E+01  1.74166E+00 -8.54448E+00 -1.22428E+01 -1.11653E+01 -8.35462E+00 -1.54740E+00  8.78470E+00
   1.71549E+01  2.34739E+01  3.15629E+01  3.91282E+01  3.98125E+01  3.44288E+01  2.45070E+01  8.06469E+00 -5.10047E+00 -4.74546E+00
   4.10096E+00  1.41600E+01  2.56125E+01  3.90709E+01  4.89954E+01  5.23576E+01  5.30184E+01  5.26395E+01  4.83282E+01  4.01061E+01
   2.81292E+01  1.35316E+01  3.12101E-01 -6.48745E+00 -3.66656E+00  7.83193E+00  2.37486E+01  3.84791E+01  4.94682E+01  5.52647E+01
   5.89516E+01  6.12648E+01  6.31111E+01  6.53545E+01  6.70298E+01  6.88050E+01  7.00783E+01  6.98694E+01  6.94811E+01  7.03128E+01
   6.70520E+01  5.76678E+01  4.46639E+01  3.14438E+01  1.63090E+01  5.25079E+00 -1.69860E+00 -2.73325E+01 -7.88317E+01 -1.19773E+02
  -1.17109E+02 -8.62333E+01 -5.23404E+01 -2.45958E+01 -1.34173E+00  8.42890E+00  1.02993E+01  1.35977E+01  1.79861E+01  2.32527E+01
   2.95393E+01  3.70601E+01  4.60208E+01  5.61800E+01  6.72070E+01  7.89574E+01  9.17745E+01  9.97721E+01  1.07638E+02  1.13010E+02
   8.90424E+01  2.30030E+01 -4.64057E+01 -7.71467E+01 -7.39410E+01 -6.01669E+01 -4.24189E+01 -2.23427E+01 -1.59780E+01 -1.74864E+01
  -1.97605E+01 -2.21967E+01 -2.38009E+01 -2.40013E+01 -2.26268E+01 -1.96803E+01 -1.55448E+01 -1.17033E+01 -8.76073E+00 -6.18740E+00
  -4.31335E+00 -2.52249E+00 -4.60548E-01  2.02796E+00  4.55677E+00  6.47903E+00  7.53213E+00  7.98455E+00  8.63314E+00  1.01062E+01
   1.18766E+01  1.28831E+01  1.28295E+01  1.29812E+01  1.42005E+01  1.55413E+01  1.59193E+01  1.66252E+01  1.99233E+01  2.73470E+01
   3.77830E+01  4.51158E+01  4.42523E+01  3.81002E+01  3.48712E+01  3.79895E+01  4.15077E+01  3.82901E+01  2.87089E+01  1.81413E+01
   1.04707E+01  6.35232E+00  5.20260E+00  7.23115E+00  1.04391E+01  1.29611E+01  1.58572E+01  1.84797E+01  2.14963E+01  2.56344E+01
   2.89104E+01  3.09460E+01  3.51800E+01  4.12071E+01  4.39618E+01  4.25498E+01  4.27703E+01  4.61286E+01  4.76396E+01  4.73862E+01
   4.96469E+01  5.50788E+01  5.91566E+01  5.83283E+01  5.36261E+01  4.70244E+01  3.80743E+01  2.80179E+01  2.08168E+01  1.73068E+01
   1.94179E+01  2.75954E+01  4.26144E+01  6.37843E+01  8.54610E+01  9.96652E+01  1.03330E+02  9.83921E+01  8.78009E+01  7.62165E+01
   6.83020E+01  6.85085E+01  7.03904E+01  7.17177E+01  7.13495E+01  6.63487E+01  5.76881E+01  4.67513E+01  3.47342E+01  2.27122E+01
   1.13037E+01  1.66003E+00 -6.38563E+00 -1.24422E+01 -1.50396E+01 -1.43698E+01 -1.08269E+01 -3.87510E+00  4.70391E+00  1.42697E+01
   2.45008E+01  3.59225E+01  4.71542E+01  5.47670E+01  5.85480E+01  5.75438E+01  5.16079E+01  4.36605E+01  3.66517E+01  3.03693E+01
   2.45673E+01  2.07056E+01  2.73924E+01  3.47819E+01  2.70725E+01  3.21286E+01  8.58929E+01  1.65118E+02  2.12295E+02  2.15180E+02
   2.00735E+02  1.80110E+02  1.54526E+02  1.38864E+02  1.35557E+02  1.33346E+02  1.31143E+02  1.29197E+02  1.28088E+02  1.28017E+02
   1.28767E+02  1.30030E+02  1.31345E+02  1.32303E+02  1.32656E+02  1.32528E+02  1.32186E+02  1.31329E+02  1.29995E+02  1.28233E+02
   1.26248E+02  1.24453E+02  1.22624E+02  1.20651E+02  1.18600E+02  1.16433E+02  1.14017E+02  1.11032E+02  1.07563E+02  1.03812E+02
   1.00016E+02  9.65077E+01  9.38706E+01  9.26990E+01  9.33091E+01  9.54338E+01  9.85214E+01  1.01918E+02  1.05077E+02  1.08072E+02
   1.10879E+02  1.13334E+02  1.15369E+02  1.17162E+02  1.18788E+02  1.20491E+02  1.22525E+02  1.24781E+02  1.26829E+02  1.28378E+02
   1.29493E+02  1.30444E+02  1.31133E+02  1.31275E+02  1.30836E+02  1.29840E+02  1.28050E+02  1.25352E+02  1.22214E+02  1.18818E+02
   1.14956E+02  1.10560E+02  1.05750E+02  1.00179E+02  9.32587E+01  8.46030E+01  7.46878E+01  6.47587E+01  5.61394E+01  4.96052E+01
   4.57042E+01  4.50208E+01  4.74823E+01  5.25002E+01  5.89444E+01  6.54889E+01  7.13447E+01  7.58147E+01  7.90825E+01  8.12784E+01
   7.92540E+01  7.15838E+01  6.06374E+01  5.03065E+01  4.35503E+01  4.30383E+01  4.80369E+01  5.41436E+01  5.68148E+01  5.60088E+01
   5.31446E+01  4.71336E+01  4.09044E+01  3.56715E+01  3.24062E+01  3.12592E+01  3.18833E+01  3.39617E+01  3.70136E+01  4.04214E+01
   4.38715E+01  4.73022E+01  5.03928E+01  5.30424E+01  5.52594E+01  5.71488E+01  5.90346E+01  6.10713E+01  6.32271E+01  6.54903E+01
   6.78537E+01  7.04912E+01  7.36560E+01  7.75449E+01  8.20607E+01  8.69807E+01  9.26111E+01  9.90789E+01  1.05875E+02  1.12845E+02
   1.20249E+02  1.27835E+02  1.34463E+02  1.39057E+02  1.40460E+02  1.37477E+02  1.29622E+02  1.17741E+02  1.04115E+02  9.13847E+01
   8.11706E+01  7.35574E+01  6.79123E+01  6.31608E+01  5.75164E+01  5.02269E+01  4.17124E+01  3.30786E+01  2.50835E+01  1.87604E+01
   1.46346E+01  1.22953E+01  1.10108E+01  1.05266E+01  1.05723E+01  1.05803E+01  1.03694E+01  9.93105E+00  9.50508E+00  9.22216E+00
   9.34629E+00  9.66748E+00  9.93541E+00  1.01430E+01  1.04953E+01  1.07666E+01  1.07380E+01  1.08049E+01  1.13223E+01  1.18819E+01
   1.20774E+01  1.21990E+01  1.25473E+01  1.28944E+01  1.30194E+01  1.32327E+01  1.37652E+01  1.44601E+01  1.50755E+01  1.54243E+01
   1.56105E+01  1.56868E+01  1.58359E+01  1.62038E+01  1.68432E+01  1.75725E+01  1.82859E+01  1.88875E+01  1.93142E+01  1.96996E+01
   2.00295E+01  2.03094E+01  2.04198E+01  2.05797E+01  2.09322E+01  2.14757E+01  2.20588E+01  2.26325E+01  2.31255E+01  2.34375E+01
   2.37235E+01  2.41434E+01  2.47319E+01  2.53549E+01  2.58770E+01  2.63749E+01  2.67697E+01  2.71049E+01  2.74948E+01  2.78075E+01
   2.79355E+01  2.80099E+01  2.82095E+01  2.85371E+01  2.90103E+01  2.96854E+01  3.05080E+01  3.11250E+01  3.13193E+01  3.11496E+01
   3.08617E+01  3.07690E+01  3.09418E+01  3.11835E+01  3.14719E+01  3.17546E+01  3.18587E+01  3.17364E+01  3.17370E+01  3.20907E+01
 NY background values follow
     1.783E+01    1.720E+01    1.657E+01    1.593E+01    1.530E+01    1.466E+01    1.403E+01    1.340E+01    1.278E+01    1.215E+01
     1.154E+01    1.093E+01    1.034E+01    9.747E+00    9.170E+00    8.604E+00    8.053E+00    7.516E+00    6.994E+00    6.490E+00
     6.004E+00    5.537E+00    5.090E+00    4.665E+00    4.263E+00    3.884E+00    3.531E+00    3.205E+00    2.905E+00    2.635E+00
     2.394E+00    2.184E+00    2.004E+00    1.853E+00    1.730E+00    1.635E+00    1.567E+00    1.525E+00    1.508E+00    1.515E+00
     1.546E+00    1.600E+00    1.675E+00    1.771E+00    1.887E+00    2.023E+00    2.177E+00    2.349E+00    2.538E+00    2.743E+00
     2.963E+00    3.198E+00    3.446E+00    3.707E+00    3.980E+00    4.264E+00    4.558E+00    4.862E+00    5.174E+00    5.495E+00
     5.822E+00    6.155E+00    6.495E+00    6.839E+00    7.189E+00    7.543E+00    7.902E+00    8.264E+00    8.630E+00    8.998E+00
     9.369E+00    9.743E+00    1.012E+01    1.049E+01    1.087E+01    1.125E+01    1.163E+01    1.201E+01    1.238E+01    1.276E+01
     1.313E+01    1.351E+01    1.388E+01    1.424E+01    1.461E+01    1.497E+01    1.532E+01    1.568E+01    1.603E+01    1.637E+01
     1.670E+01    1.704E+01    1.736E+01    1.768E+01    1.800E+01    1.831E+01    1.862E+01    1.893E+01    1.923E+01    1.953E+01
     1.983E+01    2.013E+01    2.043E+01    2.073E+01    2.103E+01    2.133E+01    2.163E+01    2.193E+01    2.223E+01    2.254E+01
     2.285E+01    2.316E+01    2.348E+01    2.380E+01    2.413E+01    2.446E+01    2.480E+01    2.515E+01    2.550E+01    2.586E+01
     2.622E+01    2.660E+01    2.698E+01    2.737E+01    2.777E+01    2.817E+01    2.858E+01    2.899E+01    2.941E+01    2.984E+01
     3.027E+01    3.071E+01    3.115E+01    3.159E+01    3.204E+01    3.249E+01    3.294E+01    3.339E+01    3.385E+01    3.431E+01
     3.477E+01    3.523E+01    3.569E+01    3.615E+01    3.661E+01    3.708E+01    3.754E+01    3.800E+01    3.845E+01    3.891E+01
     3.936E+01    3.981E+01    4.026E+01    4.071E+01    4.115E+01    4.159E+01    4.203E+01    4.247E+01    4.290E+01    4.333E+01
     4.375E+01    4.418E+01    4.460E+01    4.502E+01    4.543E+01    4.584E+01    4.625E+01    4.665E+01    4.705E+01    4.745E+01
     4.785E+01    4.824E+01    4.862E+01    4.901E+01    4.939E+01    4.976E+01    5.013E+01    5.050E+01    5.087E+01    5.123E+01
     5.158E+01    5.194E+01    5.229E+01    5.263E+01    5.297E+01    5.331E+01    5.365E+01    5.398E+01    5.431E+01    5.464E+01
     5.497E+01    5.529E+01    5.561E+01    5.594E+01    5.626E+01    5.657E+01    5.689E+01    5.721E+01    5.753E+01    5.784E+01
     5.816E+01    5.848E+01    5.879E+01    5.911E+01    5.943E+01    5.975E+01    6.007E+01    6.039E+01    6.072E+01    6.104E+01
     6.137E+01    6.170E+01    6.203E+01    6.237E+01    6.270E+01    6.303E+01    6.337E+01    6.370E+01    6.404E+01    6.437E+01
     6.470E+01    6.503E+01    6.536E+01    6.568E+01    6.601E+01    6.633E+01    6.664E+01    6.695E+01    6.726E+01    6.757E+01
     6.786E+01    6.816E+01    6.845E+01    6.873E+01    6.900E+01    6.927E+01    6.953E+01    6.979E+01    7.004E+01    7.027E+01
     7.050E+01    7.073E+01    7.094E+01    7.114E+01    7.134E+01    7.153E+01    7.171E+01    7.189E+01    7.206E+01    7.222E+01
     7.238E+01    7.253E+01    7.268E+01    7.282E+01    7.296E+01    7.309E+01    7.322E+01    7.334E+01    7.346E+01    7.358E+01
     7.369E+01    7.380E+01    7.391E+01    7.402E+01    7.412E+01    7.422E+01    7.433E+01    7.443E+01    7.453E+01    7.462E+01
     7.472E+01    7.482E+01    7.492E+01    7.502E+01    7.511E+01    7.520E+01    7.529E+01    7.538E+01    7.546E+01    7.553E+01
     7.561E+01    7.567E+01    7.573E+01    7.578E+01    7.583E+01    7.587E+01    7.590E+01    7.592E+01    7.593E+01    7.593E+01
     7.593E+01    7.591E+01    7.588E+01    7.583E+01    7.578E+01    7.571E+01    7.563E+01    7.553E+01    7.542E+01    7.530E+01
     7.516E+01    7.500E+01    7.483E+01    7.464E+01    7.443E+01    7.421E+01    7.397E+01    7.371E+01    7.344E+01    7.315E+01
     7.284E+01    7.251E+01    7.217E+01    7.181E+01    7.143E+01    7.103E+01    7.061E+01    7.018E+01    6.973E+01    6.925E+01
     6.876E+01    6.825E+01    6.772E+01    6.716E+01    6.659E+01    6.600E+01    6.539E+01    6.476E+01    6.411E+01    6.343E+01
     6.274E+01    6.202E+01    6.129E+01    6.054E+01    5.977E+01    5.899E+01    5.820E+01    5.739E+01    5.657E+01    5.575E+01
     5.491E+01    5.407E+01    5.322E+01    5.237E+01    5.152E+01    5.066E+01    4.981E+01    4.895E+01    4.810E+01    4.725E+01
     4.641E+01    4.557E+01    4.475E+01    4.393E+01    4.312E+01    4.232E+01    4.154E+01    4.077E+01    4.002E+01    3.928E+01
     3.856E+01    3.787E+01    3.719E+01    3.653E+01    3.588E+01    3.526E+01    3.466E+01    3.407E+01    3.350E+01    3.295E+01
     3.242E+01    3.191E+01    3.141E+01    3.094E+01    3.048E+01    3.004E+01    2.962E+01    2.921E+01    2.883E+01    2.846E+01
     2.811E+01    2.778E+01    2.746E+01    2.716E+01    2.688E+01    2.662E+01    2.638E+01    2.615E+01    2.594E+01    2.574E+01
     2.557E+01    2.541E+01    2.527E+01    2.514E+01    2.503E+01    2.494E+01    2.486E+01    2.480E+01    2.475E+01    2.472E+01
     2.470E+01    2.470E+01    2.471E+01    2.474E+01    2.477E+01    2.483E+01    2.489E+01    2.497E+01    2.506E+01    2.516E+01
     2.528E+01    2.540E+01    2.554E+01    2.569E+01    2.585E+01    2.602E+01    2.620E+01    2.639E+01    2.659E+01    2.680E+01
     2.702E+01    2.725E+01    2.749E+01    2.774E+01    2.799E+01    2.826E+01    2.853E+01    2.880E+01    2.908E+01    2.937E+01
     2.967E+01    2.997E+01    3.028E+01    3.059E+01    3.090E+01    3.122E+01    3.154E+01    3.187E+01    3.220E+01    3.253E+01
     3.287E+01    3.321E+01    3.354E+01    3.388E+01    3.423E+01    3.457E+01    3.491E+01    3.525E+01    3.559E+01    3.593E+01
     3.627E+01    3.661E+01    3.695E+01    3.728E+01    3.762E+01    3.795E+01    3.829E+01    3.862E+01    3.895E+01    3.928E+01
     3.961E+01    3.994E+01    4.027E+01    4.060E+01    4.092E+01    4.125E+01    4.158E+01    4.190E+01    4.223E+01    4.255E+01
     4.288E+01    4.320E+01    4.352E+01    4.385E+01    4.417E+01    4.449E+01    4.482E+01    4.514E+01    4.546E+01    4.578E+01
 Mac      Conc. = 2.53E-04
  -6.74472E-01 -1.56914E+00 -2.70059E+00 -4.26121E+00 -6.37028E+00 -8.96770E+00 -1.16407E+01 -1.39009E+01 -1.53778E+01 -1.61798E+01
  -1.66951E+01 -1.74454E+01 -1.87886E+01 -2.07986E+01 -2.28098E+01 -2.29158E+01 -1.98140E+01 -1.48983E+01 -1.02433E+01 -6.55231E+00
  -3.74521E+00 -2.40362E+00 -2.53368E+00 -2.83769E+00 -2.48735E+00 -1.75335E+00 -5.43016E-01  1.04114E+00  2.32574E+00  3.01000E+00
   3.18702E+00  3.05962E+00  2.47635E+00  1.78208E+00  1.73838E+00  2.98202E+00  5.35201E+00  7.70706E+00  8.86617E+00  8.77440E+00
   8.45140E+00  8.74908E+00  9.77884E+00  1.10508E+01  1.18196E+01  1.16927E+01  1.07462E+01  9.27028E+00  7.59850E+00  6.25056E+00
   5.51283E+00  5.16390E+00  5.20919E+00  5.61923E+00  6.53310E+00  8.07453E+00  1.00860E+01  1.20335E+01  1.37228E+01  1.52807E+01
   1.63301E+01  1.63751E+01  1.56159E+01  1.45783E+01  1.36881E+01  1.32804E+01  1.34385E+01  1.40182E+01  1.53966E+01  1.81319E+01
   2.14713E+01  2.43579E+01  2.61875E+01  2.69802E+01  2.67961E+01  2.58997E+01  2.48025E+01  2.39976E+01  2.36419E+01  2.36541E+01
   2.40630E+01  2.48875E+01  2.63117E+01  2.78716E+01  2.93090E+01  3.06405E+01  3.18033E+01  3.26932E+01  3.34093E+01  3.40587E+01
   3.44783E+01  3.46132E+01  3.42268E+01  3.31199E+01  3.11411E+01  2.86938E+01  2.61924E+01  2.40447E+01  2.24600E+01  2.10483E+01
   1.91037E+01  1.62145E+01  1.23182E+01  7.13863E+00  7.88031E-01 -5.51927E+00 -9.85866E+00 -1.09942E+01 -9.03454E+00 -5.03462E+00
