 LCModel (Version 6.3-1N) Copyright: S.W. Provencher.          Ref.: Magn. Reson. Med. 30:672-679 (1993).                
 Slice_N1@13_18  28-Feb-2025 11:38:13
 27 lines in following concentration table = NCONC+1
    Conc.  %SD /Cr+PCr  Metabolite                                         
 1.32E-04   9% 1.2E-04 Mac                                                 
    5.006  39%   4.610 Cr                                                  
    3.681  51%   3.390 PCr                                                 
    5.924  16%   5.455 Ins                                                 
    8.409  10%   7.744 NAA                                                 
    6.927  15%   6.379 Tau                                                 
    0.511 238%   0.471 PCho                                                
    1.524  75%   1.404 GPC                                                 
    8.041  13%   7.405 Glu                                                 
    2.570  33%   2.366 Gln                                                 
    0.000 999%   0.000 Ala                                                 
    1.783  80%   1.642 Asc                                                 
    2.534  45%   2.333 Asp                                                 
    0.974  62%   0.897 GABA                                                
    0.409 200%   0.377 Glc                                                 
    1.241  42%   1.143 GSH                                                 
    3.253  23%   2.996 Lac                                                 
    1.778  39%   1.637 NAAG                                                
    3.016  43%   2.778 PE                                                  
    2.036  17%   1.875 GPC+PCho                                            
   10.187   8%   9.381 NAA+NAAG                                            
   10.610  13%   9.771 Glu+Gln                                             
    8.687   9%   8.000 Cr+PCr                                              
   10.187   8%   9.381 NAA+NAAG                                            
    8.687   9%   8.000 Cr+PCr                                              
   10.610  13%   9.771 Glu+Gln                                             
   6 lines in following misc. output table
  FWHM = 0.033 ppm    S/N =   3                                            
  Data shift = 0.033 ppm                                                   
  Ph:-124 deg       0.0 deg/ppm                                            
  alphaB,S = 1.9E-01,   1.3E+01                                            
   19 spline knots.   Ns = 5(1)                                            
  ( 5) 2 infls.   ( 5) 1 extrs.                                            
  480 points on ppm-axis = NY
      4.100000     4.091866     4.083733     4.075600     4.067466     4.059333     4.051199     4.043066     4.034933     4.026799
      4.018666     4.010532     4.002399     3.994265     3.986132     3.977998     3.969864     3.961731     3.953597     3.945463
      3.937330     3.929196     3.921062     3.912929     3.904795     3.896662     3.888528     3.880394     3.872261     3.864127
      3.855993     3.847860     3.839726     3.831592     3.823459     3.815325     3.807191     3.799058     3.790924     3.782790
      3.774657     3.766523     3.758389     3.750256     3.742122     3.733989     3.725855     3.717721     3.709588     3.701454
      3.693320     3.685187     3.677053     3.668919     3.660786     3.652652     3.644518     3.636385     3.628251     3.620117
      3.611984     3.603850     3.595716     3.587583     3.579449     3.571316     3.563182     3.555048     3.546915     3.538781
      3.530647     3.522514     3.514380     3.506246     3.498113     3.489979     3.481845     3.473712     3.465578     3.457444
      3.449311     3.441177     3.433043     3.424910     3.416776     3.408643     3.400509     3.392375     3.384242     3.376108
      3.367974     3.359841     3.351707     3.343573     3.335440     3.327306     3.319172     3.311039     3.302905     3.294771
      3.286638     3.278504     3.270370     3.262237     3.254103     3.245970     3.237836     3.229702     3.221569     3.213435
      3.205301     3.197168     3.189034     3.180900     3.172767     3.164633     3.156499     3.148366     3.140232     3.132098
      3.123965     3.115831     3.107697     3.099564     3.091430     3.083297     3.075163     3.067029     3.058896     3.050762
      3.042628     3.034495     3.026361     3.018227     3.010094     3.001960     2.993826     2.985693     2.977559     2.969425
      2.961292     2.953158     2.945024     2.936891     2.928757     2.920624     2.912490     2.904356     2.896223     2.888089
      2.879955     2.871822     2.863688     2.855554     2.847421     2.839287     2.831153     2.823020     2.814886     2.806752
      2.798619     2.790485     2.782351     2.774218     2.766084     2.757951     2.749817     2.741683     2.733550     2.725416
      2.717282     2.709149     2.701015     2.692881     2.684748     2.676614     2.668480     2.660347     2.652213     2.644079
      2.635946     2.627812     2.619678     2.611545     2.603411     2.595278     2.587144     2.579010     2.570877     2.562743
      2.554609     2.546476     2.538342     2.530208     2.522075     2.513941     2.505807     2.497674     2.489540     2.481406
      2.473273     2.465139     2.457006     2.448872     2.440738     2.432605     2.424471     2.416337     2.408204     2.400070
      2.391936     2.383803     2.375669     2.367535     2.359402     2.351268     2.343134     2.335001     2.326867     2.318733
      2.310600     2.302466     2.294333     2.286199     2.278065     2.269932     2.261798     2.253664     2.245531     2.237397
      2.229263     2.221130     2.212996     2.204862     2.196729     2.188595     2.180461     2.172328     2.164194     2.156060
      2.147927     2.139793     2.131660     2.123526     2.115392     2.107259     2.099125     2.090991     2.082858     2.074724
      2.066590     2.058457     2.050323     2.042189     2.034056     2.025922     2.017788     2.009655     2.001521     1.993387
      1.985254     1.977120     1.968987     1.960853     1.952719     1.944586     1.936452     1.928318     1.920185     1.912051
      1.903917     1.895784     1.887650     1.879516     1.871383     1.863249     1.855115     1.846982     1.838848     1.830714
      1.822581     1.814447     1.806314     1.798180     1.790046     1.781913     1.773779     1.765645     1.757512     1.749378
      1.741244     1.733111     1.724977     1.716843     1.708710     1.700576     1.692442     1.684309     1.676175     1.668041
      1.659908     1.651774     1.643641     1.635507     1.627373     1.619240     1.611106     1.602972     1.594839     1.586705
      1.578571     1.570438     1.562304     1.554170     1.546037     1.537903     1.529769     1.521636     1.513502     1.505368
      1.497235     1.489101     1.480968     1.472834     1.464700     1.456567     1.448433     1.440299     1.432166     1.424032
      1.415898     1.407765     1.399631     1.391497     1.383364     1.375230     1.367096     1.358963     1.350829     1.342695
      1.334562     1.326428     1.318295     1.310161     1.302027     1.293894     1.285760     1.277626     1.269493     1.261359
      1.253225     1.245092     1.236958     1.228824     1.220691     1.212557     1.204423     1.196290     1.188156     1.180022
      1.171889     1.163755     1.155622     1.147488     1.139354     1.131221     1.123087     1.114953     1.106820     1.098686
      1.090552     1.082419     1.074285     1.066151     1.058018     1.049884     1.041750     1.033617     1.025483     1.017349
      1.009216     1.001082     0.992949     0.984815     0.976681     0.968548     0.960414     0.952280     0.944147     0.936013
      0.927879     0.919746     0.911612     0.903478     0.895345     0.887211     0.879077     0.870944     0.862810     0.854676
      0.846543     0.838409     0.830276     0.822142     0.814008     0.805875     0.797741     0.789607     0.781474     0.773340
      0.765206     0.757073     0.748939     0.740805     0.732672     0.724538     0.716404     0.708271     0.700137     0.692003
      0.683870     0.675736     0.667603     0.659469     0.651335     0.643202     0.635068     0.626934     0.618801     0.610667
      0.602533     0.594400     0.586266     0.578132     0.569999     0.561865     0.553731     0.545598     0.537464     0.529330
      0.521197     0.513063     0.504930     0.496796     0.488662     0.480529     0.472395     0.464261     0.456128     0.447994
      0.439861     0.431727     0.423593     0.415460     0.407326     0.399192     0.391059     0.382925     0.374792     0.366658
      0.358524     0.350391     0.342257     0.334124     0.325990     0.317856     0.309723     0.301589     0.293455     0.285322
      0.277188     0.269055     0.260921     0.252787     0.244654     0.236520     0.228386     0.220253     0.212119     0.203986
 NY phased data points follow
   2.46796E+01  1.91308E+01  9.56549E+00  7.26245E+00  2.03427E+01  3.29023E+00  9.80726E+00  2.27334E+01  1.62592E+01  3.17689E+01
   1.62860E+01 -1.71648E+01  1.00798E+01  1.44267E+01 -1.01318E+00  5.84783E+00  3.15179E+00  9.48293E+00 -5.78088E+00 -3.24985E+01
  -2.85632E+01 -1.95793E+01 -1.53397E+01  6.07220E+00  1.12855E+01  2.85450E+01  5.51670E+01  5.10092E+01  5.44711E+01  5.78741E+01
   5.99026E+01  6.17686E+01  6.77490E+01  5.51635E+01  6.84702E+01  7.18052E+01  4.64630E+01  6.00490E+01  4.04646E+01  2.53883E+01
   8.89291E+00  1.80813E+01  1.44649E+01 -1.21740E+01  2.37172E+01  4.03868E+01  6.41925E+01  6.33663E+01  7.22313E+01  7.64056E+01
   6.22001E+01  8.47765E+01  6.79701E+01  6.92337E+01  5.42324E+01  3.78880E+01  5.22647E+01  2.33673E+01  2.05347E+01  5.06291E+01
   3.20526E+01  2.09874E+01  4.19112E+01  4.39671E+01  5.02799E+01  5.74758E+01  8.09246E+01  6.93749E+01  3.02896E+01  3.45741E+01
   3.64038E+01  2.58097E+01  2.86437E+01  4.67915E+01  5.20025E+01  6.81858E+01  8.28140E+01  7.44066E+01  7.22747E+01  7.54598E+01
   7.55246E+01  7.04591E+01  5.37123E+01  3.94256E+01  4.62107E+01  2.82750E+01  2.12754E+01  4.32914E+01  5.78949E+01  5.95090E+01
   6.24115E+01  8.86956E+01  8.67802E+01  8.48055E+01  9.82925E+01  9.10009E+01  9.70833E+01  1.03705E+02  9.04390E+01  9.19286E+01
   9.89795E+01  9.29602E+01  8.25966E+01  8.59142E+01  7.38113E+01  5.07118E+01  5.00807E+01  3.03167E+01  2.31622E+01 -2.95667E+01
  -7.25935E+01 -6.97321E+01 -9.09887E+01 -4.98189E+01 -3.95032E+01 -2.29723E+01  1.23970E+01  1.09907E+01  1.68982E+01  1.49912E+01
   2.01146E+01  2.11406E+01  5.18405E+01  4.09167E+01  4.48765E+01  6.99011E+01  6.33001E+01  8.75032E+01  7.29015E+01  1.13363E+02
   1.48722E+02  9.47805E+01  7.43915E+01  4.23074E+01 -1.39907E+01 -3.38237E+01 -3.99584E+01 -2.91988E+01 -2.04721E+01 -3.27818E+01
  -1.67953E+01 -1.83175E+01 -3.27339E+01 -2.01394E+01 -1.43836E+01 -1.93156E+01 -2.55656E+01 -2.63244E+01 -1.63090E+01 -8.84728E+00
  -5.87574E+00 -8.98957E-01 -1.18500E+01 -3.66934E+00  7.55565E+00  2.85783E-01  4.60350E+00  1.12919E+01  9.79564E+00  1.44474E+01
   1.63189E+01  5.06161E+00  1.38250E+01  1.39654E+01  1.42338E+01  8.02588E+00  1.18548E+01  1.97925E+01  6.35648E+00  1.92249E+01
   1.23127E+01  3.55878E+01  5.23363E+01  4.01557E+01  4.02801E+01  2.97308E+01  4.93110E+01  4.50794E+01  2.64782E+01  2.25276E+01
   2.32870E+01  6.92829E+00  4.60554E+00  1.86136E+01 -4.13587E+00 -4.40305E+00  7.81183E-02  8.54252E+00  6.76365E+00 -1.28201E+00
   1.47239E+01  2.54543E+00  9.94572E+00  2.47865E+01  1.34240E+01  2.32355E+01  1.88364E+01  2.23473E+01  3.98569E+01  2.88115E+01
   3.45943E+01  3.63341E+01  4.59628E+01  5.01431E+01  2.72989E+01  3.19300E+01  3.57164E+01  1.80164E+01 -1.26582E+01 -4.78738E+00
  -3.52987E+00 -1.99956E+01  2.97510E+00 -2.94614E+00  9.29833E+00  4.46346E+01  4.86115E+01  5.70545E+01  4.81502E+01  4.72088E+01
   4.79212E+01  2.03008E+01  3.08497E+01  3.25406E+01  2.42009E+01  3.59959E+01  2.37823E+01  3.27345E+01  3.78431E+01  3.98662E+01
   5.08183E+01  3.22784E+01  3.29371E+01  3.24559E+01  1.09706E+01  6.88570E+00 -6.65413E+00 -1.26692E+01 -1.93374E+00 -5.48047E+00
  -1.49316E+01 -1.59484E+01  4.44647E+00 -8.55216E-01  6.18793E+00  2.49216E+01  1.67559E+01  2.13317E+01  1.01532E+01  7.85829E+00
  -1.33699E+01 -1.97496E+01 -1.00838E+01 -1.85099E+01 -9.64159E+00 -4.93022E+01 -3.45207E+01  5.32542E+01  8.03923E+01  8.08268E+01
   1.29961E+02  1.49452E+02  1.27950E+02  1.28207E+02  1.00186E+02  9.71839E+01  1.01340E+02  8.42321E+01  9.45372E+01  1.01051E+02
   8.67755E+01  8.59100E+01  9.29274E+01  9.36059E+01  1.00922E+02  8.29539E+01  8.41734E+01  9.44471E+01  9.68871E+01  9.48632E+01
   9.32896E+01  1.02756E+02  7.88632E+01  8.50227E+01  8.08347E+01  7.40551E+01  8.20622E+01  6.04142E+01  7.11689E+01  7.58383E+01
   7.63904E+01  7.17304E+01  5.29252E+01  6.14323E+01  4.95302E+01  3.74608E+01  4.50808E+01  3.08608E+01  2.84511E+01  1.62602E+01
   2.25342E+01  4.08609E+01  2.03960E+01  3.59284E+01  3.67007E+01  2.81393E+01  2.80763E+01  2.37662E+01  3.04657E+01  3.69803E+01
   5.03646E+01  4.37786E+01  5.37393E+01  3.72212E+01  3.42195E+01  3.86897E+01  2.54281E+01  4.59880E+01  2.92738E+01  4.21317E+01
   5.39523E+01  4.73062E+01  5.74390E+01  5.71267E+01  7.15288E+01  8.41176E+01  7.91593E+01  8.26595E+01  1.23578E+02  1.12124E+02
   8.97506E+01  8.29197E+01  7.70104E+01  1.03108E+02  8.28806E+01  8.30984E+01  9.84246E+01  9.51193E+01  1.13839E+02  1.01289E+02
   7.69561E+01  7.86915E+01  7.59971E+01  6.58271E+01  5.46625E+01  5.16854E+01  6.03663E+01  6.20426E+01  6.04731E+01  5.46422E+01
   6.17520E+01  5.90791E+01  6.12254E+01  7.06672E+01  5.22276E+01  5.20700E+01  4.36304E+01  3.70031E+01  3.82242E+01  2.41999E+01
   2.04380E+01  2.10581E+01  2.12744E+01  2.04238E+01  2.85310E+01  3.92870E+01  4.44137E+01  4.24166E+01  3.87937E+01  5.17937E+01
   5.63699E+01  3.57271E+01  5.01204E+01  6.05149E+01  4.96199E+01  5.52517E+01  4.21367E+01  6.17679E+01  6.86236E+01  5.60331E+01
   6.47070E+01  6.87538E+01  8.89480E+01  9.24753E+01  9.18729E+01  9.04817E+01  9.07472E+01  9.82101E+01  1.03203E+02  1.06903E+02
   1.06176E+02  1.01299E+02  7.71291E+01  6.63790E+01  6.67971E+01  6.99745E+01  7.23449E+01  6.17647E+01  4.57705E+01  3.96208E+01
   3.57723E+01  2.52761E+01  1.70894E+01  8.46894E+00  2.05231E+01  6.05698E+00 -4.41242E+00  3.16375E+00 -1.35468E+01  1.21131E+01
   5.70839E+00 -1.10633E+01  2.71343E+01  6.14945E+00 -1.03288E+01  1.02071E+01  4.13863E+00  3.69603E+00  1.89766E+00  2.42957E+00
   3.74341E-01  3.69207E+00  8.97128E-01  3.40919E+00  7.87608E+00 -1.43977E+01  4.70565E+00  9.19005E+00  5.73151E+00  9.85922E+00
  -2.90468E-01  1.33577E+01  1.29419E+01  9.56125E+00 -3.70635E+00 -3.58922E+00  5.39687E+00 -4.64164E+00 -1.22513E+01 -2.85167E+00
   1.71892E+01  1.45707E+01  7.52170E+00  7.12358E+00  1.00890E+01 -1.78758E+00 -6.53282E+00  6.01292E+00  9.71350E+00  1.30716E+00
  -2.11364E+00 -2.38356E+00 -1.72124E+00  1.10464E+01  5.25570E+00  8.50674E+00 -5.32131E+00 -2.08055E+00  2.28432E+01  4.46032E+00
   3.68922E+00  8.83200E+00  7.07084E+00  9.91184E+00  1.22405E+01  1.12055E+01  9.29409E+00  3.02392E+00  1.46545E+01  1.60093E+01
   8.90000E-01  1.58084E+01  4.77905E+00  6.38482E+00  1.14730E+01 -3.42668E+00  7.00784E+00  1.80285E+01  4.25745E+00 -2.00968E+00
 NY points of the fit to the data follow
   1.37262E+01  1.30484E+01  1.03733E+01  7.36882E+00  8.68902E+00  1.46662E+01  2.05082E+01  2.35581E+01  2.41117E+01  2.12117E+01
   1.51423E+01  8.74873E+00  4.15543E+00  1.58748E+00  1.13761E+00  2.37222E+00  4.17831E+00  3.63783E+00 -3.58201E+00 -1.39437E+01
  -2.03846E+01 -2.25587E+01 -1.53107E+01  4.89450E+00  2.73432E+01  4.46040E+01  5.83195E+01  6.77473E+01  7.09089E+01  7.08546E+01
   7.07787E+01  7.00190E+01  6.82419E+01  6.57816E+01  6.30622E+01  6.01174E+01  5.62861E+01  5.06502E+01  4.13019E+01  2.79470E+01
   1.59361E+01  9.86215E+00  9.38783E+00  1.45339E+01  2.55658E+01  3.87315E+01  4.97905E+01  5.79222E+01  6.32351E+01  6.54765E+01
   6.52719E+01  6.24640E+01  5.70372E+01  5.01233E+01  4.30427E+01  3.83650E+01  3.67413E+01  3.21708E+01  2.65569E+01  2.76734E+01
   2.99241E+01  3.01339E+01  3.59611E+01  4.64058E+01  5.45645E+01  6.06799E+01  6.52713E+01  6.16206E+01  4.92729E+01  3.92434E+01
   3.46702E+01  3.09027E+01  3.11176E+01  3.90154E+01  4.91872E+01  5.72928E+01  6.47547E+01  7.17058E+01  7.61250E+01  7.62064E+01
   7.23297E+01  6.34807E+01  4.96611E+01  3.55662E+01  2.53063E+01  2.12049E+01  2.48939E+01  3.36528E+01  4.41431E+01  5.39746E+01
   6.23404E+01  6.85162E+01  7.33511E+01  7.76753E+01  8.17308E+01  8.59100E+01  9.04820E+01  9.40648E+01  9.63097E+01  1.00132E+02
   1.03854E+02  1.01626E+02  9.63133E+01  8.83642E+01  7.49343E+01  6.18773E+01  5.62035E+01  4.64763E+01  1.49458E+01 -2.67571E+01
  -5.35873E+01 -6.59517E+01 -6.81345E+01 -5.70287E+01 -3.67804E+01 -1.93494E+01 -7.94203E+00  9.40312E-01  8.47135E+00  1.52309E+01
   2.15731E+01  2.78360E+01  3.43877E+01  4.14709E+01  4.93755E+01  5.83739E+01  6.83462E+01  7.88627E+01  9.31607E+01  1.19990E+02
   1.39482E+02  1.18665E+02  7.23054E+01  3.15746E+01 -3.41810E+00 -3.11562E+01 -4.01806E+01 -3.38292E+01 -2.70654E+01 -2.30595E+01
  -2.01470E+01 -1.81555E+01 -1.66863E+01 -1.55010E+01 -1.46613E+01 -1.36052E+01 -1.20219E+01 -1.01903E+01 -8.36944E+00 -6.57016E+00
  -4.84050E+00 -3.24594E+00 -1.61112E+00  3.17646E-01  2.70967E+00  5.10578E+00  6.67926E+00  7.30670E+00  7.79688E+00  9.15350E+00
   1.13101E+01  1.27370E+01  1.26201E+01  1.18812E+01  1.13216E+01  1.09075E+01  1.05587E+01  1.05811E+01  1.13732E+01  1.42663E+01
   2.09279E+01  2.91032E+01  3.36506E+01  3.41893E+01  3.46753E+01  3.66040E+01  3.86115E+01  3.83681E+01  3.51215E+01  3.00827E+01
   2.36225E+01  1.64605E+01  1.08800E+01  7.79660E+00  6.18010E+00  5.14290E+00  4.69007E+00  4.59371E+00  4.81609E+00  5.92185E+00
   7.34752E+00  8.07812E+00  1.12328E+01  1.74488E+01  2.15321E+01  2.37062E+01  2.73232E+01  3.09738E+01  3.23750E+01  3.18327E+01
   3.18770E+01  3.32824E+01  3.40301E+01  3.31967E+01  3.17551E+01  2.96241E+01  2.54219E+01  1.98791E+01  1.47099E+01  9.71395E+00
   4.51471E+00  1.81677E+00  2.96620E+00  7.62190E+00  1.88451E+01  3.35649E+01  4.66774E+01  5.80230E+01  6.41482E+01  6.31771E+01
   5.89885E+01  5.45468E+01  5.08383E+01  4.81435E+01  4.68076E+01  4.52313E+01  4.23951E+01  3.79155E+01  3.21572E+01  2.56197E+01
   1.84540E+01  1.14573E+01  5.15840E+00 -8.22203E-01 -5.48957E+00 -8.56304E+00 -1.10101E+01 -1.16929E+01 -1.06213E+01 -9.58250E+00
  -7.41785E+00 -3.85299E+00  4.52963E-02  4.34157E+00  8.38611E+00  1.14599E+01  1.28210E+01  1.15681E+01  9.07045E+00  5.08423E+00
  -2.03924E+00 -1.04308E+01 -1.30369E+01 -1.33989E+01 -2.97396E+01 -4.51999E+01 -2.36544E+01  2.02821E+01  5.71318E+01  8.92234E+01
   1.15684E+02  1.24193E+02  1.17198E+02  1.09301E+02  1.03537E+02  9.86244E+01  9.41522E+01  8.98614E+01  8.60178E+01  8.29248E+01
   8.05104E+01  7.91212E+01  7.87025E+01  7.87966E+01  7.93369E+01  8.00542E+01  8.06533E+01  8.09576E+01  8.09078E+01  8.04551E+01
   7.96524E+01  7.87012E+01  7.75668E+01  7.63279E+01  7.50721E+01  7.37952E+01  7.24600E+01  7.10078E+01  6.93973E+01  6.76893E+01
   6.58801E+01  6.39584E+01  6.21154E+01  6.06219E+01  5.96312E+01  5.92252E+01  5.93963E+01  5.99812E+01  6.08374E+01  6.19017E+01
   6.30701E+01  6.42617E+01  6.54620E+01  6.66224E+01  6.76853E+01  6.87102E+01  6.98169E+01  7.09662E+01  7.20919E+01  7.31618E+01
   7.41319E+01  7.50247E+01  7.58414E+01  7.64764E+01  7.69482E+01  7.72623E+01  7.72423E+01  7.68555E+01  7.62973E+01  7.55209E+01
   7.44154E+01  7.31006E+01  7.16678E+01  7.00165E+01  6.79733E+01  6.53479E+01  6.21555E+01  5.86113E+01  5.49926E+01  5.15888E+01
   4.87916E+01  4.69511E+01  4.62746E+01  4.69060E+01  4.87720E+01  5.15996E+01  5.51014E+01  5.91041E+01  6.40070E+01  6.82712E+01
   6.73863E+01  6.16444E+01  5.24877E+01  4.04499E+01  3.07931E+01  2.71637E+01  2.74700E+01  3.01637E+01  3.41221E+01  3.76160E+01
   3.90249E+01  3.92491E+01  3.86170E+01  3.75737E+01  3.65371E+01  3.57291E+01  3.53607E+01  3.55485E+01  3.62267E+01  3.73101E+01
   3.86918E+01  4.02543E+01  4.18867E+01  4.35115E+01  4.50683E+01  4.65113E+01  4.78694E+01  4.91974E+01  5.04861E+01  5.17463E+01
   5.30449E+01  5.43563E+01  5.57031E+01  5.72513E+01  5.89973E+01  6.08627E+01  6.30169E+01  6.55111E+01  6.81338E+01  7.08958E+01
   7.39669E+01  7.72161E+01  8.03978E+01  8.33517E+01  8.57347E+01  8.69767E+01  8.65986E+01  8.44200E+01  8.07202E+01  7.61260E+01
   7.12246E+01  6.64782E+01  6.22724E+01  5.85917E+01  5.49975E+01  5.11987E+01  4.71913E+01  4.29024E+01  3.84400E+01  3.42585E+01
   3.06029E+01  2.74774E+01  2.49189E+01  2.29736E+01  2.15049E+01  2.03270E+01  1.93578E+01  1.85066E+01  1.77094E+01  1.69830E+01
   1.63809E+01  1.58708E+01  1.54067E+01  1.50348E+01  1.47637E+01  1.44600E+01  1.40448E+01  1.36835E+01  1.34646E+01  1.32186E+01
   1.29095E+01  1.26465E+01  1.24310E+01  1.21760E+01  1.18645E+01  1.15562E+01  1.13243E+01  1.11573E+01  1.09694E+01  1.07604E+01
   1.05353E+01  1.02481E+01  9.92404E+00  9.64865E+00  9.41908E+00  9.21624E+00  9.07124E+00  8.94205E+00  8.77933E+00  8.61307E+00
   8.45772E+00  8.25482E+00  7.96097E+00  7.64468E+00  7.37442E+00  7.14556E+00  6.92666E+00  6.76673E+00  6.62797E+00  6.40655E+00
   6.16153E+00  5.98731E+00  5.82838E+00  5.67440E+00  5.55974E+00  5.44424E+00  5.29735E+00  5.15605E+00  5.01205E+00  4.84305E+00
   4.63995E+00  4.41139E+00  4.18405E+00  3.97206E+00  3.79904E+00  3.72730E+00  3.73522E+00  3.73295E+00  3.65785E+00  3.49958E+00
   3.27467E+00  3.06088E+00  2.89726E+00  2.73114E+00  2.61537E+00  2.57445E+00  2.49131E+00  2.35896E+00  2.30638E+00  2.31493E+00
 NY background values follow
     3.349E+01    3.359E+01    3.368E+01    3.378E+01    3.387E+01    3.397E+01    3.407E+01    3.416E+01    3.426E+01    3.436E+01
     3.445E+01    3.455E+01    3.465E+01    3.474E+01    3.484E+01    3.494E+01    3.504E+01    3.513E+01    3.523E+01    3.533E+01
     3.542E+01    3.552E+01    3.562E+01    3.571E+01    3.581E+01    3.591E+01    3.600E+01    3.610E+01    3.619E+01    3.629E+01
     3.638E+01    3.648E+01    3.657E+01    3.667E+01    3.676E+01    3.685E+01    3.695E+01    3.704E+01    3.713E+01    3.722E+01
     3.731E+01    3.740E+01    3.748E+01    3.757E+01    3.765E+01    3.773E+01    3.781E+01    3.789E+01    3.797E+01    3.805E+01
     3.812E+01    3.819E+01    3.826E+01    3.833E+01    3.839E+01    3.845E+01    3.851E+01    3.857E+01    3.863E+01    3.868E+01
     3.873E+01    3.877E+01    3.882E+01    3.886E+01    3.889E+01    3.893E+01    3.896E+01    3.899E+01    3.902E+01    3.904E+01
     3.906E+01    3.908E+01    3.909E+01    3.911E+01    3.912E+01    3.912E+01    3.913E+01    3.913E+01    3.913E+01    3.913E+01
     3.912E+01    3.911E+01    3.910E+01    3.909E+01    3.907E+01    3.905E+01    3.903E+01    3.901E+01    3.898E+01    3.895E+01
     3.892E+01    3.889E+01    3.885E+01    3.881E+01    3.877E+01    3.873E+01    3.868E+01    3.864E+01    3.859E+01    3.854E+01
     3.848E+01    3.843E+01    3.838E+01    3.832E+01    3.826E+01    3.820E+01    3.814E+01    3.808E+01    3.802E+01    3.796E+01
     3.789E+01    3.783E+01    3.776E+01    3.770E+01    3.763E+01    3.757E+01    3.750E+01    3.743E+01    3.737E+01    3.730E+01
     3.724E+01    3.717E+01    3.710E+01    3.704E+01    3.697E+01    3.691E+01    3.684E+01    3.678E+01    3.672E+01    3.665E+01
     3.659E+01    3.653E+01    3.647E+01    3.641E+01    3.635E+01    3.629E+01    3.623E+01    3.617E+01    3.612E+01    3.606E+01
     3.601E+01    3.595E+01    3.590E+01    3.585E+01    3.580E+01    3.575E+01    3.571E+01    3.566E+01    3.561E+01    3.557E+01
     3.553E+01    3.549E+01    3.545E+01    3.541E+01    3.537E+01    3.534E+01    3.530E+01    3.527E+01    3.524E+01    3.521E+01
     3.518E+01    3.516E+01    3.513E+01    3.511E+01    3.509E+01    3.506E+01    3.504E+01    3.503E+01    3.501E+01    3.499E+01
     3.498E+01    3.496E+01    3.495E+01    3.494E+01    3.493E+01    3.493E+01    3.492E+01    3.491E+01    3.491E+01    3.491E+01
     3.491E+01    3.491E+01    3.491E+01    3.491E+01    3.492E+01    3.492E+01    3.493E+01    3.494E+01    3.495E+01    3.496E+01
     3.497E+01    3.498E+01    3.500E+01    3.502E+01    3.503E+01    3.505E+01    3.507E+01    3.510E+01    3.512E+01    3.515E+01
     3.517E+01    3.520E+01    3.523E+01    3.526E+01    3.530E+01    3.533E+01    3.537E+01    3.541E+01    3.545E+01    3.549E+01
     3.553E+01    3.558E+01    3.562E+01    3.567E+01    3.572E+01    3.577E+01    3.582E+01    3.587E+01    3.592E+01    3.598E+01
     3.603E+01    3.609E+01    3.614E+01    3.620E+01    3.626E+01    3.631E+01    3.637E+01    3.643E+01    3.648E+01    3.654E+01
     3.659E+01    3.665E+01    3.671E+01    3.676E+01    3.682E+01    3.687E+01    3.692E+01    3.697E+01    3.702E+01    3.707E+01
     3.712E+01    3.717E+01    3.721E+01    3.726E+01    3.730E+01    3.734E+01    3.738E+01    3.742E+01    3.746E+01    3.749E+01
     3.753E+01    3.756E+01    3.759E+01    3.762E+01    3.764E+01    3.767E+01    3.769E+01    3.771E+01    3.773E+01    3.775E+01
     3.776E+01    3.778E+01    3.779E+01    3.779E+01    3.780E+01    3.780E+01    3.781E+01    3.780E+01    3.780E+01    3.780E+01
     3.779E+01    3.778E+01    3.776E+01    3.775E+01    3.773E+01    3.772E+01    3.770E+01    3.768E+01    3.766E+01    3.764E+01
     3.762E+01    3.760E+01    3.758E+01    3.756E+01    3.754E+01    3.752E+01    3.750E+01    3.749E+01    3.748E+01    3.747E+01
     3.746E+01    3.745E+01    3.745E+01    3.745E+01    3.746E+01    3.746E+01    3.747E+01    3.749E+01    3.751E+01    3.753E+01
     3.756E+01    3.760E+01    3.764E+01    3.768E+01    3.772E+01    3.777E+01    3.783E+01    3.788E+01    3.794E+01    3.800E+01
     3.806E+01    3.812E+01    3.818E+01    3.824E+01    3.831E+01    3.837E+01    3.843E+01    3.849E+01    3.855E+01    3.861E+01
     3.867E+01    3.872E+01    3.877E+01    3.882E+01    3.886E+01    3.890E+01    3.893E+01    3.897E+01    3.899E+01    3.901E+01
     3.903E+01    3.904E+01    3.904E+01    3.904E+01    3.903E+01    3.901E+01    3.899E+01    3.896E+01    3.893E+01    3.889E+01
     3.884E+01    3.879E+01    3.873E+01    3.867E+01    3.859E+01    3.852E+01    3.843E+01    3.834E+01    3.824E+01    3.813E+01
     3.802E+01    3.790E+01    3.778E+01    3.764E+01    3.750E+01    3.735E+01    3.720E+01    3.704E+01    3.687E+01    3.669E+01
     3.651E+01    3.631E+01    3.612E+01    3.591E+01    3.570E+01    3.548E+01    3.525E+01    3.502E+01    3.478E+01    3.453E+01
     3.428E+01    3.402E+01    3.376E+01    3.349E+01    3.322E+01    3.294E+01    3.265E+01    3.236E+01    3.207E+01    3.177E+01
     3.146E+01    3.115E+01    3.084E+01    3.052E+01    3.020E+01    2.987E+01    2.954E+01    2.921E+01    2.887E+01    2.853E+01
     2.819E+01    2.784E+01    2.749E+01    2.713E+01    2.678E+01    2.642E+01    2.606E+01    2.570E+01    2.533E+01    2.497E+01
     2.460E+01    2.423E+01    2.386E+01    2.349E+01    2.312E+01    2.274E+01    2.237E+01    2.200E+01    2.162E+01    2.125E+01
     2.088E+01    2.050E+01    2.013E+01    1.976E+01    1.939E+01    1.902E+01    1.865E+01    1.829E+01    1.792E+01    1.756E+01
     1.720E+01    1.684E+01    1.648E+01    1.613E+01    1.578E+01    1.542E+01    1.508E+01    1.473E+01    1.438E+01    1.404E+01
     1.370E+01    1.336E+01    1.303E+01    1.269E+01    1.236E+01    1.203E+01    1.170E+01    1.137E+01    1.104E+01    1.072E+01
     1.040E+01    1.008E+01    9.759E+00    9.442E+00    9.127E+00    8.814E+00    8.502E+00    8.192E+00    7.883E+00    7.577E+00
     7.271E+00    6.968E+00    6.666E+00    6.365E+00    6.066E+00    5.768E+00    5.471E+00    5.175E+00    4.881E+00    4.587E+00
     4.295E+00    4.003E+00    3.712E+00    3.422E+00    3.133E+00    2.844E+00    2.556E+00    2.268E+00    1.980E+00    1.693E+00
     1.406E+00    1.120E+00    8.334E-01    5.469E-01    2.605E-01   -2.601E-02   -3.127E-01   -5.996E-01   -8.867E-01   -1.174E+00
 Mac      Conc. = 1.32E-04
   2.39732E+01  2.38838E+01  2.38194E+01  2.36813E+01  2.33901E+01  2.29193E+01  2.23144E+01  2.16659E+01  2.11230E+01  2.07523E+01
   2.05551E+01  2.05092E+01  2.04489E+01  2.01364E+01  1.95735E+01  1.92933E+01  1.98387E+01  2.09831E+01  2.24572E+01  2.43495E+01
   2.63476E+01  2.79108E+01  2.90126E+01  2.99326E+01  3.07274E+01  3.14502E+01  3.22734E+01  3.32124E+01  3.41311E+01  3.49602E+01
   3.56918E+01  3.62682E+01  3.65861E+01  3.66893E+01  3.67715E+01  3.70894E+01  3.77785E+01  3.86694E+01  3.94440E+01  3.99780E+01
   4.03471E+01  4.06480E+01  4.10268E+01  4.15273E+01  4.20181E+01  4.23568E+01  4.24781E+01  4.23297E+01  4.19139E+01  4.14077E+01
   4.09546E+01  4.05615E+01  4.02561E+01  4.00424E+01  3.99607E+01  4.01431E+01  4.05590E+01  4.10324E+01  4.16215E+01  4.23556E+01
   4.29539E+01  4.32944E+01  4.34085E+01  4.32870E+01  4.30076E+01  4.27353E+01  4.24710E+01  4.22145E+01  4.22161E+01  4.26788E+01
   4.34342E+01  4.42778E+01  4.51183E+01  4.58205E+01  4.61958E+01  4.62428E+01  4.60787E+01  4.58197E+01  4.55355E+01  4.52370E+01
   4.49701E+01  4.48677E+01  4.49302E+01  4.50983E+01  4.53753E+01  4.57377E+01  4.60879E+01  4.63709E+01  4.66092E+01  4.68194E+01
   4.69360E+01  4.69942E+01  4.69432E+01  4.66465E+01  4.60671E+01  4.52498E+01  4.41821E+01  4.30258E+01  4.19784E+01  4.09789E+01
   3.98814E+01  3.86963E+01  3.73112E+01  3.54834E+01  3.30816E+01  3.02983E+01  2.76434E+01  2.55362E+01  2.42035E+01  2.37923E+01
