 
 $NMID
 ID=''
 FMTDAT='(2E13.5)'
 TRAMP=   1.00000E+0
 VOLUME=   1.00000E+0
 $END
   1.00144E+4   3.90312E+3
  -8.38127E+2  -5.34795E+3
  -5.38702E+3   1.28522E+3
   7.05225E+3   2.93552E+3
   1.10829E+3  -1.30655E+3
  -5.56984E+3   1.51319E+3
   2.44577E+3  -8.74937E+2
   1.70123E+3  -4.46751E+3
  -2.31130E+3   1.26890E+3
   3.20693E+3   2.43082E+3
   1.03299E+3  -4.08337E+2
  -3.87573E+3   1.84280E+3
   6.49905E+2   1.99595E+2
   9.53483E+2  -1.07760E+3
  -3.38354E+3   2.18039E+3
  -1.67581E+3  -2.67554E+2
   1.24875E+3  -3.78190E+3
   1.11024E+3   6.28506E+2
   7.89114E+2   1.12888E+3
  -4.44544E+2  -1.51334E+3
  -6.80769E+2   8.45565E+2
   6.29881E+2   5.59435E+2
   8.84594E+2  -1.75382E+3
   4.63112E+2   1.10751E+3
  -4.60546E+2   1.52632E+3
  -1.14794E+3  -1.88711E+3
   1.33775E+3  -8.05278E+2
   2.18781E+3   1.98616E+3
  -1.19890E+3   7.69569E+2
  -8.09167E+2  -8.30004E+2
   1.49671E+3  -4.83959E+2
   3.27524E+2   9.89989E+2
  -6.73864E+2   1.28336E+3
  -3.29693E+2   3.34870E+2
  -1.40974E+3  -5.14046E+2
  -1.29136E+3  -1.35952E+3
   1.31213E+3  -1.56378E+3
   1.48003E+3   4.23302E+2
   2.27447E+2   9.59297E+2
   1.01351E+2  -8.88575E+1
   3.45867E+2   6.89706E+2
  -3.70774E+2   1.14269E+3
  -1.09487E+3  -3.29109E+2
  -4.97642E+2  -1.56509E+3
   3.85932E+2  -7.31597E+2
   7.15102E+2  -3.67358E+2
   1.35551E+3   9.90177E+1
   6.68201E+2   1.48907E+3
  -7.15296E+2   1.27880E+3
  -1.15041E+3   3.57877E+2
  -8.13528E+2  -5.82901E+2
  -2.73143E+2  -3.29168E+2
  -2.63493E+2  -3.72408E+2
   3.35152E+1  -2.82178E+2
   2.82236E+2  -5.14303E+2
   6.96349E+2  -2.36712E+2
   2.91088E+2   1.05150E+3
  -4.30744E+2   7.59065E+2
  -1.05533E+3  -3.24766E+2
  -2.75339E+2  -9.05207E+2
   2.86593E+2  -4.61364E+2
   6.30712E+2  -2.30657E+2
   9.65065E+2  -4.35232E+2
   8.85260E+2   2.53919E+2
   1.94066E+2   1.31260E+3
  -5.11560E+2   1.27236E+3
  -8.78642E+2   6.03108E+1
  -1.07380E+3  -2.01460E+2
  -6.91240E+2  -8.04585E+2
   2.52477E+2  -4.00680E+2
   4.61339E+2   3.44884E+2
  -3.45418E+2   2.28944E+2
  -3.68237E+2  -3.67241E+2
   3.35811E+2  -3.89132E+2
   5.66316E+2   2.08502E+2
  -3.58947E+2   2.17127E+2
  -3.60105E+2  -1.53449E+2
   8.06022E+1  -2.12421E+2
   3.84479E+2  -1.03862E+2
   9.08328E+1   3.54383E+2
  -1.65436E+2   4.92765E+2
  -2.12449E+1   2.06914E+2
  -1.96993E+2  -8.81731E+1
  -5.87272E+1   2.23534E+1
  -1.06486E+2   1.17235E+2
  -3.89235E+2   1.02940E+2
  -4.08893E+2  -1.91346E+2
   1.06506E+1  -2.89089E+2
   2.43363E+2  -2.12277E+2
   2.22518E+2   4.33003E+0
   1.31309E+2  -1.96974E+2
   9.47805E+1  -2.31448E+2
   5.45814E+2  -1.47148E+2
   5.66038E+2   5.31608E+2
  -1.09652E+2   6.35096E+2
  -2.19915E+2   6.67927E+1
  -4.56692E+2   7.70767E+0
   7.07568E+1  -2.02666E+2
  -1.78944E+2  -4.10072E+1
  -4.76937E+2   2.39680E+2
  -2.78389E+2  -5.65380E+2
   2.24627E+2  -3.04687E+2
   4.18880E+1  -2.37727E+2
  -2.45062E+2   4.20954E+2
  -2.50922E+2  -2.29363E+2
  -2.36658E+2  -3.02330E+2
   1.13568E+2  -2.67766E+2
   4.05271E+2  -8.22350E+1
   2.61803E+2   4.76909E+2
  -3.02935E+2   2.77051E+2
  -6.53796E+2  -3.15507E+2
   1.71500E+1  -6.49893E+2
   1.78167E+2  -3.33906E+2
  -3.03920E+1  -1.45453E+2
   7.88939E+1  -5.56472E+1
   3.92919E+1  -1.85930E+2
   3.14738E+2   8.57108E+1
   1.38300E+2   4.55913E+2
  -5.10525E+2   4.26699E+2
  -5.09135E+2  -9.60289E+1
  -4.14676E+1  -2.74592E+2
  -1.00379E+2  -3.23767E+2
   3.95828E+1  -2.71566E+2
   8.23822E+1  -8.53200E+1
   2.95555E+2   1.00114E+2
   2.97392E+2   6.54842E+1
   2.77859E+1   2.56598E+2
   1.17856E+1   2.71191E+2
  -1.00989E+2   1.37002E+2
  -1.62018E+2  -2.33607E+2
   6.74496E+1  -2.56687E+2
   1.23113E+2   1.27317E+2
   9.66793E+1   2.85637E+2
  -1.64861E+2  -6.31662E+1
   5.10727E+1  -1.58383E+2
  -6.40645E+1   7.04997E+1
  -2.06611E+2  -1.49082E+2
  -1.24447E+2  -2.95375E+1
   1.39743E+1  -2.20565E+2
   1.14071E+2  -6.66678E+1
   1.74718E+2  -6.74024E+1
  -1.55226E+2   3.37215E+1
  -2.11432E+2   1.86970E+2
   9.58318E+1  -1.56551E+2
   1.26211E+2   1.79926E+1
   8.13021E+1   7.59093E+1
   1.70626E+2  -2.44678E+0
  -7.77999E+1  -3.50054E+2
   2.57258E+1   4.52029E+1
  -4.72208E+1  -1.10308E+2
  -8.24860E+1   3.46289E+1
  -7.41068E+1  -1.11066E+1
  -5.08702E+1  -1.76578E+2
  -2.47181E+1  -2.22739E+2
  -1.61730E+2   1.11902E+2
  -1.46153E+1  -1.67642E+1
   1.71315E+2  -3.60444E+1
  -3.09021E+1  -6.27394E+1
   1.56257E+2  -1.51203E+2
   7.08580E+1  -7.12018E+1
   1.04699E+2   6.19788E+1
   2.32044E+1  -8.81386E+1
   2.29535E+1   2.74763E+2
  -6.67593E+1   1.38664E+2
  -4.75496E+1   1.42053E+2
  -9.85702E+1   1.55177E+2
  -8.55161E+1   1.08300E+1
   1.02543E+2  -6.94110E+1
   1.63331E+2   1.45682E+2
   1.75246E+2  -5.59005E+1
  -1.01032E+2   1.67114E+2
  -1.20637E+2   9.93838E+1
  -1.17836E+2  -1.28367E+2
   1.62457E+2  -1.57148E+2
   2.66514E+2  -1.87255E+1
   3.65225E+1  -1.03881E+2
   1.98300E+2  -2.00949E+1
   2.10507E+2  -4.50916E+1
   1.10167E+2  -1.17907E+2
   1.24848E+2   1.26150E+2
   3.30659E+2  -4.52365E+1
   1.69044E+2  -8.86043E+1
   1.52967E+2   5.43040E+1
   1.90284E+2   1.43587E+2
   6.33355E+1  -4.02522E+1
   1.88625E+1  -2.13553E+1
   1.59290E+2  -1.27171E+2
   2.45670E+2  -8.66320E+1
  -9.20219E+1  -2.67415E+2
   6.48536E+1  -1.59871E+2
   1.75173E+2   3.19895E+1
   8.78473E+1  -5.44482E+0
   7.82883E+1  -4.13957E+1
   6.11322E+1   9.05779E+1
   1.02597E+2   1.30616E+2
   3.92149E+1  -1.65591E+2
   1.44654E+2   1.88951E+2
   1.44157E+2  -6.15927E+1
  -7.44885E+1  -6.14790E+1
   2.01359E+2   7.66034E+1
   3.82660E+1  -8.70746E+0
   3.05059E+2  -1.73315E+2
   2.23178E+2  -8.05456E+1
   1.31991E+1   2.63086E+1
   1.50262E+1   1.44000E+2
   6.98170E+1  -1.19224E+2
   5.04652E+1   6.39875E+0
  -1.39556E+2   1.62831E+0
  -4.23100E+1   1.38578E+2
   3.43706E+2  -4.03735E+1
   2.54595E+2  -1.94235E+2
  -2.16585E+1   8.18545E+1
  -2.19269E+1  -5.58828E+1
  -3.79387E+1   1.93082E+2
  -3.56250E+1  -8.58321E+1
   2.19554E+2  -6.99379E+1
  -1.95046E+2   3.08691E+1
  -2.42791E+1   1.08116E+2
  -8.68715E+0  -9.19344E+1
   1.38733E+2   1.28752E+2
  -8.97515E+1  -1.16389E+1
   5.65895E+1   1.38984E+2
  -3.86557E+1   1.28642E+2
  -6.61890E+1   1.08783E+2
  -1.86980E+2   9.21979E+1
  -1.71733E+2  -2.00293E+2
  -1.81239E+2  -7.42315E+1
  -3.84822E+1   4.59440E+1
   7.62254E+1  -1.84418E+2
   1.59969E+2   2.55276E+2
  -1.28178E+1  -1.16154E+1
  -1.21081E+2   1.69426E+0
   2.89295E+0  -7.03791E+1
  -5.79851E+0  -2.03114E+1
  -2.53250E+2  -3.34685E+1
   1.17723E+2   4.47461E+1
  -3.58275E+1  -1.99247E+2
   6.99866E+1   3.53537E+2
  -8.73820E+1   1.29317E+2
  -1.91836E+2   6.36634E+1
  -4.58126E+1  -1.08515E+2
   2.89643E+2  -1.55170E+2
   2.34246E+2   8.64193E+1
   2.33772E+2  -7.77421E+1
  -4.99638E+1  -1.07484E+2
  -1.93304E+1   2.03406E+2
  -1.92779E+2  -2.43092E+1
  -6.77312E+1   9.43965E+1
   4.18020E+1   4.48762E+1
  -6.76255E+1  -9.56660E+1
   3.14257E+2   1.58718E+2
   7.37656E+1   1.46482E+2
  -7.56948E+1   9.10053E+1
   9.77760E+1   4.89091E+1
   2.51243E+1  -9.07433E+1
   4.33972E+1  -2.40653E+2
  -1.24052E+2  -2.21562E+2
   3.25097E+2   6.26195E+1
   1.17047E+1  -1.74848E+1
   6.46814E+1  -2.49337E+2
   1.65576E+2  -1.67459E+1
  -8.28591E+1   9.42132E+1
   2.87598E+1  -1.04375E+2
  -1.56248E+2  -1.67315E+2
  -2.14163E+2   1.21441E+2
   1.58636E+1   1.84960E+2
  -1.37734E+2  -1.16560E+2
   9.90023E+1   1.40371E+2
  -5.49053E+1  -4.39352E+1
   1.48017E+1  -2.89525E+1
  -2.69723E+1  -2.54090E+2
   1.18940E+2   1.45006E+2
  -7.12566E+1  -1.70088E+1
  -2.92608E+1   2.12884E+2
  -2.27394E+2   1.08422E+2
  -6.61356E+1   9.89595E+1
  -3.78679E+1  -5.36379E+0
  -1.80755E+2   1.17330E+2
  -4.04513E+1  -8.71306E+1
   2.86439E+2  -9.16642E+0
  -9.40219E+1   1.02520E+2
  -6.01182E+1  -3.11845E+1
  -2.86879E+1  -9.42125E+1
  -1.94492E+2  -5.53966E+1
  -3.18268E+1   2.13049E+1
  -1.80329E+2   3.64702E+1
  -1.77524E+2  -3.30052E+1
  -1.02064E+2   2.83139E+1
  -5.45311E+1  -3.40723E+1
   1.24557E+2  -1.76818E+2
  -4.06430E+1   1.18848E+2
  -6.49975E+1   1.14756E+2
   5.33428E+1   5.87508E+1
   1.52975E+2   1.37157E+1
   9.80142E+1   4.10731E+1
   3.57598E+2   9.50225E+1
  -1.33615E+2   1.81807E+2
  -1.01694E+2   1.25051E+1
  -5.94278E+1  -1.86236E+1
   2.11231E+1   1.94463E+2
  -2.72948E+2  -4.12421E+1
  -1.53191E+2   1.55411E+2
   4.01937E+2   2.45216E+2
  -9.67329E+1   3.82848E+1
  -8.64485E+1   8.12056E+1
  -1.36666E+2   2.33408E+2
   2.01953E+2  -3.67435E+0
  -1.02920E+2   9.18990E+1
   1.74809E+2   1.20180E+2
   5.66514E+1   2.44298E+2
   1.01111E+2   1.45415E+2
  -6.62366E+1   7.31993E+1
  -5.89979E+1   1.28271E+2
  -4.54181E+1   2.45027E+2
   4.52773E+1  -1.66509E+2
   1.64849E+2   2.24445E+2
  -1.01125E+2   2.16466E+1
   3.07809E+1   1.30733E+2
  -3.29582E+1   6.04955E+1
  -2.00225E+1   1.10537E+2
   2.81615E+1  -1.38679E+2
  -4.54882E+1  -7.10701E+1
  -1.26148E+2  -6.68287E+1
   9.48678E+0   4.69085E+1
  -5.80762E+0  -7.40760E+1
   1.10413E+2  -5.84552E+1
   1.53534E+1   1.45407E+2
   8.61639E+1   1.75212E+1
  -6.40791E+1   3.31165E+2
   2.89990E+1   4.80986E+1
   8.57884E+1   1.08486E+2
   1.71381E+2  -2.81637E+2
   1.51668E+2  -1.48296E+2
   2.80931E+1  -1.64678E+1
   1.43016E+1   1.67601E+2
   1.27747E+2   6.52949E+1
   2.66368E+2   9.60017E+1
   2.17447E+1  -1.61390E+1
   5.05147E+0  -3.05403E+1
  -1.74751E+2  -3.61958E+2
   3.99716E+1  -2.86120E+2
   1.35387E+2  -6.74192E+1
   1.46344E+2  -9.60315E+1
   4.25687E+1   9.59149E+1
  -9.80397E-1  -1.94863E+1
  -4.41357E+0   8.56015E+1
  -2.06936E+2  -7.30192E+1
   4.79386E+1  -5.66622E+1
   2.16994E+1   2.05598E+2
   2.18990E+2  -4.98911E-1
   2.27657E+2  -1.09223E+1
   5.54364E+1   6.33314E+1
   4.21616E+0  -6.18807E+1
  -5.90312E+1   5.18780E+1
  -1.52373E+2   6.61780E+1
   6.19825E+1  -8.29312E+1
   1.23538E+2   4.60991E+1
   2.56957E+1  -1.41567E+2
  -5.36713E+1   5.32469E+1
   6.79230E+1  -5.34230E+1
  -5.33706E+1   5.41455E+1
  -1.67124E+2  -1.42401E+2
  -2.14927E+2  -1.79598E+2
   1.26135E+2  -4.91013E+1
   1.29280E+2  -2.81690E+2
  -5.48743E+1  -1.39975E+2
  -9.39201E+1   8.25225E+1
