 
 $NMID
 ID=''
 FMTDAT='(2E13.5)'
 TRAMP=   1.00000E+0
 VOLUME=   1.00000E+0
 $END
  -1.56816E+5   5.32681E+5
  -8.51323E+5   1.20739E+6
  -6.60080E+5   1.29580E+6
  -6.73158E+5   1.17181E+6
  -7.56378E+5   1.17306E+6
  -7.37244E+5   1.14814E+6
  -7.67915E+5   1.09008E+6
  -8.07393E+5   1.12288E+6
  -7.62507E+5   1.12703E+6
  -7.61297E+5   1.08548E+6
  -7.77407E+5   1.08452E+6
  -7.58266E+5   1.06609E+6
  -7.68028E+5   1.03646E+6
  -7.73969E+5   1.04924E+6
  -7.49749E+5   1.04517E+6
  -7.45146E+5   1.02477E+6
  -7.49881E+5   1.02592E+6
  -7.44762E+5   1.00495E+6
  -7.61075E+5   9.76395E+5
  -7.72818E+5   9.72599E+5
  -7.69635E+5   9.55493E+5
  -7.75740E+5   9.34785E+5
  -7.76935E+5   9.29644E+5
  -7.73659E+5   9.13748E+5
  -7.79070E+5   8.92376E+5
  -7.72013E+5   8.90974E+5
  -7.62105E+5   8.84379E+5
  -7.60279E+5   8.75676E+5
  -7.52604E+5   8.69155E+5
  -7.42247E+5   8.59466E+5
  -7.46488E+5   8.47681E+5
  -7.46078E+5   8.38072E+5
  -7.43916E+5   8.22622E+5
  -7.46099E+5   8.08490E+5
  -7.46103E+5   7.97251E+5
  -7.46580E+5   7.82398E+5
  -7.53013E+5   7.69273E+5
  -7.54814E+5   7.56247E+5
  -7.50852E+5   7.42438E+5
  -7.48529E+5   7.33514E+5
  -7.44453E+5   7.25286E+5
  -7.39110E+5   7.14881E+5
  -7.32740E+5   7.07045E+5
  -7.27082E+5   7.01733E+5
  -7.22277E+5   6.92737E+5
  -7.18711E+5   6.85372E+5
  -7.15777E+5   6.76859E+5
  -7.14286E+5   6.64073E+5
  -7.12906E+5   6.50413E+5
  -7.10762E+5   6.38703E+5
  -7.09594E+5   6.27639E+5
  -7.09698E+5   6.15948E+5
  -7.08757E+5   6.04654E+5
  -7.07757E+5   5.93256E+5
  -7.05757E+5   5.82022E+5
  -7.03302E+5   5.71289E+5
  -7.00181E+5   5.61406E+5
  -6.96053E+5   5.51578E+5
  -6.90947E+5   5.43042E+5
  -6.87966E+5   5.34722E+5
  -6.85197E+5   5.25533E+5
  -6.82144E+5   5.15541E+5
  -6.80098E+5   5.05533E+5
  -6.77843E+5   4.94832E+5
  -6.74726E+5   4.82718E+5
  -6.70811E+5   4.71164E+5
  -6.67659E+5   4.60323E+5
  -6.64193E+5   4.49669E+5
  -6.61845E+5   4.39669E+5
  -6.59398E+5   4.29664E+5
  -6.55901E+5   4.19228E+5
  -6.51090E+5   4.09678E+5
  -6.47471E+5   4.01299E+5
  -6.44670E+5   3.91715E+5
  -6.40985E+5   3.81499E+5
  -6.36847E+5   3.71930E+5
  -6.33381E+5   3.62145E+5
  -6.30468E+5   3.52154E+5
  -6.27166E+5   3.41324E+5
  -6.23561E+5   3.30549E+5
  -6.19831E+5   3.19862E+5
  -6.16275E+5   3.09826E+5
  -6.12523E+5   2.99864E+5
  -6.08819E+5   2.90119E+5
  -6.04500E+5   2.80823E+5
  -5.99706E+5   2.72148E+5
  -5.95055E+5   2.64026E+5
  -5.90871E+5   2.55955E+5
  -5.86295E+5   2.48114E+5
  -5.81121E+5   2.40998E+5
  -5.75962E+5   2.33704E+5
  -5.71685E+5   2.26191E+5
  -5.67439E+5   2.17746E+5
  -5.62346E+5   2.08928E+5
  -5.57043E+5   2.00984E+5
  -5.51998E+5   1.93278E+5
  -5.47601E+5   1.85393E+5
  -5.43105E+5   1.77093E+5
  -5.38053E+5   1.69518E+5
  -5.32940E+5   1.62391E+5
  -5.27675E+5   1.55836E+5
  -5.22870E+5   1.48765E+5
  -5.17045E+5   1.41639E+5
  -5.11193E+5   1.35279E+5
  -5.05365E+5   1.29798E+5
  -4.99870E+5   1.24576E+5
  -4.94870E+5   1.18794E+5
  -4.89521E+5   1.12502E+5
  -4.82956E+5   1.06500E+5
  -4.76067E+5   1.01327E+5
  -4.70925E+5   9.63277E+4
  -4.65950E+5   9.05606E+4
  -4.61035E+5   8.43459E+4
  -4.55080E+5   7.87633E+4
  -4.49522E+5   7.32586E+4
  -4.44015E+5   6.74989E+4
  -4.38269E+5   6.20230E+4
  -4.32414E+5   5.67510E+4
  -4.25784E+5   5.16273E+4
  -4.19907E+5   4.76817E+4
  -4.14823E+5   4.34536E+4
  -4.09391E+5   3.86942E+4
  -4.03897E+5   3.43065E+4
  -3.98832E+5   3.00485E+4
  -3.92772E+5   2.53062E+4
  -3.86850E+5   2.07960E+4
  -3.80729E+5   1.69071E+4
  -3.75536E+5   1.28618E+4
  -3.70020E+5   8.75791E+3
  -3.64891E+5   4.65030E+3
  -3.59615E+5   1.93406E+2
  -3.53926E+5  -4.11680E+3
  -3.48272E+5  -7.71915E+3
  -3.43164E+5  -1.18332E+4
  -3.37701E+5  -1.53720E+4
  -3.32337E+5  -1.89454E+4
  -3.26965E+5  -2.21962E+4
  -3.21884E+5  -2.53640E+4
  -3.16943E+5  -2.87339E+4
  -3.12100E+5  -3.22317E+4
  -3.06906E+5  -3.56343E+4
  -3.01548E+5  -3.87453E+4
  -2.96291E+5  -4.10750E+4
  -2.91760E+5  -4.37780E+4
  -2.87396E+5  -4.68953E+4
  -2.82318E+5  -4.95187E+4
  -2.77060E+5  -5.18779E+4
  -2.72198E+5  -5.40994E+4
  -2.67425E+5  -5.65766E+4
  -2.62870E+5  -5.85910E+4
  -2.58316E+5  -6.04935E+4
  -2.53479E+5  -6.21189E+4
  -2.48833E+5  -6.37913E+4
  -2.44731E+5  -6.55173E+4
  -2.40109E+5  -6.72845E+4
  -2.35643E+5  -6.87504E+4
  -2.31408E+5  -6.98941E+4
  -2.27391E+5  -7.16485E+4
  -2.22870E+5  -7.25159E+4
  -2.18519E+5  -7.38842E+4
  -2.14448E+5  -7.50038E+4
  -2.10471E+5  -7.64943E+4
  -2.06079E+5  -7.74727E+4
  -2.01920E+5  -7.82561E+4
  -1.97899E+5  -7.89521E+4
  -1.93944E+5  -7.97343E+4
  -1.90018E+5  -8.06114E+4
  -1.86123E+5  -8.12322E+4
  -1.82542E+5  -8.18780E+4
  -1.78278E+5  -8.22172E+4
  -1.74892E+5  -8.28525E+4
  -1.71200E+5  -8.31714E+4
  -1.67550E+5  -8.37055E+4
  -1.64225E+5  -8.40078E+4
  -1.60459E+5  -8.41294E+4
  -1.57010E+5  -8.46676E+4
  -1.53907E+5  -8.47328E+4
  -1.50113E+5  -8.54717E+4
  -1.46688E+5  -8.52853E+4
  -1.43546E+5  -8.52636E+4
  -1.40688E+5  -8.55686E+4
  -1.37414E+5  -8.58827E+4
  -1.34175E+5  -8.61787E+4
  -1.31078E+5  -8.62943E+4
  -1.28137E+5  -8.64751E+4
  -1.25133E+5  -8.63707E+4
  -1.21979E+5  -8.64536E+4
  -1.19041E+5  -8.63909E+4
  -1.16539E+5  -8.60500E+4
  -1.14013E+5  -8.59804E+4
  -1.11161E+5  -8.61130E+4
  -1.08405E+5  -8.61882E+4
  -1.05443E+5  -8.60597E+4
  -1.02725E+5  -8.57724E+4
  -1.00290E+5  -8.59148E+4
  -9.77673E+4  -8.56640E+4
  -9.51679E+4  -8.55948E+4
  -9.25156E+4  -8.53420E+4
  -9.00294E+4  -8.54166E+4
  -8.74410E+4  -8.53237E+4
  -8.48420E+4  -8.50687E+4
  -8.26676E+4  -8.48498E+4
  -8.00374E+4  -8.47123E+4
  -7.77311E+4  -8.43073E+4
  -7.56961E+4  -8.40057E+4
  -7.36354E+4  -8.38755E+4
  -7.09001E+4  -8.37514E+4
  -6.91516E+4  -8.34483E+4
  -6.65714E+4  -8.31193E+4
  -6.47366E+4  -8.24296E+4
  -6.27737E+4  -8.21900E+4
  -6.06772E+4  -8.17101E+4
  -5.82792E+4  -8.14708E+4
  -5.65602E+4  -8.11784E+4
  -5.46909E+4  -8.09268E+4
  -5.26409E+4  -8.02625E+4
  -5.09489E+4  -7.96241E+4
  -4.91408E+4  -7.91471E+4
  -4.75057E+4  -7.87161E+4
  -4.56934E+4  -7.81645E+4
  -4.41864E+4  -7.76757E+4
  -4.23795E+4  -7.72118E+4
  -4.06915E+4  -7.66530E+4
  -3.92426E+4  -7.60001E+4
  -3.75465E+4  -7.55163E+4
  -3.63447E+4  -7.50133E+4
  -3.48087E+4  -7.43639E+4
  -3.36492E+4  -7.37418E+4
  -3.21709E+4  -7.34226E+4
  -3.08884E+4  -7.28743E+4
  -2.95682E+4  -7.21752E+4
  -2.82025E+4  -7.15255E+4
  -2.69816E+4  -7.07610E+4
  -2.61904E+4  -7.03787E+4
  -2.51319E+4  -6.97666E+4
  -2.40711E+4  -6.88347E+4
  -2.29708E+4  -6.83182E+4
  -2.16688E+4  -6.80747E+4
  -2.09838E+4  -6.74697E+4
  -1.99590E+4  -6.67672E+4
  -1.90760E+4  -6.61014E+4
  -1.83200E+4  -6.56206E+4
  -1.74622E+4  -6.46639E+4
  -1.64106E+4  -6.42935E+4
  -1.57398E+4  -6.37761E+4
  -1.49210E+4  -6.35410E+4
  -1.41011E+4  -6.25776E+4
  -1.32331E+4  -6.21324E+4
  -1.24449E+4  -6.14477E+4
  -1.17759E+4  -6.05146E+4
  -1.10806E+4  -6.01808E+4
  -1.02765E+4  -5.94781E+4
  -9.73856E+3  -5.89625E+4
  -8.64598E+3  -5.84494E+4
  -8.19417E+3  -5.75208E+4
  -7.61665E+3  -5.70792E+4
  -6.85254E+3  -5.64430E+4
  -6.34067E+3  -5.57330E+4
  -5.43308E+3  -5.53789E+4
  -4.83941E+3  -5.47526E+4
  -3.94599E+3  -5.44176E+4
  -3.36084E+3  -5.37904E+4
  -2.70241E+3  -5.31044E+4
  -2.24160E+3  -5.23773E+4
  -1.62393E+3  -5.16339E+4
  -9.19175E+2  -5.12320E+4
  -2.05443E+2  -5.05722E+4
   4.85723E+2  -5.02448E+4
   8.48332E+2  -4.94774E+4
   1.62016E+3  -4.90250E+4
   1.87430E+3  -4.84371E+4
   2.40555E+3  -4.78267E+4
   3.30228E+3  -4.73123E+4
   3.54852E+3  -4.66045E+4
   4.26490E+3  -4.63389E+4
   5.16990E+3  -4.56670E+4
   5.40373E+3  -4.51020E+4
   6.09466E+3  -4.46519E+4
   6.45858E+3  -4.40735E+4
   6.88915E+3  -4.34473E+4
   7.47437E+3  -4.29240E+4
   7.60398E+3  -4.26801E+4
   8.39543E+3  -4.19036E+4
   8.66787E+3  -4.13222E+4
   9.32327E+3  -4.10630E+4
   9.72952E+3  -4.03403E+4
   1.00684E+4  -3.99010E+4
   1.03314E+4  -3.93859E+4
   1.06617E+4  -3.89082E+4
   1.11800E+4  -3.84076E+4
   1.16325E+4  -3.77309E+4
   1.20278E+4  -3.76115E+4
   1.23397E+4  -3.69789E+4
   1.26019E+4  -3.64972E+4
   1.28978E+4  -3.58523E+4
   1.31981E+4  -3.54069E+4
   1.34899E+4  -3.49630E+4
   1.38012E+4  -3.46378E+4
   1.42908E+4  -3.41892E+4
   1.44518E+4  -3.35539E+4
   1.45784E+4  -3.33426E+4
   1.49438E+4  -3.27754E+4
   1.49783E+4  -3.20600E+4
   1.51196E+4  -3.15774E+4
   1.52809E+4  -3.10652E+4
   1.58328E+4  -3.06776E+4
   1.59520E+4  -3.03277E+4
   1.59680E+4  -2.99234E+4
   1.62985E+4  -2.92628E+4
   1.63739E+4  -2.89888E+4
   1.69509E+4  -2.83425E+4
   1.67210E+4  -2.79758E+4
   1.70464E+4  -2.72764E+4
   1.71563E+4  -2.70057E+4
   1.75881E+4  -2.66572E+4
   1.75593E+4  -2.62759E+4
   1.75307E+4  -2.56732E+4
   1.77188E+4  -2.53005E+4
   1.80332E+4  -2.46511E+4
   1.79620E+4  -2.41552E+4
   1.79068E+4  -2.38562E+4
   1.80595E+4  -2.35741E+4
   1.80783E+4  -2.28912E+4
   1.83200E+4  -2.25248E+4
   1.84187E+4  -2.20652E+4
   1.82863E+4  -2.15017E+4
   1.88361E+4  -2.11465E+4
   1.87148E+4  -2.05286E+4
   1.87110E+4  -2.00996E+4
   1.87839E+4  -1.99052E+4
   1.87639E+4  -1.94355E+4
   1.87419E+4  -1.90599E+4
   1.90012E+4  -1.86066E+4
   1.89716E+4  -1.80437E+4
   1.90083E+4  -1.78663E+4
   1.90701E+4  -1.71466E+4
   1.92785E+4  -1.67118E+4
   1.90478E+4  -1.63606E+4
   1.90372E+4  -1.57436E+4
   1.89195E+4  -1.55822E+4
   1.91141E+4  -1.51827E+4
   1.92416E+4  -1.46924E+4
   1.92540E+4  -1.41990E+4
   1.90502E+4  -1.39794E+4
   1.91184E+4  -1.36145E+4
   1.89927E+4  -1.31077E+4
   1.90190E+4  -1.28084E+4
   1.89337E+4  -1.23834E+4
   1.88376E+4  -1.19318E+4
   1.88672E+4  -1.17393E+4
   1.88895E+4  -1.13477E+4
   1.87985E+4  -1.07891E+4
   1.85332E+4  -1.05179E+4
   1.85265E+4  -1.02841E+4
   1.85632E+4  -9.90988E+3
   1.84035E+4  -9.63868E+3
   1.82045E+4  -9.41274E+3
   1.85465E+4  -9.20257E+3
   1.82205E+4  -8.74921E+3
   1.79781E+4  -8.36769E+3
   1.78405E+4  -7.91627E+3
   1.78912E+4  -7.63884E+3
   1.76969E+4  -7.44225E+3
   1.76444E+4  -7.22442E+3
   1.78872E+4  -6.90151E+3
   1.76681E+4  -6.50300E+3
   1.73634E+4  -6.50550E+3
