 
 $NMID
 ID=''
 FMTDAT='(2E13.5)'
 TRAMP=   1.00000E+0
 VOLUME=   1.00000E+0
 $END
  -4.23014E+5   5.63968E+5
  -1.52252E+6   9.87164E+5
  -1.35255E+6   1.08229E+6
  -1.38594E+6   8.97937E+5
  -1.52293E+6   9.20427E+5
  -1.44412E+6   9.43150E+5
  -1.40236E+6   8.22923E+5
  -1.47586E+6   7.83284E+5
  -1.47219E+6   7.92118E+5
  -1.46690E+6   7.57556E+5
  -1.46654E+6   7.45700E+5
  -1.42991E+6   7.05207E+5
  -1.44574E+6   6.44505E+5
  -1.47030E+6   6.51623E+5
  -1.43410E+6   6.48971E+5
  -1.41663E+6   6.05615E+5
  -1.42993E+6   5.81276E+5
  -1.42243E+6   5.47430E+5
  -1.42642E+6   5.05424E+5
  -1.42734E+6   4.89587E+5
  -1.40711E+6   4.55177E+5
  -1.40556E+6   4.11668E+5
  -1.40676E+6   3.93087E+5
  -1.39337E+6   3.66408E+5
  -1.38708E+6   3.31298E+5
  -1.37659E+6   3.21099E+5
  -1.36130E+6   3.01298E+5
  -1.35689E+6   2.77311E+5
  -1.34712E+6   2.62504E+5
  -1.33017E+6   2.45330E+5
  -1.32500E+6   2.18589E+5
  -1.31414E+6   1.98029E+5
  -1.29908E+6   1.71188E+5
  -1.29115E+6   1.46051E+5
  -1.27913E+6   1.26040E+5
  -1.26445E+6   1.01104E+5
  -1.25673E+6   7.45519E+4
  -1.24433E+6   5.20473E+4
  -1.22786E+6   3.04449E+4
  -1.21703E+6   1.26336E+4
  -1.20281E+6  -2.84088E+3
  -1.18646E+6  -2.03713E+4
  -1.17289E+6  -3.41068E+4
  -1.16073E+6  -4.64882E+4
  -1.14587E+6  -6.12536E+4
  -1.13335E+6  -7.54027E+4
  -1.11894E+6  -9.22542E+4
  -1.10367E+6  -1.13001E+5
  -1.08729E+6  -1.31082E+5
  -1.07120E+6  -1.46488E+5
  -1.05580E+6  -1.64765E+5
  -1.04062E+6  -1.83585E+5
  -1.02521E+6  -2.00505E+5
  -1.01054E+6  -2.16967E+5
  -9.95125E+5  -2.32532E+5
  -9.78409E+5  -2.47569E+5
  -9.62385E+5  -2.61502E+5
  -9.47162E+5  -2.73680E+5
  -9.31409E+5  -2.85030E+5
  -9.16403E+5  -2.97167E+5
  -9.01049E+5  -3.08826E+5
  -8.85988E+5  -3.20638E+5
  -8.70636E+5  -3.33759E+5
  -8.53714E+5  -3.46631E+5
  -8.36304E+5  -3.58312E+5
  -8.19489E+5  -3.68999E+5
  -8.02915E+5  -3.80169E+5
  -7.85904E+5  -3.90575E+5
  -7.70689E+5  -4.00610E+5
  -7.56123E+5  -4.10853E+5
  -7.39607E+5  -4.19916E+5
  -7.23132E+5  -4.27171E+5
  -7.08652E+5  -4.34555E+5
  -6.94563E+5  -4.43225E+5
  -6.78219E+5  -4.50539E+5
  -6.62197E+5  -4.56890E+5
  -6.47376E+5  -4.63390E+5
  -6.31957E+5  -4.70749E+5
  -6.15761E+5  -4.78212E+5
  -5.99120E+5  -4.84393E+5
  -5.83221E+5  -4.89937E+5
  -5.67763E+5  -4.95880E+5
  -5.52141E+5  -5.00591E+5
  -5.36825E+5  -5.04990E+5
  -5.21560E+5  -5.09327E+5
  -5.06927E+5  -5.12420E+5
  -4.92839E+5  -5.14950E+5
  -4.79095E+5  -5.17386E+5
  -4.65424E+5  -5.19057E+5
  -4.51967E+5  -5.20400E+5
  -4.38747E+5  -5.21505E+5
  -4.25440E+5  -5.22990E+5
  -4.11594E+5  -5.24478E+5
  -3.97187E+5  -5.25606E+5
  -3.83311E+5  -5.25803E+5
  -3.70296E+5  -5.26402E+5
  -3.57110E+5  -5.27337E+5
  -3.43285E+5  -5.28042E+5
  -3.30177E+5  -5.27799E+5
  -3.17751E+5  -5.26970E+5
  -3.06101E+5  -5.26660E+5
  -2.93777E+5  -5.26163E+5
  -2.80900E+5  -5.24482E+5
  -2.69428E+5  -5.22317E+5
  -2.58901E+5  -5.20081E+5
  -2.48125E+5  -5.18595E+5
  -2.37241E+5  -5.16946E+5
  -2.25823E+5  -5.14686E+5
  -2.15161E+5  -5.11768E+5
  -2.05177E+5  -5.08468E+5
  -1.95131E+5  -5.06188E+5
  -1.84503E+5  -5.04591E+5
  -1.73789E+5  -5.02444E+5
  -1.63144E+5  -4.99484E+5
  -1.52718E+5  -4.96536E+5
  -1.42815E+5  -4.93917E+5
  -1.32732E+5  -4.90763E+5
  -1.23141E+5  -4.86763E+5
  -1.14166E+5  -4.82562E+5
  -1.05563E+5  -4.79007E+5
  -9.72774E+4  -4.75827E+5
  -8.87086E+4  -4.72339E+5
  -8.00935E+4  -4.68509E+5
  -7.13078E+4  -4.64965E+5
  -6.30921E+4  -4.61224E+5
  -5.50555E+4  -4.56898E+5
  -4.74711E+4  -4.52198E+5
  -3.97555E+4  -4.48000E+5
  -3.21419E+4  -4.43863E+5
  -2.46974E+4  -4.39998E+5
  -1.67954E+4  -4.35754E+5
  -8.96410E+3  -4.30715E+5
  -1.61806E+3  -4.25790E+5
   5.38380E+3  -4.21292E+5
   1.23745E+4  -4.16519E+5
   1.91219E+4  -4.11353E+5
   2.55472E+4  -4.06546E+5
   3.17848E+4  -4.02039E+5
   3.83399E+4  -3.97261E+5
   4.47988E+4  -3.92092E+5
   5.11127E+4  -3.86767E+5
   5.64056E+4  -3.81322E+5
   6.18824E+4  -3.76152E+5
   6.72379E+4  -3.71551E+5
   7.28382E+4  -3.66293E+5
   7.79137E+4  -3.60815E+5
   8.30567E+4  -3.55229E+5
   8.78756E+4  -3.49874E+5
   9.21883E+4  -3.44337E+5
   9.64806E+4  -3.38680E+5
   1.00550E+5  -3.33501E+5
   1.04359E+5  -3.28267E+5
   1.08408E+5  -3.23184E+5
   1.11896E+5  -3.17996E+5
   1.15809E+5  -3.12446E+5
   1.19160E+5  -3.07199E+5
   1.22805E+5  -3.02151E+5
   1.26324E+5  -2.97040E+5
   1.29389E+5  -2.91434E+5
   1.32054E+5  -2.86167E+5
   1.35342E+5  -2.81162E+5
   1.38052E+5  -2.75722E+5
   1.41012E+5  -2.70778E+5
   1.43395E+5  -2.65280E+5
   1.45800E+5  -2.60312E+5
   1.47860E+5  -2.55398E+5
   1.50244E+5  -2.50972E+5
   1.52701E+5  -2.46041E+5
   1.54739E+5  -2.41318E+5
   1.56606E+5  -2.36621E+5
   1.58386E+5  -2.32112E+5
   1.60257E+5  -2.27545E+5
   1.61741E+5  -2.22787E+5
   1.63238E+5  -2.18523E+5
   1.64770E+5  -2.14023E+5
   1.66467E+5  -2.09477E+5
   1.67783E+5  -2.05261E+5
   1.69246E+5  -2.00710E+5
   1.70433E+5  -1.95760E+5
   1.71435E+5  -1.91727E+5
   1.72609E+5  -1.87750E+5
   1.74158E+5  -1.83685E+5
   1.75062E+5  -1.79433E+5
   1.76245E+5  -1.75104E+5
   1.76945E+5  -1.71164E+5
   1.77784E+5  -1.67221E+5
   1.78108E+5  -1.63087E+5
   1.78869E+5  -1.59511E+5
   1.79291E+5  -1.55831E+5
   1.79938E+5  -1.52206E+5
   1.80996E+5  -1.48436E+5
   1.81391E+5  -1.44416E+5
   1.81785E+5  -1.40524E+5
   1.81956E+5  -1.36658E+5
   1.82328E+5  -1.33100E+5
   1.82727E+5  -1.29298E+5
   1.82950E+5  -1.25707E+5
   1.83391E+5  -1.22143E+5
   1.83565E+5  -1.18496E+5
   1.83823E+5  -1.14713E+5
   1.83729E+5  -1.11129E+5
   1.83768E+5  -1.07332E+5
   1.83497E+5  -1.03644E+5
   1.83414E+5  -1.00854E+5
   1.83360E+5  -9.74098E+4
   1.83309E+5  -9.36724E+4
   1.83084E+5  -9.02674E+4
   1.82964E+5  -8.68588E+4
   1.82396E+5  -8.34932E+4
   1.82229E+5  -8.03018E+4
   1.81533E+5  -7.67460E+4
   1.81072E+5  -7.39772E+4
   1.80635E+5  -7.09549E+4
   1.80388E+5  -6.78617E+4
   1.79926E+5  -6.43084E+4
   1.78938E+5  -6.11914E+4
   1.78168E+5  -5.84376E+4
   1.77412E+5  -5.55984E+4
   1.76367E+5  -5.32345E+4
   1.75826E+5  -5.01910E+4
   1.74858E+5  -4.76321E+4
   1.73838E+5  -4.50737E+4
   1.73054E+5  -4.26084E+4
   1.72261E+5  -4.00584E+4
   1.71064E+5  -3.70069E+4
   1.69768E+5  -3.48555E+4
   1.68930E+5  -3.24941E+4
   1.67584E+5  -3.03204E+4
   1.66753E+5  -2.80562E+4
   1.65467E+5  -2.55894E+4
   1.64209E+5  -2.33301E+4
   1.62769E+5  -2.15941E+4
   1.61555E+5  -1.89464E+4
   1.60523E+5  -1.74616E+4
   1.59034E+5  -1.54071E+4
   1.57732E+5  -1.36506E+4
   1.56547E+5  -1.17339E+4
   1.54851E+5  -1.02145E+4
   1.53292E+5  -8.48787E+3
   1.52126E+5  -6.91064E+3
   1.50603E+5  -5.18507E+3
   1.49363E+5  -3.68285E+3
   1.47833E+5  -2.07684E+3
   1.46402E+5  -5.16181E+2
   1.44799E+5   1.20970E+3
   1.43440E+5   2.63665E+3
   1.41817E+5   4.04277E+3
   1.40383E+5   5.48796E+3
   1.38809E+5   6.64970E+3
   1.37449E+5   8.18700E+3
   1.36226E+5   9.61346E+3
   1.34580E+5   1.07638E+4
   1.33084E+5   1.23554E+4
   1.31613E+5   1.34868E+4
   1.29942E+5   1.46399E+4
   1.28407E+5   1.56877E+4
   1.27084E+5   1.65919E+4
   1.25605E+5   1.85512E+4
   1.24015E+5   1.97891E+4
   1.22461E+5   2.11428E+4
   1.20888E+5   2.22804E+4
   1.19295E+5   2.35962E+4
   1.17732E+5   2.48167E+4
   1.16129E+5   2.57483E+4
   1.14711E+5   2.67313E+4
   1.13264E+5   2.79500E+4
   1.11947E+5   2.90660E+4
   1.10103E+5   3.05038E+4
   1.08610E+5   3.13922E+4
   1.07020E+5   3.21673E+4
   1.05653E+5   3.32898E+4
   1.04004E+5   3.42010E+4
   1.02432E+5   3.52024E+4
   1.00950E+5   3.61442E+4
   9.94234E+4   3.70692E+4
   9.78195E+4   3.79750E+4
   9.63032E+4   3.90248E+4
   9.46861E+4   3.99347E+4
   9.31595E+4   4.09243E+4
   9.16302E+4   4.13491E+4
   9.01769E+4   4.21662E+4
   8.87051E+4   4.28826E+4
   8.71439E+4   4.36858E+4
   8.57379E+4   4.42272E+4
   8.43362E+4   4.51055E+4
   8.26646E+4   4.56860E+4
   8.11143E+4   4.63090E+4
   7.92792E+4   4.68253E+4
   7.82342E+4   4.71799E+4
   7.67606E+4   4.81668E+4
   7.52440E+4   4.82859E+4
   7.38546E+4   4.89522E+4
   7.22410E+4   4.94590E+4
   7.09702E+4   4.99156E+4
   6.93617E+4   5.04350E+4
   6.81007E+4   5.07297E+4
   6.66783E+4   5.09292E+4
   6.52442E+4   5.15019E+4
   6.38867E+4   5.18151E+4
   6.24786E+4   5.19473E+4
   6.11723E+4   5.24037E+4
   5.98456E+4   5.24386E+4
   5.83002E+4   5.26936E+4
   5.69700E+4   5.29654E+4
   5.52340E+4   5.33873E+4
   5.41825E+4   5.32929E+4
   5.27063E+4   5.35444E+4
   5.13470E+4   5.33242E+4
   5.00220E+4   5.36364E+4
   4.87625E+4   5.38390E+4
   4.74626E+4   5.40368E+4
   4.61836E+4   5.41604E+4
   4.44968E+4   5.41494E+4
   4.34285E+4   5.43796E+4
   4.19512E+4   5.42622E+4
   4.06308E+4   5.40569E+4
   3.95334E+4   5.42903E+4
   3.82670E+4   5.41093E+4
   3.69107E+4   5.41490E+4
   3.57973E+4   5.40233E+4
   3.45961E+4   5.41100E+4
   3.33004E+4   5.38852E+4
   3.17526E+4   5.37315E+4
   3.06685E+4   5.34997E+4
   2.97438E+4   5.35149E+4
   2.84193E+4   5.33229E+4
   2.73475E+4   5.30959E+4
   2.61419E+4   5.32878E+4
   2.47633E+4   5.27132E+4
   2.35534E+4   5.26301E+4
   2.23546E+4   5.24665E+4
   2.15043E+4   5.21712E+4
   2.02139E+4   5.19230E+4
   1.93875E+4   5.18131E+4
   1.81656E+4   5.14947E+4
   1.72978E+4   5.11005E+4
   1.60906E+4   5.09786E+4
   1.47855E+4   5.05314E+4
   1.38991E+4   5.03657E+4
   1.30532E+4   4.98576E+4
   1.22029E+4   4.95660E+4
   1.11847E+4   4.93619E+4
   9.83538E+3   4.90231E+4
   8.93823E+3   4.88720E+4
   8.33285E+3   4.84807E+4
   7.25257E+3   4.77686E+4
   6.55741E+3   4.74238E+4
   5.59070E+3   4.71119E+4
   4.87722E+3   4.65902E+4
   4.05679E+3   4.64676E+4
   3.10432E+3   4.59048E+4
   2.50593E+3   4.54828E+4
   1.67281E+3   4.49734E+4
   7.88902E+2   4.44382E+4
   4.24395E+1   4.42023E+4
  -6.91810E+2   4.35575E+4
  -1.41760E+3   4.34305E+4
  -2.11619E+3   4.27777E+4
  -2.56039E+3   4.25621E+4
  -3.28263E+3   4.21672E+4
  -3.99869E+3   4.13821E+4
  -4.62670E+3   4.11029E+4
  -5.20195E+3   4.04662E+4
  -5.68414E+3   4.00016E+4
  -6.42532E+3   3.95017E+4
  -6.84862E+3   3.89733E+4
  -7.35362E+3   3.85970E+4
