 
 $NMID
 ID=''
 FMTDAT='(2E13.5)'
 TRAMP=   1.00000E+0
 VOLUME=   1.00000E+0
 $END
  -2.86750E+5   6.35267E+5
  -1.25097E+6   1.31862E+6
  -1.04043E+6   1.39761E+6
  -1.09328E+6   1.19572E+6
  -1.25216E+6   1.20443E+6
  -1.22031E+6   1.21932E+6
  -1.20943E+6   1.13168E+6
  -1.25634E+6   1.10727E+6
  -1.24201E+6   1.07664E+6
  -1.27597E+6   1.02333E+6
  -1.30708E+6   1.03118E+6
  -1.27091E+6   1.00567E+6
  -1.27597E+6   9.42341E+5
  -1.30032E+6   9.33758E+5
  -1.28909E+6   9.17622E+5
  -1.29229E+6   8.82628E+5
  -1.30450E+6   8.70841E+5
  -1.29916E+6   8.32261E+5
  -1.31798E+6   7.79379E+5
  -1.33400E+6   7.57128E+5
  -1.32878E+6   7.22314E+5
  -1.33777E+6   6.82478E+5
  -1.34212E+6   6.60950E+5
  -1.33619E+6   6.25952E+5
  -1.34125E+6   5.87067E+5
  -1.33865E+6   5.74433E+5
  -1.32954E+6   5.53626E+5
  -1.32845E+6   5.30216E+5
  -1.32142E+6   5.12241E+5
  -1.31115E+6   4.89503E+5
  -1.31450E+6   4.60156E+5
  -1.30998E+6   4.37331E+5
  -1.30239E+6   4.07472E+5
  -1.30106E+6   3.78472E+5
  -1.29456E+6   3.53167E+5
  -1.28749E+6   3.22643E+5
  -1.28763E+6   2.92372E+5
  -1.28153E+6   2.64547E+5
  -1.26983E+6   2.38893E+5
  -1.26296E+6   2.17557E+5
  -1.25278E+6   1.97080E+5
  -1.24118E+6   1.74575E+5
  -1.23097E+6   1.58141E+5
  -1.22139E+6   1.43000E+5
  -1.20983E+6   1.23746E+5
  -1.20037E+6   1.05637E+5
  -1.19016E+6   8.54435E+4
  -1.17941E+6   6.01745E+4
  -1.16663E+6   3.66459E+4
  -1.15385E+6   1.55708E+4
  -1.14200E+6  -7.11436E+3
  -1.13077E+6  -3.11927E+4
  -1.11868E+6  -5.31306E+4
  -1.10674E+6  -7.47511E+4
  -1.09360E+6  -9.53724E+4
  -1.07960E+6  -1.15303E+5
  -1.06616E+6  -1.34229E+5
  -1.05222E+6  -1.50732E+5
  -1.03788E+6  -1.66348E+5
  -1.02458E+6  -1.82701E+5
  -1.01164E+6  -1.99505E+5
  -9.97725E+5  -2.16175E+5
  -9.83752E+5  -2.33284E+5
  -9.68566E+5  -2.50930E+5
  -9.52100E+5  -2.68577E+5
  -9.35534E+5  -2.85197E+5
  -9.19576E+5  -3.00904E+5
  -9.03913E+5  -3.15709E+5
  -8.88888E+5  -3.31374E+5
  -8.73951E+5  -3.46688E+5
  -8.57467E+5  -3.60835E+5
  -8.41735E+5  -3.72938E+5
  -8.27260E+5  -3.84750E+5
  -8.11864E+5  -3.97710E+5
  -7.95399E+5  -4.09996E+5
  -7.79225E+5  -4.21733E+5
  -7.63614E+5  -4.33154E+5
  -7.46718E+5  -4.45449E+5
  -7.29419E+5  -4.57515E+5
  -7.12167E+5  -4.68888E+5
  -6.94136E+5  -4.80528E+5
  -6.76983E+5  -4.90515E+5
  -6.59578E+5  -5.00310E+5
  -6.42503E+5  -5.09695E+5
  -6.25101E+5  -5.18428E+5
  -6.08180E+5  -5.25842E+5
  -5.92052E+5  -5.32578E+5
  -5.76316E+5  -5.39520E+5
  -5.60279E+5  -5.45664E+5
  -5.44312E+5  -5.50408E+5
  -5.28597E+5  -5.55495E+5
  -5.12868E+5  -5.61064E+5
  -4.96452E+5  -5.67316E+5
  -4.79341E+5  -5.72175E+5
  -4.62616E+5  -5.76634E+5
  -4.45804E+5  -5.81053E+5
  -4.29702E+5  -5.85798E+5
  -4.13208E+5  -5.90272E+5
  -3.96782E+5  -5.93863E+5
  -3.81153E+5  -5.96598E+5
  -3.65964E+5  -5.99817E+5
  -3.50471E+5  -6.02648E+5
  -3.34880E+5  -6.04378E+5
  -3.19977E+5  -6.05213E+5
  -3.05987E+5  -6.06151E+5
  -2.92514E+5  -6.07271E+5
  -2.78560E+5  -6.08375E+5
  -2.63840E+5  -6.09247E+5
  -2.49591E+5  -6.08973E+5
  -2.36535E+5  -6.08126E+5
  -2.23454E+5  -6.08433E+5
  -2.09233E+5  -6.09235E+5
  -1.95034E+5  -6.09021E+5
  -1.81196E+5  -6.08583E+5
  -1.67572E+5  -6.07774E+5
  -1.54322E+5  -6.06757E+5
  -1.40378E+5  -6.05664E+5
  -1.27372E+5  -6.03523E+5
  -1.15302E+5  -6.01445E+5
  -1.03812E+5  -5.98855E+5
  -9.21868E+4  -5.97077E+5
  -8.03833E+4  -5.95069E+5
  -6.85615E+4  -5.92792E+5
  -5.69866E+4  -5.90190E+5
  -4.48236E+4  -5.87137E+5
  -3.37612E+4  -5.83305E+5
  -2.27969E+4  -5.79531E+5
  -1.18341E+4  -5.75940E+5
  -9.40730E+2  -5.72286E+5
   9.90268E+3  -5.68502E+5
   2.12663E+4  -5.64532E+5
   3.22033E+4  -5.59670E+5
   4.30204E+4  -5.54735E+5
   5.28468E+4  -5.50003E+5
   6.30107E+4  -5.44978E+5
   7.32029E+4  -5.39414E+5
   8.24705E+4  -5.33915E+5
   9.16367E+4  -5.28632E+5
   1.01279E+5  -5.23463E+5
   1.11101E+5  -5.17196E+5
   1.20172E+5  -5.10766E+5
   1.28402E+5  -5.04532E+5
   1.36355E+5  -4.98075E+5
   1.44479E+5  -4.91767E+5
   1.52446E+5  -4.85365E+5
   1.60497E+5  -4.78649E+5
   1.68155E+5  -4.71268E+5
   1.75277E+5  -4.64149E+5
   1.82247E+5  -4.57013E+5
   1.88655E+5  -4.49618E+5
   1.94917E+5  -4.42357E+5
   2.00832E+5  -4.34966E+5
   2.06609E+5  -4.28024E+5
   2.12387E+5  -4.21406E+5
   2.18423E+5  -4.13573E+5
   2.23930E+5  -4.06120E+5
   2.28845E+5  -3.98721E+5
   2.34416E+5  -3.91170E+5
   2.39068E+5  -3.83785E+5
   2.43276E+5  -3.75852E+5
   2.47730E+5  -3.68717E+5
   2.52241E+5  -3.61206E+5
   2.56404E+5  -3.53433E+5
   2.59975E+5  -3.45371E+5
   2.63593E+5  -3.37988E+5
   2.66640E+5  -3.30666E+5
   2.70079E+5  -3.23316E+5
   2.73706E+5  -3.16182E+5
   2.76544E+5  -3.08884E+5
   2.79276E+5  -3.01454E+5
   2.81831E+5  -2.94207E+5
   2.84049E+5  -2.87105E+5
   2.86696E+5  -2.80090E+5
   2.89018E+5  -2.72701E+5
   2.90670E+5  -2.65619E+5
   2.93038E+5  -2.58744E+5
   2.94968E+5  -2.51610E+5
   2.96747E+5  -2.44065E+5
   2.98249E+5  -2.36791E+5
   2.99416E+5  -2.29871E+5
   3.01070E+5  -2.23121E+5
   3.02401E+5  -2.16405E+5
   3.03806E+5  -2.08702E+5
   3.04651E+5  -2.01840E+5
   3.05201E+5  -1.95126E+5
   3.05930E+5  -1.88294E+5
   3.06015E+5  -1.81627E+5
   3.06223E+5  -1.75252E+5
   3.06309E+5  -1.69010E+5
   3.06963E+5  -1.62956E+5
   3.07568E+5  -1.56494E+5
   3.07607E+5  -1.49874E+5
   3.07170E+5  -1.42845E+5
   3.06621E+5  -1.36437E+5
   3.06057E+5  -1.30114E+5
   3.05736E+5  -1.23661E+5
   3.05200E+5  -1.17608E+5
   3.04474E+5  -1.11277E+5
   3.03685E+5  -1.04924E+5
   3.02908E+5  -9.85238E+4
   3.01994E+5  -9.21015E+4
   3.00739E+5  -8.58005E+4
   2.98984E+5  -7.97629E+4
   2.97515E+5  -7.43992E+4
   2.96397E+5  -6.85078E+4
   2.94788E+5  -6.25306E+4
   2.92864E+5  -5.65924E+4
   2.91219E+5  -5.09057E+4
   2.89122E+5  -4.52838E+4
   2.86971E+5  -3.97827E+4
   2.85029E+5  -3.38710E+4
   2.82375E+5  -2.86470E+4
   2.80117E+5  -2.37801E+4
   2.77961E+5  -1.86320E+4
   2.75604E+5  -1.30669E+4
   2.72596E+5  -7.94862E+3
   2.70010E+5  -2.87611E+3
   2.66996E+5   1.46366E+3
   2.64135E+5   6.12170E+3
   2.61312E+5   1.04954E+4
   2.58144E+5   1.51004E+4
   2.55509E+5   1.91445E+4
   2.52230E+5   2.32261E+4
   2.49322E+5   2.75604E+4
   2.46323E+5   3.19485E+4
   2.42570E+5   3.57134E+4
   2.39360E+5   3.91199E+4
   2.36129E+5   4.28508E+4
   2.32968E+5   4.64675E+4
   2.29526E+5   5.01778E+4
   2.25881E+5   5.32028E+4
   2.22263E+5   5.66232E+4
   2.19197E+5   5.95288E+4
   2.15673E+5   6.23454E+4
   2.12310E+5   6.54737E+4
   2.08859E+5   6.79362E+4
   2.05349E+5   7.06779E+4
   2.02140E+5   7.33813E+4
   1.98605E+5   7.55859E+4
   1.95051E+5   7.79655E+4
   1.91607E+5   7.96935E+4
   1.88513E+5   8.21214E+4
   1.85088E+5   8.43659E+4
   1.81640E+5   8.65062E+4
   1.77910E+5   8.80964E+4
   1.74556E+5   9.00447E+4
   1.71266E+5   9.19181E+4
   1.67695E+5   9.34794E+4
   1.64415E+5   9.51069E+4
   1.60962E+5   9.65047E+4
   1.57929E+5   9.77393E+4
   1.54719E+5   9.95034E+4
   1.51093E+5   1.00994E+5
   1.47609E+5   1.02040E+5
   1.44378E+5   1.03008E+5
   1.41234E+5   1.04121E+5
   1.38049E+5   1.05012E+5
   1.34626E+5   1.06413E+5
   1.31247E+5   1.07623E+5
   1.27893E+5   1.08619E+5
   1.24759E+5   1.09609E+5
   1.20995E+5   1.10482E+5
   1.17656E+5   1.11054E+5
   1.14370E+5   1.11511E+5
   1.11283E+5   1.12076E+5
   1.08447E+5   1.12840E+5
   1.05143E+5   1.13601E+5
   1.01822E+5   1.14218E+5
   9.85807E+4   1.14488E+5
   9.54549E+4   1.14878E+5
   9.23454E+4   1.15070E+5
   8.93279E+4   1.15454E+5
   8.61206E+4   1.15398E+5
   8.32567E+4   1.15921E+5
   8.00063E+4   1.16058E+5
   7.71406E+4   1.16108E+5
   7.37587E+4   1.16153E+5
   7.10370E+4   1.16169E+5
   6.80996E+4   1.16016E+5
   6.52755E+4   1.16080E+5
   6.23977E+4   1.15933E+5
   5.95632E+4   1.15720E+5
   5.66117E+4   1.15506E+5
   5.39396E+4   1.15344E+5
   5.12136E+4   1.15411E+5
   4.86677E+4   1.14718E+5
   4.59990E+4   1.14251E+5
   4.33957E+4   1.13821E+5
   4.12765E+4   1.13255E+5
   3.87742E+4   1.13107E+5
   3.60818E+4   1.12587E+5
   3.37418E+4   1.12391E+5
   3.13787E+4   1.11782E+5
   2.90072E+4   1.10862E+5
   2.70716E+4   1.10431E+5
   2.45881E+4   1.10021E+5
   2.26457E+4   1.09351E+5
   2.06221E+4   1.08587E+5
   1.85420E+4   1.07971E+5
   1.64645E+4   1.07306E+5
   1.46557E+4   1.06423E+5
   1.29002E+4   1.05419E+5
   1.08949E+4   1.04950E+5
   8.85697E+3   1.04338E+5
   7.01759E+3   1.03408E+5
   5.32285E+3   1.02501E+5
   3.49658E+3   1.01407E+5
   2.00999E+3   1.00612E+5
   4.57103E+2   9.98396E+4
  -9.37284E+2   9.88334E+4
  -2.56299E+3   9.79737E+4
  -4.15103E+3   9.72447E+4
  -5.95899E+3   9.61206E+4
  -7.17992E+3   9.54431E+4
  -8.54268E+3   9.40304E+4
  -1.00260E+4   9.29715E+4
  -1.11278E+4   9.20892E+4
  -1.24595E+4   9.12158E+4
  -1.37293E+4   8.99600E+4
  -1.49439E+4   8.89804E+4
  -1.61558E+4   8.79546E+4
  -1.74025E+4   8.68892E+4
  -1.85914E+4   8.57150E+4
  -1.96235E+4   8.45162E+4
  -2.05260E+4   8.34819E+4
  -2.16190E+4   8.21362E+4
  -2.25124E+4   8.13148E+4
  -2.36290E+4   8.02582E+4
  -2.47045E+4   7.90755E+4
  -2.54489E+4   7.77909E+4
  -2.62986E+4   7.66173E+4
  -2.69303E+4   7.53298E+4
  -2.80717E+4   7.41539E+4
  -2.86804E+4   7.31632E+4
  -2.95260E+4   7.20133E+4
  -3.04552E+4   7.08594E+4
  -3.09248E+4   6.95724E+4
  -3.18927E+4   6.83036E+4
  -3.24797E+4   6.68778E+4
  -3.30890E+4   6.59416E+4
  -3.34617E+4   6.48268E+4
  -3.41342E+4   6.36891E+4
  -3.47179E+4   6.28078E+4
  -3.53935E+4   6.14918E+4
  -3.55805E+4   6.00007E+4
  -3.64527E+4   5.89808E+4
  -3.68931E+4   5.77574E+4
  -3.73318E+4   5.65149E+4
  -3.78492E+4   5.54324E+4
  -3.78448E+4   5.42444E+4
  -3.85213E+4   5.33167E+4
  -3.90098E+4   5.21602E+4
  -3.93806E+4   5.11009E+4
  -3.94380E+4   4.98629E+4
  -3.96654E+4   4.86510E+4
  -4.02252E+4   4.76455E+4
  -4.04844E+4   4.65064E+4
  -4.05552E+4   4.53209E+4
  -4.09945E+4   4.46480E+4
  -4.12400E+4   4.33986E+4
  -4.12874E+4   4.22697E+4
  -4.15028E+4   4.12822E+4
  -4.16194E+4   4.02672E+4
  -4.16935E+4   3.94762E+4
  -4.20097E+4   3.85893E+4
  -4.21666E+4   3.73615E+4
  -4.21494E+4   3.63022E+4
