 LCModel (Version 6.3-1N) Copyright: S.W. Provencher.          Ref.: Magn. Reson. Med. 30:672-679 (1993).                
 Slice_N1@21_19  28-Feb-2025 11:41:36
 27 lines in following concentration table = NCONC+1
    Conc.  %SD /Cr+PCr  Metabolite                                         
 2.88E-04   4% 2.7E-04 Mac                                                 
    5.829  27%   5.515 Cr                                                  
    2.626  58%   2.485 PCr                                                 
    7.075  12%   6.695 Ins                                                 
    9.334   9%   8.832 NAA                                                 
    4.409  20%   4.172 Tau                                                 
    2.389  10%   2.261 PCho                                                
    0.000 999%   0.000 GPC                                                 
    7.964  12%   7.536 Glu                                                 
    4.289  19%   4.058 Gln                                                 
    0.000 999%   0.000 Ala                                                 
    2.064  57%   1.953 Asc                                                 
    2.339  43%   2.213 Asp                                                 
    0.923  57%   0.873 GABA                                                
    1.050  65%   0.994 Glc                                                 
    1.776  29%   1.681 GSH                                                 
    0.000 999%   0.000 Lac                                                 
    3.102  21%   2.935 NAAG                                                
    0.000 999%   0.000 PE                                                  
    2.389  10%   2.261 GPC+PCho                                            
   12.436   6%  11.767 NAA+NAAG                                            
   12.253  10%  11.593 Glu+Gln                                             
    8.455   8%   8.000 Cr+PCr                                              
   12.436   6%  11.767 NAA+NAAG                                            
    8.455   8%   8.000 Cr+PCr                                              
   12.253  10%  11.593 Glu+Gln                                             
   6 lines in following misc. output table
  FWHM = 0.041 ppm    S/N =   4                                            
  Data shift = 0.008 ppm                                                   
  Ph: -61 deg       0.0 deg/ppm                                            
  alphaB,S = 1.1E-01,   2.7E+00                                            
   19 spline knots.   Ns = 5(1)                                            
  ( 4) 2 infls.   ( 1) 1 extrs.                                            
  480 points on ppm-axis = NY
      4.100000     4.091866     4.083733     4.075600     4.067466     4.059333     4.051199     4.043066     4.034933     4.026799
      4.018666     4.010532     4.002399     3.994265     3.986132     3.977998     3.969864     3.961731     3.953597     3.945463
      3.937330     3.929196     3.921062     3.912929     3.904795     3.896662     3.888528     3.880394     3.872261     3.864127
      3.855993     3.847860     3.839726     3.831592     3.823459     3.815325     3.807191     3.799058     3.790924     3.782790
      3.774657     3.766523     3.758389     3.750256     3.742122     3.733989     3.725855     3.717721     3.709588     3.701454
      3.693320     3.685187     3.677053     3.668919     3.660786     3.652652     3.644518     3.636385     3.628251     3.620117
      3.611984     3.603850     3.595716     3.587583     3.579449     3.571316     3.563182     3.555048     3.546915     3.538781
      3.530647     3.522514     3.514380     3.506246     3.498113     3.489979     3.481845     3.473712     3.465578     3.457444
      3.449311     3.441177     3.433043     3.424910     3.416776     3.408643     3.400509     3.392375     3.384242     3.376108
      3.367974     3.359841     3.351707     3.343573     3.335440     3.327306     3.319172     3.311039     3.302905     3.294771
      3.286638     3.278504     3.270370     3.262237     3.254103     3.245970     3.237836     3.229702     3.221569     3.213435
      3.205301     3.197168     3.189034     3.180900     3.172767     3.164633     3.156499     3.148366     3.140232     3.132098
      3.123965     3.115831     3.107697     3.099564     3.091430     3.083297     3.075163     3.067029     3.058896     3.050762
      3.042628     3.034495     3.026361     3.018227     3.010094     3.001960     2.993826     2.985693     2.977559     2.969425
      2.961292     2.953158     2.945024     2.936891     2.928757     2.920624     2.912490     2.904356     2.896223     2.888089
      2.879955     2.871822     2.863688     2.855554     2.847421     2.839287     2.831153     2.823020     2.814886     2.806752
      2.798619     2.790485     2.782351     2.774218     2.766084     2.757951     2.749817     2.741683     2.733550     2.725416
      2.717282     2.709149     2.701015     2.692881     2.684748     2.676614     2.668480     2.660347     2.652213     2.644079
      2.635946     2.627812     2.619678     2.611545     2.603411     2.595278     2.587144     2.579010     2.570877     2.562743
      2.554609     2.546476     2.538342     2.530208     2.522075     2.513941     2.505807     2.497674     2.489540     2.481406
      2.473273     2.465139     2.457006     2.448872     2.440738     2.432605     2.424471     2.416337     2.408204     2.400070
      2.391936     2.383803     2.375669     2.367535     2.359402     2.351268     2.343134     2.335001     2.326867     2.318733
      2.310600     2.302466     2.294333     2.286199     2.278065     2.269932     2.261798     2.253664     2.245531     2.237397
      2.229263     2.221130     2.212996     2.204862     2.196729     2.188595     2.180461     2.172328     2.164194     2.156060
      2.147927     2.139793     2.131660     2.123526     2.115392     2.107259     2.099125     2.090991     2.082858     2.074724
      2.066590     2.058457     2.050323     2.042189     2.034056     2.025922     2.017788     2.009655     2.001521     1.993387
      1.985254     1.977120     1.968987     1.960853     1.952719     1.944586     1.936452     1.928318     1.920185     1.912051
      1.903917     1.895784     1.887650     1.879516     1.871383     1.863249     1.855115     1.846982     1.838848     1.830714
      1.822581     1.814447     1.806314     1.798180     1.790046     1.781913     1.773779     1.765645     1.757512     1.749378
      1.741244     1.733111     1.724977     1.716843     1.708710     1.700576     1.692442     1.684309     1.676175     1.668041
      1.659908     1.651774     1.643641     1.635507     1.627373     1.619240     1.611106     1.602972     1.594839     1.586705
      1.578571     1.570438     1.562304     1.554170     1.546037     1.537903     1.529769     1.521636     1.513502     1.505368
      1.497235     1.489101     1.480968     1.472834     1.464700     1.456567     1.448433     1.440299     1.432166     1.424032
      1.415898     1.407765     1.399631     1.391497     1.383364     1.375230     1.367096     1.358963     1.350829     1.342695
      1.334562     1.326428     1.318295     1.310161     1.302027     1.293894     1.285760     1.277626     1.269493     1.261359
      1.253225     1.245092     1.236958     1.228824     1.220691     1.212557     1.204423     1.196290     1.188156     1.180022
      1.171889     1.163755     1.155622     1.147488     1.139354     1.131221     1.123087     1.114953     1.106820     1.098686
      1.090552     1.082419     1.074285     1.066151     1.058018     1.049884     1.041750     1.033617     1.025483     1.017349
      1.009216     1.001082     0.992949     0.984815     0.976681     0.968548     0.960414     0.952280     0.944147     0.936013
      0.927879     0.919746     0.911612     0.903478     0.895345     0.887211     0.879077     0.870944     0.862810     0.854676
      0.846543     0.838409     0.830276     0.822142     0.814008     0.805875     0.797741     0.789607     0.781474     0.773340
      0.765206     0.757073     0.748939     0.740805     0.732672     0.724538     0.716404     0.708271     0.700137     0.692003
      0.683870     0.675736     0.667603     0.659469     0.651335     0.643202     0.635068     0.626934     0.618801     0.610667
      0.602533     0.594400     0.586266     0.578132     0.569999     0.561865     0.553731     0.545598     0.537464     0.529330
      0.521197     0.513063     0.504930     0.496796     0.488662     0.480529     0.472395     0.464261     0.456128     0.447994
      0.439861     0.431727     0.423593     0.415460     0.407326     0.399192     0.391059     0.382925     0.374792     0.366658
      0.358524     0.350391     0.342257     0.334124     0.325990     0.317856     0.309723     0.301589     0.293455     0.285322
      0.277188     0.269055     0.260921     0.252787     0.244654     0.236520     0.228386     0.220253     0.212119     0.203986
 NY phased data points follow
  -7.37439E-01  1.06341E+00  2.77725E+00 -2.06311E+01 -9.49552E+00 -3.22190E-01 -4.56676E+00 -1.03690E+01 -6.85100E+00  3.50035E+00
  -9.70910E+00 -2.44001E+01 -2.18134E+01 -3.30577E+01 -3.40163E+01 -1.03933E+01 -2.91596E+01 -4.46852E+01 -4.43652E+01 -7.09591E+01
  -7.02354E+01 -7.39478E+01 -7.66755E+01 -5.16030E+01 -5.00996E+01 -2.36870E+01 -2.30587E+00  9.15556E-01  1.30195E+01  5.29400E+00
   1.67765E+01  2.21868E+01  2.12219E+00 -4.12789E+00  4.25890E+00  4.05041E+00  4.11596E+00 -3.89534E-01 -7.20087E+00 -1.06905E+01
  -3.19681E+01 -3.38447E+01 -3.34432E+01 -2.68857E+01 -1.72073E+01 -2.26081E+01 -1.02979E+01  1.10806E+01  3.19897E+01  3.56541E+01
   3.92699E+01  4.40952E+01  3.19643E+01  2.75633E+01  2.50199E+01  1.80981E+01  2.03379E+01  6.69511E+00 -7.77213E+00  3.35733E+00
  -7.37796E-01 -1.10435E+01 -1.41694E+00  1.12991E+01  1.65592E+01  3.53084E+01  4.16685E+01  3.20816E+01  2.10338E+01 -9.99775E-01
  -1.59029E+01 -2.83082E+01 -2.04249E+01 -2.10964E+00  1.54744E+01  2.24558E+01  3.77405E+01  5.30158E+01  4.11224E+01  4.55406E+01
   3.16085E+01  3.49784E+01  4.72545E+01  3.66134E+01  4.11380E+01  2.88277E+01  2.15025E+01  2.66226E+01  2.46901E+01  3.96565E+01
   6.20627E+01  6.30296E+01  6.07665E+01  6.24818E+01  7.76266E+01  8.30917E+01  7.95042E+01  9.22090E+01  8.60959E+01  9.05832E+01
   8.48392E+01  7.13426E+01  7.10438E+01  6.10384E+01  4.74168E+01  4.62366E+01  4.95981E+01  1.63877E+01 -1.33273E+01 -4.37939E+01
  -5.86704E+01 -7.83040E+01 -1.15665E+02 -9.26582E+01 -6.66293E+01 -4.84592E+01 -4.16540E+01 -3.04319E+01 -1.18151E+01 -1.08451E+01
   1.39064E+01  1.01278E+01  5.78463E+00  2.93689E+01  2.81551E+01  3.76010E+01  5.45261E+01  5.95406E+01  7.83188E+01  9.47379E+01
   1.07379E+02  1.11712E+02  9.52548E+01  7.26150E+01  1.21894E+01 -5.59479E+01 -7.25746E+01 -5.51623E+01 -5.19886E+01 -5.53327E+01
  -4.81653E+01 -4.85239E+01 -4.97510E+01 -6.78655E+01 -5.48735E+01 -3.37712E+01 -4.60260E+01 -4.73476E+01 -5.39556E+01 -4.40590E+01
  -3.54819E+01 -2.88788E+01 -2.98827E+01 -3.84880E+01 -3.19701E+01 -3.40009E+01 -2.07894E+01 -2.30041E+01 -1.64339E+01 -8.04344E+00
  -1.96749E+01 -9.63233E+00 -1.64426E+01 -1.10014E+01  4.98145E+00 -1.24700E+01 -2.09520E+01 -6.64985E+00 -1.31607E+01 -1.08599E+01
   8.09977E+00  2.82853E+00  9.19369E+00  2.06576E+01  2.61723E+01  2.42255E+01  9.65923E+00  1.90896E+01  1.73231E+01 -4.09074E-01
  -6.59409E+00 -2.33653E+01 -2.16243E+01 -1.92602E+01 -3.07404E+01 -3.18656E+01 -3.06361E+01 -2.61206E+01 -2.96616E+01 -2.31221E+01
  -1.87153E+01 -2.19959E+01 -2.84566E+01 -1.80908E+01 -3.77743E+00 -8.52792E+00  8.09855E+00  4.94439E+00 -6.33389E+00 -5.70082E+00
   9.01047E+00  1.37213E+01  5.62191E+00  1.06435E+01  4.51749E+00  1.75236E+01  7.15605E+00 -6.54693E+00 -9.54074E+00 -1.99967E+01
  -2.51785E+01 -3.85177E+01 -3.25437E+01 -1.07533E+01 -1.26301E+01 -1.39611E+01  2.27528E+01  1.88077E+01  3.03164E+01  2.71850E+01
   2.67409E-01  1.26872E+01 -1.91467E+00  8.78619E+00 -1.01782E+01 -1.54633E+01  8.21609E+00  9.74287E+00  1.23850E+01  3.98631E+00
  -1.11749E+00 -6.40261E+00  1.01517E-01 -2.08846E+01 -1.32037E+01 -2.49631E+01 -4.49376E+01 -4.56221E+01 -5.85020E+01 -3.83047E+01
  -6.03647E+01 -4.58234E+01 -4.19841E+01 -4.79986E+01 -2.33589E+01 -2.99986E+01 -1.99085E+01 -1.97406E+01 -1.58665E+01 -2.36257E+01
  -3.22277E+01 -4.23196E+01 -4.90932E+01 -4.77449E+01 -4.65373E+01 -4.50702E+01 -5.70796E+01 -1.23141E+01  2.98333E+01  8.95106E+01
   1.68295E+02  1.66248E+02  1.37856E+02  1.23168E+02  1.19265E+02  1.02618E+02  9.22921E+01  9.36309E+01  8.19315E+01  8.37670E+01
   7.74893E+01  7.39553E+01  9.42035E+01  9.63313E+01  8.62040E+01  8.54080E+01  8.76760E+01  8.44822E+01  8.97821E+01  7.99275E+01
   7.76899E+01  9.85350E+01  7.69375E+01  7.51567E+01  8.24278E+01  7.26826E+01  7.62038E+01  6.62607E+01  5.81061E+01  5.40043E+01
   5.47738E+01  5.12324E+01  5.21639E+01  4.92333E+01  4.24594E+01  3.74314E+01  2.58406E+01  2.32380E+01  1.59576E+01  2.19783E+01
   1.60259E+01  7.16902E-01  1.42235E+01  1.37713E+01  6.69139E+00  2.54578E+01  2.50416E+01  1.90296E+01  2.97872E+01  1.98744E+01
   2.83771E+01  3.31135E+01  1.13708E+01  1.49377E+01  1.94730E+01  1.07779E+01  7.93470E+00  1.26964E+01  1.13496E+01 -8.92981E+00
  -1.56787E+01 -9.39676E+00 -9.92653E+00 -3.09111E+00  8.23319E-01  3.87991E+00  7.68177E-01  4.41917E+00  2.75162E+00 -1.80280E+01
  -2.51824E+01 -1.60290E+01 -1.42596E+01 -3.57234E+01 -3.81014E+01 -3.24861E+01 -1.49751E+01 -9.17175E+00 -1.19345E+01  8.27754E+00
   6.33923E-01  8.30760E+00  6.91422E+00  9.82851E+00  2.44068E+01  1.93072E+01  1.71811E+01  8.01390E+00  9.21288E+00  1.16495E+01
   2.36958E+01  1.16231E+01  6.00089E+00  1.33173E+01  1.34124E+01  1.50678E+01 -6.13096E+00  7.95770E-01 -9.79467E+00 -1.66764E+01
  -4.10886E+00 -8.74633E+00 -5.80382E+00  5.93730E+00  9.63063E+00  4.95668E+00  2.71730E+01  2.28255E+01  2.57914E+01  3.38494E+01
   2.76260E+01  3.79583E+01  3.90428E+01  5.66057E+01  5.17695E+01  5.47072E+01  6.33183E+01  6.06874E+01  7.31437E+01  8.20340E+01
   8.20344E+01  7.65770E+01  1.04085E+02  9.84861E+01  1.01637E+02  1.23817E+02  1.17118E+02  1.30425E+02  1.28136E+02  1.33954E+02
   1.30780E+02  1.26851E+02  1.26255E+02  1.14632E+02  9.37563E+01  6.82485E+01  8.73255E+01  7.02677E+01  6.60780E+01  7.73897E+01
   5.12250E+01  5.47973E+01  3.74047E+01  1.33094E+01  1.37621E+01  1.52972E+00 -1.32346E+01 -6.52135E+00  7.67588E+00  1.44173E+01
   5.21449E+00 -7.41269E+00 -1.29383E+00  9.00371E+00  4.78775E+00 -9.41603E-01 -5.49226E+00 -1.61200E+01 -1.09884E+00  2.28412E+00
   7.05205E+00  6.00500E+00 -3.36908E+00  8.36602E+00 -1.21502E+01 -2.93743E+00  8.74774E+00 -1.33994E+00 -3.45433E+00 -4.62127E+00
   5.35439E-01 -4.64611E+00 -4.10073E-01 -1.11649E+00  4.26487E+00 -2.19057E+00 -1.40192E+01 -1.30665E+01 -1.37941E+00  2.98146E+00
  -1.22592E+00  1.66468E+01 -1.02610E+00 -7.63462E+00  3.29078E+00  1.44527E+00  1.06321E+00 -1.38078E+01 -1.54297E+01 -3.12212E+00
  -2.30820E-01 -2.75317E+00  1.07379E+01  1.29048E+01  1.40573E+01  1.13892E+01 -6.45865E+00 -9.22827E-02  3.71380E+00 -8.51948E+00
  -4.05701E+00  4.69517E-01 -1.00302E+00  5.39234E+00  1.94272E-01  5.99728E+00  4.24344E+00 -8.12698E+00 -9.32601E+00 -8.26704E+00
   8.77874E-01  9.24251E+00  4.96772E+00 -1.30752E+00  9.05541E+00  2.27874E+00  4.15692E+00  4.21668E+00  3.81234E+00  1.33471E+01
 NY points of the fit to the data follow
  -1.64992E+01 -2.01636E+01 -2.56965E+01 -3.14203E+01 -3.38154E+01 -3.10893E+01 -2.46410E+01 -1.58048E+01 -7.97778E+00 -8.51026E+00
  -1.46901E+01 -1.99048E+01 -2.28492E+01 -2.44110E+01 -2.63221E+01 -2.84931E+01 -3.15075E+01 -3.67562E+01 -4.25920E+01 -4.93449E+01
  -5.91036E+01 -6.49257E+01 -6.76965E+01 -6.01813E+01 -3.76661E+01 -1.65540E+01  8.52666E+00  2.65359E+01  2.56924E+01  2.63393E+01
   2.69089E+01  2.75622E+01  2.69008E+01  2.44149E+01  2.16198E+01  1.81105E+01  1.46574E+01  9.15464E+00  6.42793E-01 -9.82525E+00
  -2.33070E+01 -3.31373E+01 -3.82915E+01 -3.53738E+01 -1.99044E+01 -5.53752E+00  7.09385E+00  1.94930E+01  2.84479E+01  3.41906E+01
   3.60297E+01  3.63077E+01  3.41304E+01  2.85872E+01  2.08220E+01  1.29460E+01  2.37128E+00 -4.84336E+00 -8.76490E+00 -9.63863E+00
  -5.15786E+00 -5.41775E+00  2.08232E+00  1.54837E+01  1.91133E+01  2.93495E+01  3.79106E+01  3.40419E+01  2.52841E+01  1.21118E+01
   3.59584E-01 -9.11577E+00 -9.70125E+00  3.36808E+00  1.26483E+01  2.00281E+01  3.24708E+01  4.16237E+01  4.52462E+01  4.71901E+01
   4.67478E+01  4.40661E+01  3.91859E+01  3.04896E+01  2.31262E+01  1.80163E+01  1.57514E+01  2.13176E+01  2.77060E+01  3.64805E+01
   4.45270E+01  5.00234E+01  5.50291E+01  5.93370E+01  6.31046E+01  6.73597E+01  7.03793E+01  7.22290E+01  7.37595E+01  7.36871E+01
   7.27399E+01  7.07082E+01  6.57373E+01  6.26758E+01  5.03014E+01  4.26274E+01  3.96425E+01  2.81892E+01  8.56609E+00 -2.42364E+01
  -5.45431E+01 -9.05022E+01 -1.15413E+02 -8.56799E+01 -6.23729E+01 -4.62979E+01 -3.39944E+01 -2.40500E+01 -1.54134E+01 -7.67899E+00
  -2.24750E-01  6.83484E+00  1.42183E+01  2.20876E+01  3.10008E+01  4.15938E+01  5.36957E+01  6.21924E+01  7.62438E+01  9.41656E+01
   1.07115E+02  1.12793E+02  9.21142E+01  5.91543E+01  1.21826E+01 -5.17302E+01 -7.00115E+01 -6.03312E+01 -5.67560E+01 -5.37018E+01
  -5.12414E+01 -5.05099E+01 -5.03388E+01 -4.99588E+01 -5.04823E+01 -5.02077E+01 -4.88305E+01 -4.73675E+01 -4.45139E+01 -4.15306E+01
  -3.85944E+01 -3.58948E+01 -3.37555E+01 -3.12506E+01 -2.88191E+01 -2.62983E+01 -2.36454E+01 -2.16520E+01 -2.02014E+01 -1.90702E+01
  -1.79324E+01 -1.62409E+01 -1.48618E+01 -1.39570E+01 -1.35307E+01 -1.39399E+01 -1.34280E+01 -1.23358E+01 -1.13560E+01 -9.61405E+00
  -6.24001E+00  3.59926E-02  7.25755E+00  1.28610E+01  1.50771E+01  1.30338E+01  9.52598E+00  9.70513E+00  1.19858E+01  8.77788E+00
   3.17227E-01 -9.97049E+00 -1.76157E+01 -2.04149E+01 -2.34063E+01 -2.53122E+01 -2.56979E+01 -2.60032E+01 -2.45966E+01 -2.26784E+01
  -2.12419E+01 -1.76369E+01 -1.43907E+01 -9.66506E+00 -3.96916E+00 -2.61980E+00  3.51597E+00  7.52211E+00  3.90266E+00  6.86256E+00
   8.73762E+00  8.88247E+00  1.07783E+01  9.96716E+00  1.29277E+01  1.32817E+01  8.72881E+00  2.98740E+00 -3.06070E+00 -9.09022E+00
  -1.54423E+01 -2.00990E+01 -2.29367E+01 -1.96797E+01 -1.51648E+01 -4.17011E+00  1.17845E+01  2.16056E+01  3.50129E+01  3.76389E+01
   3.25970E+01  3.22992E+01  2.43951E+01  2.25422E+01  2.30876E+01  2.30638E+01  2.28615E+01  1.88473E+01  1.26725E+01  4.02997E+00
  -6.68483E+00 -1.78062E+01 -2.96274E+01 -3.95601E+01 -4.90699E+01 -5.56906E+01 -5.90047E+01 -6.21285E+01 -5.98308E+01 -5.64397E+01
  -5.42329E+01 -4.71246E+01 -4.10939E+01 -3.68895E+01 -2.87987E+01 -2.30239E+01 -2.14935E+01 -1.91914E+01 -2.29011E+01 -2.78445E+01
  -3.78536E+01 -4.99741E+01 -5.03999E+01 -5.72358E+01 -6.15372E+01 -5.86310E+01 -4.70107E+01 -1.13653E+01  1.34027E+01  6.68394E+01
   1.36707E+02  1.35919E+02  1.25247E+02  1.15776E+02  1.07445E+02  1.00742E+02  9.48058E+01  8.93369E+01  8.39920E+01  7.89371E+01
   7.53721E+01  7.24695E+01  7.09925E+01  7.10593E+01  7.06961E+01  7.15587E+01  7.16350E+01  7.13960E+01  7.11872E+01  6.99314E+01
   6.86815E+01  6.67926E+01  6.44833E+01  6.19991E+01  5.93426E+01  5.67032E+01  5.40498E+01  5.09739E+01  4.78820E+01  4.46274E+01
   4.08067E+01  3.69237E+01  3.25829E+01  2.83078E+01  2.46305E+01  2.15282E+01  1.96364E+01  1.91686E+01  1.99100E+01  2.14245E+01
   2.33650E+01  2.54091E+01  2.75265E+01  2.97924E+01  3.20400E+01  3.39856E+01  3.59054E+01  3.77933E+01  3.98140E+01  4.18136E+01
   4.38870E+01  4.58572E+01  4.73539E+01  4.85960E+01  4.96738E+01  5.04666E+01  5.09239E+01  5.07136E+01  4.97605E+01  4.83030E+01
   4.62868E+01  4.34477E+01  4.03503E+01  3.70313E+01  3.29264E+01  2.81816E+01  2.26849E+01  1.59163E+01  8.12859E+00 -6.90727E-01
  -9.46306E+00 -1.70990E+01 -2.30615E+01 -2.70345E+01 -2.85991E+01 -2.78159E+01 -2.50260E+01 -2.12052E+01 -1.72716E+01 -1.37376E+01
  -1.10700E+01 -8.31356E+00 -5.39728E+00 -1.95893E+00  2.25833E+00  6.04520E+00  9.24798E+00  1.17338E+01  1.29451E+01  1.34722E+01
   1.31988E+01  1.22932E+01  1.03157E+01  7.20783E+00  3.76007E+00  1.28085E-01 -2.93683E+00 -4.73064E+00 -5.02555E+00 -4.04452E+00
  -2.02076E+00  9.46260E-01  4.45025E+00  8.36372E+00  1.23775E+01  1.63447E+01  2.01529E+01  2.36820E+01  2.73061E+01  3.07535E+01
   3.43053E+01  3.78614E+01  4.14989E+01  4.52689E+01  4.92592E+01  5.37531E+01  5.85648E+01  6.39298E+01  6.99996E+01  7.63519E+01
   8.32535E+01  9.07124E+01  9.84446E+01  1.06041E+02  1.13759E+02  1.20628E+02  1.25459E+02  1.27333E+02  1.25579E+02  1.20205E+02
   1.11781E+02  1.01693E+02  9.18117E+01  8.29874E+01  7.56498E+01  6.87215E+01  6.19509E+01  5.48035E+01  4.67202E+01  3.80153E+01
   2.94723E+01  2.20746E+01  1.54493E+01  1.03560E+01  6.80753E+00  4.04098E+00  2.04737E+00  7.46832E-01 -2.01188E-01 -9.69451E-01
  -1.75473E+00 -2.23628E+00 -2.62065E+00 -2.74226E+00 -2.67319E+00 -2.48675E+00 -2.43703E+00 -2.34359E+00 -2.11449E+00 -2.00609E+00
  -1.89923E+00 -1.85716E+00 -1.37922E+00 -1.08850E+00 -1.14346E+00 -1.00891E+00 -8.37940E-01 -6.49108E-01 -5.10497E-01 -2.36762E-01
   7.43730E-02  4.03473E-01  5.13888E-01  4.08937E-01  3.41969E-01  4.33187E-01  5.85729E-01  8.15003E-01  1.22590E+00  1.37550E+00
   1.60276E+00  1.86583E+00  1.98118E+00  2.04030E+00  2.06766E+00  1.99153E+00  1.84847E+00  1.91606E+00  1.99554E+00  2.32421E+00
   2.45909E+00  2.41676E+00  2.53062E+00  2.59107E+00  2.60460E+00  2.92728E+00  3.21994E+00  3.33767E+00  3.50063E+00  3.66081E+00
   3.72713E+00  3.81713E+00  3.82088E+00  3.77359E+00  3.55322E+00  3.62539E+00  3.68764E+00  4.04272E+00  4.43155E+00  4.80927E+00
   5.05780E+00  4.99774E+00  4.76813E+00  4.52673E+00  4.49277E+00  4.61870E+00  4.78101E+00  4.92620E+00  4.86396E+00  4.92391E+00
 NY background values follow
     5.484E+00    5.430E+00    5.377E+00    5.323E+00    5.270E+00    5.217E+00    5.165E+00    5.114E+00    5.065E+00    5.018E+00
     4.972E+00    4.930E+00    4.889E+00    4.852E+00    4.819E+00    4.788E+00    4.762E+00    4.740E+00    4.723E+00    4.710E+00
     4.703E+00    4.701E+00    4.704E+00    4.714E+00    4.730E+00    4.753E+00    4.783E+00    4.820E+00    4.864E+00    4.916E+00
     4.977E+00    5.046E+00    5.123E+00    5.208E+00    5.302E+00    5.402E+00    5.511E+00    5.626E+00    5.749E+00    5.879E+00
     6.015E+00    6.158E+00    6.307E+00    6.463E+00    6.624E+00    6.791E+00    6.964E+00    7.142E+00    7.325E+00    7.514E+00
     7.707E+00    7.905E+00    8.107E+00    8.314E+00    8.524E+00    8.739E+00    8.957E+00    9.178E+00    9.403E+00    9.631E+00
     9.862E+00    1.010E+01    1.033E+01    1.057E+01    1.081E+01    1.105E+01    1.130E+01    1.154E+01    1.179E+01    1.203E+01
     1.228E+01    1.253E+01    1.278E+01    1.302E+01    1.327E+01    1.352E+01    1.376E+01    1.401E+01    1.425E+01    1.449E+01
     1.473E+01    1.497E+01    1.521E+01    1.544E+01    1.567E+01    1.589E+01    1.612E+01    1.634E+01    1.655E+01    1.677E+01
     1.697E+01    1.718E+01    1.738E+01    1.757E+01    1.776E+01    1.795E+01    1.813E+01    1.830E+01    1.848E+01    1.865E+01
     1.881E+01    1.897E+01    1.912E+01    1.928E+01    1.942E+01    1.957E+01    1.971E+01    1.984E+01    1.997E+01    2.010E+01
     2.022E+01    2.034E+01    2.046E+01    2.057E+01    2.067E+01    2.078E+01    2.088E+01    2.097E+01    2.106E+01    2.115E+01
     2.124E+01    2.132E+01    2.139E+01    2.147E+01    2.154E+01    2.160E+01    2.166E+01    2.172E+01    2.178E+01    2.183E+01
     2.187E+01    2.192E+01    2.196E+01    2.199E+01    2.203E+01    2.205E+01    2.208E+01    2.210E+01    2.212E+01    2.213E+01
     2.214E+01    2.215E+01    2.215E+01    2.215E+01    2.215E+01    2.214E+01    2.213E+01    2.212E+01    2.210E+01    2.208E+01
     2.205E+01    2.203E+01    2.199E+01    2.196E+01    2.192E+01    2.188E+01    2.183E+01    2.179E+01    2.174E+01    2.168E+01
     2.163E+01    2.157E+01    2.151E+01    2.145E+01    2.138E+01    2.131E+01    2.124E+01    2.117E+01    2.110E+01    2.102E+01
     2.095E+01    2.087E+01    2.079E+01    2.071E+01    2.063E+01    2.054E+01    2.046E+01    2.037E+01    2.029E+01    2.020E+01
     2.011E+01    2.002E+01    1.993E+01    1.984E+01    1.975E+01    1.966E+01    1.957E+01    1.948E+01    1.939E+01    1.930E+01
     1.922E+01    1.913E+01    1.904E+01    1.895E+01    1.886E+01    1.878E+01    1.869E+01    1.861E+01    1.853E+01    1.845E+01
     1.837E+01    1.829E+01    1.821E+01    1.814E+01    1.807E+01    1.800E+01    1.793E+01    1.786E+01    1.780E+01    1.773E+01
     1.768E+01    1.762E+01    1.756E+01    1.751E+01    1.746E+01    1.741E+01    1.736E+01    1.731E+01    1.726E+01    1.721E+01
     1.716E+01    1.711E+01    1.706E+01    1.700E+01    1.695E+01    1.689E+01    1.683E+01    1.676E+01    1.669E+01    1.662E+01
     1.655E+01    1.647E+01    1.639E+01    1.630E+01    1.620E+01    1.610E+01    1.600E+01    1.588E+01    1.577E+01    1.564E+01
     1.551E+01    1.536E+01    1.522E+01    1.506E+01    1.489E+01    1.472E+01    1.454E+01    1.435E+01    1.415E+01    1.394E+01
     1.373E+01    1.350E+01    1.326E+01    1.302E+01    1.276E+01    1.250E+01    1.222E+01    1.193E+01    1.164E+01    1.133E+01
     1.101E+01    1.068E+01    1.034E+01    9.991E+00    9.628E+00    9.253E+00    8.866E+00    8.467E+00    8.056E+00    7.632E+00
     7.196E+00    6.748E+00    6.288E+00    5.818E+00    5.338E+00    4.850E+00    4.353E+00    3.849E+00    3.339E+00    2.823E+00
     2.303E+00    1.779E+00    1.251E+00    7.218E-01    1.909E-01   -3.405E-01   -8.715E-01   -1.402E+00   -1.930E+00   -2.455E+00
    -2.976E+00   -3.493E+00   -4.005E+00   -4.511E+00   -5.010E+00   -5.501E+00   -5.983E+00   -6.456E+00   -6.919E+00   -7.370E+00
    -7.810E+00   -8.237E+00   -8.652E+00   -9.053E+00   -9.441E+00   -9.814E+00   -1.017E+01   -1.052E+01   -1.085E+01   -1.116E+01
    -1.146E+01   -1.175E+01   -1.202E+01   -1.227E+01   -1.250E+01   -1.272E+01   -1.292E+01   -1.310E+01   -1.326E+01   -1.340E+01
    -1.353E+01   -1.364E+01   -1.372E+01   -1.379E+01   -1.383E+01   -1.386E+01   -1.386E+01   -1.385E+01   -1.381E+01   -1.375E+01
    -1.366E+01   -1.356E+01   -1.343E+01   -1.328E+01   -1.312E+01   -1.293E+01   -1.272E+01   -1.250E+01   -1.226E+01   -1.200E+01
    -1.173E+01   -1.144E+01   -1.113E+01   -1.082E+01   -1.048E+01   -1.014E+01   -9.782E+00   -9.415E+00   -9.036E+00   -8.647E+00
    -8.249E+00   -7.842E+00   -7.426E+00   -7.004E+00   -6.574E+00   -6.139E+00   -5.698E+00   -5.252E+00   -4.802E+00   -4.348E+00
    -3.892E+00   -3.434E+00   -2.973E+00   -2.511E+00   -2.048E+00   -1.585E+00   -1.121E+00   -6.582E-01   -1.957E-01    2.654E-01
     7.250E-01    1.182E+00    1.637E+00    2.089E+00    2.538E+00    2.982E+00    3.423E+00    3.858E+00    4.288E+00    4.713E+00
     5.132E+00    5.544E+00    5.949E+00    6.347E+00    6.737E+00    7.118E+00    7.491E+00    7.855E+00    8.209E+00    8.553E+00
     8.886E+00    9.210E+00    9.522E+00    9.824E+00    1.012E+01    1.040E+01    1.067E+01    1.093E+01    1.118E+01    1.142E+01
     1.165E+01    1.187E+01    1.208E+01    1.228E+01    1.247E+01    1.265E+01    1.282E+01    1.298E+01    1.313E+01    1.327E+01
     1.340E+01    1.353E+01    1.364E+01    1.374E+01    1.383E+01    1.392E+01    1.399E+01    1.406E+01    1.411E+01    1.416E+01
     1.419E+01    1.422E+01    1.424E+01    1.425E+01    1.425E+01    1.425E+01    1.424E+01    1.421E+01    1.419E+01    1.415E+01
     1.411E+01    1.407E+01    1.401E+01    1.395E+01    1.389E+01    1.382E+01    1.374E+01    1.367E+01    1.358E+01    1.349E+01
     1.340E+01    1.331E+01    1.321E+01    1.311E+01    1.300E+01    1.290E+01    1.279E+01    1.268E+01    1.257E+01    1.245E+01
     1.234E+01    1.222E+01    1.210E+01    1.199E+01    1.187E+01    1.175E+01    1.163E+01    1.151E+01    1.138E+01    1.126E+01
     1.114E+01    1.102E+01    1.089E+01    1.077E+01    1.064E+01    1.052E+01    1.039E+01    1.026E+01    1.014E+01    1.001E+01
     9.883E+00    9.757E+00    9.630E+00    9.503E+00    9.376E+00    9.249E+00    9.123E+00    8.997E+00    8.871E+00    8.745E+00
 Mac      Conc. = 2.88E-04
  -1.43510E+01 -1.50922E+01 -1.57256E+01 -1.61225E+01 -1.65668E+01 -1.72673E+01 -1.83120E+01 -1.97401E+01 -2.14533E+01 -2.31021E+01
  -2.44310E+01 -2.52688E+01 -2.57093E+01 -2.59385E+01 -2.66493E+01 -2.76665E+01 -2.84433E+01 -2.88238E+01 -2.76615E+01 -2.50896E+01
  -2.08847E+01 -1.63151E+01 -1.33236E+01 -1.05735E+01 -8.17066E+00 -6.71574E+00 -5.57441E+00 -4.14193E+00 -2.31794E+00 -4.71332E-01
   1.32892E+00  3.03409E+00  4.22050E+00  5.01811E+00  5.47961E+00  5.66124E+00  5.94248E+00  6.67645E+00  8.12182E+00  1.00643E+01
   1.18183E+01  1.29400E+01  1.33564E+01  1.36150E+01  1.45250E+01  1.57191E+01  1.67838E+01  1.74316E+01  1.72482E+01  1.66088E+01
   1.56246E+01  1.46169E+01  1.36933E+01  1.29217E+01  1.25303E+01  1.23888E+01  1.26377E+01  1.32189E+01  1.42046E+01  1.55732E+01
   1.72579E+01  1.87805E+01  1.97261E+01  2.06909E+01  2.09360E+01  2.04377E+01  2.00225E+01  1.94623E+01  1.91261E+01  1.92759E+01
   1.98316E+01  2.11327E+01  2.29103E+01  2.54332E+01  2.76661E+01  2.88130E+01  2.93642E+01  2.94093E+01  2.90932E+01  2.87357E+01
   2.81823E+01  2.79898E+01  2.79540E+01  2.81454E+01  2.85925E+01  2.93092E+01  3.04352E+01  3.14311E+01  3.22973E+01  3.32704E+01
   3.39419E+01  3.45584E+01  3.49736E+01  3.52644E+01  3.51537E+01  3.44900E+01  3.32449E+01  3.14248E+01  2.90759E+01  2.69150E+01
   2.47847E+01  2.26813E+01  2.06131E+01  1.82754E+01  1.48799E+01  1.05437E+01  5.44525E+00 -1.78099E-01 -5.41767E+00 -9.29828E+00
