 
 $NMID
 ID=''
 FMTDAT='(2E13.5)'
 TRAMP=   1.00000E+0
 VOLUME=   1.00000E+0
 $END
  -2.21516E+3   3.22552E+3
  -1.60198E+3  -3.55563E+3
   3.00778E+3  -4.42505E+2
   1.48767E+3   3.84741E+3
  -3.74485E+3   2.39312E+2
  -7.07199E+2  -3.33664E+3
   3.68041E+3  -3.40365E+2
   1.27177E+3   2.87508E+3
  -4.90289E+2   8.69330E+2
  -3.18229E+2  -1.00342E+2
  -1.23797E+3   6.50199E+2
  -1.06365E+3   2.40488E+2
  -1.13371E+2  -1.15643E+3
  -1.82249E+3  -1.18436E+3
  -1.55023E+3  -1.66028E+3
   1.35297E+3  -1.27586E+3
   1.60757E+3   1.01252E+3
  -6.83550E+2   1.11919E+3
   5.70145E+1  -7.02592E+2
   1.00011E+3   1.61782E+2
   2.37946E+1   1.19813E+3
  -1.55482E+2  -3.04565E+2
   7.27144E+2  -2.03732E+2
  -2.39088E+2   7.45159E+2
  -8.09906E+2  -2.28159E+2
   7.84436E+2  -7.52461E+2
   1.54355E+3   1.28308E+3
  -4.69372E+2   1.36367E+3
  -6.43954E+2  -6.39313E+2
   3.11899E+2  -8.68860E+2
   1.27319E+2   1.25295E+2
  -7.51174E+2   3.00530E+2
  -7.00819E+2  -1.45637E+1
  -6.07269E+2  -2.57411E+2
   1.51372E+2  -1.84591E+3
   1.92168E+3  -1.45780E+3
   1.45912E+3   1.00477E+3
  -1.35138E+3   1.67823E+3
  -1.16695E+3  -1.86507E+2
   1.64582E+2  -6.10322E+1
  -2.34684E+2   3.74102E+1
  -7.81896E+2  -1.01725E+3
   4.58339E+2  -1.23754E+3
   1.11190E+3  -2.28788E+2
   6.88392E+2   4.12820E+2
   5.20798E+2   6.96809E+2
  -8.74813E+1   1.51412E+3
  -1.18244E+3   9.94596E+2
  -1.15979E+3  -6.52207E+2
  -2.60054E+2  -1.09637E+3
   2.36738E+2  -5.68964E+2
   1.49966E+2  -4.80253E+2
   3.30642E+2  -1.52554E+2
   4.89062E+2   3.92455E+2
   8.58296E+1   6.09108E+2
  -1.53533E+2   4.26207E+2
  -4.19261E+2  -4.13349E+2
  -4.85747E+2  -6.62886E+2
   1.13286E+2  -7.72585E+2
   5.26818E+2   9.72253E+1
   8.53306E+2   4.30009E+2
   4.53498E+2   3.56734E+2
   8.70901E+1   9.21089E+2
  -5.40377E+2   1.01341E+3
  -1.21020E+3   4.80104E+2
  -1.06958E+3  -3.69251E+2
  -1.39310E+2  -9.07384E+2
   4.61112E+2  -9.39113E+2
   5.72429E+2  -4.76285E+2
   2.48341E+2   2.15223E+2
  -6.27491E+1   1.33540E+2
   1.17987E+2  -2.32654E+2
   7.16836E+2  -2.12907E+1
   6.20493E+2   5.89317E+2
  -4.53669E+2   5.18941E+2
  -1.31582E+2  -2.10410E+2
   2.09882E+2  -1.66845E+2
   2.09049E+2   1.69550E+2
  -1.03976E+2   2.91890E+2
  -3.74453E+2   5.69014E+1
  -4.91076E+2   1.22559E+2
  -1.03452E+2  -1.32388E+2
   9.08782E+1  -8.22781E+1
   1.28340E+2   5.93805E+1
  -2.35885E+2  -3.56139E+2
  -1.24305E+2  -3.04856E+2
   5.52307E+2  -2.06041E+2
   5.05593E+2   3.64852E+2
   2.39333E+2   3.89031E+2
  -5.84319E+1  -1.01104E+2
   3.50905E+2   3.84478E+2
   6.47514E+2   3.10817E+2
  -1.05667E+2   7.60807E+2
  -4.95335E+2   3.93116E+1
  -5.15319E+2  -3.89990E+2
  -7.31224E+0  -3.97057E+2
   2.84464E+2  -2.69503E+2
  -2.09754E+2  -2.12858E+2
  -2.16779E+2  -3.66014E+2
   1.98103E+2  -5.62131E+2
   6.67943E+2   1.00703E+2
   2.47658E+2   7.35331E+2
  -1.14638E+2   3.82675E+2
  -2.66186E+2  -4.16095E+2
   2.75281E+2  -9.10486E+1
   4.85915E+2  -1.81835E+2
   3.98008E+2   3.35074E+2
  -4.67858E+2   2.56994E+2
  -9.84315E+2  -1.82507E+2
  -2.82316E+2  -8.41971E+2
   6.03468E+2  -6.29909E+2
   6.76127E+2  -1.10640E+2
   3.53800E+2   5.27894E+2
  -8.88062E+1  -2.73732E+1
   1.91266E+2  -1.10698E+1
  -2.83612E+1   4.23234E+2
  -2.76681E+2   6.86020E+2
  -5.55313E+2   3.63645E+2
  -6.27862E+2  -4.19310E+2
   3.30140E+1  -3.26066E+2
   5.32767E+2  -2.92301E+2
   3.56660E+2  -6.37222E+1
   1.82388E+2   1.47452E+2
   7.31717E+1   2.34020E+2
   8.32980E+0   3.60082E+2
  -2.75880E+2   8.76953E+1
  -2.46207E+2  -2.26323E+2
  -9.48134E+0  -9.50767E+1
   3.53783E+2  -1.50183E+2
   1.52386E+2   7.81587E+1
   1.64594E+1   3.37523E+2
  -2.03087E+2   2.22185E+2
  -2.93441E+2  -9.66020E+0
   1.65714E+2  -1.76732E+2
  -6.07390E+1   9.54627E+1
  -3.33193E+2   2.00235E+1
  -7.05090E+1  -9.13463E+1
   2.30676E+2   1.14222E+2
   3.64190E+2   1.56282E+2
   1.02895E+2   1.60587E+2
  -4.12268E+2   7.63590E+1
  -2.82542E+2   7.00229E+1
  -3.63589E+0  -4.33361E+2
   2.65071E+2  -4.10643E+1
   3.18694E+2   2.78605E+2
  -1.64976E+2   3.52097E+2
  -2.90221E+2   2.65441E+2
  -1.63741E+2   1.55837E+2
   1.04613E+2   1.88526E+2
  -1.76015E+2   1.13503E+2
  -1.03870E+2  -1.27482E+2
   3.18113E+1  -1.44786E+2
   5.79961E+1  -1.51110E+2
   3.34343E+2   3.76079E+2
   1.75382E+2   6.03204E+1
   3.45313E+1  -9.04451E+1
   1.57669E+2   1.60454E+2
   2.72614E+2   2.93692E+0
  -8.31356E+1   2.78276E+2
   9.31643E+1   9.08812E+1
   2.22876E+2   1.62561E+2
  -1.33535E+2   1.48273E+2
  -2.35102E+2   1.06473E+2
  -2.12369E+2  -3.94419E+1
  -8.94368E+0  -1.99605E+2
   1.30088E+2  -1.87560E+2
   4.15136E+2   8.91098E+0
   2.00820E+2   3.01295E+2
   4.34271E+1   9.27694E+1
  -3.28759E+1  -8.53598E+1
   2.92626E+2   4.43024E+1
   9.03295E-1   2.27932E+2
   7.86974E+1   3.18175E+2
  -1.01850E+2  -6.65587E+1
  -7.08092E+1  -2.93244E+2
   7.56132E+0   6.19470E+1
  -1.80961E+1   6.63047E+1
   2.68753E+1   1.91917E+2
  -2.27478E+2  -1.49522E+2
  -1.36676E+2  -1.61846E+2
   1.46572E+2   3.67330E+1
   2.85585E+2   4.40472E+2
   9.68575E+1   2.06755E+2
  -1.95439E+2   1.65984E+2
  -8.03369E+1   2.70159E+1
   4.41998E+1   1.13818E+2
  -1.01120E+2   1.42468E+2
  -1.49916E+2  -1.39762E+2
  -1.60569E+2  -2.10516E+2
  -6.78447E+0  -1.40187E+2
   3.04095E+2   4.28461E+2
   1.41925E+1   4.87941E+2
  -1.65513E+2   3.31857E+1
  -2.41161E+2  -1.71139E+2
   3.71348E+1  -1.78672E+1
   2.79442E+1  -2.62700E+1
   1.56313E+2   3.60354E+2
  -2.38184E+1   4.14926E+1
   1.51552E+2   8.23984E+1
   2.93886E+1  -4.96266E+1
   1.51720E+2   4.51361E+2
  -2.97911E+2  -4.67005E+1
   5.82467E+1  -2.55588E+2
  -7.25280E+0  -1.45992E+2
   1.85401E+2  -2.77245E+2
   1.85201E+2  -4.50905E+1
  -1.69935E+1  -9.93228E+1
  -2.34529E+1  -1.09088E+2
   1.02180E+2  -5.66891E+1
   9.24973E+1   1.19360E+2
   3.78217E+1  -1.28861E+2
   6.12988E+1  -3.43328E+2
   9.87314E+1   7.69969E+1
   2.13654E+2  -1.52778E+2
   1.96096E+1   2.28448E+2
  -4.84953E+1   1.58637E+2
  -2.98169E+2   1.09026E+2
  -2.20496E+2  -1.96631E+2
   1.63743E+2  -2.10267E+2
  -8.98913E+0  -2.70541E+1
   6.16439E+1  -2.55246E+2
  -1.28783E+2  -4.12629E+1
  -3.29696E+1   4.94398E+1
   1.11026E+2   1.62287E+2
  -1.60900E+2  -8.44059E+0
  -9.45953E+1  -2.42832E+2
  -6.81707E+0   9.73166E+0
  -6.28829E+1  -1.58472E+2
   6.43096E+1   6.83209E+1
  -7.04533E+0  -9.66548E+1
  -1.50648E+2   3.32178E+1
   8.30220E+0  -1.63833E+2
   3.93011E+1   3.86786E+1
  -7.71904E+1   8.37739E+0
  -8.06066E+1  -1.66732E+2
   6.77275E+1  -1.09781E+2
  -2.15183E+2   1.43158E+2
  -1.30493E+2   2.28461E+2
  -6.40798E+0   1.93034E+2
  -2.74739E+2  -1.49823E+2
  -2.05630E+2  -1.49117E+2
   7.22529E+0  -8.49923E+0
   1.24327E+2  -1.91129E+1
  -4.78464E+1  -9.58795E+1
  -5.51517E+1  -2.09829E+1
  -1.35170E+2  -1.00517E+0
  -2.75820E+2   4.66952E+1
  -1.78865E+2  -1.42730E+2
  -2.14153E+2  -1.00970E+0
   1.23067E+2  -5.20549E+1
  -7.63421E+1   4.54533E+1
   1.29927E+2  -1.11161E+2
   1.04438E+0  -2.13998E+1
  -1.36961E+2  -1.75406E+2
  -7.87582E+1  -1.15282E+2
  -5.64945E+1  -5.81240E+0
   1.49686E+1  -1.47254E+1
   8.92103E+1  -3.61247E+0
  -1.26584E+2   7.32098E+1
   1.43430E+2   3.54253E+1
  -2.02301E+1  -8.02460E+1
  -2.67730E+2  -6.44108E+1
  -5.88574E+0   9.97627E+1
  -1.32361E+2  -2.07529E+0
   7.94460E+1  -7.11280E+1
   1.42067E+2   1.01376E+1
   2.53131E+2   3.82436E+1
  -1.66871E+2   1.52112E+2
  -8.31936E+1  -5.03444E+1
  -7.42274E+1   1.55045E+2
  -1.54346E+2   1.88864E+1
   6.54285E+1   1.14110E+2
   3.36513E+1   1.65979E+1
  -4.79249E+1   2.30906E+1
  -6.83748E+0   6.94457E-1
  -5.79484E+1  -2.93904E+1
  -1.70451E+2   3.59258E+1
  -2.32979E+0  -1.12931E+2
  -5.56970E+1  -1.58751E+2
  -5.73223E+1   9.11821E+1
  -1.19620E+2   2.68674E+2
   2.70053E+0   9.02367E+0
   5.16796E+1   9.05818E+1
  -6.47653E+1   3.64199E+1
   4.28959E+1   6.45910E+1
  -7.69757E+0  -9.02862E+1
  -1.56762E+2  -4.70813E+1
  -1.27202E+2  -2.76861E+2
  -1.51801E+2   8.36393E+1
   3.90733E+1  -8.27350E+1
   1.27650E+2   7.38377E+0
  -1.31136E+2   5.01212E+1
   4.87056E+1  -1.21888E+2
  -7.76795E+1  -1.07472E+2
  -8.91192E+1  -6.31869E+1
   1.10251E+2  -2.20587E+2
  -1.06706E+2  -1.16029E+2
   3.78146E+1   2.15469E+2
   2.15152E+2   1.07587E+2
  -2.11418E+2   2.10310E+2
  -1.26010E+2  -2.52657E+2
  -5.52671E+1  -2.11736E+2
  -7.41574E+1  -4.21759E+1
  -8.47123E+1   2.33397E+2
  -9.44230E+1   3.02823E+1
   4.47325E+1   8.93536E+1
  -1.50900E+2  -2.46625E+1
  -6.68603E+1   9.21658E+1
   2.79587E+1  -1.83083E+2
  -1.37583E+2   1.43810E+2
  -5.56434E+1   3.09550E+2
  -7.30485E+1  -2.91522E+2
  -1.65461E+2  -7.45202E+1
   2.00323E+1   5.15139E+1
  -2.37833E+2  -1.51865E+2
   2.57126E+1  -1.85663E+2
  -9.01644E+1  -4.88986E+1
  -1.42020E+1   1.11751E+2
   1.24462E+1   3.29558E+1
  -5.73719E+1  -2.01000E+2
  -4.16077E+1   5.87590E+1
  -9.71004E+1  -7.66637E+1
  -1.85554E+2   2.27058E+2
  -1.88183E+2  -1.24221E+2
   1.88115E+2   1.44436E+2
  -3.29759E+1   1.77308E+1
  -1.31425E+2  -1.64638E+1
  -2.14796E+1   1.61375E+2
  -1.77435E+2   4.01123E+1
  -7.52789E+0   9.55141E+1
  -4.95618E+1   1.12006E+2
  -6.92299E+1  -1.83800E+2
  -1.03803E+2   9.18963E+0
   2.69437E+1  -1.76859E+2
  -1.10909E+2   1.86028E+2
   2.34504E+2   7.70428E+1
   3.32333E+1  -8.42524E+0
  -6.72138E+1   8.09633E+1
   3.91578E+1  -9.55070E+1
   7.64949E+1   3.14667E+1
   4.29034E+1   1.49927E+2
  -3.95541E+1  -1.26082E+2
  -6.32934E+1  -5.00480E+1
   1.69735E+1   5.51203E+1
   1.46588E+1   4.27274E+1
   4.40140E+1  -1.50170E+2
  -3.25280E+1   6.28861E+1
   9.15819E+1  -4.76767E+1
   1.38427E+1  -3.01900E+2
   2.04354E+2   1.85406E+1
  -1.90903E+2   1.38128E+2
  -1.25608E+2   2.03327E+2
  -2.07836E+2  -2.13272E+2
   8.35683E+1   1.52218E+2
  -8.45376E+1   1.13307E+2
  -5.37453E+1  -1.50701E+2
  -1.43628E+2  -2.09886E+2
   2.69548E+2  -3.84836E+0
  -2.97499E+1   2.24148E+2
   1.36748E+2   3.63229E+1
  -1.78393E+1   8.66341E+1
   1.27621E+2  -1.31966E+2
  -1.98447E+2   2.29034E+2
   9.78424E+1   3.42820E+1
  -3.01306E+0   7.88080E+1
   6.95558E+1   3.08653E+1
  -1.02063E+2   3.17358E+2
