 
 $NMID
 ID=''
 FMTDAT='(2E13.5)'
 TRAMP=   1.00000E+0
 VOLUME=   1.00000E+0
 $END
  -3.99786E+5   2.72658E+5
  -1.25556E+6   3.53314E+5
  -1.17701E+6   5.32623E+5
  -1.09650E+6   4.54303E+5
  -1.12927E+6   4.05257E+5
  -1.09372E+6   3.83147E+5
  -1.08319E+6   3.08793E+5
  -1.13575E+6   2.96485E+5
  -1.12080E+6   3.25697E+5
  -1.10160E+6   3.08881E+5
  -1.10271E+6   3.04840E+5
  -1.06298E+6   3.00338E+5
  -1.04095E+6   2.66172E+5
  -1.05119E+6   2.57995E+5
  -1.03665E+6   2.57138E+5
  -1.02284E+6   2.43282E+5
  -1.02325E+6   2.45092E+5
  -1.00363E+6   2.35701E+5
  -9.90671E+5   2.04696E+5
  -9.86591E+5   1.90327E+5
  -9.70206E+5   1.76430E+5
  -9.61773E+5   1.56216E+5
  -9.57381E+5   1.49743E+5
  -9.40183E+5   1.39142E+5
  -9.25914E+5   1.21277E+5
  -9.14568E+5   1.20540E+5
  -8.99472E+5   1.16927E+5
  -8.88070E+5   1.07645E+5
  -8.74313E+5   1.05170E+5
  -8.56903E+5   1.02683E+5
  -8.47304E+5   9.02768E+4
  -8.35992E+5   8.20713E+4
  -8.19489E+5   7.16714E+4
  -8.08436E+5   6.11179E+4
  -7.96672E+5   5.30456E+4
  -7.82535E+5   4.16855E+4
  -7.72403E+5   2.92464E+4
  -7.60826E+5   2.08014E+4
  -7.44893E+5   1.30711E+4
  -7.32606E+5   6.57501E+3
  -7.19055E+5   2.83326E+3
  -7.04538E+5  -1.61484E+3
  -6.91091E+5  -5.08265E+3
  -6.78186E+5  -7.53572E+3
  -6.63618E+5  -1.12188E+4
  -6.52120E+5  -1.41916E+4
  -6.40583E+5  -1.88322E+4
  -6.26727E+5  -2.62169E+4
  -6.12189E+5  -3.32144E+4
  -5.99720E+5  -3.83591E+4
  -5.88133E+5  -4.46395E+4
  -5.76164E+5  -5.11752E+4
  -5.64035E+5  -5.66444E+4
  -5.52819E+5  -6.19634E+4
  -5.41161E+5  -6.67505E+4
  -5.29013E+5  -7.08742E+4
  -5.16803E+5  -7.45775E+4
  -5.05002E+5  -7.74570E+4
  -4.94016E+5  -7.95687E+4
  -4.83306E+5  -8.22712E+4
  -4.72829E+5  -8.50639E+4
  -4.62586E+5  -8.76801E+4
  -4.52399E+5  -9.06978E+4
  -4.41915E+5  -9.41617E+4
  -4.30873E+5  -9.76222E+4
  -4.19846E+5  -1.00350E+5
  -4.09225E+5  -1.03048E+5
  -3.99595E+5  -1.05613E+5
  -3.90700E+5  -1.07486E+5
  -3.81137E+5  -1.09084E+5
  -3.71407E+5  -1.09928E+5
  -3.61587E+5  -1.10340E+5
  -3.52835E+5  -1.11361E+5
  -3.44573E+5  -1.12471E+5
  -3.35611E+5  -1.12813E+5
  -3.26586E+5  -1.12857E+5
  -3.18825E+5  -1.13263E+5
  -3.10018E+5  -1.13821E+5
  -3.00901E+5  -1.14210E+5
  -2.92741E+5  -1.14806E+5
  -2.84796E+5  -1.15097E+5
  -2.76703E+5  -1.14560E+5
  -2.68765E+5  -1.13987E+5
  -2.61143E+5  -1.13484E+5
  -2.53342E+5  -1.13107E+5
  -2.45590E+5  -1.11401E+5
  -2.38537E+5  -1.09514E+5
  -2.31844E+5  -1.07875E+5
  -2.25077E+5  -1.05908E+5
  -2.17778E+5  -1.03778E+5
  -2.11381E+5  -1.01787E+5
  -2.04771E+5  -9.97509E+4
  -1.98255E+5  -9.82628E+4
  -1.91326E+5  -9.63138E+4
  -1.84987E+5  -9.44657E+4
  -1.78547E+5  -9.27332E+4
  -1.72604E+5  -9.07871E+4
  -1.66383E+5  -8.92804E+4
  -1.60713E+5  -8.71497E+4
  -1.55124E+5  -8.53379E+4
  -1.49925E+5  -8.34082E+4
  -1.44233E+5  -8.13187E+4
  -1.38783E+5  -7.94114E+4
  -1.33544E+5  -7.68019E+4
  -1.28709E+5  -7.42506E+4
  -1.24073E+5  -7.19831E+4
  -1.19586E+5  -6.98422E+4
  -1.14698E+5  -6.82591E+4
  -1.10228E+5  -6.58324E+4
  -1.05971E+5  -6.36137E+4
  -1.02060E+5  -6.16875E+4
  -9.78569E+4  -6.03640E+4
  -9.40394E+4  -5.85962E+4
  -9.01526E+4  -5.68947E+4
  -8.66954E+4  -5.52396E+4
  -8.35474E+4  -5.36035E+4
  -8.04427E+4  -5.19366E+4
  -7.71605E+4  -5.04420E+4
  -7.38526E+4  -4.84806E+4
  -7.16062E+4  -4.71167E+4
  -6.93153E+4  -4.52156E+4
  -6.68503E+4  -4.36517E+4
  -6.44912E+4  -4.19867E+4
  -6.25817E+4  -4.09517E+4
  -6.06317E+4  -3.93507E+4
  -5.89465E+4  -3.76453E+4
  -5.74247E+4  -3.58747E+4
  -5.58214E+4  -3.47127E+4
  -5.44873E+4  -3.33336E+4
  -5.33476E+4  -3.20365E+4
  -5.22984E+4  -3.06007E+4
  -5.12067E+4  -2.95013E+4
  -5.03513E+4  -2.81798E+4
  -4.94679E+4  -2.67502E+4
  -4.86978E+4  -2.53578E+4
  -4.84076E+4  -2.43554E+4
  -4.80452E+4  -2.30663E+4
  -4.77004E+4  -2.19703E+4
  -4.74651E+4  -2.06429E+4
  -4.73984E+4  -1.98367E+4
  -4.72084E+4  -1.87560E+4
  -4.68295E+4  -1.76524E+4
  -4.69164E+4  -1.63529E+4
  -4.71464E+4  -1.54902E+4
  -4.72799E+4  -1.46336E+4
  -4.77254E+4  -1.35458E+4
  -4.78835E+4  -1.26829E+4
  -4.80712E+4  -1.19588E+4
  -4.86207E+4  -1.09435E+4
  -4.89715E+4  -9.67034E+3
  -4.95059E+4  -9.39911E+3
  -5.00370E+4  -8.39198E+3
  -5.03987E+4  -7.51226E+3
  -5.09608E+4  -6.63920E+3
  -5.13751E+4  -6.28804E+3
  -5.19667E+4  -5.53656E+3
  -5.21115E+4  -4.79238E+3
  -5.27515E+4  -4.39417E+3
  -5.32376E+4  -3.63083E+3
  -5.36603E+4  -2.92111E+3
  -5.41876E+4  -2.78346E+3
  -5.46385E+4  -2.49027E+3
  -5.51908E+4  -2.36437E+3
  -5.54956E+4  -1.88253E+3
  -5.62500E+4  -1.41529E+3
  -5.64627E+4  -1.03176E+3
  -5.68199E+4  -1.00245E+3
  -5.72699E+4  -6.79026E+2
  -5.77306E+4  -5.76954E+2
  -5.80101E+4  -5.43812E+2
  -5.85061E+4  -5.99350E+1
  -5.90765E+4  -1.71585E+2
  -5.91611E+4  -1.09486E+2
  -5.95534E+4  -2.04377E+2
  -6.01138E+4  -1.15272E+2
  -6.02382E+4  -4.60276E+2
  -6.05283E+4  -4.84339E+2
  -6.08991E+4  -7.96171E+2
  -6.09073E+4  -1.07729E+3
  -6.13180E+4  -1.39300E+3
  -6.17470E+4  -1.42382E+3
  -6.18468E+4  -1.67968E+3
  -6.20361E+4  -2.28014E+3
  -6.22904E+4  -2.77325E+3
  -6.23830E+4  -3.39169E+3
  -6.24892E+4  -3.81800E+3
  -6.29348E+4  -4.49457E+3
  -6.31738E+4  -4.57235E+3
  -6.32416E+4  -5.12368E+3
  -6.32803E+4  -5.70385E+3
  -6.36719E+4  -6.18922E+3
  -6.34322E+4  -7.15543E+3
  -6.35509E+4  -7.59539E+3
  -6.31453E+4  -8.28008E+3
  -6.30539E+4  -8.89421E+3
  -6.32136E+4  -9.51768E+3
  -6.32697E+4  -1.01614E+4
  -6.29057E+4  -1.10442E+4
  -6.28874E+4  -1.19155E+4
  -6.27695E+4  -1.26122E+4
  -6.28088E+4  -1.32292E+4
  -6.21736E+4  -1.43240E+4
  -6.20760E+4  -1.49979E+4
  -6.16303E+4  -1.57499E+4
  -6.17579E+4  -1.66160E+4
  -6.15100E+4  -1.74643E+4
  -6.10499E+4  -1.82815E+4
  -6.07937E+4  -1.91534E+4
  -6.05204E+4  -2.00061E+4
  -6.04211E+4  -2.06068E+4
  -6.00244E+4  -2.14929E+4
  -5.94755E+4  -2.23224E+4
  -5.94557E+4  -2.32233E+4
  -5.91757E+4  -2.40806E+4
  -5.88794E+4  -2.50784E+4
  -5.81943E+4  -2.58666E+4
  -5.79179E+4  -2.64290E+4
  -5.74113E+4  -2.73998E+4
  -5.71273E+4  -2.80546E+4
  -5.68978E+4  -2.84725E+4
  -5.65800E+4  -2.94711E+4
  -5.61076E+4  -3.00653E+4
  -5.53767E+4  -3.05176E+4
  -5.50797E+4  -3.15033E+4
  -5.46178E+4  -3.22896E+4
  -5.40377E+4  -3.25294E+4
  -5.36392E+4  -3.32034E+4
  -5.30683E+4  -3.35908E+4
  -5.26780E+4  -3.42612E+4
  -5.22411E+4  -3.48701E+4
  -5.10898E+4  -3.54787E+4
  -5.07319E+4  -3.58942E+4
  -5.02880E+4  -3.63596E+4
  -4.96711E+4  -3.67238E+4
  -4.92694E+4  -3.69402E+4
  -4.86893E+4  -3.71902E+4
  -4.78762E+4  -3.76493E+4
  -4.76219E+4  -3.80135E+4
  -4.67456E+4  -3.86573E+4
  -4.57736E+4  -3.84446E+4
  -4.50586E+4  -3.87172E+4
  -4.46441E+4  -3.88181E+4
  -4.40425E+4  -3.93481E+4
  -4.29597E+4  -3.95893E+4
  -4.22303E+4  -3.96774E+4
  -4.14565E+4  -3.98898E+4
  -4.08568E+4  -3.97649E+4
  -3.97046E+4  -4.00101E+4
  -3.90655E+4  -4.00777E+4
  -3.82848E+4  -4.00143E+4
  -3.75305E+4  -4.01231E+4
  -3.67784E+4  -4.04947E+4
  -3.58118E+4  -4.02775E+4
  -3.48350E+4  -4.05179E+4
  -3.40198E+4  -4.04462E+4
  -3.34158E+4  -4.03940E+4
  -3.24106E+4  -4.04492E+4
  -3.15509E+4  -4.07551E+4
  -3.04495E+4  -4.05559E+4
  -2.95042E+4  -4.08030E+4
  -2.86860E+4  -4.03273E+4
  -2.75949E+4  -4.04836E+4
  -2.68375E+4  -4.04413E+4
  -2.58567E+4  -4.01702E+4
  -2.49004E+4  -4.02591E+4
  -2.43429E+4  -4.01887E+4
  -2.33797E+4  -4.03726E+4
  -2.22992E+4  -3.98619E+4
  -2.17090E+4  -3.97781E+4
  -2.07789E+4  -3.97967E+4
  -2.00405E+4  -3.95742E+4
  -1.90850E+4  -3.92017E+4
  -1.84907E+4  -3.89557E+4
  -1.73876E+4  -3.87472E+4
  -1.66227E+4  -3.88853E+4
  -1.55714E+4  -3.85785E+4
  -1.47039E+4  -3.81517E+4
  -1.40599E+4  -3.80145E+4
  -1.33349E+4  -3.76501E+4
  -1.25984E+4  -3.73798E+4
  -1.17923E+4  -3.69582E+4
  -1.11172E+4  -3.66203E+4
  -1.03461E+4  -3.64777E+4
  -9.70112E+3  -3.59568E+4
  -9.11679E+3  -3.59390E+4
  -8.18161E+3  -3.52303E+4
  -7.78731E+3  -3.50480E+4
  -6.98004E+3  -3.42695E+4
  -6.46262E+3  -3.40782E+4
  -5.83640E+3  -3.38799E+4
  -5.19809E+3  -3.34271E+4
  -4.64840E+3  -3.30823E+4
  -4.15411E+3  -3.22457E+4
  -3.16115E+3  -3.17257E+4
  -2.97879E+3  -3.13867E+4
  -2.44980E+3  -3.07867E+4
  -1.84120E+3  -3.03144E+4
  -1.12133E+3  -2.99569E+4
  -5.38596E+2  -2.93274E+4
  -4.93589E+2  -2.88948E+4
   1.95283E+2  -2.83033E+4
   6.03004E+2  -2.76525E+4
   8.40697E+2  -2.71404E+4
   1.47371E+3  -2.68366E+4
   2.03599E+3  -2.61519E+4
   2.44208E+3  -2.55695E+4
   2.87294E+3  -2.50289E+4
   3.18822E+3  -2.46007E+4
   3.49359E+3  -2.40959E+4
   4.03714E+3  -2.32584E+4
   4.34664E+3  -2.29734E+4
   4.44431E+3  -2.23308E+4
   5.23799E+3  -2.19497E+4
   5.64393E+3  -2.14453E+4
   5.70842E+3  -2.09109E+4
   6.14107E+3  -2.05116E+4
   6.27497E+3  -1.99540E+4
   6.63644E+3  -1.94952E+4
   6.85218E+3  -1.86603E+4
   7.32357E+3  -1.85277E+4
   7.59244E+3  -1.79575E+4
   7.65693E+3  -1.76731E+4
   8.15703E+3  -1.68068E+4
   8.21258E+3  -1.64004E+4
   8.33199E+3  -1.58229E+4
   8.79824E+3  -1.53942E+4
   8.90131E+3  -1.51831E+4
   9.03252E+3  -1.48091E+4
   9.66287E+3  -1.41115E+4
   9.48614E+3  -1.36731E+4
   9.46876E+3  -1.32773E+4
   9.82592E+3  -1.27665E+4
   9.80180E+3  -1.23859E+4
   9.85482E+3  -1.20838E+4
   1.01137E+4  -1.15113E+4
   1.03004E+4  -1.11725E+4
   1.04148E+4  -1.05434E+4
   1.04008E+4  -9.97003E+3
   1.03605E+4  -9.60276E+3
   1.05087E+4  -9.23466E+3
   1.06230E+4  -9.00375E+3
   1.06955E+4  -8.25822E+3
   1.07813E+4  -8.06937E+3
   1.08139E+4  -7.55091E+3
   1.08970E+4  -7.41125E+3
   1.08053E+4  -6.67367E+3
   1.07411E+4  -6.21206E+3
   1.10539E+4  -6.07759E+3
   1.08154E+4  -5.73913E+3
   1.09644E+4  -5.14600E+3
   1.08032E+4  -4.85918E+3
   1.07765E+4  -4.50350E+3
   1.08815E+4  -4.04212E+3
   1.06722E+4  -3.86822E+3
   1.08886E+4  -3.50565E+3
   1.08374E+4  -3.38711E+3
   1.06346E+4  -2.95341E+3
   1.07150E+4  -2.73114E+3
   1.03518E+4  -2.23830E+3
   1.04077E+4  -2.02715E+3
   1.02371E+4  -1.77407E+3
   1.01201E+4  -1.10718E+3
   1.01728E+4  -9.95767E+2
   9.94477E+3  -7.48236E+2
   9.73189E+3  -4.72441E+2
   9.79180E+3  -3.59671E+2
   9.62057E+3   2.11842E+2
