 LCModel (Version 6.3-1N) Copyright: S.W. Provencher.          Ref.: Magn. Reson. Med. 30:672-679 (1993).                
 Slice_N1@8_15  28-Feb-2025 11:44:24
 27 lines in following concentration table = NCONC+1
    Conc.  %SD /Cr+PCr  Metabolite                                         
 1.89E-04  18% 1.1E-03 Mac                                                 
    0.000 999%   0.000 Cr                                                  
    1.438  43%   8.000 PCr                                                 
    1.216  70%   6.768 Ins                                                 
    1.113  60%   6.194 NAA                                                 
    1.243  62%   6.917 Tau                                                 
    0.000 999%   0.000 PCho                                                
    0.278  68%   1.548 GPC                                                 
    5.443  26%  30.288 Glu                                                 
    3.009  27%  16.743 Gln                                                 
    0.000 999%   0.000 Ala                                                 
    0.000 999%   0.000 Asc                                                 
    0.269 170%   1.499 Asp                                                 
    0.000 999%   0.000 GABA                                                
 4.75E-02 604%   0.264 Glc                                                 
    0.000 999%   0.000 GSH                                                 
    1.548  43%   8.616 Lac                                                 
    1.996  31%  11.106 NAAG                                                
    0.000 999%   0.000 PE                                                  
    0.278  68%   1.548 GPC+PCho                                            
    3.109  27%  17.300 NAA+NAAG                                            
    8.452  23%  47.031 Glu+Gln                                             
    1.438  43%   8.000 Cr+PCr                                              
    3.109  27%  17.300 NAA+NAAG                                            
    1.438  43%   8.000 Cr+PCr                                              
    8.452  23%  47.031 Glu+Gln                                             
   6 lines in following misc. output table
  FWHM = 0.049 ppm    S/N =   2                                            
  Data shift =-0.008 ppm                                                   
  Ph:-134 deg       0.0 deg/ppm                                            
  alphaB,S = 8.5E-02,   1.7E+01                                            
   19 spline knots.   Ns = 9(1)                                            
  ( 9) 2 infls.   ( 8) 2 extrs.                                            
  480 points on ppm-axis = NY
      4.100000     4.091866     4.083733     4.075600     4.067466     4.059333     4.051199     4.043066     4.034933     4.026799
      4.018666     4.010532     4.002399     3.994265     3.986132     3.977998     3.969864     3.961731     3.953597     3.945463
      3.937330     3.929196     3.921062     3.912929     3.904795     3.896662     3.888528     3.880394     3.872261     3.864127
      3.855993     3.847860     3.839726     3.831592     3.823459     3.815325     3.807191     3.799058     3.790924     3.782790
      3.774657     3.766523     3.758389     3.750256     3.742122     3.733989     3.725855     3.717721     3.709588     3.701454
      3.693320     3.685187     3.677053     3.668919     3.660786     3.652652     3.644518     3.636385     3.628251     3.620117
      3.611984     3.603850     3.595716     3.587583     3.579449     3.571316     3.563182     3.555048     3.546915     3.538781
      3.530647     3.522514     3.514380     3.506246     3.498113     3.489979     3.481845     3.473712     3.465578     3.457444
      3.449311     3.441177     3.433043     3.424910     3.416776     3.408643     3.400509     3.392375     3.384242     3.376108
      3.367974     3.359841     3.351707     3.343573     3.335440     3.327306     3.319172     3.311039     3.302905     3.294771
      3.286638     3.278504     3.270370     3.262237     3.254103     3.245970     3.237836     3.229702     3.221569     3.213435
      3.205301     3.197168     3.189034     3.180900     3.172767     3.164633     3.156499     3.148366     3.140232     3.132098
      3.123965     3.115831     3.107697     3.099564     3.091430     3.083297     3.075163     3.067029     3.058896     3.050762
      3.042628     3.034495     3.026361     3.018227     3.010094     3.001960     2.993826     2.985693     2.977559     2.969425
      2.961292     2.953158     2.945024     2.936891     2.928757     2.920624     2.912490     2.904356     2.896223     2.888089
      2.879955     2.871822     2.863688     2.855554     2.847421     2.839287     2.831153     2.823020     2.814886     2.806752
      2.798619     2.790485     2.782351     2.774218     2.766084     2.757951     2.749817     2.741683     2.733550     2.725416
      2.717282     2.709149     2.701015     2.692881     2.684748     2.676614     2.668480     2.660347     2.652213     2.644079
      2.635946     2.627812     2.619678     2.611545     2.603411     2.595278     2.587144     2.579010     2.570877     2.562743
      2.554609     2.546476     2.538342     2.530208     2.522075     2.513941     2.505807     2.497674     2.489540     2.481406
      2.473273     2.465139     2.457006     2.448872     2.440738     2.432605     2.424471     2.416337     2.408204     2.400070
      2.391936     2.383803     2.375669     2.367535     2.359402     2.351268     2.343134     2.335001     2.326867     2.318733
      2.310600     2.302466     2.294333     2.286199     2.278065     2.269932     2.261798     2.253664     2.245531     2.237397
      2.229263     2.221130     2.212996     2.204862     2.196729     2.188595     2.180461     2.172328     2.164194     2.156060
      2.147927     2.139793     2.131660     2.123526     2.115392     2.107259     2.099125     2.090991     2.082858     2.074724
      2.066590     2.058457     2.050323     2.042189     2.034056     2.025922     2.017788     2.009655     2.001521     1.993387
      1.985254     1.977120     1.968987     1.960853     1.952719     1.944586     1.936452     1.928318     1.920185     1.912051
      1.903917     1.895784     1.887650     1.879516     1.871383     1.863249     1.855115     1.846982     1.838848     1.830714
      1.822581     1.814447     1.806314     1.798180     1.790046     1.781913     1.773779     1.765645     1.757512     1.749378
      1.741244     1.733111     1.724977     1.716843     1.708710     1.700576     1.692442     1.684309     1.676175     1.668041
      1.659908     1.651774     1.643641     1.635507     1.627373     1.619240     1.611106     1.602972     1.594839     1.586705
      1.578571     1.570438     1.562304     1.554170     1.546037     1.537903     1.529769     1.521636     1.513502     1.505368
      1.497235     1.489101     1.480968     1.472834     1.464700     1.456567     1.448433     1.440299     1.432166     1.424032
      1.415898     1.407765     1.399631     1.391497     1.383364     1.375230     1.367096     1.358963     1.350829     1.342695
      1.334562     1.326428     1.318295     1.310161     1.302027     1.293894     1.285760     1.277626     1.269493     1.261359
      1.253225     1.245092     1.236958     1.228824     1.220691     1.212557     1.204423     1.196290     1.188156     1.180022
      1.171889     1.163755     1.155622     1.147488     1.139354     1.131221     1.123087     1.114953     1.106820     1.098686
      1.090552     1.082419     1.074285     1.066151     1.058018     1.049884     1.041750     1.033617     1.025483     1.017349
      1.009216     1.001082     0.992949     0.984815     0.976681     0.968548     0.960414     0.952280     0.944147     0.936013
      0.927879     0.919746     0.911612     0.903478     0.895345     0.887211     0.879077     0.870944     0.862810     0.854676
      0.846543     0.838409     0.830276     0.822142     0.814008     0.805875     0.797741     0.789607     0.781474     0.773340
      0.765206     0.757073     0.748939     0.740805     0.732672     0.724538     0.716404     0.708271     0.700137     0.692003
      0.683870     0.675736     0.667603     0.659469     0.651335     0.643202     0.635068     0.626934     0.618801     0.610667
      0.602533     0.594400     0.586266     0.578132     0.569999     0.561865     0.553731     0.545598     0.537464     0.529330
      0.521197     0.513063     0.504930     0.496796     0.488662     0.480529     0.472395     0.464261     0.456128     0.447994
      0.439861     0.431727     0.423593     0.415460     0.407326     0.399192     0.391059     0.382925     0.374792     0.366658
      0.358524     0.350391     0.342257     0.334124     0.325990     0.317856     0.309723     0.301589     0.293455     0.285322
      0.277188     0.269055     0.260921     0.252787     0.244654     0.236520     0.228386     0.220253     0.212119     0.203986
 NY phased data points follow
  -8.08602E+01 -9.74000E+01 -8.40286E+01 -8.61377E+01 -8.71267E+01 -9.93377E+01 -9.93496E+01 -6.33240E+01 -7.55918E+01 -7.89703E+01
  -8.74487E+01 -8.35314E+01 -9.62281E+01 -1.05925E+02 -9.64051E+01 -1.18729E+02 -1.19576E+02 -1.36353E+02 -1.45233E+02 -1.32644E+02
  -1.32687E+02 -1.57224E+02 -1.31820E+02 -1.07910E+02 -1.27152E+02 -9.79644E+01 -8.73607E+01 -7.75714E+01 -8.65801E+01 -9.65995E+01
  -7.39561E+01 -8.42336E+01 -9.22144E+01 -8.83165E+01 -9.71445E+01 -8.64933E+01 -7.93756E+01 -8.91199E+01 -7.87387E+01 -9.27005E+01
  -1.01309E+02 -1.11894E+02 -1.14731E+02 -1.11460E+02 -1.24867E+02 -1.08856E+02 -9.29238E+01 -4.74026E+01 -3.08433E+01 -5.66456E+01
  -5.41721E+01 -4.76636E+01 -5.07711E+01 -3.69936E+01 -5.78659E+01 -7.34798E+01 -3.10579E+01 -6.08726E+01 -5.36545E+01 -3.27706E+01
  -6.37880E+01 -5.44880E+01 -5.11016E+01 -2.54848E+01 -2.89777E+01 -4.14704E+01 -1.21554E+01 -3.64114E+01 -4.66995E+01 -1.89332E+01
  -3.36288E+01 -4.12180E+01 -4.11023E+01 -3.48664E+01 -3.86853E+01 -2.74069E+01  5.26138E+00 -5.48134E+00  9.66080E+00  4.38071E+00
  -3.38074E+00 -9.44650E+00 -5.59727E+00  1.27899E+01 -8.80729E+00  1.40567E+01 -1.40593E+00 -1.44732E+01 -3.35189E-01  9.86357E-01
   1.46192E+01  9.74956E+00  2.94204E+01  4.62219E+01  5.40038E+01  4.53517E+01  5.45004E+01  7.57532E+01  4.82386E+01  3.98966E+01
   4.55014E+01  4.31660E+01  4.81192E+01  2.49551E+01  7.88098E+00  6.34761E+00 -9.04501E+00 -2.69986E+01 -3.55814E+01 -4.14738E+01
  -7.26799E+01 -7.61816E+01 -8.08913E+01 -7.48779E+01 -8.00232E+01 -1.02449E+02 -7.10012E+01 -7.00383E+01 -4.45102E+01 -3.78247E+01
  -5.13648E+01 -4.62265E+01 -3.96398E+01 -1.42712E+01 -2.17096E+01 -1.68527E+01 -2.45872E+01 -8.43596E+00  2.48434E+00  4.33681E+00
   2.24092E+01  7.70276E+00  6.71264E+00 -6.14634E+00 -4.40980E+01 -7.00822E+01 -6.29964E+01 -7.66777E+01 -8.68873E+01 -1.02425E+02
  -1.01720E+02 -6.95516E+01 -8.03316E+01 -9.26946E+01 -1.03602E+02 -9.87780E+01 -9.08952E+01 -8.69860E+01 -9.83932E+01 -9.86287E+01
  -9.16776E+01 -8.97916E+01 -7.35898E+01 -7.35665E+01 -8.31683E+01 -8.69356E+01 -5.52326E+01 -7.26374E+01 -6.61419E+01 -7.24531E+01
  -9.16788E+01 -5.18899E+01 -7.94824E+01 -6.51544E+01 -7.29261E+01 -9.13055E+01 -6.35920E+01 -6.53905E+01 -6.29103E+01 -5.91575E+01
  -4.80776E+01 -5.96395E+01 -6.47126E+01 -4.20115E+01 -2.93515E+01 -5.61510E+01 -4.36165E+01 -4.48182E+01 -7.21456E+01 -4.22166E+01
  -5.89104E+01 -6.07986E+01 -6.58940E+01 -8.84939E+01 -6.67651E+01 -7.21906E+01 -7.59909E+01 -8.46165E+01 -9.37703E+01 -8.06723E+01
  -9.69615E+01 -8.49915E+01 -7.60412E+01 -9.30854E+01 -7.35667E+01 -8.44100E+01 -8.24014E+01 -6.75682E+01 -7.91805E+01 -8.84790E+01
  -8.70967E+01 -7.72919E+01 -8.75203E+01 -6.28806E+01 -5.70926E+01 -8.50814E+01 -6.57624E+01 -6.24768E+01 -8.11216E+01 -8.73939E+01
  -9.89412E+01 -8.59967E+01 -7.89166E+01 -8.59057E+01 -6.66551E+01 -4.47733E+01 -2.58986E+01 -1.16558E+01 -3.93560E+00 -6.97420E+00
   1.96906E+00 -1.62125E+01 -2.68950E+01 -1.14259E+01 -2.46772E+01 -2.66734E+01 -3.45240E+01 -2.88905E+01 -3.53452E+01 -2.84747E+01
  -3.53354E+01 -5.48109E+01 -3.75516E+01 -6.08983E+01 -6.30393E+01 -6.39216E+01 -8.44209E+01 -9.68146E+01 -8.01970E+01 -7.94455E+01
  -1.08446E+02 -1.02826E+02 -9.34072E+01 -9.08243E+01 -9.15077E+01 -8.48120E+01 -1.00705E+02 -8.86209E+01 -8.42521E+01 -1.00206E+02
  -9.31534E+01 -8.88309E+01 -9.04033E+01 -1.02820E+02 -8.42757E+01 -8.34171E+01 -7.46146E+01 -6.51732E+01 -2.43572E+01  1.15962E+01
   8.13603E+00  1.97669E+01  3.45687E+01  8.39490E+01  5.38968E+01  4.66525E+01  4.27076E+01  2.78981E+01  3.87794E+01 -4.65329E+00
   2.10331E+01  1.64885E+01  2.39827E+00  1.46997E+01 -2.36790E+00 -1.55950E+00  4.53934E+00  4.63116E+00 -2.31837E+00 -3.67436E+00
  -4.21549E+00 -1.58636E+01 -3.21389E+01 -3.60386E+01 -4.31387E+01 -3.73610E+01 -6.06452E+01 -6.53098E+01 -4.63763E+01 -5.09529E+01
  -4.74803E+01 -6.22930E+01 -6.76668E+01 -6.96359E+01 -5.70875E+01 -8.44191E+01 -1.11215E+02 -1.08419E+02 -1.16966E+02 -1.23635E+02
  -1.26773E+02 -1.19294E+02 -1.42554E+02 -1.19531E+02 -1.22064E+02 -1.16605E+02 -8.81257E+01 -9.98054E+01 -8.35297E+01 -9.04040E+01
  -7.35052E+01 -5.78959E+01 -4.30051E+01 -2.47552E+01 -3.07929E+01 -6.83243E+00  1.59214E+01  2.10643E+01  4.69528E+01  3.38015E+01
   3.10097E+01  5.64489E+01  2.81198E+01  6.89164E+01  7.71673E+01  8.48957E+01  1.07631E+02  8.55751E+01  1.03685E+02  9.41052E+01
   1.07905E+02  8.73333E+01  7.15137E+01  7.15550E+01  4.94745E+01  2.89192E+01  1.07751E+01  1.51872E+01  6.68039E+00  1.73728E+01
   6.24757E+00  3.41538E+01  1.66275E+01  5.20847E+00  3.84337E+01  6.50424E+00  2.51516E+01  2.07910E+01  1.12545E+01  1.80952E+01
   4.10291E+01  2.97369E+01  1.51063E+01  5.69531E+01  3.64957E+01  3.17447E+01  1.95816E+01  1.74640E+01  2.78083E+01  1.07282E+01
   3.39676E+01  3.80617E+01  2.01975E+01  2.14342E+01  2.21043E+01  1.62980E+01  2.61361E+01  2.09367E+01  1.90318E+01  4.54108E+01
   3.98511E+01  2.94929E+01  4.24040E+01  4.39106E+01  4.19302E+01  4.36406E+01  5.89715E+01  6.40888E+01  5.19104E+01  5.04106E+01
   4.36211E+01  6.76257E+01  7.14610E+01  6.43840E+01  9.92673E+01  1.08542E+02  1.07205E+02  1.08132E+02  1.23116E+02  1.16055E+02
   1.12348E+02  1.28425E+02  9.56010E+01  1.04837E+02  1.09154E+02  7.69084E+01  8.69294E+01  7.78391E+01  5.50607E+01  4.79606E+01
   5.63124E+01  5.43087E+01  4.43018E+01  4.66724E+01  2.00920E+01 -6.21724E+00 -2.53866E+00  1.50092E+01  1.73332E+01  6.41103E+00
  -6.54283E+00  7.97726E+00  1.54454E+01 -1.59315E+00  2.12085E+01  9.11596E+00 -5.04231E-01  4.06400E-01  6.58900E+00  2.23878E+01
  -4.80073E-01  6.82476E+00 -1.89162E+01 -2.87002E+01 -7.51851E+00 -1.39439E+01 -5.02665E+00  5.93807E+00 -1.03348E+01 -1.77689E+01
   1.07181E+01 -2.58143E+01 -1.18504E+01  2.70828E+01 -1.38827E+01 -7.46264E+00  6.84679E+00 -1.45334E+01 -1.08499E+01  1.02101E+00
  -2.50593E+01 -1.17771E+01 -4.04695E+00 -8.36724E+00  4.92751E+00 -1.35750E+01 -1.40538E+01 -1.65779E+01  5.68255E+00  8.42930E+00
  -2.17399E+01 -2.05222E+01 -1.40160E+01 -1.54047E+01 -1.84464E+01 -9.77613E+00 -1.71089E+01 -1.71180E+01 -2.39094E+01 -1.96305E+01
  -1.14269E+01 -2.27084E+01 -1.72162E+00 -6.73168E+00 -1.00759E+00  3.46352E+00 -1.69645E+01 -4.43301E+00 -1.49848E+01  1.26908E+00
  -8.21958E-01 -3.27136E+01  9.55650E+00 -4.99635E-01 -7.16459E+00  1.49350E+01 -1.58474E+01 -1.17335E+01 -2.20374E+01 -1.88467E+01
 NY points of the fit to the data follow
  -1.13367E+02 -1.09601E+02 -1.06141E+02 -1.03462E+02 -1.01624E+02 -1.00347E+02 -9.91704E+01 -9.78148E+01 -9.65883E+01 -9.57087E+01
  -9.47397E+01 -9.44251E+01 -9.69739E+01 -1.01591E+02 -1.06814E+02 -1.11895E+02 -1.16802E+02 -1.21547E+02 -1.25983E+02 -1.29486E+02
  -1.31051E+02 -1.29724E+02 -1.25190E+02 -1.18058E+02 -1.09308E+02 -1.00096E+02 -9.16461E+01 -8.49556E+01 -8.00117E+01 -7.57407E+01
  -7.06314E+01 -6.51117E+01 -5.91421E+01 -5.51941E+01 -5.37469E+01 -5.55657E+01 -5.99029E+01 -6.58547E+01 -7.30268E+01 -8.13630E+01
  -9.03682E+01 -9.89326E+01 -1.05411E+02 -1.07773E+02 -1.04622E+02 -9.58110E+01 -8.27901E+01 -6.80789E+01 -5.47126E+01 -4.44488E+01
  -3.75859E+01 -3.46819E+01 -3.48745E+01 -3.63514E+01 -3.86648E+01 -4.12090E+01 -4.35656E+01 -4.54523E+01 -4.66721E+01 -4.68611E+01
  -4.55395E+01 -4.32798E+01 -4.10379E+01 -3.86348E+01 -3.58528E+01 -3.31057E+01 -3.08049E+01 -2.93424E+01 -2.88249E+01 -2.93576E+01
  -3.07964E+01 -3.23775E+01 -3.30495E+01 -3.23316E+01 -2.93710E+01 -2.47941E+01 -1.93066E+01 -1.40477E+01 -9.86830E+00 -7.03327E+00
  -5.72766E+00 -5.99747E+00 -7.70933E+00 -1.06078E+01 -1.42433E+01 -1.78525E+01 -2.06145E+01 -2.18562E+01 -2.12356E+01 -1.88641E+01
  -1.50783E+01 -1.07943E+01 -6.73218E+00 -2.79621E+00  1.07227E+00  4.53366E+00  8.28038E+00  1.18389E+01  1.47941E+01  1.66812E+01
   1.91182E+01  2.13335E+01  2.17687E+01  1.95376E+01  1.45548E+01  7.06983E+00 -2.53625E+00 -1.37754E+01 -2.59743E+01 -3.83457E+01
  -5.00448E+01 -6.00695E+01 -6.75870E+01 -7.22717E+01 -7.40225E+01 -7.30504E+01 -7.02923E+01 -6.70001E+01 -6.39692E+01 -6.09252E+01
  -5.76356E+01 -5.46278E+01 -4.96501E+01 -4.11216E+01 -3.05980E+01 -1.96260E+01 -8.92888E+00  1.07615E+00  9.81870E+00  1.63636E+01
   1.94174E+01  1.76933E+01  1.05350E+01 -1.43759E+00 -1.64339E+01 -3.22478E+01 -4.68328E+01 -5.84163E+01 -6.62733E+01 -7.11495E+01
  -7.43325E+01 -7.67098E+01 -7.87967E+01 -8.06378E+01 -8.20664E+01 -8.29914E+01 -8.34026E+01 -8.32991E+01 -8.26869E+01 -8.15727E+01
  -8.00585E+01 -7.83457E+01 -7.66611E+01 -7.52254E+01 -7.40313E+01 -7.30499E+01 -7.23391E+01 -7.20400E+01 -7.17915E+01 -7.12424E+01
  -7.04519E+01 -6.98599E+01 -6.99132E+01 -7.03724E+01 -7.02994E+01 -6.92114E+01 -6.74431E+01 -6.54751E+01 -6.38459E+01 -6.26014E+01
  -6.13624E+01 -6.00518E+01 -5.86687E+01 -5.72827E+01 -5.61521E+01 -5.56421E+01 -5.60611E+01 -5.74747E+01 -5.95753E+01 -6.18380E+01
  -6.38953E+01 -6.59527E+01 -6.82953E+01 -7.03694E+01 -7.21849E+01 -7.39454E+01 -7.53749E+01 -7.60907E+01 -7.59017E+01 -7.52439E+01
  -7.44173E+01 -7.32761E+01 -7.22174E+01 -7.15303E+01 -7.15219E+01 -7.21414E+01 -7.31690E+01 -7.42611E+01 -7.50734E+01 -7.48447E+01
  -7.36179E+01 -7.14655E+01 -6.90284E+01 -6.69715E+01 -6.50019E+01 -6.56811E+01 -6.79134E+01 -7.12773E+01 -7.60283E+01 -8.10528E+01
  -8.56875E+01 -8.92461E+01 -9.05811E+01 -8.84019E+01 -8.16994E+01 -7.05206E+01 -5.63590E+01 -4.15146E+01 -2.84303E+01 -1.90831E+01
  -1.42138E+01 -1.31039E+01 -1.38801E+01 -1.47968E+01 -1.50281E+01 -1.38344E+01 -1.21587E+01 -1.18858E+01 -1.33159E+01 -1.76181E+01
  -2.45657E+01 -3.40268E+01 -4.48807E+01 -5.73291E+01 -7.04515E+01 -8.31497E+01 -9.45017E+01 -1.03266E+02 -1.08872E+02 -1.11750E+02
  -1.12206E+02 -1.10699E+02 -1.07543E+02 -1.01449E+02 -9.56358E+01 -9.36112E+01 -9.33946E+01 -9.24782E+01 -9.15488E+01 -9.36018E+01
  -9.83839E+01 -1.03924E+02 -1.07768E+02 -1.07551E+02 -1.01705E+02 -8.98197E+01 -7.28633E+01 -5.27422E+01 -3.19706E+01 -1.35218E+01
   2.42524E-01  9.07742E+00  1.39749E+01  1.55572E+01  1.42577E+01  1.09052E+01  6.42505E+00  1.62266E+00 -2.95586E+00 -7.04357E+00
  -1.06159E+01 -1.35899E+01 -1.58247E+01 -1.73208E+01 -1.81562E+01 -1.84100E+01 -1.82564E+01 -1.78861E+01 -1.74164E+01 -1.69684E+01
  -1.65747E+01 -1.62514E+01 -1.61066E+01 -1.61149E+01 -1.63090E+01 -1.67633E+01 -1.75829E+01 -1.88778E+01 -2.07742E+01 -2.33240E+01
  -2.64970E+01 -3.02869E+01 -3.46380E+01 -3.93529E+01 -4.41023E+01 -4.84732E+01 -5.20365E+01 -5.44468E+01 -5.55527E+01 -5.53851E+01
  -5.40424E+01 -5.17550E+01 -4.87372E+01 -4.52692E+01 -4.16046E+01 -3.78291E+01 -3.39256E+01 -2.99431E+01 -2.57997E+01 -2.13771E+01
  -1.66558E+01 -1.17256E+01 -6.57938E+00 -1.31468E+00  3.93232E+00  9.08932E+00  1.40633E+01  1.89140E+01  2.36997E+01  2.83259E+01
   3.25903E+01  3.63114E+01  3.93243E+01  4.13832E+01  4.22530E+01  4.15648E+01  3.89803E+01  3.43890E+01  2.78430E+01  1.96218E+01
   1.01811E+01  3.02412E-01 -7.67985E+00 -1.34158E+01 -1.59117E+01 -1.52547E+01 -1.22742E+01 -7.47224E+00 -1.29209E+00  5.48444E+00
   1.18174E+01  1.66436E+01  1.91773E+01  1.93755E+01  1.79003E+01  1.59578E+01  1.47504E+01  1.53058E+01  1.78645E+01  2.18226E+01
   2.61946E+01  2.97084E+01  3.14332E+01  3.11620E+01  2.89513E+01  2.53646E+01  2.10982E+01  1.68492E+01  1.32692E+01  1.07835E+01
   9.61170E+00  9.77172E+00  1.10758E+01  1.32651E+01  1.60153E+01  1.89808E+01  2.18248E+01  2.44609E+01  2.67592E+01  2.85870E+01
   2.99789E+01  3.10665E+01  3.18962E+01  3.25031E+01  3.30571E+01  3.37613E+01  3.49303E+01  3.70045E+01  4.04306E+01  4.57096E+01
   5.30453E+01  6.23246E+01  7.31323E+01  8.50071E+01  9.73111E+01  1.09270E+02  1.20075E+02  1.28938E+02  1.35051E+02  1.37790E+02
   1.37060E+02  1.33119E+02  1.26707E+02  1.18759E+02  1.10273E+02  1.01830E+02  9.35633E+01  8.52664E+01  7.66691E+01  6.75987E+01
   5.81194E+01  4.85341E+01  3.92995E+01  3.08595E+01  2.36115E+01  1.77500E+01  1.31996E+01  9.72483E+00  7.13536E+00  5.22485E+00
   3.68573E+00  2.36330E+00  1.27453E+00  4.29220E-01 -2.16150E-01 -7.10317E-01 -1.06160E+00 -1.29950E+00 -1.49374E+00 -1.72309E+00
  -1.96580E+00 -2.20222E+00 -2.41101E+00 -2.56358E+00 -2.69761E+00 -2.83548E+00 -3.04825E+00 -3.27553E+00 -3.51464E+00 -3.73838E+00
  -3.93565E+00 -4.10930E+00 -4.30537E+00 -4.55601E+00 -4.81769E+00 -5.08132E+00 -5.30791E+00 -5.48931E+00 -5.62002E+00 -5.68496E+00
  -5.74040E+00 -5.80541E+00 -5.88626E+00 -6.05158E+00 -6.31640E+00 -6.65523E+00 -7.02788E+00 -7.39956E+00 -7.71762E+00 -7.98286E+00
  -8.19373E+00 -8.39523E+00 -8.57408E+00 -8.70797E+00 -8.81354E+00 -8.89254E+00 -8.92583E+00 -8.95616E+00 -9.01414E+00 -9.14950E+00
  -9.31067E+00 -9.49279E+00 -9.65552E+00 -9.82720E+00 -1.00348E+01 -1.02470E+01 -1.04028E+01 -1.05040E+01 -1.05302E+01 -1.04675E+01
  -1.03773E+01 -1.03823E+01 -1.05052E+01 -1.08297E+01 -1.13102E+01 -1.18934E+01 -1.24929E+01 -1.30746E+01 -1.36776E+01 -1.43033E+01
 NY background values follow
    -9.417E+01   -9.368E+01   -9.319E+01   -9.271E+01   -9.222E+01   -9.174E+01   -9.125E+01   -9.076E+01   -9.027E+01   -8.977E+01
    -8.927E+01   -8.876E+01   -8.824E+01   -8.772E+01   -8.719E+01   -8.664E+01   -8.609E+01   -8.552E+01   -8.494E+01   -8.435E+01
    -8.374E+01   -8.312E+01   -8.248E+01   -8.182E+01   -8.114E+01   -8.045E+01   -7.973E+01   -7.899E+01   -7.823E+01   -7.745E+01
    -7.664E+01   -7.580E+01   -7.495E+01   -7.407E+01   -7.316E+01   -7.224E+01   -7.129E+01   -7.032E+01   -6.934E+01   -6.833E+01
    -6.731E+01   -6.628E+01   -6.522E+01   -6.415E+01   -6.307E+01   -6.198E+01   -6.087E+01   -5.975E+01   -5.862E+01   -5.748E+01
    -5.633E+01   -5.518E+01   -5.401E+01   -5.284E+01   -5.167E+01   -5.049E+01   -4.931E+01   -4.812E+01   -4.693E+01   -4.574E+01
    -4.456E+01   -4.337E+01   -4.218E+01   -4.100E+01   -3.983E+01   -3.866E+01   -3.750E+01   -3.636E+01   -3.522E+01   -3.411E+01
    -3.300E+01   -3.192E+01   -3.086E+01   -2.982E+01   -2.881E+01   -2.782E+01   -2.686E+01   -2.592E+01   -2.502E+01   -2.416E+01
    -2.332E+01   -2.253E+01   -2.177E+01   -2.105E+01   -2.037E+01   -1.974E+01   -1.916E+01   -1.862E+01   -1.813E+01   -1.769E+01
    -1.730E+01   -1.697E+01   -1.669E+01   -1.646E+01   -1.628E+01   -1.615E+01   -1.606E+01   -1.602E+01   -1.603E+01   -1.608E+01
    -1.616E+01   -1.629E+01   -1.646E+01   -1.666E+01   -1.690E+01   -1.717E+01   -1.748E+01   -1.781E+01   -1.818E+01   -1.857E+01
    -1.899E+01   -1.944E+01   -1.991E+01   -2.040E+01   -2.091E+01   -2.145E+01   -2.200E+01   -2.257E+01   -2.315E+01   -2.375E+01
    -2.436E+01   -2.498E+01   -2.561E+01   -2.625E+01   -2.690E+01   -2.756E+01   -2.822E+01   -2.889E+01   -2.956E+01   -3.024E+01
    -3.092E+01   -3.159E+01   -3.227E+01   -3.295E+01   -3.363E+01   -3.431E+01   -3.498E+01   -3.564E+01   -3.630E+01   -3.696E+01
    -3.761E+01   -3.824E+01   -3.887E+01   -3.949E+01   -4.010E+01   -4.069E+01   -4.127E+01   -4.184E+01   -4.239E+01   -4.293E+01
    -4.344E+01   -4.394E+01   -4.442E+01   -4.489E+01   -4.533E+01   -4.576E+01   -4.618E+01   -4.657E+01   -4.695E+01   -4.732E+01
    -4.767E+01   -4.800E+01   -4.832E+01   -4.862E+01   -4.891E+01   -4.919E+01   -4.945E+01   -4.970E+01   -4.994E+01   -5.016E+01
    -5.037E+01   -5.057E+01   -5.075E+01   -5.092E+01   -5.109E+01   -5.124E+01   -5.138E+01   -5.150E+01   -5.162E+01   -5.173E+01
    -5.183E+01   -5.192E+01   -5.200E+01   -5.207E+01   -5.213E+01   -5.218E+01   -5.223E+01   -5.226E+01   -5.229E+01   -5.232E+01
    -5.233E+01   -5.234E+01   -5.234E+01   -5.234E+01   -5.232E+01   -5.231E+01   -5.229E+01   -5.226E+01   -5.223E+01   -5.219E+01
    -5.215E+01   -5.210E+01   -5.205E+01   -5.200E+01   -5.195E+01   -5.189E+01   -5.182E+01   -5.176E+01   -5.169E+01   -5.163E+01
    -5.156E+01   -5.149E+01   -5.141E+01   -5.134E+01   -5.127E+01   -5.120E+01   -5.113E+01   -5.107E+01   -5.100E+01   -5.095E+01
    -5.089E+01   -5.084E+01   -5.080E+01   -5.076E+01   -5.072E+01   -5.070E+01   -5.068E+01   -5.067E+01   -5.067E+01   -5.068E+01
    -5.070E+01   -5.073E+01   -5.077E+01   -5.083E+01   -5.090E+01   -5.097E+01   -5.107E+01   -5.118E+01   -5.130E+01   -5.144E+01
    -5.159E+01   -5.176E+01   -5.195E+01   -5.215E+01   -5.236E+01   -5.259E+01   -5.284E+01   -5.309E+01   -5.336E+01   -5.364E+01
    -5.393E+01   -5.423E+01   -5.454E+01   -5.486E+01   -5.519E+01   -5.553E+01   -5.588E+01   -5.623E+01   -5.659E+01   -5.695E+01
    -5.733E+01   -5.770E+01   -5.808E+01   -5.847E+01   -5.885E+01   -5.924E+01   -5.963E+01   -6.003E+01   -6.042E+01   -6.082E+01
    -6.121E+01   -6.160E+01   -6.199E+01   -6.237E+01   -6.274E+01   -6.309E+01   -6.343E+01   -6.375E+01   -6.404E+01   -6.430E+01
    -6.454E+01   -6.475E+01   -6.492E+01   -6.505E+01   -6.514E+01   -6.518E+01   -6.518E+01   -6.513E+01   -6.502E+01   -6.486E+01
    -6.463E+01   -6.435E+01   -6.400E+01   -6.357E+01   -6.308E+01   -6.252E+01   -6.187E+01   -6.115E+01   -6.034E+01   -5.944E+01
    -5.845E+01   -5.738E+01   -5.622E+01   -5.498E+01   -5.367E+01   -5.228E+01   -5.083E+01   -4.932E+01   -4.774E+01   -4.611E+01
    -4.444E+01   -4.271E+01   -4.095E+01   -3.915E+01   -3.731E+01   -3.545E+01   -3.357E+01   -3.166E+01   -2.974E+01   -2.780E+01
    -2.586E+01   -2.392E+01   -2.198E+01   -2.004E+01   -1.812E+01   -1.621E+01   -1.432E+01   -1.245E+01   -1.061E+01   -8.795E+00
    -7.020E+00   -5.283E+00   -3.583E+00   -1.921E+00   -2.979E-01    1.287E+00    2.833E+00    4.340E+00    5.807E+00    7.235E+00
     8.622E+00    9.969E+00    1.128E+01    1.254E+01    1.377E+01    1.495E+01    1.609E+01    1.719E+01    1.825E+01    1.926E+01
     2.023E+01    2.116E+01    2.204E+01    2.288E+01    2.368E+01    2.443E+01    2.514E+01    2.580E+01    2.642E+01    2.699E+01
     2.751E+01    2.799E+01    2.843E+01    2.882E+01    2.917E+01    2.948E+01    2.976E+01    2.999E+01    3.019E+01    3.035E+01
     3.048E+01    3.057E+01    3.063E+01    3.067E+01    3.067E+01    3.064E+01    3.059E+01    3.051E+01    3.041E+01    3.028E+01
     3.013E+01    2.996E+01    2.976E+01    2.955E+01    2.933E+01    2.908E+01    2.882E+01    2.855E+01    2.826E+01    2.797E+01
     2.766E+01    2.734E+01    2.701E+01    2.667E+01    2.633E+01    2.597E+01    2.561E+01    2.524E+01    2.486E+01    2.447E+01
     2.407E+01    2.367E+01    2.326E+01    2.285E+01    2.243E+01    2.200E+01    2.157E+01    2.113E+01    2.069E+01    2.025E+01
     1.980E+01    1.934E+01    1.889E+01    1.842E+01    1.796E+01    1.749E+01    1.703E+01    1.656E+01    1.608E+01    1.561E+01
     1.513E+01    1.466E+01    1.418E+01    1.370E+01    1.323E+01    1.275E+01    1.227E+01    1.179E+01    1.132E+01    1.084E+01
     1.037E+01    9.891E+00    9.419E+00    8.948E+00    8.479E+00    8.011E+00    7.546E+00    7.083E+00    6.623E+00    6.166E+00
     5.711E+00    5.260E+00    4.812E+00    4.368E+00    3.928E+00    3.491E+00    3.059E+00    2.631E+00    2.208E+00    1.790E+00
     1.376E+00    9.676E-01    5.638E-01    1.644E-01   -2.307E-01   -6.217E-01   -1.009E+00   -1.392E+00   -1.772E+00   -2.149E+00
    -2.523E+00   -2.894E+00   -3.262E+00   -3.627E+00   -3.991E+00   -4.352E+00   -4.712E+00   -5.069E+00   -5.426E+00   -5.781E+00
    -6.134E+00   -6.488E+00   -6.840E+00   -7.192E+00   -7.543E+00   -7.895E+00   -8.247E+00   -8.598E+00   -8.951E+00   -9.304E+00
 Mac      Conc. = 1.89E-04
  -1.04729E+02 -1.04200E+02 -1.03735E+02 -1.03389E+02 -1.03144E+02 -1.02952E+02 -1.02788E+02 -1.02744E+02 -1.03247E+02 -1.04554E+02
  -1.06330E+02 -1.08273E+02 -1.10272E+02 -1.12166E+02 -1.13888E+02 -1.15401E+02 -1.16710E+02 -1.17588E+02 -1.17735E+02 -1.16882E+02
  -1.14864E+02 -1.11716E+02 -1.07788E+02 -1.03666E+02 -9.97724E+01 -9.62749E+01 -9.31545E+01 -9.04066E+01 -8.80121E+01 -8.58759E+01
  -8.38159E+01 -8.16514E+01 -7.94749E+01 -7.75083E+01 -7.59317E+01 -7.47825E+01 -7.37831E+01 -7.26439E+01 -7.11201E+01 -6.91524E+01
  -6.67515E+01 -6.40879E+01 -6.14315E+01 -5.89021E+01 -5.65431E+01 -5.43060E+01 -5.21469E+01 -5.01952E+01 -4.87192E+01 -4.78279E+01
  -4.75177E+01 -4.77691E+01 -4.83989E+01 -4.90729E+01 -4.95509E+01 -4.95701E+01 -4.90484E+01 -4.79852E+01 -4.64273E+01 -4.43601E+01
  -4.19028E+01 -3.93710E+01 -3.71370E+01 -3.53809E+01 -3.41270E+01 -3.33961E+01 -3.30465E+01 -3.29426E+01 -3.28207E+01 -3.24209E+01
  -3.15591E+01 -3.00828E+01 -2.79556E+01 -2.53084E+01 -2.24438E+01 -1.96640E+01 -1.73230E+01 -1.56049E+01 -1.46235E+01 -1.42446E+01
  -1.42888E+01 -1.45481E+01 -1.47926E+01 -1.48309E+01 -1.45742E+01 -1.39201E+01 -1.28064E+01 -1.12710E+01 -9.38271E+00 -7.29301E+00
  -5.19394E+00 -3.23713E+00 -1.41839E+00  2.40121E-01  1.66210E+00  2.82690E+00  3.72618E+00  4.46887E+00  4.96389E+00  4.97825E+00
   4.37583E+00  3.04436E+00  9.71132E-01 -1.95724E+00 -5.85212E+00 -1.08370E+01 -1.69195E+01 -2.39193E+01 -3.13819E+01 -3.86259E+01
