 LCModel (Version 6.3-1N) Copyright: S.W. Provencher.          Ref.: Magn. Reson. Med. 30:672-679 (1993).                
 Slice_N1@21_22  28-Feb-2025 11:42:19
 27 lines in following concentration table = NCONC+1
    Conc.  %SD /Cr+PCr  Metabolite                                         
 2.60E-04   7% 1.9E-04 Mac                                                 
   10.804  10%   8.000 Cr                                                  
    0.000 999%   0.000 PCr                                                 
    5.920  24%   4.384 Ins                                                 
    7.484  17%   5.542 NAA                                                 
    1.886  80%   1.397 Tau                                                 
    0.000 999%   0.000 PCho                                                
    2.098  16%   1.553 GPC                                                 
   10.701  14%   7.924 Glu                                                 
    7.378  18%   5.463 Gln                                                 
    3.052  39%   2.260 Ala                                                 
    0.000 999%   0.000 Asc                                                 
    7.612  22%   5.636+Asp                                                 
    0.000 999%   0.000 GABA                                                
    2.886  41%   2.137 Glc                                                 
    2.927  31%   2.167 GSH                                                 
 9.84E-02 999% 7.3E-02 Lac                                                 
    3.645  32%   2.699 NAAG                                                
    0.000 999%   0.000 PE                                                  
    2.098  16%   1.553 GPC+PCho                                            
   11.130  11%   8.241 NAA+NAAG                                            
   18.079  11%  13.387 Glu+Gln                                             
   10.804  10%   8.000 Cr+PCr                                              
   11.130  11%   8.241 NAA+NAAG                                            
   10.804  10%   8.000 Cr+PCr                                              
   18.079  11%  13.387 Glu+Gln                                             
   6 lines in following misc. output table
  FWHM = 0.049 ppm    S/N =   2                                            
  Data shift = 0.049 ppm                                                   
  Ph: -64 deg       0.0 deg/ppm                                            
  alphaB,S = 7.8E-02,   5.5E+01                                            
   19 spline knots.   Ns = 6(1)                                            
  ( 5) 2 infls.   ( 3) 1 extrs.                                            
  480 points on ppm-axis = NY
      4.100000     4.091866     4.083733     4.075600     4.067466     4.059333     4.051199     4.043066     4.034933     4.026799
      4.018666     4.010532     4.002399     3.994265     3.986132     3.977998     3.969864     3.961731     3.953597     3.945463
      3.937330     3.929196     3.921062     3.912929     3.904795     3.896662     3.888528     3.880394     3.872261     3.864127
      3.855993     3.847860     3.839726     3.831592     3.823459     3.815325     3.807191     3.799058     3.790924     3.782790
      3.774657     3.766523     3.758389     3.750256     3.742122     3.733989     3.725855     3.717721     3.709588     3.701454
      3.693320     3.685187     3.677053     3.668919     3.660786     3.652652     3.644518     3.636385     3.628251     3.620117
      3.611984     3.603850     3.595716     3.587583     3.579449     3.571316     3.563182     3.555048     3.546915     3.538781
      3.530647     3.522514     3.514380     3.506246     3.498113     3.489979     3.481845     3.473712     3.465578     3.457444
      3.449311     3.441177     3.433043     3.424910     3.416776     3.408643     3.400509     3.392375     3.384242     3.376108
      3.367974     3.359841     3.351707     3.343573     3.335440     3.327306     3.319172     3.311039     3.302905     3.294771
      3.286638     3.278504     3.270370     3.262237     3.254103     3.245970     3.237836     3.229702     3.221569     3.213435
      3.205301     3.197168     3.189034     3.180900     3.172767     3.164633     3.156499     3.148366     3.140232     3.132098
      3.123965     3.115831     3.107697     3.099564     3.091430     3.083297     3.075163     3.067029     3.058896     3.050762
      3.042628     3.034495     3.026361     3.018227     3.010094     3.001960     2.993826     2.985693     2.977559     2.969425
      2.961292     2.953158     2.945024     2.936891     2.928757     2.920624     2.912490     2.904356     2.896223     2.888089
      2.879955     2.871822     2.863688     2.855554     2.847421     2.839287     2.831153     2.823020     2.814886     2.806752
      2.798619     2.790485     2.782351     2.774218     2.766084     2.757951     2.749817     2.741683     2.733550     2.725416
      2.717282     2.709149     2.701015     2.692881     2.684748     2.676614     2.668480     2.660347     2.652213     2.644079
      2.635946     2.627812     2.619678     2.611545     2.603411     2.595278     2.587144     2.579010     2.570877     2.562743
      2.554609     2.546476     2.538342     2.530208     2.522075     2.513941     2.505807     2.497674     2.489540     2.481406
      2.473273     2.465139     2.457006     2.448872     2.440738     2.432605     2.424471     2.416337     2.408204     2.400070
      2.391936     2.383803     2.375669     2.367535     2.359402     2.351268     2.343134     2.335001     2.326867     2.318733
      2.310600     2.302466     2.294333     2.286199     2.278065     2.269932     2.261798     2.253664     2.245531     2.237397
      2.229263     2.221130     2.212996     2.204862     2.196729     2.188595     2.180461     2.172328     2.164194     2.156060
      2.147927     2.139793     2.131660     2.123526     2.115392     2.107259     2.099125     2.090991     2.082858     2.074724
      2.066590     2.058457     2.050323     2.042189     2.034056     2.025922     2.017788     2.009655     2.001521     1.993387
      1.985254     1.977120     1.968987     1.960853     1.952719     1.944586     1.936452     1.928318     1.920185     1.912051
      1.903917     1.895784     1.887650     1.879516     1.871383     1.863249     1.855115     1.846982     1.838848     1.830714
      1.822581     1.814447     1.806314     1.798180     1.790046     1.781913     1.773779     1.765645     1.757512     1.749378
      1.741244     1.733111     1.724977     1.716843     1.708710     1.700576     1.692442     1.684309     1.676175     1.668041
      1.659908     1.651774     1.643641     1.635507     1.627373     1.619240     1.611106     1.602972     1.594839     1.586705
      1.578571     1.570438     1.562304     1.554170     1.546037     1.537903     1.529769     1.521636     1.513502     1.505368
      1.497235     1.489101     1.480968     1.472834     1.464700     1.456567     1.448433     1.440299     1.432166     1.424032
      1.415898     1.407765     1.399631     1.391497     1.383364     1.375230     1.367096     1.358963     1.350829     1.342695
      1.334562     1.326428     1.318295     1.310161     1.302027     1.293894     1.285760     1.277626     1.269493     1.261359
      1.253225     1.245092     1.236958     1.228824     1.220691     1.212557     1.204423     1.196290     1.188156     1.180022
      1.171889     1.163755     1.155622     1.147488     1.139354     1.131221     1.123087     1.114953     1.106820     1.098686
      1.090552     1.082419     1.074285     1.066151     1.058018     1.049884     1.041750     1.033617     1.025483     1.017349
      1.009216     1.001082     0.992949     0.984815     0.976681     0.968548     0.960414     0.952280     0.944147     0.936013
      0.927879     0.919746     0.911612     0.903478     0.895345     0.887211     0.879077     0.870944     0.862810     0.854676
      0.846543     0.838409     0.830276     0.822142     0.814008     0.805875     0.797741     0.789607     0.781474     0.773340
      0.765206     0.757073     0.748939     0.740805     0.732672     0.724538     0.716404     0.708271     0.700137     0.692003
      0.683870     0.675736     0.667603     0.659469     0.651335     0.643202     0.635068     0.626934     0.618801     0.610667
      0.602533     0.594400     0.586266     0.578132     0.569999     0.561865     0.553731     0.545598     0.537464     0.529330
      0.521197     0.513063     0.504930     0.496796     0.488662     0.480529     0.472395     0.464261     0.456128     0.447994
      0.439861     0.431727     0.423593     0.415460     0.407326     0.399192     0.391059     0.382925     0.374792     0.366658
      0.358524     0.350391     0.342257     0.334124     0.325990     0.317856     0.309723     0.301589     0.293455     0.285322
      0.277188     0.269055     0.260921     0.252787     0.244654     0.236520     0.228386     0.220253     0.212119     0.203986
 NY phased data points follow
   1.93477E+02  2.07788E+02  2.13128E+02  2.23434E+02  2.39925E+02  2.37060E+02  2.37266E+02  2.33906E+02  2.34264E+02  2.29219E+02
   1.94476E+02  1.86576E+02  1.62192E+02  1.23279E+02  8.64041E+01  4.60267E+01  3.49404E+01 -3.46093E+00 -3.88259E+01 -4.58675E+01
  -5.18051E+01 -5.20019E+01 -4.96589E+01 -2.74218E+01 -1.61545E+01 -5.22090E+00  4.53085E+00  1.12749E+01  2.98616E+01  1.44849E+01
   1.58545E+01  2.13056E+01  1.42626E+01  1.17976E+01  2.22509E-01  1.24638E+01 -3.30579E+00 -1.24013E+01 -1.64160E+01 -4.91922E+01
  -5.03845E+01 -4.95834E+01 -5.38297E+01 -5.29162E+01 -3.76681E+01 -1.77996E+01 -1.38999E+01 -3.45313E+00  4.33873E+00 -1.08231E+01
  -6.73021E+00 -3.70223E+00 -2.46849E+01 -1.58280E+01 -3.32344E+01 -4.12992E+01 -3.27224E+01 -5.72108E+01 -4.27596E+01 -3.43892E+01
  -4.97930E+01 -3.72072E+01 -2.10287E+01 -2.55787E+01 -1.49978E+01 -1.26017E+01 -2.74889E+01 -2.41289E+01 -3.28808E+01 -2.47719E+01
  -3.39747E+01 -4.62348E+01 -1.84798E+01 -1.27917E+01 -5.78895E+00 -5.84186E+00  3.67166E+00  8.51088E+00 -8.78491E+00  9.13854E+00
   9.51019E+00 -1.42343E+00 -1.69711E+01 -1.80990E+01 -6.58166E+00 -1.90424E+01 -1.53630E+01 -1.20845E+01  1.70332E+01  1.52114E+01
   1.39831E+01  3.55966E+01  1.14978E+01  3.20899E+01  4.45841E+01  3.84817E+01  2.93417E+01  1.77291E+01  2.48922E+01  1.84335E+01
   6.40485E+00  2.61522E+00  9.08327E+00 -1.87047E+01 -2.90014E+01 -5.28198E+01 -6.39628E+01 -4.62109E+01 -7.80365E+01 -1.01663E+02
  -1.12247E+02 -9.03256E+01 -8.84097E+01 -7.52917E+01 -4.99055E+01 -5.36580E+01 -3.50526E+01 -2.98385E+01 -1.89344E+01 -1.73349E+01
  -1.49340E+01 -4.54959E+00  1.40398E+01  1.62990E+01  1.01009E+01  3.38912E+01  4.14042E+01  2.79480E+01  2.22942E+01  6.46384E+01
   5.95452E+01  2.18918E+01 -2.72959E+01 -7.43904E+01 -7.98840E+01 -1.15251E+02 -9.94858E+01 -9.25840E+01 -9.44831E+01 -7.88416E+01
  -8.73517E+01 -7.63156E+01 -8.45372E+01 -7.38827E+01 -7.67817E+01 -8.22052E+01 -6.61539E+01 -6.53749E+01 -5.70634E+01 -5.78395E+01
  -5.35340E+01 -5.41648E+01 -4.12603E+01 -3.76476E+01 -4.55229E+01 -2.40129E+01 -3.63756E+01 -4.58458E+01 -4.32773E+01 -4.54799E+01
  -3.33358E+01 -3.20153E+01 -2.44695E+01 -2.40709E+01 -2.36831E+01 -2.57082E+01 -2.22851E+01 -1.61158E+01 -3.07596E+01 -2.30997E+01
  -1.36695E+01  4.17047E+00  1.99250E+01  6.65027E+00 -8.70512E+00 -9.45555E+00  7.47736E+00 -3.18172E-01 -1.87383E+01 -2.21556E+01
  -3.63785E+01 -4.40252E+01 -3.15345E+01 -4.00711E+01 -4.05586E+01 -3.92785E+01 -4.76599E+01 -3.24367E+01 -3.85589E+01 -3.04020E+01
  -2.53947E+01 -4.06867E+01 -2.10160E+01 -1.18565E+01 -2.06728E+01 -1.82940E+01 -1.48614E+01 -1.18620E+01 -1.46600E+01 -2.41459E+01
  -1.60189E+01 -9.57565E+00 -4.68268E+00  5.76265E+00  4.63734E+00 -1.19042E+00 -1.48600E+00 -1.01948E+01 -2.13870E+01 -1.91057E+01
  -3.00268E+01 -1.22388E+01 -3.33031E+00 -3.35356E+00  2.34918E+01  2.29301E+01  4.83619E+01  5.60665E+01  3.43436E+01  3.07505E+01
   2.34967E+00 -7.90361E+00  6.18697E+00  4.73859E+00  6.17335E+00  3.47238E+00  1.94008E+00 -1.46706E+00 -5.71685E+00  7.65556E+00
   1.26362E+00 -9.60543E+00 -2.83111E+01 -4.36925E+01 -4.78562E+01 -5.72823E+01 -5.61973E+01 -6.08807E+01 -5.71008E+01 -5.49861E+01
  -4.86653E+01 -5.65414E+01 -4.56339E+01 -1.66639E+01 -2.50584E+01 -1.80715E+01 -1.27583E+01 -1.39712E+01 -1.26833E+01 -1.54584E+01
  -2.51744E+01 -2.99475E+01 -1.37439E+01  1.03435E+01 -2.59176E+01 -5.93047E+01  1.04381E+01  6.15714E+01  1.11534E+02  1.47619E+02
   1.53397E+02  1.48214E+02  1.19825E+02  1.22598E+02  1.07192E+02  9.15878E+01  7.65238E+01  7.90237E+01  8.50848E+01  7.83896E+01
   7.41840E+01  6.74302E+01  7.73746E+01  5.95145E+01  6.88076E+01  6.51759E+01  4.34135E+01  5.86048E+01  6.18489E+01  5.10183E+01
   4.90237E+01  5.12914E+01  4.27610E+01  5.29243E+01  4.35977E+01  5.11553E+01  5.94888E+01  4.60631E+01  5.38990E+01  3.52928E+01
   2.90367E+01  2.97234E+01  3.18426E+01  2.26341E+01  9.25148E+00  2.00221E+01  1.33371E+01  1.72634E+01  2.56493E+01  2.16444E+01
   1.55937E+01  1.63632E+01  2.93454E+01  2.60939E+01  1.93257E+01  3.15286E+01  3.98554E+01  5.11593E+01  5.81679E+01  5.63606E+01
   5.77733E+01  5.83096E+01  7.72187E+01  8.46772E+01  9.26486E+01  8.98602E+01  7.41355E+01  7.93019E+01  6.62249E+01  6.31806E+01
   6.21469E+01  5.36147E+01  3.37354E+01  2.86502E+01  4.05092E+01  2.27650E+00 -1.13417E-01  6.27031E+00 -3.99398E+00  9.54847E+00
  -6.57433E+00 -2.47792E+01 -2.44232E+01 -2.09062E+01 -4.54122E+01 -4.44174E+01 -3.22886E+01 -5.64650E+01 -4.46512E+01 -3.13658E+01
  -2.81101E+01 -3.05651E+01 -2.31167E+01 -1.11652E+01 -1.33260E+01 -7.44223E+00 -1.17923E+01  8.28939E+00  1.44778E+01  9.23984E+00
   2.24494E+00 -7.84022E+00  4.02463E+00 -1.05103E+01 -1.04584E+00  6.00616E+00 -1.24135E+01 -1.32530E+01 -1.18301E+01 -1.07496E+01
  -1.33187E+01 -3.69743E+00  7.12223E-02  2.19174E+00  7.01136E+00  9.37403E+00  1.84143E+01  1.30502E+01  2.33731E+01  3.37920E+01
   1.95137E+01  3.77412E+01  4.41309E+01  2.99803E+01  5.20601E+01  6.01566E+01  5.50282E+01  6.06947E+01  6.14711E+01  7.11920E+01
   9.08514E+01  7.98236E+01  7.89875E+01  9.46166E+01  8.53338E+01  1.09022E+02  1.08267E+02  1.03748E+02  1.15669E+02  9.50104E+01
   9.17610E+01  7.20005E+01  6.70518E+01  6.65497E+01  5.68086E+01  5.72928E+01  3.21755E+01  3.17414E+01  2.94451E+01  8.95893E+00
   9.74626E+00  1.42122E+01  1.08669E+01  1.90468E+00 -2.74821E+00 -5.24419E-01 -1.31756E+01 -9.29396E+00 -9.84744E-01 -1.53752E+01
   2.52919E+00 -4.20364E+00 -5.87924E+00  1.26552E+01 -5.53044E+00 -4.51680E-01 -8.52073E-01 -1.05536E+01 -8.17105E+00  3.90104E+00
   4.97369E+00  1.72168E+00 -4.08767E-01 -1.67116E+01 -6.27105E+00 -8.50848E+00 -8.34467E+00 -1.41227E+01 -1.47220E+01  1.34303E+00
  -7.64964E+00  4.06472E+00  5.67992E+00 -1.45486E+01 -2.96409E+01 -3.15922E-01 -3.23488E+00 -2.03823E+01  1.70757E+01  5.51271E+00
  -2.12950E+00 -1.09572E+00  1.60239E+00  1.36455E+00 -2.37125E-01 -1.01211E+00 -1.15944E+01  1.66930E+01 -4.32571E+00 -9.22361E+00
   1.60671E+01  1.91127E+00 -3.12794E+00  1.41482E+00  9.53943E+00 -1.67661E+00 -1.70963E+00  1.91185E+01  1.73561E+01  9.72233E+00
   2.05791E+01  7.32456E+00  1.56183E+01  2.01337E+01  5.55891E+00  2.76176E+01  1.23556E+01  8.29593E+00  5.46038E+00  9.34361E+00
   2.08724E+01  1.41138E+01  2.63113E+01  1.45919E+01  2.47600E+01  2.49976E+01  7.20891E+00  1.11794E+01  2.00219E+01  2.02698E+01
 NY points of the fit to the data follow
   1.82030E+02  1.75085E+02  1.69331E+02  1.65481E+02  1.63005E+02  1.60443E+02  1.56497E+02  1.50669E+02  1.43098E+02  1.34236E+02
   1.24699E+02  1.14952E+02  1.04964E+02  9.46524E+01  8.40943E+01  7.28170E+01  5.85756E+01  4.12691E+01  2.42196E+01  7.96715E+00
  -6.24983E+00 -1.41239E+01 -1.09707E+01  3.15052E+00  2.27826E+01  4.18388E+01  5.68048E+01  6.65355E+01  7.14024E+01  7.25414E+01
   7.08621E+01  6.69264E+01  6.10410E+01  5.29462E+01  4.24046E+01  2.83277E+01  1.20621E+01 -5.96837E+00 -2.44060E+01 -4.00995E+01
  -4.88009E+01 -4.80586E+01 -3.87839E+01 -2.44730E+01 -9.12840E+00  3.77106E+00  1.20791E+01  1.54576E+01  1.47278E+01  1.08126E+01
   5.30342E+00 -1.15545E+00 -8.80912E+00 -1.58114E+01 -2.09113E+01 -2.50281E+01 -2.83390E+01 -3.02376E+01 -3.01900E+01 -2.82835E+01
  -2.46520E+01 -1.97218E+01 -1.53739E+01 -1.30564E+01 -1.28882E+01 -1.57377E+01 -2.19540E+01 -2.94194E+01 -3.54252E+01 -3.84665E+01
  -3.83774E+01 -3.55885E+01 -3.07453E+01 -2.51444E+01 -2.01432E+01 -1.64596E+01 -1.42193E+01 -1.34317E+01 -1.37318E+01 -1.48384E+01
  -1.63457E+01 -1.78753E+01 -1.92533E+01 -2.01417E+01 -2.02166E+01 -1.93112E+01 -1.73780E+01 -1.45490E+01 -1.11030E+01 -7.31563E+00
  -3.38863E+00  5.36925E-01  4.02115E+00  6.99629E+00  9.62351E+00  1.12573E+01  1.18824E+01  1.17827E+01  1.09924E+01  9.22371E+00
   7.07654E+00  5.41072E+00  4.72050E+00  6.60563E-01 -6.67885E+00 -1.60723E+01 -2.91032E+01 -4.78090E+01 -6.95751E+01 -8.79681E+01
  -9.81507E+01 -9.94261E+01 -9.38672E+01 -8.45446E+01 -7.44032E+01 -6.50149E+01 -5.64312E+01 -4.85367E+01 -4.08807E+01 -3.30374E+01
  -2.46568E+01 -1.56904E+01 -6.22847E+00  3.95739E+00  1.57882E+01  3.16960E+01  4.79420E+01  5.95763E+01  6.71839E+01  6.91399E+01
   5.89230E+01  3.26291E+01 -3.98626E+00 -3.97826E+01 -6.67563E+01 -8.22706E+01 -8.76960E+01 -8.68958E+01 -8.38617E+01 -8.09593E+01
  -7.90118E+01 -7.81439E+01 -7.78320E+01 -7.76243E+01 -7.71589E+01 -7.61876E+01 -7.46454E+01 -7.26618E+01 -7.04244E+01 -6.79101E+01
  -6.48686E+01 -6.13055E+01 -5.74890E+01 -5.35138E+01 -4.94597E+01 -4.53905E+01 -4.17964E+01 -3.90356E+01 -3.67730E+01 -3.43363E+01
  -3.18687E+01 -3.04527E+01 -3.08641E+01 -3.28328E+01 -3.52729E+01 -3.69156E+01 -3.67514E+01 -3.45569E+01 -3.09480E+01 -2.56295E+01
  -1.88221E+01 -1.19485E+01 -6.56979E+00 -3.75053E+00 -2.90100E+00 -3.04785E+00 -4.25506E+00 -7.02402E+00 -1.14160E+01 -1.69098E+01
  -2.27298E+01 -2.82183E+01 -3.28759E+01 -3.62958E+01 -3.85191E+01 -3.94943E+01 -3.95606E+01 -3.89852E+01 -3.71532E+01 -3.43042E+01
  -3.10761E+01 -2.75638E+01 -2.36378E+01 -1.96009E+01 -1.64898E+01 -1.45473E+01 -1.31963E+01 -1.20549E+01 -1.09473E+01 -9.43743E+00
  -7.05855E+00 -3.58637E+00  3.61921E-01  3.83335E+00  5.91649E+00  5.63479E+00  2.48251E+00 -2.69359E+00 -9.11164E+00 -1.50528E+01
  -1.80385E+01 -1.74617E+01 -1.20709E+01 -2.27442E+00  1.03449E+01  2.35552E+01  3.50956E+01  4.32731E+01  4.72262E+01  4.72735E+01
   4.46605E+01  4.07410E+01  3.61663E+01  3.10677E+01  2.52971E+01  1.84369E+01  1.02597E+01  9.67713E-01 -9.33121E+00 -2.04342E+01
  -3.14968E+01 -4.20557E+01 -5.16695E+01 -5.96210E+01 -6.54835E+01 -6.95445E+01 -7.13061E+01 -7.10901E+01 -6.88540E+01 -6.45621E+01
  -5.83273E+01 -5.01989E+01 -4.10380E+01 -3.19856E+01 -2.40141E+01 -1.87671E+01 -1.72082E+01 -1.93407E+01 -2.23045E+01 -2.60371E+01
  -3.20283E+01 -3.61780E+01 -3.33259E+01 -2.48079E+01 -1.33609E+01  2.37596E+00  2.45661E+01  5.06375E+01  7.47644E+01  9.25809E+01
   1.02698E+02  1.05780E+02  1.04262E+02  1.00739E+02  9.66073E+01  9.24445E+01  8.85675E+01  8.51122E+01  8.20960E+01  7.95781E+01
   7.75427E+01  7.59743E+01  7.47684E+01  7.38087E+01  7.30062E+01  7.22882E+01  7.15560E+01  7.06764E+01  6.95650E+01  6.82063E+01
   6.65927E+01  6.47389E+01  6.26441E+01  6.03065E+01  5.77456E+01  5.49261E+01  5.18162E+01  4.84178E+01  4.48085E+01  4.11222E+01
   3.75679E+01  3.43844E+01  3.18021E+01  3.00122E+01  2.91136E+01  2.90625E+01  2.97064E+01  3.08644E+01  3.23824E+01  3.41182E+01
   3.59695E+01  3.78908E+01  3.98424E+01  4.18237E+01  4.38503E+01  4.59576E+01  4.81578E+01  5.03931E+01  5.25743E+01  5.46740E+01
   5.66763E+01  5.85273E+01  6.01780E+01  6.16334E+01  6.28793E+01  6.39182E+01  6.45164E+01  6.37170E+01  6.16545E+01  5.72884E+01
   5.00848E+01  4.00827E+01  2.80127E+01  1.51325E+01  2.99674E+00 -6.97722E+00 -1.42720E+01 -1.92699E+01 -2.26687E+01 -2.49173E+01
  -2.61824E+01 -2.64881E+01 -2.57116E+01 -2.40208E+01 -2.16738E+01 -1.89910E+01 -1.62782E+01 -1.35982E+01 -1.09429E+01 -8.25052E+00
  -5.49765E+00 -2.73902E+00 -1.29476E-01  2.10669E+00  3.82727E+00  4.95757E+00  5.40759E+00  5.07731E+00  3.96699E+00  2.10626E+00
  -4.00424E-01 -3.29686E+00 -6.21820E+00 -8.76153E+00 -1.06046E+01 -1.15650E+01 -1.15615E+01 -1.06773E+01 -9.04966E+00 -6.84512E+00
  -4.24801E+00 -1.41319E+00  1.52940E+00  4.48042E+00  7.40066E+00  1.02949E+01  1.31970E+01  1.61366E+01  1.91797E+01  2.23375E+01
   2.56837E+01  2.93355E+01  3.33890E+01  3.78702E+01  4.28285E+01  4.83463E+01  5.44451E+01  6.10866E+01  6.82049E+01  7.56473E+01
   8.31441E+01  9.01953E+01  9.62065E+01  1.00546E+02  1.02712E+02  1.02391E+02  9.96235E+01  9.48846E+01  8.88955E+01  8.23405E+01
   7.57117E+01  6.92715E+01  6.29588E+01  5.65646E+01  4.99055E+01  4.29758E+01  3.58881E+01  2.89240E+01  2.24259E+01  1.66863E+01
   1.18320E+01  7.86904E+00  4.72140E+00  2.25743E+00  3.27309E-01 -1.19895E+00 -2.43497E+00 -3.45183E+00 -4.25104E+00 -4.81912E+00
  -5.20310E+00 -5.47309E+00 -5.63455E+00 -5.68356E+00 -5.68448E+00 -5.67082E+00 -5.61442E+00 -5.48212E+00 -5.30964E+00 -5.13887E+00
  -4.97003E+00 -4.77943E+00 -4.56852E+00 -4.34266E+00 -4.08750E+00 -3.79240E+00 -3.45115E+00 -3.10668E+00 -2.77362E+00 -2.47843E+00
  -2.20885E+00 -1.93261E+00 -1.61424E+00 -1.23603E+00 -7.99449E-01 -3.18791E-01  1.57734E-01  6.13747E-01  1.03441E+00  1.42355E+00
   1.78880E+00  2.12121E+00  2.45045E+00  2.80606E+00  3.18974E+00  3.60871E+00  4.05470E+00  4.51063E+00  4.95549E+00  5.40495E+00
   5.86766E+00  6.36471E+00  6.88208E+00  7.42115E+00  7.95007E+00  8.44799E+00  8.91879E+00  9.36358E+00  9.76142E+00  1.01129E+01
   1.04382E+01  1.07801E+01  1.11481E+01  1.15604E+01  1.20043E+01  1.24621E+01  1.28854E+01  1.32206E+01  1.34291E+01  1.35399E+01
   1.36064E+01  1.36501E+01  1.36672E+01  1.36744E+01  1.36390E+01  1.35538E+01  1.34207E+01  1.32820E+01  1.31695E+01  1.31052E+01
 NY background values follow
     2.094E+02    2.039E+02    1.983E+02    1.928E+02    1.872E+02    1.817E+02    1.761E+02    1.706E+02    1.650E+02    1.595E+02
     1.540E+02    1.486E+02    1.431E+02    1.377E+02    1.324E+02    1.271E+02    1.218E+02    1.166E+02    1.114E+02    1.063E+02
     1.013E+02    9.633E+01    9.145E+01    8.664E+01    8.191E+01    7.727E+01    7.272E+01    6.827E+01    6.391E+01    5.966E+01
     5.552E+01    5.149E+01    4.757E+01    4.376E+01    4.006E+01    3.646E+01    3.297E+01    2.959E+01    2.631E+01    2.314E+01
     2.006E+01    1.709E+01    1.422E+01    1.144E+01    8.762E+00    6.180E+00    3.693E+00    1.301E+00   -9.993E-01   -3.208E+00
    -5.325E+00   -7.354E+00   -9.294E+00   -1.115E+01   -1.291E+01   -1.460E+01   -1.619E+01   -1.771E+01   -1.914E+01   -2.050E+01
    -2.177E+01   -2.297E+01   -2.409E+01   -2.513E+01   -2.611E+01   -2.702E+01   -2.786E+01   -2.863E+01   -2.935E+01   -3.000E+01
    -3.060E+01   -3.114E+01   -3.163E+01   -3.207E+01   -3.247E+01   -3.281E+01   -3.311E+01   -3.338E+01   -3.360E+01   -3.379E+01
    -3.394E+01   -3.406E+01   -3.415E+01   -3.421E+01   -3.425E+01   -3.427E+01   -3.426E+01   -3.424E+01   -3.420E+01   -3.415E+01
    -3.409E+01   -3.402E+01   -3.393E+01   -3.384E+01   -3.374E+01   -3.363E+01   -3.351E+01   -3.338E+01   -3.324E+01   -3.309E+01
    -3.293E+01   -3.275E+01   -3.257E+01   -3.237E+01   -3.216E+01   -3.195E+01   -3.172E+01   -3.147E+01   -3.122E+01   -3.095E+01
    -3.068E+01   -3.039E+01   -3.008E+01   -2.977E+01   -2.944E+01   -2.909E+01   -2.874E+01   -2.837E+01   -2.799E+01   -2.759E+01
    -2.718E+01   -2.676E+01   -2.632E+01   -2.587E+01   -2.540E+01   -2.493E+01   -2.444E+01   -2.395E+01   -2.344E+01   -2.292E+01
    -2.240E+01   -2.186E+01   -2.132E+01   -2.077E+01   -2.022E+01   -1.965E+01   -1.908E+01   -1.851E+01   -1.793E+01   -1.734E+01
    -1.676E+01   -1.617E+01   -1.557E+01   -1.498E+01   -1.438E+01   -1.378E+01   -1.318E+01   -1.258E+01   -1.198E+01   -1.138E+01
    -1.078E+01   -1.019E+01   -9.596E+00   -9.005E+00   -8.417E+00   -7.831E+00   -7.249E+00   -6.669E+00   -6.093E+00   -5.520E+00
    -4.951E+00   -4.386E+00   -3.825E+00   -3.269E+00   -2.717E+00   -2.169E+00   -1.626E+00   -1.089E+00   -5.568E-01   -3.013E-02
     4.908E-01    1.006E+00    1.515E+00    2.018E+00    2.514E+00    3.003E+00    3.486E+00    3.961E+00    4.429E+00    4.890E+00
     5.343E+00    5.788E+00    6.226E+00    6.657E+00    7.081E+00    7.498E+00    7.909E+00    8.315E+00    8.715E+00    9.110E+00
     9.500E+00    9.886E+00    1.027E+01    1.064E+01    1.102E+01    1.139E+01    1.176E+01    1.212E+01    1.248E+01    1.284E+01
     1.320E+01    1.356E+01    1.392E+01    1.427E+01    1.463E+01    1.498E+01    1.534E+01    1.569E+01    1.605E+01    1.640E+01
     1.676E+01    1.712E+01    1.748E+01    1.784E+01    1.820E+01    1.856E+01    1.891E+01    1.925E+01    1.959E+01    1.993E+01
     2.025E+01    2.057E+01    2.088E+01    2.118E+01    2.146E+01    2.174E+01    2.200E+01    2.224E+01    2.247E+01    2.269E+01
     2.288E+01    2.306E+01    2.322E+01    2.336E+01    2.347E+01    2.357E+01    2.364E+01    2.369E+01    2.371E+01    2.370E+01
     2.367E+01    2.361E+01    2.352E+01    2.341E+01    2.328E+01    2.311E+01    2.293E+01    2.272E+01    2.249E+01    2.224E+01
     2.197E+01    2.167E+01    2.136E+01    2.103E+01    2.069E+01    2.032E+01    1.994E+01    1.955E+01    1.914E+01    1.871E+01
     1.827E+01    1.782E+01    1.736E+01    1.689E+01    1.641E+01    1.591E+01    1.541E+01    1.490E+01    1.439E+01    1.386E+01
     1.334E+01    1.280E+01    1.227E+01    1.172E+01    1.118E+01    1.063E+01    1.008E+01    9.535E+00    8.985E+00    8.436E+00
     7.887E+00    7.341E+00    6.797E+00    6.255E+00    5.718E+00    5.185E+00    4.656E+00    4.134E+00    3.618E+00    3.109E+00
     2.608E+00    2.115E+00    1.631E+00    1.157E+00    6.932E-01    2.407E-01   -2.002E-01   -6.286E-01   -1.044E+00   -1.445E+00
    -1.833E+00   -2.206E+00   -2.564E+00   -2.909E+00   -3.240E+00   -3.558E+00   -3.863E+00   -4.155E+00   -4.435E+00   -4.703E+00
    -4.959E+00   -5.203E+00   -5.437E+00   -5.660E+00   -5.872E+00   -6.074E+00   -6.266E+00   -6.449E+00   -6.622E+00   -6.787E+00
    -6.942E+00   -7.090E+00   -7.229E+00   -7.361E+00   -7.485E+00   -7.602E+00   -7.712E+00   -7.816E+00   -7.913E+00   -8.005E+00
    -8.091E+00   -8.171E+00   -8.246E+00   -8.314E+00   -8.376E+00   -8.432E+00   -8.480E+00   -8.522E+00   -8.556E+00   -8.583E+00
    -8.603E+00   -8.614E+00   -8.617E+00   -8.612E+00   -8.598E+00   -8.576E+00   -8.544E+00   -8.503E+00   -8.453E+00   -8.393E+00
    -8.323E+00   -8.243E+00   -8.152E+00   -8.051E+00   -7.939E+00   -7.816E+00   -7.681E+00   -7.535E+00   -7.378E+00   -7.208E+00
    -7.026E+00   -6.832E+00   -6.627E+00   -6.411E+00   -6.185E+00   -5.950E+00   -5.705E+00   -5.451E+00   -5.189E+00   -4.920E+00
    -4.644E+00   -4.362E+00   -4.073E+00   -3.779E+00   -3.480E+00   -3.177E+00   -2.870E+00   -2.560E+00   -2.248E+00   -1.933E+00
    -1.616E+00   -1.299E+00   -9.805E-01   -6.625E-01   -3.449E-01   -2.848E-02    2.863E-01    5.990E-01    9.089E-01    1.216E+00
     1.519E+00    1.818E+00    2.114E+00    2.407E+00    2.698E+00    2.986E+00    3.272E+00    3.557E+00    3.840E+00    4.122E+00
     4.404E+00    4.685E+00    4.966E+00    5.248E+00    5.531E+00    5.814E+00    6.099E+00    6.385E+00    6.673E+00    6.964E+00
     7.257E+00    7.554E+00    7.853E+00    8.157E+00    8.464E+00    8.775E+00    9.092E+00    9.413E+00    9.739E+00    1.007E+01
     1.041E+01    1.075E+01    1.110E+01    1.146E+01    1.182E+01    1.219E+01    1.257E+01    1.295E+01    1.334E+01    1.374E+01
     1.415E+01    1.456E+01    1.498E+01    1.540E+01    1.584E+01    1.628E+01    1.673E+01    1.719E+01    1.766E+01    1.813E+01
     1.862E+01    1.911E+01    1.961E+01    2.012E+01    2.064E+01    2.116E+01    2.170E+01    2.224E+01    2.280E+01    2.336E+01
     2.394E+01    2.452E+01    2.511E+01    2.572E+01    2.632E+01    2.694E+01    2.757E+01    2.820E+01    2.883E+01    2.948E+01
     3.013E+01    3.078E+01    3.144E+01    3.211E+01    3.278E+01    3.345E+01    3.413E+01    3.480E+01    3.549E+01    3.617E+01
     3.686E+01    3.755E+01    3.823E+01    3.892E+01    3.961E+01    4.031E+01    4.099E+01    4.168E+01    4.237E+01    4.306E+01
 Mac      Conc. = 2.60E-04
   1.92381E+02  1.86164E+02  1.79762E+02  1.73158E+02  1.66366E+02  1.59479E+02  1.52625E+02  1.45899E+02  1.39304E+02  1.32772E+02
   1.26308E+02  1.19988E+02  1.13802E+02  1.07899E+02  1.02659E+02  9.83473E+01  9.49145E+01  9.20751E+01  8.95396E+01  8.70119E+01
   8.42698E+01  8.12554E+01  7.80499E+01  7.47598E+01  7.14938E+01  6.83504E+01  6.53079E+01  6.22669E+01  5.91223E+01  5.58411E+01
   5.24640E+01  4.90649E+01  4.57301E+01  4.25505E+01  3.96550E+01  3.70955E+01  3.47646E+01  3.24990E+01  3.01668E+01  2.77864E+01
   2.54463E+01  2.32187E+01  2.10489E+01  1.88054E+01  1.63860E+01  1.37169E+01  1.08085E+01  7.74654E+00  4.64794E+00  1.63825E+00
  -1.15619E+00 -3.65984E+00 -5.85044E+00 -7.66440E+00 -9.04896E+00 -1.00666E+01 -1.08181E+01 -1.14295E+01 -1.20139E+01 -1.26922E+01
  -1.35621E+01 -1.46805E+01 -1.60266E+01 -1.74550E+01 -1.87584E+01 -1.98113E+01 -2.05399E+01 -2.08241E+01 -2.06359E+01 -2.00533E+01
  -1.92946E+01 -1.86024E+01 -1.81480E+01 -1.80250E+01 -1.82392E+01 -1.87140E+01 -1.93003E+01 -1.98672E+01 -2.03175E+01 -2.05932E+01
  -2.06224E+01 -2.03973E+01 -1.99601E+01 -1.93585E+01 -1.86559E+01 -1.79163E+01 -1.71785E+01 -1.64753E+01 -1.58705E+01 -1.54208E+01
  -1.52015E+01 -1.52929E+01 -1.57582E+01 -1.65979E+01 -1.77846E+01 -1.92392E+01 -2.08412E+01 -2.25330E+01 -2.43682E+01 -2.65403E+01
  -2.92072E+01 -3.24344E+01 -3.62100E+01 -4.03771E+01 -4.46057E+01 -4.83799E+01 -5.12122E+01 -5.28237E+01 -5.31882E+01 -5.24837E+01
