 
 $NMID
 ID=''
 FMTDAT='(2E13.5)'
 TRAMP=   1.00000E+0
 VOLUME=   1.00000E+0
 $END
  -5.27581E+5   3.72184E+5
  -1.61211E+6   4.13575E+5
  -1.51787E+6   5.68569E+5
  -1.49887E+6   4.80852E+5
  -1.57092E+6   5.38374E+5
  -1.46728E+6   6.04650E+5
  -1.41671E+6   5.34733E+5
  -1.48629E+6   5.49927E+5
  -1.44934E+6   6.25182E+5
  -1.39544E+6   6.16285E+5
  -1.39576E+6   6.17294E+5
  -1.36795E+6   6.36428E+5
  -1.35224E+6   6.35523E+5
  -1.34791E+6   6.66740E+5
  -1.30306E+6   6.89059E+5
  -1.27676E+6   6.81082E+5
  -1.27946E+6   6.99626E+5
  -1.25363E+6   7.14450E+5
  -1.23300E+6   7.09361E+5
  -1.22215E+6   7.27035E+5
  -1.19447E+6   7.35303E+5
  -1.17843E+6   7.29727E+5
  -1.16857E+6   7.45728E+5
  -1.14365E+6   7.56313E+5
  -1.12514E+6   7.49273E+5
  -1.10668E+6   7.63390E+5
  -1.08464E+6   7.75171E+5
  -1.06946E+6   7.76842E+5
  -1.05033E+6   7.83387E+5
  -1.02293E+6   7.90549E+5
  -1.01109E+6   7.92331E+5
  -9.96998E+5   7.98749E+5
  -9.75630E+5   7.98771E+5
  -9.59043E+5   7.98227E+5
  -9.42274E+5   8.04017E+5
  -9.23388E+5   8.07056E+5
  -9.11496E+5   8.06472E+5
  -8.96902E+5   8.08145E+5
  -8.76663E+5   8.07967E+5
  -8.62288E+5   8.09711E+5
  -8.46047E+5   8.11174E+5
  -8.27799E+5   8.10695E+5
  -8.10754E+5   8.11566E+5
  -7.94914E+5   8.14456E+5
  -7.77674E+5   8.13062E+5
  -7.63235E+5   8.13415E+5
  -7.50587E+5   8.13434E+5
  -7.37637E+5   8.08051E+5
  -7.22327E+5   8.02428E+5
  -7.07407E+5   8.00640E+5
  -6.95578E+5   7.98135E+5
  -6.84506E+5   7.93935E+5
  -6.70895E+5   7.90147E+5
  -6.57991E+5   7.86602E+5
  -6.46836E+5   7.82026E+5
  -6.35312E+5   7.77236E+5
  -6.22923E+5   7.71959E+5
  -6.09651E+5   7.67445E+5
  -5.96673E+5   7.62846E+5
  -5.85027E+5   7.57856E+5
  -5.73818E+5   7.52661E+5
  -5.62256E+5   7.48211E+5
  -5.52050E+5   7.42674E+5
  -5.41504E+5   7.35205E+5
  -5.30268E+5   7.27175E+5
  -5.18744E+5   7.20454E+5
  -5.08102E+5   7.13839E+5
  -4.97233E+5   7.07025E+5
  -4.87150E+5   7.00692E+5
  -4.78882E+5   6.94483E+5
  -4.70064E+5   6.86043E+5
  -4.58884E+5   6.78656E+5
  -4.48039E+5   6.72487E+5
  -4.39342E+5   6.66049E+5
  -4.31243E+5   6.57477E+5
  -4.21241E+5   6.49631E+5
  -4.11330E+5   6.42686E+5
  -4.02859E+5   6.34819E+5
  -3.94856E+5   6.25522E+5
  -3.86650E+5   6.17056E+5
  -3.78310E+5   6.08691E+5
  -3.69533E+5   6.00779E+5
  -3.61649E+5   5.91907E+5
  -3.54106E+5   5.82977E+5
  -3.46977E+5   5.74189E+5
  -3.38545E+5   5.66400E+5
  -3.30446E+5   5.58657E+5
  -3.22571E+5   5.50138E+5
  -3.15256E+5   5.41947E+5
  -3.07066E+5   5.33874E+5
  -2.98913E+5   5.26231E+5
  -2.91120E+5   5.18636E+5
  -2.83937E+5   5.10173E+5
  -2.77004E+5   5.01274E+5
  -2.69726E+5   4.92572E+5
  -2.61733E+5   4.84714E+5
  -2.54296E+5   4.77619E+5
  -2.48126E+5   4.70040E+5
  -2.41452E+5   4.61240E+5
  -2.34150E+5   4.53668E+5
  -2.26755E+5   4.47240E+5
  -2.20799E+5   4.39601E+5
  -2.14388E+5   4.31064E+5
  -2.07174E+5   4.23109E+5
  -1.99367E+5   4.17061E+5
  -1.92726E+5   4.10727E+5
  -1.86711E+5   4.03658E+5
  -1.80584E+5   3.96303E+5
  -1.74078E+5   3.89105E+5
  -1.66751E+5   3.82542E+5
  -1.60227E+5   3.76266E+5
  -1.54503E+5   3.69862E+5
  -1.49591E+5   3.63462E+5
  -1.43835E+5   3.57111E+5
  -1.37736E+5   3.50345E+5
  -1.32134E+5   3.44325E+5
  -1.27010E+5   3.38180E+5
  -1.21557E+5   3.31839E+5
  -1.15224E+5   3.25618E+5
  -1.09063E+5   3.20127E+5
  -1.03799E+5   3.15327E+5
  -9.84926E+4   3.09904E+5
  -9.30938E+4   3.04327E+5
  -8.78990E+4   2.99004E+5
  -8.28567E+4   2.93929E+5
  -7.75884E+4   2.88433E+5
  -7.21766E+4   2.82864E+5
  -6.73668E+4   2.78107E+5
  -6.21115E+4   2.73112E+5
  -5.77585E+4   2.68608E+5
  -5.36269E+4   2.63686E+5
  -4.91334E+4   2.58551E+5
  -4.43917E+4   2.53688E+5
  -4.00554E+4   2.48973E+5
  -3.59882E+4   2.44657E+5
  -3.15852E+4   2.40103E+5
  -2.72473E+4   2.35624E+5
  -2.28786E+4   2.31615E+5
  -1.88902E+4   2.27580E+5
  -1.50419E+4   2.23462E+5
  -1.12518E+4   2.19250E+5
  -7.09631E+3   2.15154E+5
  -2.59811E+3   2.11118E+5
   9.89198E+2   2.07723E+5
   4.51758E+3   2.03776E+5
   8.10588E+3   1.99956E+5
   1.18014E+4   1.95936E+5
   1.55047E+4   1.92373E+5
   1.87298E+4   1.88941E+5
   2.20471E+4   1.85366E+5
   2.54660E+4   1.81706E+5
   2.91903E+4   1.78327E+5
   3.26352E+4   1.75538E+5
   3.55370E+4   1.72145E+5
   3.84675E+4   1.69011E+5
   4.16360E+4   1.65619E+5
   4.46966E+4   1.62623E+5
   4.74702E+4   1.59591E+5
   5.04100E+4   1.56470E+5
   5.30542E+4   1.53492E+5
   5.55782E+4   1.50504E+5
   5.81700E+4   1.47909E+5
   6.08018E+4   1.45072E+5
   6.30305E+4   1.42344E+5
   6.53389E+4   1.39554E+5
   6.77892E+4   1.37177E+5
   7.00841E+4   1.34839E+5
   7.20251E+4   1.32374E+5
   7.42607E+4   1.29970E+5
   7.60080E+4   1.27427E+5
   7.80694E+4   1.25390E+5
   8.00269E+4   1.22867E+5
   8.14953E+4   1.20641E+5
   8.33978E+4   1.18264E+5
   8.48449E+4   1.16290E+5
   8.63669E+4   1.14253E+5
   8.77211E+4   1.12619E+5
   8.89253E+4   1.10645E+5
   9.00914E+4   1.08429E+5
   9.12054E+4   1.06828E+5
   9.25069E+4   1.04932E+5
   9.38487E+4   1.03368E+5
   9.42837E+4   1.01956E+5
   9.54620E+4   1.00186E+5
   9.63811E+4   9.86757E+4
   9.73763E+4   9.70104E+4
   9.81436E+4   9.58444E+4
   9.87156E+4   9.43230E+4
   9.93947E+4   9.27533E+4
   1.00633E+5   9.15263E+4
   1.01369E+5   9.05571E+4
   1.01649E+5   8.92466E+4
   1.02039E+5   8.82843E+4
   1.02377E+5   8.69728E+4
   1.02983E+5   8.60153E+4
   1.03347E+5   8.48821E+4
   1.03766E+5   8.42719E+4
   1.03703E+5   8.33608E+4
   1.04013E+5   8.21983E+4
   1.04534E+5   8.14681E+4
   1.04752E+5   8.10290E+4
   1.04407E+5   8.02244E+4
   1.04597E+5   7.93470E+4
   1.04599E+5   7.83758E+4
   1.04946E+5   7.78139E+4
   1.04898E+5   7.72423E+4
   1.04876E+5   7.66428E+4
   1.04698E+5   7.60673E+4
   1.04731E+5   7.52922E+4
   1.04407E+5   7.46737E+4
   1.04164E+5   7.43229E+4
   1.04111E+5   7.34399E+4
   1.03663E+5   7.31410E+4
   1.03899E+5   7.25967E+4
   1.03470E+5   7.23225E+4
   1.02869E+5   7.16042E+4
   1.02362E+5   7.08909E+4
   1.02264E+5   7.03120E+4
   1.02179E+5   6.97833E+4
   1.01483E+5   6.92972E+4
   1.00898E+5   6.85612E+4
   1.00749E+5   6.81334E+4
   1.00529E+5   6.75678E+4
   9.99470E+4   6.74306E+4
   9.92792E+4   6.67815E+4
   9.85407E+4   6.56604E+4
   9.82066E+4   6.51504E+4
   9.79211E+4   6.46201E+4
   9.73535E+4   6.40131E+4
   9.65229E+4   6.33628E+4
   9.59230E+4   6.27842E+4
   9.50909E+4   6.20565E+4
   9.46233E+4   6.14168E+4
   9.40324E+4   6.07586E+4
   9.32735E+4   6.02476E+4
   9.27859E+4   5.95051E+4
   9.16592E+4   5.85972E+4
   9.10791E+4   5.81871E+4
   9.03003E+4   5.75990E+4
   8.95107E+4   5.68843E+4
   8.89619E+4   5.58168E+4
   8.81152E+4   5.53207E+4
   8.72851E+4   5.48736E+4
   8.63413E+4   5.43325E+4
   8.54792E+4   5.32505E+4
   8.46656E+4   5.26408E+4
   8.38161E+4   5.22632E+4
   8.29360E+4   5.15599E+4
   8.18133E+4   5.08125E+4
   8.11387E+4   5.02220E+4
   8.03181E+4   4.98080E+4
   7.92930E+4   4.90956E+4
   7.82732E+4   4.87136E+4
   7.70832E+4   4.80851E+4
   7.63876E+4   4.76369E+4
   7.54949E+4   4.67947E+4
   7.48656E+4   4.62766E+4
   7.37207E+4   4.60388E+4
   7.24180E+4   4.55233E+4
   7.15562E+4   4.49362E+4
   7.02979E+4   4.46561E+4
   6.93708E+4   4.40524E+4
   6.81711E+4   4.37525E+4
   6.71965E+4   4.31109E+4
   6.62179E+4   4.28289E+4
   6.53827E+4   4.21923E+4
   6.38901E+4   4.21628E+4
   6.30579E+4   4.17592E+4
   6.17624E+4   4.10739E+4
   6.08802E+4   4.10291E+4
   5.95114E+4   4.01741E+4
   5.88941E+4   3.99049E+4
   5.78775E+4   3.96932E+4
   5.65724E+4   3.92197E+4
   5.58490E+4   3.89862E+4
   5.48241E+4   3.88224E+4
   5.37582E+4   3.87202E+4
   5.24062E+4   3.80053E+4
   5.14438E+4   3.77205E+4
   5.05177E+4   3.76875E+4
   4.98592E+4   3.70503E+4
   4.82880E+4   3.67335E+4
   4.72843E+4   3.65613E+4
   4.65249E+4   3.63561E+4
   4.53529E+4   3.60281E+4
   4.42648E+4   3.59404E+4
   4.33912E+4   3.52057E+4
   4.21946E+4   3.46199E+4
   4.14674E+4   3.42607E+4
   4.05768E+4   3.42528E+4
   3.95211E+4   3.42105E+4
   3.85455E+4   3.38989E+4
   3.75940E+4   3.35547E+4
   3.66211E+4   3.31684E+4
   3.55180E+4   3.28364E+4
   3.46991E+4   3.25211E+4
   3.41565E+4   3.20782E+4
   3.26980E+4   3.16738E+4
   3.18697E+4   3.16837E+4
   3.08712E+4   3.12893E+4
   3.00875E+4   3.08678E+4
   2.89955E+4   3.04412E+4
   2.83620E+4   3.03300E+4
   2.74600E+4   3.02153E+4
   2.64237E+4   2.97182E+4
   2.54978E+4   2.94904E+4
   2.46488E+4   2.91213E+4
   2.37562E+4   2.85988E+4
   2.25342E+4   2.84866E+4
   2.17978E+4   2.80994E+4
   2.09151E+4   2.77255E+4
   2.01303E+4   2.74175E+4
   1.92727E+4   2.73089E+4
   1.83608E+4   2.67813E+4
   1.75157E+4   2.62412E+4
   1.67490E+4   2.60200E+4
   1.58460E+4   2.56205E+4
   1.49886E+4   2.52427E+4
   1.40116E+4   2.48471E+4
   1.33467E+4   2.45269E+4
   1.26832E+4   2.41670E+4
   1.14917E+4   2.41000E+4
   1.09767E+4   2.34378E+4
   1.03012E+4   2.31822E+4
   9.47461E+3   2.28053E+4
   8.47042E+3   2.24100E+4
   7.87265E+3   2.20966E+4
   6.88534E+3   2.18123E+4
   6.11849E+3   2.14408E+4
   5.35745E+3   2.11872E+4
   4.83394E+3   2.05645E+4
   4.13585E+3   2.04463E+4
   3.15980E+3   2.00984E+4
   2.56303E+3   1.96167E+4
   1.78116E+3   1.93977E+4
   1.29598E+3   1.91395E+4
   3.22190E+2   1.86885E+4
  -2.83586E+2   1.80444E+4
  -1.02863E+3   1.76959E+4
  -1.74654E+3   1.73601E+4
  -2.32082E+3   1.72446E+4
  -2.99456E+3   1.68216E+4
  -3.76829E+3   1.63840E+4
  -4.26463E+3   1.61110E+4
  -4.93064E+3   1.56950E+4
  -5.76579E+3   1.52794E+4
  -6.26658E+3   1.48964E+4
  -6.83055E+3   1.46723E+4
  -7.30182E+3   1.41452E+4
  -7.65975E+3   1.39919E+4
  -8.43663E+3   1.34279E+4
  -9.20849E+3   1.32099E+4
  -9.65628E+3   1.26976E+4
  -9.97074E+3   1.23428E+4
  -1.03830E+4   1.20637E+4
  -1.07289E+4   1.12850E+4
  -1.13918E+4   1.11886E+4
  -1.18536E+4   1.07988E+4
  -1.23327E+4   1.05796E+4
  -1.27578E+4   1.02176E+4
  -1.30545E+4   9.55655E+3
  -1.33685E+4   9.11434E+3
  -1.40000E+4   8.74955E+3
  -1.45158E+4   8.53569E+3
  -1.47228E+4   8.06968E+3
  -1.51070E+4   7.72087E+3
  -1.56216E+4   7.46859E+3
