 
 $NMID
 ID=''
 FMTDAT='(2E13.5)'
 TRAMP=   1.00000E+0
 VOLUME=   1.00000E+0
 $END
  -1.73532E+4   9.89684E+3
  -2.22685E+4   3.38989E+4
   2.18001E+4   2.98466E+4
   3.70519E+4  -1.33058E+4
  -4.87768E+3  -3.51805E+4
  -3.64192E+4  -1.21822E+4
  -1.80337E+4   1.92724E+4
   1.64296E+4   2.17113E+4
   2.66955E+4  -3.15283E+3
   7.15660E+3  -2.21256E+4
  -1.56980E+4  -1.07717E+4
  -1.43577E+4   1.12959E+4
   3.98844E+3   1.60221E+4
   1.21866E+4   4.13923E+3
   4.92672E+3  -8.88411E+3
  -6.08244E+3  -1.00572E+4
  -9.49191E+3   1.08263E+3
  -3.18634E+3   8.44617E+3
   3.94105E+3   4.04671E+3
   5.13794E+3  -2.40553E+3
  -1.75604E+2  -4.55763E+3
  -3.18890E+3  -4.18496E+3
  -1.06002E+3   3.34042E+2
   1.18835E+2   4.48521E+3
   3.51924E+2   2.23060E+3
   3.04175E+3  -1.94004E+3
   3.88395E+3  -1.01706E+3
  -1.72939E+3   6.26539E+2
  -5.92743E+3  -7.09049E+2
  -1.30853E+3  -6.06071E+1
   3.69612E+3   2.78326E+3
   2.64770E+3   1.86859E+3
  -7.92534E+2  -2.69367E+3
  -3.28958E+3  -4.11296E+3
  -2.65086E+3  -3.06911E+2
   7.88681E+2   2.82833E+3
   4.11130E+3   1.82432E+3
   2.99228E+3  -1.56790E+3
  -7.72243E+2  -2.75674E+3
  -3.22314E+3  -2.84695E+2
  -1.97099E+3   3.21755E+3
   1.27768E+3   1.96132E+3
   2.93591E+3  -1.69661E+3
   4.45484E+2  -3.40037E+3
  -1.77662E+3  -1.87967E+3
  -4.77459E+2   1.63763E+3
   1.18622E+3   3.56457E+3
   2.41876E+2   1.02436E+3
  -8.52403E+2  -2.46933E+3
  -8.82599E+2  -2.14509E+3
  -5.61558E+2   1.21384E+2
  -5.56785E+1   9.84704E+2
   1.14635E+3  -2.26733E+2
   1.48957E+3  -3.51129E+2
   2.91167E+2   1.23381E+2
  -7.55816E+2   4.88859E+2
  -1.22930E+3   4.81204E+2
  -4.82727E+2  -3.36078E+1
   6.02649E+2  -7.78583E+2
   7.53727E+2  -7.74146E+2
   4.79042E+2   3.90443E+1
   4.19998E+2   5.24036E+2
   5.34149E+2   8.89219E+2
  -3.46618E+2   9.54092E+2
  -1.17874E+3   4.44893E+2
  -1.11053E+3  -6.25757E+2
  -1.71715E+2  -1.25772E+3
   5.30090E+2  -7.95290E+2
   8.08881E+2   3.22485E+1
   2.84572E+2   4.02524E+2
  -3.59868E+2   6.04597E+1
   1.17849E+2  -7.57938E+2
   9.52227E+2  -2.17645E+2
   5.18494E+2   6.11765E+2
   1.86803E+1   3.70736E+2
  -9.03366E+1  -2.13988E+2
  -1.18383E+1   1.29490E+2
   1.86333E+2   5.62198E+2
   1.42138E+2   3.64451E+2
  -1.27523E+2   2.75690E+1
  -3.70091E+2  -2.67148E+2
  -2.87441E+2  -5.44500E+2
  -1.21182E+2  -4.29152E+1
   5.02457E+2   3.71058E+2
   1.14605E+2  -5.47360E+2
   9.38778E+1  -9.03781E+2
   1.97061E+2  -4.96765E+2
  -2.18862E+2   4.24153E+2
  -1.64055E+2   6.25834E+2
   4.76870E+2   4.61684E+1
   1.02080E+3  -4.03597E+2
   1.19878E+2   1.94050E+1
  -9.88841E+2   4.93667E+2
  -6.88269E+2   5.66793E+2
  -7.75206E+1  -9.46315E+1
   3.68160E+2  -8.71839E+2
   8.56086E+1  -9.13612E+2
  -5.91795E+2  -7.25002E+1
  -2.86978E+2   2.10264E+2
   3.61513E+2   1.31064E+2
   8.19176E+2   2.06378E+2
   1.78446E+2   9.98364E+1
  -8.47051E+2  -1.07229E+2
  -8.72506E+2  -3.76383E+2
  -6.77103E+1   7.29514E+1
   7.66570E+2   5.97160E+2
   2.86032E+2   6.80823E+2
  -8.06514E+2  -2.91993E+2
  -1.14961E+3  -7.97383E+2
   8.32094E+1  -4.59292E+2
   1.00859E+3   4.95155E+2
   4.30271E+2   6.82086E+2
   1.16593E+2   1.08585E+2
  -2.38754E+2  -2.62465E+2
  -2.09024E+2   2.70051E+2
  -4.51274E+2   6.84699E+2
  -3.25207E+2   6.84309E+2
  -2.34681E+2  -5.20613E+2
  -1.64779E+1  -7.95971E+2
  -1.66790E+2  -4.42856E+2
   1.30176E+2   2.89453E+2
   1.52583E+2   6.94337E+2
   2.51533E+2   3.87218E+2
   1.79067E+2   1.58190E+2
  -6.41419E+2  -1.41571E+1
  -6.18006E+2  -2.36048E+0
  -3.01660E+1   7.50712E+1
   2.38403E+2   4.35110E+2
   3.20958E+2   3.26683E+2
   4.16595E+2   2.27962E+2
  -5.84004E+2   1.36154E+2
  -7.02253E+2  -8.86394E+0
   4.58090E+1   6.24487E+1
   3.25825E+2   4.23360E+2
   2.40768E+2   6.37334E+1
  -7.16152E+1  -2.03944E+2
   1.95635E+1  -1.25521E+2
   1.45180E+2   1.51272E+2
   2.64582E+2   7.19466E+2
  -1.66517E+2   4.14282E+2
  -1.29468E+2  -2.68113E+2
   5.42958E+0  -1.43167E+2
   2.23153E+2   2.70558E+2
   1.34496E+2   5.31404E+2
   1.06070E+2   6.16321E+2
  -6.90952E+1  -1.38855E+2
  -3.93620E+2  -3.30570E+2
   4.70081E+1  -1.71122E+1
  -3.93970E+0  -1.46758E+0
  -5.15304E+1   7.99444E+1
   5.04153E+2  -3.05626E+2
   3.09621E+2  -3.69782E+2
   2.24806E+2   1.79975E+2
  -3.59114E+2   4.15424E+2
  -1.73979E+2   7.63140E+0
   8.16805E+1   4.94110E+1
   1.93490E+2   1.93629E+2
  -2.30937E+1   4.11292E+1
  -6.65204E+1  -1.99403E+1
   9.76723E+1   8.63987E+1
   1.29099E+2   8.82117E+1
  -1.85714E+1  -5.54786E+1
  -1.01631E+2  -9.38350E+1
  -1.52250E+2  -3.01899E+2
   3.74915E+2  -3.50775E+2
   2.15755E+2   3.55641E+1
   6.46144E+1   1.07001E+2
  -9.33120E+1   1.38504E+2
   8.77152E+1   7.12394E+1
   2.74690E+2  -2.32583E+2
  -6.32541E+1   4.08905E+1
  -1.79630E+2   1.46655E+2
  -1.06200E+2   2.66738E+2
   8.20843E+1  -3.41275E+2
   2.42454E+2  -5.14811E+1
  -5.49066E+1   3.80832E+1
  -1.35437E+2  -1.57156E+2
  -1.88236E+2  -1.34617E+2
   9.36275E+1  -2.75713E+2
   2.99454E+2   1.35543E+1
   1.82708E+1   4.72409E+1
  -2.42360E+2   3.49152E+0
  -3.13500E+2  -2.30002E+2
  -1.33096E+2  -2.04222E+0
  -6.20857E+1  -3.79597E+2
   8.42923E+0   2.61672E+1
  -1.33215E+2  -2.56471E+2
   5.59487E+1  -1.50756E+2
   3.44563E+2  -4.97028E+1
   2.50165E+2   4.90778E+2
  -1.20686E+2   2.37416E+2
  -2.44436E+2   1.01069E+2
  -3.12680E+2  -3.90988E+2
  -1.34894E+1  -3.46871E+2
   1.15484E+2   1.51573E+2
   3.60013E+1  -1.09173E+2
  -3.51383E+1   3.14384E+2
   6.36769E+1  -8.57256E+1
  -1.30371E+2   1.85054E+2
  -3.50843E+2  -4.23124E+0
  -3.29999E+2  -9.04241E+1
   1.61029E+2  -4.09400E+2
   2.66114E+2   1.97673E+2
   1.24550E+2   3.61916E+1
  -1.75434E+2  -2.60160E+1
  -2.54599E+2  -1.21490E+2
  -7.45750E+1  -1.53021E+2
   1.06768E+1  -2.11970E+1
   3.59678E+1   1.39076E+2
  -1.71812E+2   1.36273E+2
   7.99532E+1  -1.34068E+2
   1.24873E+2  -8.11922E+1
   1.44997E+1   1.97653E+2
  -1.70412E+2   1.77946E+2
  -2.24929E+2  -1.37705E+2
  -2.58324E+2  -5.24604E+2
   1.23378E+2  -1.57072E+2
   2.19334E+2  -1.53811E+2
  -5.49320E+0   9.72257E+1
   1.25021E+2   7.05227E+1
   2.94660E+2   1.35230E+2
   2.58383E+2  -1.54109E+2
  -1.00208E+2   2.11309E+2
  -2.84782E+2   9.83094E+1
  -1.60267E+2  -2.00747E+2
   7.13030E+1  -2.17751E+2
   9.25555E+0   1.61593E+1
  -1.48109E+2   1.04461E+2
  -2.27636E+1  -1.72023E+2
   4.13714E+1  -1.95328E+2
   3.17614E+2  -2.89594E+1
   2.44668E+1  -1.55027E+2
  -2.27333E+2  -5.23221E+1
  -2.14217E+2  -4.67123E+1
   1.13948E+2  -5.34626E+1
  -1.08177E+1   8.72041E+1
  -3.45791E+2   8.95326E+1
  -3.03434E+2  -1.57160E+2
  -7.63694E+1  -2.16011E+2
  -4.33946E+1  -2.59777E+2
   2.28411E+1   2.29728E+2
  -4.21582E+1  -4.33021E+0
  -2.52565E+2   9.33069E+1
  -9.08463E+1  -3.23884E+1
  -1.41111E+2  -7.76441E+1
  -1.08221E+2   2.44922E+2
   4.88703E+1   1.52695E+2
  -2.20011E+2  -7.04823E+1
   1.18631E+0  -2.29194E+2
   2.24617E+1   2.16073E+2
  -2.21937E+2   3.94760E+1
  -2.26389E+2   1.22150E+2
  -4.12996E+2  -4.54361E+2
  -2.12219E+1  -2.65355E+2
   2.98044E+2  -1.01680E+1
  -9.51977E+1   1.66235E+1
  -1.01254E+2  -1.38358E+2
  -3.20187E+2   3.30596E+1
  -1.54487E+2   1.48539E+2
  -3.67098E+2  -4.90611E+1
  -1.63897E+2  -2.07264E+1
   5.08247E+1   6.98811E+1
  -3.15460E+1  -8.88157E+1
  -4.43977E+1  -1.66003E+1
   9.74299E+1   9.10216E+1
  -1.14314E+2   1.06253E+2
  -1.42017E+1   2.19362E+2
  -5.14568E+1  -1.99814E+1
   4.35211E+1  -1.93291E+2
  -1.33119E+1  -9.84908E+1
   2.79454E+1  -9.05634E+1
  -1.40225E+2   1.76927E+2
  -7.46837E+1  -1.05903E+2
  -1.40669E+2   1.37721E+2
  -1.51688E+2   2.10582E+2
  -1.77227E+2  -1.67133E+2
  -7.98146E+1  -1.75583E+2
   1.35517E+2   3.23275E+0
  -1.68564E+2   1.10552E+2
  -1.05534E+2   2.59946E+2
   1.96784E+1  -1.80503E+1
   1.61101E+2   3.45456E+1
   1.48843E+2   1.09200E+2
  -3.42935E+1   1.67114E+2
  -1.19234E+2  -5.42021E+1
   4.54097E+1  -1.23643E+2
   9.09228E+1   1.21185E+2
   8.10497E+1   9.24918E+1
  -1.79143E+2   1.70699E+2
   3.65133E+1   1.74606E+2
  -1.17512E+2   1.38641E+2
   1.37160E+2  -1.14248E+2
   5.70566E+1  -3.16655E+1
  -6.22922E+1   5.09799E+1
   2.64919E+1  -1.85664E+2
   1.40646E+1   1.45158E+1
   1.05944E+2   3.73564E+2
  -2.04822E+2   2.35091E+2
   5.04854E+0  -6.03345E+1
  -7.81564E+1  -3.40046E+1
   1.28993E+2  -1.61584E+2
   1.38318E+2   8.10075E+1
   3.20347E+1  -9.45867E+0
  -1.63928E+1   8.14997E+1
   4.56398E+1  -7.86287E+1
   1.64299E+2  -8.67022E+1
  -2.06640E+1   1.62261E+2
   1.72579E-1  -4.72255E+1
   8.43997E+1  -8.65367E+1
   1.13907E+2   1.64838E+2
  -7.90667E+1   1.50303E+2
  -2.31584E+2   1.06935E+1
  -2.05433E+2   1.01038E+2
  -2.61959E+2  -2.49298E+2
   1.19226E+2  -3.66972E+1
   1.85341E+2  -2.16459E+1
  -3.11971E+1   3.51954E+1
  -1.01920E+2   5.49770E+0
   3.47879E+1  -6.16781E+1
  -2.36671E+2   1.59912E+2
   1.39334E+2   5.24481E+1
  -1.64453E+2   8.20553E+1
  -4.35234E+1  -5.89877E+1
   2.42691E+2  -2.26902E+2
  -3.64386E+1   1.13674E+2
  -3.38511E+2   8.49337E+1
  -8.45595E+1   1.83171E+2
  -3.23721E+1  -9.03693E+0
   2.33194E+2  -1.09002E+2
   1.50164E+2  -2.15123E+1
   6.78146E+1   1.95514E+2
  -1.86423E+2  -2.05139E+2
  -1.42799E+2  -4.32233E+1
   2.30674E+2   5.41500E+1
   5.35696E+1   4.79473E+1
  -1.82620E+2  -2.51136E+1
  -2.30631E+2  -1.40198E+2
  -5.16190E+1  -9.90243E+0
   6.23759E+1  -9.56833E+1
   8.09345E+0   9.85767E+1
  -7.65208E+1   6.66627E+1
   8.15333E+1   4.86679E+1
   1.01145E+2  -1.12113E+2
   1.04335E+2   4.59315E+1
   3.56144E+1   7.57531E+1
  -1.09037E+2  -1.43728E+1
   4.14420E+1   2.12871E+2
   2.58810E+2   8.58556E+1
  -8.64342E+1   1.31115E+2
  -4.38826E+1   2.19171E+2
  -1.00287E+2  -4.16451E+1
  -1.03054E+2   6.27992E+0
   1.32222E+2   7.71937E+1
   1.37552E+2   1.35749E+2
   1.62942E+2  -4.91876E+1
   1.32820E+2   6.67471E+1
  -6.20529E+1   3.80038E+1
  -1.56954E+2   1.28504E+2
  -1.90078E+2  -9.73612E+1
  -1.17045E+1  -3.30913E+1
   8.77735E+1   2.21137E+1
  -1.14813E+2  -4.88261E+1
   2.45924E+2  -2.26021E+2
  -1.52554E+1   1.15194E+2
  -7.10284E+1  -3.34603E+1
   1.58171E+2   5.18659E+1
  -2.92203E+1   6.28798E+1
