 LCModel (Version 6.3-1N) Copyright: S.W. Provencher.          Ref.: Magn. Reson. Med. 30:672-679 (1993).                
 Slice_N1@13_17  28-Feb-2025 11:38:35
 27 lines in following concentration table = NCONC+1
    Conc.  %SD /Cr+PCr  Metabolite                                         
 1.71E-04   8% 1.6E-04 Mac                                                 
    3.319  45%   3.132 Cr                                                  
    5.158  28%   4.868 PCr                                                 
    6.177  17%   5.830 Ins                                                 
    9.219  10%   8.701 NAA                                                 
    6.163  16%   5.817 Tau                                                 
    0.000 999%   0.000 PCho                                                
    1.691  20%   1.596 GPC                                                 
    8.348  14%   7.879 Glu                                                 
    2.454  36%   2.317 Gln                                                 
    0.000 999%   0.000 Ala                                                 
    2.178  65%   2.056 Asc                                                 
    2.612  46%   2.465 Asp                                                 
    0.907  69%   0.856 GABA                                                
    0.428 195%   0.404 Glc                                                 
    1.208  42%   1.140 GSH                                                 
    1.901  41%   1.794 Lac                                                 
    1.892  35%   1.785 NAAG                                                
    2.865  44%   2.704 PE                                                  
    1.691  20%   1.596 GPC+PCho                                            
   11.110   9%  10.486 NAA+NAAG                                            
   10.803  14%  10.196 Glu+Gln                                             
    8.476  10%   8.000 Cr+PCr                                              
   11.110   9%  10.486 NAA+NAAG                                            
    8.476  10%   8.000 Cr+PCr                                              
   10.803  14%  10.196 Glu+Gln                                             
   6 lines in following misc. output table
  FWHM = 0.024 ppm    S/N =   3                                            
  Data shift = 0.033 ppm                                                   
  Ph:-135 deg       0.0 deg/ppm                                            
  alphaB,S = 1.9E-01,   6.4E+00                                            
   19 spline knots.   Ns = 5(1)                                            
  ( 5) 2 infls.   ( 3) 1 extrs.                                            
  480 points on ppm-axis = NY
      4.100000     4.091866     4.083733     4.075600     4.067466     4.059333     4.051199     4.043066     4.034933     4.026799
      4.018666     4.010532     4.002399     3.994265     3.986132     3.977998     3.969864     3.961731     3.953597     3.945463
      3.937330     3.929196     3.921062     3.912929     3.904795     3.896662     3.888528     3.880394     3.872261     3.864127
      3.855993     3.847860     3.839726     3.831592     3.823459     3.815325     3.807191     3.799058     3.790924     3.782790
      3.774657     3.766523     3.758389     3.750256     3.742122     3.733989     3.725855     3.717721     3.709588     3.701454
      3.693320     3.685187     3.677053     3.668919     3.660786     3.652652     3.644518     3.636385     3.628251     3.620117
      3.611984     3.603850     3.595716     3.587583     3.579449     3.571316     3.563182     3.555048     3.546915     3.538781
      3.530647     3.522514     3.514380     3.506246     3.498113     3.489979     3.481845     3.473712     3.465578     3.457444
      3.449311     3.441177     3.433043     3.424910     3.416776     3.408643     3.400509     3.392375     3.384242     3.376108
      3.367974     3.359841     3.351707     3.343573     3.335440     3.327306     3.319172     3.311039     3.302905     3.294771
      3.286638     3.278504     3.270370     3.262237     3.254103     3.245970     3.237836     3.229702     3.221569     3.213435
      3.205301     3.197168     3.189034     3.180900     3.172767     3.164633     3.156499     3.148366     3.140232     3.132098
      3.123965     3.115831     3.107697     3.099564     3.091430     3.083297     3.075163     3.067029     3.058896     3.050762
      3.042628     3.034495     3.026361     3.018227     3.010094     3.001960     2.993826     2.985693     2.977559     2.969425
      2.961292     2.953158     2.945024     2.936891     2.928757     2.920624     2.912490     2.904356     2.896223     2.888089
      2.879955     2.871822     2.863688     2.855554     2.847421     2.839287     2.831153     2.823020     2.814886     2.806752
      2.798619     2.790485     2.782351     2.774218     2.766084     2.757951     2.749817     2.741683     2.733550     2.725416
      2.717282     2.709149     2.701015     2.692881     2.684748     2.676614     2.668480     2.660347     2.652213     2.644079
      2.635946     2.627812     2.619678     2.611545     2.603411     2.595278     2.587144     2.579010     2.570877     2.562743
      2.554609     2.546476     2.538342     2.530208     2.522075     2.513941     2.505807     2.497674     2.489540     2.481406
      2.473273     2.465139     2.457006     2.448872     2.440738     2.432605     2.424471     2.416337     2.408204     2.400070
      2.391936     2.383803     2.375669     2.367535     2.359402     2.351268     2.343134     2.335001     2.326867     2.318733
      2.310600     2.302466     2.294333     2.286199     2.278065     2.269932     2.261798     2.253664     2.245531     2.237397
      2.229263     2.221130     2.212996     2.204862     2.196729     2.188595     2.180461     2.172328     2.164194     2.156060
      2.147927     2.139793     2.131660     2.123526     2.115392     2.107259     2.099125     2.090991     2.082858     2.074724
      2.066590     2.058457     2.050323     2.042189     2.034056     2.025922     2.017788     2.009655     2.001521     1.993387
      1.985254     1.977120     1.968987     1.960853     1.952719     1.944586     1.936452     1.928318     1.920185     1.912051
      1.903917     1.895784     1.887650     1.879516     1.871383     1.863249     1.855115     1.846982     1.838848     1.830714
      1.822581     1.814447     1.806314     1.798180     1.790046     1.781913     1.773779     1.765645     1.757512     1.749378
      1.741244     1.733111     1.724977     1.716843     1.708710     1.700576     1.692442     1.684309     1.676175     1.668041
      1.659908     1.651774     1.643641     1.635507     1.627373     1.619240     1.611106     1.602972     1.594839     1.586705
      1.578571     1.570438     1.562304     1.554170     1.546037     1.537903     1.529769     1.521636     1.513502     1.505368
      1.497235     1.489101     1.480968     1.472834     1.464700     1.456567     1.448433     1.440299     1.432166     1.424032
      1.415898     1.407765     1.399631     1.391497     1.383364     1.375230     1.367096     1.358963     1.350829     1.342695
      1.334562     1.326428     1.318295     1.310161     1.302027     1.293894     1.285760     1.277626     1.269493     1.261359
      1.253225     1.245092     1.236958     1.228824     1.220691     1.212557     1.204423     1.196290     1.188156     1.180022
      1.171889     1.163755     1.155622     1.147488     1.139354     1.131221     1.123087     1.114953     1.106820     1.098686
      1.090552     1.082419     1.074285     1.066151     1.058018     1.049884     1.041750     1.033617     1.025483     1.017349
      1.009216     1.001082     0.992949     0.984815     0.976681     0.968548     0.960414     0.952280     0.944147     0.936013
      0.927879     0.919746     0.911612     0.903478     0.895345     0.887211     0.879077     0.870944     0.862810     0.854676
      0.846543     0.838409     0.830276     0.822142     0.814008     0.805875     0.797741     0.789607     0.781474     0.773340
      0.765206     0.757073     0.748939     0.740805     0.732672     0.724538     0.716404     0.708271     0.700137     0.692003
      0.683870     0.675736     0.667603     0.659469     0.651335     0.643202     0.635068     0.626934     0.618801     0.610667
      0.602533     0.594400     0.586266     0.578132     0.569999     0.561865     0.553731     0.545598     0.537464     0.529330
      0.521197     0.513063     0.504930     0.496796     0.488662     0.480529     0.472395     0.464261     0.456128     0.447994
      0.439861     0.431727     0.423593     0.415460     0.407326     0.399192     0.391059     0.382925     0.374792     0.366658
      0.358524     0.350391     0.342257     0.334124     0.325990     0.317856     0.309723     0.301589     0.293455     0.285322
      0.277188     0.269055     0.260921     0.252787     0.244654     0.236520     0.228386     0.220253     0.212119     0.203986
 NY phased data points follow
   2.64795E+01  2.41188E+01  1.05713E+01  2.70585E+00  2.05631E+01  1.57093E+01  1.73037E+01  2.05539E+01  2.55979E+01  3.59443E+01
   1.81519E+01 -2.56937E+00  9.38197E+00  9.29716E+00 -3.46874E+00  1.53745E+01  6.93844E+00 -8.27623E+00 -9.83459E+00 -3.74038E+01
  -3.24262E+01 -1.94207E+01 -5.44104E+00  2.94755E+01  3.37521E+01  4.63858E+01  6.65515E+01  6.81205E+01  7.09387E+01  7.37090E+01
   7.35249E+01  8.08304E+01  8.47236E+01  6.92872E+01  7.58734E+01  7.02438E+01  6.04233E+01  7.09167E+01  5.06547E+01  3.23388E+01
   1.66420E+01  1.95548E+01  1.37832E+01 -1.52895E+00  2.71856E+01  5.50844E+01  8.48799E+01  8.42030E+01  8.73964E+01  9.99399E+01
   8.21338E+01  9.26007E+01  9.07826E+01  8.26573E+01  5.87875E+01  3.96032E+01  6.19032E+01  4.50088E+01  4.08584E+01  5.60741E+01
   4.03370E+01  4.12564E+01  5.54932E+01  6.65003E+01  7.13575E+01  8.08033E+01  1.01020E+02  7.64093E+01  3.50419E+01  3.30030E+01
   3.17265E+01  3.59591E+01  4.98981E+01  5.43947E+01  7.08968E+01  8.61463E+01  8.77130E+01  9.59276E+01  9.67952E+01  9.01096E+01
   9.41290E+01  8.90337E+01  6.70878E+01  5.32609E+01  4.93579E+01  4.34840E+01  4.11724E+01  6.01268E+01  8.31266E+01  7.28069E+01
   8.36637E+01  1.12536E+02  1.09235E+02  1.07071E+02  1.10858E+02  1.12092E+02  1.16811E+02  1.22797E+02  1.11542E+02  1.19476E+02
   1.20466E+02  9.75161E+01  1.00926E+02  8.57788E+01  6.60438E+01  6.76882E+01  6.39371E+01  4.60376E+01  3.86662E+01 -1.50765E+01
  -6.73511E+01 -6.17111E+01 -6.83380E+01 -2.84243E+01 -1.83510E+01 -1.08295E+01  3.40537E+01  3.42850E+01  2.98507E+01  3.99362E+01
   4.55199E+01  3.65029E+01  6.42751E+01  6.07650E+01  7.26814E+01  8.76403E+01  7.77421E+01  1.16230E+02  1.09127E+02  1.51436E+02
   1.83925E+02  1.37892E+02  9.56811E+01  1.95385E+01 -3.03637E+01 -2.87795E+01 -3.19265E+01 -2.69366E+01 -6.04815E+00 -9.45757E+00
  -6.48436E+00 -8.35245E+00 -1.98694E+01 -1.07407E+01  3.88826E+00 -1.08012E+01 -1.79055E+01  7.85406E+00  7.95593E-01  1.22106E+01
   1.84356E+01  5.86612E+00  5.90778E+00  2.61657E+00  1.90544E+01  1.79189E+01  1.00281E+01  2.30451E+01  2.83776E+01  3.26190E+01
   3.23101E+01  2.50820E+01  3.31105E+01  2.87484E+01  3.39699E+01  2.27705E+01  1.92734E+01  2.25783E+01  1.35822E+01  4.20780E+01
   1.99708E+01  5.60511E+01  8.22859E+01  4.93627E+01  5.66291E+01  4.42737E+01  5.98142E+01  5.68644E+01  5.53967E+01  4.31816E+01
   3.03019E+01  2.49776E+01  1.34117E+01  2.20905E+01  7.71908E+00  1.07302E+01  7.69339E+00  1.86276E+01  1.00855E+01  1.75884E+01
   3.48205E+01  1.89512E+01  3.33886E+01  2.19825E+01  3.10064E+01  4.07047E+01  3.17974E+01  4.17771E+01  5.51892E+01  5.29943E+01
   5.03840E+01  5.73823E+01  6.07797E+01  5.90251E+01  3.42868E+01  3.72028E+01  3.58025E+01  2.53989E+01  5.77734E+00  4.27990E+00
   8.77022E+00 -7.94761E+00  1.61659E+01  2.05871E+00  2.24859E+01  6.99806E+01  7.15128E+01  8.07377E+01  7.39007E+01  7.09666E+01
   5.20946E+01  2.99494E+01  5.15096E+01  4.92366E+01  3.44928E+01  4.85507E+01  4.04687E+01  4.96420E+01  4.85232E+01  4.12239E+01
   5.31797E+01  3.60200E+01  4.53086E+01  3.74102E+01  1.69479E+01  1.33382E+01  1.71322E+00 -2.93461E+00 -1.29288E+00  4.70971E+00
  -7.37093E+00 -3.89152E+00  1.69659E+01  1.70360E+01  1.93839E+01  4.01934E+01  4.04964E+01  2.47480E+01  2.30481E+01  1.80737E+01
   4.34652E+00  4.69927E+00  5.13179E-01 -3.78547E+00 -1.41097E+01 -6.93427E+01 -4.06213E+01  4.79542E+01  1.04810E+02  1.57847E+02
   1.79224E+02  1.88365E+02  1.64292E+02  1.47062E+02  1.34306E+02  1.14035E+02  1.29156E+02  1.11683E+02  1.00838E+02  1.10982E+02
   1.00867E+02  9.91063E+01  1.05399E+02  1.20246E+02  1.21327E+02  1.07144E+02  1.12864E+02  1.25179E+02  1.27536E+02  1.17368E+02
   1.11238E+02  1.08159E+02  1.00560E+02  1.04900E+02  1.05378E+02  1.06259E+02  9.65615E+01  7.84756E+01  8.81980E+01  9.19113E+01
   8.44018E+01  8.73495E+01  7.60466E+01  7.74093E+01  7.30478E+01  5.30471E+01  4.85800E+01  3.47090E+01  4.30540E+01  3.39523E+01
   3.63136E+01  5.14795E+01  3.28859E+01  4.76519E+01  3.84562E+01  4.03030E+01  4.94839E+01  4.10718E+01  5.85853E+01  6.64611E+01
   6.88387E+01  7.36837E+01  8.13599E+01  5.91144E+01  5.79518E+01  6.75965E+01  6.14662E+01  6.77005E+01  6.52051E+01  8.38814E+01
   9.46008E+01  9.75052E+01  1.01554E+02  1.02873E+02  1.04794E+02  1.07696E+02  1.11387E+02  1.11109E+02  1.27579E+02  1.25541E+02
   1.14758E+02  1.03841E+02  1.02660E+02  1.22413E+02  1.12375E+02  1.07480E+02  1.36259E+02  1.41614E+02  1.39534E+02  1.33884E+02
   1.07466E+02  1.03513E+02  1.06376E+02  1.16767E+02  1.10662E+02  1.01911E+02  1.13258E+02  1.11796E+02  1.18242E+02  1.12595E+02
   1.14830E+02  1.06795E+02  9.32921E+01  9.85005E+01  8.00312E+01  6.29785E+01  5.05214E+01  4.60458E+01  4.40694E+01  2.77863E+01
   1.41659E+01  1.12903E+01  4.70541E+00  1.26232E+01  2.88286E+01  3.18094E+01  4.44080E+01  5.05076E+01  6.10181E+01  7.43775E+01
   6.29830E+01  4.92723E+01  6.51634E+01  7.21856E+01  7.52780E+01  8.27655E+01  6.64277E+01  8.19478E+01  8.49649E+01  8.55467E+01
   9.59661E+01  9.33709E+01  1.16266E+02  1.18312E+02  1.20015E+02  1.17760E+02  1.24157E+02  1.48169E+02  1.38585E+02  1.32105E+02
   1.35561E+02  1.32730E+02  1.09397E+02  9.28794E+01  1.00383E+02  8.58771E+01  7.83164E+01  7.34223E+01  5.30833E+01  5.43178E+01
   4.25087E+01  3.53425E+01  2.45636E+01  1.32395E+01  2.89195E+01  5.44118E+00  3.81035E+00  1.08353E+00 -7.43750E+00  2.11686E+01
   6.05000E+00  7.00057E+00  2.56166E+01  1.03311E+01  3.23240E+00  1.79534E+01  1.81452E+01  1.03840E+01  1.98369E+01  1.49893E+01
   1.91794E+01  2.48031E+01  8.30439E+00  1.97216E+01  2.24512E+01 -4.37449E-01  1.21331E+01  1.73045E+01  1.53205E+01  1.95226E+01
   8.89665E+00  1.73795E+01  2.35171E+01  1.72904E+01  8.61322E+00  9.08812E+00  7.62065E+00  1.72710E+00  7.38750E+00  1.21488E+01
   2.70911E+01  3.24794E+01  2.21540E+01  2.20269E+01  2.55361E+01  1.54991E+01  1.47862E+01  2.21391E+01  2.23767E+01  1.57738E+01
   6.68757E+00  1.02103E+01  1.41116E+01  1.93571E+01  1.73667E+01  1.90701E+01  1.45583E+01  2.33787E+01  3.04477E+01  1.28914E+01
   2.66687E+01  1.98980E+01  2.40038E+01  2.96069E+01  1.41343E+01  3.13721E+01  2.00022E+01  6.15404E+00  2.29992E+01  2.86434E+01
   1.77832E+01  1.96296E+01  2.84796E+01  3.06976E+01  2.90494E+01  1.78494E+01  1.87509E+01  2.68124E+01  2.33706E+01  2.08542E+01
 NY points of the fit to the data follow
   2.02876E+01  1.60617E+01  9.69189E+00  5.04383E+00  8.66125E+00  1.96813E+01  3.03507E+01  3.45931E+01  3.26268E+01  2.59971E+01
   1.72745E+01  1.00759E+01  5.70005E+00  3.59510E+00  4.59649E+00  8.20340E+00  8.02339E+00  6.07918E+00 -7.24598E+00 -2.64064E+01
  -2.63647E+01 -1.53325E+01  8.02605E-01  2.63400E+01  4.89364E+01  6.41892E+01  7.19739E+01  7.81437E+01  8.20174E+01  8.20532E+01
   8.20792E+01  8.13440E+01  7.95366E+01  7.74054E+01  7.52001E+01  7.39203E+01  7.10708E+01  6.53112E+01  5.36527E+01  3.51658E+01
   1.81192E+01  9.68219E+00  1.08081E+01  1.99747E+01  3.55002E+01  5.27685E+01  6.61176E+01  7.54653E+01  8.08175E+01  8.26577E+01
   8.23060E+01  7.89885E+01  7.14007E+01  6.24909E+01  5.43300E+01  4.87812E+01  4.94502E+01  4.53022E+01  3.67255E+01  3.64021E+01
   3.78740E+01  4.02493E+01  4.92786E+01  6.26024E+01  7.59182E+01  8.37639E+01  8.63029E+01  7.78927E+01  5.75605E+01  4.26201E+01
   3.75547E+01  3.63824E+01  4.11691E+01  5.21675E+01  6.49324E+01  7.55150E+01  8.44615E+01  9.10373E+01  9.68900E+01  9.63708E+01
   9.20142E+01  8.07864E+01  6.24069E+01  4.59167E+01  3.48582E+01  3.28998E+01  4.15937E+01  5.33044E+01  6.63002E+01  7.53503E+01
   8.23992E+01  8.69985E+01  9.07794E+01  9.45114E+01  9.87043E+01  1.02167E+02  1.06103E+02  1.09621E+02  1.11007E+02  1.13837E+02
   1.19473E+02  1.14882E+02  1.07323E+02  9.46150E+01  7.95576E+01  7.13150E+01  6.75378E+01  6.50658E+01  3.84115E+01 -1.28057E+01
  -4.94546E+01 -6.33283E+01 -5.47724E+01 -3.44483E+01 -1.18924E+01  5.83094E+00  1.49407E+01  2.22028E+01  2.86854E+01  3.46702E+01
   4.03546E+01  4.61105E+01  5.23093E+01  5.94250E+01  6.73487E+01  7.51535E+01  8.28036E+01  1.01750E+02  1.24488E+02  1.60505E+02
   1.88017E+02  1.57159E+02  8.72092E+01  2.29197E+01 -1.99127E+01 -3.52696E+01 -3.27692E+01 -1.92625E+01 -1.11196E+01 -7.94669E+00
  -5.62148E+00 -4.32256E+00 -3.66643E+00 -3.10216E+00 -2.66268E+00 -1.63919E+00  1.65893E-01  2.48496E+00  4.81719E+00  6.90625E+00
   8.61982E+00  1.00781E+01  1.17787E+01  1.41112E+01  1.71450E+01  1.99959E+01  2.13950E+01  2.14763E+01  2.16330E+01  2.31560E+01
   2.62947E+01  2.85297E+01  2.81035E+01  2.61989E+01  2.46949E+01  2.43429E+01  2.37033E+01  2.24106E+01  2.24231E+01  2.58642E+01
   3.51429E+01  4.74908E+01  5.38949E+01  5.24210E+01  5.01368E+01  5.13573E+01  5.68618E+01  5.98602E+01  5.55738E+01  4.68890E+01
   3.65505E+01  2.74557E+01  2.16947E+01  1.87148E+01  1.77320E+01  1.70311E+01  1.66482E+01  1.70870E+01  1.73223E+01  1.74786E+01
   1.94534E+01  2.00364E+01  2.25256E+01  3.07112E+01  3.63103E+01  3.93073E+01  4.26438E+01  4.57930E+01  4.88456E+01  4.82049E+01
   4.71405E+01  4.84230E+01  4.95217E+01  4.93374E+01  4.68300E+01  4.30979E+01  3.78316E+01  3.11902E+01  2.43886E+01  1.88134E+01
   1.10652E+01  6.77086E+00  9.11092E+00  1.50647E+01  3.29777E+01  5.39452E+01  7.02652E+01  8.37538E+01  8.62258E+01  8.12331E+01
   7.31518E+01  6.61904E+01  6.40328E+01  6.31795E+01  6.40848E+01  6.37039E+01  6.05959E+01  5.54547E+01  4.81901E+01  4.03051E+01
   3.16328E+01  2.28172E+01  1.55195E+01  8.17242E+00  2.25262E+00 -7.05093E-01 -3.22518E+00 -3.45373E+00 -9.54558E-01  1.83454E-01
   3.25267E+00  7.14653E+00  1.15876E+01  1.78951E+01  2.24200E+01  2.59273E+01  2.79182E+01  2.58488E+01  2.27739E+01  1.62144E+01
   9.50195E+00  5.06351E+00 -4.01129E+00 -6.71777E+00 -2.96256E+01 -6.24556E+01 -4.13010E+01  2.55936E+01  9.39235E+01  1.42582E+02
   1.62879E+02  1.62021E+02  1.45475E+02  1.33485E+02  1.27650E+02  1.22595E+02  1.17998E+02  1.13213E+02  1.08843E+02  1.05677E+02
   1.03227E+02  1.02288E+02  1.02401E+02  1.02919E+02  1.03928E+02  1.04638E+02  1.05306E+02  1.05519E+02  1.05265E+02  1.04624E+02
   1.03439E+02  1.02213E+02  1.00898E+02  9.94626E+01  9.80713E+01  9.66662E+01  9.51942E+01  9.36446E+01  9.17739E+01  8.96488E+01
   8.72863E+01  8.46479E+01  8.20018E+01  7.97588E+01  7.82876E+01  7.77621E+01  7.81664E+01  7.92392E+01  8.05946E+01  8.21850E+01
   8.39233E+01  8.57161E+01  8.74306E+01  8.89993E+01  9.04115E+01  9.16687E+01  9.31019E+01  9.47129E+01  9.63553E+01  9.79415E+01
   9.92960E+01  1.00482E+02  1.01685E+02  1.02678E+02  1.03425E+02  1.03933E+02  1.04086E+02  1.03635E+02  1.02845E+02  1.01814E+02
   1.00360E+02  9.86954E+01  9.69218E+01  9.49159E+01  9.25067E+01  8.91542E+01  8.46791E+01  7.92967E+01  7.36401E+01  6.81602E+01
   6.33651E+01  5.98830E+01  5.79951E+01  5.80597E+01  5.98950E+01  6.28652E+01  6.69386E+01  7.16976E+01  7.63021E+01  8.14539E+01
   8.17227E+01  7.76292E+01  7.10048E+01  6.22767E+01  5.66610E+01  5.59707E+01  5.83410E+01  6.23977E+01  6.52929E+01  6.73833E+01
   6.72444E+01  6.60560E+01  6.38084E+01  6.09809E+01  5.83694E+01  5.63040E+01  5.51112E+01  5.49111E+01  5.54454E+01  5.66918E+01
   5.83010E+01  6.02193E+01  6.23233E+01  6.43316E+01  6.62417E+01  6.79470E+01  6.94433E+01  7.09689E+01  7.24710E+01  7.39577E+01
   7.53999E+01  7.68743E+01  7.83356E+01  8.00626E+01  8.21759E+01  8.44277E+01  8.69944E+01  9.00653E+01  9.34086E+01  9.69325E+01
   1.00866E+02  1.05341E+02  1.10042E+02  1.14823E+02  1.18988E+02  1.21624E+02  1.21782E+02  1.18927E+02  1.13376E+02  1.06291E+02
   9.90231E+01  9.24463E+01  8.69377E+01  8.25105E+01  7.84190E+01  7.38064E+01  6.85335E+01  6.26296E+01  5.63634E+01  5.03951E+01
   4.52683E+01  4.11403E+01  3.78802E+01  3.54345E+01  3.37186E+01  3.23924E+01  3.13227E+01  3.02699E+01  2.92637E+01  2.82845E+01
   2.75205E+01  2.69799E+01  2.65546E+01  2.61766E+01  2.58727E+01  2.56142E+01  2.51987E+01  2.47141E+01  2.44813E+01  2.43386E+01
   2.41143E+01  2.38360E+01  2.36013E+01  2.33712E+01  2.30650E+01  2.27006E+01  2.24359E+01  2.23334E+01  2.22699E+01  2.22036E+01
   2.20066E+01  2.17106E+01  2.13246E+01  2.09866E+01  2.07948E+01  2.06778E+01  2.06433E+01  2.06310E+01  2.05646E+01  2.04556E+01
   2.03435E+01  2.02008E+01  1.98989E+01  1.95823E+01  1.92617E+01  1.90735E+01  1.89754E+01  1.88879E+01  1.88608E+01  1.87045E+01
   1.84681E+01  1.83032E+01  1.82095E+01  1.81639E+01  1.81586E+01  1.81267E+01  1.80680E+01  1.79888E+01  1.79166E+01  1.78635E+01
   1.77417E+01  1.75008E+01  1.72906E+01  1.70603E+01  1.69189E+01  1.69007E+01  1.70726E+01  1.72866E+01  1.73830E+01  1.73090E+01
   1.70581E+01  1.67553E+01  1.66019E+01  1.64876E+01  1.64563E+01  1.64954E+01  1.65545E+01  1.64054E+01  1.62981E+01  1.62577E+01
 NY background values follow
     4.286E+01    4.305E+01    4.324E+01    4.343E+01    4.363E+01    4.382E+01    4.401E+01    4.420E+01    4.440E+01    4.459E+01
     4.478E+01    4.498E+01    4.517E+01    4.536E+01    4.556E+01    4.575E+01    4.594E+01    4.614E+01    4.633E+01    4.652E+01
     4.671E+01    4.691E+01    4.710E+01    4.729E+01    4.748E+01    4.767E+01    4.786E+01    4.805E+01    4.824E+01    4.843E+01
     4.861E+01    4.880E+01    4.899E+01    4.917E+01    4.935E+01    4.954E+01    4.972E+01    4.990E+01    5.008E+01    5.026E+01
     5.043E+01    5.061E+01    5.078E+01    5.095E+01    5.112E+01    5.129E+01    5.145E+01    5.161E+01    5.177E+01    5.193E+01
     5.208E+01    5.223E+01    5.238E+01    5.252E+01    5.266E+01    5.280E+01    5.294E+01    5.307E+01    5.320E+01    5.332E+01
     5.344E+01    5.356E+01    5.367E+01    5.378E+01    5.388E+01    5.398E+01    5.408E+01    5.417E+01    5.426E+01    5.434E+01
     5.442E+01    5.450E+01    5.457E+01    5.464E+01    5.471E+01    5.477E+01    5.483E+01    5.488E+01    5.493E+01    5.497E+01
     5.502E+01    5.505E+01    5.509E+01    5.512E+01    5.514E+01    5.517E+01    5.519E+01    5.520E+01    5.521E+01    5.522E+01
     5.522E+01    5.522E+01    5.522E+01    5.521E+01    5.520E+01    5.518E+01    5.516E+01    5.514E+01    5.512E+01    5.509E+01
     5.506E+01    5.503E+01    5.499E+01    5.495E+01    5.491E+01    5.487E+01    5.482E+01    5.478E+01    5.473E+01    5.468E+01
     5.462E+01    5.457E+01    5.451E+01    5.445E+01    5.439E+01    5.433E+01    5.427E+01    5.420E+01    5.414E+01    5.407E+01
     5.401E+01    5.394E+01    5.387E+01    5.380E+01    5.374E+01    5.367E+01    5.360E+01    5.352E+01    5.345E+01    5.338E+01
     5.331E+01    5.324E+01    5.317E+01    5.310E+01    5.302E+01    5.295E+01    5.288E+01    5.281E+01    5.274E+01    5.267E+01
     5.260E+01    5.252E+01    5.245E+01    5.238E+01    5.232E+01    5.225E+01    5.218E+01    5.211E+01    5.205E+01    5.198E+01
     5.192E+01    5.185E+01    5.179E+01    5.173E+01    5.167E+01    5.161E+01    5.155E+01    5.149E+01    5.143E+01    5.138E+01
     5.132E+01    5.127E+01    5.121E+01    5.116E+01    5.111E+01    5.106E+01    5.102E+01    5.097E+01    5.093E+01    5.088E+01
     5.084E+01    5.080E+01    5.076E+01    5.072E+01    5.068E+01    5.065E+01    5.062E+01    5.058E+01    5.055E+01    5.052E+01
     5.050E+01    5.047E+01    5.045E+01    5.042E+01    5.040E+01    5.038E+01    5.037E+01    5.035E+01    5.034E+01    5.033E+01
     5.032E+01    5.031E+01    5.030E+01    5.030E+01    5.030E+01    5.030E+01    5.030E+01    5.031E+01    5.032E+01    5.033E+01
     5.034E+01    5.035E+01    5.037E+01    5.039E+01    5.041E+01    5.044E+01    5.046E+01    5.049E+01    5.053E+01    5.056E+01
     5.060E+01    5.064E+01    5.069E+01    5.073E+01    5.078E+01    5.083E+01    5.088E+01    5.094E+01    5.100E+01    5.106E+01
     5.112E+01    5.118E+01    5.125E+01    5.131E+01    5.138E+01    5.145E+01    5.152E+01    5.159E+01    5.167E+01    5.174E+01
     5.181E+01    5.189E+01    5.197E+01    5.204E+01    5.212E+01    5.220E+01    5.228E+01    5.236E+01    5.244E+01    5.252E+01
     5.260E+01    5.268E+01    5.275E+01    5.283E+01    5.291E+01    5.299E+01    5.307E+01    5.315E+01    5.322E+01    5.330E+01
     5.338E+01    5.345E+01    5.353E+01    5.360E+01    5.367E+01    5.375E+01    5.382E+01    5.389E+01    5.396E+01    5.403E+01
     5.409E+01    5.416E+01    5.423E+01    5.429E+01    5.435E+01    5.441E+01    5.447E+01    5.453E+01    5.459E+01    5.465E+01
     5.470E+01    5.475E+01    5.480E+01    5.485E+01    5.490E+01    5.495E+01    5.500E+01    5.505E+01    5.510E+01    5.515E+01
     5.520E+01    5.525E+01    5.530E+01    5.535E+01    5.541E+01    5.546E+01    5.552E+01    5.558E+01    5.564E+01    5.571E+01
     5.578E+01    5.585E+01    5.592E+01    5.600E+01    5.608E+01    5.617E+01    5.626E+01    5.636E+01    5.646E+01    5.656E+01
     5.667E+01    5.679E+01    5.691E+01    5.703E+01    5.716E+01    5.729E+01    5.742E+01    5.755E+01    5.768E+01    5.782E+01
     5.795E+01    5.809E+01    5.822E+01    5.835E+01    5.848E+01    5.860E+01    5.872E+01    5.884E+01    5.895E+01    5.906E+01
     5.916E+01    5.925E+01    5.934E+01    5.942E+01    5.949E+01    5.955E+01    5.960E+01    5.964E+01    5.968E+01    5.970E+01
     5.971E+01    5.970E+01    5.969E+01    5.966E+01    5.963E+01    5.958E+01    5.952E+01    5.945E+01    5.936E+01    5.927E+01
     5.917E+01    5.905E+01    5.893E+01    5.879E+01    5.864E+01    5.849E+01    5.832E+01    5.815E+01    5.796E+01    5.776E+01
     5.756E+01    5.734E+01    5.712E+01    5.688E+01    5.664E+01    5.639E+01    5.613E+01    5.585E+01    5.558E+01    5.529E+01
     5.499E+01    5.469E+01    5.437E+01    5.405E+01    5.372E+01    5.339E+01    5.305E+01    5.270E+01    5.234E+01    5.198E+01
     5.161E+01    5.124E+01    5.086E+01    5.047E+01    5.008E+01    4.969E+01    4.929E+01    4.889E+01    4.848E+01    4.807E+01
     4.766E+01    4.724E+01    4.682E+01    4.640E+01    4.597E+01    4.554E+01    4.511E+01    4.468E+01    4.425E+01    4.382E+01
     4.338E+01    4.295E+01    4.251E+01    4.208E+01    4.164E+01    4.121E+01    4.077E+01    4.034E+01    3.990E+01    3.947E+01
     3.904E+01    3.861E+01    3.817E+01    3.775E+01    3.732E+01    3.689E+01    3.647E+01    3.605E+01    3.563E+01    3.521E+01
     3.480E+01    3.439E+01    3.398E+01    3.357E+01    3.317E+01    3.277E+01    3.238E+01    3.198E+01    3.160E+01    3.122E+01
     3.084E+01    3.046E+01    3.009E+01    2.973E+01    2.936E+01    2.901E+01    2.865E+01    2.830E+01    2.796E+01    2.762E+01
     2.728E+01    2.694E+01    2.661E+01    2.628E+01    2.596E+01    2.564E+01    2.532E+01    2.500E+01    2.469E+01    2.438E+01
     2.408E+01    2.378E+01    2.348E+01    2.318E+01    2.289E+01    2.260E+01    2.231E+01    2.202E+01    2.174E+01    2.145E+01
     2.118E+01    2.090E+01    2.062E+01    2.035E+01    2.008E+01    1.981E+01    1.954E+01    1.928E+01    1.901E+01    1.875E+01
     1.849E+01    1.823E+01    1.797E+01    1.771E+01    1.746E+01    1.720E+01    1.695E+01    1.669E+01    1.644E+01    1.618E+01
     1.593E+01    1.568E+01    1.543E+01    1.518E+01    1.492E+01    1.467E+01    1.442E+01    1.417E+01    1.392E+01    1.366E+01
 Mac      Conc. = 1.71E-04
   3.05367E+01  3.05816E+01  3.07118E+01  3.07407E+01  3.05425E+01  2.99245E+01  2.90657E+01  2.80310E+01  2.72041E+01  2.67865E+01
   2.67633E+01  2.70497E+01  2.71121E+01  2.65921E+01  2.54933E+01  2.43247E+01  2.45830E+01  2.64555E+01  2.90456E+01  3.20399E+01
   3.49788E+01  3.73419E+01  3.88591E+01  3.98570E+01  4.07657E+01  4.16492E+01  4.27416E+01  4.41289E+01  4.55798E+01  4.68670E+01
   4.79357E+01  4.87941E+01  4.91888E+01  4.91643E+01  4.90041E+01  4.92553E+01  5.02878E+01  5.19115E+01  5.33997E+01  5.41547E+01
   5.44420E+01  5.45903E+01  5.50929E+01  5.60176E+01  5.70236E+01  5.77490E+01  5.79793E+01  5.77976E+01  5.71642E+01  5.63752E+01
   5.57603E+01  5.51886E+01  5.47541E+01  5.44664E+01  5.43170E+01  5.45000E+01  5.51529E+01  5.60235E+01  5.69192E+01  5.80667E+01
   5.91049E+01  5.97867E+01  6.00130E+01  5.98004E+01  5.93151E+01  5.88030E+01  5.83661E+01  5.79733E+01  5.77652E+01  5.82526E+01
   5.95045E+01  6.10422E+01  6.25416E+01  6.37447E+01  6.43388E+01  6.44474E+01  6.41574E+01  6.36649E+01  6.31726E+01  6.27218E+01
   6.23170E+01  6.21320E+01  6.22306E+01  6.26118E+01  6.31197E+01  6.36730E+01  6.42425E+01  6.46930E+01  6.50166E+01  6.54013E+01
   6.56765E+01  6.59225E+01  6.60908E+01  6.59521E+01  6.53041E+01  6.41942E+01  6.27009E+01  6.10762E+01  5.96750E+01  5.85914E+01
   5.75003E+01  5.63389E+01  5.48201E+01  5.25940E+01  4.93935E+01  4.51353E+01  4.07870E+01  3.72520E+01  3.52055E+01  3.48371E+01
