 
 $NMID
 ID=''
 FMTDAT='(2E13.5)'
 TRAMP=   1.00000E+0
 VOLUME=   1.00000E+0
 $END
  -1.93738E+4   1.17026E+4
  -8.28096E+3   3.89798E+2
  -4.98249E+3   7.80860E+3
   8.93104E+3   1.16353E+4
   1.32171E+4  -1.61459E+3
   3.95335E+3  -1.47462E+4
  -7.31918E+3  -1.08499E+4
  -1.14797E+4   3.50019E+3
  -1.83375E+3   1.39646E+4
   1.19918E+4   9.87070E+3
   9.49454E+3  -4.25625E+3
  -2.88290E+3  -1.13817E+4
  -7.92838E+3  -3.15977E+3
  -6.77090E+3   7.97229E+3
  -7.23805E+2   7.58669E+3
   8.09224E+3  -1.21098E+3
   7.00748E+3  -6.53521E+3
  -3.89954E+3  -4.28470E+3
  -8.38046E+3  -2.83087E+2
  -2.11099E+3   4.27666E+3
   4.65280E+3   4.89063E+3
   6.18286E+3  -1.04924E+3
   2.11726E+3  -5.53867E+3
  -4.39413E+3  -2.53862E+3
  -5.08009E+3   2.47006E+3
   5.91680E+2   4.26846E+3
   4.65338E+3   3.35405E+3
   2.35165E+3  -1.25373E+3
  -1.88401E+3  -4.55447E+3
  -3.46900E+3  -1.95248E+3
  -1.92784E+3   2.91266E+3
   1.10505E+3   3.90156E+3
   2.48718E+3   1.22886E+3
   5.26904E+2  -3.18338E+3
  -9.91438E+2  -4.58942E+3
  -1.68369E+2  -4.97964E+2
  -3.07554E+2   4.09175E+3
  -9.34636E+1   2.62246E+3
   1.99221E+3  -1.23943E+3
   1.25366E+3  -1.98706E+3
  -2.36982E+3  -5.01687E+2
  -2.41967E+3  -4.11286E+2
   1.08041E+3   4.99972E+2
   2.66170E+3   1.59132E+3
   8.46117E+2   1.60370E+2
  -7.55997E+2  -7.16517E+2
  -1.37854E+3   4.17985E+2
  -1.69061E+3   1.07421E+3
  -5.27411E+2  -4.26037E+1
   1.38351E+3  -9.21850E+2
   1.04274E+3  -8.57056E+2
  -3.12955E+2  -4.53467E+2
  -5.09892E+2   1.91861E+2
   2.40941E+2   1.16705E+3
   1.17310E+3   9.29382E+2
   3.05140E+2  -6.22899E+1
  -1.04346E+3  -1.21765E+3
  -8.95437E+2  -1.03693E+3
   5.45072E+2   6.71502E+2
   9.60818E+2   1.84371E+3
   5.65064E+2   1.02764E+3
   1.26112E+2  -3.73867E+1
  -3.58530E+2  -1.48480E+2
  -1.88831E+3   8.65001E+0
  -1.76493E+3  -4.56779E+1
   3.69059E+2  -4.56143E+2
   1.80452E+3  -5.54797E+2
   1.58985E+3  -2.71237E+2
   4.47401E+0   2.62376E+2
  -9.51130E+2   2.73252E+2
  -3.13657E+2   2.36764E+2
   1.25661E+3   5.74680E+2
   1.31065E+3   8.43455E+2
  -2.86383E+2   1.05951E+2
  -1.08591E+3  -6.01270E+2
  -3.83604E+2  -9.09435E+1
  -9.43639E+1   7.78552E+2
   2.49449E+2   6.34516E+2
   1.83587E+2  -3.18584E+2
   7.75679E+1  -5.27198E+2
  -4.45866E+1  -7.93357E+2
  -1.04904E+2  -3.13510E+1
   3.44770E+2   4.40709E+2
   7.26604E+2   4.49818E+2
   6.80210E+2  -5.41250E+2
   4.13627E+2  -3.78299E+2
   9.97325E+1   3.46972E+2
  -2.86745E+2   4.17305E+2
   2.39249E+2   4.16728E+0
   4.62666E+2  -5.08491E+1
   1.68448E+2  -9.84738E+0
  -7.61338E+2   8.97228E+1
  -8.01166E+2  -2.93806E+1
  -3.55271E+2  -5.77841E+2
   9.98200E+2  -5.74282E+2
   9.10971E+2  -1.00608E+2
   1.01242E+2  -7.63702E+1
  -6.72277E+2  -1.25625E+2
   2.20180E+2  -4.48686E+1
   4.41687E+2   7.73426E+2
   6.34530E+1   2.29179E+2
  -7.62783E+2  -5.39538E+2
  -3.16659E+2  -1.01614E+3
   3.65164E+2  -2.77101E+2
   2.41996E+2   7.19939E+2
  -1.07709E+1   4.13966E+2
  -3.64295E+2  -2.33342E+2
  -2.25759E+2  -1.15406E+3
   1.25343E+2  -9.48855E+2
   2.85792E+2   4.09741E+2
   2.80861E+2   9.10999E+2
  -3.84320E+2   2.94716E+2
  -2.72330E+2  -5.20233E+2
  -1.24922E+2  -3.35454E+2
  -3.46338E+2  -4.27798E+2
  -3.74183E+2  -2.88242E+2
  -6.56913E+1  -2.66037E+2
   5.88035E+2  -6.58493E+2
   8.68769E+2  -2.49636E+2
   2.76217E+2   4.51185E+2
  -4.52989E+2   3.95903E+2
  -2.39189E+2   3.82747E+1
  -1.37270E+2   1.78326E+2
   1.47216E+2  -6.19393E+1
  -2.95477E+2  -4.00682E+2
  -1.46985E+2  -4.82114E+2
   3.17914E+2  -4.37972E+1
   2.96597E+2   4.29172E+2
  -9.19360E+1   1.51444E+2
  -4.59915E+2  -2.04971E+2
  -2.37176E+2  -3.89798E+2
   3.46213E+2  -3.42071E+2
   3.70304E+2   2.40589E+2
   5.90058E+1   9.39110E+1
   4.96907E+2  -3.22373E+2
   3.79617E+2  -1.43239E+2
   7.15749E+0   1.42333E+2
  -2.43936E+2   1.12111E+1
  -4.01102E+2  -2.10002E+2
  -8.63411E+1  -4.03940E+2
   3.41211E+2  -4.42585E+2
   3.98265E+2   3.06414E+2
  -4.73659E+1   4.87409E+2
  -5.36747E+2   3.02060E+2
  -2.33307E+2  -4.11029E+2
   3.37807E+2  -8.05806E+2
   1.53936E+2  -4.72992E+2
   2.39512E+1   9.82765E+1
   1.16472E+2  -2.55905E+2
   1.11819E+2  -2.69138E+2
   3.75054E+2   1.69966E+2
   1.32130E+2   3.63571E+2
  -4.92772E+2   2.99798E+2
  -3.23662E+2  -5.95122E+1
   1.14806E+2  -8.85112E+1
   3.74953E+2   1.88311E+2
  -2.76473E+2   8.39183E+1
  -2.20865E+2  -1.57005E+2
   8.92761E+0  -4.33144E+2
  -1.48277E+2  -1.20772E+2
  -2.85151E+2  -2.62224E+2
   1.12355E+2  -6.73969E+1
   2.64662E+2  -3.36971E+1
   1.66646E+2  -1.82349E+1
   3.53752E+2   2.16043E+1
  -1.35260E+2   3.33449E+2
  -5.81552E+2   2.35238E+1
   4.05148E+0  -1.28789E+2
   1.98562E+2  -2.06106E+2
   1.59195E+2  -2.48888E+1
  -1.60735E+2   2.38732E+2
  -1.57376E+2  -4.69737E+1
  -4.30057E+1   4.93404E+1
   3.68993E+2   1.07941E+2
   1.21562E+1   3.78427E+2
  -3.02352E+2  -2.55094E+1
  -1.83631E+2  -4.37333E+2
   2.24647E+2  -2.87202E+2
   1.63723E+2   5.13909E+2
  -4.74779E+1   4.72809E+2
  -3.68757E+2   2.90951E+1
  -3.47515E+1  -3.50892E+2
   1.51868E+2  -2.71265E+1
   2.31136E+2   9.03157E+1
   1.76760E+2   2.57570E+1
  -3.75926E+1   1.73202E+0
   8.15885E+1   5.88142E+1
   1.34846E+2   3.87562E+2
  -1.83653E+2   2.48128E+2
  -3.77035E+2   2.92766E+2
  -1.47017E+2  -3.30732E+2
   1.91053E+2  -6.50050E+2
   1.27778E+2   3.28928E+1
   9.48999E+1   1.76374E+2
  -1.76255E+2   2.39512E+2
   8.72819E+0  -2.04784E+2
   1.25071E+2  -1.05769E+2
   3.91306E+1  -7.41296E+1
  -2.58971E+2  -2.25491E+2
   9.80793E+1  -1.10459E+2
   1.88135E+2  -1.47915E+2
   2.98575E+2   1.61996E+2
   1.42751E+2   1.41836E+2
  -2.16698E+2   4.17420E+2
   6.07661E+1  -3.46069E+2
   1.06568E+2  -2.63868E+2
  -6.80143E+1   7.57648E+1
  -1.23837E+1   3.99248E+1
  -3.18216E+1   9.66439E+1
  -7.18345E+1  -1.10645E+2
   5.62288E+1   2.24915E+2
  -9.59811E+1  -1.12347E+1
  -3.04064E+2  -3.31861E+1
  -2.64016E+2  -3.73632E+2
   2.02600E+2  -3.60634E+2
   3.21368E+2  -3.85716E+1
  -1.36417E+2   1.76526E+2
  -4.18545E+2  -1.42625E+1
   1.43607E+2  -4.26690E+1
  -2.39889E+1   8.58366E+1
  -4.08170E+1   1.76620E+2
  -9.12486E+1  -3.29499E+1
  -3.13925E+2  -1.43732E+2
   2.45935E+2   5.58901E+1
   2.77733E+2   2.00179E+1
  -1.58741E+2   3.52754E+2
  -2.07213E+2   1.52041E+2
  -3.33139E+2  -1.32825E+2
   3.78770E+0  -1.57400E+2
   4.76529E+1  -1.86157E+2
   2.96981E+1   2.18806E+2
  -2.32237E+2  -1.40373E+2
  -2.89391E+2  -1.43166E+2
  -7.06974E+0  -1.99467E+2
   3.03477E+1   9.92482E+1
  -1.46836E+2   8.88941E+1
   2.80864E+1  -1.04122E+2
  -2.11660E+2  -1.45854E+1
   1.06557E+2   3.03563E+2
  -1.89405E+2   7.36124E+1
  -2.64873E+2   1.43651E+2
   2.43185E+1   9.79339E+1
  -2.23142E+2  -5.79964E+1
   7.07546E+1   8.81767E+1
   3.10538E+1   1.05696E+2
  -1.75037E+2   1.70506E+2
  -9.79897E+1   2.59708E+0
  -1.90418E+1   7.97733E+1
  -1.36489E+2   1.40012E+2
  -1.23928E+2   1.03935E+2
  -3.83290E+0  -3.42031E+1
   1.14193E+2  -8.29953E+1
  -1.85997E+1   1.77241E+2
  -9.35545E+1   2.87664E+2
   5.75238E+1   1.79419E+2
  -1.82321E+2   6.48509E+1
  -1.83618E+2   6.91688E+1
   2.47611E+0   6.64117E+1
   1.01048E+2   6.65166E+0
  -1.80100E+2   1.36639E+2
   2.80099E+1   1.95957E+2
  -3.33714E+1   9.92798E+0
   1.51463E+2   3.53393E+2
   1.98058E+1  -1.71643E+1
  -2.40656E+2   2.42726E+1
   4.44091E+1  -4.94741E+1
   1.84381E+2   7.01562E+1
   1.84587E+2   1.65899E+2
  -5.75228E+1   5.78451E+0
   1.23420E+2  -1.64353E+2
   5.07647E+1   5.12147E+0
  -1.42016E+2   2.79018E+2
   1.89135E+2  -1.43483E+2
   2.28637E+1  -1.62650E+2
   6.28968E+1  -7.33835E+1
   2.40269E+2   1.45747E+2
  -1.56853E+1   2.72046E+1
   3.85446E+1  -1.12784E+1
  -1.75022E+2  -1.76323E+2
  -1.41006E+1   1.55489E+2
  -5.33661E+1  -2.91315E+2
  -6.65970E+1  -1.28803E+1
  -2.96925E+1  -3.76911E+2
  -2.88940E+1  -1.85081E+2
   1.42676E+2  -5.82343E+1
   1.16572E+2   6.20775E+1
   9.57055E+1   1.18739E+2
  -1.87082E+1   1.85496E+1
  -1.70214E+2  -1.73635E+2
   7.30144E+1  -7.93129E+1
   1.79283E+2  -1.21281E+2
   8.73410E+0   9.00668E+0
   6.13080E+1   5.90544E+1
  -4.61868E+1  -9.54166E+1
  -1.08038E+1   5.70167E+1
  -2.10394E+2  -1.30448E+2
  -7.14667E+1   3.26077E+1
  -1.97600E+2  -1.55516E+2
  -5.13195E+1  -9.49503E+1
   2.17736E+1   3.20070E+1
   2.52053E+1  -3.26656E+1
  -5.22590E+1  -8.55951E+0
  -1.26155E+2   1.08185E+2
   2.36158E+2  -6.41455E+1
   1.18215E+2   1.29397E+2
   2.60066E+2  -2.02215E+2
   3.41861E+1   8.90118E+0
  -3.01565E+2   6.91732E+0
  -1.54890E+2  -2.75478E+2
   4.84494E+1   2.37453E+1
  -4.80410E+1  -1.86624E+2
   6.62714E+1  -4.77764E+1
  -2.10717E+2   1.36073E+1
  -1.27443E+2  -6.64962E+1
   1.47039E+2  -1.12184E+2
   1.59882E+1  -1.99479E+2
  -2.19086E+2  -2.36682E+2
  -7.24114E+1   1.20296E+1
  -1.65678E+2  -2.53186E+2
   2.89926E+2   3.98728E+1
  -2.79664E+1  -2.43697E+2
   2.92918E+2   3.86872E+2
  -1.37858E+2   3.97467E+1
  -1.64243E+1  -2.24818E+2
  -1.00572E+2  -3.79149E+1
  -1.26994E+2  -4.83636E+1
  -1.06842E+2  -4.52347E+1
   1.53800E+2   5.61886E+1
  -2.58284E+1   2.93329E+0
   1.24083E+2   1.74869E+1
   4.49975E+1   1.59844E+2
  -3.15730E+1  -2.09446E+1
  -1.48189E+2   1.40437E+2
   6.30095E+1  -2.74220E+0
   6.54287E+1  -2.48546E+2
  -6.97935E+0  -1.61982E+2
   1.41675E+2  -9.91693E+1
   3.59393E+2  -1.16429E+2
  -7.41878E+0  -1.33991E+1
  -8.79766E+1   1.27544E+2
  -2.25370E+1   8.12286E+1
   1.08981E+2  -9.76450E+1
   7.92149E+1  -1.13678E+2
  -2.64852E+1  -7.44824E+1
   7.67441E+1   8.90993E+1
  -1.43036E+2  -2.27168E+2
  -1.67116E+2   1.39746E+2
   1.39700E+2  -6.91892E+1
   4.13547E+1   7.25187E+1
   6.25443E+1  -8.75254E+0
   1.25673E+2  -2.68676E+2
  -1.67627E+0   7.47856E+1
   4.86782E+1  -1.52955E+2
   2.33486E+2  -1.82266E+1
  -5.76524E+1   3.54493E+2
  -1.28339E+2   1.02360E+2
   8.35358E+1  -8.20958E+1
  -2.03008E+2  -5.67899E+1
  -5.77711E+1  -1.33545E+2
   1.50909E+2  -1.41267E+2
   2.14599E+2  -2.31997E+2
  -7.45742E+0   1.25646E+2
  -2.61112E+1  -5.31808E+1
  -2.11804E+2   1.20831E+0
   1.61056E+1  -2.26947E+2
  -4.82631E+1  -8.00321E+0
   1.80294E+2  -1.39217E+2
