 
 $NMID
 ID=''
 FMTDAT='(2E13.5)'
 TRAMP=   1.00000E+0
 VOLUME=   1.00000E+0
 $END
   3.21632E+4   1.53085E+4
   1.12162E+4  -2.05326E+4
  -6.96374E+3  -1.24604E+4
  -8.24799E+3   3.99939E+3
  -5.52698E+3   5.02277E+3
   3.84135E+2   1.95614E+3
   7.33499E+3   2.46536E+3
   5.37694E+3  -2.63729E+2
  -1.14980E+3  -3.16289E+3
  -4.13759E+3  -2.71588E+2
  -3.98100E+3   2.82760E+3
  -1.51077E+3   2.29861E+3
   1.73773E+3   5.59634E+2
   9.74133E+2  -1.60506E+3
  -2.98645E+2  -3.58681E+3
  -2.96736E+1  -2.32947E+3
  -3.70015E+2   1.20159E+3
  -3.59683E+2   2.33347E+3
   1.50025E+3   1.78251E+2
   1.66580E+3  -1.16802E+2
  -7.22981E+2   2.01414E+1
  -1.26567E+3  -8.70129E+2
   1.85126E+2   8.98784E+1
   2.94657E+1   2.06669E+3
  -9.42097E+1  -8.95423E+1
   8.52615E+2  -2.19544E+3
   1.27476E+3  -1.49820E+2
  -8.96906E+2   1.75373E+3
  -1.96360E+3   1.20058E+2
  -3.20641E+2  -1.33306E+3
   1.13629E+3   1.44527E+1
   7.12265E+1   9.19269E+2
  -1.03458E+3   6.04272E+2
  -1.09949E+3  -3.87332E+2
   4.51121E+1  -1.78114E+3
   1.36629E+3  -1.13561E+3
   1.04973E+3   6.24550E+2
  -7.80171E+2   9.13622E+2
  -8.19009E+2  -1.31932E+2
  -6.02447E+0   1.66956E+2
  -4.02233E+2   2.12206E+2
  -8.44416E+2  -7.36140E+2
   1.72871E+2  -8.41066E+2
   6.97465E+2  -2.02547E+2
   2.45907E+2  -3.00805E+2
   2.24047E+2   1.75830E+1
   5.29273E+2   1.13193E+3
  -5.26543E+2   1.27829E+3
  -9.48988E+2   5.30108E+1
  -2.61008E+2  -8.08092E+2
   2.40381E+2  -3.45167E+2
  -2.13936E+1  -5.64731E+2
   1.22891E+1  -3.82642E+2
   6.80065E+2   9.69146E+1
   7.16668E+2   2.98314E+2
   5.58277E+1   4.75301E+2
  -7.77151E+1   1.21922E+2
  -1.52379E+2  -7.44147E+1
   1.57921E+2  -7.44699E+2
   2.14580E+1  -5.35710E+2
   3.09515E+2   2.82861E+1
   3.42133E+2   4.26592E+0
   4.56877E+2   3.55919E+2
   2.62078E+2   8.29304E+2
  -9.10049E+1   5.42982E+2
  -5.19496E+2   3.61808E+2
  -2.69036E+2  -2.48308E+2
   3.14446E+1  -9.18009E+2
   2.80018E+2  -5.17386E+2
   2.80733E+2  -1.66635E+2
  -1.92650E+2   1.21202E+2
  -1.70590E+2  -2.17790E+2
   6.77935E+2  -2.39279E+2
   8.13888E+2   4.01462E+1
   2.43496E+2   3.26398E+2
  -1.88537E+2  -8.55263E+1
   2.70233E+2  -3.53260E+2
   2.44190E+2  -1.48139E+2
  -4.28364E+1  -1.08886E+1
  -2.10254E+2   5.98986E+1
  -3.10436E+2   5.22852E+2
   1.08313E+2   2.52245E+2
  -9.96276E+1   5.06317E+1
   4.83536E+1  -1.00301E+2
  -5.73043E+1  -1.43374E+2
  -3.54084E+2  -1.08933E+2
  -2.23075E+2  -1.49450E+2
   1.59740E+2  -3.52237E+1
   2.72908E+2   1.65034E+2
   2.53116E+2  -3.95455E+1
   1.42715E+1  -5.51590E+1
   2.09456E+2   5.05507E+1
   2.18581E+2   3.43669E+2
  -4.35744E+1   2.11508E+2
  -3.33631E+2   3.65056E+2
  -3.24015E+2   1.90998E+2
   3.25488E+2  -4.32078E+1
   7.43017E+1   1.11696E+0
  -3.08301E+2  -2.30354E+1
  -4.75547E+2  -1.74872E+2
   3.96960E+2  -2.57387E+2
   4.05471E+2   2.81449E+2
   3.93455E+1   5.57924E+2
  -2.18642E+2  -1.76726E+1
  -3.78951E+0   1.19122E+2
   2.44307E+2  -2.23017E+2
   2.25680E+2   7.52099E+1
   1.63975E+2   3.80417E+2
  -1.93607E+2   1.39392E+2
  -3.11352E+2  -2.98177E+2
   4.22209E+1  -1.02415E+2
   1.69723E+2  -1.22661E+2
   2.42122E+2  -3.58528E+1
   4.82472E+1  -8.50676E+0
   1.98240E+2  -1.16456E+2
   1.40605E+2   2.55003E+2
   5.82367E+1   1.89002E+2
  -2.28229E+2   2.29017E+2
  -1.89182E+2   1.39894E+2
  -2.10081E+2   1.04034E+2
  -5.08649E+1  -1.68108E+2
  -1.71612E+2  -1.08857E+2
   2.64387E+2  -4.44881E+1
   1.88720E+2  -5.18523E+1
   6.60187E+1   1.69176E+2
   1.15505E+2  -3.07160E+0
  -3.98165E+1  -7.76337E+1
   7.52063E+1  -4.85993E+1
   7.79724E+1   3.03081E+1
  -2.22659E+2  -8.68932E+1
   1.72621E+2  -9.77127E-2
   2.27861E+2   1.87264E+2
  -4.96249E+1   1.38058E+2
   7.13334E+1   7.90052E+1
   7.21583E+1   9.39084E+0
  -1.80592E+2   2.11391E+2
  -1.87657E+2   4.97183E+1
  -1.85827E+2  -1.92555E+2
   2.06236E+2  -1.82739E+2
   1.63517E+2  -2.26989E+1
  -1.40639E+2   7.85701E+1
   2.19194E+1  -1.17292E+1
  -1.15309E+2  -7.08016E+1
  -2.42315E+2  -8.10376E+1
  -5.18468E+1   3.46459E+1
  -5.32051E+1  -2.27793E+1
  -2.19820E+2   1.66313E+2
  -9.87423E+1   9.99881E+1
  -4.16435E+1   1.92543E+2
  -2.74946E+2   1.66328E+2
  -5.09735E+1   1.53911E+2
  -1.24398E+2   8.89266E+1
  -1.61470E+2   6.88612E-1
  -1.65007E+2  -2.16203E+1
   2.59285E+1  -2.24655E+1
  -1.20440E+2  -1.20851E+2
   1.77424E+1   2.09020E+2
   5.60799E+1   7.90048E+1
   4.95395E+1   2.69383E+0
   1.02998E+2   1.99070E+2
  -1.37251E+1   8.96114E+1
  -3.04100E+1   9.58358E+1
  -1.04909E+2  -3.73590E+0
   1.17432E+2   2.32439E+1
  -4.01390E+1  -9.83344E+1
   4.17297E+1   1.97513E+2
  -2.14675E+1  -1.60062E+2
   1.54143E+2  -8.45144E+1
  -1.28084E+2   1.73864E+2
   4.39285E+1   4.13729E+1
   7.25696E+1   1.96512E+2
  -1.73532E+2   2.61168E+2
  -4.38748E+1   1.36932E+2
  -5.69800E+1  -8.75403E+1
   8.74645E+1  -7.64322E+1
  -1.10270E+2   1.75181E+2
   4.43200E+1  -3.86191E+1
  -1.39048E+1   1.91680E+2
   1.88159E+1  -1.15334E+2
  -1.76822E+2   5.68114E+1
  -2.34836E+2   1.11824E+2
  -6.58233E+1   1.49323E+2
   1.17231E+2  -1.04395E+1
  -4.02789E+1   7.77134E+1
   1.45461E+2   1.26594E+2
   1.44283E+2  -1.35323E+1
  -4.22431E+1   4.70757E+1
  -5.25311E+1   1.97801E+2
   1.16504E+2   6.09703E+1
  -6.54872E+1  -1.21886E+2
   1.67613E+1   1.89437E+2
   6.42637E+1  -1.55694E+2
   2.36610E+2  -9.08341E+1
   2.67775E+1  -9.93574E+1
   6.44280E+1  -3.42959E+1
   1.80688E+1  -9.38831E+1
   1.32790E+2   8.73153E+1
   1.43614E+2  -7.67545E+1
   9.17634E+1  -1.82217E+2
   6.60972E+1  -1.92230E+1
   3.90444E+1   5.81105E+1
  -3.17508E+0  -1.55286E+2
  -1.16814E+2   6.08731E+0
   1.09039E+2  -2.94742E+1
  -1.47748E+1  -1.15493E+2
  -9.55073E+1  -7.55896E+1
   2.44506E+2  -6.55976E+1
  -1.57761E+2   2.08055E+0
   1.16214E+2  -7.17573E+1
  -1.20153E+2  -1.42440E+2
  -5.66812E+1  -8.15333E+1
  -1.12234E+2   8.29837E+1
  -1.99666E+2  -3.89429E+1
   1.58600E+2  -2.44882E+2
   3.02199E+1  -1.39013E+2
  -1.15771E+1  -1.04375E+2
  -1.84627E+1  -2.74565E+0
   1.04682E+2   8.72541E+1
   4.81417E+1  -1.08910E+2
  -7.90861E+1  -2.16883E+2
  -7.33644E+1  -2.61050E+2
  -2.57546E+2   5.79344E+1
  -1.75230E+2   1.31625E+2
   1.73324E+2  -1.16828E+1
  -1.62422E+2  -2.10874E+2
   7.32825E+0  -1.49435E+2
   7.12763E+1   1.44035E+2
  -8.05399E+1  -1.14847E+2
  -1.52525E+2  -2.62329E+2
   1.89995E+2  -1.18528E+2
   7.27274E+1  -8.99376E+1
  -2.98029E+1  -2.16705E+2
  -7.79649E-1  -1.78376E+2
  -1.67660E+2  -2.50961E+1
  -7.47620E+1  -2.02561E+2
   6.92542E+0   1.47503E+2
  -2.26836E+2  -1.11090E+2
  -1.42424E+2  -1.00792E+2
   2.00963E+2   1.64612E+2
  -8.26230E+1  -3.70617E+1
   4.48795E+0  -7.94776E+1
  -6.73779E+1  -1.09084E+2
  -3.93937E+1  -3.50378E+1
   7.15443E+1  -1.19132E+2
   1.60918E+2   5.38286E+1
  -4.92701E+1  -1.94392E+2
  -2.18279E+2  -1.12252E+1
  -1.45041E+1  -6.92495E+1
  -1.44565E+2  -3.31363E+1
   2.12141E+2   1.43247E+2
  -1.77880E+2  -6.78495E+0
   2.20631E+2  -1.76891E+2
   9.32363E+1  -1.00266E+2
   1.95343E+2   2.30282E+1
   1.40900E+2   3.87027E+1
   3.96187E+1   1.19944E+2
  -1.87509E+2  -9.93916E+1
   2.92142E+1  -2.75594E+2
  -3.34446E+0   1.21722E+2
   1.01877E+2  -1.60604E+2
   2.35559E+2  -1.92452E+2
   1.80807E+2  -1.41301E+2
   1.71157E+2   3.87354E+1
  -1.49104E+2   1.33838E+2
  -4.30090E+1  -1.00451E+2
  -1.16536E+2  -2.87893E+1
  -1.77376E+2  -3.10611E+1
  -9.24178E+1   2.77506E+2
   2.51206E+1   5.84546E+1
  -2.06236E+2  -8.10792E+1
   4.33317E+1  -1.02610E+2
   3.72538E+1   6.48457E+1
   4.76931E+1   3.50699E+1
  -1.66615E+2   1.30271E+2
  -1.17027E+2  -1.07497E+2
  -5.19808E+1  -3.65866E+1
  -4.77198E+1  -2.98507E+1
   3.61027E+2   1.42794E+2
   4.92922E+0  -9.70350E+1
   8.03023E+1  -8.05495E+1
  -1.26313E+1   3.45299E+2
  -1.80882E+2   5.94664E+1
   4.09531E+1   3.25474E+0
  -4.02518E-1   7.16998E+1
   1.63672E+2  -5.52456E+1
   1.82941E+2  -6.29955E+1
  -1.49029E+2  -1.39369E+2
  -4.75647E+1  -4.49452E+1
  -1.61841E+2  -2.89985E+1
  -1.57569E+1  -1.48221E+2
   1.50723E+2  -2.88969E+2
   1.22477E+1  -3.72854E+1
  -1.71017E+2   6.47132E+1
   9.85698E+1  -9.46944E+1
  -5.40686E+1  -1.09391E+2
   1.53126E+2   4.96627E+1
  -1.27149E+2   5.15854E+1
   9.80993E+1   8.24279E+1
  -1.41466E+2  -1.67334E+2
  -9.04505E+1  -8.97207E+1
   2.29367E+1   5.25055E+1
  -6.73414E+0   1.23354E+1
   2.70485E+1  -3.23871E+2
  -5.18564E+1  -9.61698E+1
   3.29693E+1  -9.43095E+1
   3.54298E+2   1.29065E+2
  -1.97719E+2   3.02958E+2
   8.56077E+1  -1.14455E+1
   1.48045E+2  -1.62609E+2
  -1.37384E+2   1.29233E+2
  -7.92431E+1  -5.57291E+1
  -2.14243E+2  -1.49360E+2
  -1.08890E+2  -2.57662E+2
  -1.37444E+2  -4.50076E+1
  -1.78004E+1  -2.02240E+2
   7.29881E+1   1.71093E+1
  -1.26602E+2  -1.03770E+2
  -1.35998E+2   5.00112E+1
  -2.24322E+1  -9.34651E+1
   6.16577E+1  -8.66218E+1
  -1.09750E+1  -1.84637E+1
   5.52846E+0   9.55019E+1
  -5.52091E+1   1.01051E+2
  -1.25114E+2  -2.61348E+1
   2.46358E+2   8.40314E+1
  -9.66798E+1  -1.31524E+2
   1.39738E+2  -1.69876E+2
   2.03263E+2  -7.59956E+1
  -3.06089E+1  -1.01791E+2
   2.93322E+2   2.16431E+2
   1.63966E+1   1.36276E+2
   3.32586E+1  -9.43073E+1
   1.16574E+0  -1.19318E+2
  -4.11200E+1  -7.52718E+1
  -8.18505E+1   1.55182E+2
   1.71861E+2  -9.95172E+1
   2.03622E+2  -3.31056E+1
   6.47595E+1  -5.64077E+1
  -1.08061E+2   2.64548E+1
   7.83529E+1   1.35485E+2
  -8.83188E+1  -2.52838E+1
  -9.51628E+1  -2.92211E+1
   3.86401E+1   3.89973E+0
   3.76853E+1  -2.17338E+2
   1.48391E+1   1.34390E+2
   9.65284E+1   1.70339E+2
  -8.71067E+1   1.56591E+2
   1.49190E+2   5.80369E+1
   1.19118E+2  -1.91899E+2
  -3.40235E+1   7.37212E+1
   1.39386E+1  -2.11886E+2
  -2.03068E+2   1.73325E+2
   2.35153E+2  -1.00295E+2
   4.22670E+1   2.13640E+2
   5.96272E+1  -4.29564E+1
   4.57117E+1  -3.68834E+1
   2.31046E+1   5.91660E+1
   1.55160E+2   1.54092E+2
  -5.73662E+1  -7.38472E+1
   3.68956E+2  -8.83716E+1
   1.21200E+2  -1.19536E+1
   8.62405E+1  -2.58128E+1
  -1.02399E+2   3.53188E+2
   7.74399E+0   5.36080E+1
   5.77146E+1  -3.81436E+1
   1.56767E+1  -9.21343E+1
  -1.22621E+2   3.14816E+2
