 LCModel (Version 6.3-1N) Copyright: S.W. Provencher.          Ref.: Magn. Reson. Med. 30:672-679 (1993).                
 Slice_N1@10_18  28-Feb-2025 11:37:04
 27 lines in following concentration table = NCONC+1
    Conc.  %SD /Cr+PCr  Metabolite                                         
 2.17E-04   7% 2.1E-04 Mac                                                 
    3.576  37%   3.493 Cr                                                  
    4.614  28%   4.507 PCr                                                 
    6.699  16%   6.544 Ins                                                 
    9.486  10%   9.267 NAA                                                 
    7.825  14%   7.644 Tau                                                 
    0.201 567%   0.196 PCho                                                
    1.841  59%   1.798 GPC                                                 
   10.356  12%  10.116 Glu                                                 
    4.137  25%   4.041 Gln                                                 
    0.000 999%   0.000 Ala                                                 
    3.013  49%   2.943 Asc                                                 
    2.179  56%   2.129 Asp                                                 
    0.905  71%   0.884 GABA                                                
    0.606 140%   0.592 Glc                                                 
    2.294  27%   2.241 GSH                                                 
    3.510  24%   3.429 Lac                                                 
    1.446  46%   1.412 NAAG                                                
    1.330 103%   1.299 PE                                                  
    2.042  18%   1.994 GPC+PCho                                            
   10.932   9%  10.679 NAA+NAAG                                            
   14.493  12%  14.157 Glu+Gln                                             
    8.190  11%   8.000 Cr+PCr                                              
   10.932   9%  10.679 NAA+NAAG                                            
    8.190  11%   8.000 Cr+PCr                                              
   14.493  12%  14.157 Glu+Gln                                             
   6 lines in following misc. output table
  FWHM = 0.024 ppm    S/N =   3                                            
  Data shift = 0.024 ppm                                                   
  Ph:-129 deg       0.0 deg/ppm                                            
  alphaB,S = 2.2E-01,   6.1E+00                                            
   19 spline knots.   Ns = 5(1)                                            
  ( 3) 2 infls.   ( 2) 2 extrs.                                            
  480 points on ppm-axis = NY
      4.100000     4.091866     4.083733     4.075600     4.067466     4.059333     4.051199     4.043066     4.034933     4.026799
      4.018666     4.010532     4.002399     3.994265     3.986132     3.977998     3.969864     3.961731     3.953597     3.945463
      3.937330     3.929196     3.921062     3.912929     3.904795     3.896662     3.888528     3.880394     3.872261     3.864127
      3.855993     3.847860     3.839726     3.831592     3.823459     3.815325     3.807191     3.799058     3.790924     3.782790
      3.774657     3.766523     3.758389     3.750256     3.742122     3.733989     3.725855     3.717721     3.709588     3.701454
      3.693320     3.685187     3.677053     3.668919     3.660786     3.652652     3.644518     3.636385     3.628251     3.620117
      3.611984     3.603850     3.595716     3.587583     3.579449     3.571316     3.563182     3.555048     3.546915     3.538781
      3.530647     3.522514     3.514380     3.506246     3.498113     3.489979     3.481845     3.473712     3.465578     3.457444
      3.449311     3.441177     3.433043     3.424910     3.416776     3.408643     3.400509     3.392375     3.384242     3.376108
      3.367974     3.359841     3.351707     3.343573     3.335440     3.327306     3.319172     3.311039     3.302905     3.294771
      3.286638     3.278504     3.270370     3.262237     3.254103     3.245970     3.237836     3.229702     3.221569     3.213435
      3.205301     3.197168     3.189034     3.180900     3.172767     3.164633     3.156499     3.148366     3.140232     3.132098
      3.123965     3.115831     3.107697     3.099564     3.091430     3.083297     3.075163     3.067029     3.058896     3.050762
      3.042628     3.034495     3.026361     3.018227     3.010094     3.001960     2.993826     2.985693     2.977559     2.969425
      2.961292     2.953158     2.945024     2.936891     2.928757     2.920624     2.912490     2.904356     2.896223     2.888089
      2.879955     2.871822     2.863688     2.855554     2.847421     2.839287     2.831153     2.823020     2.814886     2.806752
      2.798619     2.790485     2.782351     2.774218     2.766084     2.757951     2.749817     2.741683     2.733550     2.725416
      2.717282     2.709149     2.701015     2.692881     2.684748     2.676614     2.668480     2.660347     2.652213     2.644079
      2.635946     2.627812     2.619678     2.611545     2.603411     2.595278     2.587144     2.579010     2.570877     2.562743
      2.554609     2.546476     2.538342     2.530208     2.522075     2.513941     2.505807     2.497674     2.489540     2.481406
      2.473273     2.465139     2.457006     2.448872     2.440738     2.432605     2.424471     2.416337     2.408204     2.400070
      2.391936     2.383803     2.375669     2.367535     2.359402     2.351268     2.343134     2.335001     2.326867     2.318733
      2.310600     2.302466     2.294333     2.286199     2.278065     2.269932     2.261798     2.253664     2.245531     2.237397
      2.229263     2.221130     2.212996     2.204862     2.196729     2.188595     2.180461     2.172328     2.164194     2.156060
      2.147927     2.139793     2.131660     2.123526     2.115392     2.107259     2.099125     2.090991     2.082858     2.074724
      2.066590     2.058457     2.050323     2.042189     2.034056     2.025922     2.017788     2.009655     2.001521     1.993387
      1.985254     1.977120     1.968987     1.960853     1.952719     1.944586     1.936452     1.928318     1.920185     1.912051
      1.903917     1.895784     1.887650     1.879516     1.871383     1.863249     1.855115     1.846982     1.838848     1.830714
      1.822581     1.814447     1.806314     1.798180     1.790046     1.781913     1.773779     1.765645     1.757512     1.749378
      1.741244     1.733111     1.724977     1.716843     1.708710     1.700576     1.692442     1.684309     1.676175     1.668041
      1.659908     1.651774     1.643641     1.635507     1.627373     1.619240     1.611106     1.602972     1.594839     1.586705
      1.578571     1.570438     1.562304     1.554170     1.546037     1.537903     1.529769     1.521636     1.513502     1.505368
      1.497235     1.489101     1.480968     1.472834     1.464700     1.456567     1.448433     1.440299     1.432166     1.424032
      1.415898     1.407765     1.399631     1.391497     1.383364     1.375230     1.367096     1.358963     1.350829     1.342695
      1.334562     1.326428     1.318295     1.310161     1.302027     1.293894     1.285760     1.277626     1.269493     1.261359
      1.253225     1.245092     1.236958     1.228824     1.220691     1.212557     1.204423     1.196290     1.188156     1.180022
      1.171889     1.163755     1.155622     1.147488     1.139354     1.131221     1.123087     1.114953     1.106820     1.098686
      1.090552     1.082419     1.074285     1.066151     1.058018     1.049884     1.041750     1.033617     1.025483     1.017349
      1.009216     1.001082     0.992949     0.984815     0.976681     0.968548     0.960414     0.952280     0.944147     0.936013
      0.927879     0.919746     0.911612     0.903478     0.895345     0.887211     0.879077     0.870944     0.862810     0.854676
      0.846543     0.838409     0.830276     0.822142     0.814008     0.805875     0.797741     0.789607     0.781474     0.773340
      0.765206     0.757073     0.748939     0.740805     0.732672     0.724538     0.716404     0.708271     0.700137     0.692003
      0.683870     0.675736     0.667603     0.659469     0.651335     0.643202     0.635068     0.626934     0.618801     0.610667
      0.602533     0.594400     0.586266     0.578132     0.569999     0.561865     0.553731     0.545598     0.537464     0.529330
      0.521197     0.513063     0.504930     0.496796     0.488662     0.480529     0.472395     0.464261     0.456128     0.447994
      0.439861     0.431727     0.423593     0.415460     0.407326     0.399192     0.391059     0.382925     0.374792     0.366658
      0.358524     0.350391     0.342257     0.334124     0.325990     0.317856     0.309723     0.301589     0.293455     0.285322
      0.277188     0.269055     0.260921     0.252787     0.244654     0.236520     0.228386     0.220253     0.212119     0.203986
 NY phased data points follow
   1.04292E+01 -1.29819E+01 -6.37254E+00 -1.14894E+01 -9.29360E+00 -7.69650E+00  2.51125E+00 -2.33913E+00 -1.02830E+01 -1.11988E+01
  -2.71750E+00 -1.81170E+01 -4.07865E+01 -2.28198E+01 -2.80663E+01 -2.43883E+01 -2.76924E+01 -4.13259E+01 -4.04664E+01 -6.48859E+01
  -8.26019E+01 -5.63968E+01 -3.09688E+01 -3.87213E+01 -1.21001E+01  1.06752E+01  8.33687E+00  2.53025E+01  3.43635E+01  3.50711E+01
   1.33183E+01  1.73084E+01  3.07541E+01  7.09920E+00  3.27252E+01  4.22786E+01  1.63896E+01  1.99858E+01 -6.17961E+00 -3.44045E+01
  -5.71087E+01 -6.24349E+01 -4.51704E+01 -4.02162E+01 -1.73400E+01  3.14947E+00  2.17320E+01  3.11688E+01  4.25286E+01  6.60975E+01
   5.80323E+01  4.04606E+01  3.80188E+01  3.80950E+01  2.08683E+01  1.03766E+01  1.68310E+01  5.16371E+00 -2.27478E+01 -1.38681E+01
   1.48613E+01  8.34244E+00  3.66894E+00  3.54072E+01  5.98505E+01  6.05504E+01  7.69045E+01  4.91478E+01  3.42438E+00 -1.47082E+01
  -2.92541E+01 -4.77641E-02  1.58062E+01  3.17896E+01  3.92738E+01  4.00036E+01  5.91307E+01  6.23216E+01  8.99488E+01  6.68609E+01
   5.27112E+01  7.11267E+01  3.91987E+01  9.68351E+00 -3.54472E+00  1.16411E+01 -3.30089E+00 -7.08766E+00  2.42537E+01  3.64948E+01
   6.35088E+01  7.86978E+01  7.51602E+01  7.32021E+01  7.86729E+01  7.94638E+01  8.47506E+01  8.50483E+01  8.97626E+01  1.02545E+02
   9.54599E+01  8.47124E+01  5.79819E+01  5.06636E+01  4.06926E+01  2.12899E+01  1.09890E+01  1.01588E+01  6.04835E+00 -6.80611E+01
  -1.39525E+02 -1.47352E+02 -1.09175E+02 -8.15480E+01 -6.09875E+01 -3.57568E+01 -3.66230E+01 -3.22859E+01 -9.98092E+00  1.76020E+01
  -6.94234E+00 -5.18906E+00  1.91821E+01 -8.37096E-01 -9.73189E-02  2.18143E+01  4.87802E+01  5.03769E+01  7.49079E+01  1.28039E+02
   1.61066E+02  1.49836E+02  6.09131E+01 -4.05904E+01 -6.70399E+01 -5.83916E+01 -7.16614E+01 -5.57152E+01 -5.33359E+01 -5.13184E+01
  -3.55665E+01 -4.16630E+01 -4.65846E+01 -5.76343E+01 -5.07202E+01 -6.99756E+01 -6.47299E+01 -4.24545E+01 -4.92459E+01 -4.06383E+01
  -5.55132E+01 -4.30816E+01 -4.71658E+01 -5.43469E+01 -2.57048E+01 -3.11298E+01 -2.65192E+01 -3.11860E+01 -3.15128E+01 -2.58980E+01
  -2.74859E+01 -1.30809E+01 -2.22126E+01 -3.21225E+01 -2.56960E+01 -2.19959E+01 -2.76900E+01 -1.41549E+01 -3.05272E+01 -3.57816E+01
  -3.08272E+00 -2.31651E+01  1.57051E+01  3.04614E+01  3.90492E+00  1.51096E+01 -1.73385E+01  3.71489E+00  2.38751E+01  6.19440E-01
  -1.65792E+00 -7.74201E+00 -3.06507E+01 -4.17336E+01 -3.12508E+01 -4.64704E+01 -3.61028E+01 -1.99782E+01 -3.49141E+01 -3.24914E+01
  -1.56808E+01 -1.99932E+01 -2.18420E+01 -4.44935E+00 -1.11472E+01 -1.30020E+01 -1.88636E+01 -1.96828E+01 -2.00266E+01 -3.09955E+01
  -6.77634E+00  1.26129E+00  2.95370E+00  2.25967E+01  2.11495E+01  6.63326E+00 -1.75448E+01 -2.93958E+01 -2.38050E+01 -4.98507E+01
  -6.81559E+01 -6.28417E+01 -6.72282E+01 -3.89456E+01 -1.69134E+01 -1.07434E+01  2.79938E+01  4.85126E+01  4.48357E+01  2.69975E+01
   4.58896E-01  3.33216E+00 -3.10214E+00 -8.91979E+00 -4.57234E+00 -7.39336E+00  7.08856E+00  2.17003E+00 -6.89329E+00  1.90289E+00
   8.94039E+00 -1.30588E+00 -1.04211E+01 -3.33007E+00 -2.85474E+01 -4.80463E+01 -4.65370E+01 -7.77369E+01 -1.02629E+02 -7.93304E+01
  -6.32200E+01 -6.56647E+01 -5.94167E+01 -4.15608E+01 -3.07054E+01 -2.53430E+01 -9.21587E+00 -3.45756E+01 -2.71164E+01 -8.41907E+00
  -4.44888E+01 -4.59639E+01 -5.23940E+01 -5.13277E+01 -6.72092E+01 -1.27670E+02 -1.28535E+02 -4.11229E+01  7.70690E+01  1.16442E+02
   1.25090E+02  1.36427E+02  1.18703E+02  1.15416E+02  9.36338E+01  8.77960E+01  7.49722E+01  5.60929E+01  8.10248E+01  5.73243E+01
   4.67852E+01  6.61315E+01  5.79397E+01  6.03364E+01  6.55482E+01  6.24023E+01  6.46877E+01  7.24608E+01  5.82726E+01  6.08879E+01
   7.26656E+01  7.16776E+01  7.25633E+01  6.03170E+01  5.57107E+01  6.38660E+01  5.11084E+01  3.10489E+01  4.51800E+01  4.86934E+01
   4.57414E+01  3.48909E+01  3.24787E+01  3.27153E+01  1.22697E+01  1.57174E+01  4.64801E+00  1.46551E+01  1.48756E-01 -2.93260E+00
   6.00345E+00 -2.27747E+01 -2.54667E+00 -4.72357E+00 -1.83293E+00 -1.08575E+01  9.97933E+00  3.14408E+01 -8.90893E+00  1.83630E+00
  -9.68606E+00 -2.18915E+01 -3.92547E+01 -4.61761E+01 -4.33485E+01 -6.65351E+01 -5.28003E+01 -5.76052E+01 -5.06003E+01 -2.26555E+01
  -1.43219E+01 -3.16310E+00  8.39705E+00  2.09154E+01  5.12332E+01  4.56255E+01  3.81511E+01  7.14915E+01  6.50799E+01  7.20235E+01
   7.57527E+01  6.72209E+01  5.40010E+01  2.03931E+01  2.15799E+01  1.43157E+01  1.36308E+01  1.83255E+01  3.36986E+01  5.30176E+01
   2.60836E+01  8.74751E+00 -4.43771E+00 -1.94300E+01 -2.09006E+01 -1.84531E+01 -2.85458E+01 -2.67711E+01  2.18294E+00 -7.87318E+00
   4.16098E+00  1.67209E+01  4.67941E+00  3.30789E+01  1.47812E+01  8.43615E+00  1.86252E+01 -4.48269E+00 -4.09996E+00 -2.15197E+00
  -2.99397E+00 -2.67370E+01 -2.04355E+01 -4.79860E+00 -1.16872E+00  1.65432E+01  4.32320E+00  7.85486E+00  7.52304E+00  1.00099E+01
   2.28178E+01  3.23434E+01  3.16351E+01  3.71479E+01  5.34771E+01  3.67426E+01  6.03801E+01  5.05369E+01  3.51133E+01  6.28526E+01
   5.51344E+01  6.96559E+01  6.41051E+01  7.49472E+01  1.00927E+02  9.39579E+01  9.69502E+01  9.77011E+01  1.07610E+02  1.03644E+02
   1.02315E+02  1.02199E+02  8.38215E+01  7.60078E+01  6.31847E+01  6.03900E+01  6.96660E+01  4.75899E+01  2.28789E+01  3.98202E+01
   3.35491E+01  4.63206E+00  4.04424E+00 -1.60493E+01 -2.27033E+01 -9.70130E+00 -2.50652E+01 -2.36857E+01 -2.28605E+01 -2.56633E+01
  -2.47570E+01 -2.65839E+01 -2.12913E+01 -3.46356E+01 -3.28806E+01 -2.39787E+01 -2.58291E+01 -2.14968E+01 -2.15145E+01 -2.88920E+01
  -2.20199E+01 -1.53118E+01 -2.57698E+01 -2.60016E+01 -4.09541E+01 -3.62816E+01 -2.88073E+01 -2.31741E+01 -1.52690E+01 -3.29864E+01
  -1.90603E+01 -3.31818E+01 -3.76408E+01 -1.75791E+01 -2.76621E+01 -2.90963E+01 -3.40187E+01 -3.31629E+01 -2.98726E+01 -4.34573E+01
  -4.96718E+01 -2.91170E+01 -2.16015E+01 -1.06919E+01 -2.04041E+01 -2.73625E+01 -2.23455E+01 -5.08560E+01 -3.18485E+01 -2.66891E+01
  -2.86890E+01 -2.03015E+01 -2.89759E+01 -4.41082E+01 -3.84397E+01 -4.34094E+00 -2.74999E+01 -2.92617E+01 -2.73556E+01 -2.45623E+01
  -1.63275E+01 -1.62909E+01 -4.76144E+00 -3.15831E+01 -1.92911E+01 -2.30972E+01 -3.51940E+01 -3.47377E+01 -3.31172E+01 -1.54298E+01
  -3.42511E+01 -3.04171E+01 -2.89229E+01 -1.53511E+01 -6.30440E+00 -2.71885E+01 -3.19249E+01 -2.61073E+01 -7.61517E+00 -2.19443E+01
 NY points of the fit to the data follow
  -1.46370E+01 -1.89552E+01 -2.63120E+01 -3.17759E+01 -2.61951E+01 -8.94549E+00  5.87600E+00  8.18883E+00  1.47352E+00 -6.96824E+00
  -1.48981E+01 -2.04613E+01 -2.26260E+01 -2.24633E+01 -2.13881E+01 -2.00336E+01 -2.28249E+01 -3.00133E+01 -4.59215E+01 -6.86185E+01
  -7.71152E+01 -6.29573E+01 -4.23826E+01 -2.39894E+01  1.36398E+00  2.29362E+01  2.95716E+01  3.55519E+01  4.11709E+01  4.22093E+01
   4.20836E+01  4.15873E+01  4.09009E+01  3.96116E+01  3.73611E+01  3.60233E+01  3.18969E+01  2.24380E+01  2.18890E+00 -2.86785E+01
  -5.58171E+01 -6.24338E+01 -5.03813E+01 -3.53403E+01 -1.78389E+01  3.59275E+00  2.17842E+01  3.47796E+01  4.29057E+01  4.82373E+01
   4.97529E+01  4.67528E+01  3.83888E+01  2.66245E+01  1.53271E+01  1.00787E+01  1.09168E+01  6.50668E+00 -4.70124E+00 -8.55196E+00
  -2.06796E+00  3.38940E+00  1.12126E+01  2.90329E+01  4.60300E+01  5.49222E+01  5.66034E+01  4.39541E+01  1.80211E+01 -2.27748E+00
  -5.16170E+00 -9.11614E-01  2.63149E+00  1.36185E+01  3.07940E+01  4.34990E+01  5.25064E+01  5.97958E+01  6.73388E+01  7.07673E+01
   6.68763E+01  5.23838E+01  2.81476E+01  1.81266E+00 -1.65013E+01 -1.94193E+01 -1.04951E+01  5.96102E+00  2.26789E+01  3.30869E+01
   4.16145E+01  4.78282E+01  5.29021E+01  5.79714E+01  6.33928E+01  6.83696E+01  7.31760E+01  7.65390E+01  7.82015E+01  8.09997E+01
   8.88354E+01  9.06051E+01  8.11702E+01  6.34199E+01  4.47192E+01  2.98185E+01  2.82439E+01  3.31256E+01  4.44552E+00 -6.36956E+01
  -1.21327E+02 -1.28823E+02 -1.04957E+02 -8.34135E+01 -6.30887E+01 -4.68864E+01 -3.63803E+01 -2.76852E+01 -2.01308E+01 -1.35197E+01
  -7.44983E+00 -1.48986E+00  4.53877E+00  1.11338E+01  1.88570E+01  2.72023E+01  3.61014E+01  5.43690E+01  8.27388E+01  1.23109E+02
   1.59796E+02  1.44490E+02  6.17794E+01 -2.65168E+01 -6.18086E+01 -6.59058E+01 -6.56541E+01 -5.73148E+01 -5.02015E+01 -4.71158E+01
  -4.58987E+01 -4.65784E+01 -4.83746E+01 -5.00488E+01 -5.13300E+01 -5.21285E+01 -5.10728E+01 -4.86539E+01 -4.63173E+01 -4.40704E+01
  -4.20389E+01 -4.01184E+01 -3.83414E+01 -3.62477E+01 -3.32500E+01 -3.02192E+01 -2.84684E+01 -2.81940E+01 -2.81124E+01 -2.65827E+01
  -2.33737E+01 -2.06848E+01 -2.10210E+01 -2.36943E+01 -2.54166E+01 -2.49687E+01 -2.45369E+01 -2.60849E+01 -2.84190E+01 -2.72917E+01
  -1.87318E+01 -4.53216E+00  5.24564E+00  2.85062E+00 -4.21066E+00 -2.93409E+00  7.42035E+00  1.47335E+01  1.02980E+01 -2.51060E+00
  -1.45112E+01 -2.19581E+01 -2.76371E+01 -3.17718E+01 -3.36244E+01 -3.48350E+01 -3.56194E+01 -3.53558E+01 -3.45569E+01 -3.36624E+01
  -3.14859E+01 -2.90804E+01 -2.65515E+01 -1.99241E+01 -1.13354E+01 -8.93649E+00 -1.10285E+01 -9.17527E+00 -5.42452E+00 -5.40057E+00
  -6.30879E+00 -4.08084E+00  2.93664E+00  8.83255E+00  7.84837E+00  3.29128E+00 -3.05662E+00 -1.23601E+01 -2.37625E+01 -3.37089E+01
  -4.40453E+01 -5.26501E+01 -5.35483E+01 -4.60812E+01 -2.62691E+01  2.77863E+00  2.96173E+01  4.43642E+01  4.88520E+01  4.38678E+01
   2.91026E+01  1.91264E+01  1.62068E+01  1.53864E+01  1.69339E+01  1.70428E+01  1.50815E+01  1.05542E+01  3.03036E+00 -5.63540E+00
  -1.53486E+01 -2.59693E+01 -3.61465E+01 -4.64714E+01 -5.76020E+01 -6.72540E+01 -7.54083E+01 -8.12155E+01 -8.22983E+01 -7.92657E+01
  -7.34181E+01 -6.49464E+01 -5.32234E+01 -4.15800E+01 -3.14514E+01 -2.39996E+01 -2.14645E+01 -2.20210E+01 -2.57318E+01 -3.20204E+01
  -3.69906E+01 -4.00568E+01 -4.61029E+01 -5.31020E+01 -7.76549E+01 -1.23284E+02 -1.32054E+02 -5.44944E+01  5.32656E+01  1.04077E+02
   1.11184E+02  1.09869E+02  9.85480E+01  8.77095E+01  8.12830E+01  7.58828E+01  7.07066E+01  6.55212E+01  6.05472E+01  5.64616E+01
   5.36700E+01  5.23150E+01  5.19974E+01  5.24850E+01  5.30748E+01  5.33387E+01  5.33738E+01  5.29352E+01  5.24050E+01  5.14423E+01
   4.99093E+01  4.81283E+01  4.63222E+01  4.46349E+01  4.28499E+01  4.09592E+01  3.91242E+01  3.73216E+01  3.52807E+01  3.28309E+01
   2.99380E+01  2.67209E+01  2.32245E+01  1.94712E+01  1.61739E+01  1.41503E+01  1.35063E+01  1.40363E+01  1.52761E+01  1.67704E+01
   1.84894E+01  2.05170E+01  2.26920E+01  2.47384E+01  2.66017E+01  2.82499E+01  2.97286E+01  3.14452E+01  3.35201E+01  3.56427E+01
   3.74775E+01  3.90392E+01  4.04755E+01  4.19627E+01  4.34024E+01  4.44474E+01  4.50501E+01  4.52834E+01  4.47711E+01  4.36946E+01
   4.25225E+01  4.10233E+01  3.89896E+01  3.68629E+01  3.48132E+01  3.21928E+01  2.81618E+01  2.23612E+01  1.53047E+01  8.10107E+00
   1.34275E+00 -4.56182E+00 -8.87311E+00 -1.09299E+01 -1.03545E+01 -7.18629E+00 -1.99327E-01  8.83191E+00  2.05516E+01  3.00387E+01
   2.80420E+01  1.36595E+01 -5.32263E+00 -2.11790E+01 -2.99487E+01 -2.67796E+01 -1.72610E+01 -1.06576E+01 -5.06914E+00 -1.07997E+00
   7.32660E-01  1.05821E+00  3.35093E-02 -2.37268E+00 -5.63075E+00 -8.59319E+00 -1.05903E+01 -1.14658E+01 -1.12720E+01 -1.00510E+01
  -8.02116E+00 -5.42187E+00 -2.38372E+00  7.47391E-01  3.79936E+00  6.70235E+00  9.38188E+00  1.18749E+01  1.43112E+01  1.67952E+01
   1.92086E+01  2.15290E+01  2.38987E+01  2.63085E+01  2.88798E+01  3.19743E+01  3.54509E+01  3.91410E+01  4.34226E+01  4.83124E+01
   5.32976E+01  5.87025E+01  6.51113E+01  7.21716E+01  7.91835E+01  8.54999E+01  8.98938E+01  9.07972E+01  8.74485E+01  8.04100E+01
   7.15498E+01  6.28667E+01  5.53583E+01  4.91943E+01  4.42792E+01  3.98026E+01  3.43764E+01  2.77487E+01  2.04146E+01  1.27467E+01
   5.38152E+00 -7.72603E-01 -5.49980E+00 -9.34127E+00 -1.22310E+01 -1.41069E+01 -1.53597E+01 -1.63730E+01 -1.74047E+01 -1.84076E+01
  -1.93287E+01 -1.99780E+01 -2.03290E+01 -2.05865E+01 -2.08024E+01 -2.08865E+01 -2.08489E+01 -2.11041E+01 -2.15845E+01 -2.17147E+01
  -2.14585E+01 -2.13814E+01 -2.16434E+01 -2.17610E+01 -2.17495E+01 -2.18504E+01 -2.21171E+01 -2.23238E+01 -2.21957E+01 -2.19050E+01
  -2.18112E+01 -2.19893E+01 -2.22462E+01 -2.25780E+01 -2.28138E+01 -2.28428E+01 -2.27976E+01 -2.27464E+01 -2.26489E+01 -2.25447E+01
  -2.25257E+01 -2.24761E+01 -2.24522E+01 -2.26607E+01 -2.30841E+01 -2.34571E+01 -2.35181E+01 -2.34414E+01 -2.34015E+01 -2.33883E+01
  -2.34696E+01 -2.37581E+01 -2.39572E+01 -2.38764E+01 -2.37532E+01 -2.37272E+01 -2.36747E+01 -2.36684E+01 -2.36824E+01 -2.36298E+01
  -2.36228E+01 -2.37431E+01 -2.39934E+01 -2.42817E+01 -2.45139E+01 -2.46040E+01 -2.44784E+01 -2.40942E+01 -2.36321E+01 -2.34866E+01
  -2.36773E+01 -2.40429E+01 -2.43539E+01 -2.44141E+01 -2.43500E+01 -2.43535E+01 -2.43411E+01 -2.42411E+01 -2.43640E+01 -2.45958E+01
 NY background values follow
     1.018E+01    1.026E+01    1.034E+01    1.043E+01    1.051E+01    1.059E+01    1.067E+01    1.075E+01    1.084E+01    1.092E+01
     1.100E+01    1.108E+01    1.117E+01    1.125E+01    1.134E+01    1.142E+01    1.151E+01    1.160E+01    1.168E+01    1.177E+01
     1.186E+01    1.195E+01    1.204E+01    1.213E+01    1.222E+01    1.232E+01    1.241E+01    1.251E+01    1.260E+01    1.270E+01
     1.280E+01    1.289E+01    1.299E+01    1.310E+01    1.320E+01    1.330E+01    1.340E+01    1.350E+01    1.361E+01    1.371E+01
     1.381E+01    1.392E+01    1.402E+01    1.412E+01    1.423E+01    1.433E+01    1.443E+01    1.453E+01    1.463E+01    1.473E+01
     1.483E+01    1.492E+01    1.502E+01    1.511E+01    1.520E+01    1.530E+01    1.538E+01    1.547E+01    1.556E+01    1.564E+01
     1.572E+01    1.580E+01    1.587E+01    1.595E+01    1.602E+01    1.609E+01    1.615E+01    1.622E+01    1.628E+01    1.633E+01
     1.639E+01    1.644E+01    1.649E+01    1.654E+01    1.658E+01    1.662E+01    1.665E+01    1.669E+01    1.672E+01    1.674E+01
     1.677E+01    1.679E+01    1.680E+01    1.682E+01    1.682E+01    1.683E+01    1.683E+01    1.683E+01    1.682E+01    1.681E+01
     1.680E+01    1.678E+01    1.676E+01    1.673E+01    1.670E+01    1.667E+01    1.663E+01    1.659E+01    1.655E+01    1.650E+01
     1.645E+01    1.639E+01    1.634E+01    1.628E+01    1.621E+01    1.614E+01    1.608E+01    1.600E+01    1.593E+01    1.585E+01
     1.577E+01    1.569E+01    1.560E+01    1.551E+01    1.542E+01    1.533E+01    1.524E+01    1.514E+01    1.504E+01    1.494E+01
     1.484E+01    1.474E+01    1.463E+01    1.453E+01    1.442E+01    1.431E+01    1.420E+01    1.408E+01    1.397E+01    1.385E+01
     1.373E+01    1.361E+01    1.349E+01    1.337E+01    1.325E+01    1.313E+01    1.300E+01    1.287E+01    1.275E+01    1.262E+01
     1.249E+01    1.236E+01    1.223E+01    1.209E+01    1.196E+01    1.183E+01    1.169E+01    1.156E+01    1.142E+01    1.128E+01
     1.115E+01    1.101E+01    1.087E+01    1.073E+01    1.059E+01    1.045E+01    1.031E+01    1.017E+01    1.002E+01    9.881E+00
     9.737E+00    9.593E+00    9.448E+00    9.303E+00    9.156E+00    9.010E+00    8.862E+00    8.715E+00    8.566E+00    8.417E+00
     8.267E+00    8.117E+00    7.966E+00    7.814E+00    7.662E+00    7.509E+00    7.355E+00    7.201E+00    7.046E+00    6.891E+00
     6.735E+00    6.578E+00    6.421E+00    6.264E+00    6.105E+00    5.947E+00    5.788E+00    5.629E+00    5.469E+00    5.310E+00
     5.150E+00    4.990E+00    4.830E+00    4.670E+00    4.510E+00    4.351E+00    4.191E+00    4.032E+00    3.872E+00    3.714E+00
     3.555E+00    3.397E+00    3.239E+00    3.082E+00    2.926E+00    2.770E+00    2.614E+00    2.460E+00    2.306E+00    2.153E+00
     2.001E+00    1.850E+00    1.699E+00    1.549E+00    1.400E+00    1.252E+00    1.104E+00    9.566E-01    8.097E-01    6.632E-01
     5.171E-01    3.712E-01    2.255E-01    7.995E-02   -6.548E-02   -2.109E-01   -3.563E-01   -5.018E-01   -6.474E-01   -7.932E-01
    -9.393E-01   -1.086E+00   -1.232E+00   -1.380E+00   -1.527E+00   -1.676E+00   -1.824E+00   -1.974E+00   -2.124E+00   -2.275E+00
    -2.427E+00   -2.580E+00   -2.734E+00   -2.888E+00   -3.044E+00   -3.200E+00   -3.357E+00   -3.516E+00   -3.675E+00   -3.835E+00
    -3.996E+00   -4.158E+00   -4.321E+00   -4.486E+00   -4.651E+00   -4.817E+00   -4.984E+00   -5.153E+00   -5.322E+00   -5.493E+00
    -5.664E+00   -5.837E+00   -6.010E+00   -6.185E+00   -6.361E+00   -6.539E+00   -6.717E+00   -6.896E+00   -7.077E+00   -7.259E+00
    -7.442E+00   -7.626E+00   -7.810E+00   -7.995E+00   -8.181E+00   -8.365E+00   -8.549E+00   -8.732E+00   -8.914E+00   -9.094E+00
    -9.272E+00   -9.447E+00   -9.620E+00   -9.790E+00   -9.956E+00   -1.012E+01   -1.028E+01   -1.043E+01   -1.058E+01   -1.073E+01
    -1.086E+01   -1.100E+01   -1.113E+01   -1.125E+01   -1.136E+01   -1.147E+01   -1.157E+01   -1.166E+01   -1.174E+01   -1.182E+01
    -1.188E+01   -1.194E+01   -1.199E+01   -1.203E+01   -1.206E+01   -1.209E+01   -1.210E+01   -1.211E+01   -1.211E+01   -1.211E+01
    -1.209E+01   -1.207E+01   -1.204E+01   -1.201E+01   -1.197E+01   -1.192E+01   -1.187E+01   -1.181E+01   -1.174E+01   -1.167E+01
    -1.160E+01   -1.151E+01   -1.143E+01   -1.133E+01   -1.124E+01   -1.114E+01   -1.103E+01   -1.092E+01   -1.080E+01   -1.069E+01
    -1.056E+01   -1.044E+01   -1.031E+01   -1.018E+01   -1.004E+01   -9.905E+00   -9.766E+00   -9.626E+00   -9.483E+00   -9.340E+00
    -9.195E+00   -9.050E+00   -8.905E+00   -8.759E+00   -8.614E+00   -8.470E+00   -8.326E+00   -8.183E+00   -8.042E+00   -7.902E+00
    -7.764E+00   -7.629E+00   -7.496E+00   -7.366E+00   -7.239E+00   -7.115E+00   -6.996E+00   -6.880E+00   -6.768E+00   -6.662E+00
    -6.559E+00   -6.462E+00   -6.370E+00   -6.284E+00   -6.202E+00   -6.126E+00   -6.055E+00   -5.989E+00   -5.930E+00   -5.875E+00
    -5.827E+00   -5.784E+00   -5.747E+00   -5.716E+00   -5.691E+00   -5.672E+00   -5.659E+00   -5.652E+00   -5.652E+00   -5.658E+00
    -5.671E+00   -5.690E+00   -5.715E+00   -5.747E+00   -5.787E+00   -5.832E+00   -5.885E+00   -5.945E+00   -6.012E+00   -6.086E+00
    -6.167E+00   -6.255E+00   -6.350E+00   -6.452E+00   -6.561E+00   -6.676E+00   -6.797E+00   -6.924E+00   -7.058E+00   -7.196E+00
    -7.341E+00   -7.491E+00   -7.646E+00   -7.806E+00   -7.971E+00   -8.141E+00   -8.315E+00   -8.493E+00   -8.676E+00   -8.863E+00
    -9.054E+00   -9.248E+00   -9.446E+00   -9.648E+00   -9.852E+00   -1.006E+01   -1.027E+01   -1.048E+01   -1.070E+01   -1.092E+01
    -1.114E+01   -1.136E+01   -1.158E+01   -1.181E+01   -1.204E+01   -1.227E+01   -1.250E+01   -1.273E+01   -1.296E+01   -1.320E+01
    -1.344E+01   -1.367E+01   -1.391E+01   -1.415E+01   -1.439E+01   -1.463E+01   -1.488E+01   -1.512E+01   -1.536E+01   -1.561E+01
    -1.585E+01   -1.610E+01   -1.634E+01   -1.659E+01   -1.683E+01   -1.708E+01   -1.732E+01   -1.757E+01   -1.781E+01   -1.806E+01
    -1.830E+01   -1.854E+01   -1.879E+01   -1.903E+01   -1.927E+01   -1.951E+01   -1.975E+01   -1.999E+01   -2.023E+01   -2.047E+01
    -2.071E+01   -2.095E+01   -2.119E+01   -2.143E+01   -2.167E+01   -2.191E+01   -2.215E+01   -2.239E+01   -2.262E+01   -2.286E+01
    -2.310E+01   -2.334E+01   -2.358E+01   -2.381E+01   -2.405E+01   -2.429E+01   -2.453E+01   -2.477E+01   -2.500E+01   -2.524E+01
 Mac      Conc. = 2.17E-04
  -5.11257E+00 -5.38328E+00 -5.38932E+00 -5.25680E+00 -5.28377E+00 -5.76559E+00 -6.81971E+00 -8.21069E+00 -9.70538E+00 -1.09138E+01
  -1.15517E+01 -1.16202E+01 -1.13555E+01 -1.14138E+01 -1.23666E+01 -1.44294E+01 -1.64780E+01 -1.63873E+01 -1.36574E+01 -9.95605E+00
  -6.60124E+00 -3.22859E+00 -1.57092E-01  1.54558E+00  2.37480E+00  3.23090E+00  4.32343E+00  5.74620E+00  7.45321E+00  9.21809E+00
   1.07356E+01  1.19863E+01  1.29849E+01  1.33760E+01  1.30211E+01  1.23982E+01  1.25182E+01  1.39672E+01  1.62949E+01  1.81907E+01
   1.87646E+01  1.85586E+01  1.86007E+01  1.94079E+01  2.07481E+01  2.21005E+01  2.28746E+01  2.29526E+01  2.25717E+01  2.17051E+01
   2.05592E+01  1.95332E+01  1.88164E+01  1.82252E+01  1.76584E+01  1.72578E+01  1.72798E+01  1.80548E+01  1.92426E+01  2.03527E+01
   2.16725E+01  2.31697E+01  2.41120E+01  2.41402E+01  2.36875E+01  2.29682E+01  2.22294E+01  2.16379E+01  2.09021E+01  2.03457E+01
   2.09119E+01  2.28170E+01  2.51202E+01  2.69048E+01  2.81405E+01  2.88213E+01  2.88719E+01  2.84347E+01  2.78201E+01  2.72161E+01
   2.66921E+01  2.61176E+01  2.57259E+01  2.57947E+01  2.62947E+01  2.69151E+01  2.75956E+01  2.83234E+01  2.88851E+01  2.92966E+01
   2.97392E+01  3.01878E+01  3.05870E+01  3.08361E+01  3.07274E+01  2.98547E+01  2.82752E+01  2.63260E+01  2.42428E+01  2.24796E+01
   2.13260E+01  2.02201E+01  1.87766E+01  1.69091E+01  1.41785E+01  9.85899E+00  3.96156E+00 -2.15664E+00 -6.80612E+00 -9.12305E+00
