 
 $NMID
 ID=''
 FMTDAT='(2E13.5)'
 TRAMP=   1.00000E+0
 VOLUME=   1.00000E+0
 $END
   1.69530E+4   9.26581E+3
   2.13711E+4  -1.41518E+4
  -1.59367E+4  -1.93266E+4
  -2.41175E+4   2.05409E+4
   1.28767E+4   1.93272E+4
   1.68033E+4  -1.68379E+4
  -1.14654E+4  -1.01270E+4
  -8.93429E+3   1.31439E+4
   7.62828E+3   6.23866E+3
   2.53636E+3  -4.28371E+3
  -4.79338E+3  -2.17008E+3
  -1.88008E+3  -1.96998E+3
  -3.84891E+2  -4.45839E+2
  -1.81026E+3   1.76846E+3
  -4.29298E+2  -2.43772E+3
   3.03451E+3  -3.88621E+3
   2.19556E+3   2.30838E+2
  -1.85256E+3   1.38054E+3
  -1.59998E+3  -1.50860E+2
   1.90448E+3  -5.91276E+2
   7.93269E+2  -9.70721E+2
  -4.55653E+2   1.50646E+2
   7.18124E+2   1.30352E+3
  -7.38000E+2   2.85193E+1
  -1.06079E+3  -8.76968E+2
   1.91232E+3   2.80714E+2
   8.95857E+2   1.27174E+3
  -2.78244E+3   1.55583E+2
  -1.23807E+3  -1.11341E+3
   1.35717E+3  -2.38804E+2
   6.04289E+2   1.16084E+3
  -5.78247E+2   7.98367E+1
  -1.26986E+3  -5.83007E+2
  -1.05148E+3  -4.43362E+2
   3.78661E+2  -1.50693E+3
   2.22670E+3  -7.80377E+2
   9.30486E+2   1.77210E+3
  -8.79312E+2   1.51085E+3
  -5.68216E+2  -5.72792E+2
   4.55297E+2  -2.26885E+1
  -4.28144E+2   1.03400E+3
  -1.10604E+3  -3.65253E+2
   7.37285E+2  -1.08740E+3
   1.52844E+3  -3.97624E+2
   1.21980E+3   4.48322E+2
   2.50663E+2   7.77266E+2
  -4.10122E+1   1.74734E+3
  -4.97629E+2   7.30500E+2
  -1.12605E+3  -8.35258E+2
  -3.20675E+2  -1.13992E+3
   4.90603E+2  -2.49976E+2
   5.45918E+2  -9.02329E+1
   6.07746E+2  -3.26020E+2
   5.19912E+2  -3.82948E+2
   9.33692E+2  -4.87066E+1
   1.78577E+2   6.45144E+2
  -8.85803E+2   5.13623E+2
  -4.75533E+2  -4.87823E+2
   8.81463E+2  -1.29862E+3
   8.02348E+2  -2.71112E+2
   3.51449E+1   4.72772E+2
   4.37074E+2   5.23832E+2
   1.21981E+3   2.54877E+2
  -9.91543E+1   1.20595E+3
  -1.58483E+3   7.67831E+2
  -1.20822E+3  -6.77495E+2
   1.19117E+1  -1.25824E+3
   4.15148E+2  -9.92036E+2
   4.69558E+2  -4.04274E+2
   5.68264E+2   9.75513E+1
  -6.15269E+1   6.40501E+1
  -5.10267E+2  -8.88872E+0
   2.72489E+2  -3.75834E+2
   7.14640E+2  -5.66410E+1
   2.53286E+2   5.46150E+2
  -3.26008E+2   6.70876E+1
  -1.52293E+2  -2.51141E+2
   1.86425E+2  -2.31429E+2
   1.78867E+2   4.94334E+2
  -1.82045E+2   3.03153E+2
  -5.47791E+2  -2.33987E+2
  -1.67075E+2  -4.67129E+2
   2.14180E+2  -4.58309E+1
   5.24605E+1   4.58607E+2
  -3.31051E+2   1.78374E+1
  -2.16025E+2  -5.74673E+2
   5.12223E+2  -1.94500E+2
   3.86425E+2   3.60520E+2
   1.17220E+1   4.22703E+2
   2.67398E+2  -4.05468E+2
   4.83978E+2  -2.25295E+2
   2.31334E+2   8.48293E+1
   2.36765E+2   5.50803E+2
  -2.35993E+1   7.26886E+2
  -4.80490E+2   2.04878E+2
  -3.08379E+2  -2.08097E+2
  -6.79865E+1  -5.19756E+2
   3.23164E+2  -1.08283E+2
   8.70454E+1   2.06565E+2
  -2.97653E+1   4.43947E+1
   2.35048E+2  -3.86428E+2
   4.93399E+2   1.46718E+2
   1.45599E+2   7.10058E+2
  -4.75292E+2   1.75704E+2
  -1.03571E+2  -2.21987E+2
   1.51253E+2  -1.46034E+2
   4.42516E+2   4.12010E+2
  -2.92059E+1   6.38331E+2
  -2.92437E+2  -6.51395E+1
  -2.38754E+2  -3.64944E+2
  -5.49943E+1  -3.99889E+2
   1.91897E+2  -1.01229E+2
   2.27551E+2   4.66115E+2
   4.87783E+0   2.11305E+2
  -3.30970E+1   2.48201E+2
   1.06576E+2   3.07503E+2
   7.32793E+1   2.18398E+2
   5.79480E+1   3.62820E+2
  -3.51324E+2   1.04765E+2
  -3.63577E+2  -5.82063E+1
   8.04140E+1  -1.45569E+2
   4.02617E+2   2.15544E+2
   1.22784E+2   9.68605E+1
   9.28476E+1  -1.05809E+2
   1.10837E+1   1.14366E+2
   7.75048E+1   1.00567E+2
   3.09513E+2   1.32908E+2
  -1.21497E+2  -7.47027E+0
   8.36258E+1  -2.25644E+2
   2.41988E+2  -1.88250E+1
   3.83154E+2   1.08047E+2
   2.33366E+1   2.93166E+2
  -1.67753E+2   1.16000E+2
  -9.95758E+1  -5.62730E+1
   4.43827E+1  -1.59117E+2
  -1.19410E+2   1.41904E+2
  -9.75280E+1  -3.91097E+1
   9.52424E+1  -9.57068E+1
   2.52832E+2  -5.13148E+1
   1.83874E+2  -9.73012E+0
  -3.04841E+2   9.02731E+1
  -6.72831E+1   8.23729E+1
   1.05389E+2  -2.24139E+2
   2.28449E+2  -1.25800E+2
   1.95120E+2   8.23644E+1
   1.89966E+2  -9.56313E+1
  -1.00636E+2   1.21117E+2
  -9.15684E+0  -9.57399E+1
   4.17131E+2  -1.00707E+2
   1.54956E+2   2.23031E+2
  -1.90125E+1   1.63662E+2
  -3.09580E+2  -9.37740E+1
   1.44190E+2  -1.98455E+2
  -1.24701E+2   8.50068E+1
  -6.33701E+0  -1.81658E+2
  -8.24928E+1   4.78369E+1
  -1.64312E+2   1.59455E+2
   8.53665E+1  -1.11302E+2
   1.01418E+2   6.51020E+1
  -4.56103E+1  -4.28633E+1
   2.54643E+2   1.67439E+2
   6.47398E+1   2.50065E+2
   6.23244E+1   2.27911E+2
  -4.91773E+1   1.63585E+2
   4.79719E+1  -1.34887E+2
   8.10424E+1  -2.06070E+2
   7.47379E+1  -2.60915E+2
   1.65953E+2  -1.05776E+2
   2.84209E+2  -8.09376E+1
  -4.45117E+1  -6.10505E+1
  -5.09616E+1   9.93964E+1
   8.26166E+1  -2.85200E+2
   2.03089E+2   1.83593E+1
   7.88116E+0   8.87085E+1
  -9.04185E+1   2.04758E+2
  -2.84647E+0  -5.66390E+1
   1.12021E+2  -4.92219E+1
  -1.10457E+1   4.14711E+1
  -1.09077E+2   1.40050E+2
  -5.15381E+1  -1.34761E+2
  -1.15942E+2  -1.41943E+2
   1.33616E+2  -5.35690E+0
  -1.47996E+2  -1.27749E+2
  -7.75529E+0   1.54346E+1
   1.36787E+2   1.62096E+2
  -1.41981E+2   4.40592E+1
   1.49736E+2  -6.90401E+1
  -3.71189E+1  -4.04995E+1
   1.63433E+2  -5.69372E+1
   8.89186E+1  -1.98522E+2
  -7.41412E+1  -1.74714E+2
   7.82444E+1  -1.59448E+2
  -6.18600E+0  -2.72237E+1
   2.01763E+2   1.15140E+2
   3.71061E+1  -8.43824E+1
   3.33791E+1  -7.14675E+1
   1.07670E+2   1.42954E+1
   2.44383E+2  -1.58206E+2
  -1.72195E+1   2.29691E+2
  -7.60719E+0  -1.24476E+2
  -1.99525E+1  -4.98245E+1
   2.13703E+2   9.16070E+1
   6.22225E+1   1.13612E+2
   2.46111E+2   1.40701E+2
  -2.81192E+1   1.43951E+2
   1.71689E+2  -9.07249E+0
  -7.09264E+1  -9.14596E+1
  -2.74837E+2  -2.14478E+2
   2.20557E+1   6.46495E+0
  -6.07116E+1   4.57288E+1
  -3.79475E+1   1.68228E+2
  -1.28371E+2  -5.31616E+1
  -1.01916E+2   1.06677E+2
  -4.81019E+1   2.32342E+2
   1.98163E+2   8.82181E+1
  -3.70653E+1  -1.98384E+2
  -5.17349E+1  -1.20679E+2
  -1.14613E+2   1.71931E+2
   8.02672E+1  -5.59468E+1
  -2.53436E+1  -4.46116E+1
   6.19767E+1  -1.83258E+2
   5.01642E+0   1.00495E+2
  -1.87307E+2  -1.21969E+2
   7.43101E+1  -2.08731E+2
   1.08708E+2  -8.78680E+1
  -1.54982E+2   1.73113E+2
  -2.81814E+2   1.24905E+2
  -8.90473E+1  -1.39113E+2
   5.09363E+1  -1.84723E+2
  -5.32958E+1  -9.34901E+1
  -6.33759E+1  -4.30062E+1
  -1.25455E+2  -2.33297E+2
  -1.46413E+2  -1.08859E+2
  -7.36874E+1  -1.22871E+2
   6.41975E+1  -5.80929E+1
  -2.78881E+1  -1.61732E+2
   9.80214E+1   1.13223E+2
   1.21725E+2   1.96622E+2
  -1.88796E+2  -1.86605E+2
  -1.39261E+2  -9.43383E+1
  -2.42063E-1  -2.21887E+2
  -2.45190E+2   6.79542E+1
   5.52553E+1  -1.19525E+2
   5.96965E+1  -1.36339E+2
   8.18093E+1  -7.98514E+1
   1.15525E+2   9.43327E+1
  -1.11900E+1  -1.85384E+1
   1.78693E+2   8.64271E+1
  -1.71614E+2  -1.85707E+2
   3.72846E+1  -2.68239E+1
  -1.39142E+2   5.76289E+1
   1.00448E+2   1.98001E+2
   1.15714E+2  -1.42989E+2
  -2.63001E+2  -1.45928E+2
  -2.93301E+1   1.58624E+2
  -4.60920E+0  -7.97897E+1
   1.91322E+1   1.05242E+2
   5.32748E+1   1.55049E+2
  -1.87602E+2  -6.36217E+1
  -5.16316E+1  -5.51351E+1
  -9.55536E+1  -9.38512E+1
   3.17988E+2  -4.33462E+1
   4.09496E+1   4.86684E+1
  -2.52387E+1   1.34041E+2
   3.97931E+1   2.03918E+2
  -3.33942E+1   8.31329E+1
  -5.43583E+1   1.26373E+2
   3.31080E+1  -1.24594E+2
   6.92853E+0   1.46172E+2
   7.05245E+1  -1.93994E+2
  -1.18743E+1  -1.01698E+2
  -3.05391E+1  -1.18808E+2
  -6.51121E+1  -8.67664E+1
   9.09823E-1  -2.82933E+1
   7.11353E+1  -8.33779E+1
   1.03556E+2  -7.86622E+1
   1.69081E+2   1.16794E+2
   1.61653E+2  -1.88544E+1
   3.56354E+1  -7.46536E+0
  -1.41041E+1   1.72124E+2
   8.06531E+1   7.57607E+1
  -2.20040E+1   5.26667E+1
  -2.39281E+2  -5.38155E+1
   5.76812E+0  -9.20749E+1
   1.62244E+2  -1.26472E+2
   2.39130E+2  -7.20828E+1
   4.01883E+1   1.40980E+2
   1.00253E+2   1.79340E+2
   3.28563E+2  -2.12007E+2
   1.29577E+2   1.38020E+2
   7.25823E+1  -6.78091E+1
   3.60308E-3   1.89531E+2
   8.23181E+1   4.92898E+1
   4.86460E+1  -1.20689E+2
  -1.46021E+2  -6.36415E+1
  -2.43879E+2  -6.22146E+1
  -9.81400E+1   3.57015E+1
  -2.67781E+2   1.51264E+2
   6.77871E+1   9.02602E+1
  -1.20472E+2  -1.35782E+2
   1.57594E+2   3.62853E+1
  -8.61108E+1   7.89882E+1
  -8.28929E+1   2.79230E+1
   8.43919E-1  -9.74052E+1
   2.06464E+2  -1.03893E+2
   6.64175E+1  -1.08434E+2
   9.67515E+1  -5.45403E+1
  -6.85285E+1  -3.60339E+1
   7.60360E+1  -4.15569E+1
   1.57893E+2   1.37491E+2
  -5.70563E+1  -1.02516E+2
   1.49353E+1   3.22959E+2
   3.64481E+2   1.10214E+2
   3.97994E+1   6.17361E+1
  -2.69209E+1  -1.26180E+2
   6.31846E+1  -9.48366E+0
  -3.96140E+1  -1.37367E+2
   9.57403E+1   1.70973E+2
  -6.38030E+1   1.91767E+1
   1.27928E+2   1.57249E+2
  -5.15104E+1  -1.34457E+2
   3.13793E+1   2.43027E+2
  -2.01878E+2  -1.37122E+2
   1.31808E+2  -2.34680E+1
   8.93250E+1   6.58892E+1
   2.04400E+2  -4.37310E+1
  -2.59280E+2  -1.66058E+1
   2.86622E+1  -1.85833E+1
   7.36865E+1   6.70170E+0
   1.05995E+2   8.11739E+1
   1.52526E+2   1.24430E+2
   1.00556E+2   8.15388E+1
   8.38804E+1  -2.29405E+1
   8.36289E+1   1.53234E+2
  -7.58251E+0  -1.49454E+2
   5.35789E+1   6.71434E+1
  -3.20615E+1  -1.52668E+2
  -9.51546E+1  -1.93230E+2
   1.76073E+2  -9.23929E+1
   4.61603E+1  -7.93798E+1
   1.26985E+2   1.05856E+2
  -1.47229E+2  -7.03668E+1
   9.86583E+1   7.31943E-2
  -5.90144E+0   3.01792E+1
  -1.26301E+1  -1.91039E+2
   2.38549E+2  -1.37121E+2
   1.30741E+2   6.17911E+1
   1.79919E+2   4.89671E+1
   1.02170E+2  -2.37520E+2
   1.40049E+2   7.26390E+1
  -6.23057E+1   1.19775E+2
  -1.29222E+2  -7.89515E+1
   1.40253E+2  -1.05291E+2
  -1.33576E+2  -1.18327E+2
   7.02343E+1   1.51175E+2
   2.12939E+2   7.23527E+1
   1.40655E+2   1.85789E+1
   9.36099E+1  -3.28162E+1
   1.67354E+2   1.19549E+2
  -1.74582E+2   1.04002E+2
  -7.46908E+0  -2.82975E+1
   1.27339E+2   2.10025E+1
   3.16436E+1   7.31999E+1
  -3.14146E+1   3.52055E+1
   1.17082E+2  -1.12230E+1
   8.52578E+1  -1.03250E+2
  -1.28805E+2  -1.32700E+2
