 
 $NMID
 ID=''
 FMTDAT='(2E13.5)'
 TRAMP=   1.00000E+0
 VOLUME=   1.00000E+0
 $END
   6.97695E+5   2.77624E+5
   1.49691E+6   1.40385E+6
   1.63063E+6   1.20973E+6
   1.47160E+6   1.19682E+6
   1.48572E+6   1.28637E+6
   1.50987E+6   1.22768E+6
   1.45588E+6   1.21423E+6
   1.46113E+6   1.25655E+6
   1.44324E+6   1.23514E+6
   1.38900E+6   1.26052E+6
   1.39112E+6   1.29166E+6
   1.36988E+6   1.26971E+6
   1.32190E+6   1.28851E+6
   1.31591E+6   1.31794E+6
   1.29075E+6   1.30493E+6
   1.24712E+6   1.31321E+6
   1.23938E+6   1.33899E+6
   1.22115E+6   1.33703E+6
   1.18900E+6   1.34021E+6
   1.17978E+6   1.34646E+6
   1.15792E+6   1.34796E+6
   1.13240E+6   1.35665E+6
   1.11922E+6   1.36105E+6
   1.09573E+6   1.36261E+6
   1.06669E+6   1.37187E+6
   1.05469E+6   1.37055E+6
   1.03125E+6   1.37502E+6
   1.00320E+6   1.38773E+6
   9.80294E+5   1.38908E+6
   9.59059E+5   1.38647E+6
   9.38912E+5   1.39632E+6
   9.21507E+5   1.39711E+6
   8.98216E+5   1.39601E+6
   8.80802E+5   1.39950E+6
   8.67342E+5   1.39493E+6
   8.52715E+5   1.39265E+6
   8.39178E+5   1.39917E+6
   8.23146E+5   1.39856E+6
   8.00982E+5   1.39406E+6
   7.84568E+5   1.39708E+6
   7.67339E+5   1.39606E+6
   7.46192E+5   1.39199E+6
   7.28368E+5   1.39021E+6
   7.12457E+5   1.39009E+6
   6.91081E+5   1.38753E+6
   6.72535E+5   1.38809E+6
   6.54656E+5   1.38810E+6
   6.32574E+5   1.38599E+6
   6.12639E+5   1.38052E+6
   5.97194E+5   1.37681E+6
   5.81108E+5   1.37473E+6
   5.62895E+5   1.37271E+6
   5.46287E+5   1.36906E+6
   5.29621E+5   1.36570E+6
   5.11406E+5   1.36227E+6
   4.91925E+5   1.35836E+6
   4.72051E+5   1.35352E+6
   4.53586E+5   1.34733E+6
   4.36869E+5   1.34186E+6
   4.19435E+5   1.33764E+6
   4.00749E+5   1.33319E+6
   3.82898E+5   1.32834E+6
   3.65425E+5   1.32423E+6
   3.46082E+5   1.31806E+6
   3.27290E+5   1.31004E+6
   3.11145E+5   1.30179E+6
   2.94539E+5   1.29479E+6
   2.77513E+5   1.28713E+6
   2.60715E+5   1.28152E+6
   2.42777E+5   1.27598E+6
   2.23911E+5   1.26856E+6
   2.06463E+5   1.25937E+6
   1.90832E+5   1.25275E+6
   1.73604E+5   1.24656E+6
   1.55005E+5   1.23857E+6
   1.38066E+5   1.22917E+6
   1.22552E+5   1.22167E+6
   1.05623E+5   1.21384E+6
   8.84841E+4   1.20542E+6
   7.22010E+4   1.19585E+6
   5.62260E+4   1.18653E+6
   4.03471E+4   1.17774E+6
   2.47206E+4   1.16904E+6
   7.76106E+3   1.15960E+6
  -9.01550E+3   1.15009E+6
  -2.46328E+4   1.14057E+6
  -3.92494E+4   1.13130E+6
  -5.51142E+4   1.12185E+6
  -7.02911E+4   1.11192E+6
  -8.38193E+4   1.10172E+6
  -9.65543E+4   1.09185E+6
  -1.09678E+5   1.08297E+6
  -1.23217E+5   1.07313E+6
  -1.35583E+5   1.06178E+6
  -1.47408E+5   1.05034E+6
  -1.57883E+5   1.04024E+6
  -1.68733E+5   1.03104E+6
  -1.80288E+5   1.02094E+6
  -1.91376E+5   1.01012E+6
  -2.01628E+5   9.99855E+5
  -2.11816E+5   9.90544E+5
  -2.23849E+5   9.80262E+5
  -2.34704E+5   9.68097E+5
  -2.43656E+5   9.55927E+5
  -2.51709E+5   9.45553E+5
  -2.60369E+5   9.35804E+5
  -2.69625E+5   9.25969E+5
  -2.78774E+5   9.14286E+5
  -2.86222E+5   9.01856E+5
  -2.91944E+5   8.90819E+5
  -2.98993E+5   8.80970E+5
  -3.07405E+5   8.70849E+5
  -3.15802E+5   8.59158E+5
  -3.23464E+5   8.47322E+5
  -3.30526E+5   8.36053E+5
  -3.37972E+5   8.24709E+5
  -3.45924E+5   8.12950E+5
  -3.52340E+5   8.00299E+5
  -3.57279E+5   7.87970E+5
  -3.61809E+5   7.77101E+5
  -3.68037E+5   7.66891E+5
  -3.73980E+5   7.56012E+5
  -3.79565E+5   7.44629E+5
  -3.84915E+5   7.33346E+5
  -3.90663E+5   7.21416E+5
  -3.95445E+5   7.08856E+5
  -3.99776E+5   6.97236E+5
  -4.04603E+5   6.85704E+5
  -4.09461E+5   6.74460E+5
  -4.14838E+5   6.62841E+5
  -4.20771E+5   6.50499E+5
  -4.25884E+5   6.37347E+5
  -4.30234E+5   6.24970E+5
  -4.34139E+5   6.13418E+5
  -4.38682E+5   6.01752E+5
  -4.42878E+5   5.89435E+5
  -4.45942E+5   5.77408E+5
  -4.49303E+5   5.66387E+5
  -4.53155E+5   5.55639E+5
  -4.56809E+5   5.43344E+5
  -4.59657E+5   5.30981E+5
  -4.61372E+5   5.19493E+5
  -4.62962E+5   5.09312E+5
  -4.66545E+5   4.98647E+5
  -4.69775E+5   4.87298E+5
  -4.71984E+5   4.75684E+5
  -4.73376E+5   4.64282E+5
  -4.75559E+5   4.52985E+5
  -4.76664E+5   4.42266E+5
  -4.77553E+5   4.31513E+5
  -4.78435E+5   4.21041E+5
  -4.78941E+5   4.11102E+5
  -4.79693E+5   4.01880E+5
  -4.80538E+5   3.92411E+5
  -4.81346E+5   3.82345E+5
  -4.80802E+5   3.72200E+5
  -4.80758E+5   3.63741E+5
  -4.80463E+5   3.54742E+5
  -4.79856E+5   3.45506E+5
  -4.79297E+5   3.36826E+5
  -4.78333E+5   3.28111E+5
  -4.77509E+5   3.19441E+5
  -4.76511E+5   3.10512E+5
  -4.74761E+5   3.01808E+5
  -4.72955E+5   2.93701E+5
  -4.71109E+5   2.86093E+5
  -4.70159E+5   2.78938E+5
  -4.68981E+5   2.71066E+5
  -4.66952E+5   2.63105E+5
  -4.64544E+5   2.55649E+5
  -4.62262E+5   2.48830E+5
  -4.60182E+5   2.41835E+5
  -4.58124E+5   2.34667E+5
  -4.55556E+5   2.27531E+5
  -4.52907E+5   2.20635E+5
  -4.50688E+5   2.14083E+5
  -4.48359E+5   2.07217E+5
  -4.45972E+5   1.99710E+5
  -4.42469E+5   1.92548E+5
  -4.39637E+5   1.87045E+5
  -4.37239E+5   1.80849E+5
  -4.34598E+5   1.74112E+5
  -4.31928E+5   1.67259E+5
  -4.28818E+5   1.60995E+5
  -4.25449E+5   1.55031E+5
  -4.22066E+5   1.49030E+5
  -4.19015E+5   1.43358E+5
  -4.15528E+5   1.37658E+5
  -4.11957E+5   1.32329E+5
  -4.09333E+5   1.27321E+5
  -4.06864E+5   1.21446E+5
  -4.03844E+5   1.15157E+5
  -4.00298E+5   1.08832E+5
  -3.96329E+5   1.03338E+5
  -3.93159E+5   9.79185E+4
  -3.89929E+5   9.25142E+4
  -3.86535E+5   8.68578E+4
  -3.83289E+5   8.12947E+4
  -3.80168E+5   7.58788E+4
  -3.77178E+5   7.01804E+4
  -3.73712E+5   6.44978E+4
  -3.69748E+5   5.90059E+4
  -3.65949E+5   5.45192E+4
  -3.62587E+5   4.99119E+4
  -3.59692E+5   4.44535E+4
  -3.56375E+5   3.95777E+4
  -3.52776E+5   3.44445E+4
  -3.49046E+5   2.99193E+4
  -3.45580E+5   2.52177E+4
  -3.42422E+5   2.04125E+4
  -3.38700E+5   1.58571E+4
  -3.34999E+5   1.15663E+4
  -3.31935E+5   7.54207E+3
  -3.28905E+5   2.96608E+3
  -3.25670E+5  -1.94419E+3
  -3.21262E+5  -6.28178E+3
  -3.17617E+5  -9.66313E+3
  -3.14111E+5  -1.33120E+4
  -3.10743E+5  -1.68412E+4
  -3.07353E+5  -2.05451E+4
  -3.03579E+5  -2.39430E+4
  -3.00269E+5  -2.70439E+4
  -2.96919E+5  -3.00690E+4
  -2.93799E+5  -3.39721E+4
  -2.89937E+5  -3.71574E+4
  -2.86219E+5  -3.97676E+4
  -2.82733E+5  -4.21008E+4
  -2.79884E+5  -4.48244E+4
  -2.76747E+5  -4.79497E+4
  -2.73217E+5  -5.08736E+4
  -2.69443E+5  -5.33556E+4
  -2.65980E+5  -5.53675E+4
  -2.62990E+5  -5.76251E+4
  -2.59899E+5  -5.97417E+4
  -2.56332E+5  -6.15894E+4
  -2.53046E+5  -6.34500E+4
  -2.50363E+5  -6.52682E+4
  -2.47031E+5  -6.73319E+4
  -2.43432E+5  -6.89173E+4
  -2.40471E+5  -7.05618E+4
  -2.37151E+5  -7.16572E+4
  -2.34238E+5  -7.35303E+4
  -2.31483E+5  -7.52811E+4
  -2.28134E+5  -7.69256E+4
  -2.24952E+5  -7.82905E+4
  -2.21807E+5  -7.91390E+4
  -2.18909E+5  -8.08107E+4
  -2.15897E+5  -8.21606E+4
  -2.12481E+5  -8.33796E+4
  -2.09753E+5  -8.40156E+4
  -2.07044E+5  -8.54861E+4
  -2.04498E+5  -8.65395E+4
  -2.01372E+5  -8.78169E+4
  -1.97930E+5  -8.88311E+4
  -1.95087E+5  -8.95368E+4
  -1.92322E+5  -9.05519E+4
  -1.89999E+5  -9.17644E+4
  -1.86627E+5  -9.29455E+4
  -1.83895E+5  -9.40707E+4
  -1.81044E+5  -9.51545E+4
  -1.78038E+5  -9.62705E+4
  -1.75067E+5  -9.73305E+4
  -1.71596E+5  -9.83776E+4
  -1.68926E+5  -9.87747E+4
  -1.66362E+5  -9.95940E+4
  -1.63819E+5  -1.00558E+5
  -1.60987E+5  -1.02021E+5
  -1.57877E+5  -1.02628E+5
  -1.55071E+5  -1.03235E+5
  -1.52552E+5  -1.03602E+5
  -1.49942E+5  -1.04332E+5
  -1.47191E+5  -1.05171E+5
  -1.44467E+5  -1.05743E+5
  -1.42244E+5  -1.06499E+5
  -1.39442E+5  -1.07532E+5
  -1.36871E+5  -1.08296E+5
  -1.33631E+5  -1.08849E+5
  -1.30969E+5  -1.09128E+5
  -1.28609E+5  -1.09533E+5
  -1.26192E+5  -1.10222E+5
  -1.23791E+5  -1.10668E+5
  -1.21078E+5  -1.11115E+5
  -1.18702E+5  -1.11427E+5
  -1.16241E+5  -1.11974E+5
  -1.13625E+5  -1.12365E+5
  -1.11177E+5  -1.12773E+5
  -1.08386E+5  -1.12379E+5
  -1.06544E+5  -1.12503E+5
  -1.04680E+5  -1.13060E+5
  -1.01995E+5  -1.13355E+5
  -9.97513E+4  -1.13955E+5
  -9.73146E+4  -1.13944E+5
  -9.52934E+4  -1.13839E+5
  -9.32148E+4  -1.14184E+5
  -9.08550E+4  -1.14391E+5
  -8.85668E+4  -1.14366E+5
  -8.67608E+4  -1.14458E+5
  -8.47144E+4  -1.14540E+5
  -8.26571E+4  -1.14655E+5
  -8.01620E+4  -1.14678E+5
  -7.80987E+4  -1.14400E+5
  -7.61653E+4  -1.14083E+5
  -7.45603E+4  -1.14303E+5
  -7.25478E+4  -1.14412E+5
  -7.00705E+4  -1.14789E+5
  -6.82233E+4  -1.13888E+5
  -6.63992E+4  -1.13829E+5
  -6.46692E+4  -1.13873E+5
  -6.24918E+4  -1.13616E+5
  -6.05968E+4  -1.13413E+5
  -5.86889E+4  -1.13008E+5
  -5.72058E+4  -1.12876E+5
  -5.55008E+4  -1.13048E+5
  -5.31176E+4  -1.13036E+5
  -5.14234E+4  -1.12096E+5
  -4.98893E+4  -1.11946E+5
  -4.80483E+4  -1.11451E+5
  -4.62749E+4  -1.11461E+5
  -4.48301E+4  -1.11099E+5
  -4.31147E+4  -1.10461E+5
  -4.17114E+4  -1.10280E+5
  -3.96289E+4  -1.10307E+5
  -3.79789E+4  -1.09748E+5
  -3.61469E+4  -1.08887E+5
  -3.47686E+4  -1.08592E+5
  -3.31207E+4  -1.08335E+5
  -3.18976E+4  -1.08095E+5
  -3.00016E+4  -1.07814E+5
  -2.80616E+4  -1.07103E+5
  -2.66126E+4  -1.06496E+5
  -2.54666E+4  -1.05814E+5
  -2.40342E+4  -1.05310E+5
  -2.23980E+4  -1.04871E+5
  -2.12917E+4  -1.04444E+5
  -1.97292E+4  -1.03642E+5
  -1.82480E+4  -1.03420E+5
  -1.66364E+4  -1.02886E+5
  -1.50466E+4  -1.02186E+5
  -1.36110E+4  -1.01288E+5
  -1.26179E+4  -1.00679E+5
  -1.13185E+4  -1.00443E+5
  -9.73792E+3  -9.94985E+4
  -8.33516E+3  -9.90755E+4
  -6.81428E+3  -9.81484E+4
  -5.51712E+3  -9.77332E+4
  -4.44052E+3  -9.68684E+4
  -3.02103E+3  -9.61844E+4
  -1.86664E+3  -9.53502E+4
  -9.31862E+2  -9.47511E+4
   6.20910E+2  -9.42731E+4
   1.74496E+3  -9.36931E+4
   3.34637E+3  -9.29137E+4
   4.35804E+3  -9.19288E+4
   5.29336E+3  -9.11364E+4
   6.31548E+3  -9.03351E+4
   7.82656E+3  -8.95486E+4
   8.66446E+3  -8.86987E+4
   9.59877E+3  -8.81941E+4
   1.05823E+4  -8.77003E+4
   1.20633E+4  -8.66995E+4
   1.30896E+4  -8.57693E+4
   1.39798E+4  -8.48433E+4
   1.48540E+4  -8.38773E+4
   1.54467E+4  -8.33297E+4
   1.67877E+4  -8.25817E+4
   1.74008E+4  -8.17233E+4
   1.83895E+4  -8.09718E+4
