 LCModel (Version 6.3-1N) Copyright: S.W. Provencher.          Ref.: Magn. Reson. Med. 30:672-679 (1993).                
 Slice_N1@17_11  28-Feb-2025 11:38:51
 27 lines in following concentration table = NCONC+1
    Conc.  %SD /Cr+PCr  Metabolite                                         
 2.03E-04   7% 1.6E-04 Mac                                                 
    5.026  33%   3.859 Cr                                                  
    5.393  30%   4.141 PCr                                                 
    8.159  13%   6.265 Ins                                                 
   12.119   7%   9.306 NAA                                                 
    7.786  13%   5.979 Tau                                                 
    0.726 155%   0.557 PCho                                                
    1.172  90%   0.900 GPC                                                 
   11.348  10%   8.714 Glu                                                 
    3.952  22%   3.035 Gln                                                 
    0.000 999%   0.000 Ala                                                 
    2.282  62%   1.752 Asc                                                 
    3.292  36%   2.528 Asp                                                 
    1.092  56%   0.839 GABA                                                
    0.718 115%   0.551 Glc                                                 
    1.139  47%   0.875 GSH                                                 
    4.387  18%   3.369 Lac                                                 
    1.483  48%   1.138 NAAG                                                
    2.692  49%   2.067 PE                                                  
    1.898  18%   1.458 GPC+PCho                                            
   13.602   7%  10.444 NAA+NAAG                                            
   15.300   9%  11.748 Glu+Gln                                             
   10.419   8%   8.000 Cr+PCr                                              
   13.602   7%  10.444 NAA+NAAG                                            
   10.419   8%   8.000 Cr+PCr                                              
   15.300   9%  11.748 Glu+Gln                                             
   6 lines in following misc. output table
  FWHM = 0.033 ppm    S/N =   4                                            
  Data shift = 0.016 ppm                                                   
  Ph:-172 deg       0.0 deg/ppm                                            
  alphaB,S = 1.1E-01,   2.6E+01                                            
   19 spline knots.   Ns = 5(1)                                            
  ( 6) 3 infls.   ( 4) 2 extrs.                                            
  480 points on ppm-axis = NY
      4.100000     4.091866     4.083733     4.075600     4.067466     4.059333     4.051199     4.043066     4.034933     4.026799
      4.018666     4.010532     4.002399     3.994265     3.986132     3.977998     3.969864     3.961731     3.953597     3.945463
      3.937330     3.929196     3.921062     3.912929     3.904795     3.896662     3.888528     3.880394     3.872261     3.864127
      3.855993     3.847860     3.839726     3.831592     3.823459     3.815325     3.807191     3.799058     3.790924     3.782790
      3.774657     3.766523     3.758389     3.750256     3.742122     3.733989     3.725855     3.717721     3.709588     3.701454
      3.693320     3.685187     3.677053     3.668919     3.660786     3.652652     3.644518     3.636385     3.628251     3.620117
      3.611984     3.603850     3.595716     3.587583     3.579449     3.571316     3.563182     3.555048     3.546915     3.538781
      3.530647     3.522514     3.514380     3.506246     3.498113     3.489979     3.481845     3.473712     3.465578     3.457444
      3.449311     3.441177     3.433043     3.424910     3.416776     3.408643     3.400509     3.392375     3.384242     3.376108
      3.367974     3.359841     3.351707     3.343573     3.335440     3.327306     3.319172     3.311039     3.302905     3.294771
      3.286638     3.278504     3.270370     3.262237     3.254103     3.245970     3.237836     3.229702     3.221569     3.213435
      3.205301     3.197168     3.189034     3.180900     3.172767     3.164633     3.156499     3.148366     3.140232     3.132098
      3.123965     3.115831     3.107697     3.099564     3.091430     3.083297     3.075163     3.067029     3.058896     3.050762
      3.042628     3.034495     3.026361     3.018227     3.010094     3.001960     2.993826     2.985693     2.977559     2.969425
      2.961292     2.953158     2.945024     2.936891     2.928757     2.920624     2.912490     2.904356     2.896223     2.888089
      2.879955     2.871822     2.863688     2.855554     2.847421     2.839287     2.831153     2.823020     2.814886     2.806752
      2.798619     2.790485     2.782351     2.774218     2.766084     2.757951     2.749817     2.741683     2.733550     2.725416
      2.717282     2.709149     2.701015     2.692881     2.684748     2.676614     2.668480     2.660347     2.652213     2.644079
      2.635946     2.627812     2.619678     2.611545     2.603411     2.595278     2.587144     2.579010     2.570877     2.562743
      2.554609     2.546476     2.538342     2.530208     2.522075     2.513941     2.505807     2.497674     2.489540     2.481406
      2.473273     2.465139     2.457006     2.448872     2.440738     2.432605     2.424471     2.416337     2.408204     2.400070
      2.391936     2.383803     2.375669     2.367535     2.359402     2.351268     2.343134     2.335001     2.326867     2.318733
      2.310600     2.302466     2.294333     2.286199     2.278065     2.269932     2.261798     2.253664     2.245531     2.237397
      2.229263     2.221130     2.212996     2.204862     2.196729     2.188595     2.180461     2.172328     2.164194     2.156060
      2.147927     2.139793     2.131660     2.123526     2.115392     2.107259     2.099125     2.090991     2.082858     2.074724
      2.066590     2.058457     2.050323     2.042189     2.034056     2.025922     2.017788     2.009655     2.001521     1.993387
      1.985254     1.977120     1.968987     1.960853     1.952719     1.944586     1.936452     1.928318     1.920185     1.912051
      1.903917     1.895784     1.887650     1.879516     1.871383     1.863249     1.855115     1.846982     1.838848     1.830714
      1.822581     1.814447     1.806314     1.798180     1.790046     1.781913     1.773779     1.765645     1.757512     1.749378
      1.741244     1.733111     1.724977     1.716843     1.708710     1.700576     1.692442     1.684309     1.676175     1.668041
      1.659908     1.651774     1.643641     1.635507     1.627373     1.619240     1.611106     1.602972     1.594839     1.586705
      1.578571     1.570438     1.562304     1.554170     1.546037     1.537903     1.529769     1.521636     1.513502     1.505368
      1.497235     1.489101     1.480968     1.472834     1.464700     1.456567     1.448433     1.440299     1.432166     1.424032
      1.415898     1.407765     1.399631     1.391497     1.383364     1.375230     1.367096     1.358963     1.350829     1.342695
      1.334562     1.326428     1.318295     1.310161     1.302027     1.293894     1.285760     1.277626     1.269493     1.261359
      1.253225     1.245092     1.236958     1.228824     1.220691     1.212557     1.204423     1.196290     1.188156     1.180022
      1.171889     1.163755     1.155622     1.147488     1.139354     1.131221     1.123087     1.114953     1.106820     1.098686
      1.090552     1.082419     1.074285     1.066151     1.058018     1.049884     1.041750     1.033617     1.025483     1.017349
      1.009216     1.001082     0.992949     0.984815     0.976681     0.968548     0.960414     0.952280     0.944147     0.936013
      0.927879     0.919746     0.911612     0.903478     0.895345     0.887211     0.879077     0.870944     0.862810     0.854676
      0.846543     0.838409     0.830276     0.822142     0.814008     0.805875     0.797741     0.789607     0.781474     0.773340
      0.765206     0.757073     0.748939     0.740805     0.732672     0.724538     0.716404     0.708271     0.700137     0.692003
      0.683870     0.675736     0.667603     0.659469     0.651335     0.643202     0.635068     0.626934     0.618801     0.610667
      0.602533     0.594400     0.586266     0.578132     0.569999     0.561865     0.553731     0.545598     0.537464     0.529330
      0.521197     0.513063     0.504930     0.496796     0.488662     0.480529     0.472395     0.464261     0.456128     0.447994
      0.439861     0.431727     0.423593     0.415460     0.407326     0.399192     0.391059     0.382925     0.374792     0.366658
      0.358524     0.350391     0.342257     0.334124     0.325990     0.317856     0.309723     0.301589     0.293455     0.285322
      0.277188     0.269055     0.260921     0.252787     0.244654     0.236520     0.228386     0.220253     0.212119     0.203986
 NY phased data points follow
  -7.02956E+01 -7.27855E+01 -8.84434E+01 -8.43997E+01 -8.10187E+01 -6.95130E+01 -6.46930E+01 -5.76933E+01 -6.89029E+01 -7.20524E+01
  -8.29182E+01 -8.40123E+01 -7.53519E+01 -1.01616E+02 -1.02197E+02 -1.04913E+02 -1.00445E+02 -1.05650E+02 -1.09341E+02 -1.30297E+02
  -1.39105E+02 -1.05726E+02 -9.41599E+01 -5.66604E+01 -3.40380E+01 -1.19711E+01 -5.18276E+00 -1.55231E+01 -1.32963E+01 -2.17734E+01
  -1.57290E+01 -5.26782E+00 -9.98308E+00 -2.01493E+01 -1.40783E+01 -2.28884E+01 -2.18879E+01 -2.76807E+01 -3.30979E+01 -6.78420E+01
  -1.10323E+02 -9.30507E+01 -9.38895E+01 -6.80410E+01 -3.70395E+01 -1.26035E+01  9.20100E-02  6.79591E+00  1.93572E+01  2.06095E+01
   1.36469E+01 -8.30271E+00  3.02124E+00 -2.18082E+01 -2.29225E+01 -2.56685E+01 -4.03724E+01 -3.24811E+01 -6.71323E+01 -6.09547E+01
  -4.47234E+01 -1.74841E+01 -1.35771E+01  1.51474E-01  1.87068E+01 -6.69466E+00 -4.16237E+00 -2.64582E+01 -4.20118E+01 -5.99169E+01
  -5.82216E+01 -3.93325E+01 -4.47447E+01 -2.44524E+01 -5.77474E+00  1.23533E+01  1.86815E+01  1.75703E+01  1.92466E+01  1.82471E+01
   9.05684E+00 -8.24062E+00 -1.59466E+01 -3.12088E+01 -3.89882E+01 -4.10284E+01 -4.31339E+01 -1.87962E+01  8.43687E+00  1.94033E+01
   2.04187E+01  2.83933E+01  4.23591E+01  3.58084E+01  3.22971E+01  3.44742E+01  3.99753E+01  4.37306E+01  3.80727E+01  3.49473E+01
   2.23534E+01  1.80462E+01  2.83523E+00 -1.65619E+01 -1.43092E+01 -3.50985E+01 -7.35725E+01 -7.40586E+01 -8.77017E+01 -1.28959E+02
  -1.47487E+02 -1.82996E+02 -1.62787E+02 -1.02372E+02 -8.34888E+01 -6.67515E+01 -5.59745E+01 -4.23030E+01 -3.76891E+01 -3.46738E+01
  -3.10736E+01 -2.80148E+01 -1.73673E+01 -1.96985E+01 -1.06586E+01  1.53593E+01  2.77829E+01  3.67669E+01  6.64898E+01  8.44769E+01
   9.62388E+01  7.36517E+01 -2.28781E+01 -1.20925E+02 -1.54752E+02 -1.33934E+02 -1.21557E+02 -1.15335E+02 -1.13816E+02 -1.11396E+02
  -9.59557E+01 -1.00991E+02 -9.88470E+01 -1.08741E+02 -1.14862E+02 -8.22363E+01 -8.10967E+01 -8.81978E+01 -7.73771E+01 -7.48255E+01
  -6.51624E+01 -6.64832E+01 -8.83953E+01 -8.02662E+01 -5.39307E+01 -6.17704E+01 -6.03053E+01 -5.96869E+01 -5.96098E+01 -4.60819E+01
  -5.60165E+01 -4.11223E+01 -3.97509E+01 -4.77919E+01 -4.73955E+01 -6.69297E+01 -6.25837E+01 -5.34963E+01 -3.34057E+01 -2.70441E+01
  -3.81532E+01 -2.28054E+01 -7.19687E+00 -9.20409E+00 -1.44344E+01 -2.09275E+01 -1.76556E+01 -1.75881E+00 -2.06050E+01 -5.07793E+01
  -6.84158E+01 -6.22005E+01 -7.04719E+01 -8.00351E+01 -6.34279E+01 -8.24795E+01 -6.57208E+01 -5.75114E+01 -7.98685E+01 -6.89277E+01
  -4.79555E+01 -4.69721E+01 -5.90257E+01 -3.90723E+01 -3.94836E+01 -3.95620E+01 -4.05748E+01 -3.66566E+01 -2.93395E+01 -3.91130E+01
  -3.16203E+01 -4.26973E+01 -2.63191E+01 -2.21636E+01 -2.50187E+01 -2.28360E+01 -4.28777E+01 -4.67327E+01 -7.38993E+01 -7.67029E+01
  -7.35870E+01 -7.39343E+01 -5.77386E+01 -4.26947E+01 -1.47732E+01  3.37887E+00  3.35697E+01  3.32054E+01  8.95231E+00  9.08068E+00
  -1.55426E+01 -2.85015E+01 -2.71727E+01 -2.84967E+01 -1.46752E+01 -2.91090E+01 -1.15867E+01 -3.94220E+00 -3.20921E+01 -1.85251E+01
  -2.79359E+01 -3.77567E+01 -5.27121E+01 -6.05319E+01 -6.24774E+01 -8.68577E+01 -8.13914E+01 -9.02789E+01 -9.12500E+01 -8.08177E+01
  -8.70297E+01 -8.67769E+01 -6.57205E+01 -5.62167E+01 -5.03808E+01 -2.57304E+01 -5.19370E+01 -6.65793E+01 -5.96314E+01 -7.24440E+01
  -7.59159E+01 -9.03848E+01 -9.69680E+01 -8.62179E+01 -1.02648E+02 -1.27546E+02 -9.39834E+01  6.53764E+00  1.35143E+02  1.87808E+02
   1.57451E+02  1.25017E+02  1.08460E+02  8.92830E+01  6.14694E+01  6.17879E+01  4.71948E+01  3.59916E+01  4.94682E+01  4.67274E+01
   4.96408E+01  4.25340E+01  4.24798E+01  4.07461E+01  3.70740E+01  5.38642E+01  3.99775E+01  3.39694E+01  3.97861E+01  2.88196E+01
   3.91846E+01  3.76132E+01  2.85005E+01  2.32446E+01  1.67434E+01  2.21473E+01  2.45341E+01  2.60376E+01  1.79992E+01  2.39894E+01
   1.69533E+01 -5.34714E+00 -7.21872E+00 -1.32049E+01 -1.90590E+01 -2.66771E+01 -1.70546E+01 -2.55685E+01 -3.85496E+01 -2.02643E+01
  -1.56957E+01 -1.53784E+01 -1.14039E+01  4.38351E+00  1.36552E+00  6.03269E+00  2.93194E+01  2.44972E+01  3.19165E+01  4.69919E+01
   5.37876E+01  4.56573E+01  4.95447E+01  6.70249E+01  5.55779E+01  4.38240E+01  3.81797E+01  5.13260E+01  6.40637E+01  4.65531E+01
   4.24270E+01  4.12415E+01  2.85647E+01  2.50877E+01  3.02009E+01  4.65891E+01  5.76229E+01  6.74281E+01  7.95658E+01  7.24376E+01
   7.79025E+01  9.27605E+01  9.26990E+01  8.29771E+01  6.32184E+01  6.82167E+01  7.71572E+01  6.45875E+01  6.71714E+01  6.03758E+01
   4.32018E+01  3.97006E+01  3.25440E+01  2.82679E+01  2.15769E+01  2.22966E+01  2.76076E+01  2.71736E+01  3.87410E+01  4.28389E+01
   4.56892E+01  4.30602E+01  3.90224E+01  3.66704E+01  2.30920E+01  2.51730E+01  1.70332E+01 -2.97864E+00 -4.82801E+00  4.02462E-01
  -6.99662E+00 -5.07712E+00 -5.12498E+00 -1.36702E+01  6.65007E-01 -3.63780E+00 -9.65091E-02  2.10419E+00 -3.62498E-01  1.10469E+01
   2.78243E+00  9.43425E+00  7.81217E+00  1.14170E+01  2.02523E+01  2.48931E+01  4.11503E+01  4.52609E+01  5.11600E+01  4.84706E+01
   5.48053E+01  7.18082E+01  7.23353E+01  6.53710E+01  8.49045E+01  9.36148E+01  8.92962E+01  1.15479E+02  1.09547E+02  1.04164E+02
   1.05766E+02  7.92300E+01  5.65599E+01  3.80295E+01  2.22589E+01  2.07473E+01  2.51687E+01  9.92184E+00  8.78430E+00  6.99513E+00
  -1.74116E+01 -3.38213E+01 -3.73228E+01 -4.48702E+01 -5.11485E+01 -4.06495E+01 -5.06998E+01 -5.39981E+01 -5.30785E+01 -5.37974E+01
  -4.39759E+01 -5.31589E+01 -4.11836E+01 -3.34675E+01 -4.42733E+01 -5.61747E+01 -5.28884E+01 -2.91362E+01 -3.63911E+01 -3.93029E+01
  -3.91937E+01 -4.13021E+01 -2.97182E+01 -3.77863E+01 -4.39379E+01 -4.21184E+01 -4.24745E+01 -4.16140E+01 -4.16318E+01 -3.43497E+01
  -2.73045E+01 -4.80193E+01 -4.91592E+01 -2.88941E+01 -4.14356E+01 -3.73960E+01 -3.70483E+01 -4.21098E+01 -3.58551E+01 -3.85963E+01
  -2.70334E+01 -4.22165E+01 -5.37387E+01 -3.17685E+01 -2.67935E+01 -2.67919E+01 -2.34770E+01 -3.08321E+01 -3.35530E+01 -2.81466E+01
  -3.80583E+01 -5.20160E+01 -4.10963E+01 -3.19030E+01 -3.12113E+01 -2.59622E+01 -3.96902E+01 -3.92928E+01 -2.92399E+01 -3.29646E+01
  -3.59294E+01 -3.18522E+01 -3.16673E+01 -3.57004E+01 -2.70731E+01 -4.51251E+01 -3.93823E+01 -2.32489E+01 -2.70842E+01 -2.98412E+01
  -4.56566E+01 -3.05997E+01 -2.82255E+01 -3.14249E+01 -3.48686E+01 -3.79542E+01 -3.74460E+01 -3.93003E+01 -2.31498E+01 -2.93943E+01
 NY points of the fit to the data follow
  -8.50943E+01 -8.67931E+01 -8.90221E+01 -8.88169E+01 -8.26053E+01 -7.03643E+01 -5.86338E+01 -5.48651E+01 -6.08080E+01 -7.17891E+01
  -8.17807E+01 -8.78886E+01 -9.06455E+01 -9.16169E+01 -9.17866E+01 -9.23302E+01 -9.44360E+01 -9.98633E+01 -1.09982E+02 -1.21345E+02
  -1.24988E+02 -1.13231E+02 -8.62323E+01 -5.22891E+01 -2.24310E+01 -4.43189E+00  8.18323E-01 -9.44213E-02 -2.05122E+00 -3.45046E+00
  -4.33729E+00 -6.62228E+00 -9.69822E+00 -1.30918E+01 -1.70206E+01 -2.19683E+01 -2.88281E+01 -3.88492E+01 -5.32524E+01 -7.08526E+01
  -8.59046E+01 -9.07647E+01 -8.18233E+01 -6.21694E+01 -3.87289E+01 -1.78754E+01 -3.46027E+00  3.76100E+00  5.42273E+00  3.51882E+00
  -2.82516E-01 -5.61152E+00 -1.28480E+01 -2.21335E+01 -3.22092E+01 -4.04655E+01 -4.56620E+01 -4.97560E+01 -5.31644E+01 -5.27705E+01
  -4.62701E+01 -3.52939E+01 -2.26352E+01 -9.54612E+00  7.55284E-01  4.43348E+00 -7.36846E-01 -1.65599E+01 -3.80806E+01 -5.44437E+01
  -5.82502E+01 -5.00124E+01 -3.61175E+01 -2.10955E+01 -6.40033E+00  6.08591E+00  1.46631E+01  1.83208E+01  1.74320E+01  1.28762E+01
   3.62642E+00 -1.12556E+01 -2.95680E+01 -4.60314E+01 -5.47066E+01 -5.20855E+01 -3.94791E+01 -2.22334E+01 -5.94276E+00  5.38240E+00
   1.23881E+01  1.70063E+01  2.10441E+01  2.54896E+01  2.98325E+01  3.39422E+01  3.76001E+01  3.98406E+01  4.01283E+01  3.93301E+01
   3.69488E+01  3.04513E+01  1.80048E+01  7.87630E-01 -1.79343E+01 -3.50776E+01 -4.81438E+01 -6.11885E+01 -8.49678E+01 -1.21399E+02
  -1.54205E+02 -1.63008E+02 -1.42454E+02 -1.09685E+02 -8.24009E+01 -6.70221E+01 -5.95562E+01 -5.28704E+01 -4.61609E+01 -3.94419E+01
  -3.24884E+01 -2.49384E+01 -1.64408E+01 -6.69407E+00  4.55557E+00  1.77779E+01  3.40373E+01  5.25321E+01  7.19324E+01  8.96915E+01
   9.17260E+01  5.57438E+01 -2.02963E+01 -1.03171E+02 -1.50758E+02 -1.52496E+02 -1.30390E+02 -1.09016E+02 -1.00520E+02 -9.82154E+01
  -9.61875E+01 -9.44665E+01 -9.32011E+01 -9.20508E+01 -9.07228E+01 -8.88150E+01 -8.63095E+01 -8.33597E+01 -8.03765E+01 -7.77035E+01
  -7.53760E+01 -7.32286E+01 -7.08702E+01 -6.80890E+01 -6.49628E+01 -6.21132E+01 -6.03074E+01 -5.97298E+01 -5.94723E+01 -5.81625E+01
  -5.56174E+01 -5.35414E+01 -5.39292E+01 -5.66882E+01 -5.95250E+01 -6.03767E+01 -5.91712E+01 -5.67172E+01 -5.29773E+01 -4.63647E+01
  -3.58186E+01 -2.41598E+01 -1.71898E+01 -1.76887E+01 -2.12712E+01 -2.12687E+01 -1.75110E+01 -1.70166E+01 -2.54589E+01 -4.03925E+01
  -5.43443E+01 -6.24364E+01 -6.55055E+01 -6.64162E+01 -6.67388E+01 -6.68220E+01 -6.63942E+01 -6.58755E+01 -6.53333E+01 -6.41717E+01
  -6.21979E+01 -5.92832E+01 -5.41067E+01 -4.63672E+01 -3.85802E+01 -3.37352E+01 -3.17560E+01 -2.99412E+01 -2.80447E+01 -2.76895E+01
  -2.82282E+01 -2.82177E+01 -2.65835E+01 -2.57484E+01 -2.89855E+01 -3.53023E+01 -4.32452E+01 -5.14398E+01 -5.92473E+01 -6.62723E+01
  -7.03503E+01 -6.88116E+01 -5.98403E+01 -4.27067E+01 -1.90773E+01  5.56713E+00  2.42668E+01  3.20285E+01  2.86272E+01  1.80429E+01
   5.05918E+00 -3.95745E+00 -7.57169E+00 -7.76794E+00 -7.11625E+00 -9.31709E+00 -1.46365E+01 -2.24306E+01 -3.18855E+01 -4.18745E+01
  -5.17250E+01 -6.09767E+01 -6.92770E+01 -7.66629E+01 -8.28576E+01 -8.75992E+01 -9.07516E+01 -9.20529E+01 -9.14876E+01 -8.91018E+01
  -8.49194E+01 -7.86631E+01 -7.04234E+01 -6.15361E+01 -5.40700E+01 -4.96033E+01 -4.93643E+01 -5.30389E+01 -5.91106E+01 -6.67585E+01
  -7.53237E+01 -8.66391E+01 -9.85221E+01 -1.10939E+02 -1.25842E+02 -1.27909E+02 -8.82534E+01 -2.33556E+00  9.07092E+01  1.40568E+02
   1.37657E+02  1.08248E+02  8.06401E+01  6.95536E+01  6.40909E+01  5.94308E+01  5.48865E+01  5.05653E+01  4.69154E+01  4.43179E+01
   4.29186E+01  4.26343E+01  4.31324E+01  4.40124E+01  4.48446E+01  4.52807E+01  4.53174E+01  4.48418E+01  4.39525E+01  4.26841E+01
   4.10756E+01  3.94198E+01  3.78068E+01  3.62668E+01  3.47044E+01  3.30497E+01  3.13082E+01  2.94225E+01  2.73074E+01  2.49249E+01
   2.23708E+01  1.98570E+01  1.76479E+01  1.60311E+01  1.53440E+01  1.57681E+01  1.72362E+01  1.94266E+01  2.18961E+01  2.44013E+01
   2.68895E+01  2.93729E+01  3.17892E+01  3.40762E+01  3.62209E+01  3.83165E+01  4.05080E+01  4.28743E+01  4.53264E+01  4.76598E+01
   4.97034E+01  5.14714E+01  5.30642E+01  5.44937E+01  5.56449E+01  5.63863E+01  5.66530E+01  5.63832E+01  5.56121E+01  5.44603E+01
   5.30287E+01  5.13178E+01  4.92628E+01  4.67781E+01  4.37230E+01  3.98577E+01  3.50223E+01  2.94454E+01  2.38550E+01  1.91006E+01
   1.58011E+01  1.43600E+01  1.49973E+01  1.78294E+01  2.27125E+01  2.92132E+01  3.63879E+01  4.31950E+01  4.83161E+01  4.87835E+01
   4.13998E+01  2.60753E+01  7.15524E+00 -8.36382E+00 -1.49003E+01 -1.13481E+01 -1.49130E+00  8.14379E+00  1.41688E+01  1.61580E+01
   1.53160E+01  1.35960E+01  1.11833E+01  8.48249E+00  6.13039E+00  4.70419E+00  4.43740E+00  5.23873E+00  6.83868E+00  8.95951E+00
   1.13931E+01  1.39964E+01  1.65987E+01  1.90636E+01  2.12874E+01  2.32436E+01  2.50341E+01  2.67878E+01  2.85828E+01  3.04265E+01
   3.22631E+01  3.41501E+01  3.61978E+01  3.85560E+01  4.13066E+01  4.44051E+01  4.78418E+01  5.16762E+01  5.59167E+01  6.04500E+01
   6.51595E+01  6.99981E+01  7.47461E+01  7.89182E+01  8.17230E+01  8.23301E+01  8.00953E+01  7.48417E+01  6.70797E+01  5.80390E+01
   4.92081E+01  4.15792E+01  3.53274E+01  3.00313E+01  2.49337E+01  1.93673E+01  1.29863E+01  6.01285E+00 -1.01069E+00 -7.43870E+00
  -1.27791E+01 -1.68710E+01 -1.98757E+01 -2.20912E+01 -2.37544E+01 -2.50558E+01 -2.61425E+01 -2.71761E+01 -2.82110E+01 -2.91992E+01
  -2.99833E+01 -3.05340E+01 -3.09366E+01 -3.13316E+01 -3.17272E+01 -3.20882E+01 -3.24493E+01 -3.28536E+01 -3.32262E+01 -3.34736E+01
  -3.36491E+01 -3.38768E+01 -3.41841E+01 -3.44853E+01 -3.47456E+01 -3.49836E+01 -3.51953E+01 -3.53205E+01 -3.53252E+01 -3.53287E+01
  -3.54607E+01 -3.57471E+01 -3.60831E+01 -3.63378E+01 -3.64337E+01 -3.63954E+01 -3.63012E+01 -3.62349E+01 -3.62393E+01 -3.62959E+01
  -3.63814E+01 -3.64651E+01 -3.65944E+01 -3.67743E+01 -3.69641E+01 -3.70712E+01 -3.70587E+01 -3.69708E+01 -3.68905E+01 -3.68881E+01
  -3.69484E+01 -3.70218E+01 -3.70129E+01 -3.68982E+01 -3.67472E+01 -3.66179E+01 -3.65498E+01 -3.65248E+01 -3.64880E+01 -3.64439E+01
  -3.64453E+01 -3.65255E+01 -3.66355E+01 -3.66999E+01 -3.66466E+01 -3.64669E+01 -3.61508E+01 -3.57889E+01 -3.55104E+01 -3.54508E+01
  -3.56089E+01 -3.58188E+01 -3.58889E+01 -3.57660E+01 -3.55285E+01 -3.52811E+01 -3.50684E+01 -3.49158E+01 -3.47583E+01 -3.44782E+01
 NY background values follow
    -5.491E+01   -5.450E+01   -5.408E+01   -5.366E+01   -5.324E+01   -5.282E+01   -5.240E+01   -5.197E+01   -5.155E+01   -5.112E+01
    -5.070E+01   -5.027E+01   -4.985E+01   -4.942E+01   -4.899E+01   -4.856E+01   -4.813E+01   -4.770E+01   -4.727E+01   -4.684E+01
    -4.641E+01   -4.598E+01   -4.555E+01   -4.512E+01   -4.469E+01   -4.426E+01   -4.383E+01   -4.340E+01   -4.297E+01   -4.254E+01
    -4.211E+01   -4.168E+01   -4.125E+01   -4.082E+01   -4.039E+01   -3.997E+01   -3.954E+01   -3.912E+01   -3.870E+01   -3.829E+01
    -3.787E+01   -3.747E+01   -3.706E+01   -3.666E+01   -3.626E+01   -3.587E+01   -3.549E+01   -3.511E+01   -3.473E+01   -3.437E+01
    -3.400E+01   -3.365E+01   -3.330E+01   -3.296E+01   -3.263E+01   -3.231E+01   -3.199E+01   -3.169E+01   -3.139E+01   -3.110E+01
    -3.082E+01   -3.056E+01   -3.030E+01   -3.005E+01   -2.981E+01   -2.959E+01   -2.937E+01   -2.916E+01   -2.896E+01   -2.877E+01
    -2.859E+01   -2.841E+01   -2.825E+01   -2.810E+01   -2.795E+01   -2.781E+01   -2.768E+01   -2.756E+01   -2.745E+01   -2.734E+01
    -2.725E+01   -2.716E+01   -2.708E+01   -2.700E+01   -2.694E+01   -2.688E+01   -2.683E+01   -2.678E+01   -2.674E+01   -2.671E+01
    -2.669E+01   -2.667E+01   -2.666E+01   -2.666E+01   -2.666E+01   -2.666E+01   -2.667E+01   -2.669E+01   -2.671E+01   -2.673E+01
    -2.676E+01   -2.679E+01   -2.682E+01   -2.685E+01   -2.689E+01   -2.693E+01   -2.697E+01   -2.701E+01   -2.705E+01   -2.709E+01
    -2.713E+01   -2.718E+01   -2.722E+01   -2.726E+01   -2.729E+01   -2.733E+01   -2.736E+01   -2.739E+01   -2.742E+01   -2.745E+01
    -2.747E+01   -2.749E+01   -2.750E+01   -2.751E+01   -2.752E+01   -2.752E+01   -2.752E+01   -2.752E+01   -2.751E+01   -2.750E+01
    -2.749E+01   -2.747E+01   -2.746E+01   -2.744E+01   -2.741E+01   -2.739E+01   -2.736E+01   -2.733E+01   -2.730E+01   -2.727E+01
    -2.723E+01   -2.719E+01   -2.715E+01   -2.711E+01   -2.707E+01   -2.703E+01   -2.698E+01   -2.694E+01   -2.689E+01   -2.684E+01
    -2.679E+01   -2.674E+01   -2.669E+01   -2.664E+01   -2.659E+01   -2.654E+01   -2.649E+01   -2.643E+01   -2.638E+01   -2.633E+01
    -2.627E+01   -2.622E+01   -2.616E+01   -2.611E+01   -2.605E+01   -2.599E+01   -2.594E+01   -2.588E+01   -2.583E+01   -2.577E+01
    -2.571E+01   -2.566E+01   -2.560E+01   -2.555E+01   -2.549E+01   -2.544E+01   -2.538E+01   -2.533E+01   -2.527E+01   -2.522E+01
    -2.517E+01   -2.511E+01   -2.506E+01   -2.501E+01   -2.496E+01   -2.491E+01   -2.485E+01   -2.480E+01   -2.475E+01   -2.469E+01
    -2.464E+01   -2.458E+01   -2.453E+01   -2.447E+01   -2.441E+01   -2.435E+01   -2.429E+01   -2.423E+01   -2.416E+01   -2.410E+01
    -2.403E+01   -2.396E+01   -2.388E+01   -2.381E+01   -2.373E+01   -2.365E+01   -2.357E+01   -2.348E+01   -2.339E+01   -2.330E+01
    -2.320E+01   -2.311E+01   -2.300E+01   -2.290E+01   -2.279E+01   -2.268E+01   -2.257E+01   -2.246E+01   -2.235E+01   -2.223E+01
    -2.212E+01   -2.200E+01   -2.189E+01   -2.177E+01   -2.165E+01   -2.154E+01   -2.142E+01   -2.131E+01   -2.120E+01   -2.109E+01
    -2.098E+01   -2.088E+01   -2.078E+01   -2.068E+01   -2.058E+01   -2.049E+01   -2.040E+01   -2.031E+01   -2.023E+01   -2.015E+01
    -2.008E+01   -2.001E+01   -1.995E+01   -1.989E+01   -1.984E+01   -1.978E+01   -1.973E+01   -1.969E+01   -1.964E+01   -1.960E+01
    -1.956E+01   -1.952E+01   -1.948E+01   -1.944E+01   -1.940E+01   -1.937E+01   -1.933E+01   -1.929E+01   -1.924E+01   -1.920E+01
    -1.915E+01   -1.911E+01   -1.906E+01   -1.900E+01   -1.894E+01   -1.888E+01   -1.882E+01   -1.875E+01   -1.867E+01   -1.859E+01
    -1.851E+01   -1.841E+01   -1.831E+01   -1.821E+01   -1.809E+01   -1.797E+01   -1.784E+01   -1.770E+01   -1.754E+01   -1.738E+01
    -1.720E+01   -1.702E+01   -1.682E+01   -1.660E+01   -1.637E+01   -1.613E+01   -1.587E+01   -1.560E+01   -1.531E+01   -1.500E+01
    -1.467E+01   -1.433E+01   -1.397E+01   -1.358E+01   -1.318E+01   -1.276E+01   -1.231E+01   -1.184E+01   -1.135E+01   -1.084E+01
    -1.030E+01   -9.739E+00   -9.158E+00   -8.557E+00   -7.939E+00   -7.305E+00   -6.659E+00   -6.000E+00   -5.333E+00   -4.657E+00
    -3.976E+00   -3.291E+00   -2.605E+00   -1.918E+00   -1.233E+00   -5.520E-01    1.232E-01    7.907E-01    1.449E+00    2.095E+00
     2.728E+00    3.345E+00    3.945E+00    4.527E+00    5.086E+00    5.623E+00    6.135E+00    6.620E+00    7.077E+00    7.502E+00
     7.896E+00    8.256E+00    8.584E+00    8.880E+00    9.145E+00    9.379E+00    9.583E+00    9.757E+00    9.902E+00    1.002E+01
     1.011E+01    1.017E+01    1.020E+01    1.021E+01    1.019E+01    1.014E+01    1.007E+01    9.977E+00    9.859E+00    9.717E+00
     9.552E+00    9.365E+00    9.156E+00    8.925E+00    8.674E+00    8.402E+00    8.110E+00    7.799E+00    7.470E+00    7.122E+00
     6.756E+00    6.374E+00    5.974E+00    5.559E+00    5.128E+00    4.683E+00    4.223E+00    3.750E+00    3.264E+00    2.765E+00
     2.254E+00    1.733E+00    1.200E+00    6.579E-01    1.060E-01   -4.548E-01   -1.024E+00   -1.600E+00   -2.184E+00   -2.775E+00
    -3.371E+00   -3.972E+00   -4.578E+00   -5.189E+00   -5.803E+00   -6.419E+00   -7.039E+00   -7.659E+00   -8.281E+00   -8.904E+00
    -9.527E+00   -1.015E+01   -1.077E+01   -1.139E+01   -1.201E+01   -1.262E+01   -1.324E+01   -1.385E+01   -1.446E+01   -1.506E+01
    -1.566E+01   -1.625E+01   -1.684E+01   -1.742E+01   -1.800E+01   -1.857E+01   -1.914E+01   -1.970E+01   -2.024E+01   -2.079E+01
    -2.132E+01   -2.184E+01   -2.236E+01   -2.286E+01   -2.336E+01   -2.384E+01   -2.432E+01   -2.478E+01   -2.523E+01   -2.567E+01
    -2.609E+01   -2.650E+01   -2.690E+01   -2.729E+01   -2.767E+01   -2.804E+01   -2.839E+01   -2.874E+01   -2.907E+01   -2.939E+01
    -2.971E+01   -3.001E+01   -3.031E+01   -3.060E+01   -3.088E+01   -3.115E+01   -3.141E+01   -3.167E+01   -3.192E+01   -3.216E+01
    -3.239E+01   -3.262E+01   -3.285E+01   -3.307E+01   -3.328E+01   -3.349E+01   -3.369E+01   -3.389E+01   -3.409E+01   -3.428E+01
    -3.446E+01   -3.465E+01   -3.483E+01   -3.501E+01   -3.519E+01   -3.536E+01   -3.553E+01   -3.570E+01   -3.587E+01   -3.603E+01
    -3.619E+01   -3.636E+01   -3.651E+01   -3.667E+01   -3.683E+01   -3.698E+01   -3.714E+01   -3.729E+01   -3.744E+01   -3.759E+01
    -3.774E+01   -3.789E+01   -3.804E+01   -3.819E+01   -3.834E+01   -3.848E+01   -3.863E+01   -3.878E+01   -3.893E+01   -3.908E+01
 Mac      Conc. = 2.03E-04
  -6.98635E+01 -6.97304E+01 -6.95492E+01 -6.95013E+01 -6.97465E+01 -7.03414E+01 -7.11780E+01 -7.20419E+01 -7.26456E+01 -7.28202E+01
  -7.26027E+01 -7.22401E+01 -7.20274E+01 -7.21457E+01 -7.25350E+01 -7.26683E+01 -7.16542E+01 -6.90083E+01 -6.52031E+01 -6.12915E+01
  -5.80140E+01 -5.55145E+01 -5.36991E+01 -5.23815E+01 -5.12720E+01 -5.00972E+01 -4.86108E+01 -4.68402E+01 -4.50429E+01 -4.34722E+01
  -4.22583E+01 -4.13639E+01 -4.07443E+01 -4.03328E+01 -3.99618E+01 -3.92825E+01 -3.79652E+01 -3.60722E+01 -3.41840E+01 -3.29396E+01
  -3.24229E+01 -3.21357E+01 -3.14902E+01 -3.03677E+01 -2.91522E+01 -2.83396E+01 -2.81579E+01 -2.84949E+01 -2.91290E+01 -2.98251E+01
  -3.03874E+01 -3.07347E+01 -3.08284E+01 -3.06969E+01 -3.03342E+01 -2.96847E+01 -2.86825E+01 -2.74108E+01 -2.60921E+01 -2.48687E+01
  -2.38342E+01 -2.31280E+01 -2.29058E+01 -2.31764E+01 -2.37179E+01 -2.42011E+01 -2.43894E+01 -2.42857E+01 -2.39054E+01 -2.30360E+01
  -2.15341E+01 -1.96108E+01 -1.78268E+01 -1.66846E+01 -1.63030E+01 -1.64993E+01 -1.70118E+01 -1.76162E+01 -1.81508E+01 -1.84897E+01
  -1.86034E+01 -1.85294E+01 -1.82032E+01 -1.76414E+01 -1.69355E+01 -1.62256E+01 -1.56069E+01 -1.51013E+01 -1.47035E+01 -1.44007E+01
  -1.42107E+01 -1.41698E+01 -1.43575E+01 -1.48999E+01 -1.59457E+01 -1.74977E+01 -1.93878E+01 -2.13453E+01 -2.31188E+01 -2.46572E+01
  -2.61736E+01 -2.80195E+01 -3.04508E+01 -3.36025E+01 -3.74934E+01 -4.19214E+01 -4.62261E+01 -4.94325E+01 -5.07520E+01 -5.01419E+01
