 
 $NMID
 ID=''
 FMTDAT='(2E13.5)'
 TRAMP=   1.00000E+0
 VOLUME=   1.00000E+0
 $END
   3.03870E+4   7.39173E+3
  -8.57639E+2  -3.68743E+4
  -2.82018E+4  -7.74740E+3
  -1.52765E+4   2.22524E+4
   7.33472E+3   1.66510E+4
   1.76871E+4  -4.21740E+2
   1.05463E+4  -1.14257E+4
  -7.50297E+3  -1.09606E+4
  -1.53011E+4   2.21368E+3
  -5.53813E+3   1.06195E+4
   6.56807E+3   5.96051E+3
   9.68761E+3  -2.53337E+3
   2.38229E+3  -8.51731E+3
  -6.59174E+3  -8.64919E+3
  -5.23689E+3   1.87624E+2
   2.04421E+3   8.13226E+3
   3.32904E+3   4.70765E+3
   2.87043E+3  -3.77350E+3
   1.78670E+3  -4.85007E+3
  -2.89340E+3  -5.06606E+2
  -3.88853E+3   2.56184E+3
   1.24294E+3   2.67435E+3
   3.16489E+3   1.81329E+3
   9.83736E+2  -1.39051E+3
  -3.93173E+2  -3.29581E+3
  -1.26847E+3   2.10442E+2
  -2.35648E+3   3.38466E+3
  -3.54636E+2   9.87687E+2
   2.12854E+3  -1.55730E+3
   1.81214E+3  -7.39452E+2
  -8.51319E+2   8.98803E+1
  -2.55797E+3  -1.82873E+2
  -7.55922E+2  -6.78924E+2
   2.14388E+3  -1.28496E+2
   2.70088E+3   9.37774E+2
   6.10973E+1   1.63473E+3
  -1.80141E+3  -1.84453E+2
  -8.78186E+2  -1.35993E+3
   5.07745E+2   5.91146E+2
   3.37858E+1   1.02946E+3
   5.52732E+2  -1.06894E+3
   1.62483E+3  -7.77025E+2
   2.29465E+2   6.99348E+2
  -1.02480E+3   9.81181E+2
  -1.85106E+2   4.76061E+2
   1.20681E+2   3.59225E+2
  -1.02292E+3  -4.49572E+2
  -2.76943E+2  -2.12566E+3
   9.88738E+2  -1.43361E+3
   5.94400E+2   6.28410E+2
   8.97141E+1   6.51790E+2
   5.69202E+2   2.00445E+1
   6.94429E+2  -1.70692E+2
  -4.53585E+2   1.67257E+2
  -1.09386E+3  -6.32081E+1
  -5.15260E+2  -3.98208E+2
   4.77222E+2  -4.68986E+2
   8.93578E+2   2.10169E+2
   2.42632E+2   7.71558E+2
  -6.29997E+2   3.60458E+2
  -6.91977E+2  -1.29271E+2
  -6.58782E+2   1.60772E+2
  -1.01216E+3  -2.84258E+2
  -5.21936E+2  -1.52200E+3
   7.22075E+2  -1.59290E+3
   8.99596E+2  -2.41497E+2
   4.40181E+2   7.09064E+2
   2.37220E+2   8.90791E+2
  -3.06732E+2   5.39641E+2
  -3.25208E+2  -6.48629E+0
  -1.35465E+2  -2.54009E+2
   1.02030E+2   4.30086E+2
  -6.40537E+2   9.36296E+2
  -1.05581E+3   1.32420E+2
  -4.44901E+1  -2.17889E+2
   1.66617E+2   2.84496E+1
   9.20201E+0   2.83849E+0
  -8.07609E+2  -3.51498E+2
  -2.63185E+2  -2.53951E+2
   2.37375E+2  -5.73725E+1
   6.29619E+2   2.35820E+2
   4.38904E+2   3.52697E+2
   2.01613E+2   7.43270E+1
   3.30384E+1  -6.73978E+1
   1.26678E+2   1.77013E+2
  -1.02090E+2   6.62870E+2
  -2.70224E+2   6.88797E+2
  -1.90368E+2   3.12547E+2
   2.81188E+2  -1.93511E+2
  -6.45951E+1  -5.27043E+1
  -5.37363E+2   4.77912E+2
  -7.03789E+2  -2.86485E+2
  -1.45282E+2  -4.92320E+2
   7.29651E+2  -3.87393E+2
   8.55478E+2   3.20472E+2
   2.43021E+2   6.06953E+2
  -1.42859E+2   2.95153E+1
  -5.66193E+1  -2.34879E+2
   2.40824E+2   6.10003E+2
  -3.68481E+2   8.91004E+2
  -7.18957E+2  -1.14102E+2
  -1.47019E+1  -1.04858E+3
   3.72202E+2  -2.30734E+2
   2.48841E+2   5.43504E+2
   2.17518E+2   4.54946E+2
  -2.91683E+2   2.41481E+2
  -4.94709E+2  -3.64635E+2
   2.93516E+2  -5.91280E+2
   7.45348E+2  -1.99501E+0
   2.08782E+2   1.03169E+3
  -5.20256E+2   6.35315E+2
  -7.59996E+2   2.76851E+1
  -1.09503E+2  -5.21826E+2
  -4.10159E+1   4.60863E+1
  -2.65952E+2   5.38521E+2
  -3.10908E+1  -5.49755E+1
   4.46444E+2  -6.96489E+2
   7.08659E+2   6.06645E+1
   3.61607E+2   5.48965E+2
  -1.51471E+2   7.41619E+2
  -3.62522E+2   3.00683E+2
  -2.72017E+2   1.07779E+2
  -2.94013E+2   6.04619E+1
  -2.24613E+1  -2.28875E+2
   1.49517E+2  -3.36013E+2
   2.71688E+2  -4.46164E+1
   1.79246E+2   3.04029E+2
  -1.36798E+2   3.76191E+2
  -1.06060E+2   5.95619E+1
  -1.39656E+2  -3.51950E+2
  -1.14363E+2  -3.85390E+2
   3.38526E+2  -1.34864E+2
   1.48536E+1   3.56092E+2
  -1.93444E+2   2.48151E+2
  -8.08583E+0  -9.21048E+1
   2.23009E+2   1.39375E+1
  -1.59267E+2   2.43974E+2
  -4.25162E+2   1.95342E+1
  -1.55795E+2  -3.28355E+2
   1.80661E+2  -6.22622E+1
   4.45605E+2  -1.30183E+1
   2.11241E+2   2.94481E+2
  -1.80019E+2   2.66080E+1
  -3.19764E+2  -3.57919E+2
  -2.18224E+2  -4.97431E+2
   3.54955E+2  -2.34249E+2
   1.35006E+2  -3.33418E+1
   1.04129E+2  -7.85968E+1
   2.59248E+2  -1.33302E+2
   3.15297E+2  -2.58317E+2
   8.97691E+1   1.66070E+2
  -9.88129E+1   1.41386E+2
  -3.44412E+2   1.31790E+2
  -9.31970E+1  -2.92580E+2
  -1.98020E+1  -8.20594E+1
  -2.94796E+2   3.57369E+1
  -1.80191E+2  -3.20800E+2
  -6.95962E+1   4.04161E+1
   1.59703E+2   2.38598E+1
   1.37408E+2  -9.71900E+1
   5.96343E+1  -5.33695E+1
   9.59310E+1  -1.37042E+2
   3.29798E+1  -6.45854E-1
  -1.73749E+2   2.26922E+2
  -1.02543E+2   8.22344E+0
  -3.27643E+2   1.91897E+1
  -2.64500E+2  -2.07588E+2
   2.67684E+2  -2.00699E+2
  -1.37187E+2   9.21512E+0
  -1.31441E+2   8.27685E+1
  -1.15291E+2  -3.43484E+1
  -1.26223E+2  -2.07936E+2
   3.54520E+0  -1.39998E+2
   1.19556E+2   1.68764E+2
  -2.10727E+2   7.19448E+1
  -2.42302E+2  -2.54235E+2
   2.23415E+2  -3.12208E+2
   2.66730E+2  -7.90086E+1
   2.01422E+2   1.55763E+2
  -2.33245E+2   1.50212E+2
  -5.42841E+1  -1.08546E+2
   1.10938E+2  -3.75739E+2
   1.21651E+2   3.34170E+1
   1.43240E+2  -8.52125E+0
   1.93897E+2   1.02576E+2
   4.75138E+0  -1.35254E+2
   3.95081E+2  -4.15893E+1
  -1.53441E+2   2.51436E+2
  -1.10444E+2   9.71433E+1
  -3.08314E+2  -3.29444E+2
   1.54447E+2  -3.47772E+2
   9.33105E+1  -1.17180E+2
   2.19329E+2  -1.75260E+2
  -7.69443E+1   1.31501E+2
  -1.03461E+2  -2.29733E+2
  -4.71903E+1  -1.06005E+2
  -5.95436E+1   6.46051E+1
   1.38202E+2  -7.90211E+1
  -3.67239E+1   3.90289E+1
   3.49857E+2  -3.16159E+2
   1.28029E+2  -2.42832E+2
   6.84720E+1   1.03905E+2
  -9.81772E+1   2.32678E+2
  -1.22657E+2   7.95660E+1
  -2.56226E+2  -1.43841E+2
   3.33844E+2  -1.02829E+2
  -6.82346E+1   1.98943E+1
  -2.08546E+1  -2.52711E+2
  -2.98397E+2   4.86572E+1
   1.30541E+2   2.86108E+1
   2.68759E+2   9.70525E+1
  -3.45789E+2  -2.23238E+2
  -2.40398E+2  -2.46569E+2
  -9.57435E+1  -2.10692E+2
   8.58864E+1   6.30746E+1
   1.02088E+2   6.05110E+1
   9.19769E+1  -2.62811E+1
  -3.44580E+1  -2.60844E+1
  -3.67361E+1  -2.33827E+2
   8.49866E+1   1.38536E+2
  -2.75316E+2  -4.47792E+0
  -1.51623E+2  -2.25705E+1
  -5.43805E+1  -1.01502E+2
   1.25492E+2  -1.97431E+2
  -7.19826E+0  -2.17628E+2
  -1.26782E+2  -6.84469E+1
  -6.30816E+1  -1.77022E+2
  -1.39386E+2  -7.63997E+1
   1.53176E+2  -1.15193E+2
   3.17505E+1   2.93122E+1
  -2.62231E+2  -9.43951E+1
  -2.50783E+2  -8.10597E+1
  -5.52946E+1  -1.02750E+2
   1.26821E+2  -1.59160E+2
  -1.35505E+2  -1.86865E+1
   2.69793E+1  -1.49823E+1
  -4.08529E+1  -2.74586E+2
   1.59261E+1  -1.35219E+2
   2.11077E+2   9.46547E+1
  -7.93046E+1  -3.58405E+1
   1.01023E+2  -1.35819E+0
  -2.54073E+1  -3.43102E+0
   4.91278E+1   3.87283E+1
   5.68585E+1   1.39957E+2
  -1.90271E+2   1.96895E+2
   1.59807E+2  -2.20096E+2
   3.77958E+1  -1.96122E+1
   1.52362E+2  -4.43546E+1
   8.83678E+0   1.19154E+2
  -3.42825E+1   3.30974E+1
   5.67663E+1  -5.65115E+0
   2.56174E+2  -2.19053E+2
   1.31652E+2   9.04699E+1
   2.54695E+1   1.48648E+2
   1.37431E+1   4.59605E+1
  -1.25778E+2  -2.57185E+2
   6.53452E+1  -1.90778E+2
   1.01445E+2  -4.03810E+0
   1.20139E+2  -1.92843E+2
  -2.15819E+1  -6.12251E+1
  -1.46811E+1  -9.39388E+0
   4.39833E+1  -2.13646E+1
  -1.65035E+1   2.08370E+1
  -1.23970E+2  -3.03667E+2
   7.58005E-1  -2.53890E+2
   5.38386E+1  -1.29155E+2
  -8.54706E+1   1.19961E+1
   7.32854E+1   1.52977E+2
   2.90107E+1  -9.15383E+1
  -9.85682E+0  -2.53303E+1
   7.17790E-1   1.54405E+2
  -4.97641E+1   5.63228E+0
   2.99874E+1  -2.00215E+1
   1.26121E+2   1.40160E+2
  -3.38860E+1  -5.15236E+2
   1.18865E+2  -1.02053E+2
  -1.75000E+1   1.59172E+2
  -5.42768E+1   2.83986E+2
   1.93132E+1  -7.49856E+1
  -1.57870E+2   5.54558E+0
   9.30779E+1   3.55315E+2
   1.23357E+2   1.28000E+2
   1.68320E+2   1.20987E+2
   1.25323E+2   1.53967E+2
   2.17124E+2   7.51649E+1
   6.96539E+0  -1.68460E+2
  -1.54674E+2   1.95615E+1
   3.58773E+1  -1.78908E+2
  -7.47168E+1   2.43152E+1
  -5.40050E+1  -1.42924E+1
  -9.92517E+1   2.68448E+2
   2.27762E+0   8.34057E+1
  -2.76891E+1  -8.83778E+0
   1.02003E+2   1.58096E+2
   1.33551E+2   2.30963E+1
  -1.54493E+2  -1.16243E+2
  -2.00299E+1   5.92881E+1
  -1.88285E+2   4.04250E+1
   6.32959E+1   2.34225E+2
   4.90248E+1  -1.55696E+2
  -7.42313E+1  -4.48451E+1
  -1.77470E+2  -2.63706E+2
   1.70436E+1  -1.14390E+2
  -2.46484E+1   1.73421E+2
   4.11255E+1   6.27344E+1
   6.91562E+1   9.45849E+1
  -1.42016E+2   2.01260E+1
   7.97730E+1  -2.31513E+1
  -1.13571E+2   4.06490E+2
  -9.20690E+1   2.03436E+2
  -1.28730E+1  -1.19756E+2
   2.11426E+2   4.20793E+1
  -1.77621E+1   1.46525E+2
  -1.06870E+2   3.07665E+1
  -1.51187E+2   1.84823E+1
  -8.26130E+1  -4.53615E+1
   2.43923E+2  -1.26582E+2
   1.39038E+2  -3.66606E+1
   3.70827E+1  -8.39335E+1
   9.93168E+1  -2.83996E+1
   3.02847E+1   2.24693E+0
   3.16446E+2   1.36245E+2
   3.73001E+1   5.83715E+1
   1.16756E+2  -2.29635E+1
  -1.80269E+2   1.51082E+1
   1.57553E+1  -7.22099E+1
  -6.54393E+1   1.07370E+2
  -1.22645E+2  -6.66102E+0
  -2.18589E+2  -1.35690E+2
   4.55321E+1   8.97431E+0
   6.06662E+1  -1.20240E+2
  -6.39816E+1  -5.54297E+1
  -1.89885E+2  -9.58107E+1
   4.23651E+1  -2.26822E+2
   1.58323E+2   2.02267E+2
   2.46886E+1  -1.19505E+2
   8.72470E+1   2.08244E+2
  -1.84321E+2   1.05891E+2
   1.35944E+2  -7.06835E+1
   2.45202E+2   5.40831E+1
  -1.38784E+1   1.65350E+1
  -1.71726E+2   1.18350E+2
  -1.11862E+2   3.65477E+1
  -3.13384E+1   5.66300E+1
  -1.31826E+1  -2.04891E+2
  -2.00731E+2  -7.92751E+1
   1.26581E+2   1.47341E+2
   3.99758E+1  -5.24520E+1
  -1.95968E+2  -6.29019E+0
  -2.87058E+1   1.68668E+2
  -1.06050E+2   2.10913E+2
   2.04259E+2  -4.50631E+1
   1.43935E+1  -3.85379E+1
   6.60298E+1  -2.62582E+1
  -9.14746E+1   2.62288E+2
  -9.69993E+1   9.87473E+0
  -5.37294E+1  -9.22742E+0
  -9.78727E+1   6.65232E+1
  -1.41279E+2  -8.99386E+1
  -4.47883E+1   1.02086E+2
   8.78413E+1   1.96707E+1
   2.76474E+1  -1.72417E+2
   1.50813E+2   2.87465E+1
   1.04602E+2  -3.40457E+1
  -2.15865E+2   4.52680E+1
  -1.16481E+1   1.41263E+2
  -6.74788E+1   2.28411E+1
