 
 $NMID
 ID=''
 FMTDAT='(2E13.5)'
 TRAMP=   1.00000E+0
 VOLUME=   1.00000E+0
 $END
  -5.93641E+5   3.18185E+5
  -1.70485E+6   2.61425E+5
  -1.56864E+6   4.20053E+5
  -1.50768E+6   2.22837E+5
  -1.66018E+6   1.60127E+5
  -1.63631E+6   2.27939E+5
  -1.54794E+6   1.83191E+5
  -1.55893E+6   1.27062E+5
  -1.54510E+6   9.94067E+4
  -1.55916E+6   4.74286E+4
  -1.58730E+6   6.30255E+4
  -1.52802E+6   7.93377E+4
  -1.48661E+6   1.51844E+4
  -1.50964E+6  -1.92994E+4
  -1.50505E+6  -1.46410E+4
  -1.49123E+6  -2.35513E+4
  -1.48503E+6  -3.15302E+4
  -1.45026E+6  -6.24684E+4
  -1.44085E+6  -1.14715E+5
  -1.45473E+6  -1.30941E+5
  -1.43519E+6  -1.41268E+5
  -1.41381E+6  -1.68297E+5
  -1.40397E+6  -1.85957E+5
  -1.38630E+6  -2.10164E+5
  -1.37629E+6  -2.40444E+5
  -1.37168E+6  -2.39956E+5
  -1.35377E+6  -2.44100E+5
  -1.33978E+6  -2.61996E+5
  -1.32648E+6  -2.73984E+5
  -1.31134E+6  -2.83655E+5
  -1.30500E+6  -3.02034E+5
  -1.29263E+6  -3.11804E+5
  -1.27138E+6  -3.27217E+5
  -1.25670E+6  -3.46058E+5
  -1.24403E+6  -3.58501E+5
  -1.22924E+6  -3.73403E+5
  -1.21821E+6  -3.91381E+5
  -1.20193E+6  -4.03815E+5
  -1.18239E+6  -4.14215E+5
  -1.17110E+6  -4.25693E+5
  -1.15735E+6  -4.33676E+5
  -1.14115E+6  -4.40422E+5
  -1.12808E+6  -4.44862E+5
  -1.11583E+6  -4.50163E+5
  -1.09960E+6  -4.57002E+5
  -1.08715E+6  -4.63995E+5
  -1.07351E+6  -4.71912E+5
  -1.05564E+6  -4.82866E+5
  -1.03726E+6  -4.91106E+5
  -1.02022E+6  -4.97883E+5
  -1.00395E+6  -5.07375E+5
  -9.87544E+5  -5.17777E+5
  -9.70867E+5  -5.25922E+5
  -9.54867E+5  -5.33757E+5
  -9.38521E+5  -5.40733E+5
  -9.20321E+5  -5.47861E+5
  -9.03131E+5  -5.54443E+5
  -8.87476E+5  -5.59001E+5
  -8.72069E+5  -5.62113E+5
  -8.56322E+5  -5.66708E+5
  -8.39423E+5  -5.72280E+5
  -8.22735E+5  -5.77656E+5
  -8.07230E+5  -5.83638E+5
  -7.89587E+5  -5.89100E+5
  -7.70475E+5  -5.93400E+5
  -7.52051E+5  -5.96859E+5
  -7.34414E+5  -6.01691E+5
  -7.17458E+5  -6.06466E+5
  -7.01456E+5  -6.10831E+5
  -6.84925E+5  -6.14394E+5
  -6.66753E+5  -6.18002E+5
  -6.49843E+5  -6.20668E+5
  -6.35323E+5  -6.23797E+5
  -6.20568E+5  -6.27224E+5
  -6.03458E+5  -6.29427E+5
  -5.86173E+5  -6.31105E+5
  -5.70362E+5  -6.33721E+5
  -5.54361E+5  -6.37255E+5
  -5.37339E+5  -6.39826E+5
  -5.20427E+5  -6.41633E+5
  -5.03043E+5  -6.42888E+5
  -4.86616E+5  -6.44984E+5
  -4.71163E+5  -6.47174E+5
  -4.55256E+5  -6.48895E+5
  -4.39691E+5  -6.48870E+5
  -4.25144E+5  -6.48465E+5
  -4.10757E+5  -6.48596E+5
  -3.96652E+5  -6.49177E+5
  -3.83659E+5  -6.48397E+5
  -3.71210E+5  -6.46731E+5
  -3.58625E+5  -6.45127E+5
  -3.45040E+5  -6.44302E+5
  -3.31388E+5  -6.43735E+5
  -3.17742E+5  -6.42028E+5
  -3.05100E+5  -6.39696E+5
  -2.92984E+5  -6.36984E+5
  -2.80126E+5  -6.35235E+5
  -2.67157E+5  -6.33619E+5
  -2.54442E+5  -6.31074E+5
  -2.43236E+5  -6.27760E+5
  -2.32180E+5  -6.24535E+5
  -2.20541E+5  -6.21809E+5
  -2.09040E+5  -6.17614E+5
  -1.98388E+5  -6.12933E+5
  -1.89544E+5  -6.08724E+5
  -1.80149E+5  -6.04577E+5
  -1.69846E+5  -6.00682E+5
  -1.58960E+5  -5.95818E+5
  -1.49382E+5  -5.90158E+5
  -1.41083E+5  -5.84895E+5
  -1.31835E+5  -5.80104E+5
  -1.21696E+5  -5.75542E+5
  -1.11656E+5  -5.70438E+5
  -1.02157E+5  -5.65149E+5
  -9.29093E+4  -5.59705E+5
  -8.35629E+4  -5.54145E+5
  -7.39850E+4  -5.48610E+5
  -6.46630E+4  -5.41855E+5
  -5.67396E+4  -5.35560E+5
  -4.92855E+4  -5.29713E+5
  -4.15830E+4  -5.24045E+5
  -3.33185E+4  -5.18167E+5
  -2.49595E+4  -5.12032E+5
  -1.70774E+4  -5.06053E+5
  -9.49535E+3  -4.99939E+5
  -1.74857E+3  -4.93412E+5
   5.54616E+3  -4.86489E+5
   1.30041E+4  -4.79870E+5
   2.02132E+4  -4.73900E+5
   2.77755E+4  -4.67795E+5
   3.54683E+4  -4.61281E+5
   4.29132E+4  -4.54205E+5
   4.97858E+4  -4.47331E+5
   5.66073E+4  -4.41146E+5
   6.30726E+4  -4.34559E+5
   6.93966E+4  -4.27964E+5
   7.54013E+4  -4.21666E+5
   8.14878E+4  -4.15215E+5
   8.77760E+4  -4.08920E+5
   9.41136E+4  -4.02751E+5
   1.00272E+5  -3.95813E+5
   1.04963E+5  -3.88593E+5
   1.09516E+5  -3.82303E+5
   1.15038E+5  -3.76770E+5
   1.20348E+5  -3.70527E+5
   1.24856E+5  -3.63488E+5
   1.28764E+5  -3.57022E+5
   1.32986E+5  -3.50814E+5
   1.36766E+5  -3.44227E+5
   1.40432E+5  -3.38088E+5
   1.43570E+5  -3.31995E+5
   1.46482E+5  -3.25879E+5
   1.49390E+5  -3.20263E+5
   1.52550E+5  -3.14412E+5
   1.55266E+5  -3.08277E+5
   1.57522E+5  -3.02070E+5
   1.59351E+5  -2.96554E+5
   1.61880E+5  -2.90837E+5
   1.63818E+5  -2.84818E+5
   1.65668E+5  -2.79080E+5
   1.67428E+5  -2.73289E+5
   1.68901E+5  -2.67681E+5
   1.70258E+5  -2.61833E+5
   1.71293E+5  -2.55931E+5
   1.72078E+5  -2.50512E+5
   1.72689E+5  -2.45381E+5
   1.73829E+5  -2.40353E+5
   1.74902E+5  -2.34900E+5
   1.75081E+5  -2.29409E+5
   1.75450E+5  -2.24339E+5
   1.75685E+5  -2.19518E+5
   1.76067E+5  -2.14428E+5
   1.76017E+5  -2.09387E+5
   1.76065E+5  -2.04237E+5
   1.76019E+5  -1.99453E+5
   1.76039E+5  -1.94713E+5
   1.75928E+5  -1.89741E+5
   1.76182E+5  -1.84472E+5
   1.75341E+5  -1.79487E+5
   1.75064E+5  -1.74896E+5
   1.74944E+5  -1.70602E+5
   1.74843E+5  -1.66038E+5
   1.74496E+5  -1.60977E+5
   1.73965E+5  -1.56428E+5
   1.73370E+5  -1.52115E+5
   1.72968E+5  -1.47636E+5
   1.72245E+5  -1.43202E+5
   1.71250E+5  -1.38958E+5
   1.70134E+5  -1.35235E+5
   1.69504E+5  -1.31430E+5
   1.69262E+5  -1.27268E+5
   1.68514E+5  -1.22881E+5
   1.67537E+5  -1.18811E+5
   1.66536E+5  -1.14771E+5
   1.65613E+5  -1.11150E+5
   1.64734E+5  -1.07197E+5
   1.63912E+5  -1.03188E+5
   1.62914E+5  -9.97047E+4
   1.61888E+5  -9.57548E+4
   1.61165E+5  -9.19528E+4
   1.59897E+5  -8.81861E+4
   1.58792E+5  -8.46538E+4
   1.57386E+5  -8.13594E+4
   1.56414E+5  -7.79549E+4
   1.55226E+5  -7.45547E+4
   1.53987E+5  -7.12322E+4
   1.52974E+5  -6.78393E+4
   1.51565E+5  -6.49623E+4
   1.50167E+5  -6.16311E+4
   1.48972E+5  -5.84543E+4
   1.47184E+5  -5.52607E+4
   1.45947E+5  -5.26521E+4
   1.44598E+5  -5.01449E+4
   1.43635E+5  -4.71971E+4
   1.41917E+5  -4.40506E+4
   1.40357E+5  -4.13449E+4
   1.38528E+5  -3.86542E+4
   1.37185E+5  -3.64774E+4
   1.35526E+5  -3.41018E+4
   1.34364E+5  -3.19364E+4
   1.32554E+5  -2.95243E+4
   1.31165E+5  -2.75279E+4
   1.29760E+5  -2.53282E+4
   1.28135E+5  -2.30552E+4
   1.26386E+5  -2.11811E+4
   1.24525E+5  -1.91786E+4
   1.23027E+5  -1.75777E+4
   1.21443E+5  -1.57188E+4
   1.20011E+5  -1.35926E+4
   1.18322E+5  -1.21372E+4
   1.16320E+5  -1.03875E+4
   1.14899E+5  -8.80311E+3
   1.13303E+5  -7.47022E+3
   1.11805E+5  -5.99241E+3
   1.09926E+5  -4.64292E+3
   1.08239E+5  -3.19726E+3
   1.06739E+5  -1.99097E+3
   1.05472E+5  -8.17516E+2
   1.03650E+5   3.04280E+2
   1.01979E+5   1.47586E+3
   1.00536E+5   2.38538E+3
   9.88359E+4   3.96779E+3
   9.74989E+4   4.77462E+3
   9.58975E+4   5.80604E+3
   9.42796E+4   6.86675E+3
   9.27572E+4   7.95476E+3
   9.11869E+4   8.72781E+3
   8.97768E+4   9.73597E+3
   8.83026E+4   1.04683E+4
   8.69556E+4   1.10279E+4
   8.56577E+4   1.22003E+4
   8.43367E+4   1.28787E+4
   8.27784E+4   1.40805E+4
   8.13505E+4   1.42678E+4
   7.99147E+4   1.49199E+4
   7.86431E+4   1.56719E+4
   7.76662E+4   1.64385E+4
   7.62582E+4   1.72822E+4
   7.49265E+4   1.77288E+4
   7.35947E+4   1.87178E+4
   7.22059E+4   1.94567E+4
   7.09317E+4   1.99408E+4
   6.96959E+4   2.03417E+4
   6.82829E+4   2.11593E+4
   6.75402E+4   2.14627E+4
   6.62490E+4   2.22113E+4
   6.50474E+4   2.28367E+4
   6.38025E+4   2.32448E+4
   6.27992E+4   2.35328E+4
   6.16395E+4   2.41005E+4
   6.07903E+4   2.44660E+4
   5.96017E+4   2.47991E+4
   5.85534E+4   2.52493E+4
   5.75477E+4   2.57123E+4
   5.66535E+4   2.59946E+4
   5.54358E+4   2.65084E+4
   5.44011E+4   2.66533E+4
   5.33357E+4   2.68360E+4
   5.25567E+4   2.70002E+4
   5.16419E+4   2.71412E+4
   5.04076E+4   2.77030E+4
   4.96378E+4   2.77745E+4
   4.87031E+4   2.78960E+4
   4.74130E+4   2.81333E+4
   4.64416E+4   2.83517E+4
   4.57211E+4   2.82388E+4
   4.50406E+4   2.83950E+4
   4.38276E+4   2.85015E+4
   4.29428E+4   2.86055E+4
   4.21280E+4   2.87886E+4
   4.07979E+4   2.86327E+4
   4.00555E+4   2.86691E+4
   3.91240E+4   2.83838E+4
   3.83571E+4   2.87275E+4
   3.71095E+4   2.85381E+4
   3.64911E+4   2.85187E+4
   3.57590E+4   2.84830E+4
   3.47569E+4   2.86122E+4
   3.38547E+4   2.85075E+4
   3.30526E+4   2.84323E+4
   3.19397E+4   2.81678E+4
   3.12160E+4   2.81060E+4
   3.02121E+4   2.80623E+4
   2.92296E+4   2.81207E+4
   2.84316E+4   2.77491E+4
   2.75750E+4   2.79458E+4
   2.68663E+4   2.79716E+4
   2.61065E+4   2.79028E+4
   2.51714E+4   2.74707E+4
   2.44521E+4   2.73787E+4
   2.36057E+4   2.76519E+4
   2.27136E+4   2.72726E+4
   2.16373E+4   2.73073E+4
   2.08533E+4   2.73451E+4
   2.02642E+4   2.69749E+4
   1.95879E+4   2.69504E+4
   1.89253E+4   2.68527E+4
   1.81250E+4   2.70049E+4
   1.73345E+4   2.65925E+4
   1.66532E+4   2.65400E+4
   1.61800E+4   2.65120E+4
   1.51390E+4   2.63824E+4
   1.45011E+4   2.62013E+4
   1.36778E+4   2.60650E+4
   1.31354E+4   2.56265E+4
   1.25557E+4   2.58119E+4
   1.15996E+4   2.56168E+4
   1.10095E+4   2.55524E+4
   1.04037E+4   2.52228E+4
   1.00041E+4   2.52352E+4
   9.06101E+3   2.50835E+4
   8.73319E+3   2.47159E+4
   8.09214E+3   2.46062E+4
   7.45523E+3   2.45475E+4
   7.05360E+3   2.45058E+4
   6.32864E+3   2.41471E+4
   5.96936E+3   2.37513E+4
   5.12238E+3   2.38946E+4
   4.59610E+3   2.35092E+4
   4.28959E+3   2.34373E+4
   3.62994E+3   2.33131E+4
   3.09889E+3   2.29770E+4
   2.61083E+3   2.28744E+4
   1.88832E+3   2.26038E+4
   1.59652E+3   2.26282E+4
   9.73041E+2   2.20322E+4
   7.16650E+2   2.18657E+4
  -9.97176E+1   2.16123E+4
  -4.78501E+2   2.16910E+4
  -1.11130E+3   2.15382E+4
  -1.47636E+3   2.11901E+4
  -1.87589E+3   2.10046E+4
  -2.25648E+3   2.07371E+4
  -2.61850E+3   2.03486E+4
  -3.23446E+3   2.00905E+4
  -3.44040E+3   1.98477E+4
  -3.72395E+3   1.96681E+4
  -4.30521E+3   1.93625E+4
  -4.71089E+3   1.92933E+4
  -5.13349E+3   1.89434E+4
  -5.26344E+3   1.83666E+4
  -5.60753E+3   1.86290E+4
  -5.94111E+3   1.83018E+4
  -6.57519E+3   1.82705E+4
  -6.79344E+3   1.79368E+4
  -6.93191E+3   1.76907E+4
  -7.23829E+3   1.73178E+4
