 
 $NMID
 ID=''
 FMTDAT='(2E13.5)'
 TRAMP=   1.00000E+0
 VOLUME=   1.00000E+0
 $END
   2.56668E+5   3.20370E+5
   3.15462E+5   1.06531E+6
   4.01511E+5   1.03252E+6
   3.19239E+5   1.02278E+6
   2.95500E+5   1.06641E+6
   2.69262E+5   1.01106E+6
   1.74186E+5   9.85609E+5
   1.23299E+5   1.03057E+6
   1.08053E+5   1.02894E+6
   6.63557E+4   1.02265E+6
   4.38509E+4   1.02195E+6
   1.61409E+4   9.86248E+5
  -3.86812E+4   9.73281E+5
  -6.96873E+4   9.80440E+5
  -9.25671E+4   9.60385E+5
  -1.25261E+5   9.45014E+5
  -1.50784E+5   9.42092E+5
  -1.85665E+5   9.17638E+5
  -2.28267E+5   8.98560E+5
  -2.52226E+5   8.86146E+5
  -2.81955E+5   8.59078E+5
  -3.18973E+5   8.38345E+5
  -3.42295E+5   8.22557E+5
  -3.65633E+5   7.99872E+5
  -3.90313E+5   7.77802E+5
  -4.01505E+5   7.55745E+5
  -4.20453E+5   7.27834E+5
  -4.45372E+5   7.06195E+5
  -4.60746E+5   6.86256E+5
  -4.72415E+5   6.65074E+5
  -4.87340E+5   6.43001E+5
  -4.98030E+5   6.14103E+5
  -5.14490E+5   5.81817E+5
  -5.33512E+5   5.55854E+5
  -5.45852E+5   5.32588E+5
  -5.55419E+5   5.08096E+5
  -5.64683E+5   4.82543E+5
  -5.72187E+5   4.50923E+5
  -5.80588E+5   4.18970E+5
  -5.89732E+5   3.94789E+5
  -5.94764E+5   3.72150E+5
  -5.95961E+5   3.47733E+5
  -5.94269E+5   3.24331E+5
  -5.94268E+5   2.99071E+5
  -5.96153E+5   2.72435E+5
  -5.98892E+5   2.49647E+5
  -5.99253E+5   2.26565E+5
  -5.96627E+5   2.00923E+5
  -5.91641E+5   1.74618E+5
  -5.87527E+5   1.49334E+5
  -5.85317E+5   1.23995E+5
  -5.81610E+5   9.90750E+4
  -5.75550E+5   7.61000E+4
  -5.69323E+5   5.33267E+4
  -5.61784E+5   3.04689E+4
  -5.53650E+5   7.64735E+3
  -5.45094E+5  -1.37810E+4
  -5.35549E+5  -3.33633E+4
  -5.25142E+5  -5.18872E+4
  -5.15088E+5  -7.07593E+4
  -5.04484E+5  -9.02383E+4
  -4.93735E+5  -1.08484E+5
  -4.81917E+5  -1.25969E+5
  -4.69211E+5  -1.43312E+5
  -4.54637E+5  -1.60938E+5
  -4.40285E+5  -1.77278E+5
  -4.26492E+5  -1.92855E+5
  -4.13088E+5  -2.07358E+5
  -3.98970E+5  -2.21137E+5
  -3.83256E+5  -2.35059E+5
  -3.66938E+5  -2.47988E+5
  -3.51105E+5  -2.60348E+5
  -3.37030E+5  -2.71344E+5
  -3.22259E+5  -2.81913E+5
  -3.05668E+5  -2.91465E+5
  -2.88589E+5  -3.00445E+5
  -2.71891E+5  -3.09703E+5
  -2.55597E+5  -3.18788E+5
  -2.39322E+5  -3.26476E+5
  -2.22444E+5  -3.33183E+5
  -2.05341E+5  -3.38281E+5
  -1.88013E+5  -3.43702E+5
  -1.71405E+5  -3.49250E+5
  -1.54892E+5  -3.53605E+5
  -1.38477E+5  -3.56861E+5
  -1.22763E+5  -3.58740E+5
  -1.06920E+5  -3.60624E+5
  -9.08759E+4  -3.62585E+5
  -7.52713E+4  -3.63701E+5
  -6.10868E+4  -3.63470E+5
  -4.70453E+4  -3.62540E+5
  -3.20235E+4  -3.61659E+5
  -1.71610E+4  -3.60530E+5
  -2.20347E+3  -3.58832E+5
   1.13838E+4  -3.56199E+5
   2.46093E+4  -3.53164E+5
   3.78834E+4  -3.48774E+5
   5.18166E+4  -3.45541E+5
   6.53054E+4  -3.41513E+5
   7.73513E+4  -3.37159E+5
   8.86079E+4  -3.32060E+5
   1.00183E+5  -3.26685E+5
   1.12059E+5  -3.20008E+5
   1.23225E+5  -3.13152E+5
   1.33008E+5  -3.07241E+5
   1.41897E+5  -3.01676E+5
   1.51872E+5  -2.94835E+5
   1.61012E+5  -2.87081E+5
   1.70146E+5  -2.78765E+5
   1.78046E+5  -2.71106E+5
   1.86428E+5  -2.64285E+5
   1.94174E+5  -2.56344E+5
   2.01433E+5  -2.47943E+5
   2.08329E+5  -2.39010E+5
   2.15325E+5  -2.30439E+5
   2.21996E+5  -2.21413E+5
   2.27941E+5  -2.12897E+5
   2.32802E+5  -2.03979E+5
   2.37078E+5  -1.94618E+5
   2.41372E+5  -1.85629E+5
   2.46070E+5  -1.77240E+5
   2.50359E+5  -1.68285E+5
   2.53624E+5  -1.59419E+5
   2.56511E+5  -1.50294E+5
   2.59492E+5  -1.41350E+5
   2.61725E+5  -1.32327E+5
   2.63719E+5  -1.23256E+5
   2.65245E+5  -1.14170E+5
   2.66267E+5  -1.05867E+5
   2.67573E+5  -9.64812E+4
   2.68656E+5  -8.70985E+4
   2.68708E+5  -7.79725E+4
   2.68230E+5  -6.98324E+4
   2.67593E+5  -6.14054E+4
   2.66796E+5  -5.29002E+4
   2.65727E+5  -4.45764E+4
   2.64567E+5  -3.66018E+4
   2.62922E+5  -2.88033E+4
   2.61131E+5  -2.08950E+4
   2.58494E+5  -1.30718E+4
   2.55871E+5  -5.25682E+3
   2.52824E+5   2.06986E+3
   2.49724E+5   8.53155E+3
   2.46919E+5   1.52183E+4
   2.43476E+5   2.19420E+4
   2.39102E+5   2.85942E+4
   2.34958E+5   3.49721E+4
   2.30462E+5   4.11832E+4
   2.26407E+5   4.66642E+4
   2.21695E+5   5.20853E+4
   2.16793E+5   5.72560E+4
   2.11993E+5   6.20258E+4
   2.06872E+5   6.71306E+4
   2.02423E+5   7.20222E+4
   1.97176E+5   7.63215E+4
   1.91666E+5   8.02936E+4
   1.86297E+5   8.37343E+4
   1.80763E+5   8.73999E+4
   1.75269E+5   9.10510E+4
   1.69853E+5   9.43194E+4
   1.64546E+5   9.71296E+4
   1.58460E+5   9.97775E+4
   1.52815E+5   1.02640E+5
   1.46772E+5   1.04921E+5
   1.41219E+5   1.07367E+5
   1.35549E+5   1.08997E+5
   1.30381E+5   1.10722E+5
   1.24748E+5   1.12392E+5
   1.18916E+5   1.13570E+5
   1.13182E+5   1.14855E+5
   1.07966E+5   1.15759E+5
   1.02538E+5   1.16646E+5
   9.70672E+4   1.17320E+5
   9.14602E+4   1.17537E+5
   8.61808E+4   1.17731E+5
   8.11979E+4   1.18090E+5
   7.57228E+4   1.18487E+5
   7.06558E+4   1.18151E+5
   6.52265E+4   1.17529E+5
   6.04444E+4   1.16938E+5
   5.57892E+4   1.16636E+5
   5.15704E+4   1.16133E+5
   4.61659E+4   1.15031E+5
   4.17876E+4   1.13745E+5
   3.73659E+4   1.12830E+5
   3.29045E+4   1.11280E+5
   2.84692E+4   1.10047E+5
   2.45285E+4   1.08217E+5
   2.04212E+4   1.06545E+5
   1.68431E+4   1.04857E+5
   1.30950E+4   1.03389E+5
   9.07975E+3   1.01630E+5
   5.62348E+3   9.94975E+4
   1.93090E+3   9.71511E+4
  -1.41435E+3   9.52854E+4
  -4.69845E+3   9.26473E+4
  -7.83136E+3   9.04912E+4
  -1.08154E+4   8.80127E+4
  -1.33814E+4   8.54763E+4
  -1.65776E+4   8.31579E+4
  -1.93092E+4   8.03109E+4
  -2.20391E+4   7.75893E+4
  -2.38719E+4   7.47651E+4
  -2.63117E+4   7.21272E+4
  -2.87175E+4   6.92095E+4
  -3.07564E+4   6.67211E+4
  -3.26993E+4   6.37052E+4
  -3.43611E+4   6.04884E+4
  -3.59975E+4   5.76771E+4
  -3.75566E+4   5.48886E+4
  -3.89620E+4   5.17189E+4
  -4.03864E+4   4.86720E+4
  -4.16044E+4   4.58929E+4
  -4.28069E+4   4.28064E+4
  -4.41533E+4   3.98917E+4
  -4.48146E+4   3.66751E+4
  -4.51764E+4   3.40147E+4
  -4.58303E+4   3.10707E+4
  -4.66465E+4   2.80915E+4
  -4.69480E+4   2.54876E+4
  -4.71525E+4   2.26595E+4
  -4.74440E+4   1.99770E+4
  -4.76965E+4   1.71501E+4
  -4.76924E+4   1.46098E+4
  -4.75488E+4   1.20046E+4
  -4.76618E+4   9.47496E+3
  -4.73202E+4   6.92107E+3
  -4.69891E+4   4.73674E+3
  -4.67593E+4   2.18591E+3
  -4.63710E+4   1.49553E+1
  -4.60312E+4  -2.15568E+3
  -4.53102E+4  -4.40076E+3
  -4.44711E+4  -6.18297E+3
  -4.37727E+4  -8.22302E+3
  -4.30470E+4  -1.00785E+4
  -4.24023E+4  -1.19697E+4
  -4.18663E+4  -1.35791E+4
  -4.07086E+4  -1.50422E+4
  -3.98568E+4  -1.65284E+4
  -3.91476E+4  -1.84322E+4
  -3.79127E+4  -1.99255E+4
  -3.70449E+4  -2.09894E+4
  -3.59525E+4  -2.23345E+4
  -3.51027E+4  -2.36522E+4
  -3.40755E+4  -2.45492E+4
  -3.28437E+4  -2.57571E+4
  -3.17435E+4  -2.69080E+4
  -3.05181E+4  -2.76853E+4
  -2.91934E+4  -2.84411E+4
  -2.84266E+4  -2.93408E+4
  -2.69238E+4  -3.02163E+4
  -2.58816E+4  -3.06249E+4
  -2.43251E+4  -3.14518E+4
  -2.33388E+4  -3.17486E+4
  -2.21185E+4  -3.22774E+4
  -2.09489E+4  -3.27609E+4
  -1.97620E+4  -3.29840E+4
  -1.84945E+4  -3.33682E+4
  -1.73641E+4  -3.35440E+4
  -1.61978E+4  -3.37168E+4
  -1.47262E+4  -3.42043E+4
  -1.35996E+4  -3.39099E+4
  -1.25001E+4  -3.38284E+4
  -1.11882E+4  -3.39500E+4
  -1.00560E+4  -3.37887E+4
  -9.22274E+3  -3.37957E+4
  -7.99197E+3  -3.34638E+4
  -6.96480E+3  -3.34314E+4
  -5.90398E+3  -3.32143E+4
  -4.64856E+3  -3.27245E+4
  -3.63768E+3  -3.25511E+4
  -2.83833E+3  -3.19766E+4
  -1.73587E+3  -3.17779E+4
  -1.08163E+3  -3.12950E+4
  -4.53645E+0  -3.10884E+4
   8.45661E+2  -3.05587E+4
   1.81295E+3  -2.97096E+4
   2.62289E+3  -2.90616E+4
   3.33289E+3  -2.84907E+4
   4.09410E+3  -2.79972E+4
   4.92303E+3  -2.72751E+4
   5.63714E+3  -2.67664E+4
   6.12492E+3  -2.59272E+4
   6.71310E+3  -2.54309E+4
   7.42453E+3  -2.47648E+4
   8.03758E+3  -2.38495E+4
   8.44619E+3  -2.32776E+4
   8.82925E+3  -2.25732E+4
   9.41137E+3  -2.17061E+4
   9.90435E+3  -2.11597E+4
   1.02183E+4  -2.02774E+4
   1.02294E+4  -1.93761E+4
   1.07701E+4  -1.85645E+4
   1.08898E+4  -1.76407E+4
   1.09617E+4  -1.72379E+4
   1.13347E+4  -1.62164E+4
   1.15265E+4  -1.57682E+4
   1.15883E+4  -1.51085E+4
   1.17432E+4  -1.41966E+4
   1.18347E+4  -1.34911E+4
   1.18930E+4  -1.24495E+4
   1.18617E+4  -1.19274E+4
   1.14793E+4  -1.12974E+4
   1.18026E+4  -1.05440E+4
   1.18424E+4  -9.98911E+3
   1.18971E+4  -9.23653E+3
   1.17289E+4  -8.58687E+3
   1.17116E+4  -8.03194E+3
   1.13541E+4  -7.17241E+3
   1.13512E+4  -6.41421E+3
   1.08446E+4  -6.25740E+3
   1.12016E+4  -5.79521E+3
   1.09041E+4  -4.79448E+3
   1.02195E+4  -4.21249E+3
   1.03096E+4  -3.78476E+3
   1.01199E+4  -3.52667E+3
   9.80209E+3  -2.96843E+3
   9.59606E+3  -2.36163E+3
   9.36628E+3  -2.11631E+3
   8.91401E+3  -1.23999E+3
   8.64552E+3  -1.02664E+3
   8.36748E+3  -8.38843E+2
   8.24841E+3  -4.63248E+2
   7.92923E+3   6.57878E+1
   7.42937E+3   4.07657E+2
   7.03618E+3   4.77836E+2
   6.95864E+3   9.94821E+2
   6.76362E+3   1.11999E+3
   6.29303E+3   1.66385E+3
   5.97434E+3   1.62761E+3
   5.62055E+3   1.86445E+3
   5.50587E+3   2.17349E+3
   5.04447E+3   2.14547E+3
   4.60441E+3   2.45116E+3
   4.61089E+3   2.46288E+3
   4.51941E+3   2.37242E+3
   3.83243E+3   2.60372E+3
   3.77360E+3   2.68644E+3
   3.63650E+3   2.99207E+3
   3.19864E+3   2.77439E+3
   2.87765E+3   2.59350E+3
   2.51111E+3   2.61622E+3
   2.26880E+3   2.74860E+3
   2.29643E+3   2.83693E+3
   1.94800E+3   2.62578E+3
   1.74381E+3   2.58468E+3
   1.37574E+3   2.46067E+3
   1.37993E+3   2.50580E+3
   9.56647E+2   2.02851E+3
   1.06028E+3   1.88245E+3
   9.03326E+2   1.73902E+3
   7.04092E+2   1.85330E+3
   4.54748E+2   1.50452E+3
   3.02463E+2   1.16184E+3
   6.94191E+1   1.41592E+3
  -1.55275E+2   9.06016E+2
   5.31456E+1   1.02509E+3
  -1.52032E+2   2.86614E+2
  -2.53591E+2   4.42150E+2
  -3.91800E+2   1.11687E+2
  -3.29919E+2   1.39177E+2
  -1.53976E+2  -1.27772E+2
  -5.60234E+2  -6.46915E+2
  -5.52077E+2  -1.07311E+3
  -5.43868E+2  -8.27196E+2
  -5.34449E+2  -1.08345E+3
  -8.07377E+2  -1.29329E+3
