 LCModel (Version 6.3-1N) Copyright: S.W. Provencher.          Ref.: Magn. Reson. Med. 30:672-679 (1993).                
 Slice_N1@8_11  28-Feb-2025 11:43:18
 27 lines in following concentration table = NCONC+1
    Conc.  %SD /Cr+PCr  Metabolite                                         
 2.99E-04   4% 5.4E-04 Mac                                                 
    1.163  88%   2.117 Cr                                                  
    3.231  31%   5.883 PCr                                                 
    1.791  39%   3.261 Ins                                                 
    6.973  10%  12.695 NAA                                                 
    2.909  26%   5.295 Tau                                                 
    0.000 999%   0.000 PCho                                                
    0.467  50%   0.850 GPC                                                 
    7.376  13%  13.428 Glu                                                 
    3.181  22%   5.790 Gln                                                 
    0.943  64%   1.717 Ala                                                 
    0.000 999%   0.000 Asc                                                 
    1.169  58%   2.128 Asp                                                 
    0.000 999%   0.000 GABA                                                
    0.153 288%   0.279 Glc                                                 
    0.694  58%   1.264 GSH                                                 
    1.201  49%   2.187 Lac                                                 
    2.536  19%   4.616 NAAG                                                
    2.393  38%   4.356 PE                                                  
    0.467  50%   0.850 GPC+PCho                                            
    9.509   9%  17.311 NAA+NAAG                                            
   10.557  11%  19.218 Glu+Gln                                             
    4.395  13%   8.000 Cr+PCr                                              
    9.509   9%  17.311 NAA+NAAG                                            
    4.395  13%   8.000 Cr+PCr                                              
   10.557  11%  19.218 Glu+Gln                                             
   6 lines in following misc. output table
  FWHM = 0.024 ppm    S/N =   3                                            
  Data shift = 0.049 ppm                                                   
  Ph: 135 deg       0.0 deg/ppm                                            
  alphaB,S = 3.9E-01,   5.3E+00                                            
   19 spline knots.   Ns = 5(1)                                            
  ( 8) 1 infls.   ( 4) 2 extrs.                                            
  480 points on ppm-axis = NY
      4.100000     4.091866     4.083733     4.075600     4.067466     4.059333     4.051199     4.043066     4.034933     4.026799
      4.018666     4.010532     4.002399     3.994265     3.986132     3.977998     3.969864     3.961731     3.953597     3.945463
      3.937330     3.929196     3.921062     3.912929     3.904795     3.896662     3.888528     3.880394     3.872261     3.864127
      3.855993     3.847860     3.839726     3.831592     3.823459     3.815325     3.807191     3.799058     3.790924     3.782790
      3.774657     3.766523     3.758389     3.750256     3.742122     3.733989     3.725855     3.717721     3.709588     3.701454
      3.693320     3.685187     3.677053     3.668919     3.660786     3.652652     3.644518     3.636385     3.628251     3.620117
      3.611984     3.603850     3.595716     3.587583     3.579449     3.571316     3.563182     3.555048     3.546915     3.538781
      3.530647     3.522514     3.514380     3.506246     3.498113     3.489979     3.481845     3.473712     3.465578     3.457444
      3.449311     3.441177     3.433043     3.424910     3.416776     3.408643     3.400509     3.392375     3.384242     3.376108
      3.367974     3.359841     3.351707     3.343573     3.335440     3.327306     3.319172     3.311039     3.302905     3.294771
      3.286638     3.278504     3.270370     3.262237     3.254103     3.245970     3.237836     3.229702     3.221569     3.213435
      3.205301     3.197168     3.189034     3.180900     3.172767     3.164633     3.156499     3.148366     3.140232     3.132098
      3.123965     3.115831     3.107697     3.099564     3.091430     3.083297     3.075163     3.067029     3.058896     3.050762
      3.042628     3.034495     3.026361     3.018227     3.010094     3.001960     2.993826     2.985693     2.977559     2.969425
      2.961292     2.953158     2.945024     2.936891     2.928757     2.920624     2.912490     2.904356     2.896223     2.888089
      2.879955     2.871822     2.863688     2.855554     2.847421     2.839287     2.831153     2.823020     2.814886     2.806752
      2.798619     2.790485     2.782351     2.774218     2.766084     2.757951     2.749817     2.741683     2.733550     2.725416
      2.717282     2.709149     2.701015     2.692881     2.684748     2.676614     2.668480     2.660347     2.652213     2.644079
      2.635946     2.627812     2.619678     2.611545     2.603411     2.595278     2.587144     2.579010     2.570877     2.562743
      2.554609     2.546476     2.538342     2.530208     2.522075     2.513941     2.505807     2.497674     2.489540     2.481406
      2.473273     2.465139     2.457006     2.448872     2.440738     2.432605     2.424471     2.416337     2.408204     2.400070
      2.391936     2.383803     2.375669     2.367535     2.359402     2.351268     2.343134     2.335001     2.326867     2.318733
      2.310600     2.302466     2.294333     2.286199     2.278065     2.269932     2.261798     2.253664     2.245531     2.237397
      2.229263     2.221130     2.212996     2.204862     2.196729     2.188595     2.180461     2.172328     2.164194     2.156060
      2.147927     2.139793     2.131660     2.123526     2.115392     2.107259     2.099125     2.090991     2.082858     2.074724
      2.066590     2.058457     2.050323     2.042189     2.034056     2.025922     2.017788     2.009655     2.001521     1.993387
      1.985254     1.977120     1.968987     1.960853     1.952719     1.944586     1.936452     1.928318     1.920185     1.912051
      1.903917     1.895784     1.887650     1.879516     1.871383     1.863249     1.855115     1.846982     1.838848     1.830714
      1.822581     1.814447     1.806314     1.798180     1.790046     1.781913     1.773779     1.765645     1.757512     1.749378
      1.741244     1.733111     1.724977     1.716843     1.708710     1.700576     1.692442     1.684309     1.676175     1.668041
      1.659908     1.651774     1.643641     1.635507     1.627373     1.619240     1.611106     1.602972     1.594839     1.586705
      1.578571     1.570438     1.562304     1.554170     1.546037     1.537903     1.529769     1.521636     1.513502     1.505368
      1.497235     1.489101     1.480968     1.472834     1.464700     1.456567     1.448433     1.440299     1.432166     1.424032
      1.415898     1.407765     1.399631     1.391497     1.383364     1.375230     1.367096     1.358963     1.350829     1.342695
      1.334562     1.326428     1.318295     1.310161     1.302027     1.293894     1.285760     1.277626     1.269493     1.261359
      1.253225     1.245092     1.236958     1.228824     1.220691     1.212557     1.204423     1.196290     1.188156     1.180022
      1.171889     1.163755     1.155622     1.147488     1.139354     1.131221     1.123087     1.114953     1.106820     1.098686
      1.090552     1.082419     1.074285     1.066151     1.058018     1.049884     1.041750     1.033617     1.025483     1.017349
      1.009216     1.001082     0.992949     0.984815     0.976681     0.968548     0.960414     0.952280     0.944147     0.936013
      0.927879     0.919746     0.911612     0.903478     0.895345     0.887211     0.879077     0.870944     0.862810     0.854676
      0.846543     0.838409     0.830276     0.822142     0.814008     0.805875     0.797741     0.789607     0.781474     0.773340
      0.765206     0.757073     0.748939     0.740805     0.732672     0.724538     0.716404     0.708271     0.700137     0.692003
      0.683870     0.675736     0.667603     0.659469     0.651335     0.643202     0.635068     0.626934     0.618801     0.610667
      0.602533     0.594400     0.586266     0.578132     0.569999     0.561865     0.553731     0.545598     0.537464     0.529330
      0.521197     0.513063     0.504930     0.496796     0.488662     0.480529     0.472395     0.464261     0.456128     0.447994
      0.439861     0.431727     0.423593     0.415460     0.407326     0.399192     0.391059     0.382925     0.374792     0.366658
      0.358524     0.350391     0.342257     0.334124     0.325990     0.317856     0.309723     0.301589     0.293455     0.285322
      0.277188     0.269055     0.260921     0.252787     0.244654     0.236520     0.228386     0.220253     0.212119     0.203986
 NY phased data points follow
  -1.14191E+02 -1.29783E+02 -1.30762E+02 -1.26563E+02 -1.38505E+02 -1.28833E+02 -1.39270E+02 -1.19767E+02 -1.35263E+02 -1.38445E+02
  -1.40070E+02 -1.47368E+02 -1.41081E+02 -1.65224E+02 -1.48927E+02 -1.56219E+02 -1.49173E+02 -1.46746E+02 -1.84778E+02 -1.77241E+02
  -1.83752E+02 -1.99336E+02 -1.58356E+02 -1.30057E+02 -1.52553E+02 -1.23256E+02 -1.02412E+02 -1.02762E+02 -7.12140E+01 -6.69401E+01
  -7.80541E+01 -9.64664E+01 -7.97143E+01 -6.63147E+01 -8.68043E+01 -9.49332E+01 -1.00137E+02 -9.33602E+01 -1.02942E+02 -1.26823E+02
  -1.48918E+02 -1.44203E+02 -1.33438E+02 -1.43036E+02 -1.22825E+02 -1.07236E+02 -8.67072E+01 -5.42078E+01 -4.11582E+01 -4.03646E+01
  -4.14850E+01 -4.59077E+01 -7.27170E+01 -5.74379E+01 -4.82814E+01 -7.40374E+01 -6.98953E+01 -8.03110E+01 -8.38555E+01 -7.44197E+01
  -7.53752E+01 -7.31724E+01 -7.50998E+01 -7.81320E+01 -5.05393E+01 -3.29635E+01 -6.56373E+01 -6.19342E+01 -4.77974E+01 -6.69204E+01
  -7.95150E+01 -6.65829E+01 -5.93684E+01 -7.39190E+01 -5.68957E+01 -3.74555E+01 -5.19278E+01 -6.24236E+01 -2.35700E+01 -2.91589E+01
  -4.81789E+01 -1.66540E+01 -4.39488E+01 -4.94935E+01 -5.63463E+01 -5.56750E+01 -4.49379E+01 -7.81029E+01 -5.32143E+01 -5.29481E+01
  -4.81814E+01 -2.52710E+01 -2.87220E+01 -2.07878E+01 -1.67248E+01 -1.09215E+01 -1.11985E+01  6.85774E-01 -2.00811E+01 -2.97016E+01
  -1.24670E+01 -4.76164E+00 -1.22205E+01 -4.10790E+01 -4.15798E+01 -5.35279E+01 -4.92135E+01 -6.93353E+01 -1.17787E+02 -9.80787E+01
  -1.14844E+02 -1.72629E+02 -1.49944E+02 -1.33862E+02 -1.32248E+02 -1.06141E+02 -1.36858E+02 -1.25790E+02 -1.28734E+02 -1.27777E+02
  -7.14834E+01 -8.82725E+01 -9.16141E+01 -8.63466E+01 -7.32715E+01 -5.13675E+01 -6.39772E+01 -4.88817E+01 -4.48539E+00  1.12781E+01
   7.45540E+00  1.67626E+01 -8.67744E+00 -5.66187E+01 -1.13132E+02 -1.38684E+02 -1.25204E+02 -1.36390E+02 -1.52353E+02 -1.49922E+02
  -1.28902E+02 -1.12695E+02 -1.19178E+02 -1.17436E+02 -1.31622E+02 -1.41694E+02 -1.27829E+02 -1.51580E+02 -1.32476E+02 -1.22940E+02
  -1.34785E+02 -1.07239E+02 -1.09451E+02 -1.12841E+02 -1.15665E+02 -1.00099E+02 -1.00556E+02 -9.01655E+01 -8.72413E+01 -9.80064E+01
  -9.02682E+01 -1.04458E+02 -9.24324E+01 -9.37375E+01 -8.18630E+01 -1.14580E+02 -1.16887E+02 -8.36962E+01 -9.82527E+01 -6.72646E+01
  -8.80052E+01 -7.65361E+01 -3.95389E+01 -5.56630E+01 -6.58535E+01 -5.70056E+01 -5.91192E+01 -6.43521E+01 -4.86657E+01 -6.05989E+01
  -6.63207E+01 -9.54441E+01 -1.01067E+02 -1.06357E+02 -1.14925E+02 -1.03124E+02 -1.26982E+02 -1.18109E+02 -1.25224E+02 -1.25670E+02
  -1.07743E+02 -9.26618E+01 -8.46260E+01 -1.08066E+02 -9.82737E+01 -7.78832E+01 -8.23271E+01 -8.54159E+01 -8.03222E+01 -6.27235E+01
  -5.67506E+01 -8.53169E+01 -7.94821E+01 -6.84885E+01 -7.60884E+01 -7.87444E+01 -8.62383E+01 -8.44133E+01 -8.86905E+01 -8.76152E+01
  -1.03523E+02 -1.06198E+02 -9.29305E+01 -8.55742E+01 -5.86725E+01 -4.32822E+01 -3.19568E+01 -1.36775E+01  9.52273E-01 -7.43207E+00
  -3.61946E+01 -4.36307E+01 -5.96712E+01 -7.16976E+01 -4.42173E+01 -6.24135E+01 -5.78332E+01 -3.59829E+01 -5.86249E+01 -5.39429E+01
  -6.35662E+01 -7.02166E+01 -7.05976E+01 -7.61231E+01 -8.46987E+01 -9.33420E+01 -1.23852E+02 -1.41188E+02 -1.16675E+02 -1.41388E+02
  -1.42475E+02 -1.40861E+02 -1.35260E+02 -1.12070E+02 -1.06451E+02 -9.26780E+01 -9.88309E+01 -8.98784E+01 -1.16817E+02 -1.22894E+02
  -9.45437E+01 -1.24913E+02 -1.25633E+02 -1.14754E+02 -1.51614E+02 -1.66355E+02 -1.60794E+02 -1.47393E+02 -6.23734E+01  4.09175E+01
   7.37112E+01  6.71369E+01  7.74095E+01  7.01782E+01  4.50984E+01  3.41578E+01  3.39364E+01  2.84539E+01  1.50788E+01  1.91252E+01
   1.16438E+01  1.56701E+01  1.65840E+01  9.57645E+00  3.51652E+00 -1.06649E+01 -9.43745E-01 -6.91623E+00  1.10452E+00  4.94161E+00
  -3.74223E+00  5.69224E+00  8.60037E+00  8.73209E+00 -9.58831E+00 -1.31355E+01 -2.20657E+01 -3.37223E+01 -3.80026E+01 -5.19297E+01
  -2.41790E+01 -2.65633E+01 -4.82523E+01 -4.12793E+01 -5.58133E+01 -5.16561E+01 -4.42025E+01 -5.86154E+01 -6.31183E+01 -6.96704E+01
  -8.36198E+01 -6.86768E+01 -4.62742E+01 -4.78648E+01 -7.49259E+01 -7.63256E+01 -3.84878E+01 -5.51215E+01 -2.19779E+01  7.53534E+00
  -1.57362E+01  7.14100E+00  6.56519E-01  3.84883E+00 -1.12104E+01 -6.11702E+00  1.60248E+01  1.69359E+01  4.94191E+01  4.79635E+01
   5.75376E+01  6.81303E+01  7.82523E+01  9.03242E+01  8.19264E+01  6.84926E+01  2.92313E+01  1.46057E+01  7.35500E+00 -2.60833E+01
  -4.17148E+01 -6.21380E+01 -7.40575E+01 -7.85785E+01 -1.04046E+02 -9.12127E+01 -8.67308E+01 -7.53646E+01 -6.76316E+01 -5.65985E+01
  -3.33013E+01 -3.73036E+01 -1.55177E+01 -5.56972E+01 -5.98149E+01 -4.37150E+01 -5.72590E+01 -4.22975E+01 -4.35037E+01 -2.44495E+01
  -1.83466E+01 -1.37559E+01 -2.90200E+01 -5.39282E+00 -6.49775E+00 -3.36353E+01 -1.66688E+01 -3.74385E+01 -3.14803E+01 -5.08761E+01
  -6.10532E+01 -5.26910E+01 -5.11205E+01 -4.11124E+01 -5.21563E+01 -4.50170E+01 -3.65073E+01 -3.16185E+01 -3.12189E+01 -2.67909E+01
  -4.03773E+01 -5.53731E+01 -3.90799E+01 -1.19542E+01 -2.38786E+01 -4.54632E+01 -2.63964E+01 -1.61587E+01 -1.48010E+01 -1.54316E+01
  -1.98546E+01  6.52294E+00  3.88990E+01  2.41801E+01  3.64000E+01  4.70966E+01  5.49399E+01  4.87962E+01  2.73500E+01  7.51360E+01
   8.02139E+01  6.28358E+01  5.16890E+01  5.47549E+01  2.60505E+01  4.06585E+00  3.22410E+01  1.91188E+01  1.92009E+01 -2.26804E+01
  -2.18846E+01 -6.73102E-01 -3.69828E+01 -5.00309E+01 -4.85063E+01 -4.38463E+01 -5.99469E+01 -6.75066E+01 -6.65604E+01 -6.10069E+01
  -7.08935E+01 -6.92969E+01 -6.81505E+01 -8.25212E+01 -5.48340E+01 -3.12287E+01 -6.83531E+01 -6.84750E+01 -3.14871E+01 -5.86476E+01
  -5.72862E+01 -6.70869E+01 -6.98707E+01 -6.60802E+01 -7.85587E+01 -6.75009E+01 -7.00569E+01 -5.52793E+01 -6.86264E+01 -5.17587E+01
  -6.22404E+01 -7.28355E+01 -4.86988E+01 -6.47661E+01 -5.72337E+01 -6.37571E+01 -4.69774E+01 -5.51649E+01 -7.23395E+01 -5.84300E+01
  -7.55769E+01 -7.52492E+01 -6.19201E+01 -7.11747E+01 -6.98768E+01 -6.16785E+01 -7.07693E+01 -5.26618E+01 -6.11347E+01 -7.89054E+01
  -6.52565E+01 -4.93317E+01 -4.00432E+01 -4.68126E+01 -5.88567E+01 -7.78625E+01 -6.03539E+01 -5.41870E+01 -6.11669E+01 -4.32735E+01
  -4.97438E+01 -4.57950E+01 -4.31108E+01 -6.66020E+01 -6.05434E+01 -5.01650E+01 -5.59956E+01 -6.85517E+01 -6.56292E+01 -4.38070E+01
  -5.49053E+01 -5.43448E+01 -4.63741E+01 -4.92469E+01 -6.39565E+01 -7.07406E+01 -4.73147E+01 -4.44843E+01 -4.65276E+01 -4.36221E+01
 NY points of the fit to the data follow
  -1.24594E+02 -1.24807E+02 -1.26910E+02 -1.29099E+02 -1.30247E+02 -1.30170E+02 -1.27744E+02 -1.24254E+02 -1.22861E+02 -1.24505E+02
  -1.28440E+02 -1.34008E+02 -1.41794E+02 -1.50055E+02 -1.54304E+02 -1.51426E+02 -1.52589E+02 -1.55691E+02 -1.61255E+02 -1.69230E+02
  -1.75565E+02 -1.72721E+02 -1.55639E+02 -1.34206E+02 -1.19749E+02 -1.09157E+02 -9.98606E+01 -9.47540E+01 -9.00880E+01 -8.50725E+01
  -8.13566E+01 -7.92057E+01 -7.80374E+01 -7.71389E+01 -7.40779E+01 -6.96997E+01 -6.58307E+01 -7.00110E+01 -8.33498E+01 -1.07218E+02
  -1.34466E+02 -1.53911E+02 -1.56489E+02 -1.41959E+02 -1.18217E+02 -9.43559E+01 -7.61007E+01 -6.54660E+01 -6.10417E+01 -5.91890E+01
  -5.94697E+01 -6.09132E+01 -6.43072E+01 -6.83794E+01 -7.09731E+01 -7.38772E+01 -7.61400E+01 -7.62421E+01 -7.65021E+01 -7.76527E+01
  -7.94229E+01 -7.82269E+01 -7.49615E+01 -7.23252E+01 -6.69683E+01 -5.99282E+01 -5.72471E+01 -5.82391E+01 -6.17562E+01 -6.82332E+01
  -7.46442E+01 -7.70172E+01 -7.42574E+01 -7.03159E+01 -6.66490E+01 -6.12265E+01 -5.40797E+01 -4.87898E+01 -4.22147E+01 -3.77699E+01
  -3.60630E+01 -3.97931E+01 -4.94420E+01 -6.15158E+01 -7.29551E+01 -7.99103E+01 -8.05826E+01 -7.64301E+01 -6.99162E+01 -6.27288E+01
  -5.70903E+01 -5.21690E+01 -4.79687E+01 -4.48535E+01 -4.23498E+01 -4.11885E+01 -4.15688E+01 -4.14828E+01 -3.87796E+01 -3.59304E+01
  -2.90477E+01 -2.37921E+01 -2.07132E+01 -2.48984E+01 -3.15164E+01 -3.62363E+01 -4.49321E+01 -5.92237E+01 -7.81852E+01 -1.01998E+02
  -1.28134E+02 -1.47525E+02 -1.51992E+02 -1.43840E+02 -1.33771E+02 -1.24901E+02 -1.16499E+02 -1.09578E+02 -1.04169E+02 -9.99760E+01
  -9.66473E+01 -9.35525E+01 -8.95989E+01 -8.22925E+01 -7.18536E+01 -6.31734E+01 -5.98533E+01 -3.82623E+01 -9.34497E+00  1.76728E+01
   3.37023E+01  3.27886E+01  6.49114E+00 -4.63467E+01 -9.57054E+01 -1.16197E+02 -1.21092E+02 -1.24756E+02 -1.24148E+02 -1.22992E+02
  -1.22558E+02 -1.22762E+02 -1.23908E+02 -1.25593E+02 -1.26885E+02 -1.27174E+02 -1.26152E+02 -1.23906E+02 -1.20854E+02 -1.17796E+02
  -1.15461E+02 -1.13686E+02 -1.12186E+02 -1.10237E+02 -1.07631E+02 -1.04917E+02 -1.02741E+02 -1.01337E+02 -1.00150E+02 -9.91483E+01
  -9.81439E+01 -9.74978E+01 -9.65857E+01 -9.52306E+01 -9.36859E+01 -9.25514E+01 -9.37460E+01 -9.75941E+01 -1.00661E+02 -9.90191E+01
  -9.19366E+01 -8.24068E+01 -7.47792E+01 -7.16824E+01 -7.22473E+01 -7.30793E+01 -6.86770E+01 -6.16280E+01 -5.87096E+01 -6.33737E+01
  -7.27920E+01 -8.18390E+01 -8.86805E+01 -9.42869E+01 -9.79275E+01 -1.00073E+02 -1.01675E+02 -1.00855E+02 -9.96118E+01 -1.01177E+02
  -1.01685E+02 -1.00060E+02 -9.86947E+01 -9.72273E+01 -9.47562E+01 -8.78757E+01 -8.32236E+01 -8.24475E+01 -7.91572E+01 -7.51305E+01
  -7.39088E+01 -7.41460E+01 -7.33893E+01 -6.95640E+01 -6.66933E+01 -6.66913E+01 -6.77651E+01 -7.30585E+01 -8.09615E+01 -9.49930E+01
  -1.11421E+02 -1.20446E+02 -1.23739E+02 -1.13840E+02 -9.39259E+01 -6.83456E+01 -4.49748E+01 -3.28701E+01 -3.01601E+01 -3.32864E+01
  -4.15001E+01 -4.73409E+01 -4.70859E+01 -4.47464E+01 -4.05497E+01 -3.68016E+01 -3.48612E+01 -3.57136E+01 -4.08572E+01 -4.84476E+01
  -5.93893E+01 -7.40432E+01 -8.87639E+01 -1.04249E+02 -1.17231E+02 -1.26648E+02 -1.31164E+02 -1.32098E+02 -1.31960E+02 -1.31185E+02
  -1.29904E+02 -1.28213E+02 -1.24076E+02 -1.14892E+02 -1.05664E+02 -9.60438E+01 -8.90785E+01 -8.03776E+01 -8.34520E+01 -9.70448E+01
  -1.07186E+02 -1.00820E+02 -1.12249E+02 -1.34625E+02 -1.53068E+02 -1.61895E+02 -1.63607E+02 -1.41245E+02 -7.27232E+01  3.83253E+00
   3.94179E+01  4.51705E+01  4.67674E+01  4.25038E+01  3.65698E+01  3.12520E+01  2.62317E+01  2.13962E+01  1.68693E+01  1.33451E+01
   1.09038E+01  9.49408E+00  8.64415E+00  8.10824E+00  7.86979E+00  7.71855E+00  7.76208E+00  7.97813E+00  8.12044E+00  8.05350E+00
   7.47444E+00  6.47578E+00  5.22695E+00  3.93743E+00  2.78401E+00  1.52196E+00  1.66681E-01 -1.10317E+00 -2.89351E+00 -5.63560E+00
  -9.69706E+00 -1.50786E+01 -2.13347E+01 -2.78888E+01 -3.35544E+01 -3.74315E+01 -3.92619E+01 -3.94009E+01 -3.82188E+01 -3.62146E+01
  -3.35858E+01 -3.03706E+01 -2.70500E+01 -2.40974E+01 -2.14196E+01 -1.89549E+01 -1.63054E+01 -1.33743E+01 -1.01602E+01 -6.77042E+00
  -3.46149E+00 -4.82792E-01  2.62485E+00  5.93284E+00  9.22922E+00  1.18277E+01  1.38718E+01  1.53916E+01  1.75532E+01  1.99795E+01
   2.19633E+01  2.43839E+01  2.39853E+01  2.01176E+01  1.24112E+01  2.28990E+00 -8.62068E+00 -2.04470E+01 -3.22096E+01 -4.31118E+01
  -5.45585E+01 -6.57916E+01 -7.45972E+01 -7.98357E+01 -8.09703E+01 -7.88240E+01 -7.42748E+01 -6.69613E+01 -6.01781E+01 -5.22845E+01
  -4.63429E+01 -4.29956E+01 -4.32105E+01 -4.63378E+01 -4.89954E+01 -4.96261E+01 -4.78911E+01 -4.33484E+01 -3.79077E+01 -3.37410E+01
  -3.13725E+01 -3.17113E+01 -3.47723E+01 -4.01999E+01 -4.69441E+01 -5.36691E+01 -5.89998E+01 -6.25441E+01 -6.43558E+01 -6.42735E+01
  -6.26365E+01 -5.98363E+01 -5.61178E+01 -5.21365E+01 -4.81776E+01 -4.43325E+01 -4.08720E+01 -3.76143E+01 -3.44242E+01 -3.14216E+01
  -2.87907E+01 -2.62727E+01 -2.38670E+01 -2.16095E+01 -1.90809E+01 -1.58373E+01 -1.19545E+01 -7.86319E+00 -2.92994E+00  3.21040E+00
   1.06010E+01  1.97971E+01  3.19175E+01  4.68882E+01  6.30190E+01  7.79318E+01  8.87196E+01  9.32471E+01  9.04894E+01  8.17821E+01
   6.99714E+01  5.85760E+01  4.90480E+01  4.15265E+01  3.56239E+01  2.96611E+01  2.20721E+01  1.20681E+01  6.35182E-01 -1.13878E+01
  -2.31866E+01 -3.35200E+01 -4.17593E+01 -4.81962E+01 -5.29458E+01 -5.61705E+01 -5.84126E+01 -6.03602E+01 -6.20957E+01 -6.36873E+01
  -6.50629E+01 -6.61212E+01 -6.65139E+01 -6.64835E+01 -6.66550E+01 -6.68022E+01 -6.67950E+01 -6.67657E+01 -6.69326E+01 -6.69193E+01
  -6.64292E+01 -6.59128E+01 -6.57831E+01 -6.58338E+01 -6.56837E+01 -6.56164E+01 -6.55639E+01 -6.53234E+01 -6.47322E+01 -6.39780E+01
  -6.36144E+01 -6.35232E+01 -6.36961E+01 -6.38273E+01 -6.38753E+01 -6.36018E+01 -6.32114E+01 -6.27602E+01 -6.21285E+01 -6.14214E+01
  -6.08523E+01 -6.05170E+01 -6.03059E+01 -6.03381E+01 -6.06204E+01 -6.06754E+01 -6.03240E+01 -5.98981E+01 -5.95752E+01 -5.93518E+01
  -5.92547E+01 -5.91980E+01 -5.90990E+01 -5.86896E+01 -5.82049E+01 -5.78061E+01 -5.73958E+01 -5.68843E+01 -5.64643E+01 -5.60817E+01
  -5.57467E+01 -5.57485E+01 -5.59428E+01 -5.62904E+01 -5.63232E+01 -5.60146E+01 -5.52924E+01 -5.43887E+01 -5.36033E+01 -5.31702E+01
  -5.31195E+01 -5.33942E+01 -5.36147E+01 -5.35169E+01 -5.32612E+01 -5.31320E+01 -5.30498E+01 -5.31968E+01 -5.35374E+01 -5.41730E+01
 NY background values follow
    -1.070E+02   -1.065E+02   -1.061E+02   -1.057E+02   -1.053E+02   -1.049E+02   -1.044E+02   -1.040E+02   -1.036E+02   -1.032E+02
    -1.027E+02   -1.023E+02   -1.019E+02   -1.015E+02   -1.011E+02   -1.006E+02   -1.002E+02   -9.979E+01   -9.937E+01   -9.895E+01
    -9.853E+01   -9.811E+01   -9.769E+01   -9.727E+01   -9.685E+01   -9.644E+01   -9.602E+01   -9.560E+01   -9.519E+01   -9.477E+01
    -9.435E+01   -9.394E+01   -9.353E+01   -9.311E+01   -9.270E+01   -9.229E+01   -9.188E+01   -9.147E+01   -9.106E+01   -9.066E+01
    -9.025E+01   -8.985E+01   -8.945E+01   -8.905E+01   -8.865E+01   -8.826E+01   -8.786E+01   -8.747E+01   -8.708E+01   -8.670E+01
    -8.631E+01   -8.593E+01   -8.555E+01   -8.518E+01   -8.480E+01   -8.443E+01   -8.406E+01   -8.370E+01   -8.334E+01   -8.298E+01
    -8.262E+01   -8.227E+01   -8.192E+01   -8.158E+01   -8.124E+01   -8.090E+01   -8.057E+01   -8.024E+01   -7.991E+01   -7.959E+01
    -7.927E+01   -7.895E+01   -7.864E+01   -7.834E+01   -7.803E+01   -7.773E+01   -7.744E+01   -7.715E+01   -7.686E+01   -7.658E+01
    -7.630E+01   -7.603E+01   -7.576E+01   -7.549E+01   -7.523E+01   -7.497E+01   -7.472E+01   -7.447E+01   -7.423E+01   -7.399E+01
    -7.375E+01   -7.352E+01   -7.330E+01   -7.308E+01   -7.286E+01   -7.265E+01   -7.244E+01   -7.224E+01   -7.204E+01   -7.184E+01
    -7.165E+01   -7.146E+01   -7.128E+01   -7.109E+01   -7.091E+01   -7.074E+01   -7.057E+01   -7.040E+01   -7.023E+01   -7.007E+01
    -6.991E+01   -6.975E+01   -6.959E+01   -6.944E+01   -6.929E+01   -6.914E+01   -6.899E+01   -6.885E+01   -6.871E+01   -6.857E+01
    -6.843E+01   -6.829E+01   -6.815E+01   -6.802E+01   -6.789E+01   -6.775E+01   -6.763E+01   -6.750E+01   -6.737E+01   -6.724E+01
    -6.712E+01   -6.700E+01   -6.688E+01   -6.676E+01   -6.664E+01   -6.652E+01   -6.640E+01   -6.629E+01   -6.617E+01   -6.606E+01
    -6.595E+01   -6.584E+01   -6.573E+01   -6.562E+01   -6.551E+01   -6.540E+01   -6.530E+01   -6.519E+01   -6.509E+01   -6.499E+01
    -6.488E+01   -6.478E+01   -6.468E+01   -6.458E+01   -6.448E+01   -6.438E+01   -6.428E+01   -6.419E+01   -6.409E+01   -6.399E+01
    -6.390E+01   -6.380E+01   -6.371E+01   -6.362E+01   -6.353E+01   -6.344E+01   -6.335E+01   -6.326E+01   -6.317E+01   -6.308E+01
    -6.300E+01   -6.291E+01   -6.283E+01   -6.274E+01   -6.266E+01   -6.258E+01   -6.250E+01   -6.242E+01   -6.234E+01   -6.226E+01
    -6.218E+01   -6.211E+01   -6.203E+01   -6.196E+01   -6.189E+01   -6.181E+01   -6.174E+01   -6.167E+01   -6.160E+01   -6.153E+01
    -6.147E+01   -6.140E+01   -6.133E+01   -6.127E+01   -6.121E+01   -6.114E+01   -6.108E+01   -6.102E+01   -6.096E+01   -6.090E+01
    -6.084E+01   -6.079E+01   -6.073E+01   -6.068E+01   -6.063E+01   -6.057E+01   -6.052E+01   -6.047E+01   -6.042E+01   -6.037E+01
    -6.033E+01   -6.028E+01   -6.024E+01   -6.019E+01   -6.015E+01   -6.011E+01   -6.007E+01   -6.003E+01   -5.999E+01   -5.995E+01
    -5.991E+01   -5.987E+01   -5.984E+01   -5.980E+01   -5.977E+01   -5.973E+01   -5.970E+01   -5.967E+01   -5.964E+01   -5.961E+01
    -5.957E+01   -5.954E+01   -5.952E+01   -5.949E+01   -5.946E+01   -5.943E+01   -5.940E+01   -5.938E+01   -5.935E+01   -5.932E+01
    -5.930E+01   -5.927E+01   -5.925E+01   -5.922E+01   -5.920E+01   -5.917E+01   -5.915E+01   -5.912E+01   -5.910E+01   -5.907E+01
    -5.905E+01   -5.902E+01   -5.900E+01   -5.897E+01   -5.895E+01   -5.892E+01   -5.889E+01   -5.887E+01   -5.884E+01   -5.881E+01
    -5.878E+01   -5.875E+01   -5.872E+01   -5.869E+01   -5.866E+01   -5.862E+01   -5.859E+01   -5.855E+01   -5.852E+01   -5.848E+01
    -5.844E+01   -5.840E+01   -5.836E+01   -5.832E+01   -5.827E+01   -5.823E+01   -5.818E+01   -5.813E+01   -5.808E+01   -5.803E+01
    -5.798E+01   -5.792E+01   -5.787E+01   -5.781E+01   -5.775E+01   -5.769E+01   -5.762E+01   -5.756E+01   -5.749E+01   -5.742E+01
    -5.735E+01   -5.727E+01   -5.720E+01   -5.712E+01   -5.704E+01   -5.696E+01   -5.687E+01   -5.678E+01   -5.669E+01   -5.660E+01
    -5.650E+01   -5.641E+01   -5.631E+01   -5.620E+01   -5.610E+01   -5.599E+01   -5.588E+01   -5.577E+01   -5.566E+01   -5.555E+01
    -5.544E+01   -5.532E+01   -5.521E+01   -5.509E+01   -5.498E+01   -5.486E+01   -5.474E+01   -5.463E+01   -5.451E+01   -5.439E+01
    -5.428E+01   -5.416E+01   -5.404E+01   -5.393E+01   -5.382E+01   -5.370E+01   -5.359E+01   -5.348E+01   -5.338E+01   -5.327E+01
    -5.316E+01   -5.306E+01   -5.296E+01   -5.286E+01   -5.276E+01   -5.267E+01   -5.257E+01   -5.248E+01   -5.239E+01   -5.230E+01
    -5.222E+01   -5.213E+01   -5.205E+01   -5.196E+01   -5.188E+01   -5.180E+01   -5.172E+01   -5.165E+01   -5.157E+01   -5.150E+01
    -5.142E+01   -5.135E+01   -5.128E+01   -5.121E+01   -5.114E+01   -5.108E+01   -5.101E+01   -5.095E+01   -5.088E+01   -5.082E+01
    -5.076E+01   -5.070E+01   -5.064E+01   -5.058E+01   -5.052E+01   -5.046E+01   -5.040E+01   -5.035E+01   -5.029E+01   -5.023E+01
    -5.018E+01   -5.012E+01   -5.007E+01   -5.001E+01   -4.996E+01   -4.990E+01   -4.985E+01   -4.979E+01   -4.974E+01   -4.968E+01
    -4.962E+01   -4.957E+01   -4.951E+01   -4.945E+01   -4.939E+01   -4.934E+01   -4.928E+01   -4.922E+01   -4.915E+01   -4.909E+01
    -4.903E+01   -4.896E+01   -4.890E+01   -4.883E+01   -4.877E+01   -4.870E+01   -4.863E+01   -4.856E+01   -4.849E+01   -4.842E+01
    -4.835E+01   -4.828E+01   -4.820E+01   -4.813E+01   -4.806E+01   -4.798E+01   -4.791E+01   -4.783E+01   -4.776E+01   -4.768E+01
    -4.761E+01   -4.753E+01   -4.745E+01   -4.738E+01   -4.730E+01   -4.722E+01   -4.715E+01   -4.707E+01   -4.699E+01   -4.691E+01
    -4.684E+01   -4.676E+01   -4.668E+01   -4.661E+01   -4.653E+01   -4.645E+01   -4.637E+01   -4.630E+01   -4.622E+01   -4.614E+01
    -4.607E+01   -4.599E+01   -4.591E+01   -4.584E+01   -4.576E+01   -4.568E+01   -4.560E+01   -4.553E+01   -4.545E+01   -4.537E+01
    -4.529E+01   -4.522E+01   -4.514E+01   -4.506E+01   -4.498E+01   -4.490E+01   -4.483E+01   -4.475E+01   -4.467E+01   -4.459E+01
    -4.451E+01   -4.443E+01   -4.435E+01   -4.427E+01   -4.419E+01   -4.411E+01   -4.403E+01   -4.395E+01   -4.387E+01   -4.379E+01
    -4.371E+01   -4.363E+01   -4.355E+01   -4.347E+01   -4.339E+01   -4.331E+01   -4.323E+01   -4.314E+01   -4.306E+01   -4.298E+01
    -4.290E+01   -4.282E+01   -4.274E+01   -4.266E+01   -4.258E+01   -4.249E+01   -4.241E+01   -4.233E+01   -4.225E+01   -4.217E+01
 Mac      Conc. = 2.99E-04
  -1.26407E+02 -1.26034E+02 -1.25157E+02 -1.24257E+02 -1.23783E+02 -1.24365E+02 -1.25763E+02 -1.27930E+02 -1.30089E+02 -1.31465E+02
  -1.31525E+02 -1.30627E+02 -1.30893E+02 -1.33017E+02 -1.36432E+02 -1.40619E+02 -1.43997E+02 -1.44215E+02 -1.40579E+02 -1.34646E+02
  -1.29006E+02 -1.23787E+02 -1.19267E+02 -1.16415E+02 -1.14830E+02 -1.13212E+02 -1.11052E+02 -1.08538E+02 -1.05476E+02 -1.02096E+02
  -9.88487E+01 -9.64632E+01 -9.53814E+01 -9.56055E+01 -9.64118E+01 -9.65739E+01 -9.53255E+01 -9.25610E+01 -8.93302E+01 -8.70134E+01
  -8.60249E+01 -8.57268E+01 -8.46874E+01 -8.26332E+01 -7.97601E+01 -7.69412E+01 -7.51037E+01 -7.43971E+01 -7.46585E+01 -7.55758E+01
  -7.69194E+01 -7.84319E+01 -8.00542E+01 -8.14555E+01 -8.26363E+01 -8.34443E+01 -8.34728E+01 -8.22753E+01 -8.01252E+01 -7.73874E+01
  -7.46469E+01 -7.19105E+01 -7.01479E+01 -6.95032E+01 -6.97394E+01 -7.09081E+01 -7.28310E+01 -7.47225E+01 -7.61109E+01 -7.66308E+01
  -7.53176E+01 -7.21664E+01 -6.81311E+01 -6.46069E+01 -6.20408E+01 -6.03645E+01 -5.96179E+01 -5.97462E+01 -6.05754E+01 -6.15402E+01
  -6.26909E+01 -6.35015E+01 -6.41311E+01 -6.39015E+01 -6.30112E+01 -6.18270E+01 -6.05565E+01 -5.91537E+01 -5.79297E+01 -5.65633E+01
  -5.49511E+01 -5.31182E+01 -5.11775E+01 -4.96501E+01 -4.90187E+01 -4.97436E+01 -5.14312E+01 -5.34937E+01 -5.54560E+01 -5.67270E+01
  -5.69075E+01 -5.62677E+01 -5.63710E+01 -5.84122E+01 -6.30694E+01 -7.10463E+01 -8.13325E+01 -9.20124E+01 -1.00408E+02 -1.05232E+02
