 
 $NMID
 ID=''
 FMTDAT='(2E13.5)'
 TRAMP=   1.00000E+0
 VOLUME=   1.00000E+0
 $END
  -3.70512E+3   4.11993E+3
   7.28851E+3   2.36848E+2
   5.70286E+3  -5.67914E+3
  -3.04239E+2  -2.61282E+3
  -4.48355E+3   1.85957E+3
  -9.42966E+2   1.82383E+3
   3.53647E+3   4.53758E+2
   3.23339E+3  -1.20275E+3
  -7.29745E+1  -4.15082E+2
  -1.57180E+3   2.99417E+3
  -1.53589E+3   2.59492E+3
   3.80614E+2  -1.25343E+3
   1.06292E+3  -1.15369E+3
  -1.58166E+3   1.04315E+3
  -2.54346E+3  -1.03991E+3
   1.23186E+3  -2.24610E+3
   2.42240E+3   7.68567E+2
  -1.43332E+2   1.75196E+3
  -9.53926E+2  -6.13750E+2
   6.74478E+2  -6.72842E+2
   6.01630E+2   9.95119E+1
   2.93811E+2   1.02285E+2
   3.18474E+2   2.01594E+2
  -4.31630E+2   3.49423E+2
  -7.48828E+2  -7.62300E+2
   3.75192E+2  -3.93258E+2
   6.76654E+2   1.68100E+3
  -1.09514E+3   7.18933E+2
  -5.21463E+2  -1.26686E+3
   6.02876E+2  -6.62207E+2
  -2.45849E+2   6.17316E+2
  -8.12396E+2   5.36883E+2
  -1.19399E+3  -1.45950E+2
  -8.13578E+2  -3.31181E+2
   6.42290E+2  -1.01466E+3
   1.82843E+3  -2.90166E+2
   2.86227E+2   9.82573E+2
  -1.59820E+3   6.32117E+2
  -5.16429E+2  -2.02577E+2
   1.67057E+2   1.86727E+2
  -6.37945E+2   3.80301E+2
  -1.65112E+2  -4.51072E+2
   1.31887E+3  -2.28498E+2
   8.77648E+2   6.73021E+2
   1.70357E+2   4.80807E+2
  -1.66994E+2   7.19549E+2
  -7.73202E+2   1.36913E+3
  -1.15414E+3   2.16454E+2
  -4.37030E+2  -1.39801E+3
   9.20694E+2  -8.05300E+2
   7.05780E+2   5.26965E+1
   3.63221E+2  -6.31235E+1
   3.48846E+2  -1.97572E+1
   2.50822E+2   7.82830E+2
   3.52261E+1   3.27026E+2
  -3.70626E+2   1.33047E+2
  -2.52070E+2  -6.12966E+2
   4.32126E+2  -7.26813E+2
   8.35814E+2  -1.03992E+2
   4.34179E+2   4.22528E+2
   1.82592E+2   4.44577E+2
   2.20229E+2   3.93916E+2
  -9.70794E+1   5.73116E+2
  -9.85183E+2   5.97961E+1
  -9.03022E+2  -1.12072E+3
   2.13567E+2  -1.04047E+3
   7.50909E+2  -4.32080E+2
   7.13921E+2   1.32006E+2
   6.91168E+2   2.01622E+2
   1.21814E+2   1.99689E+2
   2.26206E+2  -4.79462E+1
   6.13962E+2  -3.22771E+2
   1.46855E+2   5.24082E+2
  -2.17265E+2   4.83021E+2
  -4.25741E+2  -4.33936E+1
   2.68129E+2  -3.56763E+2
   3.07095E+2  -1.46032E+2
  -2.13625E+2   1.32565E+2
  -5.90064E+2  -2.12793E+2
  -2.59911E+2  -6.86013E+2
   1.00490E+2  -5.96206E+2
   2.98122E+2  -2.89751E+2
   3.92196E+2   9.22043E+1
  -7.40926E+1  -1.33251E+2
   2.27472E+2  -5.99737E+2
   3.88225E+2  -2.57795E+2
   2.36209E+2   3.92067E+2
   3.86929E+1   5.01063E+2
  -1.48555E+2   1.03539E+2
   2.52989E+2  -1.25716E+2
   4.95156E+1   2.69008E+2
  -4.19829E+2   5.67624E+1
  -4.16560E+2  -4.12588E+2
  -3.36241E+2  -4.35910E+2
   3.40558E+2  -5.47061E+2
   6.01280E+2  -1.56984E+2
   2.53837E+2  -6.54854E+1
  -2.15149E+2  -4.54534E+0
  -1.65249E+1  -1.66556E+2
   2.93565E+2  -9.71717E+1
  -7.41031E+0   3.31649E+2
  -5.94268E+2   1.21952E+2
  -1.83192E+2  -6.77787E+2
   3.65439E+2  -4.42499E+2
   4.55691E+2   1.19732E+2
  -3.81139E+2   5.83196E+2
  -7.22113E+2   1.77472E+2
  -1.35300E+2  -6.62722E+2
   2.81446E+2  -6.07241E+2
   3.47937E+2   1.93532E+2
   1.07318E+2   5.95241E+2
  -3.48917E+2   2.97957E+2
  -3.38402E+2   1.21608E+2
  -3.82604E+2   1.15974E+1
  -4.81029E+1   4.97641E+1
  -3.50551E+2  -2.17275E+2
  -1.54296E+2  -2.18314E+2
   8.19378E+1  -6.34956E+2
   3.43878E+2  -1.93951E+2
   7.36013E+2   3.35926E+2
   1.28541E+2   4.65581E+2
  -1.07215E+2   1.57566E+2
  -2.14164E+2   2.09658E+2
  -1.52641E+2   5.94459E+1
  -3.63243E+2  -2.64606E+2
  -2.52672E+2  -4.44663E+2
  -2.89231E+1   1.18944E+2
   3.42481E+1   1.98879E+2
  -5.84102E+1   1.35353E+2
  -2.37607E+2   1.21842E+2
  -4.33140E+2  -3.00065E+2
  -8.32004E+1  -4.22354E+2
   2.88761E+2  -6.71366E+1
   1.67500E+1   2.87835E+2
   9.16708E+1   1.35359E+2
   1.51621E+2  -2.36533E+2
   4.10520E+2   7.63986E+1
  -8.59786E+1   5.98993E+2
  -3.42230E+2   2.02847E+2
  -1.41638E+2  -7.04749E+1
   1.32272E+2  -3.48953E+2
   3.66308E+2  -7.08359E+1
  -1.15315E+2   3.17412E+2
  -1.37945E+2   2.80394E+2
  -5.17033E+2  -3.50563E+2
  -3.73971E+1  -9.97755E+1
   1.17692E+2  -3.94876E+2
   5.40085E+1  -2.45143E+2
   3.36375E+2  -2.95341E+2
   1.04243E+2  -5.38893E+1
   1.83554E+2  -4.44957E+1
   3.29638E+2   2.98962E+2
  -2.89505E+1   3.26635E+2
  -2.10201E+2  -3.80815E+1
  -3.06571E+2  -4.07557E+1
   1.47691E+2   1.97365E+1
  -1.19937E+2  -1.29627E+2
  -3.16911E+2  -2.42705E+2
  -4.27717E+1  -2.41113E+2
  -1.46870E+2  -3.75044E+1
  -1.47387E+2   1.75657E+1
  -1.54410E+2  -3.75214E+1
  -1.12665E+1  -7.56707E+1
   1.30652E+2  -2.71091E+2
   1.07238E+2   2.74877E+2
   5.65002E+1   1.52174E+2
  -2.74233E+2  -1.30155E+1
  -2.97828E+1  -1.91880E+2
  -6.98743E+1  -1.36951E+2
   1.89514E+2  -1.76287E+2
  -7.12538E+1   7.45017E+1
  -1.66133E+2   1.54292E+2
  -9.08046E+1  -1.69103E+2
   2.66725E+2   3.83614E+1
  -1.12753E+2  -2.89174E+1
  -1.65342E+2   5.88678E+1
  -2.47161E+2   3.42508E+1
  -1.06489E+2  -1.67701E+2
   2.07910E+2  -4.88127E+1
  -1.15873E+2   2.88842E+2
  -3.39551E+2  -1.12846E+2
  -3.61280E+2  -2.34938E+2
   2.01512E+1  -3.38761E+2
   2.96987E+0   1.00254E+2
   1.48811E+2   1.39856E+1
  -8.80736E+1   4.37373E+0
   1.65796E+2   1.07613E+2
   1.84636E+2   2.65513E+2
  -4.01293E+1   2.48558E+2
  -2.91190E+2   3.44415E+2
  -4.22529E+2  -2.31227E+2
  -7.05469E+1  -4.65515E+2
   1.52803E+2  -2.75577E+2
  -1.79682E+2   1.51672E+2
  -1.37055E+1   2.19929E+2
   8.66804E+1   1.71669E+2
  -9.51324E+1  -3.43615E+1
   4.73098E+0   2.61903E+2
  -1.06177E+2  -4.08111E+1
  -1.47926E+2  -3.17813E+2
  -4.12398E+1  -1.39918E+2
   2.13878E+2   1.29391E+2
   2.31767E+2   1.52708E+2
  -2.83346E+1   1.96647E+2
  -2.36808E+2  -4.79819E+1
   1.11007E+2  -9.53420E+1
  -1.72810E+2   3.87115E+0
  -2.31587E+2   5.97783E+0
  -2.79321E+2   7.60565E+1
  -4.06228E+1  -2.02679E+1
  -1.41813E+1   7.12810E+1
   8.54928E+1  -2.98535E+1
   5.67142E+1   6.16277E+1
  -3.18245E+2  -9.78712E+1
  -2.29825E+2  -2.99497E+2
   3.53304E+2  -1.58471E+2
  -3.10102E+1   1.66853E+2
  -3.59045E+1   2.49555E+1
   1.17197E+2   1.77628E+2
   1.65076E+2  -1.04889E+2
  -7.40833E+1   2.56153E+2
  -3.76503E+2   7.61176E+1
  -5.42920E+1   7.39354E+1
  -6.05279E+1  -2.05914E+1
   1.19800E+2  -2.39363E+2
  -1.98575E+2   1.94048E+2
   3.05985E+1   8.22543E+1
  -2.56490E+2  -9.22580E+1
  -5.91259E+1  -8.07900E+1
  -2.27819E+1  -7.72814E+1
   9.34755E+1   1.37526E+2
  -4.99993E+1   4.58588E+1
  -4.54104E+1   1.44824E+1
   1.05346E+1  -1.61106E+2
   2.14763E+1   1.09283E+2
  -6.38847E+1   1.18509E+0
   8.50971E+1  -8.25468E+1
  -8.86861E+1   1.87444E+2
   8.10041E+0   7.17791E+0
  -1.85219E+2   1.81535E+2
  -2.36386E+2   1.13613E+2
   1.46016E+2  -2.31910E+1
  -6.75431E+1  -1.04008E+1
   4.55482E+1   5.13240E+1
   1.06288E+1   2.14862E+1
  -1.09778E+2   7.34127E+1
  -2.70788E+1  -6.18635E+1
   1.76696E+1   9.14927E+1
   1.11972E+2   6.61171E+1
  -2.06309E+2   2.53615E+2
  -1.24004E+2   4.86057E+1
  -3.12065E+2  -8.93260E+1
  -1.49919E+2   7.17390E+1
   1.44933E+2   1.46623E+2
   1.06312E+2   2.93311E+2
  -1.61361E+2   1.93749E+2
  -1.26425E+1   7.10519E+1
  -1.81438E+0   1.54395E+2
   9.32213E+0   1.42293E+2
   1.32400E+2   1.76444E+2
   3.37802E+1  -2.88943E+1
   9.63656E+1  -1.88679E+2
   1.38557E+2  -3.93354E+1
   6.83847E+1   1.10457E+2
  -2.84616E+1   2.09967E+0
  -1.24764E+2  -8.57797E+1
  -3.10950E+2   8.71476E+1
  -2.43542E+2  -8.47642E+1
  -3.53054E+1   2.62226E+2
   8.54212E+1   1.56414E+1
   2.16796E+2   1.02741E+2
   5.67644E+1   4.86133E+0
  -6.72092E+0  -3.16957E+1
   1.50567E+2  -5.78976E+1
   4.65772E+1  -1.25055E+2
  -5.77886E+1  -1.06956E+2
   1.36303E+2  -1.00889E+2
   1.28002E+2  -1.15712E+2
   5.46104E+1  -1.15620E+2
   1.60668E+2  -7.27304E+1
  -2.97198E+0  -1.57821E+2
  -2.38173E+1   2.42218E+2
  -2.27691E+1  -8.23395E+1
   1.96976E+2   1.61532E+1
  -9.75127E+1   7.72781E+0
  -1.20557E+2  -9.64902E+1
  -9.28400E+1  -1.15978E+2
  -5.80604E+1  -1.21895E+1
   1.83288E+1   2.05559E+2
   1.38788E+2   2.35546E+2
  -1.89385E+2  -3.97810E+1
  -7.12308E+1  -1.29442E+2
  -6.05297E+1   1.47852E+1
   2.28409E+2   6.42152E+0
   3.66666E+1   2.76097E+1
  -9.03751E+1   1.06578E+2
  -9.46675E+1   7.40828E+1
  -1.16993E+2  -2.38346E+2
  -6.06013E+0   2.68497E+1
   1.58786E+1  -8.32526E+1
   8.35416E+1  -4.39324E-1
   1.11691E+2  -7.49911E+1
  -6.05549E+1   6.31644E+1
   1.91842E+2   1.79403E+2
   8.60544E+1   1.03914E+2
  -9.29474E+1  -3.45452E+1
   1.88564E+2   2.56144E+1
  -1.76314E+2  -3.26270E+1
  -2.26278E+1  -5.49406E+1
  -2.11616E+2   3.84084E+1
   2.02285E+2  -1.96572E+2
  -2.66182E+1  -1.90414E+2
   1.40025E+2   3.54419E+1
  -2.93161E-1   1.35209E+1
  -1.53121E+1  -9.77612E+1
  -2.19401E+2  -2.59714E+1
   5.14732E+0   6.54052E+0
  -1.79969E+2   2.41238E+2
   7.60424E+1  -9.95537E+1
   2.92917E+2  -1.60386E+2
  -7.50551E+1  -1.56673E+1
  -2.21097E+1   1.41032E+2
   7.31529E+1   1.22027E+2
   4.81010E+1   4.87479E+1
  -1.10428E+2   2.85136E+1
   6.63343E+1   1.65244E+2
  -6.76363E+1   3.90808E+1
   7.71877E+0   2.68663E+1
  -3.97362E+0  -2.71546E+2
  -1.10199E+2   6.39396E+0
   9.72770E+1   2.25055E+2
   1.95952E+2   1.12509E+2
   2.96572E+0   9.63060E+0
   8.22254E+1  -1.55140E+2
   4.73504E+1  -2.06569E+2
   1.07675E+2   1.01650E+2
  -4.58047E+1  -1.18819E+2
   5.96380E+1  -2.05390E+2
   7.86240E+0  -8.14420E+1
  -5.58122E+0  -1.30563E+2
  -1.60018E+2   4.76363E+1
   4.03175E+1   2.10354E+1
   9.10665E+1  -1.68470E+2
   8.22891E+1   4.97216E+1
  -1.31855E+2  -2.28182E+2
  -2.11260E+2  -1.67127E+1
  -1.66955E+1   6.77817E+1
  -1.96375E+2  -1.97771E+2
   3.15710E+1  -8.15071E+1
   2.02387E+1   6.12856E+1
  -8.75731E+1   1.33583E+2
  -3.33871E+1  -1.35535E+2
  -2.69792E+2  -2.21106E+1
  -9.46525E+0  -7.39222E+1
  -6.18803E+1   7.82182E+0
   2.49610E+1  -1.22132E+2
   6.87509E+1  -2.02338E+1
   7.54332E+1   1.36597E+2
  -4.78239E+1   1.00485E+2
   1.06288E+2  -4.42671E+1
  -4.88217E+1   7.57201E+1
  -1.32451E+2   1.86805E+2
   1.44856E+2   7.60679E+0
   6.51351E+1  -1.37327E+2
   1.93582E+2  -5.49804E+1
  -1.38463E+1  -6.25079E+1
  -9.67820E+1  -9.28704E+1
