 
 $NMID
 ID=''
 FMTDAT='(2E13.5)'
 TRAMP=   1.00000E+0
 VOLUME=   1.00000E+0
 $END
  -6.02527E+5   2.18789E+5
  -1.65440E+6   2.90480E+4
  -1.53923E+6   2.15718E+5
  -1.42293E+6   3.20429E+4
  -1.54561E+6  -8.80380E+4
  -1.56011E+6  -5.14525E+4
  -1.50010E+6  -7.04346E+4
  -1.49375E+6  -9.66248E+4
  -1.44052E+6  -1.22433E+5
  -1.42827E+6  -2.12691E+5
  -1.47946E+6  -2.35935E+5
  -1.45642E+6  -2.03120E+5
  -1.40316E+6  -2.30247E+5
  -1.38659E+6  -2.67579E+5
  -1.36580E+6  -2.94619E+5
  -1.36718E+6  -3.25899E+5
  -1.38030E+6  -3.30054E+5
  -1.33934E+6  -3.39903E+5
  -1.30073E+6  -3.87872E+5
  -1.29749E+6  -4.24655E+5
  -1.28327E+6  -4.50850E+5
  -1.26912E+6  -4.76684E+5
  -1.25559E+6  -4.85442E+5
  -1.22326E+6  -5.05016E+5
  -1.19842E+6  -5.42213E+5
  -1.19270E+6  -5.54681E+5
  -1.17916E+6  -5.62522E+5
  -1.16359E+6  -5.76270E+5
  -1.14283E+6  -5.84892E+5
  -1.11908E+6  -5.97140E+5
  -1.10530E+6  -6.22516E+5
  -1.09198E+6  -6.36121E+5
  -1.06942E+6  -6.48754E+5
  -1.04816E+6  -6.64103E+5
  -1.02712E+6  -6.76736E+5
  -1.00584E+6  -6.94388E+5
  -9.90750E+5  -7.14763E+5
  -9.71866E+5  -7.25935E+5
  -9.48294E+5  -7.32649E+5
  -9.30187E+5  -7.42867E+5
  -9.10994E+5  -7.52118E+5
  -8.92175E+5  -7.59876E+5
  -8.77723E+5  -7.63593E+5
  -8.61987E+5  -7.66556E+5
  -8.41295E+5  -7.71078E+5
  -8.23596E+5  -7.78291E+5
  -8.05418E+5  -7.85967E+5
  -7.84407E+5  -7.93343E+5
  -7.63157E+5  -7.96931E+5
  -7.41709E+5  -8.00140E+5
  -7.19633E+5  -8.06794E+5
  -6.98801E+5  -8.13972E+5
  -6.79355E+5  -8.18897E+5
  -6.59851E+5  -8.22407E+5
  -6.39198E+5  -8.24323E+5
  -6.16845E+5  -8.26507E+5
  -5.95760E+5  -8.29440E+5
  -5.77265E+5  -8.30202E+5
  -5.59819E+5  -8.28859E+5
  -5.40827E+5  -8.28291E+5
  -5.20325E+5  -8.28542E+5
  -4.99840E+5  -8.29107E+5
  -4.80558E+5  -8.29694E+5
  -4.60303E+5  -8.29571E+5
  -4.39016E+5  -8.26773E+5
  -4.18008E+5  -8.23673E+5
  -3.97183E+5  -8.21510E+5
  -3.77137E+5  -8.19980E+5
  -3.58537E+5  -8.18490E+5
  -3.39149E+5  -8.15345E+5
  -3.18538E+5  -8.11346E+5
  -2.99735E+5  -8.07029E+5
  -2.82419E+5  -8.03803E+5
  -2.64327E+5  -8.00731E+5
  -2.45223E+5  -7.95378E+5
  -2.26499E+5  -7.89609E+5
  -2.08240E+5  -7.85029E+5
  -1.89473E+5  -7.80692E+5
  -1.70401E+5  -7.74919E+5
  -1.51868E+5  -7.68551E+5
  -1.32907E+5  -7.61593E+5
  -1.14845E+5  -7.55592E+5
  -9.73957E+4  -7.49691E+5
  -7.96055E+4  -7.43151E+5
  -6.28478E+4  -7.34961E+5
  -4.72376E+4  -7.26893E+5
  -3.15579E+4  -7.19688E+5
  -1.60650E+4  -7.12677E+5
  -2.01168E+3  -7.04320E+5
   1.09561E+4  -6.95640E+5
   2.43083E+4  -6.87383E+5
   3.89676E+4  -6.79107E+5
   5.32229E+4  -6.70512E+5
   6.68870E+4  -6.61171E+5
   7.95751E+4  -6.51784E+5
   9.18720E+4  -6.41954E+5
   1.04978E+5  -6.32821E+5
   1.17889E+5  -6.23940E+5
   1.30438E+5  -6.14289E+5
   1.41332E+5  -6.04417E+5
   1.52009E+5  -5.94680E+5
   1.63370E+5  -5.85130E+5
   1.73626E+5  -5.74175E+5
   1.82997E+5  -5.63652E+5
   1.91150E+5  -5.54142E+5
   1.99612E+5  -5.44808E+5
   2.09292E+5  -5.34872E+5
   2.18423E+5  -5.23763E+5
   2.25749E+5  -5.12784E+5
   2.32412E+5  -5.02936E+5
   2.40194E+5  -4.93407E+5
   2.48645E+5  -4.82784E+5
   2.56412E+5  -4.71712E+5
   2.63548E+5  -4.61036E+5
   2.70001E+5  -4.50542E+5
   2.76931E+5  -4.39598E+5
   2.83788E+5  -4.28815E+5
   2.89590E+5  -4.17248E+5
   2.94024E+5  -4.06785E+5
   2.98509E+5  -3.96483E+5
   3.03354E+5  -3.86450E+5
   3.08545E+5  -3.75932E+5
   3.13511E+5  -3.65362E+5
   3.17698E+5  -3.54966E+5
   3.21444E+5  -3.44307E+5
   3.24781E+5  -3.33651E+5
   3.27923E+5  -3.22795E+5
   3.31242E+5  -3.11992E+5
   3.34181E+5  -3.01900E+5
   3.37371E+5  -2.91363E+5
   3.40224E+5  -2.80175E+5
   3.42705E+5  -2.68897E+5
   3.44568E+5  -2.58145E+5
   3.46746E+5  -2.48313E+5
   3.48218E+5  -2.37638E+5
   3.49305E+5  -2.27171E+5
   3.50416E+5  -2.17403E+5
   3.51514E+5  -2.07467E+5
   3.52823E+5  -1.97327E+5
   3.53668E+5  -1.87137E+5
   3.53877E+5  -1.76998E+5
   3.53412E+5  -1.67234E+5
   3.53219E+5  -1.58251E+5
   3.53599E+5  -1.49015E+5
   3.53367E+5  -1.39536E+5
   3.52017E+5  -1.30019E+5
   3.50679E+5  -1.21218E+5
   3.49411E+5  -1.12450E+5
   3.47944E+5  -1.03495E+5
   3.46176E+5  -9.55243E+4
   3.44161E+5  -8.73054E+4
   3.42158E+5  -7.95732E+4
   3.40154E+5  -7.19704E+4
   3.38153E+5  -6.39787E+4
   3.35762E+5  -5.63577E+4
   3.32657E+5  -4.91258E+4
   3.30016E+5  -4.23594E+4
   3.27544E+5  -3.52207E+4
   3.24545E+5  -2.81587E+4
   3.21318E+5  -2.13910E+4
   3.18313E+5  -1.48873E+4
   3.15070E+5  -8.46617E+3
   3.11410E+5  -2.28112E+3
   3.07577E+5   3.91895E+3
   3.04023E+5   9.42709E+3
   3.00313E+5   1.48204E+4
   2.97286E+5   2.03768E+4
   2.93690E+5   2.60807E+4
   2.89340E+5   3.14165E+4
   2.85680E+5   3.59881E+4
   2.81641E+5   4.07671E+4
   2.77645E+5   4.54278E+4
   2.73760E+5   5.03275E+4
   2.69600E+5   5.46402E+4
   2.65361E+5   5.89158E+4
   2.61323E+5   6.31037E+4
   2.57092E+5   6.78890E+4
   2.52721E+5   7.20302E+4
   2.48164E+5   7.56600E+4
   2.43909E+5   7.92959E+4
   2.40070E+5   8.28924E+4
   2.35648E+5   8.67127E+4
   2.31516E+5   9.04304E+4
   2.26822E+5   9.38473E+4
   2.22653E+5   9.67259E+4
   2.18422E+5   9.98002E+4
   2.13751E+5   1.02466E+5
   2.09466E+5   1.05206E+5
   2.05470E+5   1.07449E+5
   2.01268E+5   1.10166E+5
   1.97216E+5   1.13197E+5
   1.92427E+5   1.15850E+5
   1.87647E+5   1.17761E+5
   1.83444E+5   1.19634E+5
   1.79231E+5   1.21803E+5
   1.74869E+5   1.23921E+5
   1.70438E+5   1.26134E+5
   1.66146E+5   1.27709E+5
   1.61852E+5   1.29429E+5
   1.57596E+5   1.31363E+5
   1.52712E+5   1.32805E+5
   1.48432E+5   1.33830E+5
   1.44017E+5   1.35028E+5
   1.40189E+5   1.36332E+5
   1.35896E+5   1.37622E+5
   1.31558E+5   1.38747E+5
   1.27260E+5   1.39575E+5
   1.23013E+5   1.40036E+5
   1.18898E+5   1.40803E+5
   1.14739E+5   1.41446E+5
   1.10148E+5   1.41945E+5
   1.06296E+5   1.42065E+5
   1.02515E+5   1.42563E+5
   9.87755E+4   1.43112E+5
   9.41451E+4   1.43429E+5
   9.00466E+4   1.42914E+5
   8.64154E+4   1.42960E+5
   8.29149E+4   1.42595E+5
   7.91815E+4   1.42561E+5
   7.56655E+4   1.42008E+5
   7.20065E+4   1.41602E+5
   6.89164E+4   1.41389E+5
   6.52962E+4   1.40924E+5
   6.15905E+4   1.40433E+5
   5.82473E+4   1.39402E+5
   5.49194E+4   1.38523E+5
   5.20393E+4   1.37780E+5
   4.88922E+4   1.37161E+5
   4.57327E+4   1.36627E+5
   4.28049E+4   1.35462E+5
   3.96391E+4   1.34228E+5
   3.70952E+4   1.33395E+5
   3.43997E+4   1.32383E+5
   3.14515E+4   1.31271E+5
   2.88468E+4   1.30252E+5
   2.62893E+4   1.29070E+5
   2.40645E+4   1.27878E+5
   2.15923E+4   1.26715E+5
   1.92263E+4   1.25274E+5
   1.70677E+4   1.23917E+5
   1.53081E+4   1.22678E+5
   1.26790E+4   1.21849E+5
   1.06793E+4   1.20153E+5
   8.54905E+3   1.18918E+5
   6.62205E+3   1.17359E+5
   4.84176E+3   1.16155E+5
   2.71637E+3   1.14829E+5
   1.00407E+3   1.13256E+5
  -3.62132E+2   1.11617E+5
  -1.93683E+3   1.10208E+5
  -3.47131E+3   1.09225E+5
  -5.22119E+3   1.07525E+5
  -6.82120E+3   1.06297E+5
  -8.12634E+3   1.04245E+5
  -9.23927E+3   1.02811E+5
  -1.08080E+4   1.01595E+5
  -1.21208E+4   1.00297E+5
  -1.32754E+4   9.88881E+4
  -1.47150E+4   9.70528E+4
  -1.61044E+4   9.57927E+4
  -1.76566E+4   9.43384E+4
  -1.85714E+4   9.25383E+4
  -1.94838E+4   9.05385E+4
  -2.04656E+4   8.93894E+4
  -2.12741E+4   8.80798E+4
  -2.25961E+4   8.66133E+4
  -2.36043E+4   8.48450E+4
  -2.43635E+4   8.34008E+4
  -2.50142E+4   8.16724E+4
  -2.58082E+4   8.01674E+4
  -2.65840E+4   7.86197E+4
  -2.74976E+4   7.69304E+4
  -2.79214E+4   7.54692E+4
  -2.85277E+4   7.39064E+4
  -2.93937E+4   7.24534E+4
  -3.00865E+4   7.07572E+4
  -3.05394E+4   6.89254E+4
  -3.08484E+4   6.74138E+4
  -3.13114E+4   6.59158E+4
  -3.17039E+4   6.45593E+4
  -3.25857E+4   6.29579E+4
  -3.27006E+4   6.12403E+4
  -3.30922E+4   5.98786E+4
  -3.35798E+4   5.84505E+4
  -3.42003E+4   5.66284E+4
  -3.39594E+4   5.49356E+4
  -3.39358E+4   5.34696E+4
  -3.43932E+4   5.23695E+4
  -3.49067E+4   5.11302E+4
  -3.52494E+4   4.95862E+4
  -3.53715E+4   4.81600E+4
  -3.54577E+4   4.66025E+4
  -3.57737E+4   4.51785E+4
  -3.57431E+4   4.38955E+4
  -3.61322E+4   4.23773E+4
  -3.59598E+4   4.10638E+4
  -3.59647E+4   3.99323E+4
  -3.64297E+4   3.86498E+4
  -3.64985E+4   3.70747E+4
  -3.64462E+4   3.56554E+4
  -3.63271E+4   3.43904E+4
  -3.65309E+4   3.32104E+4
  -3.67354E+4   3.23298E+4
  -3.67986E+4   3.07826E+4
  -3.66417E+4   2.94003E+4
  -3.66650E+4   2.84536E+4
  -3.63973E+4   2.76589E+4
  -3.63699E+4   2.64416E+4
  -3.63610E+4   2.50479E+4
  -3.63179E+4   2.40358E+4
  -3.63449E+4   2.33681E+4
  -3.62581E+4   2.21668E+4
  -3.65267E+4   2.09332E+4
  -3.61971E+4   2.02203E+4
  -3.59987E+4   1.89681E+4
  -3.59266E+4   1.80567E+4
  -3.57991E+4   1.71452E+4
  -3.56662E+4   1.63171E+4
  -3.51821E+4   1.53855E+4
  -3.52359E+4   1.44229E+4
  -3.49240E+4   1.37705E+4
  -3.50743E+4   1.29975E+4
  -3.48924E+4   1.18980E+4
  -3.46251E+4   1.13075E+4
  -3.44554E+4   1.05479E+4
  -3.43282E+4   9.71634E+3
  -3.43502E+4   8.86187E+3
  -3.39626E+4   8.05719E+3
  -3.36704E+4   7.31352E+3
  -3.32069E+4   6.58501E+3
  -3.33004E+4   6.07774E+3
  -3.30068E+4   5.20346E+3
  -3.26246E+4   4.92150E+3
  -3.26270E+4   4.14132E+3
  -3.23424E+4   3.81259E+3
  -3.21206E+4   2.67985E+3
  -3.16811E+4   1.95169E+3
  -3.12876E+4   1.69259E+3
  -3.11621E+4   1.18469E+3
  -3.06146E+4   7.50182E+2
  -3.07054E+4   3.10404E+2
  -3.03672E+4  -3.78384E+2
  -3.01934E+4  -8.30830E+2
  -2.97869E+4  -1.44774E+3
  -2.94999E+4  -1.78719E+3
  -2.91605E+4  -2.49690E+3
  -2.86676E+4  -2.76221E+3
  -2.85693E+4  -3.16572E+3
  -2.82987E+4  -3.43825E+3
  -2.82858E+4  -3.78649E+3
  -2.79350E+4  -4.55572E+3
  -2.73767E+4  -4.90863E+3
  -2.69186E+4  -5.08258E+3
  -2.67291E+4  -5.48080E+3
  -2.64931E+4  -5.92879E+3
  -2.58673E+4  -6.33005E+3
  -2.56372E+4  -6.40135E+3
  -2.55364E+4  -6.77548E+3
  -2.53364E+4  -7.20864E+3
  -2.47610E+4  -7.57928E+3
  -2.41985E+4  -8.08072E+3
  -2.38063E+4  -7.86737E+3
  -2.36002E+4  -8.03465E+3
  -2.36434E+4  -8.23790E+3
  -2.33352E+4  -8.69379E+3
  -2.27625E+4  -8.77952E+3
  -2.22612E+4  -9.06772E+3
