 
 $NMID
 ID=''
 FMTDAT='(2E13.5)'
 TRAMP=   1.00000E+0
 VOLUME=   1.00000E+0
 $END
  -1.28902E+4   2.04580E+4
  -3.95060E+2   4.27922E+4
   4.39692E+4   1.67411E+4
   2.01866E+4  -3.76252E+4
  -3.33076E+4  -2.78953E+4
  -2.77911E+4   2.48300E+4
   1.58604E+4   3.26468E+4
   2.83898E+4  -3.89628E+3
   3.61755E+3  -2.60529E+4
  -2.22585E+4  -9.14806E+3
  -1.66019E+4   1.66096E+4
   1.07099E+4   1.52358E+4
   1.64645E+4  -5.43051E+3
  -1.96038E+3  -1.25003E+4
  -1.05396E+4  -3.20453E+3
  -2.20981E+3   5.54201E+3
   5.16302E+3   6.47379E+3
   4.93033E+3  -2.98371E+1
  -1.88501E+1  -5.38900E+3
  -3.05501E+3  -2.10599E+3
  -1.80806E+3   2.53384E+3
   7.80965E+2   2.92653E+3
   2.42618E+3   1.59883E+3
   2.06573E+3  -1.84064E+3
  -8.59952E+2  -3.89758E+3
  -2.67032E+3  -2.42194E+2
  -1.73532E+3   4.35831E+3
   1.23028E+3   2.04630E+3
   2.85968E+3  -2.68501E+3
   9.04564E+2  -3.11503E+3
  -3.27606E+3  -3.02224E+1
  -2.39257E+3   2.99929E+3
   1.34220E+3   1.95656E+3
   2.07443E+3  -2.02547E+3
  -5.36051E+1  -3.58526E+3
  -1.20572E+3  -4.85371E+2
  -1.19637E+3   2.89306E+3
   2.74291E+2   2.01144E+3
   1.69313E+3  -1.20048E+3
   1.15883E+2  -1.85279E+3
  -2.27811E+3  -3.29745E+1
  -1.40518E+3   8.78693E+2
   1.10034E+3   5.60724E+2
   2.04904E+3  -2.89580E+2
   4.04570E+2  -6.67577E+2
  -5.03724E+2   2.58202E+1
  -9.87433E+2   1.90904E+3
  -9.34901E+2   1.37232E+3
  -3.22377E+2  -8.08675E+2
   7.11764E+2  -1.33235E+3
   1.10748E+1  -5.83389E+2
  -7.96903E+2  -1.11141E+2
   1.70598E+2   2.94106E+2
   1.22699E+3   3.90957E+2
   1.07853E+3   3.89468E+2
  -4.08903E+2  -2.88640E+2
  -9.47104E+2   4.49224E+0
  -7.11747E+2   4.18026E+0
   7.74204E+2  -6.19008E+1
   1.06446E+3  -2.26822E+2
   2.19173E+2  -4.54006E+2
   1.44735E+2   3.61602E+2
   4.54647E+0   8.94282E+2
  -2.62280E+2   1.14423E+3
  -5.73441E+2   5.39772E+1
  -5.12052E+2  -7.12156E+2
  -3.07412E+2  -6.89856E+2
   8.06958E+1  -6.01101E+2
   5.00471E+2  -3.17783E+1
   6.58431E+2   5.47608E+2
  -2.96043E+2   5.57274E+1
  -2.97790E+2  -9.89579E+2
   3.05251E+2  -4.30938E+2
   5.62404E+2   6.73392E+2
   9.38776E+1   7.86301E+2
  -1.69458E+2  -1.41088E+2
  -6.95283E+1  -6.15094E+2
   7.37405E+1   5.75206E+1
  -5.24827E+2   4.53469E+2
  -2.99045E+2   3.37232E+2
  -1.26817E+2  -1.24427E+2
  -1.29295E+2  -4.79926E+2
  -2.34451E+2  -3.77607E+2
  -3.64580E+2   1.84170E+1
  -6.70013E+0   1.97703E+1
   2.70332E+2   9.27241E+1
   4.26569E+2  -4.51169E+2
   1.61679E+2  -4.54368E+1
  -5.07905E+2   2.50983E+2
  -2.15453E+2   2.00161E+2
   5.85971E+2  -2.06945E+2
   5.18739E+2  -3.21943E+2
  -4.05456E+1   1.74398E+2
  -6.86791E+2   4.49341E+2
  -7.83616E+2   3.73253E+2
   1.54629E+2  -3.24224E+2
   6.33177E+2  -4.78886E+2
   1.22385E+2  -9.44841E+1
  -5.63549E+2   1.18915E+2
  -1.01379E+2   3.28916E+1
   6.13792E+2   1.51438E+2
   5.55645E+2  -2.68691E+1
  -1.66605E+2   1.91715E+2
  -6.89142E+2   8.32472E+1
  -8.26203E+1   1.07663E+2
   2.94413E+2  -1.10439E+2
   4.38520E+2  -1.13361E+2
  -2.84983E+2   1.24581E+2
  -5.93169E+2   4.89946E+2
  -1.66469E+2  -8.53737E+1
  -5.92718E+0  -2.49992E+2
   2.38692E+2  -4.09804E+2
   2.36893E+2   2.16127E+2
  -2.32262E+2   1.83894E+2
  -1.30476E+1  -4.25000E+1
   5.20380E+2   3.22218E+2
   3.36195E+2   2.84025E+2
  -2.20097E+2   2.82006E+2
  -4.95987E+2  -1.79524E+2
  -2.15807E+2  -1.47532E+2
  -1.30715E+2  -1.41908E+2
   1.19960E+2  -4.19870E+1
   1.11416E+2  -2.30740E+2
  -1.01697E+2   7.57173E+1
   9.50856E+1   6.87782E+1
  -5.45363E+1   4.47342E+2
  -3.84090E+1   8.00567E+1
  -3.05984E+2   6.66907E+1
   1.22421E+2  -5.45496E+1
   1.82346E+2   8.16948E+1
   1.43640E+2   1.97370E+2
   2.87328E+2   2.06812E+2
  -3.21330E+1   1.21890E+1
  -2.75535E+2  -1.88132E+2
   1.63168E+2  -4.30084E+1
   1.90430E+2   1.92555E+2
  -8.68949E+1  -6.92129E+1
  -1.37710E+2  -1.96840E+2
   1.36589E+2  -1.94970E+2
   1.60680E+2   1.66369E+2
   1.31577E+2   3.15237E+2
   1.08824E+1   1.19389E+2
   2.24696E+2  -5.85291E+1
   1.50853E+2  -3.41060E+2
   1.21564E+2   9.17790E+1
   1.31489E+2  -2.23636E+2
   1.40226E+2   2.04177E+2
  -2.15267E+2  -4.40832E+1
  -1.31032E+2   1.42170E+2
   6.70431E+1   1.32131E+2
  -1.41163E+2   1.74964E+2
  -8.90672E+1   1.62398E+2
  -3.12178E+0  -1.53975E+2
   1.57049E+2  -3.24208E+2
   1.85602E+2  -5.56231E+1
  -8.21724E+1   3.26903E+2
  -6.69604E+1  -6.35970E+1
   2.41210E+1  -6.82742E+1
   1.35448E+2  -1.25843E+2
   8.51728E+1  -2.17503E+1
   2.07842E+1   6.14950E+1
  -1.40882E+2  -2.22870E+2
   2.63542E+2  -1.04926E+2
   1.16139E+1  -1.99960E+2
  -3.60611E+2   1.63749E+2
   5.16425E+1  -1.04003E+2
   2.46670E+1   1.16365E+2
   3.49135E+1  -3.11324E+2
   1.08335E+2   3.50202E+1
   1.04024E+2   1.07614E+2
  -1.48457E+2   1.41373E+2
  -8.82776E+1  -2.77211E+2
  -1.78267E+2  -1.63342E+2
   1.45170E+1  -1.39870E+1
   2.22798E+1  -3.13674E+0
   1.71391E+2   2.94229E+2
   9.07983E+1   1.27441E+1
  -4.16037E+0  -2.61632E+2
   1.80615E+0   8.46941E+1
   6.74672E+1   2.34327E+2
  -3.41203E+2   2.25798E+1
  -1.77123E+2  -1.55762E+2
   3.97466E+1  -3.82554E+2
  -1.80350E+2  -3.01348E+2
   1.28858E+1  -3.39169E+1
  -4.59473E+0  -1.46093E+1
   4.86732E+1  -5.33091E+1
  -7.96012E+1   2.48789E+0
   1.69407E+2   1.79363E+2
  -1.71089E+2   1.71867E+2
  -1.76239E+2  -2.53332E+2
   3.31093E+1  -1.14624E+2
  -8.69121E+1  -7.02238E+0
  -2.93752E+1  -2.89260E+1
  -9.49857E+1  -1.24009E+2
  -4.78090E+1  -9.38256E+1
  -1.11593E+2  -1.40363E+2
  -5.98309E+1   2.41846E+2
  -1.75128E+2  -6.96327E+1
   1.65191E+1  -2.22245E+2
  -5.05348E+1  -1.98477E+1
   9.29099E+0   8.78441E+1
   1.29641E+2   2.29430E+2
  -6.99211E+1  -2.14808E+1
  -4.41985E+1   1.64670E+2
  -1.23792E+2   2.31140E+1
   1.16901E+2  -9.69901E-1
   5.13748E+1   8.27055E+1
  -5.85020E+1   8.67217E+0
  -1.50696E+2   9.87854E+1
  -1.94971E+2  -1.22600E+2
   1.00432E+2  -4.73746E+1
  -2.54336E+1   2.38877E+2
  -2.92770E+2   1.74683E+2
  -6.42328E+1  -5.01168E+1
  -1.79030E+2  -1.45860E+2
  -6.92951E+0  -1.53160E+2
   1.11156E+2  -1.53853E+2
   3.50196E+1  -4.77677E+1
  -2.38217E+2  -9.81386E+1
  -4.05250E+1   2.58497E+2
   3.53174E+0   5.45052E+1
  -1.94436E+1   1.53587E+2
  -1.23207E+2  -4.10360E+1
  -9.88995E+1  -7.30368E+1
   2.14714E+2  -8.53441E+1
  -4.13503E+1   1.50624E+2
  -2.43538E+2   2.99133E+1
  -3.22353E+2   3.04110E+1
  -6.26893E+0  -1.37616E+2
   7.12844E+1  -9.04588E+1
  -1.20926E+2   9.08290E+1
  -6.35995E-1  -2.59512E+2
  -5.92165E+1  -3.30221E+1
  -8.38218E+1  -6.60824E+1
  -2.23699E+1   1.45838E+2
  -1.59274E+2  -2.11033E+2
  -9.25672E+1   1.72808E+2
  -5.51313E+1  -1.07579E+2
   1.34057E+2  -1.08123E+2
   1.11835E+2   1.38485E+2
   5.12098E+1   2.17108E+2
  -3.68440E+1  -9.77944E+1
  -2.09248E+2   5.94145E+0
  -1.26811E+2   2.22653E+1
   3.12541E+1   4.42718E+1
  -2.10381E+2  -6.22042E+1
  -2.51707E+2  -2.10375E+2
  -3.41981E+1  -3.10147E+2
  -4.44286E+1  -1.00726E+2
  -1.73192E+2   3.41047E+2
  -2.88834E+2   2.98393E+2
  -1.89021E+2   2.38589E+1
  -1.75394E+2   1.74442E+1
   3.48021E+2   2.36881E+0
   2.08789E+2   2.88554E+2
  -1.26093E+2   2.22216E+2
  -1.08463E+2   7.29884E+1
   2.14624E+1   1.16180E+2
  -1.71308E+2  -1.87298E+1
  -2.17055E+2   5.16018E+1
  -1.56815E+2  -3.34152E+2
  -8.48387E+1  -1.65289E+2
   1.40748E+2  -1.26366E+2
   1.55777E+2   2.03145E+2
  -1.37014E+2   3.59163E+2
  -3.53797E+2   9.91891E+1
  -5.58094E+2  -1.14666E+2
  -3.96173E+1  -1.03482E+2
  -4.25773E+1   4.97693E+0
  -4.76045E+1  -9.23204E+1
  -5.78075E+1  -1.19575E+2
  -6.46086E+1  -1.93660E+1
  -8.08888E+1   2.98136E+2
  -3.50120E+2   2.56640E+1
  -1.18129E+2  -1.73008E+0
  -2.00653E+2   1.56046E+2
  -1.16642E+2  -1.00754E+2
   1.89851E+2  -9.16573E+1
   9.79046E+0   2.08192E+2
  -5.57635E+1  -6.58083E+1
   1.07097E+2  -8.29091E+1
   2.93531E+1  -4.40429E+1
   1.47935E+2   2.74584E+2
  -3.13601E+2   1.43633E+2
  -1.61421E+2  -4.64501E+1
  -2.84114E+1  -1.48932E+2
   1.48469E+2   6.97263E+1
  -9.72946E+1   2.57915E+2
  -1.42226E+2   3.07226E+2
  -2.19718E+2  -9.43947E-1
   6.97501E+1  -2.08723E+1
   2.00501E+2   1.50959E+1
   1.78362E+2   1.12347E+2
  -2.13654E+2  -3.02598E+2
  -8.37149E+1  -2.38358E+1
   8.77550E+1   1.19300E+2
   8.34463E+1   4.18877E+1
  -1.77250E+2   1.30763E+2
  -1.01556E+2   3.64433E+1
   9.63612E+1  -3.07237E+1
   1.26317E+2   1.54369E+2
   2.43875E+2   1.34240E+2
  -1.86383E+2   1.27029E+2
  -1.86419E+2   9.24479E+1
  -8.93363E+1  -1.41290E+2
   1.16885E+2  -8.97291E+1
   2.36787E+1  -8.73836E+1
  -9.09839E+1  -1.13276E+2
  -6.39634E+0   4.09327E+1
   1.58867E+2   1.44535E+1
   9.92763E+1   2.17920E+2
  -8.56806E+1   1.06263E+2
  -1.28142E+1   1.00938E+2
  -5.21513E+1   1.35502E+2
  -1.34352E+1   3.59172E+1
   1.82362E+2   1.37796E+2
  -4.15354E+0   2.31262E+2
  -3.69057E+1   4.25974E+1
  -2.37758E+2   9.00261E+1
   5.27331E+1   8.82204E+1
   1.76142E+1   7.45809E+1
  -7.04459E+1   1.26999E+2
  -3.56538E+0  -1.70627E+2
  -1.38980E+1  -1.01203E+2
  -2.17897E+2   6.00127E+1
   1.22424E+2   1.02271E+2
  -6.32000E+1   1.60868E+2
  -1.50365E+2   7.69539E+1
  -4.32366E+1  -1.07247E+2
  -2.58117E+1  -1.70857E+2
  -6.33523E+1   3.65783E+1
   4.77094E+1  -1.37352E+2
   2.08137E+2  -2.98114E+2
   1.47310E+2   7.38321E+1
  -2.19074E+2   2.76134E+2
   2.70415E+1   2.20007E+2
  -9.19104E+0   2.55901E+1
   2.47948E+1   4.17552E+1
   1.83427E+2  -8.56186E+1
   1.03931E+2  -7.03145E+1
   1.11476E+2   1.87307E+2
   5.61148E+1   2.36605E+1
  -1.24085E+2  -1.06456E+2
  -1.04322E+2   5.97773E+1
   1.98422E+2   1.86576E+1
   2.51476E+1  -2.61700E+1
  -2.10118E+1  -1.62523E+2
   1.19960E+2   7.08499E+1
  -4.73236E+1   1.53833E+2
   9.29521E+1  -1.21925E+1
   8.10059E+0   1.20019E+1
  -2.10940E+1   7.21699E+1
  -1.63412E+2  -3.95745E+1
   2.74788E+2   1.96493E+1
   1.25732E+2   5.77461E+0
  -5.40287E+1  -2.24913E+2
   1.68291E+2  -1.04839E+2
   1.37301E+2  -9.42708E+1
   1.70414E+2   2.19647E+2
   1.08826E+2   1.07681E+2
   3.63221E+2  -1.42891E+1
   7.33103E+1   9.61407E+0
   2.01242E+2   3.80420E+1
   1.08806E+2  -2.99120E+1
  -1.79089E+1   1.80110E+2
   8.50857E+1   1.35989E+2
