 
 $NMID
 ID=''
 FMTDAT='(2E13.5)'
 TRAMP=   1.00000E+0
 VOLUME=   1.00000E+0
 $END
   3.51279E+3   6.44717E+5
  -5.48409E+5   1.62399E+6
  -3.17564E+5   1.64019E+6
  -3.98312E+5   1.48076E+6
  -5.26893E+5   1.50628E+6
  -5.36933E+5   1.49064E+6
  -5.87531E+5   1.44289E+6
  -6.15311E+5   1.46851E+6
  -5.81454E+5   1.42817E+6
  -6.30987E+5   1.36547E+6
  -6.84316E+5   1.37176E+6
  -6.80576E+5   1.35393E+6
  -6.96588E+5   1.32401E+6
  -7.03665E+5   1.32166E+6
  -7.00951E+5   1.28432E+6
  -7.30121E+5   1.24727E+6
  -7.55114E+5   1.25053E+6
  -7.65657E+5   1.22507E+6
  -7.98055E+5   1.18460E+6
  -8.19575E+5   1.16252E+6
  -8.35383E+5   1.12821E+6
  -8.65762E+5   1.09964E+6
  -8.81162E+5   1.08434E+6
  -8.89604E+5   1.05242E+6
  -9.09758E+5   1.02034E+6
  -9.16306E+5   1.00716E+6
  -9.21119E+5   9.84927E+5
  -9.31527E+5   9.65751E+5
  -9.34096E+5   9.49433E+5
  -9.38068E+5   9.26437E+5
  -9.56334E+5   9.00672E+5
  -9.64785E+5   8.78031E+5
  -9.73113E+5   8.50503E+5
  -9.87731E+5   8.25814E+5
  -9.97365E+5   7.99826E+5
  -1.00696E+6   7.70168E+5
  -1.02241E+6   7.45427E+5
  -1.03271E+6   7.19997E+5
  -1.03725E+6   6.92544E+5
  -1.04288E+6   6.71733E+5
  -1.04576E+6   6.52125E+5
  -1.04851E+6   6.29753E+5
  -1.04959E+6   6.11571E+5
  -1.05015E+6   5.95903E+5
  -1.05114E+6   5.76790E+5
  -1.05516E+6   5.58768E+5
  -1.05755E+6   5.37766E+5
  -1.06014E+6   5.13115E+5
  -1.06211E+6   4.89228E+5
  -1.06431E+6   4.66984E+5
  -1.06635E+6   4.43725E+5
  -1.06855E+6   4.19863E+5
  -1.07053E+6   3.97437E+5
  -1.07266E+6   3.74911E+5
  -1.07209E+6   3.53342E+5
  -1.07054E+6   3.32484E+5
  -1.06900E+6   3.11969E+5
  -1.06634E+6   2.92470E+5
  -1.06249E+6   2.74418E+5
  -1.06011E+6   2.57564E+5
  -1.05787E+6   2.39429E+5
  -1.05483E+6   2.19887E+5
  -1.05144E+6   1.99831E+5
  -1.04784E+6   1.79788E+5
  -1.04338E+6   1.59320E+5
  -1.03731E+6   1.39301E+5
  -1.03117E+6   1.20170E+5
  -1.02573E+6   1.01216E+5
  -1.02142E+6   8.25396E+4
  -1.01668E+6   6.36787E+4
  -1.00985E+6   4.55148E+4
  -1.00221E+6   2.89568E+4
  -9.96222E+5   1.30770E+4
  -9.90347E+5  -4.14235E+3
  -9.82288E+5  -2.11491E+4
  -9.74191E+5  -3.69154E+4
  -9.66970E+5  -5.33855E+4
  -9.59225E+5  -7.09322E+4
  -9.50606E+5  -8.81749E+4
  -9.41777E+5  -1.05757E+5
  -9.32523E+5  -1.22655E+5
  -9.23108E+5  -1.38574E+5
  -9.13483E+5  -1.53929E+5
  -9.03811E+5  -1.69536E+5
  -8.93863E+5  -1.84703E+5
  -8.83375E+5  -1.98024E+5
  -8.73676E+5  -2.10495E+5
  -8.63930E+5  -2.22800E+5
  -8.54027E+5  -2.34850E+5
  -8.43344E+5  -2.45705E+5
  -8.33078E+5  -2.56589E+5
  -8.22921E+5  -2.67994E+5
  -8.12377E+5  -2.79756E+5
  -8.00512E+5  -2.91409E+5
  -7.88411E+5  -3.02012E+5
  -7.76851E+5  -3.12320E+5
  -7.66146E+5  -3.22963E+5
  -7.54516E+5  -3.33738E+5
  -7.42094E+5  -3.43239E+5
  -7.30319E+5  -3.52047E+5
  -7.19113E+5  -3.60808E+5
  -7.07620E+5  -3.70019E+5
  -6.94747E+5  -3.77668E+5
  -6.82432E+5  -3.84185E+5
  -6.71027E+5  -3.90436E+5
  -6.60411E+5  -3.96827E+5
  -6.48387E+5  -4.03457E+5
  -6.35845E+5  -4.10058E+5
  -6.22940E+5  -4.15916E+5
  -6.10728E+5  -4.20728E+5
  -5.98894E+5  -4.25727E+5
  -5.87109E+5  -4.31938E+5
  -5.74334E+5  -4.38156E+5
  -5.60859E+5  -4.43724E+5
  -5.48285E+5  -4.48732E+5
  -5.35630E+5  -4.53643E+5
  -5.23007E+5  -4.58596E+5
  -5.09448E+5  -4.62774E+5
  -4.96993E+5  -4.65873E+5
  -4.84791E+5  -4.68427E+5
  -4.73419E+5  -4.71728E+5
  -4.61580E+5  -4.75298E+5
  -4.49135E+5  -4.78518E+5
  -4.36759E+5  -4.81355E+5
  -4.24114E+5  -4.84477E+5
  -4.11335E+5  -4.86574E+5
  -3.98867E+5  -4.87906E+5
  -3.86904E+5  -4.89864E+5
  -3.74684E+5  -4.91984E+5
  -3.62379E+5  -4.94074E+5
  -3.49653E+5  -4.96470E+5
  -3.37072E+5  -4.97840E+5
  -3.24416E+5  -4.98841E+5
  -3.12361E+5  -4.99442E+5
  -3.00273E+5  -5.00452E+5
  -2.87845E+5  -5.01059E+5
  -2.76049E+5  -5.01069E+5
  -2.64460E+5  -5.01532E+5
  -2.52672E+5  -5.01858E+5
  -2.40616E+5  -5.01717E+5
  -2.28710E+5  -5.00945E+5
  -2.17394E+5  -4.99947E+5
  -2.06368E+5  -4.98477E+5
  -1.95943E+5  -4.97766E+5
  -1.84942E+5  -4.97032E+5
  -1.74009E+5  -4.95717E+5
  -1.63236E+5  -4.93708E+5
  -1.52899E+5  -4.91553E+5
  -1.42835E+5  -4.89031E+5
  -1.33005E+5  -4.86743E+5
  -1.23355E+5  -4.84055E+5
  -1.13975E+5  -4.81256E+5
  -1.04845E+5  -4.78764E+5
  -9.60625E+4  -4.76038E+5
  -8.67181E+4  -4.73141E+5
  -7.76924E+4  -4.69914E+5
  -6.92989E+4  -4.66276E+5
  -6.07910E+4  -4.63354E+5
  -5.22236E+4  -4.59633E+5
  -4.42544E+4  -4.55890E+5
  -3.63221E+4  -4.52215E+5
  -2.83896E+4  -4.48101E+5
  -2.01589E+4  -4.44156E+5
  -1.28238E+4  -4.39579E+5
  -5.41396E+3  -4.35357E+5
   1.21883E+3  -4.30917E+5
   7.97680E+3  -4.27012E+5
   1.52541E+4  -4.22971E+5
   2.18132E+4  -4.18049E+5
   2.81216E+4  -4.13300E+5
   3.42337E+4  -4.08962E+5
   4.04147E+4  -4.04561E+5
   4.61161E+4  -3.99860E+5
   5.22527E+4  -3.94893E+5
   5.77951E+4  -3.89853E+5
   6.36714E+4  -3.85472E+5
   6.96083E+4  -3.80779E+5
   7.51893E+4  -3.75550E+5
   8.04263E+4  -3.70014E+5
   8.53284E+4  -3.64780E+5
   9.03877E+4  -3.59948E+5
   9.58141E+4  -3.55073E+5
   1.01046E+5  -3.49750E+5
   1.06002E+5  -3.44474E+5
   1.10393E+5  -3.39020E+5
   1.14662E+5  -3.33764E+5
   1.18905E+5  -3.28260E+5
   1.23030E+5  -3.22863E+5
   1.26616E+5  -3.17538E+5
   1.30326E+5  -3.13107E+5
   1.34667E+5  -3.08023E+5
   1.39023E+5  -3.02212E+5
   1.42777E+5  -2.96243E+5
   1.46247E+5  -2.90484E+5
   1.49684E+5  -2.85020E+5
   1.52818E+5  -2.79822E+5
   1.56461E+5  -2.74034E+5
   1.59758E+5  -2.68539E+5
   1.63017E+5  -2.63080E+5
   1.66303E+5  -2.57335E+5
   1.69512E+5  -2.51360E+5
   1.72076E+5  -2.45210E+5
   1.74508E+5  -2.39405E+5
   1.77105E+5  -2.34042E+5
   1.79536E+5  -2.28639E+5
   1.82166E+5  -2.22832E+5
   1.84348E+5  -2.17079E+5
   1.86569E+5  -2.11121E+5
   1.88379E+5  -2.05528E+5
   1.90467E+5  -1.99929E+5
   1.92460E+5  -1.93849E+5
   1.93813E+5  -1.88398E+5
   1.95326E+5  -1.82978E+5
   1.96916E+5  -1.77825E+5
   1.98748E+5  -1.71703E+5
   1.99768E+5  -1.65708E+5
   2.00603E+5  -1.60259E+5
   2.01245E+5  -1.54791E+5
   2.02221E+5  -1.49568E+5
   2.02811E+5  -1.44127E+5
   2.03341E+5  -1.38859E+5
   2.03683E+5  -1.33844E+5
   2.04161E+5  -1.28682E+5
   2.04626E+5  -1.23647E+5
   2.04897E+5  -1.18242E+5
   2.04568E+5  -1.13230E+5
   2.04414E+5  -1.08359E+5
   2.03919E+5  -1.03848E+5
   2.04165E+5  -9.86655E+4
   2.04137E+5  -9.37724E+4
   2.03352E+5  -8.90588E+4
   2.02755E+5  -8.47568E+4
   2.02288E+5  -8.03666E+4
   2.01418E+5  -7.57157E+4
   2.00355E+5  -7.16303E+4
   1.99569E+5  -6.73990E+4
   1.98704E+5  -6.35256E+4
   1.97965E+5  -5.91967E+4
   1.96779E+5  -5.50953E+4
   1.95396E+5  -5.11265E+4
   1.94384E+5  -4.75571E+4
   1.92873E+5  -4.37427E+4
   1.92170E+5  -4.01036E+4
   1.90548E+5  -3.58734E+4
   1.89533E+5  -3.22910E+4
   1.87920E+5  -2.88968E+4
   1.86785E+5  -2.54371E+4
   1.85339E+5  -2.18244E+4
   1.83310E+5  -1.82928E+4
   1.81922E+5  -1.51290E+4
   1.80502E+5  -1.20093E+4
   1.79188E+5  -8.80689E+3
   1.77506E+5  -5.68594E+3
   1.75645E+5  -2.22216E+3
   1.73678E+5   7.38174E+2
   1.72051E+5   3.75837E+3
   1.70476E+5   6.48880E+3
   1.69001E+5   9.86019E+3
   1.66961E+5   1.25634E+4
   1.65435E+5   1.58142E+4
   1.63444E+5   1.86002E+4
   1.61512E+5   2.18805E+4
   1.59220E+5   2.43614E+4
   1.57012E+5   2.71744E+4
   1.55356E+5   2.94206E+4
   1.53414E+5   3.19638E+4
   1.51598E+5   3.45990E+4
   1.49418E+5   3.72188E+4
   1.47464E+5   3.96695E+4
   1.45155E+5   4.19665E+4
   1.42965E+5   4.44504E+4
   1.41048E+5   4.67017E+4
   1.38915E+5   4.84633E+4
   1.36895E+5   5.10142E+4
   1.34619E+5   5.28096E+4
   1.32371E+5   5.51905E+4
   1.29910E+5   5.72218E+4
   1.27662E+5   5.92688E+4
   1.25472E+5   6.08811E+4
   1.22933E+5   6.27344E+4
   1.20785E+5   6.46496E+4
   1.18307E+5   6.62777E+4
   1.16219E+5   6.76763E+4
   1.14018E+5   6.92838E+4
   1.11886E+5   7.10477E+4
   1.09220E+5   7.24525E+4
   1.06911E+5   7.37363E+4
   1.04561E+5   7.46668E+4
   1.02454E+5   7.61187E+4
   1.00111E+5   7.75751E+4
   9.77514E+4   7.86143E+4
   9.54434E+4   7.97999E+4
   9.30394E+4   8.09286E+4
   9.06784E+4   8.19401E+4
   8.84622E+4   8.27807E+4
   8.60104E+4   8.35298E+4
   8.38304E+4   8.45014E+4
   8.16208E+4   8.53991E+4
   7.93806E+4   8.62144E+4
   7.70782E+4   8.71289E+4
   7.48440E+4   8.74267E+4
   7.23523E+4   8.83256E+4
   7.04703E+4   8.88999E+4
   6.82729E+4   8.95725E+4
   6.57777E+4   9.01962E+4
   6.36633E+4   9.04709E+4
   6.12591E+4   9.05887E+4
   5.91979E+4   9.10700E+4
   5.71233E+4   9.17211E+4
   5.50145E+4   9.18414E+4
   5.27509E+4   9.20877E+4
   5.08880E+4   9.24469E+4
   4.87973E+4   9.25889E+4
   4.64984E+4   9.26541E+4
   4.44655E+4   9.28579E+4
   4.24190E+4   9.29074E+4
   4.06199E+4   9.30022E+4
   3.83818E+4   9.28611E+4
   3.63964E+4   9.30401E+4
   3.44589E+4   9.28336E+4
   3.25035E+4   9.27910E+4
   3.06108E+4   9.25206E+4
   2.88738E+4   9.25060E+4
   2.68540E+4   9.20691E+4
   2.50772E+4   9.18234E+4
   2.33883E+4   9.15736E+4
   2.15337E+4   9.15630E+4
   1.95940E+4   9.13017E+4
   1.76105E+4   9.08426E+4
   1.58180E+4   9.01499E+4
   1.41243E+4   8.97635E+4
   1.23897E+4   8.93865E+4
   1.09909E+4   8.87992E+4
   9.14177E+3   8.82720E+4
   7.50486E+3   8.74615E+4
   5.80739E+3   8.72178E+4
   3.97243E+3   8.67327E+4
   2.64587E+3   8.59792E+4
   9.45748E+2   8.51221E+4
  -6.84222E+2   8.43415E+4
  -1.81846E+3   8.39594E+4
  -3.50840E+3   8.31048E+4
  -5.08010E+3   8.22992E+4
  -6.65860E+3   8.14724E+4
  -7.87795E+3   8.06819E+4
  -9.24195E+3   7.99461E+4
  -1.08457E+4   7.90692E+4
  -1.19801E+4   7.81464E+4
  -1.31530E+4   7.73975E+4
  -1.44190E+4   7.66253E+4
  -1.55017E+4   7.56279E+4
  -1.68147E+4   7.48650E+4
  -1.82825E+4   7.36772E+4
  -1.92040E+4   7.30573E+4
  -2.03518E+4   7.20512E+4
  -2.16634E+4   7.08976E+4
  -2.25536E+4   6.96896E+4
  -2.35922E+4   6.89723E+4
  -2.47264E+4   6.80558E+4
  -2.56178E+4   6.71885E+4
  -2.65399E+4   6.61473E+4
  -2.75641E+4   6.50402E+4
  -2.83865E+4   6.37242E+4
  -2.91794E+4   6.30200E+4
  -2.98739E+4   6.20372E+4
  -3.10034E+4   6.09384E+4
  -3.15683E+4   5.95084E+4
