 
 $NMID
 ID=''
 FMTDAT='(2E13.5)'
 TRAMP=   1.00000E+0
 VOLUME=   1.00000E+0
 $END
  -4.00792E+5   5.89501E+5
  -1.55544E+6   1.03667E+6
  -1.43506E+6   1.15476E+6
  -1.44927E+6   1.04674E+6
  -1.50283E+6   1.07655E+6
  -1.41882E+6   1.04028E+6
  -1.44518E+6   9.35075E+5
  -1.51665E+6   9.74109E+5
  -1.44681E+6   9.94008E+5
  -1.42874E+6   9.09813E+5
  -1.47248E+6   8.88179E+5
  -1.45350E+6   8.88423E+5
  -1.44243E+6   8.54675E+5
  -1.44463E+6   8.44762E+5
  -1.42047E+6   8.20416E+5
  -1.42365E+6   7.87295E+5
  -1.43558E+6   7.86802E+5
  -1.41518E+6   7.61460E+5
  -1.41484E+6   7.17392E+5
  -1.42214E+6   7.05284E+5
  -1.41075E+6   6.81153E+5
  -1.41013E+6   6.49225E+5
  -1.40775E+6   6.37406E+5
  -1.39605E+6   6.12656E+5
  -1.39555E+6   5.79634E+5
  -1.38823E+6   5.72839E+5
  -1.37635E+6   5.56876E+5
  -1.37489E+6   5.34185E+5
  -1.36748E+6   5.19459E+5
  -1.35321E+6   5.03621E+5
  -1.35319E+6   4.80809E+5
  -1.34768E+6   4.63506E+5
  -1.33720E+6   4.40873E+5
  -1.33273E+6   4.21019E+5
  -1.32503E+6   4.04377E+5
  -1.31749E+6   3.84088E+5
  -1.31613E+6   3.64064E+5
  -1.30933E+6   3.46276E+5
  -1.29791E+6   3.25385E+5
  -1.29358E+6   3.08717E+5
  -1.28601E+6   2.95201E+5
  -1.27483E+6   2.79154E+5
  -1.26558E+6   2.65170E+5
  -1.25865E+6   2.52530E+5
  -1.24994E+6   2.37963E+5
  -1.24348E+6   2.24251E+5
  -1.23534E+6   2.08163E+5
  -1.22712E+6   1.88534E+5
  -1.21778E+6   1.72016E+5
  -1.20882E+6   1.57243E+5
  -1.20084E+6   1.40207E+5
  -1.19413E+6   1.23579E+5
  -1.18603E+6   1.08481E+5
  -1.17845E+6   9.27617E+4
  -1.17008E+6   7.70317E+4
  -1.16146E+6   6.21139E+4
  -1.15270E+6   4.81723E+4
  -1.14249E+6   3.51286E+4
  -1.13206E+6   2.30909E+4
  -1.12458E+6   1.05785E+4
  -1.11654E+6  -2.31244E+3
  -1.10688E+6  -1.53929E+4
  -1.09775E+6  -2.85716E+4
  -1.08904E+6  -4.21881E+4
  -1.07862E+6  -5.53880E+4
  -1.06708E+6  -6.74816E+4
  -1.05692E+6  -7.94982E+4
  -1.04774E+6  -9.07327E+4
  -1.03972E+6  -1.02069E+5
  -1.03007E+6  -1.14364E+5
  -1.01921E+6  -1.25992E+5
  -1.00918E+6  -1.36108E+5
  -1.00051E+6  -1.45119E+5
  -9.90510E+5  -1.55641E+5
  -9.79659E+5  -1.66005E+5
  -9.69464E+5  -1.75527E+5
  -9.60009E+5  -1.84927E+5
  -9.49741E+5  -1.95191E+5
  -9.38587E+5  -2.05426E+5
  -9.27680E+5  -2.15541E+5
  -9.16640E+5  -2.25228E+5
  -9.05730E+5  -2.34079E+5
  -8.95202E+5  -2.43079E+5
  -8.84644E+5  -2.52330E+5
  -8.73066E+5  -2.61487E+5
  -8.61836E+5  -2.69117E+5
  -8.51480E+5  -2.75981E+5
  -8.41323E+5  -2.83485E+5
  -8.30479E+5  -2.90135E+5
  -8.19455E+5  -2.96269E+5
  -8.09431E+5  -3.02207E+5
  -7.99580E+5  -3.08426E+5
  -7.88723E+5  -3.15062E+5
  -7.77097E+5  -3.21462E+5
  -7.66073E+5  -3.26882E+5
  -7.55899E+5  -3.32377E+5
  -7.45552E+5  -3.37786E+5
  -7.35061E+5  -3.43459E+5
  -7.24462E+5  -3.49121E+5
  -7.14356E+5  -3.54122E+5
  -7.04191E+5  -3.58247E+5
  -6.94568E+5  -3.63202E+5
  -6.83716E+5  -3.67998E+5
  -6.72738E+5  -3.71389E+5
  -6.63001E+5  -3.74213E+5
  -6.54198E+5  -3.77208E+5
  -6.45230E+5  -3.81233E+5
  -6.34840E+5  -3.84608E+5
  -6.23834E+5  -3.86833E+5
  -6.14920E+5  -3.88628E+5
  -6.06307E+5  -3.91634E+5
  -5.97238E+5  -3.95107E+5
  -5.87399E+5  -3.98494E+5
  -5.77700E+5  -4.01280E+5
  -5.68416E+5  -4.04289E+5
  -5.58604E+5  -4.07256E+5
  -5.49234E+5  -4.09615E+5
  -5.39602E+5  -4.11750E+5
  -5.30198E+5  -4.12755E+5
  -5.21829E+5  -4.13638E+5
  -5.13768E+5  -4.15389E+5
  -5.05625E+5  -4.17197E+5
  -4.96924E+5  -4.18884E+5
  -4.88346E+5  -4.20417E+5
  -4.79771E+5  -4.21625E+5
  -4.70950E+5  -4.22680E+5
  -4.62545E+5  -4.23020E+5
  -4.54104E+5  -4.23973E+5
  -4.46075E+5  -4.24934E+5
  -4.37810E+5  -4.26630E+5
  -4.28748E+5  -4.27772E+5
  -4.19718E+5  -4.28682E+5
  -4.11245E+5  -4.29072E+5
  -4.02773E+5  -4.29635E+5
  -3.94721E+5  -4.30209E+5
  -3.86357E+5  -4.30333E+5
  -3.78586E+5  -4.30734E+5
  -3.70915E+5  -4.31070E+5
  -3.63048E+5  -4.31503E+5
  -3.55002E+5  -4.31955E+5
  -3.46803E+5  -4.31746E+5
  -3.38994E+5  -4.30615E+5
  -3.31851E+5  -4.29907E+5
  -3.24814E+5  -4.29811E+5
  -3.17296E+5  -4.29842E+5
  -3.09493E+5  -4.28994E+5
  -3.02110E+5  -4.27842E+5
  -2.94720E+5  -4.27205E+5
  -2.87582E+5  -4.25911E+5
  -2.80329E+5  -4.24463E+5
  -2.73678E+5  -4.23308E+5
  -2.67174E+5  -4.21758E+5
  -2.61081E+5  -4.20182E+5
  -2.54751E+5  -4.19019E+5
  -2.48186E+5  -4.17407E+5
  -2.41985E+5  -4.15739E+5
  -2.36001E+5  -4.14127E+5
  -2.29878E+5  -4.12425E+5
  -2.23806E+5  -4.10398E+5
  -2.17917E+5  -4.08188E+5
  -2.11986E+5  -4.05953E+5
  -2.06353E+5  -4.04125E+5
  -2.00292E+5  -4.01957E+5
  -1.94724E+5  -3.99771E+5
  -1.89008E+5  -3.97047E+5
  -1.83872E+5  -3.94770E+5
  -1.78895E+5  -3.93062E+5
  -1.73391E+5  -3.91380E+5
  -1.67963E+5  -3.88534E+5
  -1.63258E+5  -3.86135E+5
  -1.58437E+5  -3.83633E+5
  -1.53530E+5  -3.81141E+5
  -1.48792E+5  -3.78968E+5
  -1.43994E+5  -3.76648E+5
  -1.39012E+5  -3.74029E+5
  -1.34318E+5  -3.71839E+5
  -1.29786E+5  -3.69875E+5
  -1.24509E+5  -3.67329E+5
  -1.19608E+5  -3.64203E+5
  -1.15611E+5  -3.61877E+5
  -1.11414E+5  -3.59703E+5
  -1.06629E+5  -3.57626E+5
  -1.01543E+5  -3.55167E+5
  -9.70699E+4  -3.52562E+5
  -9.32423E+4  -3.50310E+5
  -8.87970E+4  -3.47545E+5
  -8.48865E+4  -3.45095E+5
  -8.10355E+4  -3.42103E+5
  -7.75234E+4  -3.39799E+5
  -7.41831E+4  -3.37740E+5
  -6.96736E+4  -3.35637E+5
  -6.51795E+4  -3.33385E+5
  -6.06960E+4  -3.30261E+5
  -5.69670E+4  -3.27633E+5
  -5.30524E+4  -3.24896E+5
  -4.96797E+4  -3.21919E+5
  -4.54662E+4  -3.19844E+5
  -4.16818E+4  -3.17199E+5
  -3.76968E+4  -3.14658E+5
  -3.38236E+4  -3.12167E+5
  -2.99918E+4  -3.09434E+5
  -2.63058E+4  -3.06254E+5
  -2.28789E+4  -3.02846E+5
  -1.93461E+4  -3.00731E+5
  -1.59110E+4  -2.98023E+5
  -1.23916E+4  -2.95341E+5
  -8.98864E+3  -2.92421E+5
  -5.41260E+3  -2.89168E+5
  -2.41721E+3  -2.86383E+5
   1.16849E+3  -2.83598E+5
   4.49756E+3  -2.80275E+5
   7.60074E+3  -2.77479E+5
   1.04135E+4  -2.74791E+5
   1.34982E+4  -2.71887E+5
   1.69572E+4  -2.69188E+5
   1.99794E+4  -2.65563E+5
   2.25989E+4  -2.62274E+5
   2.51710E+4  -2.59098E+5
   2.78731E+4  -2.56275E+5
   3.04499E+4  -2.53320E+5
   3.30365E+4  -2.50259E+5
   3.53294E+4  -2.47016E+5
   3.76443E+4  -2.44181E+5
   4.03349E+4  -2.41258E+5
   4.29007E+4  -2.37976E+5
   4.49876E+4  -2.34449E+5
   4.67796E+4  -2.31400E+5
   4.87975E+4  -2.28585E+5
   5.11740E+4  -2.25765E+5
   5.31146E+4  -2.22424E+5
   5.50290E+4  -2.19217E+5
   5.67254E+4  -2.16268E+5
   5.83232E+4  -2.13362E+5
   6.03101E+4  -2.10404E+5
   6.17011E+4  -2.07518E+5
   6.31514E+4  -2.04516E+5
   6.45989E+4  -2.01657E+5
   6.60588E+4  -1.99026E+5
   6.77059E+4  -1.95901E+5
   6.87032E+4  -1.92957E+5
   7.00470E+4  -1.90072E+5
   7.12558E+4  -1.87618E+5
   7.27496E+4  -1.85194E+5
   7.37507E+4  -1.82017E+5
   7.49348E+4  -1.79207E+5
   7.57540E+4  -1.76624E+5
   7.68975E+4  -1.74203E+5
   7.80752E+4  -1.71214E+5
   7.89199E+4  -1.68501E+5
   7.97226E+4  -1.65864E+5
   8.04348E+4  -1.63516E+5
   8.17519E+4  -1.61107E+5
   8.25251E+4  -1.58196E+5
   8.32774E+4  -1.55649E+5
   8.38254E+4  -1.52924E+5
   8.45484E+4  -1.50871E+5
   8.53845E+4  -1.48482E+5
   8.62265E+4  -1.45836E+5
   8.71431E+4  -1.43278E+5
   8.80271E+4  -1.40902E+5
   8.86922E+4  -1.38661E+5
   8.93089E+4  -1.35755E+5
   9.00083E+4  -1.33250E+5
   9.03261E+4  -1.30845E+5
   9.08593E+4  -1.28554E+5
   9.14680E+4  -1.26333E+5
   9.21045E+4  -1.23882E+5
   9.27134E+4  -1.21438E+5
   9.30561E+4  -1.19031E+5
   9.30282E+4  -1.16967E+5
   9.38771E+4  -1.14609E+5
   9.37948E+4  -1.12223E+5
   9.39072E+4  -1.09876E+5
   9.43576E+4  -1.08074E+5
   9.48280E+4  -1.05919E+5
   9.51095E+4  -1.03332E+5
   9.54684E+4  -1.00979E+5
   9.51291E+4  -9.86906E+4
   9.55741E+4  -9.64163E+4
   9.56080E+4  -9.47099E+4
   9.56339E+4  -9.23448E+4
   9.59866E+4  -9.01369E+4
   9.57179E+4  -8.80136E+4
   9.57246E+4  -8.62845E+4
   9.59533E+4  -8.42017E+4
   9.59834E+4  -8.17767E+4
   9.55096E+4  -7.96929E+4
   9.50611E+4  -7.80666E+4
   9.52812E+4  -7.64107E+4
   9.53585E+4  -7.45577E+4
   9.52821E+4  -7.24819E+4
   9.49715E+4  -7.04658E+4
   9.47421E+4  -6.85694E+4
   9.44038E+4  -6.69620E+4
   9.41256E+4  -6.51640E+4
   9.39218E+4  -6.34612E+4
   9.36112E+4  -6.17199E+4
   9.33435E+4  -5.97649E+4
   9.29729E+4  -5.81796E+4
   9.27336E+4  -5.63434E+4
   9.23136E+4  -5.48123E+4
   9.18128E+4  -5.32114E+4
   9.15458E+4  -5.17443E+4
   9.11234E+4  -5.02102E+4
   9.06563E+4  -4.84506E+4
   9.00245E+4  -4.68402E+4
   8.93928E+4  -4.54223E+4
   8.90688E+4  -4.41644E+4
   8.87089E+4  -4.26425E+4
   8.79986E+4  -4.13122E+4
   8.77301E+4  -3.97921E+4
   8.72050E+4  -3.83744E+4
   8.68124E+4  -3.68733E+4
   8.63949E+4  -3.54889E+4
   8.57152E+4  -3.41591E+4
   8.49405E+4  -3.31190E+4
   8.45784E+4  -3.17988E+4
   8.39562E+4  -3.05716E+4
   8.33279E+4  -2.92747E+4
   8.26291E+4  -2.80814E+4
   8.21439E+4  -2.68398E+4
   8.15764E+4  -2.56303E+4
   8.10081E+4  -2.44832E+4
   8.00320E+4  -2.32695E+4
   7.94501E+4  -2.22081E+4
   7.87220E+4  -2.15864E+4
   7.84876E+4  -2.01818E+4
   7.79512E+4  -1.88484E+4
   7.69154E+4  -1.78081E+4
   7.61737E+4  -1.67080E+4
   7.53937E+4  -1.59533E+4
   7.49238E+4  -1.50895E+4
   7.44384E+4  -1.41450E+4
   7.37099E+4  -1.31015E+4
   7.30991E+4  -1.23129E+4
   7.24661E+4  -1.12332E+4
   7.18768E+4  -1.02742E+4
   7.09104E+4  -9.06401E+3
   7.01607E+4  -8.28796E+3
   6.93670E+4  -7.62498E+3
   6.88766E+4  -6.86610E+3
   6.85317E+4  -6.04991E+3
   6.75482E+4  -5.30330E+3
   6.68057E+4  -4.25597E+3
   6.63032E+4  -3.81972E+3
   6.52538E+4  -2.90848E+3
   6.45700E+4  -2.12108E+3
   6.38537E+4  -1.45922E+3
   6.34831E+4  -1.05863E+3
   6.30337E+4  -3.45926E+2
   6.23167E+4   6.16186E+2
   6.14721E+4   1.11937E+3
   6.07402E+4   1.96877E+3
   6.01171E+4   2.24335E+3
   5.95680E+4   2.88421E+3
   5.88939E+4   3.44488E+3
   5.80254E+4   3.80081E+3
   5.72433E+4   4.28241E+3
   5.68517E+4   4.71442E+3
   5.61392E+4   5.19820E+3
   5.55152E+4   6.11207E+3
   5.47147E+4   6.38426E+3
   5.39549E+4   6.96793E+3
   5.35936E+4   7.00898E+3
   5.28324E+4   7.48169E+3
   5.20157E+4   8.04848E+3
   5.14978E+4   8.46625E+3
