 
 $NMID
 ID=''
 FMTDAT='(2E13.5)'
 TRAMP=   1.00000E+0
 VOLUME=   1.00000E+0
 $END
   2.12767E+4   7.04734E+3
   1.90661E+4  -1.65138E+4
  -2.05968E+4  -2.09973E+4
  -1.79309E+4   1.55637E+4
   2.02661E+4   2.15992E+4
   1.61856E+4  -1.30999E+4
  -1.61771E+4  -1.80058E+4
  -1.25148E+4   8.16504E+3
   1.12384E+4   1.20368E+4
   1.09462E+4  -4.91919E+3
  -4.58917E+3  -8.97520E+3
  -7.88075E+3   3.09389E+3
   3.33796E+3   7.69037E+3
   7.49407E+3   1.67751E+1
  -3.75074E+3  -4.27453E+3
  -7.82797E+3   1.74422E+3
   2.99721E+3   3.71137E+3
   5.14291E+3  -1.18295E+3
  -3.22534E+3  -1.89623E+3
  -2.87366E+3   4.70248E+2
   3.19132E+3   6.00256E+2
   1.02518E+3  -7.75987E+2
  -3.12787E+3  -1.05435E+3
   4.71962E+2   1.06209E+2
   3.42751E+3   1.04850E+3
  -1.16849E+3  -9.54653E+2
  -3.35907E+3  -1.47967E+3
   2.13541E+3   6.61589E+2
   4.04135E+3   1.15256E+3
  -1.45034E+3   7.22270E+1
  -3.44601E+3  -1.55096E+2
   9.97319E+2  -1.42813E+3
   2.95597E+3  -1.11913E+3
   7.35126E+2   1.51243E+3
  -2.12210E+3   2.04949E+3
  -2.22340E+3  -8.41739E+2
   6.00609E+1  -2.34609E+3
   1.12039E+3   1.01785E+2
  -6.34740E+2   1.18986E+3
  -4.92814E+2  -1.00150E+3
   8.48316E+2  -5.11932E+2
   7.46651E+2   1.82645E+3
  -1.15654E+3   1.01600E+3
  -1.15351E+3  -1.29847E+3
   1.97300E+2  -3.49056E+2
   1.64980E+2   6.62928E+2
  -3.35663E+2  -8.33163E+2
   4.77797E+2  -1.40423E+3
   1.23126E+3   5.45113E+2
   5.88733E+2   1.63040E+3
  -4.97157E+2   3.00192E+2
  -8.92983E+2  -4.15840E+2
   1.08776E+1   5.43726E+2
   2.96002E+2   9.34823E+2
  -3.70601E+2  -2.29716E+2
  -4.14750E+2  -1.16596E+3
   6.25436E+2  -1.07522E+2
   9.51680E+2   1.37330E+3
  -6.68019E+1   1.12422E+3
  -9.86831E+2  -5.63424E+2
  -8.01991E+2  -3.92632E+2
   2.02149E+2   3.83870E+2
   3.64258E+1   1.01537E+2
  -4.82812E+2  -1.28678E+3
   7.29761E+2  -8.91843E+2
   1.68809E+3   8.60127E+2
   4.43797E+2   8.89953E+2
  -9.82655E+2   2.62517E+2
  -7.13273E+2   1.19946E+0
   6.50304E+2   1.62093E+2
   8.43063E+2   8.33841E+1
  -3.40036E+2  -2.46095E+2
  -5.26171E+2   1.48112E+2
  -1.41779E+2   3.33562E+2
   3.49232E+2  -4.82784E+2
  -7.83504E+1  -3.65726E+2
  -4.05798E+2  -2.89558E+2
   3.38301E+2  -7.35133E+1
   5.03661E+0  -8.46361E+1
   6.81994E+1  -1.73991E+2
   3.24638E+2  -1.05871E+2
   6.93338E+2   1.56168E+2
   1.56276E+2   1.13934E+1
  -4.03863E+2  -5.79603E+1
   1.68990E+2  -1.82438E+2
   3.52649E+2   1.28167E+2
   1.76097E+1  -7.74505E+1
  -5.63383E+2  -4.06860E+1
  -1.55219E+2  -2.44446E+2
   1.09213E+2   7.03172E+1
  -1.96643E+2   1.46993E+1
  -3.47123E+2  -1.98218E+2
  -3.13719E+2  -6.46177E+2
   4.10103E+2  -5.60401E+2
   3.25850E+2  -2.00304E+2
  -1.88266E+2   3.57831E+2
   1.21050E+1   8.71022E+1
   2.61208E+2  -1.32102E+2
   2.10367E+2   4.64829E+1
  -3.93531E+2   4.44689E+2
  -6.78199E+2   1.35947E+2
  -2.21382E+0  -3.19728E+2
   9.29458E+1  -4.76777E+2
   1.85438E+1   6.29633E+1
   9.01510E+1   1.18341E+2
  -1.29207E+2   1.00249E+2
  -5.81261E+2   3.62728E+1
  -3.42710E+2  -9.23853E+1
   2.17185E+2  -2.10156E+2
   6.78702E+2  -1.57613E+1
  -4.88283E+1   4.75558E+2
  -4.82301E+2   3.81350E+2
  -2.73363E+2   8.16274E-1
  -1.80498E+1  -1.62639E+1
   5.24424E+1   1.44649E+2
  -3.96157E+2   2.03155E+2
  -1.26416E+2  -2.64862E+2
   1.79083E+2  -2.68620E+2
   4.90034E+2   1.97524E+2
   2.68344E+2   2.80130E+2
   1.69022E+2   2.30696E+2
  -8.13653E+1   9.82071E+1
   1.45400E+2   6.94515E+1
  -3.85915E+2   3.68323E+2
  -1.62474E+2   2.03098E+2
   6.81740E+1  -1.82473E+2
  -8.90533E+1  -5.38943E+1
   1.49407E+1  -5.90331E+1
  -3.29515E+2   1.07848E+2
   2.96260E+1   2.53898E+2
  -6.22122E+1   1.61459E+2
   1.41993E+1  -1.60321E+2
   6.17712E+1   1.06607E+2
   1.28824E+1   4.55984E+1
   1.83699E+2   1.08743E+2
   1.48075E+2  -1.10549E+2
   2.48012E+1  -8.11228E+0
   9.05098E+1   2.18072E+2
  -9.31663E+1  -5.70810E+0
  -5.96579E+1   9.88267E+1
   4.36129E+0  -2.66571E+2
   3.85436E+1  -8.59862E+1
   7.79801E+1   1.22235E+2
  -1.20968E+1   2.47415E+2
  -3.21541E+2   1.97188E+1
  -1.81789E+2  -1.99099E+2
   2.00966E+2  -1.03560E+2
   1.45391E+2   2.52648E+1
  -7.55557E+1   1.09659E+2
  -6.90752E+1   6.94407E+1
   8.65072E-1  -2.05590E+2
   2.65793E+1   1.93543E+2
  -1.75715E+1   2.23074E+2
  -2.82814E+2   8.07722E+1
  -1.17310E+2  -4.31917E+1
   1.01969E+2  -1.29360E+2
  -1.24817E+1   2.19232E+2
  -1.15626E+2   9.55995E+1
  -8.27057E+1   1.92593E+2
   4.26994E+1   1.00454E+2
   1.59727E+2   1.69092E+2
  -1.89658E+2  -3.22752E+2
  -2.20929E+2   2.11863E+1
   9.99283E+1   1.07803E+2
   4.72100E+1   9.89115E+1
   1.75447E+2   2.61073E+0
   2.55727E+2   1.07767E+2
   1.26379E+2   1.83408E+2
  -2.25695E+2   1.60848E+2
  -3.80163E+2   1.68794E+2
   3.85077E+0   4.48907E+1
   1.42576E+2   5.90927E+1
  -9.66415E+1   4.70228E+1
  -1.52243E+2  -1.57590E+2
  -3.68371E+1   1.27669E+2
   6.84104E+0  -9.98520E+1
   6.47556E+1  -1.64963E+2
  -3.88015E+1  -1.71120E+2
   1.10078E+1  -1.28847E+2
  -1.60734E+1  -7.08546E+1
   2.11546E+2  -6.47733E+0
  -7.19770E+1   1.40087E+2
  -4.95839E+1   2.04911E+2
  -1.77375E+1  -6.26307E+1
   1.25588E+2   2.26290E-2
   1.70301E+1  -8.16525E+1
   1.85338E+2  -2.50198E+2
   3.26680E+2  -8.72410E+1
   8.34802E+1  -2.84967E+2
  -1.28985E+2   6.63881E+1
  -1.44277E+2   1.60568E+2
   1.11869E+2  -7.95826E+1
   8.70302E+1   3.84313E+1
  -1.57371E+1   1.69988E+2
   2.50493E+2   1.47254E+2
   8.94477E+0  -6.92196E+1
  -1.41147E+2   6.66757E+1
   2.73085E+2  -9.31754E+1
   1.95016E+2   2.51781E+0
  -1.79775E+2  -1.24912E+2
  -1.15396E+0  -6.13882E+1
  -1.33285E+1   1.14955E+2
  -1.01784E+1  -1.27771E+2
  -1.85067E+2  -1.84819E+2
   1.29497E+2  -7.93032E+1
   3.81909E+1   1.95070E+2
  -9.60085E+1  -1.36677E+2
   7.55961E+1  -1.44664E+2
  -1.63709E+1  -1.36796E+2
  -5.98982E+1   4.98966E+1
  -4.63303E+1  -4.06527E+1
   1.10747E+1   1.65939E+2
  -4.33925E+1  -1.24576E+1
  -7.20703E+1  -3.36376E+1
   7.46604E+1   1.64254E+1
  -9.49800E+1  -1.66450E+2
  -1.34069E+2  -2.19256E+2
   3.85320E+1  -8.93229E+0
  -1.80903E+2  -5.85298E+1
  -2.11959E+2  -7.26118E+1
  -1.08252E+2  -8.77362E+1
  -1.02482E+2   1.31407E+2
  -3.20537E+1  -8.21965E+1
  -1.82344E+2  -1.22298E+2
   6.25457E+1   8.60013E+1
  -1.37750E+2   3.38046E+1
  -2.74540E+1  -1.51551E+1
  -4.58990E+1  -1.05514E+2
  -2.04420E-1  -3.08396E+2
   1.91394E+1   1.24974E+2
  -9.26094E+1   2.43026E+1
   1.65775E+2  -1.19734E+1
  -6.31233E+1  -1.67593E+1
   3.66257E+1   3.78158E+1
  -1.66636E+2  -2.91879E+1
   1.21642E+2  -2.08994E+2
   2.40608E+2   1.63544E+2
  -1.24381E+2   7.00376E+1
  -1.06555E+2  -6.43154E+1
  -2.20670E+2  -5.69930E+1
  -8.43774E+0   3.22521E+1
   3.61456E+1  -9.22119E-1
   1.77644E+2   2.03987E+0
  -6.21655E+1  -1.58590E+2
  -6.07182E+1   4.92196E+0
  -1.75851E+2  -9.43125E+1
   2.91826E+1   4.98989E+1
   6.04548E+1  -7.13729E+1
   1.16907E+2  -1.30116E+1
   2.92612E+1  -1.65944E+1
  -1.72935E+2  -1.03908E+2
  -1.32298E+2  -1.85237E+2
   3.41842E+1  -3.09100E+1
  -6.43857E+1  -1.07149E+2
  -7.05396E+1  -1.15119E+2
   4.84765E+1   1.58004E+2
   3.52565E+1  -3.20654E+1
   6.71045E+1  -3.16129E+1
  -1.61519E+1   2.30024E+1
   1.82643E+2  -2.59946E+2
   2.26141E+2  -2.74271E+1
   7.56931E+1  -2.38845E+2
   6.71548E+1   9.50585E+1
  -2.27549E+1   1.94340E+2
  -6.26192E+1   2.71097E+2
   7.17976E+1   1.01936E+2
   7.05376E+1   2.97800E+1
   1.13798E+2   9.15593E+1
   7.42895E+1   1.20357E+2
  -1.46871E+1  -1.60113E+2
   6.04223E+1   7.44991E+1
  -1.19678E+2  -1.99132E+2
   3.84413E+1  -1.11801E+2
  -2.49753E+2  -1.42690E+2
  -3.60410E+1   8.85728E+0
  -1.28117E+2  -9.91825E+1
   1.42094E+2   1.71542E+2
  -1.25831E+2  -6.02309E+1
  -1.40169E+2   1.70141E+2
  -3.74921E+1   2.81286E+2
  -1.83580E+2   7.52436E+1
  -5.51814E+1  -8.75144E+1
  -7.01464E+1   1.82763E+1
  -2.06397E+2  -1.03629E+2
   9.16240E+1   9.05239E+1
  -4.11314E+1   7.67350E+1
   1.12253E+2   1.83623E+2
  -5.84191E+1   4.71651E+1
  -5.69355E+1   3.15334E+1
  -5.59129E+1  -2.46971E+2
   7.64850E+1   6.07879E+1
   1.48504E+1  -6.57274E+1
   2.25394E+1   6.39902E+1
   2.16313E+1  -2.38749E+1
  -7.96396E+1   1.87679E+1
  -9.87153E+1  -3.57854E+1
   9.29610E+1  -6.65279E+1
  -3.96570E+1  -2.55945E+1
   2.88306E+2  -9.31006E+1
   2.29976E+2  -1.06737E+2
  -2.85751E+1   4.43374E+1
   9.51582E+1  -6.88391E+1
  -1.27441E+1   1.53708E+1
  -2.43749E+1  -6.24073E+1
   1.46046E+2  -1.23462E+2
   1.62505E+2   1.20280E+2
  -2.67489E+1   5.95436E+1
   2.98231E+0   8.98393E+0
   1.36328E+2   1.81100E+2
   1.00242E+2   3.53387E+1
  -9.25483E+1   1.94887E+1
   2.91148E+1  -4.32818E+1
  -1.67776E+2   1.37224E+2
   2.62397E+2  -3.86956E+2
  -4.96841E+1   7.50186E+1
  -1.11928E+1   8.68754E+1
  -8.44883E+1   6.68751E+1
   1.38324E+2   1.23420E+2
  -2.82978E+0  -1.47580E+2
  -1.97231E+2   1.41603E+2
   1.47856E+2  -1.39159E+2
   8.85174E+1  -7.85315E+1
   1.75703E+1  -2.55442E+1
   1.53431E+0   3.41363E+1
   8.45549E+0  -1.04734E+1
  -7.79993E+1   1.02878E+2
  -1.47115E+2  -2.39722E+2
  -1.13312E+2  -3.61950E+1
  -1.14802E+2  -2.29249E+2
   1.61289E+2  -8.57226E+1
   6.18966E+1  -1.26711E+2
   9.24672E+1  -1.14404E+1
   1.67518E+2  -8.27743E+1
  -6.35177E+1  -1.95737E+2
  -9.32134E+1   1.36067E+2
  -3.11948E+1  -1.36175E+2
   1.84247E+2  -3.02643E+1
  -2.01566E+2   3.19891E+1
  -1.43130E+1   5.42571E+1
   1.49784E+2  -1.16904E+2
  -7.88435E+1  -9.30710E+1
  -2.80694E+1   6.82503E+1
  -2.55276E+1  -1.19319E+2
   8.01144E+1  -1.93381E+2
  -1.67441E+2  -1.19615E+2
  -1.09166E+2  -1.00466E+2
  -8.17261E+1   8.66125E+1
   2.33444E+0  -1.14941E+2
   8.97122E+1  -1.73255E+2
   1.13722E+2  -1.99606E+2
  -1.82174E+2  -2.00749E+2
  -3.75490E+1  -1.34635E+2
   1.44074E+1  -2.44916E+2
   1.44844E+2  -1.44957E+2
  -1.13014E+2  -1.07366E+2
   2.13504E+2   9.90081E+1
  -8.94547E+1   1.36426E+2
  -1.97446E+2  -2.45035E+2
   3.93953E+1  -1.55086E+2
  -1.94001E+1  -1.02491E+2
  -9.70421E+1  -8.83961E+1
  -2.24299E+2   6.52909E+1
  -1.64360E+2   2.18938E+1
   1.80434E+1  -1.42269E+2
   2.42501E+1  -4.41705E+1
   9.57511E+1   2.60697E+1
  -5.86443E+1  -7.32634E+1
