 LCModel (Version 6.3-1N) Copyright: S.W. Provencher.          Ref.: Magn. Reson. Med. 30:672-679 (1993).                
 Slice_N1@14_8  28-Feb-2025 11:38:34
 27 lines in following concentration table = NCONC+1
    Conc.  %SD /Cr+PCr  Metabolite                                         
 2.80E-04   6% 2.6E-04 Mac                                                 
    4.355  47%   4.027 Cr                                                  
    4.296  47%   3.973 PCr                                                 
    3.705  34%   3.426 Ins                                                 
   13.705  10%  12.674 NAA                                                 
    5.765  23%   5.331 Tau                                                 
    1.762  19%   1.629 PCho                                                
    0.000 999%   0.000 GPC                                                 
   13.400  12%  12.392 Glu                                                 
    1.452  67%   1.343 Gln                                                 
    0.000 999%   0.000 Ala                                                 
    3.979  44%   3.680 Asc                                                 
    2.396  49%   2.215 Asp                                                 
    1.256  52%   1.161 GABA                                                
    0.896  84%   0.829 Glc                                                 
    0.656  71%   0.606 GSH                                                 
    0.000 999%   0.000 Lac                                                 
    3.165  30%   2.927 NAAG                                                
    0.000 999%   0.000 PE                                                  
    1.762  19%   1.629 GPC+PCho                                            
   16.870   8%  15.600 NAA+NAAG                                            
   14.852  12%  13.734 Glu+Gln                                             
    8.651  12%   8.000 Cr+PCr                                              
   16.870   8%  15.600 NAA+NAAG                                            
    8.651  12%   8.000 Cr+PCr                                              
   14.852  12%  13.734 Glu+Gln                                             
   6 lines in following misc. output table
  FWHM = 0.033 ppm    S/N =   3                                            
  Data shift =-0.033 ppm                                                   
  Ph: 176 deg       0.0 deg/ppm                                            
  alphaB,S = 1.2E-01,   1.9E+01                                            
   19 spline knots.   Ns = 6(1)                                            
  ( 6) 4 infls.   ( 6) 4 extrs.                                            
  480 points on ppm-axis = NY
      4.100000     4.091866     4.083733     4.075600     4.067466     4.059333     4.051199     4.043066     4.034933     4.026799
      4.018666     4.010532     4.002399     3.994265     3.986132     3.977998     3.969864     3.961731     3.953597     3.945463
      3.937330     3.929196     3.921062     3.912929     3.904795     3.896662     3.888528     3.880394     3.872261     3.864127
      3.855993     3.847860     3.839726     3.831592     3.823459     3.815325     3.807191     3.799058     3.790924     3.782790
      3.774657     3.766523     3.758389     3.750256     3.742122     3.733989     3.725855     3.717721     3.709588     3.701454
      3.693320     3.685187     3.677053     3.668919     3.660786     3.652652     3.644518     3.636385     3.628251     3.620117
      3.611984     3.603850     3.595716     3.587583     3.579449     3.571316     3.563182     3.555048     3.546915     3.538781
      3.530647     3.522514     3.514380     3.506246     3.498113     3.489979     3.481845     3.473712     3.465578     3.457444
      3.449311     3.441177     3.433043     3.424910     3.416776     3.408643     3.400509     3.392375     3.384242     3.376108
      3.367974     3.359841     3.351707     3.343573     3.335440     3.327306     3.319172     3.311039     3.302905     3.294771
      3.286638     3.278504     3.270370     3.262237     3.254103     3.245970     3.237836     3.229702     3.221569     3.213435
      3.205301     3.197168     3.189034     3.180900     3.172767     3.164633     3.156499     3.148366     3.140232     3.132098
      3.123965     3.115831     3.107697     3.099564     3.091430     3.083297     3.075163     3.067029     3.058896     3.050762
      3.042628     3.034495     3.026361     3.018227     3.010094     3.001960     2.993826     2.985693     2.977559     2.969425
      2.961292     2.953158     2.945024     2.936891     2.928757     2.920624     2.912490     2.904356     2.896223     2.888089
      2.879955     2.871822     2.863688     2.855554     2.847421     2.839287     2.831153     2.823020     2.814886     2.806752
      2.798619     2.790485     2.782351     2.774218     2.766084     2.757951     2.749817     2.741683     2.733550     2.725416
      2.717282     2.709149     2.701015     2.692881     2.684748     2.676614     2.668480     2.660347     2.652213     2.644079
      2.635946     2.627812     2.619678     2.611545     2.603411     2.595278     2.587144     2.579010     2.570877     2.562743
      2.554609     2.546476     2.538342     2.530208     2.522075     2.513941     2.505807     2.497674     2.489540     2.481406
      2.473273     2.465139     2.457006     2.448872     2.440738     2.432605     2.424471     2.416337     2.408204     2.400070
      2.391936     2.383803     2.375669     2.367535     2.359402     2.351268     2.343134     2.335001     2.326867     2.318733
      2.310600     2.302466     2.294333     2.286199     2.278065     2.269932     2.261798     2.253664     2.245531     2.237397
      2.229263     2.221130     2.212996     2.204862     2.196729     2.188595     2.180461     2.172328     2.164194     2.156060
      2.147927     2.139793     2.131660     2.123526     2.115392     2.107259     2.099125     2.090991     2.082858     2.074724
      2.066590     2.058457     2.050323     2.042189     2.034056     2.025922     2.017788     2.009655     2.001521     1.993387
      1.985254     1.977120     1.968987     1.960853     1.952719     1.944586     1.936452     1.928318     1.920185     1.912051
      1.903917     1.895784     1.887650     1.879516     1.871383     1.863249     1.855115     1.846982     1.838848     1.830714
      1.822581     1.814447     1.806314     1.798180     1.790046     1.781913     1.773779     1.765645     1.757512     1.749378
      1.741244     1.733111     1.724977     1.716843     1.708710     1.700576     1.692442     1.684309     1.676175     1.668041
      1.659908     1.651774     1.643641     1.635507     1.627373     1.619240     1.611106     1.602972     1.594839     1.586705
      1.578571     1.570438     1.562304     1.554170     1.546037     1.537903     1.529769     1.521636     1.513502     1.505368
      1.497235     1.489101     1.480968     1.472834     1.464700     1.456567     1.448433     1.440299     1.432166     1.424032
      1.415898     1.407765     1.399631     1.391497     1.383364     1.375230     1.367096     1.358963     1.350829     1.342695
      1.334562     1.326428     1.318295     1.310161     1.302027     1.293894     1.285760     1.277626     1.269493     1.261359
      1.253225     1.245092     1.236958     1.228824     1.220691     1.212557     1.204423     1.196290     1.188156     1.180022
      1.171889     1.163755     1.155622     1.147488     1.139354     1.131221     1.123087     1.114953     1.106820     1.098686
      1.090552     1.082419     1.074285     1.066151     1.058018     1.049884     1.041750     1.033617     1.025483     1.017349
      1.009216     1.001082     0.992949     0.984815     0.976681     0.968548     0.960414     0.952280     0.944147     0.936013
      0.927879     0.919746     0.911612     0.903478     0.895345     0.887211     0.879077     0.870944     0.862810     0.854676
      0.846543     0.838409     0.830276     0.822142     0.814008     0.805875     0.797741     0.789607     0.781474     0.773340
      0.765206     0.757073     0.748939     0.740805     0.732672     0.724538     0.716404     0.708271     0.700137     0.692003
      0.683870     0.675736     0.667603     0.659469     0.651335     0.643202     0.635068     0.626934     0.618801     0.610667
      0.602533     0.594400     0.586266     0.578132     0.569999     0.561865     0.553731     0.545598     0.537464     0.529330
      0.521197     0.513063     0.504930     0.496796     0.488662     0.480529     0.472395     0.464261     0.456128     0.447994
      0.439861     0.431727     0.423593     0.415460     0.407326     0.399192     0.391059     0.382925     0.374792     0.366658
      0.358524     0.350391     0.342257     0.334124     0.325990     0.317856     0.309723     0.301589     0.293455     0.285322
      0.277188     0.269055     0.260921     0.252787     0.244654     0.236520     0.228386     0.220253     0.212119     0.203986
 NY phased data points follow
  -1.28516E+02 -1.04540E+02 -1.09961E+02 -9.45031E+01 -9.48143E+01 -1.31399E+02 -9.52492E+01 -8.40964E+01 -1.11551E+02 -1.20618E+02
  -1.09146E+02 -9.62177E+01 -1.18495E+02 -1.43435E+02 -1.35614E+02 -1.11027E+02 -1.27985E+02 -1.36550E+02 -1.44654E+02 -1.56984E+02
  -1.63429E+02 -1.65449E+02 -1.38459E+02 -1.44245E+02 -1.23075E+02 -1.44324E+02 -1.31230E+02 -8.46651E+01 -1.28028E+02 -8.10231E+01
  -6.90201E+01 -7.38287E+01 -5.36048E+01 -9.52729E+01 -9.02554E+01 -9.31114E+01 -7.01046E+01 -4.79846E+01 -8.42659E+01 -1.13258E+02
  -1.17887E+02 -1.16063E+02 -1.56278E+02 -1.45276E+02 -1.28728E+02 -1.53810E+02 -1.27037E+02 -1.07300E+02 -8.53692E+01 -6.13706E+01
  -6.49916E+01 -7.22848E+01 -4.73923E+01 -2.22754E+01 -5.26907E+01 -6.12741E+01 -4.53127E+01 -5.53640E+01 -8.16307E+01 -8.28141E+01
  -8.49296E+01 -8.78973E+01 -5.47930E+01 -3.90973E+01 -7.25532E+01 -6.06614E+01 -2.04873E+01 -5.43860E+01 -3.64288E+01 -5.53067E+01
  -7.05476E+01 -2.96768E+01 -6.10105E+01 -3.83449E+01 -5.19916E+01 -6.72693E+01 -5.88817E+01 -5.66373E+01 -3.93209E+01 -4.07125E+01
  -3.31511E+00 -3.45869E+01 -6.60178E+01 -6.15764E+01 -7.62894E+01 -8.06664E+01 -6.44161E+01 -5.23002E+01 -6.27779E+01 -5.25265E+01
  -3.46664E+01 -1.59351E+01 -2.15284E+01 -1.75928E+01 -3.17545E+01 -1.39667E+01  3.88629E+00  7.16370E+00  3.49011E+01 -1.70410E+01
   1.38183E+01  7.47038E+00 -2.69226E+01  1.59353E+01 -1.93933E+01 -3.35760E+01 -3.88576E+01 -5.02640E+01 -5.45524E+01 -7.51109E+01
  -1.29052E+02 -1.59154E+02 -1.43733E+02 -1.35375E+02 -1.08688E+02 -1.22914E+02 -1.25852E+02 -1.16407E+02 -1.07459E+02 -6.91831E+01
  -7.74736E+01 -7.89162E+01 -5.11601E+01 -5.02273E+01 -3.94584E+01 -2.26653E+01 -1.79433E+01 -6.94305E+00  2.95068E+00  1.88775E+01
   2.50446E+01  7.65812E+01  7.94487E+01 -1.47457E+01 -6.82538E+01 -1.01417E+02 -9.17237E+01 -8.71565E+01 -9.96117E+01 -1.54962E+02
  -1.90801E+02 -1.32696E+02 -1.33093E+02 -1.05102E+02 -1.21177E+02 -1.55043E+02 -1.21346E+02 -1.43075E+02 -1.25585E+02 -1.10964E+02
  -1.00319E+02 -9.54785E+01 -1.27617E+02 -1.11816E+02 -9.04899E+01 -8.36303E+01 -9.23517E+01 -9.72694E+01 -7.64002E+01 -7.36965E+01
  -9.02523E+01 -7.93946E+01 -6.04259E+01 -7.72609E+01 -9.46446E+01 -8.32433E+01 -7.90966E+01 -8.76433E+01 -8.51731E+01 -8.11998E+01
  -7.76413E+01 -7.84062E+01 -6.09254E+01 -4.33820E+01 -4.76178E+01 -6.18157E+01 -7.90534E+01 -3.85183E+01 -1.45580E-01 -1.38791E+01
  -4.04891E+01 -6.72637E+01 -5.39308E+01 -5.95411E+01 -9.36692E+01 -9.10529E+01 -9.27560E+01 -1.09649E+02 -1.24651E+02 -1.18696E+02
  -1.04981E+02 -1.08100E+02 -9.15529E+01 -9.18366E+01 -1.03863E+02 -7.05705E+01 -6.93372E+01 -9.11495E+01 -5.95022E+01 -6.35142E+01
  -6.30276E+01 -4.03440E+01 -8.28639E+01 -8.72551E+01 -7.29089E+01 -8.23863E+01 -8.58538E+01 -8.96695E+01 -1.10565E+02 -1.32286E+02
  -1.30596E+02 -1.39356E+02 -1.23166E+02 -1.21590E+02 -9.90034E+01 -7.74262E+01 -6.20097E+01 -3.24926E+01 -6.47438E+01 -4.62467E+01
  -5.06510E+01 -6.37987E+01 -3.56603E+01 -3.68525E+01 -4.82429E+01 -6.54865E+01 -7.48097E+01 -7.55389E+01 -4.55035E+01 -4.70738E+01
  -3.70141E+01 -5.34627E+01 -6.83848E+01 -4.92862E+01 -7.49865E+01 -8.59685E+01 -1.12672E+02 -1.11780E+02 -1.37944E+02 -1.33728E+02
  -1.20573E+02 -1.32754E+02 -1.20275E+02 -1.48495E+02 -1.17530E+02 -1.32586E+02 -1.32120E+02 -1.24098E+02 -1.16320E+02 -8.95265E+01
  -1.46131E+02 -1.38282E+02 -1.48812E+02 -1.66044E+02 -1.75128E+02 -1.81427E+02 -2.13596E+02 -2.33451E+02 -1.19833E+02 -1.46037E+01
   7.33483E+01  3.83232E+01  3.40917E+00  5.28429E+01  6.45003E+01  9.36700E+01  7.19641E+01  4.84695E+01  1.66631E+01  3.79261E+00
   2.55697E+01  1.88110E+01  8.89474E+00 -1.73048E+01 -3.51360E+00  1.33959E+01  1.39666E+01  8.48547E+00  5.24168E+00  1.63226E+01
   1.01815E+01  7.75067E+00  5.66904E+00  2.74077E+01  2.82187E+00 -1.77851E+01  3.51247E+01  9.46156E+00 -3.03182E+01 -7.61966E+00
  -7.71137E+00 -2.70435E+01 -3.09679E+01 -2.01983E+01 -2.12008E+01 -5.94717E+01 -4.66623E+01 -3.53997E+01 -7.74655E+01 -5.39132E+01
  -5.17072E+01 -4.51767E+01 -2.85935E+01 -6.14999E+01 -8.57223E+01 -9.66798E+01 -7.44776E+01 -7.77891E+01 -5.90112E+01 -5.12294E+01
  -7.48204E+01 -6.54669E+01 -7.95394E+01 -7.47110E+01 -7.71312E+01 -8.26959E+01 -7.03878E+01 -6.54087E+01 -5.55663E+01 -6.41117E+01
  -6.66368E+01 -3.95006E+01 -5.25033E+01 -7.37898E+01 -3.54454E+01 -2.49631E+01 -2.94290E+01 -3.21929E+01 -1.71493E+01 -1.66882E+00
  -2.83905E+01 -4.52180E+01 -7.12763E+01 -6.44919E+01 -7.48654E+01 -1.05141E+02 -1.01910E+02 -1.09625E+02 -8.69502E+01 -6.88408E+01
  -4.48553E+01 -2.13108E+01 -2.76930E+01 -2.77041E+01 -3.48945E+01 -1.00044E+01  9.24834E+00  3.65763E+00  1.01385E+01  2.01842E+01
   3.96311E+01  2.57872E+01  1.18599E+01  3.43885E+01  4.12392E+01  1.29888E+01  7.71252E+00  2.50664E+01 -4.33563E-01 -1.92303E+01
  -1.22412E+01 -1.36378E+00  6.75036E+00  8.05710E+00 -1.47609E+01 -3.08224E+01 -2.53763E+00  4.74169E+00  9.92581E+00  7.47958E+00
   1.53987E+01  3.90837E+01 -2.15828E+00 -5.91171E-01  4.74458E+01  3.34390E+01  2.66793E+01  9.55793E+00  1.21429E+01  5.06634E+01
   4.44177E+01  7.30855E+01  5.62617E+01  4.93758E+01  1.03407E+02  1.13868E+02  1.24016E+02  1.09498E+02  1.16474E+02  1.27697E+02
   1.47318E+02  1.28939E+02  9.71634E+01  1.22218E+02  1.09873E+02  1.11494E+02  1.06225E+02  9.47476E+01  8.60935E+01  6.69761E+01
   2.38750E+01  1.66143E+01  3.83954E+01  1.10278E+01  4.06541E+00  2.80040E+00  9.59354E+00 -5.96657E-01  1.16114E+01 -1.48296E+01
  -3.06092E+01 -1.02276E+01 -4.19123E+01 -4.89115E+00 -3.30754E+00 -2.48054E+01 -2.95757E+01 -2.37658E+01 -3.60288E+01 -2.26183E+01
   3.23080E+00 -2.42992E+01  1.21852E+01 -1.28157E+01 -1.59845E+00 -5.26548E+00 -5.79430E+01 -2.27285E+01 -2.82050E+01 -5.71586E+01
  -5.42864E+01 -1.84487E+01 -2.91849E+01 -1.89784E+01 -1.85975E+01 -3.50946E+01 -1.84784E+01 -4.23711E+01 -2.57565E+01 -1.18725E+01
  -1.50390E+01 -5.31470E+00 -6.93504E+00 -3.38647E+01 -4.40869E+01 -8.09907E+00 -5.10636E+00 -2.63538E+01 -9.95743E+00 -1.24119E+01
  -2.00876E+01 -7.59080E+00 -3.09679E+01 -1.32247E+01 -1.44486E+01 -2.37621E+01 -2.12256E+01 -2.42700E+01 -5.12077E+00 -1.91039E+01
  -1.93472E+01 -4.41454E+01 -2.44372E+01 -1.95895E+01 -3.46799E+01 -1.28463E+01 -6.00593E+01 -4.55696E+01 -1.97831E+01 -1.87675E+01
  -2.17420E+01 -2.80436E+01 -2.96750E+00 -5.12622E+01 -5.90656E+01 -1.26872E+01 -3.40498E+01 -3.09273E+01 -1.95790E+01 -3.36368E+00
 NY points of the fit to the data follow
  -1.09871E+02 -1.11665E+02 -1.15049E+02 -1.19029E+02 -1.22397E+02 -1.23380E+02 -1.21715E+02 -1.19214E+02 -1.19312E+02 -1.22709E+02
  -1.26072E+02 -1.26479E+02 -1.24840E+02 -1.23461E+02 -1.22292E+02 -1.22467E+02 -1.24858E+02 -1.28690E+02 -1.36191E+02 -1.48328E+02
  -1.60835E+02 -1.66575E+02 -1.62784E+02 -1.51592E+02 -1.36249E+02 -1.18519E+02 -1.00782E+02 -8.77868E+01 -8.20063E+01 -7.47196E+01
  -6.50141E+01 -6.31923E+01 -6.39357E+01 -6.47436E+01 -6.47702E+01 -6.45834E+01 -6.45885E+01 -6.60407E+01 -7.14585E+01 -8.37441E+01
  -1.01758E+02 -1.19772E+02 -1.31957E+02 -1.36324E+02 -1.34442E+02 -1.27563E+02 -1.15840E+02 -1.01004E+02 -8.76016E+01 -7.62158E+01
  -6.66445E+01 -5.86514E+01 -5.47356E+01 -5.40449E+01 -5.63232E+01 -6.17317E+01 -6.69342E+01 -6.99226E+01 -7.11727E+01 -7.24310E+01
  -7.31901E+01 -7.19298E+01 -6.86074E+01 -6.36138E+01 -5.80409E+01 -5.13571E+01 -4.48599E+01 -4.37625E+01 -4.73650E+01 -5.29333E+01
  -5.91028E+01 -6.15737E+01 -6.00750E+01 -5.78152E+01 -5.59852E+01 -5.15367E+01 -4.33781E+01 -3.50264E+01 -2.99574E+01 -2.58296E+01
  -2.46323E+01 -2.96743E+01 -4.02953E+01 -5.32656E+01 -6.42757E+01 -7.06467E+01 -7.13261E+01 -6.75678E+01 -6.19979E+01 -5.65925E+01
  -4.96246E+01 -4.37004E+01 -3.64649E+01 -3.05948E+01 -2.62171E+01 -2.28162E+01 -1.98818E+01 -1.62056E+01 -1.21489E+01 -6.91731E+00
  -1.72500E+00  1.90680E+00  1.15907E-02 -7.50922E+00 -1.72997E+01 -2.73330E+01 -3.44964E+01 -4.01265E+01 -5.14202E+01 -7.59349E+01
  -1.11077E+02 -1.39063E+02 -1.41639E+02 -1.30388E+02 -1.22977E+02 -1.24873E+02 -1.20009E+02 -1.06173E+02 -9.55028E+01 -8.71617E+01
  -8.00167E+01 -7.32724E+01 -6.60847E+01 -5.81770E+01 -4.99765E+01 -4.28101E+01 -3.35555E+01 -1.86831E+01  8.39597E-01  2.51623E+01
   5.19847E+01  6.76809E+01  5.12255E+01  5.02147E-01 -5.52423E+01 -8.45518E+01 -8.97546E+01 -9.92925E+01 -1.22694E+02 -1.35830E+02
  -1.33406E+02 -1.30557E+02 -1.28455E+02 -1.27068E+02 -1.25855E+02 -1.23842E+02 -1.21461E+02 -1.18816E+02 -1.15965E+02 -1.13130E+02
  -1.10659E+02 -1.08481E+02 -1.06203E+02 -1.03649E+02 -1.00813E+02 -9.79229E+01 -9.54531E+01 -9.37585E+01 -9.27360E+01 -9.16745E+01
  -8.97381E+01 -8.70635E+01 -8.52825E+01 -8.53777E+01 -8.63237E+01 -8.65078E+01 -8.64146E+01 -8.72888E+01 -8.89912E+01 -8.86248E+01
  -8.27873E+01 -7.19670E+01 -6.08360E+01 -5.52944E+01 -5.64532E+01 -5.76782E+01 -5.12050E+01 -3.91083E+01 -3.35970E+01 -4.17683E+01
  -5.60143E+01 -6.66053E+01 -7.21188E+01 -7.69205E+01 -8.47237E+01 -9.18768E+01 -9.49940E+01 -9.69198E+01 -9.86948E+01 -1.00238E+02
  -1.00814E+02 -1.00919E+02 -1.00879E+02 -9.89246E+01 -9.29544E+01 -8.47382E+01 -7.86824E+01 -7.51481E+01 -6.97297E+01 -6.13990E+01
  -5.71545E+01 -5.98576E+01 -6.24012E+01 -6.17088E+01 -6.38611E+01 -7.11689E+01 -8.01604E+01 -8.77281E+01 -9.43523E+01 -1.04651E+02
  -1.16719E+02 -1.26528E+02 -1.31824E+02 -1.28461E+02 -1.14489E+02 -9.17608E+01 -6.65964E+01 -4.54385E+01 -3.12147E+01 -2.50341E+01
  -2.43193E+01 -2.44885E+01 -2.76120E+01 -2.76140E+01 -2.69274E+01 -3.10553E+01 -3.48634E+01 -3.99497E+01 -4.69366E+01 -5.55924E+01
  -6.68002E+01 -7.90730E+01 -9.19380E+01 -1.04526E+02 -1.15237E+02 -1.23301E+02 -1.28317E+02 -1.30345E+02 -1.30467E+02 -1.29971E+02
  -1.30181E+02 -1.30169E+02 -1.29553E+02 -1.27748E+02 -1.24197E+02 -1.21652E+02 -1.20042E+02 -1.19396E+02 -1.22442E+02 -1.27111E+02
  -1.29476E+02 -1.35074E+02 -1.46844E+02 -1.60137E+02 -1.74748E+02 -1.97649E+02 -2.21248E+02 -2.07960E+02 -1.36474E+02 -4.49872E+01
   6.01554E+00  6.89743E+00  1.04532E+01  3.95639E+01  5.73569E+01  4.95642E+01  3.95932E+01  3.01876E+01  2.18561E+01  1.46973E+01
   8.88874E+00  4.50986E+00  1.48578E+00 -2.81700E-01 -1.12847E+00 -1.27620E+00 -1.10028E+00 -9.94791E-01 -7.38058E-01 -1.23876E+00
  -2.30075E+00 -3.69394E+00 -5.49916E+00 -7.35042E+00 -9.51834E+00 -1.19052E+01 -1.43657E+01 -1.69102E+01 -1.97396E+01 -2.31554E+01
  -2.70753E+01 -3.13384E+01 -3.58903E+01 -4.03362E+01 -4.42028E+01 -4.69494E+01 -4.83819E+01 -4.88307E+01 -4.85483E+01 -4.75129E+01
  -4.58035E+01 -4.35411E+01 -4.09980E+01 -3.84666E+01 -3.60892E+01 -3.37352E+01 -3.12487E+01 -2.86074E+01 -2.57784E+01 -2.29587E+01
  -2.03634E+01 -1.79226E+01 -1.53985E+01 -1.28069E+01 -1.04945E+01 -8.60765E+00 -7.19117E+00 -6.31235E+00 -5.93259E+00 -6.12607E+00
  -6.73894E+00 -7.62653E+00 -8.91682E+00 -1.07341E+01 -1.30034E+01 -1.62712E+01 -2.12676E+01 -2.80194E+01 -3.57738E+01 -4.39103E+01
  -5.17706E+01 -5.89160E+01 -6.46205E+01 -6.79760E+01 -6.86883E+01 -6.72688E+01 -6.46006E+01 -6.14789E+01 -5.83489E+01 -5.51668E+01
  -5.15532E+01 -4.73497E+01 -4.26073E+01 -3.75075E+01 -3.25421E+01 -2.79886E+01 -2.39842E+01 -2.05073E+01 -1.74897E+01 -1.51374E+01
  -1.39940E+01 -1.43511E+01 -1.59838E+01 -1.85597E+01 -2.16480E+01 -2.45413E+01 -2.65997E+01 -2.76948E+01 -2.78632E+01 -2.69689E+01
  -2.49236E+01 -2.19087E+01 -1.83281E+01 -1.43122E+01 -1.01496E+01 -6.00863E+00 -1.91871E+00  2.04527E+00  5.96102E+00  9.79039E+00
   1.35083E+01  1.71393E+01  2.06953E+01  2.44043E+01  2.84697E+01  3.28924E+01  3.76751E+01  4.29096E+01  4.86892E+01  5.51979E+01
   6.24535E+01  7.04981E+01  7.95860E+01  8.95445E+01  9.92284E+01  1.07415E+02  1.13145E+02  1.15305E+02  1.13428E+02  1.08297E+02
   1.01511E+02  9.41924E+01  8.69289E+01  7.98478E+01  7.28735E+01  6.58011E+01  5.81779E+01  4.98190E+01  4.10358E+01  3.23810E+01
   2.41007E+01  1.65545E+01  1.00361E+01  4.62048E+00  1.30283E-01 -3.26447E+00 -5.68750E+00 -7.67323E+00 -9.39657E+00 -1.08620E+01
  -1.19525E+01 -1.27011E+01 -1.32054E+01 -1.36257E+01 -1.40046E+01 -1.42522E+01 -1.43980E+01 -1.46251E+01 -1.48977E+01 -1.49882E+01
  -1.48202E+01 -1.47833E+01 -1.50362E+01 -1.52937E+01 -1.52896E+01 -1.53129E+01 -1.55776E+01 -1.57320E+01 -1.56330E+01 -1.54866E+01
  -1.55601E+01 -1.58813E+01 -1.62229E+01 -1.64589E+01 -1.66281E+01 -1.67924E+01 -1.68755E+01 -1.69343E+01 -1.69566E+01 -1.69628E+01
  -1.70031E+01 -1.71021E+01 -1.73055E+01 -1.76321E+01 -1.80967E+01 -1.84359E+01 -1.86143E+01 -1.87314E+01 -1.89565E+01 -1.92620E+01
  -1.95660E+01 -1.98527E+01 -2.00676E+01 -2.01874E+01 -2.02489E+01 -2.03891E+01 -2.05913E+01 -2.07052E+01 -2.08025E+01 -2.09600E+01
  -2.11816E+01 -2.15221E+01 -2.19977E+01 -2.24271E+01 -2.27605E+01 -2.29387E+01 -2.29850E+01 -2.29499E+01 -2.29562E+01 -2.31238E+01
  -2.35524E+01 -2.40367E+01 -2.43830E+01 -2.46683E+01 -2.49836E+01 -2.53874E+01 -2.58121E+01 -2.62652E+01 -2.67478E+01 -2.72863E+01
 NY background values follow
    -9.382E+01   -9.362E+01   -9.342E+01   -9.322E+01   -9.302E+01   -9.282E+01   -9.263E+01   -9.243E+01   -9.223E+01   -9.203E+01
    -9.182E+01   -9.162E+01   -9.141E+01   -9.121E+01   -9.100E+01   -9.078E+01   -9.056E+01   -9.034E+01   -9.012E+01   -8.989E+01
    -8.965E+01   -8.941E+01   -8.917E+01   -8.892E+01   -8.866E+01   -8.839E+01   -8.812E+01   -8.784E+01   -8.756E+01   -8.726E+01
    -8.696E+01   -8.665E+01   -8.633E+01   -8.600E+01   -8.567E+01   -8.533E+01   -8.497E+01   -8.462E+01   -8.425E+01   -8.388E+01
    -8.350E+01   -8.312E+01   -8.272E+01   -8.233E+01   -8.192E+01   -8.151E+01   -8.110E+01   -8.068E+01   -8.026E+01   -7.983E+01
    -7.940E+01   -7.896E+01   -7.852E+01   -7.807E+01   -7.762E+01   -7.717E+01   -7.671E+01   -7.625E+01   -7.579E+01   -7.533E+01
    -7.486E+01   -7.439E+01   -7.392E+01   -7.345E+01   -7.298E+01   -7.251E+01   -7.203E+01   -7.156E+01   -7.108E+01   -7.061E+01
    -7.013E+01   -6.966E+01   -6.919E+01   -6.872E+01   -6.825E+01   -6.778E+01   -6.732E+01   -6.685E+01   -6.639E+01   -6.594E+01
    -6.548E+01   -6.503E+01   -6.459E+01   -6.414E+01   -6.371E+01   -6.327E+01   -6.285E+01   -6.242E+01   -6.201E+01   -6.160E+01
    -6.119E+01   -6.079E+01   -6.040E+01   -6.001E+01   -5.964E+01   -5.926E+01   -5.890E+01   -5.854E+01   -5.818E+01   -5.784E+01
    -5.750E+01   -5.716E+01   -5.683E+01   -5.651E+01   -5.620E+01   -5.589E+01   -5.559E+01   -5.529E+01   -5.500E+01   -5.472E+01
    -5.444E+01   -5.417E+01   -5.391E+01   -5.365E+01   -5.340E+01   -5.316E+01   -5.292E+01   -5.269E+01   -5.247E+01   -5.225E+01
    -5.204E+01   -5.183E+01   -5.163E+01   -5.144E+01   -5.125E+01   -5.107E+01   -5.090E+01   -5.073E+01   -5.057E+01   -5.042E+01
    -5.027E+01   -5.013E+01   -4.999E+01   -4.986E+01   -4.974E+01   -4.962E+01   -4.951E+01   -4.941E+01   -4.931E+01   -4.922E+01
    -4.913E+01   -4.905E+01   -4.898E+01   -4.891E+01   -4.885E+01   -4.879E+01   -4.874E+01   -4.870E+01   -4.866E+01   -4.863E+01
    -4.861E+01   -4.859E+01   -4.858E+01   -4.857E+01   -4.857E+01   -4.857E+01   -4.858E+01   -4.860E+01   -4.862E+01   -4.865E+01
    -4.868E+01   -4.872E+01   -4.877E+01   -4.882E+01   -4.888E+01   -4.894E+01   -4.901E+01   -4.908E+01   -4.916E+01   -4.925E+01
    -4.934E+01   -4.944E+01   -4.954E+01   -4.965E+01   -4.977E+01   -4.989E+01   -5.001E+01   -5.014E+01   -5.028E+01   -5.043E+01
    -5.058E+01   -5.073E+01   -5.089E+01   -5.105E+01   -5.122E+01   -5.140E+01   -5.158E+01   -5.176E+01   -5.194E+01   -5.213E+01
    -5.232E+01   -5.252E+01   -5.271E+01   -5.291E+01   -5.311E+01   -5.331E+01   -5.352E+01   -5.372E+01   -5.393E+01   -5.413E+01
    -5.434E+01   -5.454E+01   -5.475E+01   -5.495E+01   -5.516E+01   -5.536E+01   -5.556E+01   -5.576E+01   -5.595E+01   -5.615E+01
    -5.634E+01   -5.653E+01   -5.671E+01   -5.690E+01   -5.708E+01   -5.726E+01   -5.744E+01   -5.761E+01   -5.779E+01   -5.797E+01
    -5.814E+01   -5.832E+01   -5.850E+01   -5.867E+01   -5.885E+01   -5.903E+01   -5.921E+01   -5.939E+01   -5.957E+01   -5.976E+01
    -5.995E+01   -6.014E+01   -6.033E+01   -6.053E+01   -6.073E+01   -6.093E+01   -6.114E+01   -6.135E+01   -6.157E+01   -6.179E+01
    -6.202E+01   -6.225E+01   -6.249E+01   -6.273E+01   -6.298E+01   -6.324E+01   -6.350E+01   -6.376E+01   -6.403E+01   -6.431E+01
    -6.459E+01   -6.488E+01   -6.517E+01   -6.547E+01   -6.577E+01   -6.608E+01   -6.639E+01   -6.671E+01   -6.704E+01   -6.737E+01
    -6.770E+01   -6.804E+01   -6.839E+01   -6.875E+01   -6.910E+01   -6.947E+01   -6.984E+01   -7.021E+01   -7.059E+01   -7.098E+01
    -7.137E+01   -7.177E+01   -7.217E+01   -7.257E+01   -7.298E+01   -7.338E+01   -7.378E+01   -7.418E+01   -7.458E+01   -7.496E+01
    -7.535E+01   -7.572E+01   -7.608E+01   -7.643E+01   -7.677E+01   -7.709E+01   -7.740E+01   -7.770E+01   -7.797E+01   -7.823E+01
    -7.846E+01   -7.867E+01   -7.886E+01   -7.903E+01   -7.917E+01   -7.928E+01   -7.936E+01   -7.941E+01   -7.943E+01   -7.942E+01
    -7.937E+01   -7.929E+01   -7.918E+01   -7.903E+01   -7.884E+01   -7.863E+01   -7.838E+01   -7.809E+01   -7.778E+01   -7.743E+01
    -7.704E+01   -7.663E+01   -7.618E+01   -7.570E+01   -7.519E+01   -7.465E+01   -7.408E+01   -7.347E+01   -7.284E+01   -7.217E+01
    -7.147E+01   -7.074E+01   -6.999E+01   -6.920E+01   -6.838E+01   -6.754E+01   -6.666E+01   -6.575E+01   -6.482E+01   -6.386E+01
    -6.287E+01   -6.185E+01   -6.081E+01   -5.974E+01   -5.865E+01   -5.754E+01   -5.641E+01   -5.526E+01   -5.409E+01   -5.292E+01
    -5.172E+01   -5.052E+01   -4.931E+01   -4.809E+01   -4.686E+01   -4.563E+01   -4.439E+01   -4.316E+01   -4.192E+01   -4.069E+01
    -3.945E+01   -3.823E+01   -3.701E+01   -3.579E+01   -3.459E+01   -3.340E+01   -3.222E+01   -3.105E+01   -2.990E+01   -2.877E+01
    -2.766E+01   -2.656E+01   -2.549E+01   -2.443E+01   -2.340E+01   -2.239E+01   -2.140E+01   -2.043E+01   -1.948E+01   -1.855E+01
    -1.764E+01   -1.676E+01   -1.589E+01   -1.505E+01   -1.423E+01   -1.344E+01   -1.266E+01   -1.191E+01   -1.119E+01   -1.048E+01
    -9.801E+00   -9.145E+00   -8.512E+00   -7.904E+00   -7.320E+00   -6.761E+00   -6.227E+00   -5.718E+00   -5.234E+00   -4.775E+00
    -4.342E+00   -3.934E+00   -3.552E+00   -3.194E+00   -2.860E+00   -2.550E+00   -2.263E+00   -1.999E+00   -1.758E+00   -1.539E+00
    -1.341E+00   -1.165E+00   -1.010E+00   -8.751E-01   -7.603E-01   -6.652E-01   -5.893E-01   -5.322E-01   -4.936E-01   -4.730E-01
    -4.699E-01   -4.841E-01   -5.151E-01   -5.624E-01   -6.257E-01   -7.045E-01   -7.985E-01   -9.073E-01   -1.030E+00   -1.167E+00
    -1.318E+00   -1.481E+00   -1.657E+00   -1.846E+00   -2.046E+00   -2.258E+00   -2.481E+00   -2.715E+00   -2.959E+00   -3.213E+00
    -3.476E+00   -3.748E+00   -4.029E+00   -4.318E+00   -4.615E+00   -4.919E+00   -5.231E+00   -5.549E+00   -5.873E+00   -6.203E+00
    -6.538E+00   -6.878E+00   -7.223E+00   -7.572E+00   -7.925E+00   -8.281E+00   -8.641E+00   -9.002E+00   -9.366E+00   -9.732E+00
    -1.010E+01   -1.047E+01   -1.084E+01   -1.121E+01   -1.158E+01   -1.195E+01   -1.232E+01   -1.270E+01   -1.307E+01   -1.345E+01
    -1.383E+01   -1.420E+01   -1.458E+01   -1.496E+01   -1.534E+01   -1.572E+01   -1.610E+01   -1.648E+01   -1.686E+01   -1.724E+01
    -1.762E+01   -1.800E+01   -1.839E+01   -1.877E+01   -1.915E+01   -1.953E+01   -1.991E+01   -2.029E+01   -2.067E+01   -2.105E+01
 Mac      Conc. = 2.80E-04
  -1.12486E+02 -1.12596E+02 -1.12453E+02 -1.12448E+02 -1.12806E+02 -1.13570E+02 -1.14700E+02 -1.16058E+02 -1.17349E+02 -1.18346E+02
  -1.18924E+02 -1.19365E+02 -1.19997E+02 -1.21075E+02 -1.22740E+02 -1.24631E+02 -1.25620E+02 -1.24699E+02 -1.21924E+02 -1.18647E+02
  -1.15559E+02 -1.12511E+02 -1.09243E+02 -1.06286E+02 -1.04235E+02 -1.02325E+02 -1.00040E+02 -9.77459E+01 -9.55795E+01 -9.34253E+01
  -9.14359E+01 -8.97666E+01 -8.85695E+01 -8.77969E+01 -8.74096E+01 -8.69398E+01 -8.57795E+01 -8.38041E+01 -8.16655E+01 -8.01774E+01
  -7.94067E+01 -7.87156E+01 -7.73924E+01 -7.54519E+01 -7.35462E+01 -7.21857E+01 -7.13591E+01 -7.09130E+01 -7.08144E+01 -7.10223E+01
  -7.15675E+01 -7.22928E+01 -7.29099E+01 -7.34695E+01 -7.39720E+01 -7.42054E+01 -7.37171E+01 -7.26015E+01 -7.11297E+01 -6.94897E+01
  -6.77700E+01 -6.60350E+01 -6.46053E+01 -6.39085E+01 -6.38630E+01 -6.39501E+01 -6.41193E+01 -6.44524E+01 -6.47154E+01 -6.44658E+01
  -6.32699E+01 -6.10368E+01 -5.85922E+01 -5.65477E+01 -5.49748E+01 -5.35476E+01 -5.24684E+01 -5.19898E+01 -5.19197E+01 -5.19893E+01
  -5.21252E+01 -5.23061E+01 -5.22397E+01 -5.17961E+01 -5.09583E+01 -4.99477E+01 -4.89104E+01 -4.78114E+01 -4.66136E+01 -4.54086E+01
  -4.42254E+01 -4.29987E+01 -4.19604E+01 -4.12221E+01 -4.11085E+01 -4.15718E+01 -4.26500E+01 -4.40617E+01 -4.54474E+01 -4.66120E+01
  -4.76485E+01 -4.87965E+01 -5.05668E+01 -5.31991E+01 -5.69052E+01 -6.19562E+01 -6.80952E+01 -7.40538E+01 -7.85371E+01 -8.11891E+01
