 LCModel (Version 6.3-1N) Copyright: S.W. Provencher.          Ref.: Magn. Reson. Med. 30:672-679 (1993).                
 Slice_N1@19_11  28-Feb-2025 11:41:36
 27 lines in following concentration table = NCONC+1
    Conc.  %SD /Cr+PCr  Metabolite                                         
 3.11E-04   4% 3.1E-04 Mac                                                 
    4.112  19%   4.129 Cr                                                  
    3.855  19%   3.871 PCr                                                 
    8.805   9%   8.842 Ins                                                 
   11.233   6%  11.280 NAA                                                 
    6.700  11%   6.728 Tau                                                 
    1.158  32%   1.162 PCho                                                
    0.845  44%   0.848 GPC                                                 
   10.688   9%  10.733 Glu                                                 
    5.110  15%   5.132 Gln                                                 
    0.702  80%   0.705 Ala                                                 
    4.141  24%   4.159 Asc                                                 
    1.958  48%   1.967 Asp                                                 
    1.048  47%   1.052 GABA                                                
    0.666 104%   0.669 Glc                                                 
    1.308  34%   1.313 GSH                                                 
    1.175  49%   1.180 Lac                                                 
    2.523  18%   2.533 NAAG                                                
    0.000 999%   0.000 PE                                                  
    2.002  10%   2.011 GPC+PCho                                            
   13.755   6%  13.813 NAA+NAAG                                            
   15.798   8%  15.865 Glu+Gln                                             
    7.966   8%   8.000 Cr+PCr                                              
   13.755   6%  13.813 NAA+NAAG                                            
    7.966   8%   8.000 Cr+PCr                                              
   15.798   8%  15.865 Glu+Gln                                             
   6 lines in following misc. output table
  FWHM = 0.016 ppm    S/N =   6                                            
  Data shift = 0.024 ppm                                                   
  Ph:-165 deg       0.0 deg/ppm                                            
  alphaB,S = 3.9E-01,   3.7E-01                                            
   19 spline knots.   Ns = 5(1)                                            
   3 inflections.     2 extrema                                            
  480 points on ppm-axis = NY
      4.100000     4.091866     4.083733     4.075600     4.067466     4.059333     4.051199     4.043066     4.034933     4.026799
      4.018666     4.010532     4.002399     3.994265     3.986132     3.977998     3.969864     3.961731     3.953597     3.945463
      3.937330     3.929196     3.921062     3.912929     3.904795     3.896662     3.888528     3.880394     3.872261     3.864127
      3.855993     3.847860     3.839726     3.831592     3.823459     3.815325     3.807191     3.799058     3.790924     3.782790
      3.774657     3.766523     3.758389     3.750256     3.742122     3.733989     3.725855     3.717721     3.709588     3.701454
      3.693320     3.685187     3.677053     3.668919     3.660786     3.652652     3.644518     3.636385     3.628251     3.620117
      3.611984     3.603850     3.595716     3.587583     3.579449     3.571316     3.563182     3.555048     3.546915     3.538781
      3.530647     3.522514     3.514380     3.506246     3.498113     3.489979     3.481845     3.473712     3.465578     3.457444
      3.449311     3.441177     3.433043     3.424910     3.416776     3.408643     3.400509     3.392375     3.384242     3.376108
      3.367974     3.359841     3.351707     3.343573     3.335440     3.327306     3.319172     3.311039     3.302905     3.294771
      3.286638     3.278504     3.270370     3.262237     3.254103     3.245970     3.237836     3.229702     3.221569     3.213435
      3.205301     3.197168     3.189034     3.180900     3.172767     3.164633     3.156499     3.148366     3.140232     3.132098
      3.123965     3.115831     3.107697     3.099564     3.091430     3.083297     3.075163     3.067029     3.058896     3.050762
      3.042628     3.034495     3.026361     3.018227     3.010094     3.001960     2.993826     2.985693     2.977559     2.969425
      2.961292     2.953158     2.945024     2.936891     2.928757     2.920624     2.912490     2.904356     2.896223     2.888089
      2.879955     2.871822     2.863688     2.855554     2.847421     2.839287     2.831153     2.823020     2.814886     2.806752
      2.798619     2.790485     2.782351     2.774218     2.766084     2.757951     2.749817     2.741683     2.733550     2.725416
      2.717282     2.709149     2.701015     2.692881     2.684748     2.676614     2.668480     2.660347     2.652213     2.644079
      2.635946     2.627812     2.619678     2.611545     2.603411     2.595278     2.587144     2.579010     2.570877     2.562743
      2.554609     2.546476     2.538342     2.530208     2.522075     2.513941     2.505807     2.497674     2.489540     2.481406
      2.473273     2.465139     2.457006     2.448872     2.440738     2.432605     2.424471     2.416337     2.408204     2.400070
      2.391936     2.383803     2.375669     2.367535     2.359402     2.351268     2.343134     2.335001     2.326867     2.318733
      2.310600     2.302466     2.294333     2.286199     2.278065     2.269932     2.261798     2.253664     2.245531     2.237397
      2.229263     2.221130     2.212996     2.204862     2.196729     2.188595     2.180461     2.172328     2.164194     2.156060
      2.147927     2.139793     2.131660     2.123526     2.115392     2.107259     2.099125     2.090991     2.082858     2.074724
      2.066590     2.058457     2.050323     2.042189     2.034056     2.025922     2.017788     2.009655     2.001521     1.993387
      1.985254     1.977120     1.968987     1.960853     1.952719     1.944586     1.936452     1.928318     1.920185     1.912051
      1.903917     1.895784     1.887650     1.879516     1.871383     1.863249     1.855115     1.846982     1.838848     1.830714
      1.822581     1.814447     1.806314     1.798180     1.790046     1.781913     1.773779     1.765645     1.757512     1.749378
      1.741244     1.733111     1.724977     1.716843     1.708710     1.700576     1.692442     1.684309     1.676175     1.668041
      1.659908     1.651774     1.643641     1.635507     1.627373     1.619240     1.611106     1.602972     1.594839     1.586705
      1.578571     1.570438     1.562304     1.554170     1.546037     1.537903     1.529769     1.521636     1.513502     1.505368
      1.497235     1.489101     1.480968     1.472834     1.464700     1.456567     1.448433     1.440299     1.432166     1.424032
      1.415898     1.407765     1.399631     1.391497     1.383364     1.375230     1.367096     1.358963     1.350829     1.342695
      1.334562     1.326428     1.318295     1.310161     1.302027     1.293894     1.285760     1.277626     1.269493     1.261359
      1.253225     1.245092     1.236958     1.228824     1.220691     1.212557     1.204423     1.196290     1.188156     1.180022
      1.171889     1.163755     1.155622     1.147488     1.139354     1.131221     1.123087     1.114953     1.106820     1.098686
      1.090552     1.082419     1.074285     1.066151     1.058018     1.049884     1.041750     1.033617     1.025483     1.017349
      1.009216     1.001082     0.992949     0.984815     0.976681     0.968548     0.960414     0.952280     0.944147     0.936013
      0.927879     0.919746     0.911612     0.903478     0.895345     0.887211     0.879077     0.870944     0.862810     0.854676
      0.846543     0.838409     0.830276     0.822142     0.814008     0.805875     0.797741     0.789607     0.781474     0.773340
      0.765206     0.757073     0.748939     0.740805     0.732672     0.724538     0.716404     0.708271     0.700137     0.692003
      0.683870     0.675736     0.667603     0.659469     0.651335     0.643202     0.635068     0.626934     0.618801     0.610667
      0.602533     0.594400     0.586266     0.578132     0.569999     0.561865     0.553731     0.545598     0.537464     0.529330
      0.521197     0.513063     0.504930     0.496796     0.488662     0.480529     0.472395     0.464261     0.456128     0.447994
      0.439861     0.431727     0.423593     0.415460     0.407326     0.399192     0.391059     0.382925     0.374792     0.366658
      0.358524     0.350391     0.342257     0.334124     0.325990     0.317856     0.309723     0.301589     0.293455     0.285322
      0.277188     0.269055     0.260921     0.252787     0.244654     0.236520     0.228386     0.220253     0.212119     0.203986
 NY phased data points follow
   4.95738E+01  3.18861E+01  3.44035E+01  2.31608E+01  3.18485E+01  3.66443E+01  4.87935E+01  3.28564E+01  3.41940E+01  4.32730E+01
   1.32561E+01  2.72455E+01  3.97701E-02 -9.00248E-01  8.16019E+00 -2.02487E+01  8.92236E+00 -6.41135E+00 -3.47028E+01 -5.68128E+01
  -6.82292E+01 -1.70962E+01 -1.26442E+01  1.72807E+01  7.18957E+01  5.21785E+01  4.82337E+01  5.93813E+01  6.16408E+01  5.58955E+01
   5.51315E+01  4.46742E+01  3.28854E+01  4.31074E+01  4.26512E+01  3.31118E+01  1.67809E+01  2.20550E+01 -2.04549E+01 -5.18192E+01
  -4.37274E+01 -6.82635E+01 -3.87127E+01 -1.99848E+01 -1.10082E+01  2.61233E+01  5.30386E+01  6.62523E+01  7.16421E+01  7.37197E+01
   6.46931E+01  6.57542E+01  5.03391E+01  3.55195E+01  1.68800E+01  1.08123E+01  2.71807E+01  1.97313E+00 -2.94275E+01 -1.41991E+01
   1.63931E+01 -1.37022E+00  6.80448E+00  5.44105E+01  5.92319E+01  6.39161E+01  5.79310E+01  2.70671E+01 -1.28838E+01 -4.32089E+01
  -2.72648E+00  7.40631E+00 -1.32293E+01  2.25727E+01  4.55625E+01  5.81114E+01  6.71800E+01  7.60119E+01  7.65915E+01  7.63927E+01
   7.51391E+01  4.59919E+01  3.29448E+01  1.34959E+01 -4.38282E+00 -1.80589E+00  1.40254E+01  4.56011E+01  6.49083E+01  7.61725E+01
   9.29767E+01  8.18878E+01  8.50448E+01  9.95297E+01  8.33047E+01  1.02612E+02  1.02452E+02  9.60566E+01  8.68874E+01  8.41476E+01
   9.93540E+01  5.99486E+01  5.17023E+01  4.25174E+01  2.89694E+01  1.41881E+01 -5.47039E+00 -3.09012E+00 -3.64701E+01 -9.79457E+01
  -1.61012E+02 -1.40645E+02 -8.46421E+01 -6.63082E+01 -4.61494E+01 -2.06210E+01 -8.39020E+00  8.45834E+00  2.68340E+01  1.97421E+01
   1.14766E+01  1.42775E+01  4.51651E+01  4.37249E+01  4.17754E+01  6.57988E+01  6.90015E+01  9.52369E+01  1.23409E+02  1.67169E+02
   2.14930E+02  1.31290E+02 -4.05421E+01 -9.65349E+01 -8.42080E+01 -8.95406E+01 -7.98055E+01 -6.62880E+01 -5.86250E+01 -5.11744E+01
  -4.37039E+01 -5.97938E+01 -5.68500E+01 -5.00825E+01 -4.44860E+01 -3.81384E+01 -3.89990E+01 -3.86592E+01 -4.75683E+01 -2.87836E+01
  -2.73247E+01 -3.27852E+01 -2.14163E+01 -9.91065E+00 -1.06602E+01 -3.73949E+00 -5.22532E+00 -2.41684E+01 -7.83606E+00 -1.55017E+01
  -3.24516E+00  1.08736E+01 -5.30857E+00 -1.07434E+01 -1.47665E+01 -2.91758E+00 -4.09886E+00  2.50144E+00  1.78702E+01  1.41120E+01
   1.63700E+01  5.13899E+01  5.48049E+01  3.64818E+01  2.30715E+01  2.61132E+01  6.35971E+01  4.37018E+01  2.07617E+01 -1.35482E+00
  -8.50486E+00 -9.40827E+00 -3.44600E+01 -1.42477E+01 -1.76683E+01 -1.38513E+01 -1.94407E+01 -3.39644E+01 -1.22668E+01 -1.47706E+01
  -8.11472E+00 -4.97804E+00 -4.91054E+00  2.16567E+01  2.19598E+01  5.01090E+00  1.21870E+01  2.10947E+01  2.93261E+01  1.26707E+01
   1.11326E+01  3.97215E+01  3.63758E+01  3.51139E+01  2.92167E+01  3.13333E+01  1.03249E+01 -1.60075E+01 -5.60723E+00 -1.92996E+01
  -2.25891E+01 -2.70007E+01 -2.21119E+00  2.56263E+01  3.50792E+01  8.48711E+01  9.24776E+01  9.37211E+01  8.84484E+01  4.22871E+01
   1.98899E+01  4.96295E+00  1.06912E+01  1.88419E+01  1.06481E+01  2.48219E+01  1.74627E+01  1.85463E+01  3.91364E+01  2.03747E+01
   1.84365E+01  6.06730E+00 -9.07282E+00 -9.87928E+00 -3.50450E+01 -3.41444E+01 -3.71657E+01 -4.63500E+01 -4.87814E+01 -4.83901E+01
  -4.28707E+01 -4.36958E+01 -2.52745E+01 -6.94435E+00  1.02417E+00  5.18731E+00  8.09672E+00  1.80274E+01  9.27359E+00 -1.46339E+01
  -1.51805E+01 -2.45548E+01 -1.91088E+01 -2.57639E+01 -5.93689E+01 -1.13821E+02 -1.10846E+02  1.47768E+02  2.76015E+02  2.07450E+02
   2.18098E+02  1.87039E+02  1.81824E+02  1.51708E+02  1.24150E+02  1.25032E+02  1.10122E+02  1.15836E+02  9.84150E+01  1.12119E+02
   1.08164E+02  9.97015E+01  1.07303E+02  1.00487E+02  9.21615E+01  9.85817E+01  1.10159E+02  9.98232E+01  9.94972E+01  1.07257E+02
   1.11578E+02  9.45325E+01  1.03216E+02  9.67619E+01  8.79935E+01  1.09486E+02  8.88954E+01  9.84714E+01  1.07450E+02  8.40001E+01
   8.90859E+01  9.89696E+01  7.85576E+01  7.22418E+01  8.40420E+01  7.71105E+01  7.11079E+01  5.92110E+01  7.35105E+01  9.64962E+01
   9.38928E+01  9.03591E+01  9.93670E+01  1.20388E+02  1.16315E+02  1.09604E+02  1.19991E+02  1.33585E+02  1.45909E+02  1.38292E+02
   1.46982E+02  1.33302E+02  1.18511E+02  1.40204E+02  1.10622E+02  9.54152E+01  8.90772E+01  9.02202E+01  1.07735E+02  9.17789E+01
   1.03290E+02  1.00496E+02  8.35521E+01  8.48853E+01  8.08471E+01  6.14347E+01  7.17047E+01  8.57411E+01  6.32913E+01  6.19373E+01
   5.90592E+01  5.69967E+01  4.01961E+01  1.33153E+01  1.11446E+01  2.97220E+01  2.46361E+01  2.00238E+01  4.43944E+01  3.69514E+01
   3.19819E+01  3.55848E+01  4.71654E+01  4.30221E+01  4.49666E+01  5.63511E+01  6.88632E+01  8.69149E+01  7.11061E+01  7.08122E+01
   6.47650E+01  7.17475E+01  6.50757E+01  5.23956E+01  4.79170E+01  2.21451E+01  1.45857E+01  1.45398E+01  2.80567E+01  6.98204E+00
   1.60460E-01  1.60332E+01  2.57953E+01  1.94899E+01  1.91410E+01  4.33683E+01  3.04640E+01  3.46715E+01  3.91404E+01  5.96816E+01
   6.78730E+01  5.25968E+01  5.64388E+01  6.58653E+01  7.63469E+01  6.46910E+01  8.61556E+01  9.86571E+01  8.82667E+01  8.80862E+01
   1.14143E+02  1.19347E+02  1.11121E+02  1.30424E+02  1.25778E+02  1.58440E+02  1.72495E+02  1.61891E+02  1.68826E+02  1.70592E+02
   1.66803E+02  1.36866E+02  1.13105E+02  8.71622E+01  8.49565E+01  8.91613E+01  6.25014E+01  6.52000E+01  6.97504E+01  4.17964E+01
   3.47961E+01  2.73126E+01  1.92309E+01  1.00467E+00 -1.96233E+01 -1.91989E+00 -5.58140E+00 -4.91692E+00 -1.11092E+01 -1.69733E+01
  -1.16975E+01 -1.78500E+01 -1.33426E+01 -1.15267E+01  3.93658E+00 -6.07276E+00 -1.67478E+01 -8.98361E+00  5.95715E+00  4.83837E+00
  -1.42173E+01 -7.96251E+00 -1.79537E+01 -1.35679E+01 -6.82191E+00 -6.99941E+00 -3.96772E+00 -1.39454E+00  7.94028E+00 -1.42144E+01
  -1.68666E+01  7.22872E+00  8.51135E+00 -3.09475E+00  4.40752E+00  6.45477E+00 -2.15026E+00  1.25975E+00 -3.86341E+00 -1.40389E+00
  -1.16199E+01 -9.88055E+00  1.23275E+01 -1.73750E+01 -1.83056E+01  2.95071E+00 -1.24100E+01  9.62479E+00  5.33381E+00 -1.38111E+01
   8.80519E+00  4.85170E+00 -7.39861E+00 -3.20667E+00  1.80203E+00 -9.31117E+00  1.63687E+00  1.17595E+01 -1.20216E+00  1.11872E+01
   1.82853E+00  2.96541E+00  1.21468E+01 -5.82788E+00 -1.97897E-01  7.37964E+00  9.28403E+00  4.34026E+00  1.55745E+00  1.64117E+01
   1.22347E+01  3.49333E+00  6.14134E+00 -1.08237E+01 -1.22149E+01  1.49538E+01  1.65543E+01  1.13527E+01  5.05484E+00 -5.18413E+00
 NY points of the fit to the data follow
   7.94854E+00 -3.29053E+00 -1.75104E+01 -2.62353E+01 -9.81899E+00  2.80770E+01  4.63325E+01  3.51399E+01  2.21987E+01  1.19742E+01
   2.32626E+00 -1.95245E+00  1.98065E+00  7.55692E+00  7.06297E+00  2.74909E+00 -5.11182E+00 -2.07119E+01 -3.84328E+01 -5.66504E+01
  -6.30305E+01 -2.66102E+01 -7.32313E+00  2.12684E+01  6.79262E+01  6.88721E+01  6.11982E+01  6.66802E+01  6.41330E+01  6.08597E+01
   5.96880E+01  5.75829E+01  5.60768E+01  5.30381E+01  4.75592E+01  4.20522E+01  3.70517E+01  2.73895E+01  4.87093E+00 -2.89461E+01
  -5.62644E+01 -5.23503E+01 -2.81999E+01 -9.52957E+00  9.94330E+00  4.03401E+01  5.86356E+01  6.37801E+01  7.18250E+01  7.44477E+01
   6.87223E+01  6.25950E+01  5.52385E+01  4.19817E+01  2.81378E+01  1.63350E+01  1.09882E+01  2.46960E+00 -2.02875E+01 -1.06365E+01
   2.01096E+01  1.21745E+01  2.27951E+01  6.33956E+01  7.41378E+01  7.46989E+01  7.33385E+01  4.40201E+01 -5.60694E+00 -3.12185E+01
  -9.61308E+00  2.31688E-01 -3.79724E+00  2.81229E+01  6.04985E+01  6.74051E+01  7.16291E+01  7.77953E+01  7.93321E+01  7.79464E+01
   7.21336E+01  5.50082E+01  3.46315E+01  8.94677E+00 -5.42025E+00  2.08833E+00  1.24420E+01  3.46587E+01  5.42244E+01  6.15728E+01
   6.91003E+01  7.46555E+01  7.74538E+01  8.12315E+01  8.57195E+01  9.13565E+01  9.48673E+01  9.41264E+01  8.79576E+01  8.27715E+01
   9.00154E+01  8.38087E+01  6.13512E+01  4.89926E+01  3.06514E+01 -1.04895E+00  7.63670E+00  2.05280E+01 -1.73599E+01 -9.66759E+01
  -1.50167E+02 -1.18381E+02 -7.93905E+01 -6.33794E+01 -3.66481E+01 -1.58203E+01 -8.38032E+00 -2.55427E+00  3.69870E+00  9.76947E+00
   1.57366E+01  2.26817E+01  3.00567E+01  3.89032E+01  4.93904E+01  6.25177E+01  7.85652E+01  9.18503E+01  1.22337E+02  1.65584E+02
   1.89961E+02  1.35717E+02 -3.75581E+01 -1.03659E+02 -6.89755E+01 -7.96498E+01 -7.84788E+01 -5.05423E+01 -4.28062E+01 -4.44787E+01
  -4.50844E+01 -4.53580E+01 -4.58152E+01 -4.55508E+01 -4.57567E+01 -4.55067E+01 -4.18998E+01 -3.82695E+01 -3.46397E+01 -3.08811E+01
  -2.74840E+01 -2.48253E+01 -2.33122E+01 -2.11778E+01 -1.72983E+01 -1.37206E+01 -1.29113E+01 -1.36105E+01 -1.27643E+01 -9.42631E+00
  -5.67985E+00 -4.20472E+00 -7.33842E+00 -1.04203E+01 -8.70201E+00 -4.65423E+00 -9.88396E-01 -2.46227E+00 -7.46946E+00 -4.57240E+00
   1.32715E+01  3.77352E+01  4.34477E+01  2.42750E+01  9.82486E+00  2.34382E+01  4.33250E+01  4.12593E+01  2.17020E+01  1.13112E+00
  -6.37497E+00 -1.16282E+01 -1.85696E+01 -1.96707E+01 -1.85388E+01 -1.86024E+01 -1.75415E+01 -1.67140E+01 -1.49448E+01 -1.14402E+01
  -9.34435E+00 -5.99735E+00 -3.79448E+00  6.93373E+00  2.58434E+01  1.50778E+01  9.14636E+00  2.68381E+01  2.52556E+01  1.98398E+01
   1.65241E+01  2.30494E+01  3.92472E+01  3.68874E+01  2.96797E+01  2.70001E+01  2.07902E+01  9.66816E+00 -6.98263E+00 -1.88121E+01
  -2.23245E+01 -2.50107E+01 -1.16865E+01  9.11491E+00  3.58469E+01  8.66536E+01  9.25865E+01  8.96572E+01  8.98981E+01  5.84934E+01
   4.01467E+01  4.03949E+01  3.79460E+01  4.36219E+01  5.01963E+01  5.06335E+01  4.92795E+01  4.10406E+01  2.87229E+01  1.61652E+01
   1.57803E+00 -1.31251E+01 -2.56065E+01 -3.49077E+01 -4.65270E+01 -5.28139E+01 -5.18994E+01 -5.58297E+01 -5.42910E+01 -4.63287E+01
  -4.49357E+01 -3.60755E+01 -1.77294E+01 -7.20983E+00  8.50824E+00  1.58374E+01  1.18103E+01  7.27193E+00 -3.43449E+00 -8.11954E+00
  -2.57573E+01 -4.38714E+01 -3.84184E+01 -3.41278E+01 -5.37188E+01 -1.24248E+02 -1.07639E+02  1.38287E+02  2.53437E+02  2.03021E+02
   2.10536E+02  2.05932E+02  1.61681E+02  1.40874E+02  1.35652E+02  1.31430E+02  1.25992E+02  1.20379E+02  1.16200E+02  1.12052E+02
   1.11292E+02  1.11163E+02  1.12916E+02  1.15696E+02  1.16799E+02  1.18747E+02  1.17994E+02  1.17243E+02  1.16994E+02  1.15385E+02
   1.12970E+02  1.10241E+02  1.07607E+02  1.05762E+02  1.03590E+02  1.00566E+02  9.81594E+01  9.61355E+01  9.29559E+01  8.96184E+01
   8.55072E+01  8.07272E+01  7.65395E+01  7.14889E+01  6.73706E+01  6.55746E+01  6.58341E+01  6.80039E+01  7.14554E+01  7.46222E+01
   7.75170E+01  8.10930E+01  8.47151E+01  8.75047E+01  8.99879E+01  9.21919E+01  9.40568E+01  9.61029E+01  9.91866E+01  1.02660E+02
   1.04910E+02  1.06747E+02  1.08325E+02  1.10017E+02  1.11741E+02  1.12270E+02  1.12339E+02  1.12553E+02  1.11335E+02  1.09155E+02
   1.06529E+02  1.01929E+02  9.20300E+01  8.23007E+01  7.67191E+01  6.83805E+01  6.47520E+01  5.95044E+01  4.80836E+01  3.82886E+01
   2.98032E+01  2.12400E+01  1.54311E+01  1.39404E+01  1.59800E+01  2.18675E+01  2.93932E+01  3.71609E+01  4.43789E+01  4.86451E+01
   4.81311E+01  4.04878E+01  3.68080E+01  3.63373E+01  3.54451E+01  4.41250E+01  5.08353E+01  5.18020E+01  5.42796E+01  5.53223E+01
   5.36615E+01  5.07022E+01  4.68943E+01  4.12708E+01  3.40716E+01  2.85033E+01  2.60641E+01  2.47174E+01  2.53633E+01  2.82425E+01
   3.14319E+01  3.54653E+01  3.99470E+01  4.42078E+01  4.88761E+01  5.21561E+01  5.52007E+01  5.82548E+01  6.08487E+01  6.43261E+01
   6.75755E+01  7.02909E+01  7.33332E+01  7.66315E+01  8.06279E+01  8.53757E+01  9.07209E+01  9.55456E+01  1.02304E+02  1.10340E+02
   1.17271E+02  1.24419E+02  1.33502E+02  1.43119E+02  1.51481E+02  1.58652E+02  1.62712E+02  1.60903E+02  1.52833E+02  1.38387E+02
   1.22430E+02  1.08292E+02  9.69846E+01  8.79253E+01  8.13093E+01  7.61520E+01  6.87664E+01  5.85133E+01  4.77691E+01  3.70865E+01
   2.62175E+01  1.82500E+01  1.31619E+01  9.37624E+00  6.12674E+00  4.82887E+00  4.25795E+00  3.49427E+00  2.39819E+00  1.17273E+00
   7.61736E-02 -4.87766E-01 -3.73690E-01 -3.07567E-01 -7.90480E-01 -8.79111E-01 -2.22168E-01 -3.35663E-01 -1.40070E+00 -1.64258E+00
  -4.29395E-01 -1.27243E-01 -1.21024E+00 -1.14431E+00 -5.20691E-01 -6.77548E-01 -1.36866E+00 -1.59946E+00 -1.09263E+00 -3.38088E-01
  -1.19131E-01 -2.43156E-01 -5.69555E-01 -1.05491E+00 -1.24205E+00 -1.40037E+00 -7.32064E-01 -4.39174E-01 -2.07769E-01  6.83898E-02
  -3.97995E-02  7.28536E-03  2.71413E-01  1.42961E-01 -5.80791E-01 -7.01648E-01 -8.00003E-01 -6.00019E-01 -7.58760E-02 -1.51641E-01
   8.66435E-02 -3.64648E-02 -6.34853E-01 -2.14724E-01  2.50303E-01  3.44467E-01  5.63536E-01  7.66926E-01  5.83009E-01  8.53754E-01
   1.04327E+00  1.15882E+00  6.42220E-01  2.83960E-01  4.10743E-01  1.71744E-01  1.52653E-01  9.78623E-01  1.93342E+00  2.59211E+00
   2.21986E+00  1.58240E+00  9.19130E-01  8.62843E-01  1.12578E+00  1.20435E+00  1.43485E+00  1.97116E+00  1.95128E+00  1.26965E+00
 NY background values follow
     4.090E+01    4.070E+01    4.050E+01    4.031E+01    4.011E+01    3.991E+01    3.972E+01    3.952E+01    3.932E+01    3.913E+01
     3.893E+01    3.874E+01    3.854E+01    3.835E+01    3.815E+01    3.796E+01    3.777E+01    3.758E+01    3.739E+01    3.720E+01
     3.701E+01    3.683E+01    3.664E+01    3.646E+01    3.628E+01    3.610E+01    3.592E+01    3.574E+01    3.556E+01    3.539E+01
     3.522E+01    3.505E+01    3.488E+01    3.471E+01    3.455E+01    3.439E+01    3.423E+01    3.407E+01    3.391E+01    3.376E+01
     3.361E+01    3.346E+01    3.331E+01    3.317E+01    3.303E+01    3.289E+01    3.275E+01    3.261E+01    3.248E+01    3.235E+01
     3.222E+01    3.210E+01    3.197E+01    3.185E+01    3.174E+01    3.162E+01    3.151E+01    3.140E+01    3.129E+01    3.119E+01
     3.109E+01    3.099E+01    3.089E+01    3.080E+01    3.071E+01    3.062E+01    3.054E+01    3.046E+01    3.038E+01    3.030E+01
     3.023E+01    3.015E+01    3.009E+01    3.002E+01    2.995E+01    2.989E+01    2.983E+01    2.978E+01    2.972E+01    2.967E+01
     2.962E+01    2.958E+01    2.953E+01    2.949E+01    2.945E+01    2.941E+01    2.938E+01    2.934E+01    2.931E+01    2.928E+01
     2.926E+01    2.923E+01    2.921E+01    2.919E+01    2.917E+01    2.916E+01    2.914E+01    2.913E+01    2.912E+01    2.911E+01
     2.911E+01    2.910E+01    2.910E+01    2.910E+01    2.910E+01    2.911E+01    2.911E+01    2.912E+01    2.913E+01    2.914E+01
     2.916E+01    2.917E+01    2.919E+01    2.921E+01    2.923E+01    2.926E+01    2.928E+01    2.931E+01    2.934E+01    2.937E+01
     2.940E+01    2.943E+01    2.947E+01    2.951E+01    2.955E+01    2.959E+01    2.963E+01    2.967E+01    2.972E+01    2.976E+01
     2.981E+01    2.986E+01    2.991E+01    2.996E+01    3.002E+01    3.007E+01    3.013E+01    3.019E+01    3.024E+01    3.030E+01
     3.037E+01    3.043E+01    3.049E+01    3.056E+01    3.062E+01    3.069E+01    3.075E+01    3.082E+01    3.089E+01    3.096E+01
     3.103E+01    3.110E+01    3.118E+01    3.125E+01    3.132E+01    3.140E+01    3.147E+01    3.155E+01    3.162E+01    3.170E+01
     3.178E+01    3.186E+01    3.193E+01    3.201E+01    3.209E+01    3.217E+01    3.225E+01    3.233E+01    3.241E+01    3.249E+01
     3.258E+01    3.266E+01    3.274E+01    3.282E+01    3.290E+01    3.299E+01    3.307E+01    3.315E+01    3.323E+01    3.332E+01
     3.340E+01    3.348E+01    3.356E+01    3.365E+01    3.373E+01    3.381E+01    3.389E+01    3.398E+01    3.406E+01    3.414E+01
     3.422E+01    3.430E+01    3.439E+01    3.447E+01    3.455E+01    3.463E+01    3.472E+01    3.480E+01    3.488E+01    3.496E+01
     3.505E+01    3.513E+01    3.521E+01    3.529E+01    3.537E+01    3.546E+01    3.554E+01    3.562E+01    3.570E+01    3.579E+01
     3.587E+01    3.595E+01    3.603E+01    3.611E+01    3.620E+01    3.628E+01    3.636E+01    3.644E+01    3.652E+01    3.660E+01
     3.668E+01    3.676E+01    3.684E+01    3.692E+01    3.700E+01    3.708E+01    3.715E+01    3.723E+01    3.731E+01    3.738E+01
     3.746E+01    3.753E+01    3.760E+01    3.768E+01    3.775E+01    3.782E+01    3.789E+01    3.795E+01    3.802E+01    3.809E+01
     3.815E+01    3.821E+01    3.828E+01    3.834E+01    3.840E+01    3.846E+01    3.851E+01    3.857E+01    3.862E+01    3.868E+01
     3.873E+01    3.878E+01    3.883E+01    3.887E+01    3.892E+01    3.896E+01    3.901E+01    3.905E+01    3.909E+01    3.913E+01
     3.916E+01    3.920E+01    3.923E+01    3.926E+01    3.929E+01    3.932E+01    3.935E+01    3.937E+01    3.939E+01    3.941E+01
     3.943E+01    3.945E+01    3.947E+01    3.948E+01    3.949E+01    3.950E+01    3.951E+01    3.951E+01    3.951E+01    3.952E+01
     3.951E+01    3.951E+01    3.950E+01    3.949E+01    3.948E+01    3.947E+01    3.945E+01    3.943E+01    3.941E+01    3.938E+01
     3.935E+01    3.932E+01    3.929E+01    3.925E+01    3.921E+01    3.916E+01    3.912E+01    3.907E+01    3.901E+01    3.896E+01
     3.890E+01    3.883E+01    3.876E+01    3.869E+01    3.862E+01    3.854E+01    3.846E+01    3.838E+01    3.829E+01    3.820E+01
     3.810E+01    3.801E+01    3.790E+01    3.780E+01    3.769E+01    3.758E+01    3.747E+01    3.735E+01    3.723E+01    3.710E+01
     3.698E+01    3.684E+01    3.671E+01    3.657E+01    3.643E+01    3.629E+01    3.614E+01    3.599E+01    3.584E+01    3.568E+01
     3.552E+01    3.536E+01    3.519E+01    3.503E+01    3.485E+01    3.468E+01    3.450E+01    3.432E+01    3.414E+01    3.396E+01
     3.377E+01    3.358E+01    3.339E+01    3.319E+01    3.300E+01    3.280E+01    3.260E+01    3.240E+01    3.219E+01    3.199E+01
     3.178E+01    3.157E+01    3.136E+01    3.115E+01    3.093E+01    3.072E+01    3.050E+01    3.029E+01    3.007E+01    2.985E+01
     2.963E+01    2.941E+01    2.919E+01    2.896E+01    2.874E+01    2.852E+01    2.829E+01    2.807E+01    2.784E+01    2.761E+01
     2.739E+01    2.716E+01    2.693E+01    2.670E+01    2.647E+01    2.624E+01    2.601E+01    2.578E+01    2.555E+01    2.532E+01
     2.509E+01    2.486E+01    2.462E+01    2.439E+01    2.416E+01    2.393E+01    2.369E+01    2.346E+01    2.323E+01    2.300E+01
     2.276E+01    2.253E+01    2.230E+01    2.206E+01    2.183E+01    2.160E+01    2.137E+01    2.113E+01    2.090E+01    2.067E+01
     2.044E+01    2.021E+01    1.998E+01    1.974E+01    1.951E+01    1.928E+01    1.905E+01    1.883E+01    1.860E+01    1.837E+01
     1.814E+01    1.791E+01    1.768E+01    1.746E+01    1.723E+01    1.701E+01    1.678E+01    1.656E+01    1.633E+01    1.611E+01
     1.589E+01    1.567E+01    1.545E+01    1.523E+01    1.501E+01    1.479E+01    1.457E+01    1.435E+01    1.413E+01    1.392E+01
     1.370E+01    1.348E+01    1.327E+01    1.306E+01    1.284E+01    1.263E+01    1.242E+01    1.220E+01    1.199E+01    1.178E+01
     1.157E+01    1.136E+01    1.115E+01    1.094E+01    1.073E+01    1.052E+01    1.031E+01    1.010E+01    9.897E+00    9.689E+00
     9.482E+00    9.276E+00    9.070E+00    8.864E+00    8.658E+00    8.453E+00    8.248E+00    8.043E+00    7.838E+00    7.634E+00
     7.430E+00    7.226E+00    7.022E+00    6.819E+00    6.615E+00    6.412E+00    6.209E+00    6.005E+00    5.802E+00    5.600E+00
     5.397E+00    5.194E+00    4.991E+00    4.788E+00    4.586E+00    4.383E+00    4.180E+00    3.977E+00    3.774E+00    3.571E+00
 Mac      Conc. = 3.11E-04
   1.80321E+01  1.76354E+01  1.74041E+01  1.70268E+01  1.64873E+01  1.55557E+01  1.36956E+01  1.08794E+01  8.12950E+00  6.02956E+00
   4.93881E+00  5.02738E+00  5.21629E+00  5.59100E+00  4.57114E+00  8.31701E-01 -2.95753E+00 -2.83391E+00  3.25955E+00  1.06277E+01
   1.40079E+01  1.86059E+01  2.41231E+01  2.52456E+01  2.48984E+01  2.55093E+01  2.67593E+01  2.79340E+01  3.00481E+01  3.27423E+01
   3.42636E+01  3.49755E+01  3.60517E+01  3.66853E+01  3.54320E+01  3.37015E+01  3.31906E+01  3.53337E+01  3.95013E+01  4.25482E+01
   4.25961E+01  4.08708E+01  4.04960E+01  4.14438E+01  4.29332E+01  4.48546E+01  4.51757E+01  4.46576E+01  4.34904E+01  4.14767E+01
   3.90264E+01  3.72629E+01  3.64934E+01  3.52582E+01  3.45023E+01  3.43465E+01  3.43434E+01  3.57846E+01  3.79433E+01  3.90364E+01
   4.01195E+01  4.26320E+01  4.39628E+01  4.27937E+01  4.15835E+01  3.98868E+01  3.85328E+01  3.82103E+01  3.73695E+01  3.61400E+01
   3.67459E+01  4.02405E+01  4.45096E+01  4.67083E+01  4.79863E+01  4.90943E+01  4.79957E+01  4.66897E+01  4.51016E+01  4.36126E+01
   4.32211E+01  4.24752E+01  4.17772E+01  4.23100E+01  4.36617E+01  4.46719E+01  4.55215E+01  4.64581E+01  4.75485E+01  4.78111E+01
   4.80902E+01  4.87507E+01  4.88172E+01  4.88227E+01  4.87077E+01  4.70491E+01  4.39440E+01  4.07212E+01  3.72304E+01  3.44116E+01
   3.28081E+01  3.12590E+01  2.83543E+01  2.52967E+01  2.17086E+01  1.52869E+01  6.48213E+00 -3.12072E+00 -9.07708E+00 -1.02392E+01
