 
 $NMID
 ID=''
 FMTDAT='(2E13.5)'
 TRAMP=   1.00000E+0
 VOLUME=   1.00000E+0
 $END
  -5.80873E+3   5.04495E+4
   3.11404E+4  -1.16179E+3
   7.13042E+3  -1.77902E+4
  -1.07605E+4  -8.13503E+3
  -1.02565E+4  -1.17012E+3
  -3.75364E+3   7.35454E+3
   4.35208E+3   1.03103E+4
   5.96110E+3   1.60503E+2
   1.11276E+1  -6.13807E+3
  -4.58996E+3  -3.69419E+3
  -5.18898E+3  -6.87991E+2
  -2.10822E+3   2.74829E+3
   2.71132E+3   3.04797E+3
   3.66752E+3  -2.27981E+3
   1.36751E+3  -3.65484E+3
  -6.73250E+2   6.05564E+2
  -2.33507E+3   1.81683E+3
  -6.68068E+2   1.16791E+3
   2.25285E+3   9.54604E+2
   9.32864E+2  -8.92222E+2
  -1.03647E+3  -1.51223E+3
  -1.03311E+3   4.27061E+2
  -1.04740E+3   1.17843E+3
  -5.60596E+2   2.50423E+2
   1.83028E+3  -9.47334E+1
   7.39350E+2   5.14037E+2
  -2.04884E+3   1.32101E+2
  -7.33212E+2  -1.41266E+3
   1.85221E+3  -9.96437E+2
   5.58932E+2   7.74038E+2
  -6.69497E+2   2.12697E+2
  -6.86769E+2  -1.15492E+3
   4.77426E+2  -1.38946E+3
   1.47929E+3   2.88604E+2
   1.22023E+3   1.34530E+3
  -6.76973E+2   9.64932E+2
  -8.16832E+2  -4.16432E+2
   6.28610E+2  -1.22629E+3
   5.10944E+2   9.67509E+1
  -2.06884E+2  -8.40650E+1
   1.94195E+2  -1.28246E+3
   1.05430E+3   3.69306E+2
  -3.79346E+2   9.35590E+2
  -7.29558E+2   4.78379E+2
   3.25213E+2  -2.30834E+2
  -7.18921E+1  -2.82919E+2
  -7.92279E+2  -1.17678E+3
   8.46485E+1  -1.76598E+3
   1.28261E+3   1.50977E+2
   3.33400E+2   1.15721E+3
  -3.58703E+2   2.45865E+2
   4.19627E+2  -1.08287E+2
   4.14436E+2  -1.71012E+2
  -5.43490E+2  -8.68786E+1
  -8.64490E+2  -4.05155E+2
  -3.31731E+2  -4.39357E+2
   6.20022E+2   1.18909E+2
   3.52258E+2   7.70598E+2
  -3.16755E+2   5.13432E+2
  -5.04530E+2  -4.30071E+1
  -3.95315E+2  -2.50619E+2
  -4.51202E+2  -1.10629E+2
  -5.10221E+2  -7.76544E+2
   2.72753E+2  -1.06373E+3
   1.20916E+3  -4.01074E+2
   5.90591E+2   6.48791E+2
  -5.91630E+1   7.81635E+2
  -2.36456E+2   8.10293E+2
  -3.57578E+2   5.00278E+2
  -2.05863E+2  -2.03556E+2
   2.56193E+2  -7.32003E+1
   3.81496E+2   6.82763E+2
  -7.93539E+2   5.11314E+2
  -8.14297E+2  -1.42401E+2
   1.16103E+2  -2.69323E+2
   4.52490E+2   4.54133E+2
   3.15817E+2   1.19206E+2
  -1.37678E+2  -3.36385E+2
   4.82091E+1  -4.89148E+2
   5.17582E+2   1.51388E+2
   2.48232E+2   6.34926E+2
  -6.18248E+1   5.57420E+2
   2.89573E+2   2.13054E+2
   4.17149E+2   3.10384E+2
   4.77026E+1   5.44533E+2
  -2.09612E+2   2.91062E+2
  -4.77809E+2  -1.64162E+2
  -7.84299E+0   1.25284E+1
   1.44063E+2   1.79422E+2
  -5.69429E+1   1.42850E+2
  -1.04365E+2   1.48226E+2
   8.47172E+1  -4.20832E+2
   4.68519E+2  -5.11027E+2
   6.77601E+2  -1.99285E+2
   4.80169E+2   3.16127E+2
  -2.04148E+1   7.62938E+2
  -2.06620E+2   1.71609E+2
   2.00821E+2  -3.00203E+2
   6.21009E+2   1.13734E+2
  -3.16416E+2   2.92620E+2
  -7.60003E+2  -5.21533E+2
   3.13378E+2  -7.32360E+2
   6.75880E+2   2.51380E+1
   2.68346E+2   7.28178E+2
  -2.44864E+2   2.89038E+2
   4.70518E+1  -5.44292E+2
   2.03962E+2  -4.67293E+2
   3.14751E+2  -2.65184E+1
   3.07619E+1   2.72512E+2
   7.53544E+0   5.57137E+2
  -1.18121E+2   1.64318E+2
  -1.15353E+2  -1.04019E+2
   9.18363E+1  -2.99281E+2
   1.35098E+2  -8.27357E+1
   4.91102E+1   1.38246E+2
  -1.25511E+2  -7.83528E+1
   7.76498E+2  -1.68736E+2
   4.60966E+2   2.92363E+2
   1.77643E+2   5.05604E+2
  -4.24158E+2   3.90660E+1
  -1.51784E+2  -2.69257E+2
   3.81278E+0  -3.17396E+2
   1.09770E+2  -4.76482E+1
   6.78906E+1  -1.10665E+2
   3.50532E+2   1.19056E+2
   1.94941E+2  -1.90222E+1
   6.88035E+1   2.09952E+2
  -1.11218E+2  -1.57124E+1
  -1.81873E+1  -1.64855E+2
   3.91389E+1  -6.59579E+2
   1.37861E+2  -1.04481E+2
   1.45563E+2   4.45952E+2
   5.20346E+1   3.36457E+2
   1.02977E+1   1.74269E+1
   4.44200E+1  -8.37955E+1
   4.25302E+1   1.62616E+2
  -2.13152E+2  -3.99085E+1
  -3.35595E+2  -1.74223E+2
   3.30800E+1  -4.47552E+2
   2.79640E+2   1.07016E+0
   2.24040E+2   1.46990E+2
   1.50229E+1   6.27996E+1
  -1.28719E+2  -2.78507E+2
   2.66077E+1  -4.82136E+2
   8.67950E+1  -1.66584E+2
   3.20713E+2   5.49150E+1
  -9.79077E+1   3.93824E+2
   1.95145E+0   8.48718E+1
   7.82846E+1  -1.21320E+2
   6.96940E+1   9.97715E+1
  -2.36859E+2   1.78862E+2
  -2.20404E+2  -2.84184E+2
  -2.88713E+2  -1.97125E+2
   2.88635E+2  -5.94400E+1
   2.08156E+2   2.22563E+2
  -2.71314E+2   1.84341E+2
   3.75241E+1  -3.13134E+2
  -2.49976E+1  -1.80558E+2
   8.18765E+1  -1.59525E+1
  -7.64001E+0  -2.22705E+1
   8.17715E+1   7.63244E+1
   1.21952E+2  -3.40164E+0
   1.27718E+2   4.04517E+2
  -8.05750E+1   2.16180E+2
  -8.49230E+1  -3.20192E+2
  -2.11588E+2  -2.67485E+2
   1.43056E+2  -1.93043E+2
   2.97279E+2   8.38340E+0
   3.19162E+1  -2.62934E+1
  -1.50508E+2  -4.01433E+1
   2.42018E+1  -5.10088E+1
   1.78756E+2  -7.12597E+0
   1.41146E+1  -2.89390E+1
  -4.12551E+1   1.92695E+2
  -7.58106E+1  -1.09556E-1
  -1.81571E+2  -1.13274E+2
   4.16964E+2   1.87584E+2
   9.43212E+1   5.13616E+2
  -1.15911E+2   1.21100E+2
  -2.56376E+1  -9.13175E+1
   5.88560E+1  -7.21919E+1
   2.16463E+2  -9.23072E+1
   1.66983E+2   1.40752E+2
  -1.04311E+2   1.66434E+2
  -1.31918E+2   2.17415E+2
   3.06934E+1  -1.75125E+1
   2.35384E+2   2.52229E+2
  -7.39012E+1   5.83765E+1
  -1.26585E+1   3.19336E+1
  -3.83345E+1  -3.78530E+2
   5.17915E+2  -1.71935E+2
   1.79800E+2   1.24834E+2
   1.18646E+2  -1.87072E+2
  -8.40088E+1  -1.24624E+2
   1.04645E+1  -1.75470E+2
  -6.31019E+1   5.02611E+1
  -2.08411E+1   1.46252E+2
   2.73839E+2  -1.07572E+1
   8.16763E+1  -4.51015E+1
   1.91169E+2  -3.91215E+1
   2.46839E+2  -7.35791E+1
  -3.57859E+2   2.37681E+1
  -1.56069E+2  -1.43085E+2
  -3.70351E+1   5.87859E+1
  -5.45069E+1  -5.41401E+1
   2.73854E+2   5.88039E+1
   8.71074E+0  -9.85324E+1
  -1.31038E+2  -2.41571E+2
  -1.29457E+2   3.08707E+1
   1.59621E+2  -4.32968E+1
   1.21690E+2   2.24928E+2
  -2.68483E+2  -2.11022E+2
  -8.08579E+1  -1.89370E+2
   1.54760E+2  -2.07140E+2
  -9.76765E+0  -3.30507E+1
  -1.41795E+2   2.70371E+2
   1.08023E+2  -9.52658E+1
  -8.95904E+1  -8.29092E+1
  -5.78549E+1  -3.23269E+0
  -2.09441E+2   2.55847E+1
  -2.79971E+2  -1.73501E+2
  -2.19280E+1  -1.73278E+2
  -4.89165E+1  -6.96072E+1
   2.46205E+2   5.44172E-1
  -2.68063E+2   1.81437E+2
  -2.23986E+2  -9.62628E+1
   2.06177E+1  -1.68993E+2
   1.69728E+1  -1.40505E+2
   4.74164E+1  -1.86717E+2
  -1.04472E+2  -6.31364E+1
   2.88211E+1  -2.83221E+1
  -1.04723E+2  -2.54727E+2
  -4.57291E+1  -1.43326E+2
   3.34211E+1   4.60018E+1
  -1.59932E+2   7.04455E-1
  -8.37430E+1   7.79570E+1
  -2.17759E+2  -1.54342E+2
   7.31844E+1  -1.06938E+2
  -1.33662E+2   3.07927E+1
  -2.17340E+2   5.05970E+1
   2.99835E+1  -1.91445E+2
  -5.06098E+1  -1.17191E+2
  -2.54868E+0   4.22636E+1
   7.14096E+1   9.07760E+1
  -2.41433E+2  -1.29378E+1
   1.09204E+2  -1.55550E+2
  -5.48871E+0   2.13735E+1
   3.86906E+1   2.82774E+2
  -1.77708E+2  -8.11984E+1
  -2.17360E+1   1.19722E+0
  -1.05115E+2   1.86121E+2
   6.49064E+1   5.88005E+1
  -9.09645E+1   1.99598E+2
  -8.89094E+1  -1.19736E+2
  -1.53589E+2  -6.48823E+1
   1.35395E+1  -1.86566E+2
   6.55639E+0  -2.69299E+0
  -9.50525E+1   1.66178E+2
   8.13672E+1   6.20764E+0
   8.12997E+1  -9.98557E+0
  -1.15587E+2   6.36337E+1
  -1.75739E+2  -1.77080E+2
  -2.19605E+2  -1.58647E+2
  -3.98415E+1  -1.26486E+2
  -5.69130E+1  -8.68273E+1
  -1.90259E+2   4.51311E+1
  -2.22152E+2   5.44642E+1
  -1.38496E+2   1.25397E+2
  -1.38171E+2   3.13023E+1
  -1.65477E+1   9.84839E+1
  -8.31676E+1   8.07139E+1
  -4.93717E+1  -2.47703E+1
   3.33314E+1  -6.31137E+1
   2.39345E+2   1.98627E+2
   8.03891E+0  -3.21065E+2
  -1.82727E+0  -1.71745E+1
  -5.40008E+1   1.43826E+2
  -1.52587E+2  -4.03483E+0
  -9.20871E+1  -4.02828E+1
   6.72494E+1  -1.02001E+2
  -1.04453E+2   8.64038E+1
   1.23956E+2   1.67478E+2
  -7.36135E+1  -3.74922E+1
  -9.36061E+1   3.89126E+2
   9.86097E+1   2.05735E+2
  -2.74916E+2  -1.13045E+2
  -1.58995E+2  -1.69202E+2
  -2.35868E+1  -1.77247E+1
   1.63987E+1   4.04581E+1
  -1.53221E+2   1.36916E+1
  -5.20075E+1  -4.91203E+1
  -7.23378E+1  -8.37671E+1
   1.42095E+2  -4.61580E+1
  -1.40911E+2  -9.11387E+1
   6.16659E+1   1.07030E+2
   1.09403E+1   1.87361E+2
   2.79233E+2   3.99790E+1
  -1.15926E+2   2.09062E+2
  -1.90162E+2   9.30450E+1
  -1.42673E+2  -1.65398E+2
  -1.01528E+2  -8.05885E+1
  -4.23227E+1  -8.87972E+1
   3.09954E+1  -6.45944E+1
  -1.58583E+2   6.68329E+1
   1.09304E+2  -7.18216E+1
  -8.70430E+1  -4.66745E+1
  -5.30594E+1  -8.16958E+1
   1.53606E+1  -2.05585E+2
  -1.72915E+2   2.28418E+1
  -1.73784E+2  -1.41353E+2
  -2.02281E+2  -1.26596E+1
   2.40616E+2  -1.27308E+2
  -4.00815E+1  -3.52314E+1
  -1.61856E+2  -4.00900E+1
  -1.05796E+2  -2.10893E+2
  -2.38479E+2  -6.89611E+1
   2.32435E+1  -4.50015E+1
  -4.78939E+1  -6.77290E+1
  -1.00105E+2  -2.44549E+2
  -1.93441E+2   1.52353E+1
   6.66073E+1  -4.19992E+1
   1.25671E+2   7.46104E+1
   1.54046E+2   4.85180E+0
   3.88786E+1  -1.08184E+2
  -1.50660E+2  -1.02190E+2
  -2.37105E+0  -1.67007E+2
  -1.17961E+2   2.18218E+2
   6.33109E+1  -1.44347E+2
   9.10490E+1  -8.98316E+1
   8.10991E+1   1.51737E+2
  -1.19645E+2  -2.34582E+2
   4.08790E+0  -2.21571E+2
  -2.71580E+2   3.86328E+1
  -1.09209E+2  -1.91512E+2
   5.10163E+1  -5.91214E+1
  -1.17508E+2  -1.19665E+2
  -1.21419E+2   4.85015E+1
  -6.85599E+0  -2.24252E+2
   1.45255E+2   7.35565E-1
   1.55052E+1   1.90162E+2
  -2.00281E+2   1.91245E+2
  -1.00868E+2   1.12025E+2
  -2.98976E+1   5.47192E+1
  -5.91657E+1  -6.79181E+1
   2.08406E+2  -1.45214E+2
  -1.93312E+1  -3.37388E+0
   1.71654E+2   1.52576E+0
   4.90958E+1  -3.38452E+1
  -8.66102E+1  -1.16627E+2
  -6.56787E+1  -4.85098E+1
  -1.10882E+2   8.95688E+0
   1.34955E+2   2.92591E+1
   1.31884E+2  -1.81293E+2
   3.93890E+0  -8.19829E+0
  -1.90829E+2   5.44964E+1
  -6.55630E+0  -6.87313E+0
  -3.72772E+1  -1.69240E+2
  -2.37955E+1  -8.47598E+1
  -2.17373E+2  -1.03119E+2
  -1.26867E+2  -9.37019E+1
   1.22877E+2  -2.17072E+2
   7.72547E+1  -8.14614E+1
  -3.86047E+1  -9.20251E+1
   6.69355E+1  -8.44422E+1
   2.50799E+1  -5.61011E+1
  -1.03221E+2  -2.79384E+2
   8.21727E+1  -1.04055E+2
