 
 $NMID
 ID=''
 FMTDAT='(2E13.5)'
 TRAMP=   1.00000E+0
 VOLUME=   1.00000E+0
 $END
  -8.50422E+3   1.38724E+4
  -8.51265E+2   3.07343E+4
   3.36787E+4   1.27244E+4
   1.92491E+4  -2.18783E+4
  -2.38644E+4  -2.13776E+4
  -2.60776E+4   8.18218E+3
   4.75264E+3   2.26653E+4
   1.96709E+4   7.09859E+3
   8.43472E+3  -1.44825E+4
  -1.09234E+4  -1.32866E+4
  -1.58789E+4   4.85516E+3
  -7.23709E+2   1.19085E+4
   1.03804E+4   1.83121E+3
   4.47858E+3  -7.70332E+3
  -4.16822E+3  -7.72822E+3
  -4.04061E+3  -8.39167E+2
   2.41315E+1   5.99959E+3
   2.94247E+3   4.51297E+3
   2.45377E+3  -1.68055E+3
  -3.96711E+2  -2.74685E+3
  -2.65597E+3  -6.52852E+2
  -1.44520E+3   7.03571E+2
   5.19700E+2   2.61301E+3
   2.68984E+2   5.14157E+2
  -6.64331E+1  -3.32974E+3
   9.67519E+2  -1.66642E+3
  -2.57051E+2   2.03259E+3
  -2.21687E+3   6.85697E+2
   1.57613E+1  -1.03753E+3
   1.74897E+3  -3.99606E+1
   3.14993E+2   1.07323E+3
  -1.36040E+3  -2.18150E+2
  -9.00364E+2  -8.11149E+2
  -4.67784E+2  -7.89450E+2
   5.87326E+2  -7.37949E+2
   2.21983E+3   1.26231E+2
   8.66546E+2   1.39179E+3
  -1.27553E+3   5.73027E+2
  -5.57260E+2  -6.43624E+2
   1.34577E+2   1.47107E+2
  -5.51206E+2   3.66070E+2
   6.49657E+1  -1.10694E+3
   1.38525E+3  -1.15370E+3
   1.15690E+3  -3.64568E+1
   2.52276E+2   6.62661E+2
   2.11519E+2   1.35787E+3
  -3.04920E+2   1.77487E+3
  -1.26723E+3  -6.53821E+2
  -3.79828E+2  -2.38984E+3
   2.95446E+2  -1.03024E+3
   4.98929E+2   3.68634E+2
   8.74241E+2  -2.65408E+2
   1.32974E+3  -6.58901E+2
   2.77865E+2  -5.93924E+1
  -5.85779E+2   7.12748E+2
  -5.77199E+2   1.88399E+2
   6.43060E+1  -3.14394E+2
   1.52190E+2  -1.27767E+3
   1.07279E+3  -1.02942E+3
   8.27200E+2  -1.61231E+2
   4.01435E+2   1.01552E+3
   2.34147E+2   1.28737E+3
  -3.23379E+2   4.78826E+2
  -1.40408E+3  -5.70090E+2
  -1.58353E+3  -8.60958E+2
  -9.06365E+2  -8.49264E+2
   6.29326E+2  -1.19474E+3
   1.79589E+3  -7.97515E+2
   1.00519E+3   3.46509E+2
  -9.78269E+2   6.07145E+2
  -5.81822E+2  -1.52539E+2
   1.09542E+3  -1.54930E+2
   9.15344E+2   7.35488E+2
  -6.07312E+2   5.78480E+2
  -9.36722E+2  -1.43649E+2
  -2.95449E+2  -1.82650E+2
   2.32584E+1   4.29003E+2
  -2.33828E+2   5.98370E+2
  -3.24542E+2  -1.02128E+2
  -7.51120E+2  -1.11724E+2
  -5.43486E+2  -4.09982E+2
   1.29628E+2  -2.66042E+2
   4.62124E+2   3.14501E+2
  -7.55838E+1  -6.53635E+1
  -2.44217E+2  -5.37451E+2
   3.26883E+2  -2.23557E+2
   5.40659E+2   7.81950E+2
   4.52458E+1   6.90351E+2
   8.33244E+1   1.95668E+2
   1.39415E+2   2.35412E+2
   4.09040E+2   7.29524E+2
  -4.03085E+2   9.02578E+2
  -8.50740E+2   5.72902E+2
  -9.70406E+2  -5.35351E+1
  -1.55215E+2  -6.71746E+2
   5.00534E+2  -4.90015E+2
   5.65149E+2   3.61767E+2
  -1.97559E+2   6.24933E+2
  -1.34636E+2  -1.08517E+2
   5.90916E+2   8.53940E+1
   4.90613E+2   9.90979E+2
  -6.26733E+2   1.11629E+3
  -8.86181E+2  -2.33645E+2
   1.08585E+2  -5.13653E+2
   7.00322E+2   1.17489E+2
   3.74475E+2   9.62648E+2
  -3.99345E+2   5.01315E+2
  -8.81936E+2  -2.43195E+2
  -1.23433E+2  -7.30245E+2
   7.52536E+2  -3.35861E+2
   8.81672E+2   6.13386E+2
   3.60162E+2   7.24745E+2
  -3.06685E+2   4.10198E+2
  -2.61529E+2   5.76445E+2
  -1.24632E+2   4.69157E+2
  -1.79678E+2   3.95419E+2
  -6.41545E+2  -1.66922E+2
  -2.79236E+2  -8.92991E+2
   4.84143E+2  -9.03938E+2
   8.72253E+2  -6.65090E+1
   6.60058E+2   7.04128E+2
   3.58586E+2   6.15843E+2
   2.91739E+2   4.59573E+2
  -8.20104E+1   3.38968E+2
  -3.23295E+2   1.54600E+2
  -3.08881E+2  -2.61373E+2
   4.06591E+2  -2.65419E+2
   7.00008E+2  -1.38383E+2
   3.56166E+2   4.34370E+2
   2.11444E+1   4.79609E+2
  -6.87972E+2   3.33889E+2
  -1.34702E+2  -1.08930E+2
   2.77042E+2  -3.65119E+2
   3.17411E+2  -1.13587E+2
   1.72381E+2  -8.07693E+1
   2.78641E+2  -3.81749E+2
   2.01041E+2   2.92100E+1
   2.50385E+2   4.68376E+2
  -5.03599E+1   5.68468E+2
  -4.51943E+2  -8.62472E+1
  -3.78589E+2  -3.53924E+2
   4.06935E+2  -5.38269E+2
   5.51927E+2   1.62303E+2
   4.41263E+2   4.32053E+2
  -1.91399E+2   1.96812E+2
  -3.22756E+2  -3.52001E+1
  -4.41972E+2  -2.82846E+1
  -2.91597E+2  -2.56786E+2
  -4.64316E+1  -4.42010E+2
   6.14707E+1  -3.55543E+2
   2.82646E+2  -2.98420E+2
   5.40741E+2  -5.54090E+1
   4.08376E+2   4.38153E+2
  -8.48408E+1   3.91552E+2
  -3.22848E+2  -1.13931E+1
   2.07967E+2  -2.43956E+2
  -1.32857E+1   3.03003E+2
  -1.52673E+2   2.37572E+2
  -3.40852E+2  -2.67640E+2
  -2.76281E+2  -1.47320E+2
  -1.13672E+2   1.34240E+2
  -1.90976E+2   1.60432E+2
  -1.00865E+2  -2.75601E+2
  -2.00295E+2  -4.16357E+2
   2.20786E+2  -2.23363E+2
   4.79962E+1  -1.11700E+1
  -1.32868E+2   1.78228E+2
  -8.97637E+1   5.56723E+1
   3.94556E+1  -1.16836E+2
  -1.23010E+2  -2.70397E+2
   8.80319E+0   2.79795E+1
  -2.19692E+2   9.46132E+1
  -1.93309E+2  -3.29696E+2
  -3.36355E+1  -2.40335E+2
   5.99348E+1  -1.95378E+2
  -1.26040E+2   1.18904E+1
  -4.62393E+2  -1.24773E+2
  -3.12196E+2  -3.25939E+2
   3.54024E+2  -4.32478E+2
   4.89647E+2   1.74043E+2
   6.44609E+1   6.59031E+1
  -3.73086E+2   1.75419E+2
  -4.75578E+2  -1.27823E+2
  -3.28194E+2  -2.92239E+2
  -9.25462E+1  -5.44899E+2
  -7.04427E+1  -7.07666E+0
   1.50363E+2  -3.09130E+2
   2.37659E+2  -2.82854E+2
   4.26924E+2   1.46506E+2
   4.35121E+1   5.65023E+2
  -4.09254E+2   4.34883E+2
  -4.86974E+2  -1.83723E+2
  -2.62404E+2  -4.20848E+2
   2.94231E+2  -3.03890E+2
  -1.98042E+1   1.07850E+2
   1.47249E+1   4.04653E+1
  -1.96074E+2   5.26047E-1
   8.30428E+1   9.07703E+1
  -2.20086E+2   1.18204E+2
  -2.05083E+2  -4.82118E+1
  -1.07485E+2  -5.20828E+2
  -1.56735E+2  -4.80600E+2
   4.30253E+2   5.25417E+1
   4.28244E+2  -2.37345E+1
  -1.11921E+2  -9.11046E+0
  -3.97374E+1   6.02625E+1
   7.60661E+1  -2.08991E+2
  -1.10191E+2   3.94139E+1
  -1.02618E+2  -8.54124E+1
  -2.24518E+2  -8.56889E+1
   1.26682E+1  -3.75126E+2
   1.26330E+2  -3.52057E+1
  -1.45695E+1   2.45521E+2
  -3.48274E+2   8.47380E+1
  -6.27806E+2  -4.00793E+2
  -2.58404E+2  -7.01077E+2
  -5.79123E+0  -4.44115E+2
   8.79930E+1  -1.03854E+2
   3.15634E+1   1.88373E+0
  -2.65396E+2  -1.94024E+2
   1.81962E+2   1.45859E+2
   1.73702E+2   7.17801E+1
  -2.02865E+2   2.32997E+2
  -2.98002E+2   1.52354E+1
  -1.74895E+2  -4.49017E+2
  -7.98108E+1  -3.14476E+2
   1.49052E+2  -8.87361E+1
   1.46837E+1   2.35951E+2
  -4.69289E+2   1.99691E+1
  -9.68603E+1  -1.68307E+2
   6.24202E+1  -1.69652E+2
   2.43009E+2  -1.73963E+2
  -9.29061E+1   1.21249E+0
  -2.22607E+2  -1.36826E+2
  -2.39349E+1  -1.12278E+2
  -5.30021E+1   2.84605E+1
  -1.15404E+2   3.52079E+1
  -2.94907E+2   3.59220E+1
   1.01107E+2  -1.00691E+2
   1.21060E+2  -2.78686E+2
   1.01839E+2  -8.61978E+1
  -2.33948E+2   1.90175E+2
  -1.51303E+2   1.15472E+1
  -1.71124E+2  -3.03377E+2
  -3.00990E+1  -1.99774E+2
   1.83142E+2   9.17175E+1
  -8.06566E+1  -1.77283E+2
  -9.66963E+1  -8.39535E+1
  -4.96463E+1   1.25383E+2
   8.32267E+1  -1.30725E+2
  -1.37135E+2   1.68898E+2
  -5.37080E+2   1.94153E+1
  -3.05991E+1  -3.25933E+2
   5.64923E-1  -3.99964E+2
   2.58929E+2  -5.30719E+1
   1.13875E+2   1.08653E+2
  -1.52441E+2   1.03349E+2
  -3.51523E+1   3.06057E+1
  -1.70614E+2   8.88993E+1
  -1.53810E+2  -4.21360E+1
  -2.20578E+2   9.32600E+1
  -1.38700E+2  -1.45929E+2
   1.09461E+2  -3.38735E+2
   1.85081E+2  -2.56543E+1
   1.73914E+2   4.98837E+2
  -7.73869E+1   2.11539E+2
  -3.00004E+2   2.93083E+1
  -2.75688E+1  -2.50673E+2
   2.79811E+2  -1.70573E+2
  -1.15801E+1  -5.25404E+1
   1.95972E+2   1.16544E+2
   1.15349E+2  -3.26923E+1
  -5.67246E+1   1.11412E+2
   2.53404E+1   3.21607E+1
  -1.54794E+2   2.70546E+2
  -2.13095E+2  -1.25405E+2
   3.20333E+1  -1.09749E+2
   1.63498E+2   6.30864E+1
   1.58110E+2   1.18963E+2
   5.79016E+1   7.90203E+1
   8.58229E+1  -1.33497E+2
  -4.04084E+1   1.27367E+2
  -1.14903E+2   5.18868E+1
  -7.52643E+1   2.57071E+2
   5.71248E+1  -5.81830E+1
  -1.23050E+2  -3.38466E+2
   4.86719E+1  -1.23032E+2
   3.46741E+2   6.95713E+1
  -1.38474E+2   1.35494E+2
  -1.30290E+2   3.39219E+2
  -1.05507E+1  -8.82245E+1
  -4.28535E+1   6.55416E+1
  -1.47797E+2   5.99459E+1
   2.47122E+2   3.41642E+0
   2.02828E+2  -3.58335E+2
   1.06434E+2  -9.72590E+1
   4.14006E+1  -1.82815E+2
  -2.40471E+2   2.16923E+2
  -9.08221E+1   7.12231E+1
  -1.83232E+2  -4.83482E+1
  -7.72573E+0  -1.45254E+2
   1.89606E+2  -3.77038E+1
  -4.00001E+0   1.28436E+1
  -2.14130E+2  -1.47456E+2
   1.07340E+2  -6.37819E+0
   1.37285E+2  -7.38893E+1
   3.23663E+2   3.88928E+1
   3.09396E+2   9.42226E+1
  -1.04772E+2   1.10038E+2
   1.20941E+2   1.35678E+2
  -1.06541E+2   3.00219E+2
   3.57449E+0   9.95244E+1
  -2.32812E+1   6.89421E+1
  -9.35309E+1  -2.09653E+2
   2.14281E+1  -1.68083E+2
   2.30557E+2   6.18295E+1
   7.05913E+1  -8.18847E+1
   1.91362E+2   1.71492E+2
  -2.37368E+1  -9.53956E+1
   1.80711E+2  -7.17230E+1
  -1.44788E+2   4.15175E+1
  -7.78087E+0   2.26201E+1
  -3.05186E+2  -1.34037E+2
   1.41364E+2  -6.29146E+0
   1.58580E+2   2.62513E+2
  -2.96000E+1   3.94338E+2
   2.06410E+1   2.03983E+2
  -2.62853E+2   1.56486E+2
   1.14525E+2  -9.03425E+1
   2.20583E+1  -3.46014E+1
   2.53841E+2  -3.83297E+1
   1.15786E+1  -3.00899E-1
   2.10175E+2  -1.26921E+1
   7.92049E+1  -3.22725E+1
  -1.45747E+2   2.39330E+2
  -1.82210E+2   2.79606E+2
  -1.29335E+2  -7.73960E+1
   6.16077E+1  -7.93660E+1
   2.03828E+2  -2.46284E+2
  -3.42068E+1   9.53314E+1
   4.51391E+1   2.20957E+2
  -1.26611E+2   6.63080E+1
  -1.26801E+2   1.42864E+2
  -5.39531E+1  -8.05467E+1
  -4.77336E+1   2.60822E+2
   1.66542E+2  -1.91609E+1
   4.77504E+1  -4.05891E+1
   2.18821E+2   1.56738E+2
   6.77392E+1   2.27462E+2
  -4.17442E+0   1.16661E+2
  -2.33973E+2  -5.62280E+1
   2.15997E+2  -6.42689E+1
  -8.83110E+1  -9.46229E+1
  -1.51517E+1  -1.09085E+1
   8.33696E+1   1.54136E+2
  -2.42506E+1  -2.89127E+2
   2.44199E+2   6.52783E+1
  -1.32991E+2  -1.08235E+1
  -7.40822E+1   2.43578E+2
  -9.99670E+1   2.21851E+2
  -1.61812E+2   3.09459E+1
   2.92575E+2  -1.89463E+2
   4.49804E+2   6.40339E+1
  -7.06069E+1   2.39696E+2
  -6.95037E+1   2.81542E+2
   3.83866E+1   2.50042E+2
   8.01882E+1   6.88069E+1
