 LCModel (Version 6.3-1N) Copyright: S.W. Provencher.          Ref.: Magn. Reson. Med. 30:672-679 (1993).                
 Slice_N1@21_12  28-Feb-2025 11:41:58
 27 lines in following concentration table = NCONC+1
    Conc.  %SD /Cr+PCr  Metabolite                                         
 2.67E-04   6% 3.4E-04 Mac                                                 
    6.346  16%   8.000 Cr                                                  
    0.000 999%   0.000 PCr                                                 
    8.804  17%  11.098 Ins                                                 
   11.839  11%  14.924 NAA                                                 
    2.046  76%   2.579 Tau                                                 
    2.839  13%   3.578 PCho                                                
    0.000 999%   0.000 GPC                                                 
   13.591  11%  17.132 Glu                                                 
    7.382  17%   9.306 Gln                                                 
    4.675  26%   5.893 Ala                                                 
   14.547  14%  18.337 Asc                                                 
    1.733  73%   2.185 Asp                                                 
    1.820  38%   2.295 GABA                                                
    1.378  60%   1.737 Glc                                                 
    5.494  15%   6.926 GSH                                                 
    3.332  35%   4.200 Lac                                                 
    1.598  67%   2.014 NAAG                                                
    0.000 999%   0.000 PE                                                  
    2.839  13%   3.578 GPC+PCho                                            
   13.436   8%  16.938 NAA+NAAG                                            
   20.973  10%  26.438 Glu+Gln                                             
    6.346  16%   8.000 Cr+PCr                                              
   13.436   8%  16.938 NAA+NAAG                                            
    6.346  16%   8.000 Cr+PCr                                              
   20.973  10%  26.438 Glu+Gln                                             
   6 lines in following misc. output table
  FWHM = 0.033 ppm    S/N =   3                                            
  Data shift = 0.033 ppm                                                   
  Ph:-144 deg       0.0 deg/ppm                                            
  alphaB,S = 8.8E-02,   1.9E+01                                            
   19 spline knots.   Ns = 8(1)                                            
  (11) 3 infls.   ( 6) 3 extrs.                                            
  480 points on ppm-axis = NY
      4.100000     4.091866     4.083733     4.075600     4.067466     4.059333     4.051199     4.043066     4.034933     4.026799
      4.018666     4.010532     4.002399     3.994265     3.986132     3.977998     3.969864     3.961731     3.953597     3.945463
      3.937330     3.929196     3.921062     3.912929     3.904795     3.896662     3.888528     3.880394     3.872261     3.864127
      3.855993     3.847860     3.839726     3.831592     3.823459     3.815325     3.807191     3.799058     3.790924     3.782790
      3.774657     3.766523     3.758389     3.750256     3.742122     3.733989     3.725855     3.717721     3.709588     3.701454
      3.693320     3.685187     3.677053     3.668919     3.660786     3.652652     3.644518     3.636385     3.628251     3.620117
      3.611984     3.603850     3.595716     3.587583     3.579449     3.571316     3.563182     3.555048     3.546915     3.538781
      3.530647     3.522514     3.514380     3.506246     3.498113     3.489979     3.481845     3.473712     3.465578     3.457444
      3.449311     3.441177     3.433043     3.424910     3.416776     3.408643     3.400509     3.392375     3.384242     3.376108
      3.367974     3.359841     3.351707     3.343573     3.335440     3.327306     3.319172     3.311039     3.302905     3.294771
      3.286638     3.278504     3.270370     3.262237     3.254103     3.245970     3.237836     3.229702     3.221569     3.213435
      3.205301     3.197168     3.189034     3.180900     3.172767     3.164633     3.156499     3.148366     3.140232     3.132098
      3.123965     3.115831     3.107697     3.099564     3.091430     3.083297     3.075163     3.067029     3.058896     3.050762
      3.042628     3.034495     3.026361     3.018227     3.010094     3.001960     2.993826     2.985693     2.977559     2.969425
      2.961292     2.953158     2.945024     2.936891     2.928757     2.920624     2.912490     2.904356     2.896223     2.888089
      2.879955     2.871822     2.863688     2.855554     2.847421     2.839287     2.831153     2.823020     2.814886     2.806752
      2.798619     2.790485     2.782351     2.774218     2.766084     2.757951     2.749817     2.741683     2.733550     2.725416
      2.717282     2.709149     2.701015     2.692881     2.684748     2.676614     2.668480     2.660347     2.652213     2.644079
      2.635946     2.627812     2.619678     2.611545     2.603411     2.595278     2.587144     2.579010     2.570877     2.562743
      2.554609     2.546476     2.538342     2.530208     2.522075     2.513941     2.505807     2.497674     2.489540     2.481406
      2.473273     2.465139     2.457006     2.448872     2.440738     2.432605     2.424471     2.416337     2.408204     2.400070
      2.391936     2.383803     2.375669     2.367535     2.359402     2.351268     2.343134     2.335001     2.326867     2.318733
      2.310600     2.302466     2.294333     2.286199     2.278065     2.269932     2.261798     2.253664     2.245531     2.237397
      2.229263     2.221130     2.212996     2.204862     2.196729     2.188595     2.180461     2.172328     2.164194     2.156060
      2.147927     2.139793     2.131660     2.123526     2.115392     2.107259     2.099125     2.090991     2.082858     2.074724
      2.066590     2.058457     2.050323     2.042189     2.034056     2.025922     2.017788     2.009655     2.001521     1.993387
      1.985254     1.977120     1.968987     1.960853     1.952719     1.944586     1.936452     1.928318     1.920185     1.912051
      1.903917     1.895784     1.887650     1.879516     1.871383     1.863249     1.855115     1.846982     1.838848     1.830714
      1.822581     1.814447     1.806314     1.798180     1.790046     1.781913     1.773779     1.765645     1.757512     1.749378
      1.741244     1.733111     1.724977     1.716843     1.708710     1.700576     1.692442     1.684309     1.676175     1.668041
      1.659908     1.651774     1.643641     1.635507     1.627373     1.619240     1.611106     1.602972     1.594839     1.586705
      1.578571     1.570438     1.562304     1.554170     1.546037     1.537903     1.529769     1.521636     1.513502     1.505368
      1.497235     1.489101     1.480968     1.472834     1.464700     1.456567     1.448433     1.440299     1.432166     1.424032
      1.415898     1.407765     1.399631     1.391497     1.383364     1.375230     1.367096     1.358963     1.350829     1.342695
      1.334562     1.326428     1.318295     1.310161     1.302027     1.293894     1.285760     1.277626     1.269493     1.261359
      1.253225     1.245092     1.236958     1.228824     1.220691     1.212557     1.204423     1.196290     1.188156     1.180022
      1.171889     1.163755     1.155622     1.147488     1.139354     1.131221     1.123087     1.114953     1.106820     1.098686
      1.090552     1.082419     1.074285     1.066151     1.058018     1.049884     1.041750     1.033617     1.025483     1.017349
      1.009216     1.001082     0.992949     0.984815     0.976681     0.968548     0.960414     0.952280     0.944147     0.936013
      0.927879     0.919746     0.911612     0.903478     0.895345     0.887211     0.879077     0.870944     0.862810     0.854676
      0.846543     0.838409     0.830276     0.822142     0.814008     0.805875     0.797741     0.789607     0.781474     0.773340
      0.765206     0.757073     0.748939     0.740805     0.732672     0.724538     0.716404     0.708271     0.700137     0.692003
      0.683870     0.675736     0.667603     0.659469     0.651335     0.643202     0.635068     0.626934     0.618801     0.610667
      0.602533     0.594400     0.586266     0.578132     0.569999     0.561865     0.553731     0.545598     0.537464     0.529330
      0.521197     0.513063     0.504930     0.496796     0.488662     0.480529     0.472395     0.464261     0.456128     0.447994
      0.439861     0.431727     0.423593     0.415460     0.407326     0.399192     0.391059     0.382925     0.374792     0.366658
      0.358524     0.350391     0.342257     0.334124     0.325990     0.317856     0.309723     0.301589     0.293455     0.285322
      0.277188     0.269055     0.260921     0.252787     0.244654     0.236520     0.228386     0.220253     0.212119     0.203986
 NY phased data points follow
   4.01963E+01  3.85845E+01  4.23967E+01  4.25529E+01  3.55917E+01  2.56136E+01  2.58224E+01  3.92821E+01  2.17437E+01  2.35529E+01
   3.57502E+01  1.60052E+01  3.86072E+00  1.19049E+01  7.18276E+00 -2.77934E+00  2.89872E+00  2.19595E-01 -1.37063E+01 -3.04618E+01
  -1.97373E+01 -3.21673E+01 -2.99279E+01 -1.19986E+01 -2.16391E+01 -6.36516E+00 -3.03821E+01 -4.23228E+01 -5.46730E+01 -7.82658E+01
  -6.84044E+01 -9.80904E+01 -1.13590E+02 -1.09362E+02 -1.30756E+02 -1.41546E+02 -1.36965E+02 -1.49422E+02 -1.53260E+02 -1.58735E+02
  -1.61717E+02 -1.51488E+02 -1.69530E+02 -1.49918E+02 -1.20184E+02 -1.09060E+02 -8.17905E+01 -8.02152E+01 -7.15857E+01 -5.88105E+01
  -6.87057E+01 -6.94082E+01 -7.05016E+01 -6.76433E+01 -7.52073E+01 -7.49058E+01 -5.74003E+01 -9.12901E+01 -8.57942E+01 -5.77734E+01
  -8.55613E+01 -7.34714E+01 -5.15315E+01 -4.83747E+01 -5.44024E+01 -5.56991E+01 -3.98694E+01 -6.01366E+01 -8.14066E+01 -7.03762E+01
  -6.29302E+01 -7.07893E+01 -5.58534E+01 -4.33323E+01 -4.07863E+01 -2.29479E+01 -2.50894E+01 -1.94882E+01 -1.28131E+01 -1.44113E+01
  -1.81500E+01 -2.45575E+01 -3.26542E+01 -4.61570E+01 -3.46221E+01 -3.11607E+01 -2.85655E+01 -2.17573E+01 -9.07590E+00 -2.45095E+00
  -3.76754E+00  1.12609E+01  7.44628E+00  2.71543E+01  2.99146E+01  1.54193E+01  2.69973E+01  1.62530E+01  9.59096E+00  1.47795E+01
  -3.43400E+00 -2.24812E+01 -1.80133E+01 -2.90259E+01 -3.54525E+01 -5.81522E+01 -7.56542E+01 -7.43513E+01 -9.76903E+01 -1.06915E+02
  -1.25272E+02 -1.20071E+02 -1.08602E+02 -1.02099E+02 -8.39288E+01 -7.18874E+01 -4.26755E+01 -4.18629E+01 -6.08557E+01 -5.21303E+01
  -2.29965E+01 -2.21802E+01 -1.54756E+01 -7.40266E+00 -7.20106E+00  1.71572E+01  2.11269E+01  2.48601E+01  1.81735E+01  3.85369E+01
   4.80868E+01 -2.28073E+01 -6.20481E+01 -6.73799E+01 -8.11760E+01 -9.68876E+01 -1.02051E+02 -9.78427E+01 -1.04381E+02 -9.27761E+01
  -9.09254E+01 -9.41279E+01 -9.44883E+01 -1.05585E+02 -8.83916E+01 -9.89867E+01 -9.14560E+01 -7.83175E+01 -9.30423E+01 -7.29591E+01
  -7.54515E+01 -6.13303E+01 -5.97537E+01 -7.13305E+01 -5.93082E+01 -6.09365E+01 -5.51274E+01 -5.67658E+01 -4.42785E+01 -4.79855E+01
  -5.95181E+01 -5.37315E+01 -6.24342E+01 -5.60951E+01 -4.49978E+01 -4.23373E+01 -2.92346E+01 -3.26414E+01 -3.78878E+01 -3.73619E+01
  -3.27082E+01 -1.17990E+01 -1.61578E+01 -1.61295E+01 -2.91840E+01 -2.17321E+01 -1.45396E+01 -3.86335E+01 -3.50745E+01 -4.94979E+01
  -3.72662E+01 -6.17348E+01 -7.74204E+01 -4.80494E+01 -6.45012E+01 -7.03656E+01 -6.23087E+01 -4.43010E+01 -6.04974E+01 -6.27785E+01
  -4.44712E+01 -5.18563E+01 -4.58780E+01 -4.41349E+01 -4.29802E+01 -3.35520E+01 -4.39003E+01 -3.85887E+01 -2.14741E+01 -4.08133E+01
  -2.25337E+01 -2.43611E+01 -3.95804E+01 -2.40815E+01 -2.66470E+01 -3.37420E+01 -4.87067E+01 -3.62501E+01 -3.57135E+01 -4.71696E+01
  -4.96436E+01 -2.86240E+01 -2.44493E+01 -3.06145E+01  1.68799E+00  2.10327E-01  7.81551E+00  1.55655E+01 -3.17837E+00 -1.04949E+01
  -3.38821E+00 -1.70305E+01 -2.04560E+01 -1.11645E+01 -2.17465E+01 -2.47233E+01 -3.01836E+01 -2.45672E+01 -3.22555E+01 -1.75135E+01
  -3.31984E+01 -6.32012E+01 -4.81705E+01 -6.09773E+01 -7.19959E+01 -7.63396E+01 -7.76311E+01 -9.77666E+01 -9.13317E+01 -7.69132E+01
  -7.32936E+01 -6.39935E+01 -6.78980E+01 -5.49876E+01 -5.72693E+01 -5.10136E+01 -4.83744E+01 -5.45536E+01 -6.42089E+01 -5.75361E+01
  -5.25019E+01 -5.73806E+01 -5.07135E+01 -4.39937E+01 -3.68432E+01 -7.28546E+01 -6.85756E+00  8.22244E+01  8.39983E+01  9.56348E+01
   8.96822E+01  8.83919E+01  8.10905E+01  7.69722E+01  7.94367E+01  8.21881E+01  7.48332E+01  5.56068E+01  5.37695E+01  5.66542E+01
   6.01853E+01  5.65736E+01  4.93561E+01  4.64405E+01  6.52303E+01  6.65343E+01  5.30922E+01  4.64267E+01  4.02134E+01  4.55955E+01
   4.12260E+01  4.05158E+01  3.69484E+01  3.49823E+01  3.62507E+01  2.38561E+01  2.91032E+01  2.51037E+01  1.95017E+01  2.83092E+01
   1.33765E+01  3.27980E+01  3.47085E+01  1.45366E+01  1.84180E+01  1.39533E+01  3.37579E+01  2.62636E+01  3.31852E+01  2.95430E+01
   2.57624E+01  5.62379E+01  4.35917E+01  5.20765E+01  5.30193E+01  4.87890E+01  4.62262E+01  4.95973E+01  5.88719E+01  6.33332E+01
   6.77803E+01  5.95977E+01  8.11873E+01  7.66493E+01  8.82940E+01  8.81619E+01  8.32046E+01  1.03240E+02  7.75954E+01  8.68138E+01
   7.73877E+01  5.79161E+01  5.97174E+01  5.33044E+01  5.53549E+01  2.87274E+01  1.50315E+01  4.41835E+00 -9.11469E-02  2.76467E+00
  -2.51714E+01 -2.64799E+01 -2.45017E+01 -3.85962E+01 -3.69237E+01 -3.17029E+01 -3.50399E+01 -4.07242E+01 -3.21691E+01 -3.46197E+01
  -2.76688E+01 -1.95059E+01 -1.90764E+01 -1.17833E+01 -2.03886E+01 -2.01028E+01 -9.66274E+00  1.81753E+00 -7.79351E+00 -9.37208E+00
  -1.37777E+01 -1.37059E+01  1.73800E+00 -2.02233E+01 -5.38147E+00 -2.47328E+00 -2.91110E+01 -2.07627E+01 -8.90258E+00 -1.04717E+01
  -1.43451E+01 -1.34852E+01 -7.47069E+00  1.94428E-01 -1.89087E+01 -9.92456E+00 -3.06150E+00 -1.07881E+01 -5.06644E+00 -1.14249E+01
   7.39725E+00  1.35994E+01  9.12362E+00  2.11588E+01  3.11071E+01  2.59338E+01  1.94761E+01  2.95112E+01  5.32394E+01  5.46400E+01
   4.79331E+01  6.70461E+01  6.32816E+01  7.25150E+01  7.82379E+01  8.22581E+01  1.02261E+02  1.04048E+02  9.39014E+01  8.43450E+01
   9.61522E+01  6.47545E+01  5.10763E+01  5.53777E+01  3.04924E+01  3.84522E+01  3.59534E+01  3.41665E+01  2.34403E+01 -1.34489E+00
  -6.49231E+00 -1.78339E+01 -2.21437E+01 -1.74720E+01 -3.14608E+01 -3.11345E+01 -2.12540E+01 -3.89650E+01 -3.12484E+01 -2.56019E+01
  -3.94381E+01 -2.57279E+01 -2.12752E+01 -2.93624E+01 -2.34718E+01 -2.08059E+01 -2.86801E+01 -2.48515E+01 -2.94595E+01 -3.20798E+01
  -1.26398E+01 -1.32758E+01 -1.92542E+01 -2.47216E+01 -2.68930E+01 -1.57668E+01 -1.39855E+01 -1.56932E+01 -1.92930E+01 -2.41191E+01
  -2.59062E+01 -1.90619E+01 -1.93251E+01 -2.28820E+01 -1.79068E+01 -1.55824E+01 -1.00351E+01 -1.47091E+01 -2.09370E+01 -2.39359E+01
  -1.94430E+01 -1.97811E+01 -2.43042E+01 -1.48114E+01 -1.58456E+01 -1.02780E+01 -1.16227E+01 -1.76656E+01 -1.54280E+01 -2.12771E+01
  -2.21561E+01 -2.25510E+01 -1.81013E+01 -1.05962E+01 -1.60603E+01 -2.71053E+01 -2.07963E+01 -1.35022E+01 -1.39515E+01 -9.83624E+00
  -3.85782E+00 -1.05503E+01 -2.16451E+01 -1.81841E+01 -7.71235E+00  2.55848E-01 -3.21374E+01 -3.05224E+01 -1.33860E+00 -1.41514E+01
   3.39786E+00  4.47977E+00 -1.85695E+01 -1.46772E+01 -6.45892E+00 -1.32487E+01 -1.18044E+01  2.04510E+00 -1.11146E+01 -1.18152E+01
 NY points of the fit to the data follow
   1.03224E+01  3.99450E+00 -1.60211E+00 -3.58048E+00 -4.87070E-02  2.29272E+00  9.51919E-01 -2.91938E+00 -7.00032E+00 -9.49859E+00
  -9.21182E+00 -6.41005E+00 -3.28112E+00 -2.52734E+00 -8.59478E+00 -1.44917E+01 -1.60065E+01 -1.78221E+01 -2.12416E+01 -2.55398E+01
  -3.08971E+01 -3.35049E+01 -2.66681E+01 -1.52085E+01 -7.58219E+00 -5.00012E+00 -4.86732E+00 -6.36307E+00 -1.03438E+01 -1.75864E+01
  -2.75036E+01 -4.24086E+01 -5.32235E+01 -6.61973E+01 -8.18606E+01 -1.01878E+02 -1.22997E+02 -1.44109E+02 -1.57400E+02 -1.59023E+02
  -1.54511E+02 -1.50375E+02 -1.45354E+02 -1.33087E+02 -1.13058E+02 -9.19451E+01 -7.45853E+01 -6.14568E+01 -5.05618E+01 -4.56752E+01
  -4.71979E+01 -4.94917E+01 -5.08524E+01 -5.75157E+01 -6.34322E+01 -6.47347E+01 -6.54368E+01 -6.64767E+01 -6.26288E+01 -5.70719E+01
  -5.70206E+01 -5.77876E+01 -5.34182E+01 -4.99352E+01 -5.09379E+01 -5.34502E+01 -5.83691E+01 -6.65312E+01 -7.24040E+01 -7.17694E+01
  -6.80269E+01 -6.37656E+01 -5.68212E+01 -4.83371E+01 -4.17215E+01 -3.84389E+01 -3.70998E+01 -3.51135E+01 -3.35208E+01 -3.30745E+01
  -3.26409E+01 -3.18905E+01 -3.13619E+01 -3.06445E+01 -2.91408E+01 -2.66017E+01 -2.29055E+01 -1.87914E+01 -1.45591E+01 -1.01803E+01
  -6.73145E+00 -4.04547E+00 -3.02416E-01  1.95524E+00  2.98499E+00  4.74588E+00  5.18334E+00  3.41650E+00  2.60556E+00  4.02477E+00
   6.15146E+00 -6.27148E+00 -2.19925E+01 -3.14298E+01 -3.80479E+01 -4.34337E+01 -4.80950E+01 -6.35104E+01 -9.37586E+01 -1.17429E+02
  -1.21307E+02 -1.15010E+02 -1.07391E+02 -9.86427E+01 -8.76920E+01 -7.79365E+01 -7.19480E+01 -6.78987E+01 -5.97715E+01 -4.98975E+01
  -4.04817E+01 -3.13002E+01 -2.03274E+01 -4.26911E+00  2.71278E+00  2.57619E+00  4.32556E+00  6.16413E+00  7.38522E+00  1.12676E+01
   7.43377E+00 -1.27352E+01 -3.69413E+01 -5.22337E+01 -5.92884E+01 -6.42545E+01 -6.79542E+01 -7.01509E+01 -7.19799E+01 -7.62767E+01
  -8.28276E+01 -8.65278E+01 -8.85536E+01 -8.96300E+01 -8.92219E+01 -8.80704E+01 -8.69468E+01 -8.53769E+01 -8.33831E+01 -8.12253E+01
  -7.92321E+01 -7.75924E+01 -7.55495E+01 -7.31730E+01 -7.07989E+01 -6.90433E+01 -6.78278E+01 -6.67843E+01 -6.55362E+01 -6.42387E+01
  -6.31341E+01 -6.25798E+01 -6.22831E+01 -6.07091E+01 -5.73431E+01 -5.43600E+01 -5.36033E+01 -5.28280E+01 -4.97286E+01 -4.39578E+01
  -3.70228E+01 -3.29654E+01 -3.29274E+01 -3.52272E+01 -3.63944E+01 -3.55315E+01 -3.51213E+01 -3.82997E+01 -4.43307E+01 -4.93333E+01
  -5.35365E+01 -5.68356E+01 -5.86768E+01 -5.89629E+01 -5.77039E+01 -5.64633E+01 -5.37505E+01 -5.06216E+01 -4.81653E+01 -4.47403E+01
  -4.14688E+01 -3.86774E+01 -3.67024E+01 -3.42766E+01 -3.21432E+01 -3.09456E+01 -2.89444E+01 -2.61751E+01 -2.44923E+01 -2.42752E+01
  -2.41767E+01 -2.27347E+01 -2.18069E+01 -2.39620E+01 -2.84096E+01 -3.14239E+01 -3.58971E+01 -4.07458E+01 -4.11500E+01 -4.21707E+01
  -3.99382E+01 -3.56645E+01 -2.97983E+01 -2.10279E+01 -8.71493E+00  4.36105E+00  1.32154E+01  1.85854E+01  1.92509E+01  1.55960E+01
   1.10498E+01  7.47977E+00  4.74235E+00  1.64051E+00 -3.24684E+00 -1.04565E+01 -1.95851E+01 -3.09823E+01 -4.31625E+01 -5.45283E+01
  -6.55441E+01 -7.55587E+01 -8.38761E+01 -9.24617E+01 -9.67471E+01 -9.90636E+01 -9.76103E+01 -9.33136E+01 -8.73475E+01 -8.06819E+01
  -7.47131E+01 -6.86977E+01 -6.19204E+01 -5.66045E+01 -5.24629E+01 -5.03242E+01 -4.83594E+01 -5.24550E+01 -6.90894E+01 -7.23294E+01
  -6.15803E+01 -5.36121E+01 -4.67593E+01 -4.04422E+01 -4.16646E+01 -3.72418E+01 -5.23419E+00  3.81358E+01  6.54302E+01  7.58972E+01
   8.06257E+01  8.21121E+01  7.88491E+01  7.21178E+01  6.88841E+01  7.12234E+01  7.08207E+01  6.77617E+01  6.49849E+01  6.30807E+01
   6.20192E+01  6.17487E+01  6.19138E+01  6.20744E+01  6.21785E+01  6.20546E+01  6.16407E+01  6.09184E+01  5.99552E+01  5.86008E+01
   5.71578E+01  5.55468E+01  5.37009E+01  5.16731E+01  4.93971E+01  4.69862E+01  4.44054E+01  4.17427E+01  3.90299E+01  3.64434E+01
   3.40948E+01  3.19395E+01  3.01157E+01  2.89343E+01  2.85119E+01  2.88559E+01  2.98751E+01  3.13228E+01  3.30167E+01  3.49834E+01
   3.72407E+01  3.96223E+01  4.20399E+01  4.44784E+01  4.69454E+01  4.95019E+01  5.21612E+01  5.48786E+01  5.75979E+01  6.02242E+01
   6.26197E+01  6.49115E+01  6.72718E+01  6.96039E+01  7.18114E+01  7.20122E+01  6.88384E+01  6.60947E+01  5.99915E+01  5.41246E+01
   4.88527E+01  4.10368E+01  2.86114E+01  1.47012E+01  2.00802E+00 -9.03859E+00 -1.53026E+01 -1.70209E+01 -1.71266E+01 -1.69560E+01
  -1.66062E+01 -1.54243E+01 -1.30421E+01 -1.20625E+01 -1.03314E+01 -8.23984E+00 -6.88828E+00 -4.90731E+00 -3.06247E+00 -3.96909E+00
  -7.76801E+00 -1.20195E+01 -1.59539E+01 -1.80186E+01 -1.73075E+01 -1.54247E+01 -1.37018E+01 -1.26447E+01 -1.24936E+01 -1.33651E+01
  -1.45369E+01 -1.63804E+01 -1.79788E+01 -1.92800E+01 -2.02387E+01 -2.05384E+01 -2.02345E+01 -1.92843E+01 -1.77730E+01 -1.58282E+01
  -1.35399E+01 -1.09783E+01 -8.24487E+00 -5.48058E+00 -2.71229E+00  1.07579E-01  2.95972E+00  6.03393E+00  9.17420E+00  1.24388E+01
   1.59476E+01  1.97922E+01  2.38745E+01  2.83787E+01  3.33933E+01  3.88517E+01  4.47809E+01  5.11627E+01  5.76186E+01  6.38730E+01
   6.95630E+01  7.45810E+01  7.86402E+01  8.16428E+01  8.32685E+01  8.32425E+01  8.13947E+01  7.75787E+01  7.20926E+01  6.56491E+01
   5.90144E+01  5.23249E+01  4.57592E+01  3.94631E+01  3.32315E+01  2.66022E+01  1.97383E+01  1.29867E+01  6.60150E+00  8.00677E-01
  -4.15690E+00 -8.26619E+00 -1.16971E+01 -1.45016E+01 -1.67003E+01 -1.84531E+01 -1.99765E+01 -2.12567E+01 -2.22310E+01 -2.29797E+01
  -2.35633E+01 -2.39325E+01 -2.40876E+01 -2.42446E+01 -2.42813E+01 -2.42375E+01 -2.42201E+01 -2.42499E+01 -2.41285E+01 -2.39013E+01
  -2.37359E+01 -2.35729E+01 -2.33361E+01 -2.30553E+01 -2.28732E+01 -2.27199E+01 -2.25335E+01 -2.21550E+01 -2.17716E+01 -2.14847E+01
  -2.12250E+01 -2.09876E+01 -2.07584E+01 -2.04985E+01 -2.01195E+01 -1.97506E+01 -1.93699E+01 -1.90458E+01 -1.87490E+01 -1.84142E+01
  -1.81107E+01 -1.78092E+01 -1.75347E+01 -1.73426E+01 -1.71539E+01 -1.68520E+01 -1.64904E+01 -1.61824E+01 -1.58210E+01 -1.55323E+01
  -1.52770E+01 -1.50215E+01 -1.46400E+01 -1.43144E+01 -1.40124E+01 -1.37352E+01 -1.35002E+01 -1.32891E+01 -1.30767E+01 -1.28585E+01
  -1.26430E+01 -1.24920E+01 -1.23550E+01 -1.22900E+01 -1.22163E+01 -1.20923E+01 -1.18622E+01 -1.16913E+01 -1.16458E+01 -1.17500E+01
  -1.19818E+01 -1.22764E+01 -1.24663E+01 -1.26822E+01 -1.28964E+01 -1.30750E+01 -1.32775E+01 -1.36200E+01 -1.39868E+01 -1.42711E+01
 NY background values follow
     4.973E+01    4.727E+01    4.480E+01    4.233E+01    3.986E+01    3.738E+01    3.491E+01    3.244E+01    2.997E+01    2.751E+01
     2.506E+01    2.262E+01    2.019E+01    1.778E+01    1.539E+01    1.301E+01    1.065E+01    8.315E+00    6.004E+00    3.720E+00
     1.464E+00   -7.616E-01   -2.955E+00   -5.114E+00   -7.237E+00   -9.322E+00   -1.137E+01   -1.337E+01   -1.533E+01   -1.724E+01
    -1.911E+01   -2.092E+01   -2.269E+01   -2.441E+01   -2.607E+01   -2.769E+01   -2.926E+01   -3.078E+01   -3.226E+01   -3.368E+01
    -3.506E+01   -3.639E+01   -3.767E+01   -3.890E+01   -4.009E+01   -4.123E+01   -4.232E+01   -4.336E+01   -4.436E+01   -4.532E+01
    -4.622E+01   -4.708E+01   -4.790E+01   -4.867E+01   -4.939E+01   -5.007E+01   -5.070E+01   -5.129E+01   -5.184E+01   -5.234E+01
    -5.279E+01   -5.320E+01   -5.357E+01   -5.390E+01   -5.418E+01   -5.443E+01   -5.464E+01   -5.481E+01   -5.495E+01   -5.505E+01
    -5.512E+01   -5.515E+01   -5.516E+01   -5.513E+01   -5.508E+01   -5.499E+01   -5.488E+01   -5.475E+01   -5.459E+01   -5.441E+01
    -5.421E+01   -5.398E+01   -5.374E+01   -5.348E+01   -5.320E+01   -5.290E+01   -5.259E+01   -5.227E+01   -5.193E+01   -5.158E+01
    -5.122E+01   -5.085E+01   -5.048E+01   -5.009E+01   -4.970E+01   -4.929E+01   -4.888E+01   -4.846E+01   -4.804E+01   -4.760E+01
    -4.716E+01   -4.672E+01   -4.626E+01   -4.580E+01   -4.533E+01   -4.486E+01   -4.438E+01   -4.390E+01   -4.341E+01   -4.292E+01
    -4.242E+01   -4.192E+01   -4.141E+01   -4.090E+01   -4.038E+01   -3.987E+01   -3.935E+01   -3.882E+01   -3.829E+01   -3.777E+01
    -3.723E+01   -3.670E+01   -3.617E+01   -3.563E+01   -3.509E+01   -3.455E+01   -3.402E+01   -3.348E+01   -3.294E+01   -3.240E+01
    -3.187E+01   -3.134E+01   -3.080E+01   -3.028E+01   -2.975E+01   -2.923E+01   -2.871E+01   -2.819E+01   -2.768E+01   -2.717E+01
    -2.667E+01   -2.617E+01   -2.568E+01   -2.519E+01   -2.471E+01   -2.424E+01   -2.377E+01   -2.331E+01   -2.286E+01   -2.242E+01
    -2.199E+01   -2.156E+01   -2.114E+01   -2.073E+01   -2.034E+01   -1.994E+01   -1.956E+01   -1.919E+01   -1.883E+01   -1.847E+01
    -1.813E+01   -1.779E+01   -1.746E+01   -1.714E+01   -1.684E+01   -1.654E+01   -1.625E+01   -1.597E+01   -1.570E+01   -1.543E+01
    -1.518E+01   -1.494E+01   -1.471E+01   -1.449E+01   -1.427E+01   -1.407E+01   -1.388E+01   -1.369E+01   -1.352E+01   -1.336E+01
    -1.320E+01   -1.306E+01   -1.293E+01   -1.280E+01   -1.269E+01   -1.258E+01   -1.248E+01   -1.239E+01   -1.230E+01   -1.222E+01
    -1.214E+01   -1.207E+01   -1.201E+01   -1.195E+01   -1.189E+01   -1.184E+01   -1.179E+01   -1.174E+01   -1.169E+01   -1.165E+01
    -1.160E+01   -1.156E+01   -1.152E+01   -1.147E+01   -1.143E+01   -1.138E+01   -1.134E+01   -1.129E+01   -1.123E+01   -1.118E+01
    -1.112E+01   -1.105E+01   -1.099E+01   -1.092E+01   -1.084E+01   -1.077E+01   -1.069E+01   -1.062E+01   -1.054E+01   -1.046E+01
    -1.038E+01   -1.030E+01   -1.022E+01   -1.015E+01   -1.007E+01   -1.000E+01   -9.933E+00   -9.867E+00   -9.804E+00   -9.746E+00
    -9.691E+00   -9.642E+00   -9.598E+00   -9.559E+00   -9.527E+00   -9.501E+00   -9.482E+00   -9.470E+00   -9.467E+00   -9.471E+00
    -9.485E+00   -9.506E+00   -9.536E+00   -9.574E+00   -9.619E+00   -9.670E+00   -9.727E+00   -9.790E+00   -9.858E+00   -9.930E+00
    -1.001E+01   -1.009E+01   -1.017E+01   -1.025E+01   -1.034E+01   -1.043E+01   -1.052E+01   -1.061E+01   -1.070E+01   -1.079E+01
    -1.087E+01   -1.096E+01   -1.104E+01   -1.112E+01   -1.120E+01   -1.127E+01   -1.134E+01   -1.141E+01   -1.146E+01   -1.152E+01
    -1.156E+01   -1.160E+01   -1.164E+01   -1.166E+01   -1.168E+01   -1.170E+01   -1.171E+01   -1.172E+01   -1.172E+01   -1.171E+01
    -1.170E+01   -1.169E+01   -1.168E+01   -1.165E+01   -1.163E+01   -1.160E+01   -1.157E+01   -1.154E+01   -1.151E+01   -1.147E+01
    -1.143E+01   -1.139E+01   -1.134E+01   -1.130E+01   -1.125E+01   -1.121E+01   -1.116E+01   -1.111E+01   -1.107E+01   -1.102E+01
    -1.097E+01   -1.093E+01   -1.088E+01   -1.084E+01   -1.079E+01   -1.075E+01   -1.071E+01   -1.068E+01   -1.064E+01   -1.061E+01
    -1.059E+01   -1.056E+01   -1.054E+01   -1.053E+01   -1.052E+01   -1.051E+01   -1.051E+01   -1.052E+01   -1.053E+01   -1.054E+01
    -1.057E+01   -1.060E+01   -1.064E+01   -1.068E+01   -1.073E+01   -1.079E+01   -1.086E+01   -1.094E+01   -1.103E+01   -1.112E+01
    -1.123E+01   -1.134E+01   -1.146E+01   -1.159E+01   -1.173E+01   -1.188E+01   -1.203E+01   -1.218E+01   -1.234E+01   -1.251E+01
    -1.267E+01   -1.284E+01   -1.301E+01   -1.319E+01   -1.336E+01   -1.353E+01   -1.371E+01   -1.388E+01   -1.405E+01   -1.421E+01
    -1.438E+01   -1.453E+01   -1.469E+01   -1.484E+01   -1.498E+01   -1.512E+01   -1.524E+01   -1.537E+01   -1.548E+01   -1.558E+01
    -1.567E+01   -1.576E+01   -1.583E+01   -1.589E+01   -1.595E+01   -1.599E+01   -1.602E+01   -1.605E+01   -1.607E+01   -1.608E+01
    -1.608E+01   -1.607E+01   -1.605E+01   -1.602E+01   -1.599E+01   -1.595E+01   -1.590E+01   -1.584E+01   -1.578E+01   -1.571E+01
    -1.563E+01   -1.555E+01   -1.545E+01   -1.536E+01   -1.525E+01   -1.514E+01   -1.502E+01   -1.490E+01   -1.477E+01   -1.464E+01
    -1.450E+01   -1.435E+01   -1.420E+01   -1.404E+01   -1.388E+01   -1.371E+01   -1.354E+01   -1.336E+01   -1.318E+01   -1.299E+01
    -1.280E+01   -1.260E+01   -1.240E+01   -1.219E+01   -1.198E+01   -1.176E+01   -1.154E+01   -1.131E+01   -1.108E+01   -1.085E+01
    -1.060E+01   -1.036E+01   -1.011E+01   -9.852E+00   -9.592E+00   -9.328E+00   -9.059E+00   -8.786E+00   -8.508E+00   -8.226E+00
    -7.940E+00   -7.649E+00   -7.355E+00   -7.056E+00   -6.752E+00   -6.445E+00   -6.134E+00   -5.818E+00   -5.499E+00   -5.175E+00
    -4.848E+00   -4.517E+00   -4.181E+00   -3.842E+00   -3.499E+00   -3.152E+00   -2.802E+00   -2.448E+00   -2.090E+00   -1.728E+00
    -1.363E+00   -9.938E-01   -6.214E-01   -2.454E-01    1.340E-01    5.169E-01    9.033E-01    1.293E+00    1.686E+00    2.082E+00
     2.482E+00    2.885E+00    3.291E+00    3.700E+00    4.112E+00    4.526E+00    4.944E+00    5.363E+00    5.785E+00    6.210E+00
     6.636E+00    7.065E+00    7.496E+00    7.928E+00    8.363E+00    8.799E+00    9.236E+00    9.675E+00    1.012E+01    1.056E+01
     1.100E+01    1.144E+01    1.189E+01    1.233E+01    1.278E+01    1.323E+01    1.367E+01    1.412E+01    1.457E+01    1.502E+01
 Mac      Conc. = 2.67E-04
   3.12781E+01  2.80645E+01  2.48103E+01  2.15083E+01  1.80975E+01  1.45362E+01  1.08037E+01  6.93395E+00  3.08612E+00 -3.85103E-01
  -3.14028E+00 -5.67284E+00 -8.17413E+00 -1.05362E+01 -1.28434E+01 -1.48252E+01 -1.58937E+01 -1.60456E+01 -1.60553E+01 -1.60813E+01
  -1.59403E+01 -1.59577E+01 -1.64871E+01 -1.73073E+01 -1.80098E+01 -1.85863E+01 -1.91775E+01 -1.98907E+01 -2.06359E+01 -2.13674E+01
  -2.20449E+01 -2.27693E+01 -2.38015E+01 -2.50652E+01 -2.62719E+01 -2.70977E+01 -2.73699E+01 -2.74720E+01 -2.78362E+01 -2.86001E+01
  -2.95265E+01 -3.04446E+01 -3.12986E+01 -3.20760E+01 -3.29752E+01 -3.40581E+01 -3.53397E+01 -3.68879E+01 -3.85803E+01 -4.01188E+01
  -4.14091E+01 -4.25812E+01 -4.34885E+01 -4.40932E+01 -4.45774E+01 -4.48550E+01 -4.49229E+01 -4.49756E+01 -4.50120E+01 -4.49278E+01
  -4.48945E+01 -4.51836E+01 -4.56450E+01 -4.59881E+01 -4.61737E+01 -4.62216E+01 -4.60990E+01 -4.59760E+01 -4.56335E+01 -4.49276E+01
  -4.39240E+01 -4.29027E+01 -4.20998E+01 -4.15471E+01 -4.12538E+01 -4.11344E+01 -4.11489E+01 -4.11792E+01 -4.10280E+01 -4.07128E+01
  -4.03596E+01 -3.98960E+01 -3.91717E+01 -3.83293E+01 -3.74534E+01 -3.65494E+01 -3.55921E+01 -3.48217E+01 -3.42345E+01 -3.38184E+01
  -3.35883E+01 -3.35282E+01 -3.35859E+01 -3.39717E+01 -3.47973E+01 -3.59514E+01 -3.74093E+01 -3.91473E+01 -4.12370E+01 -4.35973E+01
  -4.61216E+01 -4.87271E+01 -5.13725E+01 -5.41632E+01 -5.70869E+01 -6.00282E+01 -6.25030E+01 -6.39277E+01 -6.42057E+01 -6.35137E+01
