 
 $NMID
 ID=''
 FMTDAT='(2E13.5)'
 TRAMP=   1.00000E+0
 VOLUME=   1.00000E+0
 $END
   8.13460E+4   4.63145E+5
  -2.35822E+5   1.21922E+6
  -1.10658E+5   1.19366E+6
  -2.14475E+5   1.09983E+6
  -3.09188E+5   1.13749E+6
  -3.21643E+5   1.10743E+6
  -3.79199E+5   1.05992E+6
  -4.21003E+5   1.07744E+6
  -4.22896E+5   1.04603E+6
  -4.72227E+5   9.99522E+5
  -5.08661E+5   9.91956E+5
  -5.21574E+5   9.58670E+5
  -5.62227E+5   9.22833E+5
  -5.85950E+5   9.11098E+5
  -5.94623E+5   8.75911E+5
  -6.25006E+5   8.42992E+5
  -6.52266E+5   8.27757E+5
  -6.70905E+5   7.86490E+5
  -7.00985E+5   7.45846E+5
  -7.21312E+5   7.20512E+5
  -7.38159E+5   6.77107E+5
  -7.62688E+5   6.37651E+5
  -7.75386E+5   6.10908E+5
  -7.87596E+5   5.73407E+5
  -8.04420E+5   5.34713E+5
  -8.06826E+5   5.08890E+5
  -8.11075E+5   4.77712E+5
  -8.22351E+5   4.47976E+5
  -8.23480E+5   4.17298E+5
  -8.23193E+5   3.84637E+5
  -8.32146E+5   3.54564E+5
  -8.34271E+5   3.23599E+5
  -8.34510E+5   2.86126E+5
  -8.35334E+5   2.52987E+5
  -8.32144E+5   2.22143E+5
  -8.30884E+5   1.86900E+5
  -8.32356E+5   1.53475E+5
  -8.27244E+5   1.21601E+5
  -8.18954E+5   9.14612E+4
  -8.13718E+5   6.43251E+4
  -8.05125E+5   3.72627E+4
  -7.95818E+5   1.07413E+4
  -7.86511E+5  -1.12430E+4
  -7.77244E+5  -3.38437E+4
  -7.66622E+5  -5.81116E+4
  -7.56793E+5  -7.93998E+4
  -7.45948E+5  -1.02078E+5
  -7.33457E+5  -1.27860E+5
  -7.18202E+5  -1.50990E+5
  -7.03756E+5  -1.71983E+5
  -6.91012E+5  -1.93280E+5
  -6.76874E+5  -2.15038E+5
  -6.60956E+5  -2.34673E+5
  -6.45885E+5  -2.52893E+5
  -6.30444E+5  -2.70557E+5
  -6.14320E+5  -2.87536E+5
  -5.97777E+5  -3.02429E+5
  -5.81651E+5  -3.15082E+5
  -5.65238E+5  -3.26989E+5
  -5.49585E+5  -3.39495E+5
  -5.32654E+5  -3.51273E+5
  -5.16449E+5  -3.62150E+5
  -4.99961E+5  -3.72550E+5
  -4.82210E+5  -3.82907E+5
  -4.63617E+5  -3.91838E+5
  -4.45982E+5  -3.98708E+5
  -4.28654E+5  -4.05420E+5
  -4.11437E+5  -4.11745E+5
  -3.94055E+5  -4.17629E+5
  -3.77329E+5  -4.23533E+5
  -3.59758E+5  -4.28407E+5
  -3.42602E+5  -4.31129E+5
  -3.26947E+5  -4.33698E+5
  -3.11388E+5  -4.36898E+5
  -2.94492E+5  -4.38999E+5
  -2.77755E+5  -4.39959E+5
  -2.61629E+5  -4.40523E+5
  -2.45862E+5  -4.41579E+5
  -2.29415E+5  -4.42194E+5
  -2.13061E+5  -4.41223E+5
  -1.97448E+5  -4.39773E+5
  -1.82098E+5  -4.38392E+5
  -1.66994E+5  -4.36524E+5
  -1.52167E+5  -4.34136E+5
  -1.37463E+5  -4.31276E+5
  -1.23690E+5  -4.27708E+5
  -1.10507E+5  -4.24395E+5
  -9.75233E+4  -4.20581E+5
  -8.46344E+4  -4.16555E+5
  -7.27595E+4  -4.12012E+5
  -6.14846E+4  -4.07189E+5
  -4.99300E+4  -4.02520E+5
  -3.81043E+4  -3.97589E+5
  -2.68222E+4  -3.92292E+5
  -1.58131E+4  -3.85816E+5
  -5.79256E+3  -3.79498E+5
   3.84025E+3  -3.73709E+5
   1.39411E+4  -3.68420E+5
   2.36162E+4  -3.61856E+5
   3.19550E+4  -3.55223E+5
   3.97853E+4  -3.49220E+5
   4.88494E+4  -3.43092E+5
   5.67285E+4  -3.35957E+5
   6.36912E+4  -3.28498E+5
   6.99789E+4  -3.21950E+5
   7.61883E+4  -3.15884E+5
   8.25085E+4  -3.09250E+5
   8.87141E+4  -3.02036E+5
   9.41220E+4  -2.94534E+5
   9.90888E+4  -2.87264E+5
   1.03468E+5  -2.80851E+5
   1.08424E+5  -2.74173E+5
   1.13430E+5  -2.67222E+5
   1.18006E+5  -2.59891E+5
   1.21509E+5  -2.52796E+5
   1.25258E+5  -2.45730E+5
   1.29114E+5  -2.39097E+5
   1.32442E+5  -2.31989E+5
   1.34997E+5  -2.24802E+5
   1.36773E+5  -2.18290E+5
   1.39039E+5  -2.12237E+5
   1.41403E+5  -2.05667E+5
   1.43421E+5  -1.99003E+5
   1.45186E+5  -1.92431E+5
   1.46844E+5  -1.86217E+5
   1.48162E+5  -1.79443E+5
   1.49190E+5  -1.73048E+5
   1.49851E+5  -1.67037E+5
   1.51005E+5  -1.61056E+5
   1.51812E+5  -1.54894E+5
   1.52643E+5  -1.48819E+5
   1.53091E+5  -1.42164E+5
   1.53153E+5  -1.36371E+5
   1.53312E+5  -1.30611E+5
   1.53351E+5  -1.25050E+5
   1.53275E+5  -1.18888E+5
   1.52501E+5  -1.13577E+5
   1.52300E+5  -1.08549E+5
   1.52069E+5  -1.02849E+5
   1.51366E+5  -9.72763E+4
   1.50563E+5  -9.19818E+4
   1.49754E+5  -8.69731E+4
   1.48841E+5  -8.22333E+4
   1.47469E+5  -7.77607E+4
   1.46858E+5  -7.29129E+4
   1.45578E+5  -6.78209E+4
   1.43869E+5  -6.36113E+4
   1.42688E+5  -5.91486E+4
   1.41109E+5  -5.48767E+4
   1.39309E+5  -5.06294E+4
   1.37880E+5  -4.64716E+4
   1.35953E+5  -4.27526E+4
   1.34216E+5  -3.94642E+4
   1.32654E+5  -3.57506E+4
   1.30814E+5  -3.19932E+4
   1.28786E+5  -2.88430E+4
   1.26831E+5  -2.57220E+4
   1.25137E+5  -2.26551E+4
   1.23156E+5  -1.93553E+4
   1.21022E+5  -1.66661E+4
   1.19112E+5  -1.39971E+4
   1.17234E+5  -1.14717E+4
   1.14807E+5  -8.54680E+3
   1.12720E+5  -6.06376E+3
   1.10487E+5  -3.76595E+3
   1.08508E+5  -1.42722E+3
   1.06224E+5   9.43782E+2
   1.04334E+5   2.88238E+3
   1.02380E+5   4.79504E+3
   1.00490E+5   6.69828E+3
   9.80755E+4   8.45856E+3
   9.64321E+4   1.00860E+4
   9.40967E+4   1.16484E+4
   9.23272E+4   1.33789E+4
   9.00442E+4   1.47444E+4
   8.81000E+4   1.58866E+4
   8.66125E+4   1.75305E+4
   8.43294E+4   1.89335E+4
   8.19894E+4   2.00311E+4
   8.00877E+4   2.10464E+4
   7.86596E+4   2.20922E+4
   7.64486E+4   2.31925E+4
   7.46063E+4   2.42817E+4
   7.27185E+4   2.51182E+4
   7.08692E+4   2.59706E+4
   6.91390E+4   2.66800E+4
   6.73429E+4   2.72011E+4
   6.54648E+4   2.78855E+4
   6.36961E+4   2.83620E+4
   6.18630E+4   2.90593E+4
   6.03732E+4   2.97715E+4
   5.89195E+4   3.04983E+4
   5.70459E+4   3.09774E+4
   5.51988E+4   3.13589E+4
   5.36958E+4   3.18173E+4
   5.22218E+4   3.23285E+4
   5.05802E+4   3.23862E+4
   4.90281E+4   3.31549E+4
   4.75171E+4   3.35037E+4
   4.56379E+4   3.35607E+4
   4.47473E+4   3.39368E+4
   4.27410E+4   3.41647E+4
   4.13304E+4   3.41787E+4
   3.98035E+4   3.46079E+4
   3.83501E+4   3.47831E+4
   3.70213E+4   3.50074E+4
   3.56572E+4   3.49170E+4
   3.41797E+4   3.50951E+4
   3.29775E+4   3.53606E+4
   3.16618E+4   3.53695E+4
   3.04745E+4   3.54173E+4
   2.91017E+4   3.53920E+4
   2.78510E+4   3.52165E+4
   2.66859E+4   3.53581E+4
   2.53118E+4   3.52722E+4
   2.44832E+4   3.50206E+4
   2.32403E+4   3.49528E+4
   2.22185E+4   3.48468E+4
   2.11638E+4   3.43853E+4
   2.00385E+4   3.43958E+4
   1.91858E+4   3.42008E+4
   1.81165E+4   3.38137E+4
   1.74372E+4   3.38259E+4
   1.66429E+4   3.36376E+4
   1.55269E+4   3.32188E+4
   1.45847E+4   3.30508E+4
   1.38404E+4   3.23912E+4
   1.30340E+4   3.24369E+4
   1.22732E+4   3.18840E+4
   1.15250E+4   3.19216E+4
   1.07234E+4   3.14893E+4
   1.03252E+4   3.10175E+4
   9.70887E+3   3.07949E+4
   9.03663E+3   3.05783E+4
   8.39359E+3   3.01390E+4
   7.84631E+3   2.97609E+4
   7.37831E+3   2.94143E+4
   7.04859E+3   2.91442E+4
   6.34466E+3   2.87091E+4
   5.76834E+3   2.86399E+4
   5.28876E+3   2.81221E+4
   4.93280E+3   2.77753E+4
   4.52103E+3   2.74450E+4
   3.86643E+3   2.68665E+4
   3.66272E+3   2.65391E+4
   2.91314E+3   2.59727E+4
   2.62940E+3   2.59693E+4
   2.39549E+3   2.55184E+4
   1.73243E+3   2.52433E+4
   1.72398E+3   2.48321E+4
   1.20452E+3   2.45106E+4
   7.60916E+2   2.43752E+4
   5.58613E+2   2.40150E+4
   1.70687E+2   2.37058E+4
  -1.12040E+2   2.31992E+4
  -2.08066E+2   2.30122E+4
  -3.94444E+2   2.25490E+4
  -1.14989E+3   2.22377E+4
  -1.31776E+3   2.21361E+4
  -1.88346E+3   2.18502E+4
  -2.03242E+3   2.13364E+4
  -2.29908E+3   2.09229E+4
  -2.62949E+3   2.03942E+4
  -2.71963E+3   2.04636E+4
  -3.24812E+3   2.02324E+4
  -3.42136E+3   1.97527E+4
  -3.75934E+3   1.96612E+4
  -3.91682E+3   1.94540E+4
  -4.56840E+3   1.89843E+4
  -4.52642E+3   1.88304E+4
  -4.86330E+3   1.88115E+4
  -5.01309E+3   1.81537E+4
  -5.45350E+3   1.79104E+4
  -5.52301E+3   1.79608E+4
  -5.77929E+3   1.75505E+4
  -6.10741E+3   1.74253E+4
  -6.19741E+3   1.70393E+4
  -6.40702E+3   1.68931E+4
  -6.84030E+3   1.66693E+4
  -6.75385E+3   1.65641E+4
  -7.08660E+3   1.63845E+4
  -7.37991E+3   1.61045E+4
  -7.56531E+3   1.58529E+4
  -7.75647E+3   1.57712E+4
  -7.83466E+3   1.57595E+4
  -8.11570E+3   1.54319E+4
  -8.07082E+3   1.51713E+4
  -8.50912E+3   1.49359E+4
  -8.52265E+3   1.49388E+4
  -8.87862E+3   1.49425E+4
  -8.84611E+3   1.45761E+4
  -9.05409E+3   1.45148E+4
  -9.12692E+3   1.40750E+4
  -9.26717E+3   1.41070E+4
  -9.53940E+3   1.39433E+4
  -9.56682E+3   1.33276E+4
  -9.55249E+3   1.32536E+4
  -1.01723E+4   1.32989E+4
  -1.00799E+4   1.31026E+4
  -1.04337E+4   1.27056E+4
  -1.02826E+4   1.25977E+4
  -1.04395E+4   1.25610E+4
  -1.03597E+4   1.23130E+4
  -1.07380E+4   1.19461E+4
  -1.08081E+4   1.17510E+4
  -1.08999E+4   1.15137E+4
  -1.10318E+4   1.14845E+4
  -1.11372E+4   1.11962E+4
  -1.11720E+4   1.09461E+4
  -1.12644E+4   1.07279E+4
  -1.12869E+4   1.04381E+4
  -1.18057E+4   1.01859E+4
  -1.16408E+4   1.00483E+4
  -1.17167E+4   9.78342E+3
  -1.18554E+4   9.21129E+3
  -1.21516E+4   9.12024E+3
  -1.19962E+4   9.02532E+3
  -1.19924E+4   8.79190E+3
  -1.21412E+4   8.50374E+3
  -1.21447E+4   8.12711E+3
  -1.25229E+4   7.97285E+3
  -1.23577E+4   7.40887E+3
  -1.24769E+4   7.29660E+3
  -1.23709E+4   7.15169E+3
  -1.24622E+4   6.91990E+3
  -1.25591E+4   6.68003E+3
  -1.25357E+4   6.41048E+3
  -1.26620E+4   5.94645E+3
  -1.25218E+4   5.47509E+3
  -1.22690E+4   5.37139E+3
  -1.26986E+4   5.07346E+3
  -1.24275E+4   4.72138E+3
  -1.25398E+4   4.57361E+3
  -1.25192E+4   4.41523E+3
  -1.24184E+4   3.84538E+3
  -1.25356E+4   3.48282E+3
  -1.28474E+4   3.19636E+3
  -1.23631E+4   3.05175E+3
  -1.22997E+4   2.69480E+3
  -1.25114E+4   2.54505E+3
  -1.23899E+4   2.04533E+3
  -1.22369E+4   1.90754E+3
  -1.23649E+4   1.69924E+3
  -1.21529E+4   1.43929E+3
  -1.18652E+4   1.12762E+3
  -1.22786E+4   6.34401E+2
  -1.21375E+4   4.23995E+2
  -1.22055E+4   2.35526E+2
  -1.19672E+4   1.02177E+2
  -1.17965E+4  -4.06231E+2
  -1.21789E+4  -6.37358E+2
  -1.18854E+4  -8.37454E+2
  -1.18164E+4  -9.78222E+2
  -1.14177E+4  -1.28917E+3
  -1.14537E+4  -1.62443E+3
  -1.17568E+4  -1.98197E+3
  -1.12852E+4  -1.95252E+3
  -1.13233E+4  -2.32027E+3
  -1.14553E+4  -2.70024E+3
  -1.10760E+4  -2.86173E+3
  -1.10530E+4  -3.11655E+3
  -1.09162E+4  -3.13915E+3
  -1.08326E+4  -3.73964E+3
  -1.09091E+4  -3.72209E+3
  -1.07784E+4  -3.84031E+3
  -1.04142E+4  -4.15730E+3
  -1.03452E+4  -4.32114E+3
