 LCModel (Version 6.3-1N) Copyright: S.W. Provencher.          Ref.: Magn. Reson. Med. 30:672-679 (1993).                
 Slice_N1@9_18  28-Feb-2025 11:44:24
 27 lines in following concentration table = NCONC+1
    Conc.  %SD /Cr+PCr  Metabolite                                         
 2.77E-04   4% 2.9E-04 Mac                                                 
    4.506  31%   4.760 Cr                                                  
    3.067  44%   3.240 PCr                                                 
    7.200  13%   7.606 Ins                                                 
   10.139   8%  10.711 NAA                                                 
    7.216  13%   7.624 Tau                                                 
    0.000 999%   0.000 PCho                                                
    1.862  17%   1.967 GPC                                                 
   11.413  10%  12.057 Glu                                                 
    5.870  15%   6.201 Gln                                                 
    0.000 999%   0.000 Ala                                                 
    4.360  30%   4.606 Asc                                                 
    3.555  27%   3.756 Asp                                                 
    0.841  64%   0.888 GABA                                                
    0.907  76%   0.959 Glc                                                 
    2.435  24%   2.572 GSH                                                 
    2.276  31%   2.404 Lac                                                 
    1.823  35%   1.926 NAAG                                                
    2.112  54%   2.231 PE                                                  
    1.862  17%   1.967 GPC+PCho                                            
   11.963   7%  12.638 NAA+NAAG                                            
   17.283   8%  18.258 Glu+Gln                                             
    7.573   9%   8.000 Cr+PCr                                              
   11.963   7%  12.638 NAA+NAAG                                            
    7.573   9%   8.000 Cr+PCr                                              
   17.283   8%  18.258 Glu+Gln                                             
   6 lines in following misc. output table
  FWHM = 0.024 ppm    S/N =   3                                            
  Data shift = 0.016 ppm                                                   
  Ph:-144 deg       0.0 deg/ppm                                            
  alphaB,S = 3.1E+01,   5.1E+00                                            
   19 spline knots.   Ns = 5(1)                                            
   2 inflections.     1 extrema                                            
  480 points on ppm-axis = NY
      4.100000     4.091866     4.083733     4.075600     4.067466     4.059333     4.051199     4.043066     4.034933     4.026799
      4.018666     4.010532     4.002399     3.994265     3.986132     3.977998     3.969864     3.961731     3.953597     3.945463
      3.937330     3.929196     3.921062     3.912929     3.904795     3.896662     3.888528     3.880394     3.872261     3.864127
      3.855993     3.847860     3.839726     3.831592     3.823459     3.815325     3.807191     3.799058     3.790924     3.782790
      3.774657     3.766523     3.758389     3.750256     3.742122     3.733989     3.725855     3.717721     3.709588     3.701454
      3.693320     3.685187     3.677053     3.668919     3.660786     3.652652     3.644518     3.636385     3.628251     3.620117
      3.611984     3.603850     3.595716     3.587583     3.579449     3.571316     3.563182     3.555048     3.546915     3.538781
      3.530647     3.522514     3.514380     3.506246     3.498113     3.489979     3.481845     3.473712     3.465578     3.457444
      3.449311     3.441177     3.433043     3.424910     3.416776     3.408643     3.400509     3.392375     3.384242     3.376108
      3.367974     3.359841     3.351707     3.343573     3.335440     3.327306     3.319172     3.311039     3.302905     3.294771
      3.286638     3.278504     3.270370     3.262237     3.254103     3.245970     3.237836     3.229702     3.221569     3.213435
      3.205301     3.197168     3.189034     3.180900     3.172767     3.164633     3.156499     3.148366     3.140232     3.132098
      3.123965     3.115831     3.107697     3.099564     3.091430     3.083297     3.075163     3.067029     3.058896     3.050762
      3.042628     3.034495     3.026361     3.018227     3.010094     3.001960     2.993826     2.985693     2.977559     2.969425
      2.961292     2.953158     2.945024     2.936891     2.928757     2.920624     2.912490     2.904356     2.896223     2.888089
      2.879955     2.871822     2.863688     2.855554     2.847421     2.839287     2.831153     2.823020     2.814886     2.806752
      2.798619     2.790485     2.782351     2.774218     2.766084     2.757951     2.749817     2.741683     2.733550     2.725416
      2.717282     2.709149     2.701015     2.692881     2.684748     2.676614     2.668480     2.660347     2.652213     2.644079
      2.635946     2.627812     2.619678     2.611545     2.603411     2.595278     2.587144     2.579010     2.570877     2.562743
      2.554609     2.546476     2.538342     2.530208     2.522075     2.513941     2.505807     2.497674     2.489540     2.481406
      2.473273     2.465139     2.457006     2.448872     2.440738     2.432605     2.424471     2.416337     2.408204     2.400070
      2.391936     2.383803     2.375669     2.367535     2.359402     2.351268     2.343134     2.335001     2.326867     2.318733
      2.310600     2.302466     2.294333     2.286199     2.278065     2.269932     2.261798     2.253664     2.245531     2.237397
      2.229263     2.221130     2.212996     2.204862     2.196729     2.188595     2.180461     2.172328     2.164194     2.156060
      2.147927     2.139793     2.131660     2.123526     2.115392     2.107259     2.099125     2.090991     2.082858     2.074724
      2.066590     2.058457     2.050323     2.042189     2.034056     2.025922     2.017788     2.009655     2.001521     1.993387
      1.985254     1.977120     1.968987     1.960853     1.952719     1.944586     1.936452     1.928318     1.920185     1.912051
      1.903917     1.895784     1.887650     1.879516     1.871383     1.863249     1.855115     1.846982     1.838848     1.830714
      1.822581     1.814447     1.806314     1.798180     1.790046     1.781913     1.773779     1.765645     1.757512     1.749378
      1.741244     1.733111     1.724977     1.716843     1.708710     1.700576     1.692442     1.684309     1.676175     1.668041
      1.659908     1.651774     1.643641     1.635507     1.627373     1.619240     1.611106     1.602972     1.594839     1.586705
      1.578571     1.570438     1.562304     1.554170     1.546037     1.537903     1.529769     1.521636     1.513502     1.505368
      1.497235     1.489101     1.480968     1.472834     1.464700     1.456567     1.448433     1.440299     1.432166     1.424032
      1.415898     1.407765     1.399631     1.391497     1.383364     1.375230     1.367096     1.358963     1.350829     1.342695
      1.334562     1.326428     1.318295     1.310161     1.302027     1.293894     1.285760     1.277626     1.269493     1.261359
      1.253225     1.245092     1.236958     1.228824     1.220691     1.212557     1.204423     1.196290     1.188156     1.180022
      1.171889     1.163755     1.155622     1.147488     1.139354     1.131221     1.123087     1.114953     1.106820     1.098686
      1.090552     1.082419     1.074285     1.066151     1.058018     1.049884     1.041750     1.033617     1.025483     1.017349
      1.009216     1.001082     0.992949     0.984815     0.976681     0.968548     0.960414     0.952280     0.944147     0.936013
      0.927879     0.919746     0.911612     0.903478     0.895345     0.887211     0.879077     0.870944     0.862810     0.854676
      0.846543     0.838409     0.830276     0.822142     0.814008     0.805875     0.797741     0.789607     0.781474     0.773340
      0.765206     0.757073     0.748939     0.740805     0.732672     0.724538     0.716404     0.708271     0.700137     0.692003
      0.683870     0.675736     0.667603     0.659469     0.651335     0.643202     0.635068     0.626934     0.618801     0.610667
      0.602533     0.594400     0.586266     0.578132     0.569999     0.561865     0.553731     0.545598     0.537464     0.529330
      0.521197     0.513063     0.504930     0.496796     0.488662     0.480529     0.472395     0.464261     0.456128     0.447994
      0.439861     0.431727     0.423593     0.415460     0.407326     0.399192     0.391059     0.382925     0.374792     0.366658
      0.358524     0.350391     0.342257     0.334124     0.325990     0.317856     0.309723     0.301589     0.293455     0.285322
      0.277188     0.269055     0.260921     0.252787     0.244654     0.236520     0.228386     0.220253     0.212119     0.203986
 NY phased data points follow
  -1.02357E+01 -1.22425E+01 -4.78335E+01 -3.48190E+01 -5.67409E+01 -2.91715E+01 -2.46022E+01 -3.38137E+01 -2.87194E+01 -3.53916E+01
  -3.18118E+01 -4.39979E+01 -4.95015E+01 -6.97606E+01 -3.90126E+01 -3.97036E+01 -6.25400E+01 -6.90757E+01 -6.69656E+01 -5.50241E+01
  -7.93855E+01 -6.23392E+01 -5.85733E+01 -5.84252E+01 -4.95010E+01 -1.64381E+01  1.24819E+01 -9.42706E+00 -7.66851E-01  1.23121E+01
   1.35293E+01 -1.36215E+01 -6.43300E+00 -6.10859E-01 -2.54214E+01 -3.36056E+00 -9.49223E+00 -2.48114E+01 -3.15726E+01 -4.96872E+01
  -6.83681E+01 -8.72044E+01 -6.90410E+01 -5.00111E+01 -4.45026E+01 -1.47151E+01  6.38989E+00  2.11493E+01  3.03316E+01  2.59181E+01
   3.73139E+01  3.83597E+01  3.27012E+01  1.96592E+01  3.80957E+00  3.07690E-01 -7.63987E+00  2.34207E-01 -1.51337E+01 -3.94392E+01
  -5.12993E+00  1.81380E+01  4.18606E+00  4.47926E+00  3.49125E+01  5.04030E+01  2.76887E+01  2.54869E+01 -5.54700E+00 -3.04600E+01
  -2.32965E+01 -2.54268E+01  1.22102E+01  1.28992E+01  2.63948E+01  3.82673E+01  2.53046E+01  4.66157E+01  4.54201E+01  6.27341E+01
   3.94174E+01  3.03638E+01  3.49403E+01  5.08926E+00 -4.55142E+00 -1.34051E+01  2.97738E+01  9.57669E+00 -2.17575E+00  4.21328E+01
   3.89262E+01  5.62667E+01  6.52657E+01  8.17862E+01  8.25087E+01  5.91071E+01  5.91569E+01  7.73008E+01  7.47010E+01  6.69916E+01
   9.00971E+01  6.90753E+01  3.98387E+01  2.99562E+01  2.53091E+01  8.99568E+00 -1.81204E+01 -3.53334E+01 -5.51969E+01 -6.62508E+01
  -1.13836E+02 -1.44992E+02 -1.26364E+02 -9.90242E+01 -6.93453E+01 -6.38920E+01 -4.84036E+01 -3.10234E+01 -3.53930E+01 -1.34749E+01
  -3.09246E+00 -1.83021E+01  7.04091E+00  1.19089E+01 -5.52378E+00  1.16028E+00  2.13317E+01  4.41507E+01  5.24576E+01  8.33499E+01
   1.05017E+02  1.03163E+02  6.12553E+01 -2.23819E+01 -7.19820E+01 -6.49308E+01 -5.58879E+01 -8.70483E+01 -7.34445E+01 -5.75694E+01
  -5.98003E+01 -4.83226E+01 -5.19322E+01 -5.05407E+01 -6.17781E+01 -5.73746E+01 -8.00968E+01 -7.62719E+01 -4.55299E+01 -6.05280E+01
  -5.76334E+01 -6.01152E+01 -3.87261E+01 -5.60362E+01 -6.00777E+01 -1.70804E+01 -2.51293E+01 -2.56587E+01 -3.27959E+01 -1.80422E+01
  -2.32660E+01 -1.58005E+01 -3.15850E+00 -3.34243E+01 -1.85784E+01 -2.31682E+01 -1.87421E+01 -2.34525E+01 -2.18770E+01 -2.27365E+01
  -3.34389E+01  1.09621E+01 -1.78729E+00  2.09754E+00  1.39316E+01  1.92245E+00  4.97136E+00 -7.32620E+00  9.20136E+00 -1.52411E+00
  -1.53377E+01 -1.37663E+01 -3.13072E+01 -4.99625E+01 -5.39387E+01 -3.21503E+01 -4.12585E+01 -3.33023E+01 -2.21737E+00 -2.19867E+01
  -3.88855E+01 -3.82352E+01 -3.14535E+01 -2.01652E+01 -5.34444E+00 -7.57218E+00 -2.76300E+01 -1.44556E+01 -1.90276E+01 -2.59647E+01
  -1.12495E+01  2.57085E+00  1.09774E+01  5.96819E+00  1.17541E+01  8.68251E+00 -6.45470E-01 -2.65339E+01 -2.47954E+01 -2.48923E+01
  -5.48933E+01 -4.82057E+01 -3.74656E+01 -1.25603E+01  1.19379E+01  2.72483E+01  4.20277E+01  6.03559E+01  6.30011E+01  5.10626E+01
   2.25962E+01  9.93601E-01  2.21977E+01 -1.21430E+00 -1.98417E+00  7.26506E+00  3.41544E+00  1.07999E+01 -6.21397E+00 -1.77873E+01
  -3.12056E+01 -1.88022E+01 -1.69152E+01 -2.31575E+01 -3.63478E+01 -4.77915E+01 -5.60889E+01 -7.29473E+01 -9.62272E+01 -1.17778E+02
  -7.51533E+01 -6.01920E+01 -5.37660E+01 -3.11454E+01 -2.71809E+01 -3.34300E+01 -2.12735E+01 -1.73877E+01 -4.18517E+01 -7.88735E+00
  -2.10639E+01 -4.56056E+01 -4.60523E+01 -5.25206E+01 -5.41916E+01 -7.20899E+01 -5.72174E+01 -2.47370E+01  7.06505E+01  1.36864E+02
   1.22367E+02  1.29770E+02  1.37385E+02  1.25164E+02  1.17412E+02  8.41325E+01  7.99558E+01  9.48273E+01  5.62283E+01  8.38633E+01
   7.03841E+01  4.46936E+01  8.02671E+01  6.37865E+01  7.53559E+01  6.22821E+01  5.54769E+01  8.32933E+01  6.14069E+01  5.75966E+01
   7.04272E+01  6.56375E+01  7.08086E+01  7.58478E+01  6.55396E+01  5.62836E+01  6.44330E+01  5.20044E+01  3.71895E+01  5.35137E+01
   4.39877E+01  5.70214E+01  6.07749E+01  4.44256E+01  4.43642E+01  4.08571E+01  5.01049E+01  3.32966E+01  4.89683E+01  5.43069E+01
   4.63894E+01  5.09586E+01  3.47187E+01  5.21170E+01  6.22997E+01  6.74359E+01  7.06829E+01  1.07530E+02  1.19382E+02  8.25830E+01
   1.03932E+02  1.05044E+02  8.13268E+01  5.93668E+01  5.24152E+01  6.28637E+01  4.37589E+01  4.18797E+01  3.71387E+01  2.71388E+01
   4.52914E+01  6.14789E+01  6.64561E+01  5.69169E+01  7.77093E+01  9.00650E+01  6.92689E+01  8.26295E+01  8.66588E+01  8.03310E+01
   8.53837E+01  6.73326E+01  5.24416E+01  4.66624E+01  6.01944E+00  3.50170E+00  1.85871E+01  3.64103E+00  1.19628E+01  9.27085E+00
   4.20885E+01  5.34884E+01  2.81906E+01  2.01693E+01  1.25390E+01  3.52078E+01  3.24659E+01  1.83194E+01  2.26541E+01  4.21761E+01
   2.56041E+01  3.32869E+01  5.07094E+01  1.85907E+01  4.33106E+01  2.15027E+01  9.24449E+00  1.94895E+01 -5.79798E+00  9.87374E+00
   1.99305E+01  2.05276E+01  7.83459E+00  1.91459E+01  2.60338E+01  2.89293E+01  3.57196E+01  2.98507E+01  3.90644E+01  2.21395E+01
   3.41022E+01  5.21694E+01  6.30403E+01  6.16232E+01  5.54588E+01  7.76235E+01  6.43300E+01  8.35656E+01  8.53362E+01  7.08216E+01
   9.99029E+01  9.63663E+01  8.80644E+01  8.27113E+01  1.15099E+02  1.36639E+02  1.33207E+02  1.38708E+02  1.14394E+02  1.34015E+02
   1.27352E+02  1.04362E+02  1.14264E+02  8.20384E+01  6.95522E+01  6.96898E+01  7.19554E+01  7.07508E+01  4.65140E+01  4.67708E+01
   3.84412E+01  1.37002E+01  9.33078E+00  1.27871E+01  4.79048E-03 -6.63403E+00  1.29326E+00 -1.63864E+00 -3.31996E+00 -8.58938E+00
  -3.85297E+00 -6.44596E+00 -7.81905E+00  9.34573E+00 -2.30833E+01 -3.18596E+01 -1.09844E+01 -1.76343E+01 -2.04901E+00 -8.48438E-01
  -2.12554E+01 -2.43817E+00  3.77899E+00 -2.10566E+01 -4.18089E+00 -6.76753E+00 -1.19064E+01 -3.14228E+00 -1.12001E+00  6.66718E+00
  -8.68348E+00  8.17451E+00 -7.51417E+00 -7.05790E+00  1.34703E+01 -5.66186E+00 -3.21086E+00 -2.04226E+01  1.60066E+00 -7.18483E-01
  -3.05114E+01 -1.16446E+01 -1.77124E+01 -5.38211E+00  2.14663E+01 -4.46440E+00 -9.70207E+00  3.05400E+00 -2.10879E+01 -1.16111E+01
  -5.20894E+00 -1.03345E+00 -4.06688E+00 -1.48674E+01 -1.27860E+00 -9.21417E+00  7.31538E+00  5.02231E+00 -7.99075E+00  4.53882E+00
  -3.06513E+00 -1.04265E+01  1.32638E+01  1.80965E+01 -3.19014E+00 -8.01990E-01  4.16239E+00  1.94990E+01  3.91843E-01 -2.18392E-01
   6.64433E+00 -6.88475E+00  1.16404E+01 -6.97442E+00  1.13178E+01  2.54223E+01 -5.39822E+00 -5.25563E+00  1.56579E+00  1.96630E+01
 NY points of the fit to the data follow
  -3.24908E+01 -3.60865E+01 -4.10440E+01 -4.44324E+01 -4.29983E+01 -3.39525E+01 -2.19961E+01 -1.84749E+01 -2.45538E+01 -3.26468E+01
  -3.89600E+01 -4.36351E+01 -4.56248E+01 -4.54445E+01 -4.45028E+01 -4.44541E+01 -4.38232E+01 -4.56312E+01 -5.01748E+01 -5.82215E+01
  -6.84411E+01 -6.95975E+01 -6.13914E+01 -4.99200E+01 -3.07033E+01 -3.30727E+00  1.06280E+01  1.43903E+01  2.32999E+01  2.65432E+01
   2.72491E+01  2.64670E+01  2.47725E+01  2.22781E+01  1.79426E+01  1.21415E+01  5.30427E+00 -6.71018E+00 -2.55298E+01 -5.10263E+01
  -7.48812E+01 -8.34534E+01 -7.12012E+01 -5.04419E+01 -3.40538E+01 -1.41840E+01  3.08247E+00  1.63097E+01  2.35375E+01  2.85987E+01
   2.98504E+01  2.69405E+01  2.19091E+01  1.28866E+01  4.08406E+00 -1.50971E+00 -3.78385E+00 -4.79006E+00 -9.91863E+00 -1.68090E+01
  -1.36783E+01 -3.16128E+00  2.33404E+00  1.10244E+01  2.58458E+01  3.24890E+01  3.12226E+01  2.40852E+01  7.67333E+00 -1.02965E+01
  -1.70164E+01 -1.03291E+01 -3.28129E+00  2.39368E+00  1.61433E+01  2.99488E+01  3.70174E+01  4.21778E+01  4.50529E+01  4.56521E+01
   4.09731E+01  3.00175E+01  1.45651E+01 -1.89672E+00 -1.39323E+01 -1.66040E+01 -8.88506E+00  1.32115E+00  1.58766E+01  2.51091E+01
   3.26281E+01  3.93056E+01  4.45615E+01  4.96726E+01  5.43624E+01  5.88283E+01  6.25687E+01  6.56439E+01  6.74018E+01  6.78777E+01
   6.81078E+01  6.82381E+01  5.95727E+01  4.34515E+01  2.72342E+01  1.13229E+01 -2.87350E+00 -1.25264E+01 -2.84583E+01 -6.92279E+01
  -1.10994E+02 -1.27478E+02 -1.07301E+02 -8.70245E+01 -7.31741E+01 -5.81361E+01 -4.76965E+01 -3.89178E+01 -3.11064E+01 -2.39372E+01
  -1.69381E+01 -9.66671E+00 -1.80685E+00  6.91512E+00  1.69045E+01  2.79710E+01  3.97069E+01  5.02793E+01  6.26150E+01  7.74985E+01
   9.11080E+01  9.11143E+01  5.39902E+01 -1.33509E+01 -6.16679E+01 -6.74119E+01 -6.64925E+01 -6.70603E+01 -6.14594E+01 -5.93845E+01
  -5.87063E+01 -5.92253E+01 -6.09578E+01 -6.25269E+01 -6.31557E+01 -6.31142E+01 -6.21528E+01 -5.95840E+01 -5.68946E+01 -5.45614E+01
  -5.24523E+01 -5.04774E+01 -4.82726E+01 -4.57537E+01 -4.23870E+01 -3.88235E+01 -3.59813E+01 -3.49263E+01 -3.51101E+01 -3.42475E+01
  -3.13174E+01 -2.78411E+01 -2.69318E+01 -2.94918E+01 -3.29597E+01 -3.37212E+01 -3.29854E+01 -3.29801E+01 -3.31762E+01 -3.09050E+01
  -2.36012E+01 -1.25363E+01 -2.06204E+00  5.29478E-01 -4.29280E+00 -6.05479E+00 -7.06817E-01  3.82417E+00  9.13800E-01 -8.93701E+00
  -2.09785E+01 -2.83626E+01 -3.34197E+01 -3.85567E+01 -4.04890E+01 -4.13429E+01 -4.14874E+01 -4.11764E+01 -4.02356E+01 -3.87282E+01
  -3.67625E+01 -3.38617E+01 -3.07042E+01 -2.71530E+01 -2.04063E+01 -1.47424E+01 -1.59187E+01 -1.57506E+01 -1.10949E+01 -9.00392E+00
  -8.45011E+00 -6.20869E+00 -1.26303E+00  5.46520E+00  6.73626E+00  2.40460E+00 -3.81155E+00 -1.21299E+01 -2.26376E+01 -3.30544E+01
  -3.88654E+01 -4.25848E+01 -3.85573E+01 -2.57563E+01 -6.33203E+00  1.77792E+01  3.94649E+01  4.87082E+01  4.73790E+01  4.50664E+01
   3.24750E+01  2.58514E+01  2.44635E+01  2.33656E+01  2.34227E+01  2.17485E+01  1.70603E+01  1.03348E+01  1.04743E+00 -9.76688E+00
  -2.11257E+01 -3.30855E+01 -4.49828E+01 -5.62265E+01 -6.65989E+01 -7.61037E+01 -8.23260E+01 -8.54762E+01 -8.60218E+01 -8.21167E+01
  -7.51311E+01 -6.67629E+01 -5.46359E+01 -4.06049E+01 -3.03266E+01 -2.10760E+01 -1.81419E+01 -2.01193E+01 -2.25568E+01 -2.76630E+01
  -3.23117E+01 -3.82683E+01 -4.33452E+01 -4.75019E+01 -5.37192E+01 -6.41048E+01 -6.90141E+01 -2.76562E+01  6.07876E+01  1.19087E+02
   1.21965E+02  1.20569E+02  1.15995E+02  1.07158E+02  1.01758E+02  9.70492E+01  9.24329E+01  8.81627E+01  8.43856E+01  8.13695E+01
   7.94169E+01  7.85649E+01  7.83170E+01  7.85716E+01  7.92070E+01  7.91727E+01  7.91998E+01  7.90396E+01  7.84100E+01  7.74985E+01
   7.59463E+01  7.42199E+01  7.24976E+01  7.07441E+01  6.88307E+01  6.66348E+01  6.44956E+01  6.21402E+01  5.93712E+01  5.61930E+01
   5.26297E+01  4.88567E+01  4.52220E+01  4.18362E+01  3.93929E+01  3.84131E+01  3.86432E+01  4.00074E+01  4.19482E+01  4.41384E+01
   4.65030E+01  4.91718E+01  5.18304E+01  5.42526E+01  5.64931E+01  5.86578E+01  6.08269E+01  6.32533E+01  6.59207E+01  6.84892E+01
   7.06668E+01  7.25782E+01  7.43418E+01  7.59635E+01  7.73284E+01  7.80221E+01  7.82423E+01  7.79608E+01  7.68135E+01  7.50174E+01
   7.30249E+01  7.04806E+01  6.73333E+01  6.37943E+01  5.97303E+01  5.45020E+01  4.78956E+01  3.98137E+01  3.10457E+01  2.29469E+01
   1.58431E+01  1.03011E+01  6.98178E+00  6.34218E+00  8.27992E+00  1.22509E+01  1.72982E+01  2.24814E+01  2.78316E+01  3.19587E+01
   3.44294E+01  3.24037E+01  2.59254E+01  1.87801E+01  1.43483E+01  1.29485E+01  1.54643E+01  2.10781E+01  2.28458E+01  2.47877E+01
   2.46757E+01  2.30494E+01  2.03075E+01  1.66646E+01  1.28148E+01  9.99250E+00  8.50927E+00  8.19095E+00  9.03041E+00  1.09618E+01
   1.35095E+01  1.66285E+01  2.00553E+01  2.35555E+01  2.69998E+01  3.01404E+01  3.30937E+01  3.60770E+01  3.90009E+01  4.21327E+01
   4.51908E+01  4.81759E+01  5.14516E+01  5.50108E+01  5.90712E+01  6.37179E+01  6.87368E+01  7.42290E+01  8.05140E+01  8.74799E+01
   9.44684E+01  1.02031E+02  1.10130E+02  1.18019E+02  1.24799E+02  1.29576E+02  1.31217E+02  1.28820E+02  1.22600E+02  1.13651E+02
   1.03915E+02  9.50435E+01  8.72141E+01  8.04253E+01  7.41226E+01  6.77427E+01  6.01663E+01  5.16612E+01  4.29415E+01  3.45416E+01
   2.69295E+01  2.08244E+01  1.61754E+01  1.24259E+01  9.64912E+00  7.64872E+00  6.25528E+00  4.89194E+00  3.68749E+00  2.55149E+00
   1.74498E+00  1.24715E+00  1.04169E+00  8.59042E-01  6.62601E-01  5.90727E-01  6.36142E-01  4.92606E-01  2.56833E-01  3.71181E-01
   7.24453E-01  7.85642E-01  6.08266E-01  6.88841E-01  8.46678E-01  8.17385E-01  7.43786E-01  8.41351E-01  1.21985E+00  1.55909E+00
   1.71162E+00  1.64334E+00  1.55463E+00  1.45859E+00  1.51777E+00  1.73207E+00  2.04759E+00  2.36841E+00  2.56797E+00  2.81516E+00
   2.87525E+00  3.03522E+00  3.09308E+00  3.00047E+00  2.84936E+00  2.83409E+00  2.97373E+00  3.16360E+00  3.38107E+00  3.45501E+00
   3.51885E+00  3.50671E+00  3.51547E+00  3.78654E+00  4.02465E+00  4.18627E+00  4.34855E+00  4.43832E+00  4.52307E+00  4.61482E+00
   4.69048E+00  4.59074E+00  4.40538E+00  4.22203E+00  4.22156E+00  4.23317E+00  4.41226E+00  4.78170E+00  5.07854E+00  5.07255E+00
   4.76792E+00  4.30411E+00  3.96902E+00  3.76100E+00  3.69270E+00  3.49673E+00  3.33940E+00  3.13819E+00  2.72381E+00  2.27076E+00
 NY background values follow
     3.546E-01    3.918E-01    4.290E-01    4.663E-01    5.035E-01    5.407E-01    5.780E-01    6.152E-01    6.524E-01    6.897E-01
     7.269E-01    7.641E-01    8.014E-01    8.386E-01    8.758E-01    9.131E-01    9.503E-01    9.875E-01    1.025E+00    1.062E+00
     1.099E+00    1.136E+00    1.174E+00    1.211E+00    1.248E+00    1.285E+00    1.323E+00    1.360E+00    1.397E+00    1.434E+00
     1.472E+00    1.509E+00    1.546E+00    1.583E+00    1.620E+00    1.658E+00    1.695E+00    1.732E+00    1.769E+00    1.807E+00
     1.844E+00    1.881E+00    1.918E+00    1.956E+00    1.993E+00    2.030E+00    2.067E+00    2.104E+00    2.142E+00    2.179E+00
     2.216E+00    2.253E+00    2.291E+00    2.328E+00    2.365E+00    2.402E+00    2.440E+00    2.477E+00    2.514E+00    2.551E+00
     2.588E+00    2.626E+00    2.663E+00    2.700E+00    2.737E+00    2.775E+00    2.812E+00    2.849E+00    2.886E+00    2.924E+00
     2.961E+00    2.998E+00    3.035E+00    3.072E+00    3.110E+00    3.147E+00    3.184E+00    3.221E+00    3.259E+00    3.296E+00
     3.333E+00    3.370E+00    3.407E+00    3.445E+00    3.482E+00    3.519E+00    3.556E+00    3.594E+00    3.631E+00    3.668E+00
     3.705E+00    3.742E+00    3.780E+00    3.817E+00    3.854E+00    3.891E+00    3.929E+00    3.966E+00    4.003E+00    4.040E+00
     4.077E+00    4.115E+00    4.152E+00    4.189E+00    4.226E+00    4.263E+00    4.301E+00    4.338E+00    4.375E+00    4.412E+00
     4.450E+00    4.487E+00    4.524E+00    4.561E+00    4.598E+00    4.636E+00    4.673E+00    4.710E+00    4.747E+00    4.784E+00
     4.822E+00    4.859E+00    4.896E+00    4.933E+00    4.970E+00    5.008E+00    5.045E+00    5.082E+00    5.119E+00    5.156E+00
     5.194E+00    5.231E+00    5.268E+00    5.305E+00    5.342E+00    5.380E+00    5.417E+00    5.454E+00    5.491E+00    5.528E+00
     5.566E+00    5.603E+00    5.640E+00    5.677E+00    5.714E+00    5.752E+00    5.789E+00    5.826E+00    5.863E+00    5.900E+00
     5.938E+00    5.975E+00    6.012E+00    6.049E+00    6.086E+00    6.124E+00    6.161E+00    6.198E+00    6.235E+00    6.272E+00
     6.309E+00    6.347E+00    6.384E+00    6.421E+00    6.458E+00    6.495E+00    6.533E+00    6.570E+00    6.607E+00    6.644E+00
     6.681E+00    6.718E+00    6.756E+00    6.793E+00    6.830E+00    6.867E+00    6.904E+00    6.941E+00    6.979E+00    7.016E+00
     7.053E+00    7.090E+00    7.127E+00    7.164E+00    7.202E+00    7.239E+00    7.276E+00    7.313E+00    7.350E+00    7.387E+00
     7.425E+00    7.462E+00    7.499E+00    7.536E+00    7.573E+00    7.610E+00    7.648E+00    7.685E+00    7.722E+00    7.759E+00
     7.796E+00    7.833E+00    7.870E+00    7.908E+00    7.945E+00    7.982E+00    8.019E+00    8.056E+00    8.093E+00    8.130E+00
     8.168E+00    8.205E+00    8.242E+00    8.279E+00    8.316E+00    8.353E+00    8.390E+00    8.428E+00    8.465E+00    8.502E+00
     8.539E+00    8.576E+00    8.613E+00    8.650E+00    8.688E+00    8.725E+00    8.762E+00    8.799E+00    8.836E+00    8.873E+00
     8.910E+00    8.947E+00    8.985E+00    9.022E+00    9.059E+00    9.096E+00    9.133E+00    9.170E+00    9.207E+00    9.244E+00
     9.282E+00    9.319E+00    9.356E+00    9.393E+00    9.430E+00    9.467E+00    9.504E+00    9.541E+00    9.579E+00    9.616E+00
     9.653E+00    9.690E+00    9.727E+00    9.764E+00    9.801E+00    9.838E+00    9.875E+00    9.913E+00    9.950E+00    9.987E+00
     1.002E+01    1.006E+01    1.010E+01    1.014E+01    1.017E+01    1.021E+01    1.025E+01    1.028E+01    1.032E+01    1.036E+01
     1.039E+01    1.043E+01    1.047E+01    1.051E+01    1.054E+01    1.058E+01    1.062E+01    1.065E+01    1.069E+01    1.073E+01
     1.077E+01    1.080E+01    1.084E+01    1.088E+01    1.091E+01    1.095E+01    1.099E+01    1.103E+01    1.106E+01    1.110E+01
     1.114E+01    1.117E+01    1.121E+01    1.125E+01    1.129E+01    1.132E+01    1.136E+01    1.140E+01    1.143E+01    1.147E+01
     1.151E+01    1.154E+01    1.158E+01    1.162E+01    1.166E+01    1.169E+01    1.173E+01    1.177E+01    1.180E+01    1.184E+01
     1.188E+01    1.192E+01    1.195E+01    1.199E+01    1.203E+01    1.206E+01    1.210E+01    1.214E+01    1.217E+01    1.221E+01
     1.225E+01    1.229E+01    1.232E+01    1.236E+01    1.240E+01    1.243E+01    1.247E+01    1.251E+01    1.255E+01    1.258E+01
     1.262E+01    1.266E+01    1.269E+01    1.273E+01    1.277E+01    1.280E+01    1.284E+01    1.288E+01    1.292E+01    1.295E+01
     1.299E+01    1.303E+01    1.306E+01    1.310E+01    1.314E+01    1.318E+01    1.321E+01    1.325E+01    1.329E+01    1.332E+01
     1.336E+01    1.340E+01    1.343E+01    1.347E+01    1.351E+01    1.355E+01    1.358E+01    1.362E+01    1.366E+01    1.369E+01
     1.373E+01    1.377E+01    1.380E+01    1.384E+01    1.388E+01    1.392E+01    1.395E+01    1.399E+01    1.403E+01    1.406E+01
     1.410E+01    1.414E+01    1.417E+01    1.421E+01    1.425E+01    1.429E+01    1.432E+01    1.436E+01    1.440E+01    1.443E+01
     1.447E+01    1.451E+01    1.455E+01    1.458E+01    1.462E+01    1.466E+01    1.469E+01    1.473E+01    1.477E+01    1.480E+01
     1.484E+01    1.488E+01    1.492E+01    1.495E+01    1.499E+01    1.503E+01    1.506E+01    1.510E+01    1.514E+01    1.517E+01
     1.521E+01    1.525E+01    1.529E+01    1.532E+01    1.536E+01    1.540E+01    1.543E+01    1.547E+01    1.551E+01    1.554E+01
     1.558E+01    1.562E+01    1.566E+01    1.569E+01    1.573E+01    1.577E+01    1.580E+01    1.584E+01    1.588E+01    1.591E+01
     1.595E+01    1.599E+01    1.603E+01    1.606E+01    1.610E+01    1.614E+01    1.617E+01    1.621E+01    1.625E+01    1.628E+01
     1.632E+01    1.636E+01    1.640E+01    1.643E+01    1.647E+01    1.651E+01    1.654E+01    1.658E+01    1.662E+01    1.665E+01
     1.669E+01    1.673E+01    1.677E+01    1.680E+01    1.684E+01    1.688E+01    1.691E+01    1.695E+01    1.699E+01    1.702E+01
     1.706E+01    1.710E+01    1.714E+01    1.717E+01    1.721E+01    1.725E+01    1.728E+01    1.732E+01    1.736E+01    1.739E+01
     1.743E+01    1.747E+01    1.751E+01    1.754E+01    1.758E+01    1.762E+01    1.765E+01    1.769E+01    1.773E+01    1.776E+01
     1.780E+01    1.784E+01    1.788E+01    1.791E+01    1.795E+01    1.799E+01    1.802E+01    1.806E+01    1.810E+01    1.813E+01
 Mac      Conc. = 2.77E-04
  -1.84607E+01 -1.88049E+01 -1.90271E+01 -1.94680E+01 -2.01469E+01 -2.12859E+01 -2.28157E+01 -2.45929E+01 -2.62087E+01 -2.73897E+01
  -2.80322E+01 -2.83369E+01 -2.86753E+01 -2.94479E+01 -3.08178E+01 -3.24120E+01 -3.28861E+01 -3.10952E+01 -2.71839E+01 -2.30908E+01
  -1.98120E+01 -1.66080E+01 -1.37800E+01 -1.22597E+01 -1.11230E+01 -9.76855E+00 -8.21460E+00 -6.42629E+00 -4.55737E+00 -2.69486E+00
  -1.37449E+00 -3.60558E-01  3.89680E-01  7.07020E-01  5.83355E-01  6.58398E-01  1.66057E+00  3.58689E+00  5.82913E+00  7.21887E+00
   7.50830E+00  7.53940E+00  8.13080E+00  9.30519E+00  1.05473E+01  1.14781E+01  1.16420E+01  1.11945E+01  1.04246E+01  9.22655E+00
   8.04555E+00  7.08626E+00  6.42943E+00  5.80280E+00  5.48947E+00  5.62717E+00  6.15509E+00  7.30287E+00  8.64046E+00  9.76813E+00
   1.09724E+01  1.21408E+01  1.25679E+01  1.21765E+01  1.15158E+01  1.07835E+01  1.01964E+01  9.94387E+00  9.73636E+00  1.00578E+01
   1.13795E+01  1.37150E+01  1.59671E+01  1.75103E+01  1.84343E+01  1.88060E+01  1.85243E+01  1.79327E+01  1.73118E+01  1.66751E+01
   1.64054E+01  1.61472E+01  1.62197E+01  1.67759E+01  1.76337E+01  1.84966E+01  1.92982E+01  2.01438E+01  2.08673E+01  2.14746E+01
   2.19710E+01  2.24862E+01  2.26368E+01  2.25325E+01  2.18827E+01  2.04264E+01  1.83720E+01  1.61628E+01  1.39771E+01  1.20501E+01
   1.03527E+01  8.23780E+00  5.50786E+00  2.04738E+00 -2.36518E+00 -8.03390E+00 -1.42875E+01 -1.97338E+01 -2.30490E+01 -2.38659E+01
