 
 $NMID
 ID=''
 FMTDAT='(2E13.5)'
 TRAMP=   1.00000E+0
 VOLUME=   1.00000E+0
 $END
   2.73655E+4   6.84936E+2
   2.78296E+4  -2.27356E+4
  -1.65690E+4  -2.39770E+4
  -2.32272E+4   2.81377E+4
   2.01344E+4   2.44128E+4
   2.12013E+4  -2.43494E+4
  -1.49109E+4  -1.47455E+4
  -1.03301E+4   2.08893E+4
   1.30780E+4   1.03003E+4
   4.81122E+3  -1.01686E+4
  -1.00153E+4  -3.76232E+3
  -5.38697E+3   5.21258E+3
   2.54685E+3   3.50530E+3
   1.36454E+3  -2.49197E+3
  -1.74055E+3  -4.83503E+3
  -5.92194E+2   3.98197E+2
   1.69398E+3   3.78474E+3
   3.35579E+2   1.17888E+1
  -2.77181E+2  -1.57614E+3
   1.98207E+2   4.32615E+2
  -9.09365E+2   3.17967E+2
   3.92064E+2   3.46475E+2
   2.04600E+3   1.44267E+3
  -9.62388E+2   2.11320E+2
  -1.96142E+3  -1.62678E+3
   1.68936E+3   2.86284E+2
   6.16009E+2   2.94654E+3
  -2.84259E+3   1.26812E+3
  -1.03352E+3  -2.03207E+3
   1.26485E+3  -6.22287E+2
  -4.26851E+2   1.86991E+3
  -1.59966E+3   6.20096E+2
  -1.31957E+3  -1.45928E+3
  -5.50404E+2  -1.62932E+3
   1.71757E+3  -1.29225E+3
   2.65131E+3   4.49438E+2
   1.25675E+2   1.94228E+3
  -1.49242E+3   1.04064E+3
  -1.26904E+2  -4.70198E+1
   7.03494E+2   3.31983E+2
  -1.06832E+3  -4.93314E+2
  -6.70013E+2  -1.36240E+3
   1.39940E+3  -1.16228E+2
   1.55276E+3   6.32745E+2
   5.58020E+2   2.09479E+2
   2.28588E+2   1.13308E+3
  -9.50922E+2   1.95615E+3
  -1.96484E+3  -6.08603E+2
  -6.62242E+2  -2.43764E+3
   9.33965E+2  -1.38399E+3
   7.43838E+2  -2.38874E+2
   6.13694E+2  -8.52354E+2
   7.87965E+2  -3.77393E+2
   2.09378E+2   1.02580E+3
  -2.35645E+2   9.40585E+2
  -2.48897E+2  -1.40934E+2
  -4.39699E+2  -6.91037E+2
  -1.35606E+2  -9.89467E+2
   1.09839E+3  -6.47586E+2
   1.60493E+3   5.43450E+1
   8.18179E+2   5.12751E+2
  -3.14115E+2   8.98941E+2
  -7.31579E+2   9.10006E+2
  -1.19254E+3   4.47111E+2
  -1.31507E+3  -8.89326E+2
  -7.61939E+2  -1.76084E+3
   5.07519E+2  -1.74969E+3
   1.65148E+3  -9.03437E+2
   1.13756E+3   5.39569E+2
  -4.96054E+2   6.69009E+2
  -5.87115E+2  -4.16503E+2
   1.02928E+3  -8.41003E+2
   1.04101E+3   3.24950E+2
  -5.19876E+2   1.05860E+3
  -8.07281E+2  -8.86088E+1
   2.56924E+2  -7.20661E+2
   2.26105E+2  -7.82162E+1
  -6.17753E+2   4.81297E+2
  -5.49466E+2   2.15156E+2
   1.37994E+2  -3.31955E+2
  -3.48885E+2  -8.69233E+2
  -3.10520E+2  -1.02656E+3
   9.59903E+1  -5.30991E+2
   2.26365E+2   8.32378E+0
  -1.31432E+2  -6.63725E+2
   2.37720E+2  -7.18344E+2
   8.19954E+2   6.11587E+1
   2.51281E+2   2.65202E+2
  -2.21970E+2   2.56393E+2
   6.07792E+1  -5.89953E+1
   6.39856E+2   5.72948E+2
   1.39045E+2   8.67547E+2
  -9.98409E+2   3.60260E+2
  -1.20050E+3  -4.19060E+2
  -8.82035E+1  -9.47157E+2
   1.02884E+3  -7.44211E+2
   4.18252E+2  -2.64864E+2
  -4.37008E+1  -2.28199E+2
   2.74879E+2  -3.55424E+2
   9.31064E+2  -4.28499E+1
   3.26889E+2   5.68243E+2
  -5.25487E+2   3.10662E+2
  -7.37545E+2  -1.44664E+2
  -2.25720E+2  -6.29222E+2
   4.78031E+2  -3.81010E+2
   7.19063E+2   7.25488E+2
  -2.85267E+2   9.50726E+2
  -1.05870E+3  -2.32782E+2
  -4.35940E+2  -1.34512E+3
   1.21526E+3  -1.00161E+3
   1.51363E+3   5.77980E+2
   2.39430E+2   7.52840E+2
  -3.69915E+2   4.39857E+2
  -1.09383E+2   3.49407E+2
   7.42529E+1   3.52265E+2
  -6.44125E+2   2.08033E+2
  -1.12544E+3  -3.95343E+2
  -7.22263E+2  -9.67190E+2
   2.13152E+2  -1.17597E+3
   8.40323E+2  -4.34023E+2
   7.54366E+2   8.79372E+1
   4.05250E+2   4.42719E+2
  -1.74800E+0   6.26930E+2
  -3.10341E+2   5.89121E+2
  -5.94239E+2   2.20793E+2
  -1.80871E+2  -2.30460E+2
  -9.19777E+1  -4.03509E+2
   2.31452E+2  -3.98685E+2
   2.35596E+2   6.69017E+1
  -1.91628E+1   5.04415E+2
  -6.30447E+2   5.95514E+2
  -6.07295E+2  -3.52659E+2
   2.21893E+2  -5.90266E+2
   3.65252E+2   8.87631E+1
  -3.62395E+2   1.70806E+2
  -4.52803E+1  -4.39037E+2
   7.56726E+2  -1.56422E+2
   4.99013E+2   4.77568E+2
  -3.69308E+1   7.28883E+2
  -5.00325E+2   4.39439E+2
  -5.03727E+2  -1.93122E+2
   5.45054E+2  -4.52943E+2
   7.08108E+2  -1.41030E+2
   4.28693E+2   6.81242E+2
  -2.93540E+2   6.40745E+2
  -6.00802E+2   3.88102E+2
  -3.92288E+2  -2.94527E+2
  -3.66013E+2  -1.07462E+2
  -1.76842E+2  -2.53924E+1
  -1.03269E+2  -2.34216E+2
   4.86746E+2  -5.55510E+2
   6.52640E+2  -3.47276E+2
   6.82925E+2   5.54932E+2
   2.15197E+2   6.70401E+2
  -2.80562E+2   3.57469E+2
  -1.71686E+2  -2.03412E+2
   3.91880E+2   6.62652E+1
   1.18290E+2   3.44112E+2
  -1.22846E+2   3.04488E+2
   2.14776E+2   1.10173E+2
   2.37883E+1   1.07241E+2
  -2.05516E+2   5.60106E+0
  -3.17203E+2  -1.28152E+2
  -8.81893E+1  -4.17093E+2
   2.28373E+2  -7.15282E+2
   5.59113E+2  -3.62475E+2
   4.04358E+2   2.85882E+2
  -9.91774E+0   1.95001E+2
  -3.93782E+2   1.76672E+1
   2.68348E+2  -6.80744E+1
   4.78869E+2   1.56669E+2
   1.25228E+2   1.70794E+2
  -2.85050E+1   5.50216E+1
  -8.50480E+1  -3.47533E+2
   1.28187E+2  -4.43338E+1
   7.86514E+1   2.41371E+2
  -3.14882E+2   3.80914E+2
  -4.23072E+2  -1.08778E+2
  -2.36851E+2  -2.98866E+2
   3.91447E+2  -2.32783E+2
   3.40204E+2   4.33503E+2
   7.90847E+1   6.85439E+2
  -4.02146E+2   1.56284E+1
  -1.23208E+2  -3.33184E+2
  -2.55251E+2  -2.30842E+2
  -1.66210E+2  -3.16685E+2
  -3.78879E+2  -3.37336E+2
   2.65350E+1  -5.46386E+2
   2.81410E+2  -3.75708E+2
   7.30079E+2   3.23596E+2
   1.16582E+1   8.06924E+2
  -7.91440E+2   3.15275E+2
  -5.66023E+2  -2.34069E+2
  -2.34567E+2  -1.95811E+2
   2.15339E+1  -1.46691E+2
   1.47979E+2   1.20123E+2
   1.87566E+1   4.82357E+1
   2.11162E+1   4.58603E+1
  -2.65846E+1   2.44991E+2
  -4.97805E+2   3.00061E+2
  -3.76596E+2   7.63234E+1
  -2.49497E+2  -3.15927E+2
   3.61521E+2  -2.52925E+2
   3.65951E+2  -2.60581E+1
   1.69394E+2   2.98380E+2
   2.41135E+0   2.06963E+2
  -1.06316E+2   6.08960E+1
  -6.93068E+1  -9.16979E+1
   1.93818E+1   1.72475E+2
  -1.69507E+2   1.65316E+2
  -4.76426E+2  -2.21859E+2
   1.39240E+2  -2.70560E+2
   5.86124E+2   1.80590E+2
   1.00724E+2   5.73004E+2
  -7.05258E+2   4.10351E+2
  -5.29868E+2  -1.83475E+2
  -1.14737E+2  -3.29802E+2
   1.05187E+2  -1.91378E+2
  -1.12754E+2  -1.10136E+2
   2.13768E+2   4.31239E+1
  -6.12247E+1   2.23318E+1
   5.70920E+2   1.01724E+0
   1.92816E+2   5.89448E+2
  -3.04161E+2   4.34248E+2
  -3.42719E+2  -8.75742E+1
  -1.51336E+2  -2.98314E+2
   2.00782E+2  -8.14150E+1
   1.51581E+2   2.54940E+2
  -1.06863E+2   4.77084E+2
  -2.53301E+2  -5.16300E+1
  -1.46559E+2  -9.78585E+1
   4.78707E+1  -1.08068E+2
   1.12293E+2   1.14943E+2
  -1.42393E+2   1.06395E+2
  -1.09819E+2  -3.78917E+2
  -5.61536E+1  -1.81026E+2
   2.60812E+2   2.98364E+2
  -1.59981E+2   3.09272E+2
  -1.27981E+2  -2.93083E+1
   1.05707E+2  -1.05743E+2
   1.93947E+1  -3.64262E+1
   4.24945E+1   2.95490E+1
  -1.50958E+2   1.00020E+2
  -2.67747E+2  -6.29206E+1
   6.89324E+1  -3.15995E+2
  -3.93258E+1   4.19665E+1
  -1.84053E+2   2.92832E+2
  -2.68270E+2   4.19360E+1
  -1.32584E+1  -2.40941E+2
   1.99707E+2  -4.20769E+1
   2.67047E+2  -9.91269E+1
  -3.59247E+1   2.18654E+2
  -4.46041E+2   2.83158E+2
  -2.76956E+2  -3.83301E+2
   5.83208E+1  -1.14483E+2
   2.26044E+2   1.00856E+2
   5.57688E+1   2.30618E+2
   3.93392E+1   1.83720E+2
  -1.60798E+2   3.22487E+1
  -6.95807E+1   1.11204E+2
  -3.07627E+2   1.38888E+2
  -3.99335E+2   1.30578E+1
  -1.52034E+2  -1.02566E+2
   3.97096E+2  -3.51403E+2
  -1.02160E+1  -1.22324E+2
   1.86529E+2   2.16519E+2
   5.99572E+1   3.55105E+2
  -2.59816E+2   2.57615E+1
  -1.43303E+2  -8.62243E+1
  -1.03730E+2  -2.86211E+1
  -8.41976E+1   6.42522E+0
  -6.78443E+0   1.25132E+2
   4.75841E+1  -1.85666E+1
   1.34377E+2   1.92206E+2
  -1.33941E+1   1.98308E+2
  -3.08357E+2   1.97471E+2
  -1.87986E+2  -6.93561E+1
   4.54117E+1  -6.84067E+1
  -1.55889E+1   1.08147E+1
   1.64738E+2   3.09830E+2
  -1.87518E+2   6.94707E+1
  -2.65792E+1   1.76708E+2
   1.23948E+2   7.42640E+1
   7.65117E+1   2.62272E+2
  -3.00552E+2   1.51486E+2
  -5.12618E+2   8.62383E+0
   9.73300E+1  -2.59863E+2
   3.79989E+2  -2.42031E+2
   3.12078E+2   2.05262E+2
  -2.71873E+1   5.11426E+2
  -1.10098E+2   2.60131E+2
  -1.70802E+1  -3.18643E+2
  -5.45558E+1   7.74123E+1
   1.36218E+2  -1.35909E+2
  -6.39564E+1  -5.09917E+1
   8.89514E+0  -1.64301E+2
   1.50218E+2   1.09978E+2
   1.99127E+2   2.20404E+2
  -2.95796E+2   1.96670E+2
  -1.98264E+2   1.02084E+2
  -2.17813E+2   1.17004E+0
   3.99813E+2  -6.67062E+1
   6.17706E+1   1.54767E+2
  -6.54395E+1  -4.01281E+1
  -1.97380E+2   8.26716E+1
  -1.51060E+2  -1.40613E+2
   2.20828E+2  -8.64265E+0
  -7.82341E+1  -2.68912E+1
   2.92205E+1  -4.75337E+1
   5.26375E+1  -4.37146E+1
   6.34479E+1  -5.29875E+1
   2.55838E+2   1.09422E+2
   1.46712E+2   6.61512E+1
  -5.17454E+2   2.11020E+2
  -1.41166E+2  -1.55677E+2
  -2.08904E+2  -5.21639E+1
   1.68581E+2  -1.25525E+2
   7.04111E+1   2.86594E+2
  -1.28209E+1   5.24967E+1
   6.46054E+1  -2.54440E+2
   1.30203E+2   2.33213E+2
   5.80927E+1  -3.44314E+1
  -2.30591E+2   1.04733E+2
  -1.80830E+2  -1.43519E+2
   1.76560E+2  -2.09335E+2
   1.71660E+2   1.31283E+2
   8.95547E+1   2.62146E+2
  -1.51738E+2   3.25388E+2
  -3.46971E+2   2.63486E+1
   1.24273E+2  -2.55860E+2
   3.21800E+1  -1.74386E+2
   2.04169E+2  -2.01921E+1
   1.61388E+2  -1.28902E+2
   2.05824E+1   2.75901E+1
   6.52270E+1   1.13255E+1
  -3.13034E+1   2.09565E+2
  -9.71446E+1   4.03382E+1
  -3.15154E+2  -1.23613E+2
  -1.99220E+2  -2.48109E+2
   2.62559E+2   4.28465E+1
  -1.29803E+1   4.09980E+1
   2.12681E+1   2.48408E+2
  -1.58612E+2   4.04183E+1
   1.21474E+2  -2.40296E+2
  -3.65258E+1  -9.58660E+1
   9.71654E+1   6.64376E+0
  -1.08755E+2  -2.96286E+1
  -5.99013E+1  -1.40209E+1
   2.55215E+2  -3.03061E+1
   1.66656E+2   8.22056E+1
  -4.59500E+1   3.93790E+2
  -3.10453E+2   2.59280E+1
  -1.97895E+2   2.46135E+1
  -5.13700E+1   1.14069E+2
   4.24287E+1   3.37834E-1
  -6.03551E+1  -3.18577E+1
   2.38098E+2  -2.06507E+2
   1.81777E+1   1.06406E+2
   8.39563E+1  -1.87194E+2
  -1.69849E+2   2.57564E+2
  -2.24159E+2   1.87885E+2
  -1.07206E+2  -2.75778E+2
   1.17448E+2  -2.29038E+2
   1.97250E+2  -8.54486E+0
   2.34967E+2   9.67925E+0
  -2.02512E+2   1.28428E+2
  -1.63205E+2  -4.52704E+1
