 
 $NMID
 ID=''
 FMTDAT='(2E13.5)'
 TRAMP=   1.00000E+0
 VOLUME=   1.00000E+0
 $END
  -3.35354E+5   2.89797E+5
  -1.12264E+6   3.87450E+5
  -1.06928E+6   5.32677E+5
  -1.01347E+6   5.24509E+5
  -1.00898E+6   5.60551E+5
  -9.49781E+5   5.92529E+5
  -9.27932E+5   5.89256E+5
  -9.28108E+5   6.37526E+5
  -8.67429E+5   6.70596E+5
  -8.41260E+5   6.56079E+5
  -8.36844E+5   6.82481E+5
  -7.89061E+5   7.10816E+5
  -7.57522E+5   7.08135E+5
  -7.43999E+5   7.24454E+5
  -7.02689E+5   7.38475E+5
  -6.72424E+5   7.37473E+5
  -6.55763E+5   7.55581E+5
  -6.21046E+5   7.65743E+5
  -5.92327E+5   7.62243E+5
  -5.69192E+5   7.75973E+5
  -5.36772E+5   7.83170E+5
  -5.11617E+5   7.80315E+5
  -4.88462E+5   7.87890E+5
  -4.58121E+5   7.89399E+5
  -4.37398E+5   7.80979E+5
  -4.13570E+5   7.85634E+5
  -3.86579E+5   7.87552E+5
  -3.65924E+5   7.80944E+5
  -3.45094E+5   7.76298E+5
  -3.18336E+5   7.71486E+5
  -3.01265E+5   7.66505E+5
  -2.82034E+5   7.65036E+5
  -2.58484E+5   7.58039E+5
  -2.38693E+5   7.49834E+5
  -2.19221E+5   7.44413E+5
  -1.98522E+5   7.38716E+5
  -1.82357E+5   7.32273E+5
  -1.65694E+5   7.25251E+5
  -1.46939E+5   7.14372E+5
  -1.32215E+5   7.05446E+5
  -1.17977E+5   6.96564E+5
  -1.02905E+5   6.85384E+5
  -8.87691E+4   6.73860E+5
  -7.60746E+4   6.64787E+5
  -6.39755E+4   6.53033E+5
  -5.30033E+4   6.42274E+5
  -4.25897E+4   6.31966E+5
  -3.40159E+4   6.19182E+5
  -2.51274E+4   6.06806E+5
  -1.52068E+4   5.95598E+5
  -6.03588E+3   5.84149E+5
   1.14562E+3   5.72437E+5
   7.90679E+3   5.60599E+5
   1.50774E+4   5.49098E+5
   2.14107E+4   5.37551E+5
   2.65544E+4   5.25772E+5
   3.10819E+4   5.13082E+5
   3.61575E+4   5.00430E+5
   4.08678E+4   4.88546E+5
   4.50211E+4   4.77082E+5
   4.82974E+4   4.65507E+5
   5.15532E+4   4.53862E+5
   5.40715E+4   4.42880E+5
   5.60825E+4   4.31645E+5
   5.74494E+4   4.19761E+5
   5.98979E+4   4.07681E+5
   6.16253E+4   3.96660E+5
   6.27439E+4   3.85908E+5
   6.36424E+4   3.75463E+5
   6.34354E+4   3.65406E+5
   6.34700E+4   3.54872E+5
   6.35889E+4   3.44040E+5
   6.41771E+4   3.34084E+5
   6.39049E+4   3.24597E+5
   6.27758E+4   3.14419E+5
   6.20460E+4   3.04466E+5
   6.19616E+4   2.95122E+5
   6.12279E+4   2.86095E+5
   5.99777E+4   2.76450E+5
   5.84690E+4   2.67139E+5
   5.70060E+4   2.58273E+5
   5.58936E+4   2.49606E+5
   5.48295E+4   2.40819E+5
   5.27193E+4   2.32266E+5
   5.10269E+4   2.23534E+5
   4.93631E+4   2.15398E+5
   4.75597E+4   2.07625E+5
   4.61859E+4   1.99404E+5
   4.44536E+4   1.91659E+5
   4.26328E+4   1.83660E+5
   4.10216E+4   1.76113E+5
   3.89907E+4   1.68244E+5
   3.71216E+4   1.61359E+5
   3.51486E+4   1.54509E+5
   3.30274E+4   1.46573E+5
   3.15730E+4   1.39398E+5
   2.97291E+4   1.32876E+5
   2.77002E+4   1.26462E+5
   2.54616E+4   1.19536E+5
   2.38176E+4   1.12281E+5
   2.22922E+4   1.06599E+5
   1.99146E+4   1.00662E+5
   1.73473E+4   9.44483E+4
   1.57902E+4   8.81628E+4
   1.41536E+4   8.25179E+4
   1.21306E+4   7.70785E+4
   1.01838E+4   7.15018E+4
   8.11283E+3   6.59558E+4
   6.18194E+3   6.06400E+4
   3.86499E+3   5.53971E+4
   2.02026E+3   5.00834E+4
   2.79194E+2   4.54101E+4
  -1.65824E+3   4.09427E+4
  -3.94790E+3   3.60371E+4
  -6.32265E+3   3.13739E+4
  -7.82154E+3   2.69188E+4
  -9.68111E+3   2.29364E+4
  -1.17843E+4   1.89689E+4
  -1.34864E+4   1.41833E+4
  -1.50879E+4   1.07487E+4
  -1.68107E+4   7.12251E+3
  -1.88068E+4   3.48324E+3
  -2.02874E+4  -2.04383E+2
  -2.16887E+4  -3.73176E+3
  -2.37772E+4  -6.84266E+3
  -2.52091E+4  -9.86226E+3
  -2.64602E+4  -1.32087E+4
  -2.77707E+4  -1.62497E+4
  -2.89892E+4  -1.89430E+4
  -3.03902E+4  -2.17823E+4
  -3.14735E+4  -2.48249E+4
  -3.27177E+4  -2.73313E+4
  -3.36235E+4  -2.98377E+4
  -3.46596E+4  -3.25103E+4
  -3.54399E+4  -3.49910E+4
  -3.64778E+4  -3.73830E+4
  -3.74270E+4  -3.94805E+4
  -3.81152E+4  -4.16192E+4
  -3.86659E+4  -4.39067E+4
  -3.90431E+4  -4.59972E+4
  -4.01144E+4  -4.77140E+4
  -4.05232E+4  -4.97880E+4
  -4.09421E+4  -5.18092E+4
  -4.13704E+4  -5.33322E+4
  -4.16199E+4  -5.50057E+4
  -4.20113E+4  -5.67783E+4
  -4.22197E+4  -5.83519E+4
  -4.21415E+4  -5.95866E+4
  -4.26668E+4  -6.12293E+4
  -4.29065E+4  -6.26878E+4
  -4.29222E+4  -6.39801E+4
  -4.26278E+4  -6.52646E+4
  -4.27751E+4  -6.64194E+4
  -4.26060E+4  -6.77270E+4
  -4.30409E+4  -6.86057E+4
  -4.27680E+4  -6.98434E+4
  -4.28626E+4  -7.07704E+4
  -4.24869E+4  -7.18538E+4
  -4.26092E+4  -7.27240E+4
  -4.25622E+4  -7.32908E+4
  -4.26866E+4  -7.42236E+4
  -4.22548E+4  -7.49767E+4
  -4.20968E+4  -7.55037E+4
  -4.19351E+4  -7.57668E+4
  -4.18389E+4  -7.66327E+4
  -4.13960E+4  -7.69066E+4
  -4.13853E+4  -7.74849E+4
  -4.12053E+4  -7.77816E+4
  -4.08449E+4  -7.83003E+4
  -4.08099E+4  -7.84382E+4
  -4.06671E+4  -7.84622E+4
  -4.02622E+4  -7.87739E+4
  -3.99505E+4  -7.89884E+4
  -3.97473E+4  -7.91949E+4
  -3.94286E+4  -7.94104E+4
  -3.90508E+4  -7.92538E+4
  -3.86157E+4  -7.96429E+4
  -3.81512E+4  -7.95109E+4
  -3.76454E+4  -7.93135E+4
  -3.74630E+4  -7.96404E+4
  -3.71057E+4  -7.93947E+4
  -3.64850E+4  -7.93697E+4
  -3.56516E+4  -7.92695E+4
  -3.54814E+4  -7.92003E+4
  -3.51591E+4  -7.89234E+4
  -3.43763E+4  -7.88596E+4
  -3.38928E+4  -7.85425E+4
  -3.36655E+4  -7.82570E+4
  -3.31783E+4  -7.80388E+4
  -3.27703E+4  -7.80159E+4
  -3.17928E+4  -7.79624E+4
  -3.11784E+4  -7.75244E+4
  -3.03928E+4  -7.70855E+4
  -2.96339E+4  -7.69947E+4
  -2.91125E+4  -7.66378E+4
  -2.84352E+4  -7.64973E+4
  -2.77876E+4  -7.63092E+4
  -2.71000E+4  -7.59324E+4
  -2.62409E+4  -7.56068E+4
  -2.50843E+4  -7.56667E+4
  -2.46222E+4  -7.49370E+4
  -2.36149E+4  -7.48244E+4
  -2.27241E+4  -7.43069E+4
  -2.22479E+4  -7.38777E+4
  -2.16932E+4  -7.37964E+4
  -2.09192E+4  -7.33421E+4
  -1.98418E+4  -7.29560E+4
  -1.89510E+4  -7.27643E+4
  -1.83443E+4  -7.22375E+4
  -1.77122E+4  -7.19685E+4
  -1.66626E+4  -7.12887E+4
  -1.60409E+4  -7.07895E+4
  -1.51246E+4  -7.05228E+4
  -1.44964E+4  -7.01246E+4
  -1.35775E+4  -6.96511E+4
  -1.27871E+4  -6.92281E+4
  -1.21670E+4  -6.87184E+4
  -1.15644E+4  -6.84429E+4
  -1.07890E+4  -6.73904E+4
  -1.03200E+4  -6.75015E+4
  -9.47127E+3  -6.67956E+4
  -8.89925E+3  -6.64033E+4
  -8.19960E+3  -6.58456E+4
  -7.60752E+3  -6.52308E+4
  -6.89477E+3  -6.49801E+4
  -6.41338E+3  -6.44721E+4
  -5.67689E+3  -6.37972E+4
  -5.13035E+3  -6.34393E+4
  -4.66966E+3  -6.30025E+4
  -4.10530E+3  -6.26279E+4
  -3.43467E+3  -6.21620E+4
  -3.10161E+3  -6.15080E+4
  -2.58584E+3  -6.10629E+4
  -2.14624E+3  -6.03514E+4
  -1.59158E+3  -5.97625E+4
  -1.16931E+3  -5.93710E+4
  -6.00873E+2  -5.88115E+4
  -3.11889E+2  -5.84567E+4
   4.25973E+2  -5.76651E+4
   5.50818E+2  -5.73378E+4
   9.77126E+2  -5.66180E+4
   1.41983E+3  -5.61813E+4
   1.84627E+3  -5.56876E+4
   2.09094E+3  -5.51051E+4
   2.48014E+3  -5.43979E+4
   3.24558E+3  -5.38849E+4
   3.47537E+3  -5.32420E+4
   4.20374E+3  -5.29289E+4
   4.54376E+3  -5.20051E+4
   4.77336E+3  -5.14105E+4
   5.14375E+3  -5.09658E+4
   5.31771E+3  -5.04711E+4
   5.76985E+3  -5.01826E+4
   6.14207E+3  -4.91887E+4
   6.60341E+3  -4.87159E+4
   6.87303E+3  -4.82302E+4
   7.21356E+3  -4.80109E+4
   7.99912E+3  -4.71946E+4
   8.24825E+3  -4.66689E+4
   8.61203E+3  -4.61620E+4
   9.05440E+3  -4.58867E+4
   9.24819E+3  -4.50771E+4
   9.82297E+3  -4.48461E+4
   9.85448E+3  -4.40822E+4
   1.05495E+4  -4.35690E+4
   1.07073E+4  -4.32466E+4
   1.08000E+4  -4.26534E+4
   1.15755E+4  -4.19612E+4
   1.17919E+4  -4.16647E+4
   1.19367E+4  -4.09966E+4
   1.21428E+4  -4.05808E+4
   1.26280E+4  -3.99834E+4
   1.31993E+4  -3.95070E+4
   1.32904E+4  -3.91052E+4
   1.37637E+4  -3.86483E+4
   1.40670E+4  -3.83146E+4
   1.44428E+4  -3.78057E+4
   1.45329E+4  -3.72834E+4
   1.48656E+4  -3.69345E+4
   1.52798E+4  -3.66661E+4
   1.54818E+4  -3.59900E+4
   1.58218E+4  -3.56574E+4
   1.60565E+4  -3.50067E+4
   1.64763E+4  -3.46709E+4
   1.67968E+4  -3.42551E+4
   1.69528E+4  -3.39944E+4
   1.70664E+4  -3.33641E+4
   1.72750E+4  -3.30923E+4
   1.74147E+4  -3.26368E+4
   1.76783E+4  -3.23611E+4
   1.78743E+4  -3.17205E+4
   1.80654E+4  -3.15087E+4
   1.81298E+4  -3.08306E+4
   1.82765E+4  -3.05899E+4
   1.86230E+4  -3.00856E+4
   1.88809E+4  -2.95944E+4
   1.90886E+4  -2.92323E+4
   1.87726E+4  -2.90474E+4
   1.91331E+4  -2.86503E+4
   1.92824E+4  -2.80913E+4
   1.92295E+4  -2.75298E+4
   1.94211E+4  -2.72885E+4
   1.94732E+4  -2.68796E+4
   1.97416E+4  -2.64400E+4
   1.96373E+4  -2.59111E+4
   1.99639E+4  -2.53842E+4
   1.99556E+4  -2.51015E+4
   2.00686E+4  -2.48936E+4
   2.00808E+4  -2.44262E+4
   2.01444E+4  -2.39670E+4
   2.02484E+4  -2.32744E+4
   2.00181E+4  -2.30384E+4
   2.01243E+4  -2.27590E+4
   2.01457E+4  -2.20596E+4
   2.00384E+4  -2.17626E+4
   2.03933E+4  -2.12776E+4
   2.02366E+4  -2.08659E+4
   2.00108E+4  -2.03384E+4
   2.00883E+4  -2.01651E+4
   2.01747E+4  -1.97482E+4
   2.04237E+4  -1.90585E+4
   2.02735E+4  -1.88567E+4
   2.01594E+4  -1.82030E+4
   2.02246E+4  -1.80516E+4
   2.01526E+4  -1.76622E+4
   2.02771E+4  -1.69341E+4
   2.01797E+4  -1.68407E+4
   2.03393E+4  -1.65147E+4
   2.01262E+4  -1.59887E+4
   1.99620E+4  -1.53146E+4
   1.97606E+4  -1.48340E+4
   2.00510E+4  -1.48457E+4
   1.99502E+4  -1.42565E+4
   1.96299E+4  -1.38370E+4
   1.97869E+4  -1.36450E+4
   1.98235E+4  -1.31653E+4
   1.94256E+4  -1.27172E+4
   1.95914E+4  -1.24174E+4
   1.96406E+4  -1.20699E+4
   1.94321E+4  -1.14037E+4
   1.93933E+4  -1.10708E+4
   1.91886E+4  -1.07922E+4
   1.90911E+4  -1.05253E+4
   1.90048E+4  -1.00391E+4
   1.89352E+4  -9.52984E+3
   1.88066E+4  -9.39033E+3
   1.86130E+4  -8.93736E+3
   1.83706E+4  -8.70324E+3
   1.82366E+4  -8.27649E+3
   1.79964E+4  -8.26863E+3
   1.81841E+4  -7.65173E+3
   1.79243E+4  -7.22048E+3
   1.76811E+4  -7.01091E+3
   1.75057E+4  -6.60022E+3
   1.73709E+4  -6.21888E+3
   1.71396E+4  -5.98851E+3
   1.70735E+4  -5.62157E+3
   1.69202E+4  -5.23138E+3
   1.66377E+4  -5.10012E+3
   1.66359E+4  -4.81922E+3
   1.63619E+4  -4.42576E+3
   1.59440E+4  -4.11334E+3
   1.59455E+4  -3.93439E+3
   1.56532E+4  -3.60862E+3
   1.54843E+4  -3.26287E+3
   1.52216E+4  -2.74501E+3
   1.51491E+4  -2.62597E+3
