 
 $NMID
 ID=''
 FMTDAT='(2E13.5)'
 TRAMP=   1.00000E+0
 VOLUME=   1.00000E+0
 $END
   4.92897E+3  -1.44716E+4
  -6.77724E+3  -2.02491E+4
  -2.34242E+4   9.73731E+2
   6.26571E+3   1.56319E+4
   2.08814E+4  -3.79660E+3
  -7.11947E+3  -1.42107E+4
  -1.56161E+4   1.79430E+3
   5.25952E+3   6.69523E+3
   9.98160E+3  -3.89235E+3
  -1.45230E+3  -5.69892E+3
  -5.39781E+3   7.80510E+2
  -8.09215E+2   4.71175E+3
   5.24118E+3   8.01535E+2
   2.14210E+3  -2.96554E+3
  -6.55400E+3   1.38767E+3
  -2.94235E+3   4.68226E+3
   6.41930E+3  -2.00329E+3
   1.40879E+3  -4.78110E+3
  -5.81423E+3   1.74222E+3
  -4.61821E+2   3.09832E+3
   4.77667E+3  -1.54251E+3
  -3.31423E+2  -2.07541E+3
  -3.51582E+3   7.87198E+2
   2.09130E+3   1.09764E+3
   3.04819E+3  -9.01106E+2
  -2.65208E+3  -1.29059E+3
  -2.42144E+3   7.52674E+2
   4.00974E+3   4.31845E+2
   2.65555E+3  -1.56855E+3
  -3.16059E+3   4.24932E+2
  -1.23160E+3   2.25892E+3
   2.58498E+3  -1.94402E+3
   8.64347E+2  -3.22098E+3
  -8.28267E+2   2.37061E+3
  -3.41388E+2   4.11857E+3
  -9.60285E+2  -1.89117E+3
  -1.32563E+3  -3.67981E+3
   8.20991E+2   1.15813E+3
   1.38703E+3   2.23256E+3
  -1.63993E+2  -1.86519E+3
  -5.20161E+2  -6.60033E+2
   1.16617E+3   3.07465E+3
   1.42062E+2   9.90532E+2
  -1.98561E+3  -2.27310E+3
  -1.16819E+3  -5.08804E+2
   9.11395E+2   1.05486E+3
   1.08135E+3  -9.12375E+2
   9.83274E+1  -1.14307E+3
   7.55275E+1   9.45760E+2
   6.93357E+2   1.38636E+3
   1.88572E+2  -2.32462E+1
  -9.49111E+2  -4.16450E+2
  -4.38320E+2   7.45334E+2
   6.84941E+2   4.91175E+2
   2.08947E+2  -5.79127E+2
  -6.14223E+2  -8.66345E+2
   3.01428E+2   2.58217E+2
   1.22514E+3   1.20301E+3
  -2.91444E+1   6.76464E+2
  -1.61709E+3  -3.58948E+2
  -1.20331E+3  -1.62991E+2
   5.23085E+2  -9.34839E+1
   7.48957E+2  -2.67241E+2
   5.22141E+1  -8.29526E+2
   4.14689E+2  -2.58119E+2
   1.37684E+3   8.70388E+2
   5.24808E+2   7.53593E+2
  -1.15554E+3   4.07509E+2
  -1.23632E+3  -1.52860E+1
   8.20861E+2  -2.73839E+2
   1.04876E+3  -1.69880E+1
  -8.72644E+2   4.88591E+2
  -1.23637E+3   3.62871E+2
   3.86947E+2  -6.02540E+1
   6.12894E+2  -6.36645E+2
  -4.45191E+2  -2.19908E+0
  -6.43464E+2   1.34703E+2
   5.91325E+2  -3.41489E+2
   2.08652E+2  -3.02486E+2
  -1.44797E+2   1.20630E+2
   2.75684E+2   1.64855E+2
   6.57491E+2   1.66292E+2
   3.78019E+1  -2.38807E+2
  -5.70409E+2   1.94551E+2
  -1.82043E+1   4.54436E+1
   2.36150E+2  -8.28873E+1
  -5.40107E+2  -1.73311E+2
  -5.51448E+2  -7.91565E+0
   1.12952E+2  -4.87478E+1
  -3.77800E+1  -6.15587E+1
  -4.41438E+2  -2.36135E+2
  -4.58280E+2   2.91678E+1
   1.83924E+1  -5.34642E+2
   5.95064E+2  -6.81036E+2
   2.74861E+2   6.21650E+1
  -3.78069E+2   5.35947E+2
   4.38883E+1   1.73830E+2
   1.06133E+2  -2.02610E+2
   1.11658E+2   5.83610E+1
  -5.56508E+2   5.80738E+2
  -5.74076E+2   1.99717E+2
  -1.18373E+2  -4.28073E+2
   1.34268E+2  -4.27121E+2
   2.51401E+2   4.12673E+2
   3.19012E+1   1.48760E+2
  -3.10960E+2  -8.50362E+1
  -4.30576E+2  -1.67400E+2
  -2.50868E+1   9.43841E+1
   5.27479E+2   9.05785E+1
   2.86230E+2   1.36129E+2
  -1.53475E+2   1.67520E+2
  -3.11197E+2   1.37730E+2
  -2.44607E+2   2.76809E+1
   1.33470E+2   1.20401E+2
   1.35041E+2   8.02909E+1
  -1.52601E+2  -1.10700E+2
   4.48295E+1  -9.30709E+1
   2.43766E+2   1.24348E+1
   5.44986E+2   3.48359E+2
   2.61946E+2   2.69362E+2
  -7.86207E+1   3.80985E+2
  -7.69749E+1   1.69703E+2
   1.22409E+2  -8.37397E+1
  -1.70549E+2   1.12364E+2
  -5.11240E+1   2.46972E+2
   1.22114E+2  -2.25319E+2
   1.15547E+2  -8.21716E+1
   8.79559E+1  -1.82256E+2
  -3.07826E+2   1.36604E+2
  -3.64555E+1  -4.33709E+1
  -1.46035E+2  -2.90146E+2
   3.14055E+2   4.59397E+1
  -6.98513E+1   2.16472E+2
   5.25136E+1   7.10096E+1
   1.84147E+2  -9.07685E+0
  -6.50689E+1  -2.29005E+2
   8.73472E+0   1.13409E+2
  -1.28426E+2   4.30117E+1
  -1.01575E+2  -1.53222E+2
   7.39689E+0  -9.75867E+1
   1.71074E+1  -2.28953E+2
  -2.17053E+0   1.59722E+1
   5.22809E+0   1.11361E+2
  -7.79235E+1   1.66943E+2
  -1.61483E+2  -7.90753E+1
  -9.58356E+1  -2.48457E+2
   2.96845E+2  -1.34169E+2
   9.95166E+1  -2.37729E+1
   7.27908E+1   1.62632E+2
   9.72918E+0  -3.49356E+1
  -8.30628E+1  -2.42225E+2
  -1.16040E+2   9.15271E+1
  -1.91990E+2   2.21158E+2
  -1.96177E+2  -2.72691E+1
  -1.37123E+2  -2.81532E+2
   9.60805E+1  -6.34121E+1
   9.55132E+1   2.55257E+1
  -6.72149E+1   1.31564E+2
  -1.61461E+2  -1.06464E+2
  -5.77910E+0  -1.90953E+1
   8.35369E+1  -9.45513E+1
  -1.58760E+2  -2.08275E+2
  -2.72058E+2  -1.15354E+2
   2.23408E+1  -3.25386E+1
   1.52344E+2   1.64849E+2
  -4.51570E+1  -3.41204E+1
  -2.11614E+2   2.02084E+2
   9.50163E+1   7.83749E+1
  -2.56863E+2   8.81883E+0
  -3.40722E+2   2.74562E+2
  -9.46575E+1  -1.96790E+1
   1.08366E+2  -1.49550E+2
   7.88311E+1  -1.02421E+2
  -1.14531E+2  -9.96046E+1
  -3.59705E+1  -8.09128E+0
   5.41499E+0  -2.02462E+2
   1.64431E+2  -2.12545E+2
   3.03475E+1  -4.67546E+1
  -8.75582E+1   1.73090E+1
  -7.06835E+1  -1.71839E+2
   1.70365E+2  -1.29201E+2
  -2.73371E+2   1.68199E+2
  -6.28071E+1  -8.94041E+1
   2.18241E+1  -4.68655E+1
   1.78316E+2   5.00945E+1
  -3.05526E+1  -2.28205E+2
   8.42627E+1  -3.62798E+1
   4.70226E+1  -1.53250E+1
  -1.94530E+2  -2.45128E+2
  -1.27774E+2   6.92094E+1
  -2.83410E+2   2.28298E+2
   1.01092E+2  -1.73779E+2
   8.53680E+1  -1.66038E+2
   4.83307E+1   1.31416E+1
   3.33793E+1   2.34462E+2
  -1.64228E+2  -1.76565E+2
  -3.82055E+1  -1.02252E+2
   1.77494E+2  -8.72166E+1
   7.67848E+1   4.75865E+0
  -2.66240E+2  -8.75951E+1
  -1.08782E+0  -6.54157E+1
  -5.86018E+1  -5.61146E+1
   9.94218E+1   8.83381E+1
  -1.20800E+2  -1.96554E+2
   2.46351E+1   4.90229E+1
   1.37349E+2   1.22378E+2
   6.01744E+1  -1.70935E+2
   1.54323E+2  -4.94838E+1
  -2.55004E+0  -2.11217E+1
  -6.12631E+1  -1.10777E+2
  -6.65285E+1  -1.26672E+1
   1.05503E+2   1.52910E+2
   7.97184E+1   1.20912E+2
  -2.30712E+2   1.76907E+1
   1.10221E+2   4.26046E+0
  -1.11607E+1  -1.05266E+2
   8.24218E+1  -1.50231E+2
   8.61593E+1   1.87634E+2
  -1.02648E+2   5.32337E+1
  -1.37987E+2  -1.60745E+2
  -7.25963E+1   9.73291E+0
  -1.31148E+2   6.28505E+0
  -6.53076E+1  -2.36699E+2
  -1.54056E+2  -5.83068E-1
   3.66171E+1   7.42920E+1
  -1.24414E+2   7.91507E+1
   7.98229E+1   7.00170E+1
  -8.66475E+1  -1.31141E+2
   6.41821E+1  -3.10690E+2
   1.02455E+2   1.22119E+2
  -1.28412E+2  -1.27567E+2
  -2.79134E+1  -4.78334E+1
  -6.61891E+1   1.21464E+1
   4.03522E+1  -2.64496E+1
  -1.41581E+2   2.98217E+1
   5.03147E+1  -6.93724E+1
  -8.11495E+0   2.26777E+2
  -1.99696E+2  -2.87697E+1
  -1.61785E+1  -1.05691E+2
  -2.79466E+2   1.19486E+2
  -1.46175E+2  -1.66693E+1
  -4.28099E+1   2.08582E+1
   2.25312E+2  -4.11102E+1
   8.69686E+1  -1.66195E+2
   8.45994E+1  -8.77506E+1
  -1.14260E+2  -1.12607E+2
  -2.24399E+1  -1.42995E+2
  -5.23133E+0  -7.18233E+1
   1.07538E+2   2.94312E+1
  -3.77089E+1  -9.51629E+1
  -2.35238E+1  -7.13028E+1
  -2.00488E+2  -2.00675E+2
   1.30294E+2  -8.38271E+1
  -9.14343E+1  -8.84836E+1
  -5.23597E+1   8.25795E+1
  -8.74098E+1   1.40981E+2
  -6.53221E+1   1.81313E+2
  -8.38511E+1  -2.49176E+1
  -1.33638E+2   1.05585E+1
   1.97034E+2  -1.21905E+2
   1.17333E+2  -1.30782E+2
   3.00145E+2  -3.04481E+2
  -1.14078E+2   9.33442E+1
   1.57534E+2   1.53474E+2
  -3.22365E+1   2.13452E+2
   1.02944E+2  -7.97881E+1
  -7.27825E+1  -4.60297E+1
   2.25853E+2   2.20266E+1
   3.23955E+0   1.10588E+2
  -3.39028E+1  -1.84503E+1
   1.00157E+2   1.49365E+1
  -5.58535E+1  -7.65212E+1
  -9.41965E+0   1.06508E+2
  -2.25807E+1  -9.90441E+1
  -5.56533E+1  -1.32138E+2
  -8.91228E-1  -4.02913E+1
   3.50088E+2   2.09921E+2
  -7.69214E+1  -7.09208E+1
   8.12253E+1   3.29106E+0
  -5.67031E+1   1.15244E+1
  -1.07985E+2   6.60377E+1
   5.49364E+1  -4.26886E+1
   5.89461E+1  -3.73473E-1
  -2.14264E+2   2.45459E+1
   2.33062E+1  -1.82294E+1
  -1.39033E+2   4.15002E+1
   1.68965E+2  -1.03724E+2
   4.14728E+0   1.21556E+2
  -1.54704E+2  -1.84972E+1
   1.14851E+2  -3.35489E+2
   6.59030E+0   9.86442E+1
   5.45007E+1  -2.08606E+2
   2.72358E+1   5.52051E+1
  -5.23415E+1  -1.50185E+2
  -2.97057E+1  -7.93427E+0
  -1.14186E+2   1.27384E+2
   1.44819E+2  -6.52201E+1
   1.68477E+2  -1.68363E+2
   2.60345E+2  -1.38449E+2
   2.31173E+1  -6.06811E+1
   7.19544E+1   9.03626E+1
  -1.94612E+2   1.18041E+1
   5.22399E+1  -2.38342E+0
   1.15907E+2  -1.51652E+2
   1.16519E+2  -1.60960E+2
   2.27730E+2   6.78668E+1
   1.52980E+2   1.59974E+2
   7.06621E+0   1.40624E+2
   1.14513E+2   2.23509E+2
   6.97484E+1   3.64382E+1
  -1.42918E+2  -4.28706E+1
  -3.41910E+1   3.44254E+1
  -5.71380E+1  -1.21872E+1
   2.41052E+2  -2.51151E+2
   5.60133E+1   2.75491E+1
  -3.89189E+1   6.09746E+1
  -2.41959E+2   5.84662E+1
   4.17607E+1  -5.08800E+1
   7.58185E+1  -1.25647E+2
  -1.15096E+1   5.06716E+1
   1.44348E+2  -5.66500E+1
   2.60508E+1  -2.41217E+1
   6.53778E+1  -9.97884E+0
   1.90478E+1   1.07581E+2
   1.82864E+1   1.19716E+2
  -1.00936E+2   3.09075E+1
  -1.97135E+2  -1.27783E+2
   4.60304E+1   2.99620E+1
   1.08969E+2  -1.85080E+2
   1.10037E+2  -6.12631E+1
   3.13638E+1  -1.36863E+2
   2.10724E+2  -4.96601E+1
   2.35517E+1  -5.52535E+1
  -1.74282E+2  -7.16066E+1
  -2.16241E+2   1.47896E+2
   1.83572E+2  -2.27043E+2
   4.18817E+1   2.25238E+1
  -1.96174E+1  -7.82101E+1
   2.01868E+2   1.04204E+2
   1.22521E+2  -2.11114E+1
  -7.03634E+1   6.13269E+1
  -2.52012E+1  -1.31506E+2
  -1.58175E+1  -2.02504E+2
  -2.00734E+1  -2.76032E+1
  -6.28979E+0  -4.98098E+1
  -8.42579E+1  -1.04480E+2
   4.24910E+1   7.38358E+1
  -1.03575E+2   7.73197E+1
  -2.11534E+1  -2.57396E+2
  -2.15828E+2  -3.79119E+1
  -2.39057E+2  -1.70471E+2
   6.28359E+1  -1.39475E+2
   8.68556E+1  -1.73768E+2
   3.84195E+1  -8.90048E+1
  -2.64903E+1  -1.35504E+2
   1.41704E+2  -3.91230E+1
  -3.05548E+2   1.75668E+2
  -1.08421E+2  -1.63319E+2
  -1.16103E+2  -1.46370E+2
   2.19985E+1  -2.12662E+2
  -1.70060E+1  -2.27309E+2
  -1.46010E+2   1.63194E+2
  -2.05488E+2   1.05957E+1
   1.02289E+2  -1.08717E+2
   2.80269E+1   6.14958E+1
   6.27757E+1   5.11019E+1
   9.06455E+0  -1.08340E+2
