 
 $NMID
 ID=''
 FMTDAT='(2E13.5)'
 TRAMP=   1.00000E+0
 VOLUME=   1.00000E+0
 $END
  -3.97012E+5   6.02794E+5
  -1.53066E+6   1.14192E+6
  -1.35404E+6   1.23328E+6
  -1.36675E+6   1.06316E+6
  -1.45606E+6   1.11608E+6
  -1.34687E+6   1.16042E+6
  -1.32970E+6   1.08069E+6
  -1.39503E+6   1.09975E+6
  -1.34151E+6   1.10824E+6
  -1.34073E+6   1.03399E+6
  -1.38403E+6   1.03456E+6
  -1.34953E+6   1.03414E+6
  -1.34973E+6   9.78606E+5
  -1.38485E+6   9.68034E+5
  -1.36205E+6   9.52785E+5
  -1.35991E+6   9.06134E+5
  -1.38399E+6   9.00760E+5
  -1.36750E+6   8.93780E+5
  -1.35924E+6   8.63593E+5
  -1.36382E+6   8.65721E+5
  -1.34756E+6   8.58609E+5
  -1.34353E+6   8.31109E+5
  -1.34881E+6   8.23863E+5
  -1.33742E+6   8.12951E+5
  -1.33510E+6   7.85195E+5
  -1.33347E+6   7.76529E+5
  -1.32930E+6   7.60003E+5
  -1.33336E+6   7.30080E+5
  -1.33332E+6   7.09125E+5
  -1.32413E+6   6.94736E+5
  -1.32478E+6   6.77224E+5
  -1.32127E+6   6.66320E+5
  -1.31144E+6   6.52278E+5
  -1.30680E+6   6.39399E+5
  -1.29707E+6   6.34369E+5
  -1.28551E+6   6.30555E+5
  -1.28248E+6   6.23833E+5
  -1.27607E+6   6.14957E+5
  -1.26476E+6   6.01778E+5
  -1.26046E+6   5.90480E+5
  -1.25434E+6   5.77571E+5
  -1.24582E+6   5.61240E+5
  -1.23937E+6   5.48304E+5
  -1.23432E+6   5.35729E+5
  -1.22787E+6   5.18036E+5
  -1.22298E+6   5.03113E+5
  -1.21709E+6   4.91114E+5
  -1.20957E+6   4.75520E+5
  -1.19984E+6   4.62905E+5
  -1.19041E+6   4.54343E+5
  -1.18282E+6   4.44899E+5
  -1.17624E+6   4.34719E+5
  -1.16775E+6   4.25241E+5
  -1.15995E+6   4.14512E+5
  -1.15303E+6   4.03103E+5
  -1.14525E+6   3.91115E+5
  -1.13686E+6   3.76201E+5
  -1.12871E+6   3.63358E+5
  -1.11989E+6   3.52152E+5
  -1.11301E+6   3.40207E+5
  -1.10660E+6   3.27155E+5
  -1.09831E+6   3.15026E+5
  -1.09097E+6   3.03144E+5
  -1.08338E+6   2.90566E+5
  -1.07369E+6   2.79329E+5
  -1.06366E+6   2.69082E+5
  -1.05489E+6   2.59890E+5
  -1.04711E+6   2.49937E+5
  -1.03990E+6   2.39418E+5
  -1.03354E+6   2.27759E+5
  -1.02500E+6   2.16007E+5
  -1.01611E+6   2.05253E+5
  -1.00927E+6   1.94955E+5
  -1.00252E+6   1.83898E+5
  -9.94059E+5   1.72175E+5
  -9.85505E+5   1.62484E+5
  -9.77664E+5   1.53096E+5
  -9.70445E+5   1.42877E+5
  -9.62178E+5   1.33325E+5
  -9.53885E+5   1.24254E+5
  -9.45241E+5   1.14915E+5
  -9.37415E+5   1.06048E+5
  -9.29880E+5   9.68806E+4
  -9.22114E+5   8.66415E+4
  -9.13747E+5   7.59478E+4
  -9.05321E+5   6.72821E+4
  -8.97683E+5   5.75261E+4
  -8.90330E+5   4.76398E+4
  -8.81827E+5   3.81443E+4
  -8.73076E+5   3.00860E+4
  -8.65404E+5   2.25077E+4
  -8.57560E+5   1.53887E+4
  -8.49396E+5   7.40735E+3
  -8.40579E+5   6.24142E+2
  -8.32285E+5  -4.79726E+3
  -8.23954E+5  -1.01830E+4
  -8.17252E+5  -1.56840E+4
  -8.09746E+5  -2.17047E+4
  -8.01259E+5  -2.75831E+4
  -7.93738E+5  -3.32571E+4
  -7.87000E+5  -3.87158E+4
  -7.79073E+5  -4.54541E+4
  -7.69771E+5  -5.24811E+4
  -7.60753E+5  -5.75115E+4
  -7.52951E+5  -6.17961E+4
  -7.46256E+5  -6.67646E+4
  -7.39123E+5  -7.23466E+4
  -7.30380E+5  -7.75667E+4
  -7.21351E+5  -8.17488E+4
  -7.13667E+5  -8.50007E+4
  -7.07430E+5  -8.84676E+4
  -7.00172E+5  -9.36075E+4
  -6.92358E+5  -9.84207E+4
  -6.84733E+5  -1.02960E+5
  -6.76737E+5  -1.07320E+5
  -6.69539E+5  -1.11928E+5
  -6.61766E+5  -1.16522E+5
  -6.53373E+5  -1.20400E+5
  -6.45040E+5  -1.23400E+5
  -6.38218E+5  -1.26056E+5
  -6.31986E+5  -1.29573E+5
  -6.24849E+5  -1.33215E+5
  -6.17707E+5  -1.36595E+5
  -6.10357E+5  -1.40299E+5
  -6.03287E+5  -1.43551E+5
  -5.95611E+5  -1.46528E+5
  -5.88330E+5  -1.49224E+5
  -5.81395E+5  -1.52454E+5
  -5.74603E+5  -1.56020E+5
  -5.67937E+5  -1.59666E+5
  -5.60536E+5  -1.64420E+5
  -5.52735E+5  -1.67854E+5
  -5.45363E+5  -1.70765E+5
  -5.38776E+5  -1.73455E+5
  -5.31796E+5  -1.77160E+5
  -5.24771E+5  -1.80176E+5
  -5.18118E+5  -1.82433E+5
  -5.12403E+5  -1.85179E+5
  -5.05870E+5  -1.88132E+5
  -4.98941E+5  -1.91107E+5
  -4.91952E+5  -1.93246E+5
  -4.85264E+5  -1.94817E+5
  -4.79267E+5  -1.96889E+5
  -4.73578E+5  -1.99586E+5
  -4.67124E+5  -2.02481E+5
  -4.60250E+5  -2.04592E+5
  -4.53295E+5  -2.06131E+5
  -4.47017E+5  -2.08146E+5
  -4.40704E+5  -2.09819E+5
  -4.34419E+5  -2.11757E+5
  -4.28659E+5  -2.13060E+5
  -4.22459E+5  -2.14355E+5
  -4.17058E+5  -2.15608E+5
  -4.11787E+5  -2.16882E+5
  -4.05508E+5  -2.18388E+5
  -3.99820E+5  -2.19050E+5
  -3.94707E+5  -2.19389E+5
  -3.89028E+5  -2.20479E+5
  -3.83729E+5  -2.21140E+5
  -3.78294E+5  -2.21837E+5
  -3.73090E+5  -2.22279E+5
  -3.67847E+5  -2.22664E+5
  -3.62377E+5  -2.23006E+5
  -3.57130E+5  -2.23205E+5
  -3.51982E+5  -2.23395E+5
  -3.47339E+5  -2.23080E+5
  -3.42702E+5  -2.23616E+5
  -3.37862E+5  -2.24147E+5
  -3.32493E+5  -2.24187E+5
  -3.27922E+5  -2.23814E+5
  -3.23418E+5  -2.23547E+5
  -3.19005E+5  -2.23605E+5
  -3.14361E+5  -2.23496E+5
  -3.09631E+5  -2.23252E+5
  -3.05167E+5  -2.22976E+5
  -3.00713E+5  -2.23054E+5
  -2.96251E+5  -2.23281E+5
  -2.91557E+5  -2.22913E+5
  -2.86985E+5  -2.22543E+5
  -2.82752E+5  -2.21906E+5
  -2.78974E+5  -2.22213E+5
  -2.74215E+5  -2.22225E+5
  -2.69824E+5  -2.22130E+5
  -2.65255E+5  -2.21912E+5
  -2.61323E+5  -2.21484E+5
  -2.57169E+5  -2.20842E+5
  -2.53322E+5  -2.20310E+5
  -2.49409E+5  -2.19851E+5
  -2.45749E+5  -2.18940E+5
  -2.42308E+5  -2.18731E+5
  -2.38397E+5  -2.18967E+5
  -2.33769E+5  -2.19061E+5
  -2.29408E+5  -2.18247E+5
  -2.25386E+5  -2.17930E+5
  -2.21752E+5  -2.17422E+5
  -2.17794E+5  -2.17359E+5
  -2.14072E+5  -2.17067E+5
  -2.10143E+5  -2.16927E+5
  -2.06123E+5  -2.16467E+5
  -2.02343E+5  -2.16454E+5
  -1.98164E+5  -2.16128E+5
  -1.94489E+5  -2.15587E+5
  -1.91102E+5  -2.14678E+5
  -1.87676E+5  -2.14656E+5
  -1.83946E+5  -2.14478E+5
  -1.79867E+5  -2.14089E+5
  -1.76031E+5  -2.13483E+5
  -1.72684E+5  -2.12961E+5
  -1.69370E+5  -2.12633E+5
  -1.65900E+5  -2.12347E+5
  -1.61893E+5  -2.11594E+5
  -1.58696E+5  -2.10871E+5
  -1.55716E+5  -2.10517E+5
  -1.52188E+5  -2.10424E+5
  -1.48448E+5  -2.09774E+5
  -1.44930E+5  -2.08800E+5
  -1.41918E+5  -2.07629E+5
  -1.39138E+5  -2.06851E+5
  -1.36405E+5  -2.06234E+5
  -1.33035E+5  -2.05838E+5
  -1.30368E+5  -2.04754E+5
  -1.27558E+5  -2.03744E+5
  -1.24632E+5  -2.03268E+5
  -1.21412E+5  -2.02571E+5
  -1.18487E+5  -2.01259E+5
  -1.15888E+5  -1.99709E+5
  -1.13715E+5  -1.99116E+5
  -1.11258E+5  -1.98366E+5
  -1.08180E+5  -1.97602E+5
  -1.05415E+5  -1.96666E+5
  -1.03003E+5  -1.95287E+5
  -1.00740E+5  -1.94227E+5
  -9.86476E+4  -1.93135E+5
  -9.62678E+4  -1.92019E+5
  -9.40602E+4  -1.90823E+5
  -9.21573E+4  -1.89732E+5
  -9.00974E+4  -1.88539E+5
  -8.77548E+4  -1.87619E+5
  -8.55974E+4  -1.86350E+5
  -8.35049E+4  -1.84825E+5
  -8.18194E+4  -1.83683E+5
  -8.02457E+4  -1.82616E+5
  -7.77126E+4  -1.81512E+5
  -7.55167E+4  -1.80136E+5
  -7.38536E+4  -1.78800E+5
  -7.20789E+4  -1.77529E+5
  -7.02107E+4  -1.76385E+5
  -6.79545E+4  -1.74996E+5
  -6.63580E+4  -1.73573E+5
  -6.46941E+4  -1.72401E+5
  -6.32543E+4  -1.71501E+5
  -6.10053E+4  -1.70582E+5
  -5.92452E+4  -1.69388E+5
  -5.73111E+4  -1.67529E+5
  -5.60525E+4  -1.66171E+5
  -5.42502E+4  -1.65298E+5
  -5.27019E+4  -1.64438E+5
  -5.07725E+4  -1.63105E+5
  -4.87297E+4  -1.61852E+5
  -4.73184E+4  -1.60911E+5
  -4.53455E+4  -1.59876E+5
  -4.35807E+4  -1.58465E+5
  -4.16634E+4  -1.57118E+5
  -4.05427E+4  -1.55873E+5
  -3.90128E+4  -1.54807E+5
  -3.72384E+4  -1.53873E+5
  -3.56038E+4  -1.52852E+5
  -3.37310E+4  -1.51425E+5
  -3.23483E+4  -1.49942E+5
  -3.10747E+4  -1.48873E+5
  -2.94726E+4  -1.47675E+5
  -2.80400E+4  -1.46511E+5
  -2.64707E+4  -1.45262E+5
  -2.50485E+4  -1.44214E+5
  -2.35175E+4  -1.43279E+5
  -2.18122E+4  -1.42057E+5
  -2.03805E+4  -1.40788E+5
  -1.92048E+4  -1.39328E+5
  -1.78348E+4  -1.38314E+5
  -1.64788E+4  -1.37497E+5
  -1.49315E+4  -1.36025E+5
  -1.39507E+4  -1.34860E+5
  -1.26815E+4  -1.33831E+5
  -1.10255E+4  -1.32972E+5
  -1.00818E+4  -1.31689E+5
  -8.68574E+3  -1.29894E+5
  -7.57113E+3  -1.28910E+5
  -7.06389E+3  -1.27634E+5
  -6.03619E+3  -1.26927E+5
  -4.78169E+3  -1.25703E+5
  -3.44487E+3  -1.24582E+5
  -2.53499E+3  -1.23171E+5
  -1.65819E+3  -1.21880E+5
  -8.19333E+2  -1.20793E+5
   1.92281E+2  -1.19616E+5
   1.12250E+3  -1.18381E+5
   1.42117E+3  -1.17326E+5
   2.72608E+3  -1.16396E+5
   3.57835E+3  -1.15043E+5
   4.42747E+3  -1.13466E+5
   4.93215E+3  -1.12503E+5
   5.61587E+3  -1.11270E+5
   6.36873E+3  -1.10309E+5
   7.35224E+3  -1.09261E+5
   8.30703E+3  -1.07914E+5
   8.82817E+3  -1.06613E+5
   9.02075E+3  -1.05358E+5
   9.95566E+3  -1.04403E+5
   1.02857E+4  -1.03178E+5
   1.09963E+4  -1.02047E+5
   1.15163E+4  -1.01024E+5
   1.21265E+4  -9.99361E+4
   1.28911E+4  -9.87913E+4
   1.33041E+4  -9.74752E+4
   1.39850E+4  -9.61971E+4
   1.42317E+4  -9.50821E+4
   1.47251E+4  -9.39748E+4
   1.54343E+4  -9.29693E+4
   1.56147E+4  -9.18437E+4
   1.61356E+4  -9.06593E+4
   1.62843E+4  -8.96498E+4
   1.69554E+4  -8.85394E+4
   1.73030E+4  -8.74489E+4
   1.78747E+4  -8.60859E+4
   1.77953E+4  -8.52545E+4
   1.83468E+4  -8.42783E+4
   1.89032E+4  -8.31174E+4
   1.93160E+4  -8.20876E+4
   1.96441E+4  -8.06583E+4
   1.97652E+4  -7.97888E+4
   2.01681E+4  -7.87125E+4
   2.05459E+4  -7.74936E+4
   2.06495E+4  -7.67325E+4
   2.09035E+4  -7.56264E+4
   2.13194E+4  -7.45443E+4
   2.16367E+4  -7.39354E+4
   2.19726E+4  -7.25335E+4
   2.21458E+4  -7.13287E+4
   2.21459E+4  -7.03437E+4
   2.23096E+4  -6.92839E+4
   2.26024E+4  -6.85418E+4
   2.32017E+4  -6.74745E+4
   2.32546E+4  -6.64279E+4
   2.32425E+4  -6.52638E+4
   2.33587E+4  -6.44744E+4
   2.33834E+4  -6.34237E+4
   2.34271E+4  -6.22932E+4
   2.37536E+4  -6.13742E+4
   2.38578E+4  -6.05119E+4
   2.40496E+4  -5.98122E+4
   2.44502E+4  -5.87514E+4
   2.44852E+4  -5.76971E+4
   2.43697E+4  -5.68018E+4
   2.44457E+4  -5.59279E+4
   2.45756E+4  -5.48347E+4
   2.46857E+4  -5.39924E+4
   2.46524E+4  -5.30741E+4
   2.48518E+4  -5.25174E+4
   2.48532E+4  -5.17449E+4
   2.53401E+4  -5.06244E+4
   2.51082E+4  -4.94925E+4
   2.47716E+4  -4.87064E+4
   2.49326E+4  -4.79373E+4
   2.48178E+4  -4.73516E+4
   2.50036E+4  -4.66215E+4
   2.50610E+4  -4.57321E+4
   2.51580E+4  -4.47438E+4
