 
 $NMID
 ID=''
 FMTDAT='(2E13.5)'
 TRAMP=   1.00000E+0
 VOLUME=   1.00000E+0
 $END
   5.87013E+5   8.00704E+4
   1.41867E+6   7.57848E+5
   1.47334E+6   5.52138E+5
   1.36931E+6   5.36773E+5
   1.44051E+6   5.25535E+5
   1.46564E+6   3.79640E+5
   1.42410E+6   3.20764E+5
   1.45505E+6   3.07261E+5
   1.45065E+6   2.36830E+5
   1.41336E+6   2.13865E+5
   1.42623E+6   1.92877E+5
   1.41153E+6   1.34435E+5
   1.37859E+6   1.12633E+5
   1.38143E+6   9.84587E+4
   1.36212E+6   6.38118E+4
   1.33316E+6   4.82788E+4
   1.33271E+6   2.14227E+4
   1.31305E+6  -2.72229E+4
   1.28343E+6  -5.75980E+4
   1.27438E+6  -9.67583E+4
   1.24882E+6  -1.39878E+5
   1.21878E+6  -1.64167E+5
   1.20453E+6  -1.91248E+5
   1.17732E+6  -2.23252E+5
   1.14612E+6  -2.38664E+5
   1.12523E+6  -2.61804E+5
   1.10010E+6  -2.80863E+5
   1.07407E+6  -2.84187E+5
   1.05166E+6  -2.94003E+5
   1.02189E+6  -3.13885E+5
   9.96221E+5  -3.25904E+5
   9.70590E+5  -3.42481E+5
   9.37269E+5  -3.60978E+5
   9.07789E+5  -3.75037E+5
   8.79901E+5  -3.92182E+5
   8.45147E+5  -4.11686E+5
   8.13165E+5  -4.27047E+5
   7.84989E+5  -4.39725E+5
   7.53162E+5  -4.46439E+5
   7.23359E+5  -4.50162E+5
   6.96940E+5  -4.54374E+5
   6.68818E+5  -4.56320E+5
   6.41396E+5  -4.54680E+5
   6.15355E+5  -4.55322E+5
   5.89117E+5  -4.53491E+5
   5.65221E+5  -4.49988E+5
   5.40313E+5  -4.48410E+5
   5.13342E+5  -4.46669E+5
   4.87072E+5  -4.44167E+5
   4.61516E+5  -4.42315E+5
   4.35322E+5  -4.39392E+5
   4.10497E+5  -4.35867E+5
   3.86451E+5  -4.31900E+5
   3.62546E+5  -4.26300E+5
   3.40134E+5  -4.19223E+5
   3.18732E+5  -4.11936E+5
   2.99171E+5  -4.03320E+5
   2.79216E+5  -3.93744E+5
   2.59497E+5  -3.84366E+5
   2.40992E+5  -3.75124E+5
   2.23316E+5  -3.65468E+5
   2.05918E+5  -3.55731E+5
   1.88303E+5  -3.46387E+5
   1.71509E+5  -3.36416E+5
   1.55482E+5  -3.26313E+5
   1.39571E+5  -3.15578E+5
   1.24356E+5  -3.05442E+5
   1.10269E+5  -2.94998E+5
   9.65571E+4  -2.84367E+5
   8.39205E+4  -2.73883E+5
   7.17485E+4  -2.63796E+5
   6.10183E+4  -2.52861E+5
   4.99806E+4  -2.42103E+5
   3.92156E+4  -2.31211E+5
   2.93563E+4  -2.20992E+5
   2.01338E+4  -2.10366E+5
   1.06931E+4  -2.00207E+5
   1.15585E+3  -1.90540E+5
  -7.02293E+3  -1.81076E+5
  -1.51745E+4  -1.71238E+5
  -2.27361E+4  -1.62067E+5
  -3.03526E+4  -1.53362E+5
  -3.68170E+4  -1.44480E+5
  -4.27203E+4  -1.35592E+5
  -4.83524E+4  -1.27474E+5
  -5.30908E+4  -1.19334E+5
  -5.83847E+4  -1.11594E+5
  -6.31563E+4  -1.03742E+5
  -6.76606E+4  -9.65471E+4
  -7.12232E+4  -8.93928E+4
  -7.52940E+4  -8.19445E+4
  -7.97885E+4  -7.53410E+4
  -8.35845E+4  -6.94512E+4
  -8.70656E+4  -6.33957E+4
  -9.04674E+4  -5.74640E+4
  -9.33062E+4  -5.17489E+4
  -9.65198E+4  -4.65774E+4
  -9.95255E+4  -4.17514E+4
  -1.02514E+5  -3.69752E+4
  -1.04547E+5  -3.23868E+4
  -1.06869E+5  -2.80939E+4
  -1.09050E+5  -2.39338E+4
  -1.10800E+5  -2.05298E+4
  -1.12475E+5  -1.68219E+4
  -1.13988E+5  -1.35163E+4
  -1.15717E+5  -9.98836E+3
  -1.17328E+5  -6.95476E+3
  -1.18595E+5  -4.53595E+3
  -1.19625E+5  -1.68414E+3
  -1.20702E+5   7.75157E+2
  -1.21816E+5   3.23298E+3
  -1.23148E+5   5.18681E+3
  -1.24638E+5   7.04005E+3
  -1.25265E+5   8.89610E+3
  -1.26421E+5   1.05472E+4
  -1.27574E+5   1.18353E+4
  -1.28524E+5   1.29838E+4
  -1.29146E+5   1.37560E+4
  -1.29647E+5   1.46134E+4
  -1.30185E+5   1.54946E+4
  -1.30905E+5   1.65238E+4
  -1.31722E+5   1.70855E+4
  -1.32366E+5   1.78819E+4
  -1.33095E+5   1.82506E+4
  -1.33824E+5   1.82341E+4
  -1.34195E+5   1.83779E+4
  -1.34477E+5   1.85866E+4
  -1.35007E+5   1.87750E+4
  -1.35635E+5   1.85221E+4
  -1.36429E+5   1.82520E+4
  -1.37058E+5   1.77355E+4
  -1.37436E+5   1.69035E+4
  -1.37886E+5   1.62414E+4
  -1.38495E+5   1.55999E+4
  -1.39205E+5   1.48610E+4
  -1.39694E+5   1.39031E+4
  -1.39816E+5   1.30547E+4
  -1.40580E+5   1.23830E+4
  -1.41280E+5   1.11848E+4
  -1.41937E+5   1.00425E+4
  -1.42281E+5   8.79831E+3
  -1.42546E+5   7.35933E+3
  -1.42917E+5   6.54267E+3
  -1.43520E+5   5.52455E+3
  -1.44314E+5   4.41195E+3
  -1.44442E+5   2.92075E+3
  -1.44608E+5   1.71008E+3
  -1.44904E+5   3.75934E+2
  -1.45483E+5  -9.63666E+2
  -1.45614E+5  -2.15436E+3
  -1.45705E+5  -3.56051E+3
  -1.46061E+5  -4.64490E+3
  -1.46459E+5  -5.85518E+3
  -1.46938E+5  -6.88442E+3
  -1.47392E+5  -8.56013E+3
  -1.47384E+5  -9.36691E+3
  -1.47477E+5  -1.04449E+4
  -1.48026E+5  -1.11170E+4
  -1.48228E+5  -1.21374E+4
  -1.48151E+5  -1.34506E+4
  -1.48360E+5  -1.43536E+4
  -1.48523E+5  -1.53294E+4
  -1.48409E+5  -1.61263E+4
  -1.48234E+5  -1.71488E+4
  -1.48376E+5  -1.82378E+4
  -1.48446E+5  -1.88529E+4
  -1.48358E+5  -1.94864E+4
  -1.48506E+5  -2.04911E+4
  -1.48281E+5  -2.11021E+4
  -1.48157E+5  -2.19557E+4
  -1.48014E+5  -2.25401E+4
  -1.48145E+5  -2.31688E+4
  -1.47734E+5  -2.38644E+4
  -1.47614E+5  -2.45250E+4
  -1.47125E+5  -2.52584E+4
  -1.47084E+5  -2.55252E+4
  -1.46811E+5  -2.60753E+4
  -1.46281E+5  -2.66301E+4
  -1.45650E+5  -2.75038E+4
  -1.45292E+5  -2.77002E+4
  -1.45061E+5  -2.81062E+4
  -1.44256E+5  -2.90186E+4
  -1.43886E+5  -2.96551E+4
  -1.43456E+5  -2.98387E+4
  -1.42589E+5  -3.04166E+4
  -1.41772E+5  -3.10305E+4
  -1.41529E+5  -3.12500E+4
  -1.40693E+5  -3.14600E+4
  -1.40218E+5  -3.19687E+4
  -1.39629E+5  -3.19810E+4
  -1.38861E+5  -3.25671E+4
  -1.37993E+5  -3.34515E+4
  -1.37040E+5  -3.38336E+4
  -1.36045E+5  -3.40039E+4
  -1.35134E+5  -3.42320E+4
  -1.34549E+5  -3.50086E+4
  -1.33419E+5  -3.53505E+4
  -1.32170E+5  -3.60482E+4
  -1.31248E+5  -3.63838E+4
  -1.30079E+5  -3.68842E+4
  -1.29112E+5  -3.75560E+4
  -1.27951E+5  -3.82230E+4
  -1.26454E+5  -3.86845E+4
  -1.25491E+5  -3.90609E+4
  -1.24508E+5  -3.94293E+4
  -1.23170E+5  -3.99319E+4
  -1.21964E+5  -4.06495E+4
  -1.20942E+5  -4.09490E+4
  -1.19765E+5  -4.15230E+4
  -1.18382E+5  -4.19401E+4
  -1.17149E+5  -4.25865E+4
  -1.15630E+5  -4.31361E+4
  -1.14467E+5  -4.33008E+4
  -1.13259E+5  -4.40552E+4
  -1.12029E+5  -4.48004E+4
  -1.10163E+5  -4.52605E+4
  -1.08695E+5  -4.53942E+4
  -1.07624E+5  -4.55986E+4
  -1.05973E+5  -4.62135E+4
  -1.05135E+5  -4.67128E+4
  -1.03457E+5  -4.68558E+4
  -1.02155E+5  -4.73765E+4
  -1.00912E+5  -4.79453E+4
  -9.95977E+4  -4.82932E+4
  -9.78493E+4  -4.86132E+4
  -9.63946E+4  -4.89535E+4
  -9.52185E+4  -4.91761E+4
  -9.38634E+4  -4.97247E+4
  -9.27043E+4  -5.00775E+4
  -9.11533E+4  -5.02972E+4
  -8.97618E+4  -5.07013E+4
  -8.84888E+4  -5.08875E+4
  -8.72715E+4  -5.11541E+4
  -8.59533E+4  -5.14887E+4
  -8.44674E+4  -5.17672E+4
  -8.32461E+4  -5.19354E+4
  -8.22793E+4  -5.21623E+4
  -8.10028E+4  -5.23935E+4
  -7.96248E+4  -5.24787E+4
  -7.82641E+4  -5.27853E+4
  -7.72923E+4  -5.29028E+4
  -7.62236E+4  -5.30741E+4
  -7.50164E+4  -5.31430E+4
  -7.38174E+4  -5.36884E+4
  -7.26319E+4  -5.36321E+4
  -7.15949E+4  -5.35318E+4
  -7.05409E+4  -5.37471E+4
  -6.92503E+4  -5.39604E+4
  -6.80499E+4  -5.40492E+4
  -6.71598E+4  -5.40433E+4
  -6.61604E+4  -5.41110E+4
  -6.49805E+4  -5.41871E+4
  -6.37897E+4  -5.41900E+4
  -6.26495E+4  -5.40470E+4
  -6.18835E+4  -5.39903E+4
  -6.09836E+4  -5.39041E+4
  -5.98603E+4  -5.39313E+4
  -5.90579E+4  -5.41751E+4
  -5.78749E+4  -5.40482E+4
  -5.68929E+4  -5.40678E+4
  -5.59638E+4  -5.39523E+4
  -5.47706E+4  -5.39046E+4
  -5.38753E+4  -5.38466E+4
  -5.27465E+4  -5.36252E+4
  -5.21540E+4  -5.33852E+4
  -5.10212E+4  -5.30600E+4
  -5.00119E+4  -5.31884E+4
  -4.86665E+4  -5.29909E+4
  -4.79937E+4  -5.25577E+4
  -4.71687E+4  -5.23103E+4
  -4.60932E+4  -5.19460E+4
  -4.52893E+4  -5.16651E+4
  -4.45052E+4  -5.12391E+4
  -4.36688E+4  -5.10885E+4
  -4.25771E+4  -5.08525E+4
  -4.15685E+4  -5.05825E+4
  -4.03623E+4  -5.02756E+4
  -3.96058E+4  -4.97710E+4
  -3.86425E+4  -4.91017E+4
  -3.76720E+4  -4.90817E+4
  -3.66929E+4  -4.83836E+4
  -3.58850E+4  -4.80508E+4
  -3.51284E+4  -4.76632E+4
  -3.41732E+4  -4.70506E+4
  -3.31310E+4  -4.66778E+4
  -3.21062E+4  -4.59455E+4
  -3.11979E+4  -4.51916E+4
  -3.01135E+4  -4.49750E+4
  -2.96965E+4  -4.42464E+4
  -2.84598E+4  -4.38161E+4
  -2.73964E+4  -4.31381E+4
  -2.64238E+4  -4.29495E+4
  -2.54620E+4  -4.21311E+4
  -2.48446E+4  -4.16335E+4
  -2.39844E+4  -4.09266E+4
  -2.28018E+4  -4.04793E+4
  -2.20694E+4  -4.01181E+4
  -2.13009E+4  -3.94484E+4
  -2.01983E+4  -3.86099E+4
  -1.93639E+4  -3.84275E+4
  -1.83142E+4  -3.75787E+4
  -1.74964E+4  -3.68912E+4
  -1.65483E+4  -3.63561E+4
  -1.57040E+4  -3.58585E+4
  -1.46722E+4  -3.51365E+4
  -1.36723E+4  -3.47718E+4
  -1.29134E+4  -3.41058E+4
  -1.21720E+4  -3.36049E+4
  -1.12051E+4  -3.29133E+4
  -1.03517E+4  -3.24633E+4
  -9.38752E+3  -3.21317E+4
  -8.66553E+3  -3.14730E+4
  -8.10377E+3  -3.09552E+4
  -6.80968E+3  -3.04646E+4
  -5.87965E+3  -2.97833E+4
  -5.37712E+3  -2.94520E+4
  -4.63551E+3  -2.89381E+4
  -3.89616E+3  -2.83365E+4
  -3.01023E+3  -2.79333E+4
  -2.14418E+3  -2.72805E+4
  -1.34782E+3  -2.68266E+4
  -7.40634E+2  -2.64727E+4
  -2.35259E+1  -2.59505E+4
   9.87034E+2  -2.54129E+4
   1.69797E+3  -2.49188E+4
   2.24349E+3  -2.44874E+4
   3.11851E+3  -2.43632E+4
   4.01691E+3  -2.35787E+4
   4.43131E+3  -2.32293E+4
   5.26123E+3  -2.27775E+4
   5.71783E+3  -2.25193E+4
   6.48811E+3  -2.20949E+4
   7.10265E+3  -2.15899E+4
   7.80744E+3  -2.12362E+4
   8.31014E+3  -2.10838E+4
   8.83972E+3  -2.07501E+4
   9.65840E+3  -2.04088E+4
   1.03011E+4  -1.95447E+4
   1.08172E+4  -1.96696E+4
   1.11638E+4  -1.91208E+4
   1.16352E+4  -1.91624E+4
   1.23415E+4  -1.85092E+4
   1.27632E+4  -1.83482E+4
   1.29593E+4  -1.77615E+4
   1.35932E+4  -1.77104E+4
   1.41791E+4  -1.73670E+4
   1.45639E+4  -1.73234E+4
   1.51266E+4  -1.67247E+4
   1.49872E+4  -1.66857E+4
   1.55322E+4  -1.61360E+4
   1.60712E+4  -1.61705E+4
   1.64212E+4  -1.55834E+4
   1.67422E+4  -1.55884E+4
   1.68633E+4  -1.51827E+4
   1.71990E+4  -1.49018E+4
   1.76596E+4  -1.48222E+4
   1.78890E+4  -1.45392E+4
   1.78915E+4  -1.43541E+4
   1.81460E+4  -1.39690E+4
   1.84408E+4  -1.39517E+4
   1.85506E+4  -1.35641E+4
   1.88445E+4  -1.31995E+4
   1.87972E+4  -1.30543E+4
   1.90136E+4  -1.29138E+4
   1.91655E+4  -1.26566E+4
   1.91732E+4  -1.26628E+4
   1.94124E+4  -1.24893E+4
