 
 $NMID
 ID=''
 FMTDAT='(2E13.5)'
 TRAMP=   1.00000E+0
 VOLUME=   1.00000E+0
 $END
  -3.67848E+5   6.17171E+5
  -1.54308E+6   1.15459E+6
  -1.41323E+6   1.29942E+6
  -1.39117E+6   1.18669E+6
  -1.44474E+6   1.17545E+6
  -1.40790E+6   1.14530E+6
  -1.43422E+6   1.09423E+6
  -1.45990E+6   1.12950E+6
  -1.39918E+6   1.10119E+6
  -1.42533E+6   1.02151E+6
  -1.46659E+6   1.03123E+6
  -1.42571E+6   1.02327E+6
  -1.42275E+6   9.68139E+5
  -1.44454E+6   9.56941E+5
  -1.42459E+6   9.37326E+5
  -1.42293E+6   9.01910E+5
  -1.43535E+6   8.94241E+5
  -1.42522E+6   8.65170E+5
  -1.43115E+6   8.25851E+5
  -1.43573E+6   8.18337E+5
  -1.42476E+6   7.91966E+5
  -1.42973E+6   7.57217E+5
  -1.43230E+6   7.44634E+5
  -1.42438E+6   7.20471E+5
  -1.42673E+6   6.87201E+5
  -1.42165E+6   6.77690E+5
  -1.41493E+6   6.57629E+5
  -1.41785E+6   6.32066E+5
  -1.41282E+6   6.13953E+5
  -1.40222E+6   5.95105E+5
  -1.40628E+6   5.71374E+5
  -1.40252E+6   5.54372E+5
  -1.39515E+6   5.30625E+5
  -1.39397E+6   5.10195E+5
  -1.38813E+6   4.94196E+5
  -1.38257E+6   4.75682E+5
  -1.38494E+6   4.57019E+5
  -1.38149E+6   4.39149E+5
  -1.37236E+6   4.18122E+5
  -1.36972E+6   4.01250E+5
  -1.36456E+6   3.85272E+5
  -1.35648E+6   3.67072E+5
  -1.34960E+6   3.52278E+5
  -1.34431E+6   3.38513E+5
  -1.33764E+6   3.20955E+5
  -1.33364E+6   3.05275E+5
  -1.32833E+6   2.88298E+5
  -1.32232E+6   2.68077E+5
  -1.31413E+6   2.50421E+5
  -1.30716E+6   2.35469E+5
  -1.30179E+6   2.18580E+5
  -1.29690E+6   2.02060E+5
  -1.29043E+6   1.86636E+5
  -1.28510E+6   1.70213E+5
  -1.27850E+6   1.53864E+5
  -1.27158E+6   1.37848E+5
  -1.26418E+6   1.21825E+5
  -1.25566E+6   1.07149E+5
  -1.24648E+6   9.39112E+4
  -1.24009E+6   8.02028E+4
  -1.23375E+6   6.54657E+4
  -1.22589E+6   5.05703E+4
  -1.21850E+6   3.62593E+4
  -1.21102E+6   2.13472E+4
  -1.20177E+6   6.43047E+3
  -1.19175E+6  -6.70946E+3
  -1.18280E+6  -1.93913E+4
  -1.17475E+6  -3.19488E+4
  -1.16783E+6  -4.49466E+4
  -1.16012E+6  -5.88423E+4
  -1.15034E+6  -7.23188E+4
  -1.14101E+6  -8.42556E+4
  -1.13356E+6  -9.51783E+4
  -1.12485E+6  -1.07344E+5
  -1.11484E+6  -1.19780E+5
  -1.10573E+6  -1.31142E+5
  -1.09703E+6  -1.42446E+5
  -1.08767E+6  -1.54217E+5
  -1.07784E+6  -1.66089E+5
  -1.06788E+6  -1.78144E+5
  -1.05768E+6  -1.89808E+5
  -1.04740E+6  -1.99921E+5
  -1.03786E+6  -2.10624E+5
  -1.02804E+6  -2.22408E+5
  -1.01690E+6  -2.33700E+5
  -1.00615E+6  -2.43420E+5
  -9.96321E+5  -2.52273E+5
  -9.86598E+5  -2.62392E+5
  -9.75691E+5  -2.71543E+5
  -9.64880E+5  -2.79577E+5
  -9.55151E+5  -2.87236E+5
  -9.45665E+5  -2.95467E+5
  -9.35241E+5  -3.04255E+5
  -9.23949E+5  -3.12174E+5
  -9.12788E+5  -3.19330E+5
  -9.02662E+5  -3.26127E+5
  -8.92614E+5  -3.32795E+5
  -8.82543E+5  -3.40075E+5
  -8.72018E+5  -3.47487E+5
  -8.61471E+5  -3.54041E+5
  -8.51281E+5  -3.59822E+5
  -8.41467E+5  -3.66628E+5
  -8.30390E+5  -3.73465E+5
  -8.18447E+5  -3.78824E+5
  -8.08198E+5  -3.82789E+5
  -7.99266E+5  -3.87477E+5
  -7.90274E+5  -3.93037E+5
  -7.78913E+5  -3.98558E+5
  -7.67291E+5  -4.02493E+5
  -7.57652E+5  -4.05443E+5
  -7.48767E+5  -4.09565E+5
  -7.38844E+5  -4.14769E+5
  -7.28420E+5  -4.19725E+5
  -7.17980E+5  -4.24220E+5
  -7.08053E+5  -4.28803E+5
  -6.97379E+5  -4.33309E+5
  -6.86859E+5  -4.37591E+5
  -6.75982E+5  -4.41185E+5
  -6.65377E+5  -4.43429E+5
  -6.55959E+5  -4.45684E+5
  -6.47109E+5  -4.48831E+5
  -6.37970E+5  -4.52098E+5
  -6.28280E+5  -4.54918E+5
  -6.18510E+5  -4.57803E+5
  -6.08668E+5  -4.60425E+5
  -5.98478E+5  -4.62934E+5
  -5.88580E+5  -4.64468E+5
  -5.78842E+5  -4.66730E+5
  -5.69432E+5  -4.68918E+5
  -5.59742E+5  -4.71915E+5
  -5.48951E+5  -4.74791E+5
  -5.38092E+5  -4.77044E+5
  -5.27850E+5  -4.78594E+5
  -5.17921E+5  -4.80354E+5
  -5.08062E+5  -4.82187E+5
  -4.97940E+5  -4.83480E+5
  -4.88317E+5  -4.84514E+5
  -4.79083E+5  -4.85936E+5
  -4.69528E+5  -4.87544E+5
  -4.59679E+5  -4.89048E+5
  -4.49581E+5  -4.89579E+5
  -4.39907E+5  -4.89241E+5
  -4.31110E+5  -4.89324E+5
  -4.22461E+5  -4.89962E+5
  -4.12889E+5  -4.91056E+5
  -4.02997E+5  -4.91132E+5
  -3.93601E+5  -4.90669E+5
  -3.83792E+5  -4.90512E+5
  -3.74994E+5  -4.90134E+5
  -3.66144E+5  -4.89276E+5
  -3.57279E+5  -4.88510E+5
  -3.48568E+5  -4.87413E+5
  -3.40667E+5  -4.86272E+5
  -3.32516E+5  -4.85754E+5
  -3.23890E+5  -4.84739E+5
  -3.15433E+5  -4.83271E+5
  -3.07969E+5  -4.81572E+5
  -3.00105E+5  -4.80252E+5
  -2.91997E+5  -4.78897E+5
  -2.84219E+5  -4.76810E+5
  -2.76500E+5  -4.74872E+5
  -2.68712E+5  -4.73337E+5
  -2.60846E+5  -4.71284E+5
  -2.53441E+5  -4.69038E+5
  -2.45741E+5  -4.66500E+5
  -2.39149E+5  -4.64175E+5
  -2.32389E+5  -4.62600E+5
  -2.25004E+5  -4.61205E+5
  -2.17877E+5  -4.58462E+5
  -2.10944E+5  -4.55814E+5
  -2.04669E+5  -4.53275E+5
  -1.98208E+5  -4.50883E+5
  -1.91834E+5  -4.48733E+5
  -1.85080E+5  -4.46316E+5
  -1.78462E+5  -4.43407E+5
  -1.72313E+5  -4.40934E+5
  -1.66031E+5  -4.39131E+5
  -1.59121E+5  -4.36536E+5
  -1.52411E+5  -4.33279E+5
  -1.47059E+5  -4.30759E+5
  -1.40999E+5  -4.28384E+5
  -1.34836E+5  -4.26160E+5
  -1.28228E+5  -4.23293E+5
  -1.22299E+5  -4.20582E+5
  -1.16812E+5  -4.17912E+5
  -1.11194E+5  -4.14830E+5
  -1.05657E+5  -4.12042E+5
  -1.00153E+5  -4.08651E+5
  -9.53843E+4  -4.05866E+5
  -9.07909E+4  -4.03591E+5
  -8.49270E+4  -4.01129E+5
  -7.89374E+4  -3.98473E+5
  -7.31219E+4  -3.95064E+5
  -6.78859E+4  -3.91872E+5
  -6.26223E+4  -3.88640E+5
  -5.79437E+4  -3.85540E+5
  -5.25895E+4  -3.82938E+5
  -4.73990E+4  -3.79681E+5
  -4.18806E+4  -3.76470E+5
  -3.69996E+4  -3.73786E+5
  -3.16308E+4  -3.70432E+5
  -2.65818E+4  -3.66443E+5
  -2.20478E+4  -3.62689E+5
  -1.76851E+4  -3.59970E+5
  -1.27658E+4  -3.56871E+5
  -8.04466E+3  -3.53469E+5
  -3.45919E+3  -3.49863E+5
   1.12223E+3  -3.46179E+5
   5.22854E+3  -3.42574E+5
   9.78671E+3  -3.39110E+5
   1.43724E+4  -3.35195E+5
   1.83841E+4  -3.31597E+5
   2.21287E+4  -3.28546E+5
   2.61918E+4  -3.25020E+5
   3.07484E+4  -3.21611E+5
   3.48156E+4  -3.17344E+5
   3.81718E+4  -3.13199E+5
   4.16288E+4  -3.09339E+5
   4.50344E+4  -3.05994E+5
   4.85255E+4  -3.02457E+5
   5.18378E+4  -2.98659E+5
   5.48373E+4  -2.94578E+5
   5.80818E+4  -2.91239E+5
   6.12523E+4  -2.87636E+5
   6.45781E+4  -2.83478E+5
   6.72213E+4  -2.79185E+5
   6.96953E+4  -2.75496E+5
   7.22420E+4  -2.72206E+5
   7.53618E+4  -2.68635E+5
   7.80210E+4  -2.64564E+5
   8.03879E+4  -2.60457E+5
   8.24735E+4  -2.56895E+5
   8.46373E+4  -2.53364E+5
   8.70186E+4  -2.49863E+5
   8.88951E+4  -2.46190E+5
   9.07612E+4  -2.42608E+5
   9.26245E+4  -2.39188E+5
   9.45526E+4  -2.35976E+5
   9.65473E+4  -2.32077E+5
   9.78057E+4  -2.28655E+5
   9.94317E+4  -2.25204E+5
   1.01001E+5  -2.22091E+5
   1.02685E+5  -2.18854E+5
   1.04391E+5  -2.15089E+5
   1.05669E+5  -2.11795E+5
   1.06637E+5  -2.08568E+5
   1.08140E+5  -2.05512E+5
   1.09512E+5  -2.02134E+5
   1.10671E+5  -1.98609E+5
   1.11449E+5  -1.95686E+5
   1.12370E+5  -1.92690E+5
   1.13784E+5  -1.89865E+5
   1.14997E+5  -1.86316E+5
   1.15790E+5  -1.83074E+5
   1.16190E+5  -1.80052E+5
   1.17202E+5  -1.77273E+5
   1.18302E+5  -1.74469E+5
   1.18996E+5  -1.71027E+5
   1.20091E+5  -1.68281E+5
   1.21161E+5  -1.65072E+5
   1.21835E+5  -1.62439E+5
   1.22712E+5  -1.58782E+5
   1.23292E+5  -1.55727E+5
   1.23592E+5  -1.52661E+5
   1.24287E+5  -1.50113E+5
   1.24881E+5  -1.47228E+5
   1.25716E+5  -1.44343E+5
   1.26519E+5  -1.41116E+5
   1.26569E+5  -1.38310E+5
   1.26511E+5  -1.35469E+5
   1.27078E+5  -1.33019E+5
   1.27323E+5  -1.29824E+5
   1.27260E+5  -1.26937E+5
   1.27653E+5  -1.24700E+5
   1.28311E+5  -1.21975E+5
   1.28449E+5  -1.18880E+5
   1.28747E+5  -1.15902E+5
   1.28316E+5  -1.13258E+5
   1.28781E+5  -1.10598E+5
   1.28695E+5  -1.08253E+5
   1.28766E+5  -1.05314E+5
   1.28974E+5  -1.02638E+5
   1.28551E+5  -1.00128E+5
   1.28658E+5  -9.78418E+4
   1.28751E+5  -9.50048E+4
   1.28781E+5  -9.23247E+4
   1.28167E+5  -8.97015E+4
   1.27540E+5  -8.77425E+4
   1.27683E+5  -8.57168E+4
   1.27742E+5  -8.32778E+4
   1.27498E+5  -8.05708E+4
   1.27185E+5  -7.82650E+4
   1.26575E+5  -7.60468E+4
   1.26228E+5  -7.39660E+4
   1.25708E+5  -7.15891E+4
   1.25348E+5  -6.94531E+4
   1.24973E+5  -6.75297E+4
   1.24774E+5  -6.54414E+4
   1.24256E+5  -6.32605E+4
   1.23745E+5  -6.08076E+4
   1.22953E+5  -5.89931E+4
   1.22434E+5  -5.72257E+4
   1.22178E+5  -5.54251E+4
   1.21627E+5  -5.33447E+4
   1.20996E+5  -5.11788E+4
   1.20218E+5  -4.91024E+4
   1.19448E+5  -4.75821E+4
   1.19120E+5  -4.56928E+4
   1.18393E+5  -4.39375E+4
   1.17599E+5  -4.22246E+4
   1.17230E+5  -4.03726E+4
   1.16594E+5  -3.88504E+4
   1.15948E+5  -3.70643E+4
   1.15431E+5  -3.52865E+4
   1.14509E+5  -3.36098E+4
   1.13533E+5  -3.22540E+4
   1.12955E+5  -3.08058E+4
   1.11855E+5  -2.91978E+4
   1.11299E+5  -2.76377E+4
   1.10393E+5  -2.58850E+4
   1.09694E+5  -2.45788E+4
   1.09040E+5  -2.30516E+4
   1.08167E+5  -2.16607E+4
   1.06974E+5  -2.01272E+4
   1.06119E+5  -1.90193E+4
   1.05302E+5  -1.78388E+4
   1.04861E+5  -1.63403E+4
   1.04100E+5  -1.48603E+4
   1.02822E+5  -1.33978E+4
   1.01866E+5  -1.20821E+4
   1.01032E+5  -1.10475E+4
   1.00156E+5  -9.87704E+3
   9.93662E+4  -8.86778E+3
   9.82353E+4  -7.57736E+3
   9.75654E+4  -6.45865E+3
   9.67368E+4  -5.08300E+3
   9.58997E+4  -3.89536E+3
   9.47414E+4  -2.51013E+3
   9.36773E+4  -1.57686E+3
   9.26458E+4  -6.51339E+2
   9.18608E+4   2.54311E+2
   9.11448E+4   1.16330E+3
   8.99795E+4   2.32745E+3
   8.89767E+4   3.42392E+3
   8.81465E+4   4.09519E+3
   8.69468E+4   5.13475E+3
   8.59803E+4   6.23839E+3
   8.46795E+4   7.07034E+3
   8.39101E+4   7.36978E+3
   8.33366E+4   8.39337E+3
   8.23532E+4   9.35896E+3
   8.12932E+4   1.01036E+4
   8.00335E+4   1.10465E+4
   7.90450E+4   1.14047E+4
   7.83675E+4   1.21953E+4
   7.71183E+4   1.30344E+4
   7.59245E+4   1.37237E+4
   7.51363E+4   1.41924E+4
   7.43689E+4   1.45547E+4
   7.32860E+4   1.52003E+4
   7.22028E+4   1.60901E+4
   7.12590E+4   1.65553E+4
   7.01141E+4   1.69109E+4
   6.92901E+4   1.73310E+4
   6.84155E+4   1.78713E+4
   6.72138E+4   1.86371E+4
   6.62934E+4   1.89709E+4
