 
 $NMID
 ID=''
 FMTDAT='(2E13.5)'
 TRAMP=   1.00000E+0
 VOLUME=   1.00000E+0
 $END
  -7.69896E+4   5.40515E+5
  -6.71500E+5   1.29179E+6
  -4.87381E+5   1.34368E+6
  -5.28408E+5   1.22403E+6
  -6.14901E+5   1.24056E+6
  -6.02335E+5   1.21020E+6
  -6.42272E+5   1.14674E+6
  -6.83031E+5   1.17330E+6
  -6.51759E+5   1.16694E+6
  -6.67723E+5   1.12390E+6
  -6.88664E+5   1.12183E+6
  -6.75342E+5   1.09740E+6
  -6.94792E+5   1.06566E+6
  -7.06856E+5   1.07147E+6
  -6.90887E+5   1.05740E+6
  -6.95945E+5   1.03299E+6
  -7.08152E+5   1.03117E+6
  -7.11557E+5   1.00372E+6
  -7.34539E+5   9.70751E+5
  -7.50051E+5   9.61331E+5
  -7.55256E+5   9.37834E+5
  -7.69491E+5   9.12150E+5
  -7.75535E+5   9.00725E+5
  -7.78565E+5   8.78548E+5
  -7.91256E+5   8.52955E+5
  -7.90081E+5   8.44972E+5
  -7.86156E+5   8.31602E+5
  -7.90589E+5   8.18430E+5
  -7.88661E+5   8.06476E+5
  -7.84494E+5   7.89934E+5
  -7.93927E+5   7.72588E+5
  -7.98558E+5   7.57507E+5
  -8.01847E+5   7.36046E+5
  -8.08378E+5   7.16646E+5
  -8.11780E+5   6.99423E+5
  -8.17285E+5   6.78198E+5
  -8.27621E+5   6.58962E+5
  -8.32636E+5   6.40500E+5
  -8.32637E+5   6.21203E+5
  -8.34772E+5   6.06824E+5
  -8.34434E+5   5.92987E+5
  -8.32765E+5   5.77665E+5
  -8.30885E+5   5.65645E+5
  -8.29403E+5   5.55256E+5
  -8.27826E+5   5.41351E+5
  -8.27538E+5   5.29412E+5
  -8.28122E+5   5.15912E+5
  -8.29013E+5   4.97876E+5
  -8.29242E+5   4.80142E+5
  -8.28870E+5   4.64233E+5
  -8.30076E+5   4.48405E+5
  -8.31428E+5   4.31630E+5
  -8.31913E+5   4.15709E+5
  -8.32321E+5   4.00009E+5
  -8.31913E+5   3.84997E+5
  -8.30327E+5   3.70463E+5
  -8.28065E+5   3.56922E+5
  -8.24955E+5   3.43863E+5
  -8.20892E+5   3.31922E+5
  -8.18994E+5   3.20036E+5
  -8.16820E+5   3.07368E+5
  -8.14367E+5   2.94451E+5
  -8.11984E+5   2.81388E+5
  -8.09074E+5   2.67442E+5
  -8.05443E+5   2.52389E+5
  -8.01007E+5   2.38457E+5
  -7.96891E+5   2.25230E+5
  -7.92734E+5   2.12207E+5
  -7.89481E+5   1.99290E+5
  -7.85991E+5   1.86369E+5
  -7.81062E+5   1.73733E+5
  -7.75082E+5   1.62293E+5
  -7.70832E+5   1.51693E+5
  -7.66584E+5   1.39791E+5
  -7.61021E+5   1.27899E+5
  -7.55231E+5   1.16643E+5
  -7.49982E+5   1.05107E+5
  -7.44946E+5   9.29693E+4
  -7.39233E+5   8.04153E+4
  -7.32984E+5   6.82507E+4
  -7.26946E+5   5.59032E+4
  -7.20767E+5   4.44669E+4
  -7.13973E+5   3.31569E+4
  -7.07669E+5   2.23098E+4
  -7.00594E+5   1.14672E+4
  -6.93443E+5   1.76734E+3
  -6.86141E+5  -7.07397E+3
  -6.79521E+5  -1.59203E+4
  -6.72543E+5  -2.45637E+4
  -6.65251E+5  -3.24221E+4
  -6.57601E+5  -3.99798E+4
  -6.50779E+5  -4.81694E+4
  -6.43744E+5  -5.70568E+4
  -6.35720E+5  -6.58837E+4
  -6.27327E+5  -7.39500E+4
  -6.19457E+5  -8.14977E+4
  -6.12464E+5  -8.97967E+4
  -6.04823E+5  -9.80979E+4
  -5.96608E+5  -1.05658E+5
  -5.88945E+5  -1.12259E+5
  -5.81155E+5  -1.18789E+5
  -5.73404E+5  -1.25762E+5
  -5.64543E+5  -1.32223E+5
  -5.56007E+5  -1.37684E+5
  -5.47996E+5  -1.42625E+5
  -5.40567E+5  -1.47139E+5
  -5.32889E+5  -1.52397E+5
  -5.24641E+5  -1.57465E+5
  -5.15608E+5  -1.62417E+5
  -5.06904E+5  -1.66353E+5
  -4.99223E+5  -1.70293E+5
  -4.91668E+5  -1.75251E+5
  -4.83631E+5  -1.80251E+5
  -4.74957E+5  -1.84723E+5
  -4.66796E+5  -1.88799E+5
  -4.58633E+5  -1.93136E+5
  -4.50143E+5  -1.97062E+5
  -4.41305E+5  -2.00869E+5
  -4.32630E+5  -2.03898E+5
  -4.24671E+5  -2.06418E+5
  -4.17387E+5  -2.08915E+5
  -4.09353E+5  -2.12241E+5
  -4.01478E+5  -2.14874E+5
  -3.93799E+5  -2.17570E+5
  -3.85342E+5  -2.20320E+5
  -3.77114E+5  -2.22545E+5
  -3.68895E+5  -2.24421E+5
  -3.61154E+5  -2.26383E+5
  -3.53298E+5  -2.28489E+5
  -3.45643E+5  -2.30801E+5
  -3.37674E+5  -2.33184E+5
  -3.29286E+5  -2.35049E+5
  -3.21510E+5  -2.36422E+5
  -3.14119E+5  -2.37926E+5
  -3.06167E+5  -2.39768E+5
  -2.98612E+5  -2.40637E+5
  -2.91261E+5  -2.41635E+5
  -2.83990E+5  -2.42628E+5
  -2.76753E+5  -2.43534E+5
  -2.69543E+5  -2.44653E+5
  -2.62396E+5  -2.45343E+5
  -2.55079E+5  -2.45812E+5
  -2.48256E+5  -2.45737E+5
  -2.41709E+5  -2.46059E+5
  -2.35334E+5  -2.46716E+5
  -2.28417E+5  -2.46705E+5
  -2.21785E+5  -2.46533E+5
  -2.15289E+5  -2.46031E+5
  -2.08901E+5  -2.45713E+5
  -2.02871E+5  -2.45189E+5
  -1.96926E+5  -2.44453E+5
  -1.90943E+5  -2.43559E+5
  -1.85468E+5  -2.42707E+5
  -1.79890E+5  -2.42049E+5
  -1.74024E+5  -2.41208E+5
  -1.68581E+5  -2.40149E+5
  -1.63497E+5  -2.38772E+5
  -1.58302E+5  -2.37720E+5
  -1.52725E+5  -2.36481E+5
  -1.47572E+5  -2.35166E+5
  -1.42778E+5  -2.33879E+5
  -1.37878E+5  -2.32521E+5
  -1.32784E+5  -2.31210E+5
  -1.27883E+5  -2.29295E+5
  -1.23478E+5  -2.27416E+5
  -1.19064E+5  -2.25744E+5
  -1.14545E+5  -2.24291E+5
  -1.10045E+5  -2.22546E+5
  -1.06034E+5  -2.20588E+5
  -1.01676E+5  -2.18646E+5
  -9.79886E+4  -2.16538E+5
  -9.38990E+4  -2.14772E+5
  -9.00349E+4  -2.13168E+5
  -8.63421E+4  -2.10809E+5
  -8.24581E+4  -2.08602E+5
  -7.88366E+4  -2.06897E+5
  -7.54363E+4  -2.04768E+5
  -7.12559E+4  -2.02913E+5
  -6.80529E+4  -2.00216E+5
  -6.47311E+4  -1.97880E+5
  -6.15018E+4  -1.96044E+5
  -5.80361E+4  -1.94043E+5
  -5.47716E+4  -1.92105E+5
  -5.14142E+4  -1.89820E+5
  -4.85298E+4  -1.87754E+5
  -4.54147E+4  -1.85365E+5
  -4.25719E+4  -1.83084E+5
  -3.95838E+4  -1.80958E+5
  -3.71208E+4  -1.78612E+5
  -3.47241E+4  -1.76525E+5
  -3.19221E+4  -1.74610E+5
  -2.89623E+4  -1.72390E+5
  -2.63380E+4  -1.70018E+5
  -2.38197E+4  -1.67463E+5
  -2.13326E+4  -1.65523E+5
  -1.88594E+4  -1.63442E+5
  -1.63512E+4  -1.61134E+5
  -1.38794E+4  -1.58911E+5
  -1.15175E+4  -1.56820E+5
  -9.04181E+3  -1.54667E+5
  -6.58665E+3  -1.52218E+5
  -4.58352E+3  -1.50007E+5
  -2.48182E+3  -1.47765E+5
  -3.76359E+2  -1.45761E+5
   1.55095E+3  -1.43406E+5
   3.38235E+3  -1.41245E+5
   5.68605E+3  -1.39090E+5
   7.27973E+3  -1.36830E+5
   9.24284E+3  -1.34875E+5
   1.08744E+4  -1.32288E+5
   1.24932E+4  -1.30053E+5
   1.42969E+4  -1.27772E+5
   1.59118E+4  -1.26045E+5
   1.75950E+4  -1.23885E+5
   1.90082E+4  -1.21965E+5
   2.03605E+4  -1.19559E+5
   2.16944E+4  -1.17345E+5
   2.29269E+4  -1.15127E+5
   2.41838E+4  -1.13349E+5
   2.52375E+4  -1.11065E+5
   2.61350E+4  -1.09236E+5
   2.72943E+4  -1.07199E+5
   2.85167E+4  -1.05116E+5
   2.93854E+4  -1.03048E+5
   3.03820E+4  -1.01323E+5
   3.10703E+4  -9.92485E+4
   3.18924E+4  -9.73615E+4
   3.23001E+4  -9.57317E+4
   3.32913E+4  -9.37502E+4
   3.39394E+4  -9.19898E+4
   3.44106E+4  -9.01760E+4
   3.49824E+4  -8.85018E+4
   3.53842E+4  -8.66363E+4
   3.56527E+4  -8.52279E+4
   3.59157E+4  -8.36675E+4
   3.63884E+4  -8.18268E+4
   3.65935E+4  -8.04285E+4
   3.70648E+4  -7.90707E+4
   3.72398E+4  -7.77035E+4
   3.73438E+4  -7.60574E+4
   3.73882E+4  -7.45979E+4
   3.75250E+4  -7.33392E+4
   3.78319E+4  -7.18354E+4
   3.80553E+4  -7.04080E+4
   3.81205E+4  -6.91121E+4
   3.80701E+4  -6.79629E+4
   3.82727E+4  -6.65623E+4
   3.83833E+4  -6.52848E+4
   3.84143E+4  -6.38887E+4
   3.84056E+4  -6.26708E+4
   3.84164E+4  -6.16630E+4
   3.85334E+4  -6.03629E+4
   3.83175E+4  -5.93137E+4
   3.83833E+4  -5.82127E+4
   3.84927E+4  -5.67050E+4
   3.82677E+4  -5.57256E+4
   3.83868E+4  -5.45808E+4
   3.83452E+4  -5.33691E+4
   3.85339E+4  -5.24285E+4
   3.85723E+4  -5.14057E+4
   3.86300E+4  -5.04668E+4
   3.84685E+4  -4.91045E+4
   3.83593E+4  -4.79762E+4
   3.82008E+4  -4.69820E+4
   3.82710E+4  -4.58600E+4
   3.83831E+4  -4.51319E+4
   3.85056E+4  -4.40133E+4
   3.83234E+4  -4.30021E+4
   3.81518E+4  -4.18964E+4
   3.80957E+4  -4.11335E+4
   3.80135E+4  -4.00387E+4
   3.78938E+4  -3.93234E+4
   3.82057E+4  -3.82275E+4
   3.80292E+4  -3.73764E+4
   3.80280E+4  -3.67373E+4
   3.83735E+4  -3.54520E+4
   3.80946E+4  -3.46405E+4
   3.81991E+4  -3.40801E+4
   3.77943E+4  -3.31375E+4
   3.76565E+4  -3.21374E+4
   3.76943E+4  -3.13459E+4
   3.76174E+4  -3.08213E+4
   3.77927E+4  -3.01022E+4
   3.78946E+4  -2.90463E+4
   3.78319E+4  -2.83912E+4
   3.75914E+4  -2.74478E+4
   3.75457E+4  -2.69928E+4
   3.74609E+4  -2.64551E+4
   3.74052E+4  -2.57606E+4
   3.74225E+4  -2.50192E+4
   3.73909E+4  -2.41979E+4
   3.72642E+4  -2.37160E+4
   3.74076E+4  -2.29294E+4
   3.71172E+4  -2.25068E+4
   3.73168E+4  -2.17504E+4
   3.73627E+4  -2.12076E+4
   3.71291E+4  -2.06119E+4
   3.70726E+4  -2.01786E+4
   3.72665E+4  -1.96278E+4
   3.69652E+4  -1.87617E+4
   3.68409E+4  -1.86214E+4
   3.69699E+4  -1.79646E+4
   3.69845E+4  -1.73499E+4
   3.67926E+4  -1.66561E+4
   3.68158E+4  -1.61164E+4
   3.68003E+4  -1.56615E+4
   3.68529E+4  -1.53081E+4
   3.64723E+4  -1.48066E+4
   3.66584E+4  -1.39351E+4
   3.64921E+4  -1.38209E+4
   3.64204E+4  -1.32525E+4
   3.63276E+4  -1.28996E+4
   3.63530E+4  -1.22916E+4
   3.63493E+4  -1.17981E+4
   3.62885E+4  -1.15459E+4
   3.61431E+4  -1.11074E+4
   3.58141E+4  -1.06965E+4
   3.58655E+4  -1.01326E+4
   3.58815E+4  -9.47436E+3
   3.57812E+4  -8.97764E+3
   3.52131E+4  -8.68300E+3
   3.54689E+4  -8.51724E+3
   3.51083E+4  -7.90534E+3
   3.52574E+4  -7.32795E+3
   3.51395E+4  -7.08913E+3
   3.47822E+4  -6.43551E+3
   3.51217E+4  -6.12452E+3
   3.49984E+4  -5.55031E+3
   3.46519E+4  -5.15038E+3
   3.45266E+4  -4.87611E+3
   3.42880E+4  -4.39642E+3
   3.41265E+4  -3.99137E+3
   3.42681E+4  -3.65285E+3
   3.39903E+4  -3.26567E+3
   3.40406E+4  -3.13046E+3
   3.37713E+4  -2.40533E+3
   3.38455E+4  -1.94724E+3
   3.34316E+4  -1.55325E+3
   3.33276E+4  -1.23287E+3
   3.30946E+4  -6.98813E+2
   3.32054E+4  -3.73494E+2
   3.29374E+4  -6.57692E+1
   3.28978E+4   3.90244E+2
   3.27096E+4   6.45555E+2
   3.22424E+4   8.53986E+2
   3.22713E+4   1.44538E+3
   3.20387E+4   1.62828E+3
   3.20347E+4   2.12071E+3
   3.15942E+4   2.42066E+3
   3.15223E+4   2.83644E+3
   3.14163E+4   3.25957E+3
   3.11872E+4   3.49280E+3
   3.07810E+4   3.95968E+3
   3.05081E+4   4.25769E+3
   3.06681E+4   4.52027E+3
   3.03694E+4   5.15352E+3
   2.98791E+4   5.16253E+3
   3.01586E+4   5.11186E+3
   2.98156E+4   5.76663E+3
   2.94089E+4   6.22511E+3
   2.91384E+4   6.54037E+3
   2.90165E+4   6.84861E+3
   2.88018E+4   7.06094E+3
   2.87117E+4   7.06569E+3
   2.87044E+4   7.38256E+3
   2.84400E+4   7.76193E+3
   2.80567E+4   8.00917E+3
