 LCModel (Version 6.3-1N) Copyright: S.W. Provencher.          Ref.: Magn. Reson. Med. 30:672-679 (1993).                
 Slice_N1@20_14  28-Feb-2025 11:43:00
 27 lines in following concentration table = NCONC+1
    Conc.  %SD /Cr+PCr  Metabolite                                         
 3.29E-04   2% 3.4E-04 Mac                                                 
    1.693  68%   1.726 Cr                                                  
    6.151  19%   6.274 PCr                                                 
    6.043  11%   6.163 Ins                                                 
    9.511   6%   9.700 NAA                                                 
    4.821  13%   4.917 Tau                                                 
    1.014  76%   1.035 PCho                                                
    1.128  66%   1.150 GPC                                                 
    8.274   9%   8.439 Glu                                                 
    3.783  16%   3.858 Gln                                                 
    1.597  31%   1.629 Ala                                                 
    3.652  24%   3.725 Asc                                                 
    3.222  24%   3.286 Asp                                                 
    0.670  63%   0.684 GABA                                                
    0.818  70%   0.835 Glc                                                 
    1.081  35%   1.103 GSH                                                 
    3.328  15%   3.394 Lac                                                 
    2.083  23%   2.125 NAAG                                                
    0.000 999%   0.000 PE                                                  
    2.142   8%   2.185 GPC+PCho                                            
   11.594   5%  11.825 NAA+NAAG                                            
   12.057   8%  12.297 Glu+Gln                                             
    7.844   6%   8.000 Cr+PCr                                              
   11.594   5%  11.825 NAA+NAAG                                            
    7.844   6%   8.000 Cr+PCr                                              
   12.057   8%  12.297 Glu+Gln                                             
   6 lines in following misc. output table
  FWHM = 0.033 ppm    S/N =   5                                            
  Data shift = 0.016 ppm                                                   
  Ph:-127 deg       0.0 deg/ppm                                            
  alphaB,S = 2.6E+00,   1.2E+01                                            
   19 spline knots.   Ns = 5(1)                                            
  ( 4) 2 infls.   ( 2) 1 extrs.                                            
  480 points on ppm-axis = NY
      4.100000     4.091866     4.083733     4.075600     4.067466     4.059333     4.051199     4.043066     4.034933     4.026799
      4.018666     4.010532     4.002399     3.994265     3.986132     3.977998     3.969864     3.961731     3.953597     3.945463
      3.937330     3.929196     3.921062     3.912929     3.904795     3.896662     3.888528     3.880394     3.872261     3.864127
      3.855993     3.847860     3.839726     3.831592     3.823459     3.815325     3.807191     3.799058     3.790924     3.782790
      3.774657     3.766523     3.758389     3.750256     3.742122     3.733989     3.725855     3.717721     3.709588     3.701454
      3.693320     3.685187     3.677053     3.668919     3.660786     3.652652     3.644518     3.636385     3.628251     3.620117
      3.611984     3.603850     3.595716     3.587583     3.579449     3.571316     3.563182     3.555048     3.546915     3.538781
      3.530647     3.522514     3.514380     3.506246     3.498113     3.489979     3.481845     3.473712     3.465578     3.457444
      3.449311     3.441177     3.433043     3.424910     3.416776     3.408643     3.400509     3.392375     3.384242     3.376108
      3.367974     3.359841     3.351707     3.343573     3.335440     3.327306     3.319172     3.311039     3.302905     3.294771
      3.286638     3.278504     3.270370     3.262237     3.254103     3.245970     3.237836     3.229702     3.221569     3.213435
      3.205301     3.197168     3.189034     3.180900     3.172767     3.164633     3.156499     3.148366     3.140232     3.132098
      3.123965     3.115831     3.107697     3.099564     3.091430     3.083297     3.075163     3.067029     3.058896     3.050762
      3.042628     3.034495     3.026361     3.018227     3.010094     3.001960     2.993826     2.985693     2.977559     2.969425
      2.961292     2.953158     2.945024     2.936891     2.928757     2.920624     2.912490     2.904356     2.896223     2.888089
      2.879955     2.871822     2.863688     2.855554     2.847421     2.839287     2.831153     2.823020     2.814886     2.806752
      2.798619     2.790485     2.782351     2.774218     2.766084     2.757951     2.749817     2.741683     2.733550     2.725416
      2.717282     2.709149     2.701015     2.692881     2.684748     2.676614     2.668480     2.660347     2.652213     2.644079
      2.635946     2.627812     2.619678     2.611545     2.603411     2.595278     2.587144     2.579010     2.570877     2.562743
      2.554609     2.546476     2.538342     2.530208     2.522075     2.513941     2.505807     2.497674     2.489540     2.481406
      2.473273     2.465139     2.457006     2.448872     2.440738     2.432605     2.424471     2.416337     2.408204     2.400070
      2.391936     2.383803     2.375669     2.367535     2.359402     2.351268     2.343134     2.335001     2.326867     2.318733
      2.310600     2.302466     2.294333     2.286199     2.278065     2.269932     2.261798     2.253664     2.245531     2.237397
      2.229263     2.221130     2.212996     2.204862     2.196729     2.188595     2.180461     2.172328     2.164194     2.156060
      2.147927     2.139793     2.131660     2.123526     2.115392     2.107259     2.099125     2.090991     2.082858     2.074724
      2.066590     2.058457     2.050323     2.042189     2.034056     2.025922     2.017788     2.009655     2.001521     1.993387
      1.985254     1.977120     1.968987     1.960853     1.952719     1.944586     1.936452     1.928318     1.920185     1.912051
      1.903917     1.895784     1.887650     1.879516     1.871383     1.863249     1.855115     1.846982     1.838848     1.830714
      1.822581     1.814447     1.806314     1.798180     1.790046     1.781913     1.773779     1.765645     1.757512     1.749378
      1.741244     1.733111     1.724977     1.716843     1.708710     1.700576     1.692442     1.684309     1.676175     1.668041
      1.659908     1.651774     1.643641     1.635507     1.627373     1.619240     1.611106     1.602972     1.594839     1.586705
      1.578571     1.570438     1.562304     1.554170     1.546037     1.537903     1.529769     1.521636     1.513502     1.505368
      1.497235     1.489101     1.480968     1.472834     1.464700     1.456567     1.448433     1.440299     1.432166     1.424032
      1.415898     1.407765     1.399631     1.391497     1.383364     1.375230     1.367096     1.358963     1.350829     1.342695
      1.334562     1.326428     1.318295     1.310161     1.302027     1.293894     1.285760     1.277626     1.269493     1.261359
      1.253225     1.245092     1.236958     1.228824     1.220691     1.212557     1.204423     1.196290     1.188156     1.180022
      1.171889     1.163755     1.155622     1.147488     1.139354     1.131221     1.123087     1.114953     1.106820     1.098686
      1.090552     1.082419     1.074285     1.066151     1.058018     1.049884     1.041750     1.033617     1.025483     1.017349
      1.009216     1.001082     0.992949     0.984815     0.976681     0.968548     0.960414     0.952280     0.944147     0.936013
      0.927879     0.919746     0.911612     0.903478     0.895345     0.887211     0.879077     0.870944     0.862810     0.854676
      0.846543     0.838409     0.830276     0.822142     0.814008     0.805875     0.797741     0.789607     0.781474     0.773340
      0.765206     0.757073     0.748939     0.740805     0.732672     0.724538     0.716404     0.708271     0.700137     0.692003
      0.683870     0.675736     0.667603     0.659469     0.651335     0.643202     0.635068     0.626934     0.618801     0.610667
      0.602533     0.594400     0.586266     0.578132     0.569999     0.561865     0.553731     0.545598     0.537464     0.529330
      0.521197     0.513063     0.504930     0.496796     0.488662     0.480529     0.472395     0.464261     0.456128     0.447994
      0.439861     0.431727     0.423593     0.415460     0.407326     0.399192     0.391059     0.382925     0.374792     0.366658
      0.358524     0.350391     0.342257     0.334124     0.325990     0.317856     0.309723     0.301589     0.293455     0.285322
      0.277188     0.269055     0.260921     0.252787     0.244654     0.236520     0.228386     0.220253     0.212119     0.203986
 NY phased data points follow
   1.08601E+01  2.26465E+01  2.00449E+01  1.30163E+01  9.75570E+00  1.09347E+01  9.66867E+00  1.73320E+00 -6.60993E+00  3.89021E+00
   9.97437E+00 -6.93476E+00 -1.01246E+01 -1.33317E+01 -1.21879E+01 -2.38669E+01 -3.22201E+01 -3.08344E+01 -5.06296E+01 -5.49376E+01
  -5.69790E+01 -3.24036E+01 -6.78767E+00  6.96895E+00  2.26613E+01  3.12919E+01  4.69774E+01  4.05925E+01  4.21916E+01  4.17409E+01
   4.49426E+01  4.18609E+01  4.29210E+01  3.32592E+01  2.18067E+01  4.80960E+01  2.49936E+01  2.47248E+01  1.16035E+01 -1.20470E+01
  -3.77500E+00 -2.11292E+01  1.05739E+00  1.02125E+01  1.16470E+01  2.87382E+01  3.15994E+01  4.85839E+01  7.36744E+01  5.85680E+01
   4.64116E+01  6.68887E+01  5.87835E+01  5.73064E+01  5.16503E+01  3.33265E+01  1.86109E+01  1.53377E+01  2.62705E+01  1.99317E+01
   2.84313E+01  4.08768E+01  2.44392E+01  3.61810E+01  7.31783E+01  6.34105E+01  4.66616E+01  4.79911E+01  3.40863E+01  1.63684E+01
   1.63699E+01  1.71257E+01  2.34908E+01  4.47746E+01  5.07473E+01  5.95956E+01  6.65754E+01  6.96077E+01  7.37423E+01  7.18539E+01
   7.21890E+01  7.55242E+01  5.99863E+01  4.54761E+01  5.72470E+01  3.78077E+01  3.16583E+01  4.78023E+01  4.68674E+01  6.77631E+01
   7.65188E+01  7.55820E+01  1.02478E+02  9.75614E+01  9.73848E+01  1.09456E+02  8.38780E+01  1.04284E+02  1.08217E+02  9.04997E+01
   9.20446E+01  8.19450E+01  6.61215E+01  4.30619E+01  5.55116E+01  3.41872E+01  2.10861E+01  1.88083E+01 -2.39727E+01 -5.96527E+01
  -9.38522E+01 -8.54556E+01 -7.68217E+01 -6.96114E+01 -4.53469E+01 -2.49875E+01 -1.47740E+01 -1.45951E+00  1.84000E+01  1.45790E+01
   2.69030E+01  2.97465E+01  3.01089E+01  4.57144E+01  4.81968E+01  5.90174E+01  8.24447E+01  9.32563E+01  1.03331E+02  1.24116E+02
   1.21473E+02  1.09754E+02  5.42100E+01 -1.70199E+01 -4.02788E+01 -6.29362E+01 -7.27588E+01 -6.16865E+01 -5.96047E+01 -6.26478E+01
  -5.12738E+01 -4.09395E+01 -3.84278E+01 -3.26720E+01 -3.82436E+01 -4.47906E+01 -3.79789E+01 -2.88434E+01 -3.04184E+01 -2.97549E+01
  -2.76363E+01 -1.91507E+01 -1.08922E+01 -3.97155E+00  1.65187E-01 -2.02828E+01 -4.34548E+00 -4.77729E+00 -1.67047E+01  7.68802E+00
  -2.67192E+00  6.66340E+00 -5.51968E-01 -3.72235E+00  7.70518E+00 -1.57901E+01 -1.51982E+00  2.48683E+00  6.88424E+00  1.94606E+01
   2.47557E+01  3.65052E+01  3.48542E+01  3.98234E+01  4.78689E+01  4.41434E+01  3.41236E+01  3.70491E+01  2.96300E+01  1.85821E+01
   1.24990E-01 -1.33691E+01 -1.20225E+01 -2.43562E+01 -3.27010E+01 -2.87585E+01 -1.94821E+01 -2.77661E+01 -1.65837E+01 -5.20680E+00
  -6.00977E+00 -2.89552E+00  6.68688E+00  1.46984E+01 -1.83676E+00  1.69100E+01  2.10497E+01  1.39616E+01  1.84383E+01  1.46307E+01
   1.06704E+01  8.14519E+00  2.38140E+01  1.68108E+01  2.11425E+01  2.49800E+01  1.18902E+01 -8.79085E-01 -9.52229E+00 -7.37700E+00
  -1.96437E+01 -1.85420E+01 -3.88320E+00  6.69101E+00  2.95048E+01  5.05514E+01  4.60849E+01  5.54981E+01  4.82354E+01  3.48122E+01
   3.73504E+01  2.02023E+01  9.30787E+00  8.51642E+00  2.61634E+01  2.93160E+01  3.19859E+01  2.43615E+01  1.81403E+01  2.42616E+01
   2.97131E+01  3.35887E+01 -5.14827E+00 -7.77985E+00 -1.33284E+01 -1.72709E+01 -3.36788E+01 -5.72626E+01 -2.81967E+01 -3.92302E+01
  -3.61942E+01 -2.24034E+01 -1.02007E+01 -3.79319E+00 -9.45696E+00 -1.78691E+00  5.66453E+00  4.31826E+00 -1.48678E+01 -9.94720E+00
  -1.33330E+01 -1.00105E+01 -2.54158E+01 -3.28070E+01 -2.19494E+01 -4.17318E+01 -1.54071E-02  6.24972E+01  1.25827E+02  1.71186E+02
   1.79567E+02  1.80196E+02  1.61509E+02  1.40154E+02  1.28388E+02  1.28046E+02  1.09357E+02  1.12733E+02  1.17341E+02  9.52814E+01
   1.06032E+02  1.23356E+02  1.16117E+02  1.01695E+02  1.14433E+02  1.21896E+02  1.08282E+02  1.10724E+02  1.17566E+02  1.23668E+02
   1.02550E+02  8.88066E+01  1.06543E+02  9.62220E+01  8.83864E+01  8.44466E+01  8.30368E+01  8.21284E+01  7.79311E+01  8.73795E+01
   7.38242E+01  7.66082E+01  8.15023E+01  7.30375E+01  6.38081E+01  5.79536E+01  5.80838E+01  5.22777E+01  6.38773E+01  4.50346E+01
   5.27306E+01  6.55377E+01  6.21093E+01  8.25257E+01  6.47084E+01  6.92318E+01  6.58785E+01  6.56334E+01  8.20078E+01  8.02742E+01
   9.66539E+01  9.40480E+01  9.98040E+01  1.00691E+02  9.55040E+01  1.08575E+02  1.04397E+02  9.09481E+01  9.82426E+01  1.11119E+02
   1.04750E+02  1.07314E+02  1.00025E+02  7.85067E+01  6.15474E+01  6.29833E+01  6.13898E+01  3.39327E+01  3.38738E+01  2.69070E+01
   1.30280E+01  2.75133E+01  1.71364E+01  7.94525E+00  2.01539E+01  2.57775E+01  3.01899E+01  3.22655E+01  4.43881E+01  4.45072E+01
   4.75575E+01  5.59500E+01  3.69082E+01  3.43461E+01  2.92343E+01  2.72905E+01  3.34052E+01  3.10497E+01  3.38333E+01  4.06670E+01
   5.22199E+01  3.42560E+01  2.73038E+01  1.93730E+01  1.55301E+01  2.68629E+01 -9.69387E-02  3.42336E+00  8.08099E+00 -4.13993E+00
   1.56638E+01  2.21100E+01  1.55622E+01  2.32922E+01  3.16211E+01  2.93956E+01  2.83180E+01  3.83041E+01  4.24267E+01  3.90549E+01
   5.26799E+01  5.11357E+01  4.95768E+01  6.44901E+01  5.42136E+01  6.17744E+01  8.87799E+01  9.05181E+01  8.20063E+01  8.33319E+01
   1.01751E+02  1.15343E+02  1.22040E+02  1.34814E+02  1.38027E+02  1.48024E+02  1.49696E+02  1.55883E+02  1.58690E+02  1.35198E+02
   1.33972E+02  1.17687E+02  1.11315E+02  9.82468E+01  8.23297E+01  8.93021E+01  6.48062E+01  7.70617E+01  6.36699E+01  3.82145E+01
   4.33191E+01  2.95241E+01  2.48507E+01 -7.01276E-01 -6.14155E+00  8.95978E+00  1.00656E+01 -4.81211E+00 -4.13565E+00  1.52199E+01
   9.34798E+00  1.14204E+01  4.09072E+00  4.82210E+00  4.49878E+00  5.31605E-01  9.57579E+00 -1.09664E+00  3.32725E+00 -3.35546E+00
   3.21937E+00  1.18972E+01 -3.95540E+00  1.28519E+01  1.20550E+01  1.21528E+01  1.35474E+01  1.18059E+00  8.40878E+00  4.19837E+00
   4.99011E+00  7.06113E+00 -2.41322E+00 -1.56780E+01 -1.40796E+01 -3.56167E+00 -2.39204E+00  1.09915E+01  1.10770E+01 -4.28054E-01
  -5.06130E+00 -5.00513E-01  8.18887E+00  1.23784E+01  9.20693E+00 -1.03265E+00  8.90145E+00  1.97946E+01  1.21628E+01  6.88473E+00
   9.07655E+00  1.03912E+01  1.58616E+01  7.34177E+00  1.96662E+00  1.73586E+01  1.15538E+01  1.10551E+01  4.24642E+00 -4.34103E-01
   1.44711E+01  4.17027E+00  6.32978E+00  3.68686E+00 -2.18833E+00  1.23321E+01  9.43303E+00  1.05451E+01  3.97173E+00  5.88609E+00
   1.79028E+01  1.69734E+01  1.94032E+01 -1.09699E+01 -4.70333E+00  2.13461E+01  4.08325E+00  1.33626E+01  1.21059E+01  5.38917E+00
 NY points of the fit to the data follow
   1.04160E+00 -1.04009E+00 -3.42323E+00 -4.80487E+00 -3.09285E+00  2.99684E+00  1.00078E+01  1.26871E+01  1.07205E+01  5.67313E+00
  -4.27973E-01 -4.84464E+00 -6.00579E+00 -5.98738E+00 -7.11994E+00 -1.06249E+01 -1.85799E+01 -3.00606E+01 -4.15744E+01 -5.14066E+01
  -5.11704E+01 -3.44217E+01 -9.57735E+00  1.33017E+01  3.21727E+01  4.51953E+01  4.90876E+01  5.13296E+01  5.53652E+01  5.68213E+01
   5.76706E+01  5.72341E+01  5.54571E+01  5.25712E+01  4.87963E+01  4.40330E+01  3.70464E+01  2.72466E+01  1.46220E+01  7.05782E-01
  -1.01296E+01 -1.28466E+01 -7.26983E+00  3.28620E+00  1.69246E+01  3.14627E+01  4.33240E+01  5.22797E+01  5.86527E+01  6.20646E+01
   6.12481E+01  5.77159E+01  5.13645E+01  4.35961E+01  3.64594E+01  2.98867E+01  2.60169E+01  2.42122E+01  2.12652E+01  2.07688E+01
   2.53589E+01  3.12029E+01  3.73934E+01  4.79887E+01  5.86187E+01  6.21071E+01  6.17092E+01  5.57808E+01  4.16147E+01  2.74517E+01
   2.08935E+01  2.18925E+01  2.69883E+01  3.67623E+01  4.99237E+01  5.98346E+01  6.65097E+01  7.17841E+01  7.37999E+01  7.20493E+01
   6.73304E+01  5.97918E+01  4.95986E+01  3.94295E+01  3.28221E+01  3.18126E+01  3.64359E+01  4.47739E+01  5.46244E+01  6.25308E+01
   6.88811E+01  7.37316E+01  7.73037E+01  8.07837E+01  8.42275E+01  8.68444E+01  8.85905E+01  8.98619E+01  8.95478E+01  8.79522E+01
   8.70520E+01  8.30996E+01  7.46055E+01  6.46105E+01  5.63459E+01  4.58489E+01  3.40096E+01  1.92288E+01 -1.17293E+01 -5.34540E+01
  -8.16691E+01 -8.79375E+01 -7.82369E+01 -5.95010E+01 -3.46780E+01 -1.89206E+01 -1.02278E+01 -2.35493E+00  4.94541E+00  1.19207E+01
   1.88053E+01  2.58892E+01  3.35350E+01  4.22300E+01  5.24778E+01  6.41562E+01  7.69408E+01  9.48506E+01  1.12677E+02  1.24882E+02
   1.27058E+02  1.03008E+02  5.01107E+01 -5.48290E+00 -4.11945E+01 -5.93384E+01 -6.29848E+01 -5.12699E+01 -4.39155E+01 -4.29658E+01
  -4.25908E+01 -4.25193E+01 -4.24564E+01 -4.21051E+01 -4.13769E+01 -4.00599E+01 -3.78570E+01 -3.48906E+01 -3.15962E+01 -2.80967E+01
  -2.48497E+01 -2.18874E+01 -1.90130E+01 -1.60742E+01 -1.28649E+01 -1.00543E+01 -8.16859E+00 -6.87207E+00 -5.41402E+00 -3.41595E+00
  -1.17303E+00  1.83761E-01 -3.00996E-01 -1.81326E+00 -2.90944E+00 -3.05694E+00 -2.59157E+00 -1.57612E+00  5.69234E-01  4.90742E+00
   1.23127E+01  2.09691E+01  2.66734E+01  2.74758E+01  2.64738E+01  2.69578E+01  2.81650E+01  2.72058E+01  2.22518E+01  1.39085E+01
   4.71320E+00 -3.18289E+00 -8.50714E+00 -1.10763E+01 -1.21830E+01 -1.30694E+01 -1.29242E+01 -1.17984E+01 -1.02212E+01 -8.66661E+00
  -6.03891E+00 -3.05602E+00 -2.26727E-03  4.97316E+00  9.86980E+00  1.23776E+01  1.41144E+01  1.66317E+01  1.83727E+01  1.87725E+01
   2.05941E+01  2.27430E+01  2.48190E+01  2.55692E+01  2.28913E+01  1.86357E+01  1.22539E+01  4.20046E+00 -3.06624E+00 -8.47686E+00
  -1.18698E+01 -1.05046E+01 -3.61851E+00  8.00233E+00  2.47130E+01  4.20915E+01  5.42699E+01  5.91177E+01  5.76807E+01  5.05746E+01
   4.16635E+01  3.78562E+01  3.62670E+01  3.77309E+01  4.03339E+01  4.10643E+01  3.91665E+01  3.40682E+01  2.58637E+01  1.59649E+01
   4.60283E+00 -7.22067E+00 -1.79830E+01 -2.78095E+01 -3.62660E+01 -4.19874E+01 -4.53800E+01 -4.66030E+01 -4.49352E+01 -4.10938E+01
  -3.60197E+01 -2.90369E+01 -2.07263E+01 -1.26392E+01 -5.86186E+00 -1.27839E+00 -7.43685E-01 -3.10794E+00 -7.97864E+00 -1.48917E+01
  -2.04483E+01 -2.51439E+01 -3.31110E+01 -3.67486E+01 -3.84172E+01 -3.69821E+01 -8.55456E+00  5.25025E+01  1.11889E+02  1.47195E+02
   1.65320E+02  1.64584E+02  1.43730E+02  1.31513E+02  1.25288E+02  1.20414E+02  1.16001E+02  1.11933E+02  1.08290E+02  1.05476E+02
   1.03739E+02  1.03187E+02  1.03433E+02  1.03984E+02  1.04598E+02  1.04767E+02  1.04546E+02  1.03819E+02  1.02892E+02  1.01542E+02
   9.97860E+01  9.78048E+01  9.55623E+01  9.33861E+01  9.10918E+01  8.87414E+01  8.63111E+01  8.36906E+01  8.07240E+01  7.73643E+01
   7.35641E+01  6.93868E+01  6.50970E+01  6.10122E+01  5.76932E+01  5.57652E+01  5.53419E+01  5.63824E+01  5.86476E+01  6.14868E+01
   6.46355E+01  6.79562E+01  7.13066E+01  7.44734E+01  7.74455E+01  8.02334E+01  8.28357E+01  8.55352E+01  8.84574E+01  9.14367E+01
   9.42796E+01  9.68453E+01  9.90795E+01  1.01074E+02  1.02818E+02  1.04119E+02  1.04895E+02  1.05281E+02  1.05109E+02  1.03567E+02
   1.00885E+02  9.56581E+01  8.66857E+01  7.58730E+01  6.50879E+01  5.52982E+01  4.73550E+01  4.14697E+01  3.57593E+01  2.87650E+01
   2.24133E+01  1.61597E+01  1.16981E+01  1.01895E+01  1.17825E+01  1.62399E+01  2.30214E+01  3.14556E+01  3.90122E+01  4.52889E+01
   4.68353E+01  4.14208E+01  3.17728E+01  2.13045E+01  1.35978E+01  1.17337E+01  1.63329E+01  2.32858E+01  2.84810E+01  3.34894E+01
   3.43453E+01  3.32644E+01  3.08412E+01  2.71754E+01  2.28232E+01  1.89032E+01  1.61810E+01  1.49497E+01  1.54129E+01  1.73731E+01
   2.04280E+01  2.41591E+01  2.84244E+01  3.28636E+01  3.72491E+01  4.14309E+01  4.52958E+01  4.89465E+01  5.24987E+01  5.60492E+01
   5.96750E+01  6.32467E+01  6.70029E+01  7.09515E+01  7.52351E+01  8.01997E+01  8.57184E+01  9.17104E+01  9.84406E+01  1.05855E+02
   1.13625E+02  1.21838E+02  1.30676E+02  1.39434E+02  1.47510E+02  1.53933E+02  1.57323E+02  1.56436E+02  1.50900E+02  1.41318E+02
   1.29246E+02  1.16820E+02  1.05452E+02  9.56480E+01  8.73512E+01  7.96445E+01  7.13711E+01  6.20413E+01  5.20213E+01  4.17354E+01
   3.19646E+01  2.36410E+01  1.71450E+01  1.21981E+01  8.65550E+00  6.31032E+00  4.64502E+00  3.39422E+00  2.28617E+00  1.34557E+00
   4.74502E-01 -1.16953E-01 -3.82960E-01 -3.89345E-01 -3.18420E-01 -2.05463E-01 -3.50445E-02  5.82830E-02  3.64572E-02  1.98281E-01
   5.48162E-01  8.38290E-01  1.00625E+00  1.23152E+00  1.44023E+00  1.52673E+00  1.62370E+00  1.82914E+00  2.18410E+00  2.60733E+00
   2.98936E+00  3.24107E+00  3.34468E+00  3.32439E+00  3.33475E+00  3.55542E+00  3.91634E+00  4.37553E+00  4.84705E+00  5.26870E+00
   5.58807E+00  5.81169E+00  6.02576E+00  6.05557E+00  6.04610E+00  6.05727E+00  6.20441E+00  6.46441E+00  6.78511E+00  7.13123E+00
   7.37740E+00  7.54232E+00  7.69130E+00  7.98568E+00  8.36123E+00  8.73174E+00  9.13652E+00  9.48790E+00  9.75586E+00  1.00251E+01
   1.02761E+01  1.04576E+01  1.05157E+01  1.05560E+01  1.06427E+01  1.08619E+01  1.12169E+01  1.18132E+01  1.24532E+01  1.29173E+01
   1.31555E+01  1.31606E+01  1.30407E+01  1.30488E+01  1.32068E+01  1.34820E+01  1.37893E+01  1.41741E+01  1.43667E+01  1.45282E+01
 NY background values follow
     3.403E+01    3.401E+01    3.400E+01    3.399E+01    3.397E+01    3.396E+01    3.394E+01    3.393E+01    3.392E+01    3.390E+01
     3.389E+01    3.388E+01    3.386E+01    3.385E+01    3.384E+01    3.382E+01    3.381E+01    3.379E+01    3.378E+01    3.377E+01
     3.375E+01    3.374E+01    3.373E+01    3.371E+01    3.370E+01    3.369E+01    3.367E+01    3.366E+01    3.364E+01    3.363E+01
     3.362E+01    3.360E+01    3.359E+01    3.358E+01    3.356E+01    3.355E+01    3.354E+01    3.352E+01    3.351E+01    3.350E+01
     3.348E+01    3.347E+01    3.346E+01    3.344E+01    3.343E+01    3.342E+01    3.340E+01    3.339E+01    3.337E+01    3.336E+01
     3.335E+01    3.333E+01    3.332E+01    3.331E+01    3.329E+01    3.328E+01    3.327E+01    3.325E+01    3.324E+01    3.322E+01
     3.321E+01    3.320E+01    3.318E+01    3.317E+01    3.316E+01    3.314E+01    3.313E+01    3.311E+01    3.310E+01    3.309E+01
     3.307E+01    3.306E+01    3.304E+01    3.303E+01    3.302E+01    3.300E+01    3.299E+01    3.297E+01    3.296E+01    3.294E+01
     3.293E+01    3.291E+01    3.290E+01    3.289E+01    3.287E+01    3.286E+01    3.284E+01    3.283E+01    3.281E+01    3.280E+01
     3.278E+01    3.277E+01    3.275E+01    3.274E+01    3.272E+01    3.271E+01    3.269E+01    3.267E+01    3.266E+01    3.264E+01
     3.263E+01    3.261E+01    3.260E+01    3.258E+01    3.256E+01    3.255E+01    3.253E+01    3.252E+01    3.250E+01    3.248E+01
     3.247E+01    3.245E+01    3.243E+01    3.242E+01    3.240E+01    3.238E+01    3.237E+01    3.235E+01    3.233E+01    3.232E+01
     3.230E+01    3.228E+01    3.227E+01    3.225E+01    3.223E+01    3.221E+01    3.220E+01    3.218E+01    3.216E+01    3.214E+01
     3.212E+01    3.211E+01    3.209E+01    3.207E+01    3.205E+01    3.203E+01    3.202E+01    3.200E+01    3.198E+01    3.196E+01
     3.194E+01    3.192E+01    3.190E+01    3.188E+01    3.187E+01    3.185E+01    3.183E+01    3.181E+01    3.179E+01    3.177E+01
     3.175E+01    3.173E+01    3.171E+01    3.169E+01    3.167E+01    3.165E+01    3.163E+01    3.161E+01    3.159E+01    3.157E+01
     3.155E+01    3.152E+01    3.150E+01    3.148E+01    3.146E+01    3.144E+01    3.142E+01    3.140E+01    3.137E+01    3.135E+01
     3.133E+01    3.131E+01    3.129E+01    3.126E+01    3.124E+01    3.122E+01    3.120E+01    3.117E+01    3.115E+01    3.113E+01
     3.110E+01    3.108E+01    3.106E+01    3.103E+01    3.101E+01    3.099E+01    3.096E+01    3.094E+01    3.091E+01    3.089E+01
     3.087E+01    3.084E+01    3.082E+01    3.079E+01    3.077E+01    3.074E+01    3.072E+01    3.069E+01    3.066E+01    3.064E+01
     3.061E+01    3.059E+01    3.056E+01    3.053E+01    3.051E+01    3.048E+01    3.045E+01    3.043E+01    3.040E+01    3.037E+01
     3.035E+01    3.032E+01    3.029E+01    3.026E+01    3.024E+01    3.021E+01    3.018E+01    3.015E+01    3.012E+01    3.010E+01
     3.007E+01    3.004E+01    3.001E+01    2.998E+01    2.995E+01    2.992E+01    2.989E+01    2.986E+01    2.983E+01    2.980E+01
     2.977E+01    2.974E+01    2.971E+01    2.968E+01    2.965E+01    2.962E+01    2.959E+01    2.955E+01    2.952E+01    2.949E+01
     2.946E+01    2.943E+01    2.939E+01    2.936E+01    2.933E+01    2.930E+01    2.926E+01    2.923E+01    2.920E+01    2.916E+01
     2.913E+01    2.909E+01    2.906E+01    2.902E+01    2.899E+01    2.896E+01    2.892E+01    2.888E+01    2.885E+01    2.881E+01
     2.878E+01    2.874E+01    2.871E+01    2.867E+01    2.863E+01    2.860E+01    2.856E+01    2.852E+01    2.849E+01    2.845E+01
     2.841E+01    2.837E+01    2.833E+01    2.830E+01    2.826E+01    2.822E+01    2.818E+01    2.814E+01    2.810E+01    2.806E+01
     2.802E+01    2.798E+01    2.794E+01    2.790E+01    2.786E+01    2.782E+01    2.778E+01    2.774E+01    2.770E+01    2.766E+01
     2.762E+01    2.758E+01    2.754E+01    2.749E+01    2.745E+01    2.741E+01    2.737E+01    2.733E+01    2.728E+01    2.724E+01
     2.720E+01    2.716E+01    2.711E+01    2.707E+01    2.703E+01    2.698E+01    2.694E+01    2.690E+01    2.685E+01    2.681E+01
     2.677E+01    2.672E+01    2.668E+01    2.663E+01    2.659E+01    2.654E+01    2.650E+01    2.645E+01    2.641E+01    2.636E+01
     2.632E+01    2.627E+01    2.623E+01    2.618E+01    2.614E+01    2.609E+01    2.604E+01    2.600E+01    2.595E+01    2.591E+01
     2.586E+01    2.581E+01    2.577E+01    2.572E+01    2.567E+01    2.562E+01    2.558E+01    2.553E+01    2.548E+01    2.544E+01
     2.539E+01    2.534E+01    2.529E+01    2.525E+01    2.520E+01    2.515E+01    2.510E+01    2.505E+01    2.501E+01    2.496E+01
     2.491E+01    2.486E+01    2.481E+01    2.476E+01    2.472E+01    2.467E+01    2.462E+01    2.457E+01    2.452E+01    2.447E+01
     2.442E+01    2.437E+01    2.432E+01    2.428E+01    2.423E+01    2.418E+01    2.413E+01    2.408E+01    2.403E+01    2.398E+01
     2.393E+01    2.388E+01    2.383E+01    2.378E+01    2.373E+01    2.368E+01    2.363E+01    2.358E+01    2.353E+01    2.348E+01
     2.343E+01    2.338E+01    2.333E+01    2.328E+01    2.323E+01    2.318E+01    2.313E+01    2.308E+01    2.303E+01    2.298E+01
     2.293E+01    2.288E+01    2.283E+01    2.278E+01    2.273E+01    2.268E+01    2.263E+01    2.258E+01    2.253E+01    2.248E+01
     2.243E+01    2.238E+01    2.233E+01    2.228E+01    2.223E+01    2.218E+01    2.213E+01    2.208E+01    2.202E+01    2.197E+01
     2.192E+01    2.187E+01    2.182E+01    2.177E+01    2.172E+01    2.167E+01    2.162E+01    2.157E+01    2.152E+01    2.146E+01
     2.141E+01    2.136E+01    2.131E+01    2.126E+01    2.121E+01    2.116E+01    2.110E+01    2.105E+01    2.100E+01    2.095E+01
     2.090E+01    2.085E+01    2.080E+01    2.074E+01    2.069E+01    2.064E+01    2.059E+01    2.054E+01    2.049E+01    2.043E+01
     2.038E+01    2.033E+01    2.028E+01    2.023E+01    2.018E+01    2.012E+01    2.007E+01    2.002E+01    1.997E+01    1.992E+01
     1.986E+01    1.981E+01    1.976E+01    1.971E+01    1.966E+01    1.961E+01    1.955E+01    1.950E+01    1.945E+01    1.940E+01
     1.935E+01    1.929E+01    1.924E+01    1.919E+01    1.914E+01    1.909E+01    1.903E+01    1.898E+01    1.893E+01    1.888E+01
     1.883E+01    1.877E+01    1.872E+01    1.867E+01    1.862E+01    1.857E+01    1.851E+01    1.846E+01    1.841E+01    1.836E+01
 Mac      Conc. = 3.29E-04
   1.06162E+01  1.00609E+01  9.61081E+00  9.20049E+00  8.62415E+00  7.68720E+00  6.18553E+00  4.33098E+00  2.34209E+00  6.53596E-01
  -4.67401E-01 -1.01119E+00 -1.25994E+00 -1.73592E+00 -2.73907E+00 -4.09753E+00 -5.15909E+00 -4.54832E+00 -1.62784E+00  2.82516E+00
   7.65094E+00  1.23384E+01  1.62621E+01  1.87476E+01  2.03921E+01  2.19560E+01  2.34198E+01  2.50784E+01  2.71189E+01  2.92825E+01
   3.11878E+01  3.26012E+01  3.36195E+01  3.40475E+01  3.40119E+01  3.39423E+01  3.44380E+01  3.57923E+01  3.78475E+01  3.99069E+01
   4.11481E+01  4.16750E+01  4.19399E+01  4.24538E+01  4.34102E+01  4.45607E+01  4.53072E+01  4.52215E+01  4.44620E+01  4.30951E+01
   4.14441E+01  4.00092E+01  3.87997E+01  3.78466E+01  3.72324E+01  3.70914E+01  3.73563E+01  3.82304E+01  3.96362E+01  4.10749E+01
   4.25831E+01  4.39782E+01  4.47585E+01  4.47776E+01  4.42766E+01  4.33463E+01  4.22512E+01  4.14435E+01  4.10088E+01  4.10183E+01
   4.19395E+01  4.38457E+01  4.62586E+01  4.85142E+01  5.02759E+01  5.11448E+01  5.10788E+01  5.03934E+01  4.94688E+01  4.84686E+01
   4.76333E+01  4.70769E+01  4.67924E+01  4.70173E+01  4.76528E+01  4.84960E+01  4.94251E+01  5.03564E+01  5.11333E+01  5.16948E+01
   5.21953E+01  5.25695E+01  5.27359E+01  5.25479E+01  5.19243E+01  5.04738E+01  4.82739E+01  4.56036E+01  4.26985E+01  3.99022E+01
   3.74857E+01  3.50582E+01  3.22418E+01  2.87240E+01  2.40853E+01  1.81566E+01  1.12238E+01  4.41208E+00 -9.87965E-01 -3.93523E+00
