 
 $NMID
 ID=''
 FMTDAT='(2E13.5)'
 TRAMP=   1.00000E+0
 VOLUME=   1.00000E+0
 $END
   3.32478E+3  -2.63388E+4
  -1.98318E+4  -2.45842E+4
  -1.41168E+4   1.83292E+4
   2.89500E+4   1.56859E+4
   8.46029E+3  -2.32793E+4
  -2.63740E+4  -7.59554E+3
   3.41952E+3   2.01021E+4
   2.13691E+4  -2.75922E+3
  -6.65787E+3  -1.21606E+4
  -7.80363E+3   1.08051E+4
   9.60125E+3   7.94502E+3
   5.30059E+2  -7.66581E+3
  -6.68251E+3  -1.37816E+3
  -2.98401E+2   5.12969E+3
  -1.67858E+2  -4.55888E+2
  -1.39656E+2  -3.11116E+3
   2.69542E+3  -1.37883E+3
  -5.45510E+2   6.41285E+2
  -1.64057E+3   1.04404E+3
   1.23584E+3  -5.76112E+2
  -4.62643E+1  -5.99081E+2
  -6.75105E+2  -4.20980E+2
   1.62854E+3  -2.58736E+2
  -1.67671E+2   1.02400E+3
  -1.82544E+3  -2.45775E+1
   1.24555E+3  -1.73351E+3
   2.35983E+3   1.09918E+3
  -7.79158E+2   2.65268E+3
  -2.30058E+3  -1.04912E+3
   3.07797E+2  -1.14123E+3
   1.22698E+3   1.86077E+3
  -1.05475E+3   1.46750E+3
  -1.91483E+3  -1.33008E+2
  -1.21623E+3  -9.81975E+2
  -6.96855E+2  -2.18005E+3
   1.24477E+3  -1.44294E+3
   2.24685E+3   1.24994E+3
  -2.02162E+2   1.72929E+3
  -1.46096E+3   2.24488E+2
   4.35833E+2  -1.77395E+2
  -4.99636E+2   4.59421E+2
  -1.62401E+3  -1.25114E+2
   1.13374E+2  -1.45096E+3
   1.72697E+3  -1.06344E+3
   1.44486E+3   3.25434E+2
   9.54114E+2   1.49774E+3
   1.72419E+1   1.62484E+3
  -1.78150E+3   5.24146E+2
  -1.77624E+3  -6.42213E+2
  -4.71532E+2  -1.07894E+3
   1.45494E+2  -9.37134E+2
  -1.03546E+2  -8.36947E+2
   2.80624E+2  -5.01245E+2
   4.99684E+2   5.74611E+2
   3.40164E+2   6.60746E+2
   2.73598E+0   2.77099E+2
  -9.35774E+2   4.01287E+2
  -1.07571E+3  -1.00247E+3
   1.80929E+2  -1.79377E+3
   1.31557E+3  -6.04819E+2
   1.10077E+3   8.58898E+2
   8.09730E+2   4.10604E+2
   3.30397E+2   8.34991E+2
  -6.89682E+2   1.75229E+3
  -1.99249E+3   1.13767E+3
  -1.95871E+3  -9.46266E+2
  -5.53410E+2  -1.64799E+3
   8.28559E+2  -1.33958E+3
   1.00913E+3  -1.74486E+2
  -4.93239E+1   3.41312E+2
  -4.84630E+2   2.78742E+2
   1.59301E+2  -6.84979E+2
   9.74744E+2   7.60908E+0
   5.59688E+2   1.00873E+3
  -2.41504E+2   6.49581E+2
  -1.09287E+2   6.28154E+1
  -2.64849E+2   1.19848E+2
   2.56099E+2   6.32525E+2
  -4.50885E+1   6.32218E+2
  -5.43720E+2   2.84172E+2
  -1.08664E+3  -1.11636E+2
  -4.52324E+1  -4.99407E+2
   2.31649E+2  -6.20727E+1
  -2.05655E+2   1.50135E+2
  -3.25534E+2  -3.53128E+2
   2.89190E+2  -6.53267E+2
   6.72785E+2  -1.59506E+1
   4.19561E+2   5.63822E+2
   1.01694E+2   3.09675E+2
   5.01322E+2  -1.34980E+2
   7.25050E+2   3.17691E+2
   4.67120E+2   1.00437E+3
  -2.17601E+2   1.02077E+3
  -1.01869E+3   6.52654E+2
  -8.28342E+2  -4.30636E+2
   3.00948E+2  -8.18762E+2
   7.79138E+2  -2.72366E+2
   3.82477E+2  -2.83844E+1
  -4.56969E+1   7.48744E+1
   4.39184E+2  -5.03532E+2
   9.07400E+2   2.83963E+2
   2.82810E+2   1.29202E+3
  -4.48397E+2   4.93677E+2
  -6.81037E+2  -6.94318E+2
   1.65243E+2  -9.08306E+2
   1.15069E+3   4.69083E+2
   3.36477E+2   8.83940E+2
  -8.54603E+2   2.06588E+2
  -8.59596E+2  -8.61534E+2
   4.81570E+2  -1.01769E+3
   1.36912E+3  -1.49733E+2
   7.85899E+2   6.61621E+2
   1.26942E+2   8.80731E+2
   1.09864E+2   2.70488E+2
   3.24709E+2   9.79316E+1
  -8.55473E+1   8.58372E+2
  -7.27497E+2   5.41543E+2
  -7.16945E+2  -2.16637E+2
  -1.02008E+2  -1.25913E+3
   7.25301E+2  -8.65470E+2
   9.37503E+2  -2.18863E+2
   6.31142E+2   5.06442E+2
   1.37317E+2   3.66073E+2
   3.04316E+2   4.99398E+2
  -1.60412E+2   6.14039E+2
  -4.67740E+2  -7.42970E+1
  -3.16708E+2  -2.86409E+2
   3.47960E+2  -3.54169E+2
   5.81985E+2   3.18446E+2
   3.97502E+2   2.54084E+2
  -1.95343E+2   4.80695E+2
  -4.61061E+2   7.66530E+1
   2.22598E+1  -5.36300E+2
   4.07094E+2  -1.09381E+2
  -1.04967E+0  -1.84080E+1
  -1.08202E+2  -1.81972E+2
   2.00113E+2  -3.05055E+2
   4.95240E+2   9.52912E+1
   4.50950E+2   5.52259E+2
  -4.45055E+2   4.75139E+2
  -5.01992E+2  -2.83070E+2
   7.64929E+1  -7.91068E+2
   6.80490E+2  -7.55545E+1
   7.88685E+2   4.88855E+2
  -4.79744E+2   7.47249E+2
  -4.97586E+2   3.13071E+2
  -2.76861E+2  -1.77869E+2
  -2.17097E+2   1.05215E+2
  -3.38875E+2  -1.52011E+2
  -2.88433E+2  -2.11024E+2
   2.53324E+2  -4.90227E+2
   3.54336E+2  -5.03352E+2
   6.26212E+2   2.66648E+2
   3.05975E+2   6.10230E+2
  -3.44712E+2   7.91110E+1
  -1.60632E+2  -2.62166E+2
   3.70053E+2   2.73932E+1
   1.34645E+2   2.65059E+2
  -1.09396E+2   2.85360E+2
  -9.23162E+1  -2.68443E+1
   4.01588E+0   5.97185E+0
  -1.81378E+2   3.19704E+2
  -3.81772E+2   3.36475E+2
  -3.43881E+2  -2.49237E+2
   1.09304E+2  -6.76645E+2
   3.75456E+2  -1.63792E+2
   2.32162E+2   7.25542E+1
  -3.93726E+1   2.49661E+2
   4.01160E+1   1.22111E+2
   1.21400E+2  -1.17252E+2
   3.05294E+2  -4.11297E+1
   1.98738E+2   1.23749E+2
  -2.11410E+2   3.89186E+2
  -2.27788E+2   6.62242E+1
   2.47177E+2  -3.05212E+2
   3.15641E+2   2.37056E+2
  -9.09857E+1   5.11832E+2
  -4.87577E+2  -1.50507E+2
  -1.55773E+2  -6.42704E+2
   6.27537E+2  -3.20963E+2
   3.82604E+2   4.68541E+2
  -5.51272E+1   2.24363E+2
  -5.11156E+2  -1.07705E+2
   4.38263E+1  -1.63991E+1
   6.96362E+1  -3.56132E+2
   6.25205E+1  -2.25518E+2
  -1.47622E+2  -2.50933E+2
   1.21871E+2  -4.86208E+2
   5.94474E+2  -4.57357E+2
   7.93354E+2   1.75444E+2
   2.58419E+2   6.31384E+2
  -3.84076E+2   2.58603E+2
  -4.11549E+2  -1.93712E+2
  -3.56463E+1  -3.81370E+2
   1.70309E+2  -2.81106E+2
   4.32927E+2  -1.73038E+2
   3.68920E+1   1.83264E+1
   3.14153E+1  -2.18491E+2
   1.12190E+2  -3.54906E+1
  -9.89121E+1   2.85898E+1
  -3.57767E+2  -7.84354E+0
  -1.77683E+2  -4.19906E+2
   4.11336E+2  -5.64811E+2
   2.48055E+2  -1.95058E+2
   3.71982E+1   1.85388E+2
   7.42348E+0   1.73862E+2
   3.59463E+1  -1.59899E+2
   6.97709E+1  -9.26768E+0
   3.96639E+2   7.23150E+1
   7.51676E+1   5.99130E+1
  -2.17291E+2  -2.81631E+2
   1.62454E+2  -1.85729E+2
   4.05991E+2   3.19167E+2
  -2.56405E+1   4.33691E+2
  -2.83320E+2   5.55975E+2
  -5.91174E+2  -4.20988E+2
   2.62353E+0  -5.78309E+2
   4.12739E+2  -2.53810E+2
   1.54849E+2  -5.22330E+1
   1.77705E+2  -3.91107E+1
   2.55403E+2  -7.24212E+1
   2.79886E+2  -2.26953E+1
  -4.01967E+1   1.00740E+2
  -3.45903E+2   2.24784E+2
  -4.88841E+2  -2.50869E+2
   7.99218E+0  -6.18554E+2
   3.54978E+2  -3.91224E+2
   2.44408E+2   3.15072E+2
  -1.36170E+2   2.48371E+2
  -3.19486E+2  -7.65538E+0
  -1.94803E+2  -3.63503E+2
  -3.76123E+1  -1.12381E+2
   2.21025E+2   9.01062E+1
  -2.57818E+2  -7.12682E+0
  -3.51016E+0  -3.19605E+2
  -2.20520E+2  -1.31596E+2
   1.22007E+2  -9.05455E+1
  -6.59990E+0   2.87603E+2
  -2.00681E+2   2.57509E+1
   1.68080E+2  -1.24863E+2
   2.75677E+2   8.88688E+1
  -4.71297E+1   3.37921E+2
  -4.44814E+1   2.94992E+2
  -5.16438E+2  -1.15346E+2
  -4.89910E+1  -1.45034E+2
   1.79293E+2   4.68159E+1
  -2.12190E+1   5.25299E+1
  -4.00078E+2  -3.70536E+1
  -1.38794E+2  -5.68578E+2
   1.36091E+2  -2.00765E+2
   1.31336E+2   2.60081E+2
  -2.63975E+2   6.09470E+1
  -2.34213E+2  -1.63465E+2
   9.53771E+1  -5.45305E+2
   2.29992E+2  -2.73488E+2
   5.56656E+2  -4.56551E+1
   4.84917E+1   1.37561E+2
  -8.96810E+1  -3.03536E+0
  -6.82084E+1  -4.22358E+1
  -2.06822E+2   6.76659E+1
  -1.74839E+2   4.37130E+0
  -9.90064E+1  -2.19539E+2
  -6.27752E-1  -3.25499E+2
   6.32890E+2  -5.67612E+2
   3.59622E+2   1.50556E+2
  -1.12638E+2   4.17795E+2
  -3.35687E+2   4.06059E+1
  -8.76054E+1  -3.15487E+2
   6.65245E+1  -4.22953E+2
   2.61201E+1  -1.84349E+2
   8.32145E+1   1.63539E+1
   1.70535E+2  -2.62783E+2
   7.47249E+1  -2.56103E+2
   1.22945E+2  -2.46403E+1
   6.26612E+1   1.05182E+2
  -4.08749E+2  -1.06379E+2
  -1.05781E+2  -2.31885E+2
   1.29058E+2  -4.52509E+2
   1.67726E+2   5.59093E+0
   4.44305E+1  -6.02033E+1
  -2.57925E+2  -1.08363E+2
  -5.76856E+1  -1.88669E+1
   2.89005E+2  -7.69375E+1
   2.85661E+0  -8.23471E+0
  -2.32007E+2  -4.48116E+0
  -2.88054E+2  -3.96466E+2
   4.01641E+2  -3.88034E+2
   4.18760E+2  -2.87380E+2
   2.34392E+2   2.73772E+2
  -1.35306E+2   2.94702E+2
  -1.99430E+2  -3.51030E+2
   2.75754E+1  -1.05063E+2
  -2.24694E+1  -1.55644E+2
  -1.01314E+2  -1.09797E+2
  -1.43799E+2  -1.22395E+2
  -2.32224E+1  -3.24150E+2
   5.33736E+1   7.06236E+1
  -7.56832E+1   3.70848E+2
  -2.10128E+2   2.61884E+2
  -1.81007E+2  -1.15842E+2
  -2.05447E+2  -3.50736E+2
   1.20549E+2  -1.60327E+2
   5.19924E+1   1.50793E+2
  -3.87040E+2  -1.33607E+2
  -8.89325E+1  -3.47506E+2
  -1.13261E+2  -4.38554E+2
  -4.25602E+1  -1.12201E+2
   6.88182E+1  -1.46166E+1
  -1.27558E+2   2.32289E+2
  -8.74141E-1  -8.21614E+1
   1.48620E+2  -2.42006E+1
   1.53046E+2  -3.71572E+1
  -2.51747E+2   5.19279E+1
  -1.66959E+2  -4.59525E+1
  -1.74101E+2  -8.78090E+1
  -5.09941E+1   9.55476E+1
   9.93726E+0   1.49174E+2
  -4.21265E+1   9.94752E+1
  -1.19854E+2  -1.59312E+2
   4.24899E+1  -4.88351E+2
  -4.17946E+1   6.14094E+1
  -1.78795E+2   4.15695E+2
  -1.74066E+2  -4.21455E+2
   3.51884E+1  -2.80551E+2
   3.06343E+2  -6.08040E+1
   8.02341E+1   3.11899E+2
   1.39151E+1   3.18669E+2
  -4.79714E+2  -2.39375E+2
  -1.30407E+2  -3.45959E+2
   6.10682E+1  -3.96894E+2
   1.05352E+2   5.36750E+1
   7.65314E+1   1.01472E+2
  -1.58224E+2  -1.28007E+2
   9.15260E+1   2.74405E+1
   2.62027E+1   2.07023E+2
  -1.48387E+2   3.31025E+2
  -9.31540E+1  -2.68788E+1
  -5.59480E+1  -4.38873E+2
   2.45886E+1  -1.43275E+2
   3.24906E+2   1.83857E+2
   3.59628E+0   1.61234E+2
   5.29994E+1  -1.02150E+1
  -4.16120E+1  -1.06208E+2
   1.03405E+2  -5.51866E+1
   2.30108E+2  -1.94950E+1
  -1.09843E+2  -4.26402E+1
  -5.90192E+1   5.66325E+0
   4.86334E+2  -1.10977E+2
   1.49202E+2  -8.54409E+1
  -1.11622E+2   3.14065E+2
   7.74747E+0   4.41028E+1
  -1.99746E+2  -1.46962E+2
  -4.65725E+1  -1.88650E+2
   2.76365E+1  -7.17537E+1
  -1.22207E+2   1.24669E+2
  -2.44804E+2  -9.07173E+1
   3.77031E+1  -3.66358E+2
   1.26481E+2  -1.01927E+2
  -1.54432E+2   1.77242E+2
  -1.65459E+2  -4.46673E+1
  -2.85446E+2  -2.70501E+2
   3.73594E+1  -3.62806E+2
  -1.34290E+2  -1.31970E+2
   1.45577E+2   2.37055E+2
  -7.67516E+1   3.32786E+2
  -3.14021E+2  -9.52584E-1
   6.45700E+1  -5.18420E+0
