 LCModel (Version 6.3-1N) Copyright: S.W. Provencher.          Ref.: Magn. Reson. Med. 30:672-679 (1993).                
 Slice_N1@18_14  28-Feb-2025 11:40:10
 27 lines in following concentration table = NCONC+1
    Conc.  %SD /Cr+PCr  Metabolite                                         
 2.39E-04   7% 2.1E-04 Mac                                                 
    4.102  36%   3.622 Cr                                                  
    4.959  29%   4.378 PCr                                                 
    8.015  14%   7.077 Ins                                                 
   10.657   9%   9.410 NAA                                                 
    8.079  14%   7.133 Tau                                                 
    1.975  20%   1.744 PCho                                                
    0.000 999%   0.000 GPC                                                 
   11.331  12%  10.005 Glu                                                 
    2.321  43%   2.050 Gln                                                 
    0.000 999%   0.000 Ala                                                 
    2.309  68%   2.038 Asc                                                 
    1.564  76%   1.381 Asp                                                 
    0.745  86%   0.657 GABA                                                
    0.329 244%   0.290 Glc                                                 
    1.520  36%   1.342 GSH                                                 
    4.769  20%   4.211 Lac                                                 
    1.201  63%   1.060 NAAG                                                
    1.823  81%   1.609 PE                                                  
    1.975  20%   1.744 GPC+PCho                                            
   11.858   9%  10.470 NAA+NAAG                                            
   13.652  12%  12.054 Glu+Gln                                             
    9.060  10%   8.000 Cr+PCr                                              
   11.858   9%  10.470 NAA+NAAG                                            
    9.060  10%   8.000 Cr+PCr                                              
   13.652  12%  12.054 Glu+Gln                                             
   6 lines in following misc. output table
  FWHM = 0.016 ppm    S/N =   3                                            
  Data shift = 0.024 ppm                                                   
  Ph:-137 deg       0.0 deg/ppm                                            
  alphaB,S = 1.1E-01,   5.4E+00                                            
   19 spline knots.   Ns = 5(1)                                            
  ( 3) 2 infls.   ( 1) 1 extrs.                                            
  480 points on ppm-axis = NY
      4.100000     4.091866     4.083733     4.075600     4.067466     4.059333     4.051199     4.043066     4.034933     4.026799
      4.018666     4.010532     4.002399     3.994265     3.986132     3.977998     3.969864     3.961731     3.953597     3.945463
      3.937330     3.929196     3.921062     3.912929     3.904795     3.896662     3.888528     3.880394     3.872261     3.864127
      3.855993     3.847860     3.839726     3.831592     3.823459     3.815325     3.807191     3.799058     3.790924     3.782790
      3.774657     3.766523     3.758389     3.750256     3.742122     3.733989     3.725855     3.717721     3.709588     3.701454
      3.693320     3.685187     3.677053     3.668919     3.660786     3.652652     3.644518     3.636385     3.628251     3.620117
      3.611984     3.603850     3.595716     3.587583     3.579449     3.571316     3.563182     3.555048     3.546915     3.538781
      3.530647     3.522514     3.514380     3.506246     3.498113     3.489979     3.481845     3.473712     3.465578     3.457444
      3.449311     3.441177     3.433043     3.424910     3.416776     3.408643     3.400509     3.392375     3.384242     3.376108
      3.367974     3.359841     3.351707     3.343573     3.335440     3.327306     3.319172     3.311039     3.302905     3.294771
      3.286638     3.278504     3.270370     3.262237     3.254103     3.245970     3.237836     3.229702     3.221569     3.213435
      3.205301     3.197168     3.189034     3.180900     3.172767     3.164633     3.156499     3.148366     3.140232     3.132098
      3.123965     3.115831     3.107697     3.099564     3.091430     3.083297     3.075163     3.067029     3.058896     3.050762
      3.042628     3.034495     3.026361     3.018227     3.010094     3.001960     2.993826     2.985693     2.977559     2.969425
      2.961292     2.953158     2.945024     2.936891     2.928757     2.920624     2.912490     2.904356     2.896223     2.888089
      2.879955     2.871822     2.863688     2.855554     2.847421     2.839287     2.831153     2.823020     2.814886     2.806752
      2.798619     2.790485     2.782351     2.774218     2.766084     2.757951     2.749817     2.741683     2.733550     2.725416
      2.717282     2.709149     2.701015     2.692881     2.684748     2.676614     2.668480     2.660347     2.652213     2.644079
      2.635946     2.627812     2.619678     2.611545     2.603411     2.595278     2.587144     2.579010     2.570877     2.562743
      2.554609     2.546476     2.538342     2.530208     2.522075     2.513941     2.505807     2.497674     2.489540     2.481406
      2.473273     2.465139     2.457006     2.448872     2.440738     2.432605     2.424471     2.416337     2.408204     2.400070
      2.391936     2.383803     2.375669     2.367535     2.359402     2.351268     2.343134     2.335001     2.326867     2.318733
      2.310600     2.302466     2.294333     2.286199     2.278065     2.269932     2.261798     2.253664     2.245531     2.237397
      2.229263     2.221130     2.212996     2.204862     2.196729     2.188595     2.180461     2.172328     2.164194     2.156060
      2.147927     2.139793     2.131660     2.123526     2.115392     2.107259     2.099125     2.090991     2.082858     2.074724
      2.066590     2.058457     2.050323     2.042189     2.034056     2.025922     2.017788     2.009655     2.001521     1.993387
      1.985254     1.977120     1.968987     1.960853     1.952719     1.944586     1.936452     1.928318     1.920185     1.912051
      1.903917     1.895784     1.887650     1.879516     1.871383     1.863249     1.855115     1.846982     1.838848     1.830714
      1.822581     1.814447     1.806314     1.798180     1.790046     1.781913     1.773779     1.765645     1.757512     1.749378
      1.741244     1.733111     1.724977     1.716843     1.708710     1.700576     1.692442     1.684309     1.676175     1.668041
      1.659908     1.651774     1.643641     1.635507     1.627373     1.619240     1.611106     1.602972     1.594839     1.586705
      1.578571     1.570438     1.562304     1.554170     1.546037     1.537903     1.529769     1.521636     1.513502     1.505368
      1.497235     1.489101     1.480968     1.472834     1.464700     1.456567     1.448433     1.440299     1.432166     1.424032
      1.415898     1.407765     1.399631     1.391497     1.383364     1.375230     1.367096     1.358963     1.350829     1.342695
      1.334562     1.326428     1.318295     1.310161     1.302027     1.293894     1.285760     1.277626     1.269493     1.261359
      1.253225     1.245092     1.236958     1.228824     1.220691     1.212557     1.204423     1.196290     1.188156     1.180022
      1.171889     1.163755     1.155622     1.147488     1.139354     1.131221     1.123087     1.114953     1.106820     1.098686
      1.090552     1.082419     1.074285     1.066151     1.058018     1.049884     1.041750     1.033617     1.025483     1.017349
      1.009216     1.001082     0.992949     0.984815     0.976681     0.968548     0.960414     0.952280     0.944147     0.936013
      0.927879     0.919746     0.911612     0.903478     0.895345     0.887211     0.879077     0.870944     0.862810     0.854676
      0.846543     0.838409     0.830276     0.822142     0.814008     0.805875     0.797741     0.789607     0.781474     0.773340
      0.765206     0.757073     0.748939     0.740805     0.732672     0.724538     0.716404     0.708271     0.700137     0.692003
      0.683870     0.675736     0.667603     0.659469     0.651335     0.643202     0.635068     0.626934     0.618801     0.610667
      0.602533     0.594400     0.586266     0.578132     0.569999     0.561865     0.553731     0.545598     0.537464     0.529330
      0.521197     0.513063     0.504930     0.496796     0.488662     0.480529     0.472395     0.464261     0.456128     0.447994
      0.439861     0.431727     0.423593     0.415460     0.407326     0.399192     0.391059     0.382925     0.374792     0.366658
      0.358524     0.350391     0.342257     0.334124     0.325990     0.317856     0.309723     0.301589     0.293455     0.285322
      0.277188     0.269055     0.260921     0.252787     0.244654     0.236520     0.228386     0.220253     0.212119     0.203986
 NY phased data points follow
  -9.62369E+00 -2.34595E+01 -3.69464E+00 -1.97549E+01 -2.42885E+01 -1.11149E+01 -1.27833E+01 -2.79772E+00 -1.93778E+01 -1.53366E+01
  -2.06223E+01 -2.58073E+01 -2.73524E+01 -3.63973E+01 -2.59535E+01 -4.61167E+01 -3.76047E+01 -3.92297E+01 -4.94040E+01 -5.39643E+01
  -9.60086E+01 -6.75011E+01 -2.56353E+01 -3.45774E+01  5.91884E+00  5.98932E+01  3.25059E+01  1.10710E+01  2.68319E+01  2.75215E+01
   2.76402E+01  1.75359E+01  1.61786E+01  1.55454E+01  9.17683E+00  2.13747E+01  2.82024E+01  1.21883E+01 -8.65064E+00 -2.67157E+01
  -4.55512E+01 -5.89766E+01 -5.22490E+01 -3.24845E+01 -1.56489E+01  1.20524E+01  2.44796E+01  4.55919E+01  6.75319E+01  5.59796E+01
   6.40999E+01  6.32616E+01  5.21091E+01  4.29589E+01  2.25055E+01  1.06541E+01  1.06981E-01 -3.44038E+00 -1.38755E+01 -2.02703E+01
   8.72255E+00  1.91377E+01  2.12659E+00  3.20683E+01  5.74180E+01  5.00487E+01  5.15472E+01  4.39403E+01  3.31946E+01 -1.98539E+01
  -3.34676E+01  4.06270E+00 -1.24100E+01 -3.33367E+00  2.39667E+01  5.14158E+01  5.71607E+01  5.00775E+01  7.00495E+01  5.81689E+01
   5.64574E+01  5.58568E+01  4.14909E+01  2.93845E+01  7.12751E+00 -7.67624E+00  1.44399E+00  2.21499E+01  3.70595E+01  5.60358E+01
   6.19107E+01  7.68237E+01  7.97130E+01  8.19558E+01  8.22415E+01  7.68009E+01  1.03525E+02  1.04451E+02  9.50666E+01  9.04066E+01
   9.50570E+01  8.25972E+01  6.27539E+01  5.26870E+01  3.22107E+01  1.83945E+01 -1.02223E+01 -1.77625E+01 -1.98501E+01 -3.40320E+01
  -1.06089E+02 -1.48039E+02 -1.03660E+02 -1.00694E+02 -7.33766E+01 -4.31730E+01 -2.91798E+01 -2.57267E+01 -2.66290E+01 -1.67579E+00
  -7.80006E+00  2.98790E+00  2.12595E+01  1.86987E+01  2.25485E+01  3.98413E+01  5.14375E+01  6.23179E+01  9.24116E+01  1.06620E+02
   1.33265E+02  1.60350E+02  8.63002E+01 -3.89266E+01 -7.67137E+01 -6.70434E+01 -7.44610E+01 -7.33099E+01 -7.01519E+01 -6.20283E+01
  -5.44839E+01 -5.25088E+01 -5.71427E+01 -6.40937E+01 -5.27556E+01 -5.90937E+01 -6.15510E+01 -4.87610E+01 -4.75067E+01 -4.62212E+01
  -5.00882E+01 -4.27596E+01 -5.04337E+01 -4.23924E+01 -2.94700E+01 -2.85372E+01 -1.45538E+01 -2.82827E+01 -2.78972E+01 -2.83225E+01
  -1.79354E+01 -2.04742E+01 -2.98809E+01 -9.34622E+00 -1.80768E+01 -1.57484E+01 -1.49657E+01 -9.83826E+00 -1.03696E+01 -2.36108E+00
   1.84458E+01  3.46549E+00  1.15990E+01  2.94252E+01  1.83824E+01  6.98578E+00  1.81873E+01  2.81313E+01  3.52880E+01  6.41253E+00
  -2.13756E+01 -2.29042E+01 -4.21719E+01 -4.67580E+01 -4.83214E+01 -3.53248E+01 -3.74331E+01 -3.21112E+01 -2.10991E+01 -3.05162E+01
  -2.09501E+01 -2.14352E+01 -2.04493E+01 -1.46958E+01  7.58864E+00  2.54801E+00 -1.34049E+01  5.36051E-01 -1.50920E+00 -3.64268E+00
  -1.16534E+01 -8.38707E+00  2.48138E+00  8.46391E-01 -3.46199E+00 -1.60864E+01 -1.73958E+01 -2.09398E+01 -4.12986E+01 -5.07505E+01
  -6.12687E+01 -5.24891E+01 -4.09004E+01 -3.57537E+01 -1.31809E+01  2.44400E+00  5.22683E+01  5.12150E+01  3.83651E+01  5.85270E+01
   9.89998E+00 -1.69853E+00  1.14671E+01  3.87459E+00  4.05735E+00  1.70688E+01  2.31009E+01  3.12684E+00  1.69882E+01  2.80190E+01
   2.51592E+01  2.28471E+01 -1.96009E+00  1.27362E+00 -5.18232E-01 -3.57880E+01 -4.89333E+01 -5.47603E+01 -5.33378E+01 -6.03282E+01
  -5.44529E+01 -4.00671E+01 -5.05247E+01 -3.21194E+01 -2.81058E+01 -2.61525E+01 -1.38376E+01 -1.41809E+01 -1.68843E+01 -3.37234E+01
  -5.34753E+01 -5.44978E+01 -4.31585E+01 -7.09279E+01 -6.52519E+01 -6.96677E+01 -1.26040E+02 -6.46594E+01  1.11147E+02  1.92591E+02
   1.54961E+02  1.54810E+02  1.46621E+02  1.29276E+02  1.16347E+02  9.32427E+01  9.65461E+01  8.26135E+01  8.21244E+01  8.16402E+01
   7.91349E+01  8.36693E+01  8.49791E+01  8.62235E+01  7.23642E+01  7.65058E+01  7.77324E+01  7.51674E+01  7.50914E+01  6.46340E+01
   7.08747E+01  6.93716E+01  6.35570E+01  6.78029E+01  4.77886E+01  4.41518E+01  4.77357E+01  3.92743E+01  3.79193E+01  2.49829E+01
   3.29793E+01  3.23459E+01  2.17074E+01  1.65090E+01  5.44673E+00  1.45632E-01 -7.95604E-01  5.94030E-01 -3.14879E+01 -2.60906E+01
  -1.89274E+01 -3.48572E+01 -1.39207E+00 -9.66174E+00 -2.16512E+01 -1.15444E+01 -1.48338E+01 -4.13137E+00 -4.45344E+00  1.11206E+01
   2.45711E+01  2.37744E+01  4.12579E+01  3.86729E+01  4.30272E+01  5.62134E+01  5.41978E+01  6.99255E+01  6.67477E+01  7.18354E+01
   1.03393E+02  1.16810E+02  1.13800E+02  1.10911E+02  1.28060E+02  1.28757E+02  1.33876E+02  1.36718E+02  1.28178E+02  1.41877E+02
   1.36819E+02  1.14449E+02  8.15667E+01  7.61588E+01  8.32365E+01  7.42650E+01  7.53827E+01  8.12183E+01  8.81718E+01  7.97860E+01
   8.35061E+01  7.62791E+01  5.91369E+01  5.75857E+01  5.74484E+01  5.22667E+01  4.86594E+01  6.00972E+01  4.46253E+01  4.83020E+01
   5.33353E+01  3.99271E+01  3.48894E+01  2.39939E+01  3.55882E+01  2.40649E+01  2.11572E+01  2.11575E+01  3.38825E+00  8.38533E+00
   1.31923E+01  2.87549E+01  2.41686E+01  1.01125E+01  1.69216E+01  2.58022E+01  3.32782E+01  3.92660E+01  5.39756E+01  5.23825E+01
   4.34909E+01  5.09777E+01  4.92646E+01  5.45177E+01  5.88551E+01  5.88473E+01  6.46494E+01  6.02596E+01  6.82957E+01  5.91900E+01
   6.45577E+01  8.57838E+01  8.13033E+01  8.62744E+01  9.64496E+01  1.23649E+02  1.22849E+02  1.24554E+02  1.38173E+02  1.22899E+02
   1.29118E+02  1.11792E+02  8.17431E+01  6.75247E+01  6.39935E+01  6.63738E+01  4.98523E+01  4.56552E+01  4.59972E+01  3.54938E+01
   2.65862E+01  1.63948E+00 -1.36132E+01 -8.12941E+00 -1.41814E+01 -1.47728E+01 -2.68992E+01 -2.81139E+01 -1.87853E+01 -2.14001E+01
  -1.88271E+01 -3.40343E+01 -3.15769E+01 -2.75255E+01 -1.82464E+01 -1.07816E+01 -1.62969E+01 -1.54330E+01 -2.94545E+01 -6.58441E+00
  -1.22509E+01 -2.76254E+01 -9.11531E+00 -1.61783E+01 -1.38131E+00 -4.93746E+00 -1.86532E+01 -7.26373E+00 -1.45962E+01 -2.45036E+01
  -3.05464E+01 -3.39039E+01 -2.44232E+01 -2.84351E+01 -3.04501E+01 -1.31654E+01 -2.47649E+01 -2.46746E+01 -2.19205E+01 -3.38077E+01
  -1.96034E+01 -2.00098E+01 -1.42010E+01 -1.44806E+01 -1.53513E+01 -1.09831E+01 -2.70465E+01 -1.77518E+01 -1.56712E+01 -1.23865E+01
  -1.56554E+01 -2.92105E+01 -1.41795E+01  8.28900E-01 -3.15803E+00 -2.45703E+01 -1.02137E+01 -1.71423E+00 -1.60084E+01 -1.81659E+01
  -2.27528E+01 -1.63227E+01 -2.29802E+01 -1.74794E+01 -8.93424E+00 -1.43164E+01 -1.00667E+01 -6.86098E+00 -1.12003E+01 -1.01071E+01
  -2.95814E+00 -6.57763E+00 -6.34571E-01 -1.46899E+01 -1.54623E+01 -1.31434E+01 -1.98432E+01 -4.79275E+00 -1.27046E+01  1.23747E+01
 NY points of the fit to the data follow
  -3.12164E+01 -3.30101E+01 -3.42262E+01 -3.68220E+01 -3.85906E+01 -2.51519E+01 -2.84459E+00  5.67512E+00 -1.13828E+00 -1.10757E+01
  -1.93503E+01 -2.60662E+01 -2.95302E+01 -3.03179E+01 -3.00998E+01 -2.93154E+01 -3.21665E+01 -4.00377E+01 -4.68298E+01 -6.02668E+01
  -7.74699E+01 -6.62008E+01 -3.52723E+01 -1.62416E+01  8.74994E+00  3.76150E+01  3.94182E+01  3.59688E+01  3.67745E+01  3.57391E+01
   3.58413E+01  3.46826E+01  3.30900E+01  3.16078E+01  2.95673E+01  2.67636E+01  2.17461E+01  1.35212E+01  3.45810E+00 -1.17129E+01
  -3.44535E+01 -4.89819E+01 -4.32460E+01 -2.91544E+01 -1.42849E+01  7.04726E+00  2.79351E+01  4.04971E+01  4.56881E+01  5.01374E+01
   5.09096E+01  4.86067E+01  4.52051E+01  4.03460E+01  3.07927E+01  1.31523E+01 -6.48853E-01 -2.67954E+00 -9.88824E+00 -1.91004E+01
  -6.87689E+00  7.48448E+00  7.95218E+00  2.22068E+01  4.48082E+01  5.04657E+01  4.86766E+01  4.41910E+01  2.35787E+01 -8.68384E+00
  -1.99298E+01 -6.62364E+00 -1.57520E-02  5.18727E+00  2.52856E+01  4.36986E+01  5.35385E+01  6.01508E+01  6.42993E+01  6.60304E+01
   6.14982E+01  4.89160E+01  3.06973E+01  6.63542E+00 -1.21819E+01 -1.46431E+01 -6.51849E+00  8.81372E+00  2.96762E+01  4.04567E+01
   4.87749E+01  5.50961E+01  6.01451E+01  6.52397E+01  7.08315E+01  7.58502E+01  7.99459E+01  8.54192E+01  8.84621E+01  8.43006E+01
   8.49187E+01  8.99746E+01  7.85224E+01  5.77370E+01  4.52429E+01  2.67790E+01  4.92748E+00 -1.21809E-01  1.15503E+00 -3.19372E+01
  -1.00746E+02 -1.39350E+02 -1.11751E+02 -8.17983E+01 -6.35029E+01 -4.40031E+01 -3.36771E+01 -2.51463E+01 -1.73421E+01 -1.00449E+01
  -3.27863E+00  3.24603E+00  1.02061E+01  1.78676E+01  2.66369E+01  3.67633E+01  4.89414E+01  7.07153E+01  9.73685E+01  1.13806E+02
   1.36092E+02  1.54366E+02  8.85014E+01 -3.36059E+01 -8.51418E+01 -7.59931E+01 -7.41153E+01 -6.38740E+01 -5.54256E+01 -5.27450E+01
  -5.15713E+01 -5.15858E+01 -5.23198E+01 -5.23090E+01 -5.19774E+01 -5.21737E+01 -5.13284E+01 -4.87544E+01 -4.60719E+01 -4.34217E+01
  -4.08891E+01 -3.84090E+01 -3.59569E+01 -3.41474E+01 -3.22416E+01 -2.96787E+01 -2.74526E+01 -2.65911E+01 -2.61760E+01 -2.50248E+01
  -2.29661E+01 -2.08260E+01 -2.04472E+01 -2.20397E+01 -2.32653E+01 -2.27756E+01 -2.16386E+01 -2.03415E+01 -1.90106E+01 -1.75021E+01
  -1.35094E+01 -3.27464E+00  9.96073E+00  1.36549E+01  5.17450E+00  2.16124E-01  9.31382E+00  2.06126E+01  1.70793E+01  9.33461E-01
  -1.34627E+01 -2.03560E+01 -2.40554E+01 -2.71085E+01 -2.86282E+01 -2.98520E+01 -3.02744E+01 -3.00033E+01 -2.90549E+01 -2.87100E+01
  -2.71079E+01 -2.26863E+01 -2.08840E+01 -1.82563E+01 -5.76284E+00  1.67588E+00 -3.57279E+00 -2.35261E+00  4.45041E+00  5.15482E+00
   3.11542E+00 -5.90879E-01  1.86509E+00  6.53078E+00  5.59454E-01 -7.86562E+00 -1.45062E+01 -2.15461E+01 -2.95847E+01 -3.73006E+01
  -4.32431E+01 -4.83611E+01 -4.45019E+01 -3.14187E+01 -1.57197E+01  1.28437E+01  4.59094E+01  5.74687E+01  5.98207E+01  5.97488E+01
   4.17388E+01  2.82360E+01  2.50968E+01  2.29544E+01  2.49075E+01  2.52571E+01  2.38288E+01  2.07430E+01  1.41188E+01  6.09018E+00
  -2.62406E+00 -1.27275E+01 -2.29351E+01 -3.18460E+01 -4.11232E+01 -5.04260E+01 -5.65517E+01 -6.10456E+01 -6.34767E+01 -6.07534E+01
  -5.69784E+01 -5.27279E+01 -4.52246E+01 -3.81701E+01 -3.15763E+01 -2.55783E+01 -2.42840E+01 -2.45317E+01 -2.77573E+01 -3.42943E+01
  -3.67533E+01 -3.97893E+01 -5.51814E+01 -7.24715E+01 -7.01140E+01 -8.90031E+01 -1.32302E+02 -6.78506E+01  8.45513E+01  1.46142E+02
   1.34398E+02  1.33226E+02  1.15132E+02  1.02794E+02  9.58673E+01  9.09825E+01  8.64480E+01  8.18958E+01  7.77729E+01  7.44147E+01
   7.19674E+01  7.06489E+01  7.04908E+01  7.09684E+01  7.13738E+01  7.16692E+01  7.16655E+01  7.05701E+01  6.96188E+01  6.86550E+01
   6.73077E+01  6.57446E+01  6.37141E+01  6.19427E+01  6.04921E+01  5.88711E+01  5.69223E+01  5.51397E+01  5.32774E+01  5.11806E+01
   4.87769E+01  4.57498E+01  4.25695E+01  3.96526E+01  3.66479E+01  3.42840E+01  3.32630E+01  3.35833E+01  3.53223E+01  3.78289E+01
   4.03506E+01  4.28626E+01  4.58035E+01  4.88066E+01  5.15132E+01  5.40923E+01  5.66751E+01  5.90615E+01  6.15803E+01  6.45697E+01
   6.76736E+01  7.03464E+01  7.25931E+01  7.46190E+01  7.67424E+01  7.87932E+01  8.01160E+01  8.10407E+01  8.17815E+01  8.15478E+01
   8.04141E+01  7.93456E+01  7.81493E+01  7.62800E+01  7.39982E+01  7.13459E+01  6.82352E+01  6.41155E+01  5.80212E+01  5.07253E+01
   4.40103E+01  3.82640E+01  3.38960E+01  3.15951E+01  3.18515E+01  3.48726E+01  4.15196E+01  5.08815E+01  5.91849E+01  6.78057E+01
   7.45979E+01  6.53649E+01  4.17882E+01  2.20556E+01  4.95844E+00 -4.60463E+00  6.82597E+00  2.11578E+01  2.63478E+01  3.28338E+01
   3.53710E+01  3.61712E+01  3.54950E+01  3.38599E+01  3.09254E+01  2.72072E+01  2.43949E+01  2.28465E+01  2.23779E+01  2.30798E+01
   2.47500E+01  2.70177E+01  2.97325E+01  3.27262E+01  3.59033E+01  3.88247E+01  4.13352E+01  4.37313E+01  4.59470E+01  4.80814E+01
   5.05093E+01  5.27176E+01  5.47904E+01  5.70503E+01  5.95098E+01  6.22626E+01  6.55997E+01  6.92463E+01  7.29798E+01  7.75475E+01
   8.29557E+01  8.81766E+01  9.36134E+01  9.98333E+01  1.06414E+02  1.12210E+02  1.16457E+02  1.18152E+02  1.16468E+02  1.10752E+02
   1.01499E+02  9.09184E+01  8.13476E+01  7.32438E+01  6.62125E+01  6.01709E+01  5.47737E+01  4.81086E+01  3.99948E+01  3.17218E+01
   2.35736E+01  1.57137E+01  9.32418E+00  4.84470E+00  1.12961E+00 -1.91399E+00 -4.01460E+00 -5.44928E+00 -6.79007E+00 -8.07540E+00
  -9.35143E+00 -1.04627E+01 -1.13342E+01 -1.16886E+01 -1.20297E+01 -1.26665E+01 -1.31547E+01 -1.31508E+01 -1.33388E+01 -1.41409E+01
  -1.46033E+01 -1.43336E+01 -1.43249E+01 -1.49090E+01 -1.52034E+01 -1.52295E+01 -1.54275E+01 -1.57385E+01 -1.60156E+01 -1.59648E+01
  -1.57010E+01 -1.56065E+01 -1.58866E+01 -1.62123E+01 -1.65003E+01 -1.67922E+01 -1.67650E+01 -1.65267E+01 -1.64526E+01 -1.63966E+01
  -1.62661E+01 -1.63582E+01 -1.63244E+01 -1.62542E+01 -1.63489E+01 -1.65625E+01 -1.68514E+01 -1.69259E+01 -1.66596E+01 -1.65028E+01
  -1.65166E+01 -1.63038E+01 -1.64284E+01 -1.66715E+01 -1.64227E+01 -1.61054E+01 -1.59732E+01 -1.57651E+01 -1.56234E+01 -1.55914E+01
  -1.54579E+01 -1.51891E+01 -1.52022E+01 -1.54026E+01 -1.55214E+01 -1.54440E+01 -1.54209E+01 -1.51628E+01 -1.46815E+01 -1.40189E+01
  -1.36340E+01 -1.37016E+01 -1.40268E+01 -1.42974E+01 -1.42072E+01 -1.38225E+01 -1.36302E+01 -1.34741E+01 -1.31394E+01 -1.30189E+01
 NY background values follow
    -1.271E+00   -1.088E+00   -9.050E-01   -7.210E-01   -5.364E-01   -3.508E-01   -1.643E-01    2.345E-02    2.125E-01    4.030E-01
     5.952E-01    7.891E-01    9.849E-01    1.183E+00    1.383E+00    1.586E+00    1.791E+00    1.998E+00    2.209E+00    2.422E+00
     2.639E+00    2.859E+00    3.082E+00    3.309E+00    3.540E+00    3.774E+00    4.013E+00    4.256E+00    4.503E+00    4.754E+00
     5.010E+00    5.271E+00    5.536E+00    5.806E+00    6.079E+00    6.356E+00    6.635E+00    6.918E+00    7.203E+00    7.491E+00
     7.780E+00    8.071E+00    8.363E+00    8.656E+00    8.949E+00    9.243E+00    9.537E+00    9.830E+00    1.012E+01    1.041E+01
     1.071E+01    1.099E+01    1.128E+01    1.157E+01    1.185E+01    1.213E+01    1.240E+01    1.268E+01    1.294E+01    1.321E+01
     1.347E+01    1.372E+01    1.397E+01    1.422E+01    1.446E+01    1.469E+01    1.492E+01    1.514E+01    1.536E+01    1.557E+01
     1.578E+01    1.598E+01    1.617E+01    1.636E+01    1.654E+01    1.671E+01    1.687E+01    1.703E+01    1.718E+01    1.733E+01
     1.746E+01    1.759E+01    1.771E+01    1.783E+01    1.793E+01    1.803E+01    1.812E+01    1.819E+01    1.827E+01    1.833E+01
     1.838E+01    1.842E+01    1.846E+01    1.848E+01    1.850E+01    1.851E+01    1.852E+01    1.851E+01    1.850E+01    1.848E+01
     1.846E+01    1.843E+01    1.839E+01    1.835E+01    1.831E+01    1.826E+01    1.820E+01    1.814E+01    1.808E+01    1.802E+01
     1.795E+01    1.787E+01    1.780E+01    1.772E+01    1.764E+01    1.756E+01    1.748E+01    1.740E+01    1.732E+01    1.723E+01
     1.715E+01    1.707E+01    1.698E+01    1.690E+01    1.682E+01    1.674E+01    1.665E+01    1.657E+01    1.649E+01    1.641E+01
     1.633E+01    1.625E+01    1.617E+01    1.609E+01    1.601E+01    1.593E+01    1.585E+01    1.577E+01    1.569E+01    1.561E+01
     1.553E+01    1.545E+01    1.537E+01    1.529E+01    1.521E+01    1.514E+01    1.506E+01    1.498E+01    1.490E+01    1.482E+01
     1.475E+01    1.467E+01    1.459E+01    1.452E+01    1.444E+01    1.436E+01    1.429E+01    1.421E+01    1.413E+01    1.405E+01
     1.398E+01    1.390E+01    1.382E+01    1.374E+01    1.366E+01    1.358E+01    1.350E+01    1.342E+01    1.334E+01    1.326E+01
     1.318E+01    1.310E+01    1.301E+01    1.293E+01    1.284E+01    1.276E+01    1.267E+01    1.258E+01    1.249E+01    1.240E+01
     1.231E+01    1.222E+01    1.213E+01    1.203E+01    1.194E+01    1.185E+01    1.175E+01    1.166E+01    1.156E+01    1.147E+01
     1.138E+01    1.129E+01    1.120E+01    1.111E+01    1.102E+01    1.093E+01    1.085E+01    1.077E+01    1.069E+01    1.061E+01
     1.054E+01    1.047E+01    1.040E+01    1.033E+01    1.027E+01    1.022E+01    1.016E+01    1.011E+01    1.007E+01    1.003E+01
     9.990E+00    9.958E+00    9.931E+00    9.907E+00    9.887E+00    9.871E+00    9.857E+00    9.845E+00    9.836E+00    9.828E+00
     9.822E+00    9.816E+00    9.812E+00    9.807E+00    9.803E+00    9.798E+00    9.792E+00    9.785E+00    9.776E+00    9.766E+00
     9.753E+00    9.738E+00    9.719E+00    9.698E+00    9.672E+00    9.642E+00    9.608E+00    9.569E+00    9.525E+00    9.476E+00
     9.420E+00    9.359E+00    9.292E+00    9.219E+00    9.141E+00    9.059E+00    8.972E+00    8.880E+00    8.785E+00    8.686E+00
     8.584E+00    8.478E+00    8.370E+00    8.259E+00    8.145E+00    8.030E+00    7.913E+00    7.795E+00    7.675E+00    7.554E+00
     7.433E+00    7.312E+00    7.190E+00    7.069E+00    6.948E+00    6.828E+00    6.710E+00    6.592E+00    6.476E+00    6.362E+00
     6.251E+00    6.142E+00    6.037E+00    5.938E+00    5.844E+00    5.758E+00    5.680E+00    5.611E+00    5.553E+00    5.507E+00
     5.472E+00    5.452E+00    5.446E+00    5.456E+00    5.483E+00    5.528E+00    5.592E+00    5.676E+00    5.781E+00    5.908E+00
     6.059E+00    6.234E+00    6.434E+00    6.661E+00    6.915E+00    7.198E+00    7.511E+00    7.854E+00    8.230E+00    8.638E+00
     9.080E+00    9.555E+00    1.006E+01    1.060E+01    1.116E+01    1.174E+01    1.235E+01    1.298E+01    1.362E+01    1.428E+01
     1.496E+01    1.564E+01    1.633E+01    1.704E+01    1.774E+01    1.845E+01    1.916E+01    1.986E+01    2.056E+01    2.126E+01
     2.195E+01    2.262E+01    2.329E+01    2.394E+01    2.457E+01    2.518E+01    2.577E+01    2.633E+01    2.687E+01    2.739E+01
     2.787E+01    2.832E+01    2.874E+01    2.913E+01    2.949E+01    2.982E+01    3.012E+01    3.040E+01    3.064E+01    3.086E+01
     3.105E+01    3.121E+01    3.134E+01    3.145E+01    3.153E+01    3.159E+01    3.162E+01    3.162E+01    3.160E+01    3.155E+01
     3.148E+01    3.139E+01    3.127E+01    3.113E+01    3.096E+01    3.078E+01    3.057E+01    3.034E+01    3.008E+01    2.981E+01
     2.951E+01    2.920E+01    2.886E+01    2.851E+01    2.813E+01    2.774E+01    2.734E+01    2.691E+01    2.647E+01    2.602E+01
     2.555E+01    2.507E+01    2.458E+01    2.408E+01    2.356E+01    2.304E+01    2.250E+01    2.196E+01    2.141E+01    2.085E+01
     2.028E+01    1.971E+01    1.914E+01    1.855E+01    1.797E+01    1.738E+01    1.679E+01    1.620E+01    1.561E+01    1.502E+01
     1.442E+01    1.383E+01    1.324E+01    1.266E+01    1.207E+01    1.149E+01    1.091E+01    1.033E+01    9.755E+00    9.185E+00
     8.620E+00    8.059E+00    7.502E+00    6.951E+00    6.406E+00    5.866E+00    5.333E+00    4.806E+00    4.287E+00    3.774E+00
     3.270E+00    2.773E+00    2.285E+00    1.805E+00    1.335E+00    8.738E-01    4.224E-01   -1.876E-02   -4.495E-01   -8.695E-01
    -1.279E+00   -1.676E+00   -2.063E+00   -2.440E+00   -2.806E+00   -3.161E+00   -3.507E+00   -3.842E+00   -4.168E+00   -4.484E+00
    -4.791E+00   -5.089E+00   -5.377E+00   -5.657E+00   -5.928E+00   -6.191E+00   -6.446E+00   -6.692E+00   -6.931E+00   -7.162E+00
    -7.385E+00   -7.601E+00   -7.810E+00   -8.012E+00   -8.207E+00   -8.395E+00   -8.578E+00   -8.753E+00   -8.923E+00   -9.087E+00
    -9.246E+00   -9.399E+00   -9.547E+00   -9.689E+00   -9.827E+00   -9.961E+00   -1.009E+01   -1.021E+01   -1.034E+01   -1.045E+01
    -1.057E+01   -1.068E+01   -1.078E+01   -1.089E+01   -1.099E+01   -1.109E+01   -1.119E+01   -1.129E+01   -1.138E+01   -1.147E+01
    -1.156E+01   -1.165E+01   -1.174E+01   -1.183E+01   -1.192E+01   -1.201E+01   -1.210E+01   -1.219E+01   -1.228E+01   -1.237E+01
 Mac      Conc. = 2.39E-04
  -1.76908E+01 -1.82447E+01 -1.83501E+01 -1.83213E+01 -1.84116E+01 -1.85778E+01 -1.91287E+01 -2.02340E+01 -2.17168E+01 -2.31272E+01
  -2.41385E+01 -2.44554E+01 -2.43556E+01 -2.43365E+01 -2.45699E+01 -2.51180E+01 -2.62761E+01 -2.77498E+01 -2.71933E+01 -2.30613E+01
  -1.82661E+01 -1.51759E+01 -1.19676E+01 -8.56449E+00 -6.82495E+00 -5.93788E+00 -4.81542E+00 -3.42330E+00 -1.86116E+00  1.41796E-01
   2.29417E+00  3.77094E+00  4.82368E+00  5.83462E+00  6.49407E+00  6.58813E+00  6.49285E+00  6.91254E+00  8.54714E+00  1.12032E+01
   1.34048E+01  1.40589E+01  1.38808E+01  1.41846E+01  1.52247E+01  1.67845E+01  1.82502E+01  1.88530E+01  1.87882E+01  1.83720E+01
   1.75043E+01  1.65269E+01  1.57781E+01  1.52478E+01  1.48651E+01  1.49092E+01  1.50919E+01  1.53586E+01  1.65490E+01  1.82661E+01
   1.94686E+01  2.06428E+01  2.22822E+01  2.32649E+01  2.31967E+01  2.27834E+01  2.20297E+01  2.13812E+01  2.13588E+01  2.13795E+01
   2.12098E+01  2.19088E+01  2.42878E+01  2.70717E+01  2.88674E+01  2.99635E+01  3.04049E+01  3.02561E+01  2.98018E+01  2.90173E+01
   2.84196E+01  2.83278E+01  2.80952E+01  2.79241E+01  2.82738E+01  2.91528E+01  2.99244E+01  3.05396E+01  3.13945E+01  3.21090E+01
   3.24919E+01  3.29619E+01  3.33904E+01  3.35112E+01  3.34879E+01  3.31525E+01  3.18724E+01  2.98933E+01  2.77741E+01  2.55506E+01
   2.34787E+01  2.20997E+01  2.06728E+01  1.84815E+01  1.56115E+01  1.21408E+01  7.52715E+00  1.66624E+00 -4.34482E+00 -8.37851E+00
