 LCModel (Version 6.3-1N) Copyright: S.W. Provencher.          Ref.: Magn. Reson. Med. 30:672-679 (1993).                
 Slice_N1@20_8  28-Feb-2025 11:41:12
 27 lines in following concentration table = NCONC+1
    Conc.  %SD /Cr+PCr  Metabolite                                         
 2.68E-04   6% 3.0E-04 Mac                                                 
    3.352  90%   3.727 Cr                                                  
    3.843  79%   4.273 PCr                                                 
   11.561  12%  12.855 Ins                                                 
    9.788  12%  10.883 NAA                                                 
    7.842  18%   8.719 Tau                                                 
    1.439  33%   1.600 PCho                                                
    0.000 999%   0.000 GPC                                                 
   10.322  14%  11.478 Glu                                                 
    1.383  71%   1.537 Gln                                                 
    0.000 999%   0.000 Ala                                                 
    7.422  25%   8.253 Asc                                                 
    1.376  76%   1.530 Asp                                                 
    0.000 999%   0.000 GABA                                                
    0.382 175%   0.424 Glc                                                 
    0.590  80%   0.656 GSH                                                 
    0.265 391%   0.295 Lac                                                 
    1.780  56%   1.979 NAAG                                                
    0.891 203%   0.991 PE                                                  
    1.439  33%   1.600 GPC+PCho                                            
   11.568   9%  12.863 NAA+NAAG                                            
   11.705  14%  13.015 Glu+Gln                                             
    7.195  13%   8.000 Cr+PCr                                              
   11.568   9%  12.863 NAA+NAAG                                            
    7.195  13%   8.000 Cr+PCr                                              
   11.705  14%  13.015 Glu+Gln                                             
   6 lines in following misc. output table
  FWHM = 0.041 ppm    S/N =   2                                            
  Data shift = 0.008 ppm                                                   
  Ph:-172 deg       0.0 deg/ppm                                            
  alphaB,S = 1.6E-01,   2.3E+01                                            
   19 spline knots.   Ns = 5(1)                                            
  ( 3) 2 infls.   ( 3) 1 extrs.                                            
  480 points on ppm-axis = NY
      4.100000     4.091866     4.083733     4.075600     4.067466     4.059333     4.051199     4.043066     4.034933     4.026799
      4.018666     4.010532     4.002399     3.994265     3.986132     3.977998     3.969864     3.961731     3.953597     3.945463
      3.937330     3.929196     3.921062     3.912929     3.904795     3.896662     3.888528     3.880394     3.872261     3.864127
      3.855993     3.847860     3.839726     3.831592     3.823459     3.815325     3.807191     3.799058     3.790924     3.782790
      3.774657     3.766523     3.758389     3.750256     3.742122     3.733989     3.725855     3.717721     3.709588     3.701454
      3.693320     3.685187     3.677053     3.668919     3.660786     3.652652     3.644518     3.636385     3.628251     3.620117
      3.611984     3.603850     3.595716     3.587583     3.579449     3.571316     3.563182     3.555048     3.546915     3.538781
      3.530647     3.522514     3.514380     3.506246     3.498113     3.489979     3.481845     3.473712     3.465578     3.457444
      3.449311     3.441177     3.433043     3.424910     3.416776     3.408643     3.400509     3.392375     3.384242     3.376108
      3.367974     3.359841     3.351707     3.343573     3.335440     3.327306     3.319172     3.311039     3.302905     3.294771
      3.286638     3.278504     3.270370     3.262237     3.254103     3.245970     3.237836     3.229702     3.221569     3.213435
      3.205301     3.197168     3.189034     3.180900     3.172767     3.164633     3.156499     3.148366     3.140232     3.132098
      3.123965     3.115831     3.107697     3.099564     3.091430     3.083297     3.075163     3.067029     3.058896     3.050762
      3.042628     3.034495     3.026361     3.018227     3.010094     3.001960     2.993826     2.985693     2.977559     2.969425
      2.961292     2.953158     2.945024     2.936891     2.928757     2.920624     2.912490     2.904356     2.896223     2.888089
      2.879955     2.871822     2.863688     2.855554     2.847421     2.839287     2.831153     2.823020     2.814886     2.806752
      2.798619     2.790485     2.782351     2.774218     2.766084     2.757951     2.749817     2.741683     2.733550     2.725416
      2.717282     2.709149     2.701015     2.692881     2.684748     2.676614     2.668480     2.660347     2.652213     2.644079
      2.635946     2.627812     2.619678     2.611545     2.603411     2.595278     2.587144     2.579010     2.570877     2.562743
      2.554609     2.546476     2.538342     2.530208     2.522075     2.513941     2.505807     2.497674     2.489540     2.481406
      2.473273     2.465139     2.457006     2.448872     2.440738     2.432605     2.424471     2.416337     2.408204     2.400070
      2.391936     2.383803     2.375669     2.367535     2.359402     2.351268     2.343134     2.335001     2.326867     2.318733
      2.310600     2.302466     2.294333     2.286199     2.278065     2.269932     2.261798     2.253664     2.245531     2.237397
      2.229263     2.221130     2.212996     2.204862     2.196729     2.188595     2.180461     2.172328     2.164194     2.156060
      2.147927     2.139793     2.131660     2.123526     2.115392     2.107259     2.099125     2.090991     2.082858     2.074724
      2.066590     2.058457     2.050323     2.042189     2.034056     2.025922     2.017788     2.009655     2.001521     1.993387
      1.985254     1.977120     1.968987     1.960853     1.952719     1.944586     1.936452     1.928318     1.920185     1.912051
      1.903917     1.895784     1.887650     1.879516     1.871383     1.863249     1.855115     1.846982     1.838848     1.830714
      1.822581     1.814447     1.806314     1.798180     1.790046     1.781913     1.773779     1.765645     1.757512     1.749378
      1.741244     1.733111     1.724977     1.716843     1.708710     1.700576     1.692442     1.684309     1.676175     1.668041
      1.659908     1.651774     1.643641     1.635507     1.627373     1.619240     1.611106     1.602972     1.594839     1.586705
      1.578571     1.570438     1.562304     1.554170     1.546037     1.537903     1.529769     1.521636     1.513502     1.505368
      1.497235     1.489101     1.480968     1.472834     1.464700     1.456567     1.448433     1.440299     1.432166     1.424032
      1.415898     1.407765     1.399631     1.391497     1.383364     1.375230     1.367096     1.358963     1.350829     1.342695
      1.334562     1.326428     1.318295     1.310161     1.302027     1.293894     1.285760     1.277626     1.269493     1.261359
      1.253225     1.245092     1.236958     1.228824     1.220691     1.212557     1.204423     1.196290     1.188156     1.180022
      1.171889     1.163755     1.155622     1.147488     1.139354     1.131221     1.123087     1.114953     1.106820     1.098686
      1.090552     1.082419     1.074285     1.066151     1.058018     1.049884     1.041750     1.033617     1.025483     1.017349
      1.009216     1.001082     0.992949     0.984815     0.976681     0.968548     0.960414     0.952280     0.944147     0.936013
      0.927879     0.919746     0.911612     0.903478     0.895345     0.887211     0.879077     0.870944     0.862810     0.854676
      0.846543     0.838409     0.830276     0.822142     0.814008     0.805875     0.797741     0.789607     0.781474     0.773340
      0.765206     0.757073     0.748939     0.740805     0.732672     0.724538     0.716404     0.708271     0.700137     0.692003
      0.683870     0.675736     0.667603     0.659469     0.651335     0.643202     0.635068     0.626934     0.618801     0.610667
      0.602533     0.594400     0.586266     0.578132     0.569999     0.561865     0.553731     0.545598     0.537464     0.529330
      0.521197     0.513063     0.504930     0.496796     0.488662     0.480529     0.472395     0.464261     0.456128     0.447994
      0.439861     0.431727     0.423593     0.415460     0.407326     0.399192     0.391059     0.382925     0.374792     0.366658
      0.358524     0.350391     0.342257     0.334124     0.325990     0.317856     0.309723     0.301589     0.293455     0.285322
      0.277188     0.269055     0.260921     0.252787     0.244654     0.236520     0.228386     0.220253     0.212119     0.203986
 NY phased data points follow
   4.36343E+01  5.62272E+01  7.27695E+01  7.99331E+01  7.78593E+01  7.19934E+01  6.28714E+01  9.42170E+01  1.05412E+02  9.88072E+01
   1.19206E+02  8.89478E+01  7.34755E+01  9.51928E+01  8.57674E+01  7.60093E+01  7.11171E+01  5.88775E+01  8.67173E+01  8.64377E+01
   5.18759E+01  6.33106E+01  6.76564E+01  8.11361E+01  8.78562E+01  1.27640E+02  1.67387E+02  1.68361E+02  1.69835E+02  1.27179E+02
   1.41855E+02  1.53806E+02  1.53068E+02  1.57076E+02  1.29976E+02  1.40955E+02  1.21335E+02  9.43991E+01  8.80784E+01  5.89669E+01
   3.98055E+01  3.46298E+01  1.63605E+01  4.08127E+01  5.58015E+01  3.92636E+01  5.94228E+01  8.51368E+01  9.44405E+01  8.45520E+01
   1.04620E+02  9.64943E+01  8.47239E+01  8.28932E+01  6.14661E+01  8.01909E+01  8.24978E+01  6.26216E+01  6.56234E+01  6.99636E+01
   3.50676E+01  5.81205E+01  5.72403E+01  2.55606E+01  6.50686E+01  5.19018E+01  4.19176E+01  6.80558E+01  6.36690E+01  3.10987E+01
   2.64057E+01  3.04176E+01  5.25857E+01  5.01167E+01  3.15521E+01  7.60590E+01  7.57623E+01  9.39748E+01  9.03044E+01  6.86722E+01
   8.90875E+01  7.69058E+01  5.98581E+01  5.54038E+01  4.98125E+01  2.35207E+01  3.43562E+01  4.34445E+01  5.13837E+01  5.78702E+01
   6.38332E+01  9.17189E+01  6.87992E+01  6.23966E+01  9.31572E+01  1.05262E+02  1.02888E+02  1.06358E+02  9.25748E+01  9.31482E+01
   1.00374E+02  7.79405E+01  5.37660E+01  6.00073E+01  6.08251E+01  1.94528E+01  2.36377E+01  1.37032E+01 -1.25641E+01 -2.55192E+01
  -1.05564E+01 -1.85443E+01 -5.44373E+01 -2.78083E+01 -5.46205E+01 -2.21883E+01  5.47326E-01 -3.69871E+01 -1.19154E+01 -7.89840E+00
   5.34185E+00  1.06951E+00  1.29947E+01  1.52302E+01  2.14757E+01  5.85377E+01  5.66600E+01  8.69590E+01  9.08701E+01  7.82842E+01
   9.02013E+01  8.62755E+01  7.13374E+01  3.80165E+01 -1.48406E+01 -6.21041E+01 -4.99939E+01 -5.29523E+01 -4.46676E+01 -1.46783E+01
  -3.30228E+01 -3.27550E+01 -4.55827E+01 -2.12930E+01 -2.11787E+01 -4.39762E+01 -1.24421E+01 -3.99457E+01 -3.19454E+01 -2.87148E+01
  -2.33339E+01  7.11980E-01 -2.42992E+01 -1.11688E+01 -2.27284E+00 -1.11083E+01 -2.84357E+01 -1.83746E+00  3.13336E+01  2.54123E+00
  -4.73433E+00  7.65632E+00 -6.92953E+00 -1.79782E+01  2.20900E+00  1.15842E+01  2.88515E+00  9.89798E+00  1.76598E+01  1.33796E+01
   3.36852E+01 -7.20765E+00 -1.06568E+01  5.82272E+01  6.00299E+01  4.83427E+01  2.18075E+01  4.72901E+01  4.00279E+01  3.42072E+01
   3.99094E+01 -1.94606E+01 -8.94028E+00 -1.43148E+01 -5.45655E+00 -1.54389E+01 -2.29433E+01 -2.86127E+00 -2.72817E+01 -1.03193E+01
   5.45867E+00  2.46361E+01 -4.25295E+00 -2.46248E+01  3.79602E+00  5.62858E+00  1.92037E+01 -5.05138E+00  4.85940E+00  2.48870E+01
  -2.30480E+00  2.62398E+01  6.95636E+00 -5.23126E+00  2.13889E+01 -1.39662E+01 -9.13497E+00 -2.65892E+01 -3.83495E+01 -2.47448E+01
  -4.28475E+01 -3.43250E+01 -1.10026E+01  2.40470E+01  1.67728E+01  1.42038E+01  4.19987E+01  7.25892E+01  6.91619E+01  3.24749E+01
   3.79135E+01  2.64903E+01  1.46379E+01  2.19279E+01  2.92097E+00  8.21369E+00  3.05470E+01  1.66937E+01  2.49506E+01  9.03144E+00
  -1.31115E+01 -7.80871E+00 -3.57406E+00  1.81848E+01 -1.38253E+01 -1.69736E+01 -3.69801E+01 -3.89222E+01 -2.40692E+01 -5.90474E+01
  -1.20534E+01 -3.17905E+01 -6.06655E+01 -2.53327E+01 -1.56308E+01 -1.01700E+01 -8.09095E-01  9.45822E-01 -9.87345E+00 -3.88283E+00
  -3.98797E+01 -5.25058E+01 -4.91075E+01 -5.79910E+01 -3.59698E+01 -4.83600E+01 -2.52770E+01 -2.95212E+00  1.84502E+01  1.41313E+02
   1.66516E+02  1.33017E+02  1.62526E+02  1.25887E+02  1.02467E+02  9.31642E+01  9.16432E+01  1.04394E+02  1.00289E+02  1.13791E+02
   9.37296E+01  8.52647E+01  7.60948E+01  6.34567E+01  7.36808E+01  9.16739E+01  8.76693E+01  5.90977E+01  7.72199E+01  9.78160E+01
   8.56642E+01  7.62883E+01  7.50617E+01  7.42910E+01  8.19021E+01  5.17028E+01  5.42383E+01  6.90216E+01  5.56914E+01  7.06856E+01
   2.17230E+01  1.53385E+01  3.74957E+01  2.68784E+01  2.09568E+01  8.23306E+00 -7.19077E+00 -2.93582E+01 -1.16950E+01 -2.34059E+01
  -9.96191E+00  7.26817E+00  7.93853E+00  6.66431E+00  5.97375E+00  5.49603E+01  3.59839E+01  4.35581E+01  3.70226E+01  1.85125E+01
   4.16352E+01  1.75827E+01  2.79278E+01  1.65602E+01  4.97604E+00  9.92582E+00 -7.34521E+00 -3.10414E+00  6.38664E+00 -1.14340E+01
  -1.17853E+01  8.96290E+00 -6.24102E+00 -3.68357E+00  1.07996E+01  5.15307E+01  7.50622E+01  6.83298E+01  6.78452E+01  3.40195E+01
   4.17466E+00  3.21737E+00  2.44596E+01  9.75063E+00  2.52616E+01  9.00170E+00 -3.25095E+01  1.08968E+01  1.47693E+01  2.70448E+01
   3.42058E+01  1.70426E+01  4.18903E+00  1.22350E+01  2.38409E+01  6.33524E+00  3.09286E+01  2.49193E+01  2.35669E+01  3.82792E+01
   3.28297E+01  2.97296E+01  2.80163E+01  2.62378E+01  1.75098E+01  1.12412E+01 -1.49928E+01 -8.74750E+00 -1.25389E+01  1.32604E+00
   9.88011E+00 -1.30353E+01  1.27569E+01  8.57690E+00  1.34981E+01  1.21120E+01  1.17426E+01  3.26435E+01  3.89892E+01  4.46686E+01
   3.82450E+01  5.69848E+01  5.26057E+01  4.34115E+01  7.68590E+01  9.37807E+01  7.24288E+01  8.46414E+01  1.06188E+02  8.22154E+01
   9.30153E+01  9.48240E+01  9.17117E+01  1.19018E+02  1.08578E+02  1.19669E+02  1.34480E+02  1.29786E+02  1.40413E+02  1.26899E+02
   1.58177E+02  1.58687E+02  1.25645E+02  1.40496E+02  1.10108E+02  1.02238E+02  1.01231E+02  8.02296E+01  7.65073E+01  6.10328E+01
   5.34058E+01  6.68955E+01  4.95980E+01  2.71728E+01  5.11236E+01  1.38879E+01  3.02708E+00  1.22710E+01 -1.53706E+01  9.97226E+00
   1.90141E+01  6.86644E+00 -7.85159E+00  4.25153E+00  5.60558E+00  1.01037E+00  1.71431E+01 -1.80418E+01 -6.94032E+00  2.00335E+01
   1.19677E+00  3.26616E+00 -2.20946E+01 -1.53601E+01  2.41928E+01  1.28797E+01  2.91781E-01 -1.93204E+00  2.02919E+01  1.00856E+01
   5.37833E+00  1.13650E+01 -1.95736E+01 -9.27678E+00 -4.58386E+00 -5.09946E+00 -1.62101E+01  7.96906E-01 -3.36174E-01 -1.54180E+01
   1.12604E+01 -5.34727E+00 -1.49251E+01 -3.49446E+01 -1.48622E+00 -9.92828E+00 -3.72997E+01  8.92330E+00 -1.44647E+01 -2.56510E+00
  -1.59796E+01 -2.51167E+01  7.37425E+00  3.67449E+00  1.87919E+01  2.05091E+00 -8.10246E+00  9.45555E+00  2.64363E+01  1.24957E+01
   3.12085E+00  2.73578E+01  8.68484E+00  1.05263E+01  1.54768E+01 -9.63813E+00  2.62573E+00  4.99003E+00  7.05188E+00 -5.79833E+00
  -5.80873E+00  2.61003E+01  3.38558E+00  1.46668E+01  2.47497E+01 -1.23638E+00  5.75542E+00  9.87284E+00  6.70545E+00 -9.34733E+00
 NY points of the fit to the data follow
   8.30315E+01  7.73809E+01  7.25191E+01  6.87538E+01  6.69644E+01  6.94224E+01  7.75098E+01  8.80241E+01  9.45864E+01  9.38294E+01
   8.83559E+01  8.30830E+01  8.06017E+01  8.08783E+01  8.26849E+01  8.38179E+01  8.24080E+01  7.86175E+01  7.37201E+01  6.89773E+01
   6.52473E+01  6.41660E+01  6.90112E+01  8.16668E+01  9.89985E+01  1.14788E+02  1.24316E+02  1.27453E+02  1.27202E+02  1.26123E+02
   1.24887E+02  1.23194E+02  1.20880E+02  1.18065E+02  1.14724E+02  1.10480E+02  1.04744E+02  9.76858E+01  8.92462E+01  7.88094E+01
   6.61257E+01  5.32009E+01  4.39229E+01  4.04771E+01  4.25234E+01  4.91100E+01  5.95074E+01  7.28299E+01  8.65351E+01  9.79005E+01
   1.05570E+02  1.08611E+02  1.07218E+02  1.02986E+02  9.56692E+01  8.41022E+01  7.08190E+01  5.81994E+01  4.70132E+01  3.91844E+01
   3.64129E+01  4.04862E+01  5.01251E+01  6.08121E+01  7.09866E+01  7.90549E+01  8.19529E+01  7.80308E+01  6.61486E+01  4.81717E+01
   3.07626E+01  2.19431E+01  2.46482E+01  3.41469E+01  4.59367E+01  5.97962E+01  7.41656E+01  8.51368E+01  9.10833E+01  9.24506E+01
   8.97993E+01  8.35101E+01  7.35430E+01  6.12558E+01  4.93576E+01  4.08296E+01  3.85919E+01  4.32519E+01  5.27617E+01  6.41126E+01
   7.43298E+01  8.22310E+01  8.82853E+01  9.33601E+01  9.78391E+01  1.01312E+02  1.04138E+02  1.06565E+02  1.07018E+02  1.04523E+02
   9.96324E+01  9.19126E+01  8.10362E+01  6.63426E+01  4.86904E+01  3.12252E+01  1.40103E+01 -2.14046E+00 -1.26311E+01 -1.81297E+01
  -2.46436E+01 -3.58628E+01 -4.76238E+01 -5.05348E+01 -4.19153E+01 -2.81707E+01 -1.54571E+01 -5.28800E+00  3.13436E+00  1.05844E+01
   1.75441E+01  2.44419E+01  3.16583E+01  3.94294E+01  4.77270E+01  5.65875E+01  6.67477E+01  7.88192E+01  8.75596E+01  9.01987E+01
   8.92678E+01  8.36837E+01  6.68678E+01  3.40300E+01 -6.42443E+00 -3.51341E+01 -4.48515E+01 -4.33788E+01 -3.96396E+01 -3.68069E+01
  -3.48904E+01 -3.34843E+01 -3.23581E+01 -3.13591E+01 -3.03073E+01 -2.90005E+01 -2.73124E+01 -2.52599E+01 -2.29587E+01 -2.05856E+01
  -1.83423E+01 -1.63264E+01 -1.45323E+01 -1.28857E+01 -1.12689E+01 -9.61581E+00 -7.98988E+00 -6.56588E+00 -5.51183E+00 -4.82845E+00
  -4.23305E+00 -3.44356E+00 -2.52439E+00 -1.89880E+00 -1.78984E+00 -1.82308E+00 -1.35282E+00  4.27456E-02  2.14605E+00  4.47566E+00
   7.30277E+00  1.15955E+01  1.74343E+01  2.26604E+01  2.45575E+01  2.32188E+01  2.18027E+01  2.21180E+01  2.19792E+01  1.82778E+01
   1.09821E+01  3.01080E+00 -3.03942E+00 -6.87889E+00 -9.20526E+00 -1.05190E+01 -1.10582E+01 -1.09961E+01 -1.07807E+01 -1.05051E+01
  -9.39791E+00 -7.70512E+00 -5.93909E+00 -3.38099E+00  4.54734E-01  5.41617E+00  9.66121E+00  1.18281E+01  1.36167E+01  1.55684E+01
   1.60439E+01  1.43721E+01  1.13659E+01  8.24004E+00  4.64349E+00 -3.66692E-01 -6.28126E+00 -1.20269E+01 -1.68395E+01 -2.03590E+01
  -2.24420E+01 -2.13210E+01 -1.65197E+01 -7.70178E+00  5.65183E+00  2.17540E+01  3.78627E+01  5.06225E+01  5.68125E+01  5.69359E+01
   5.26945E+01  4.64030E+01  4.07359E+01  3.68515E+01  3.40769E+01  3.11757E+01  2.72676E+01  2.19391E+01  1.51391E+01  7.19861E+00
  -1.50299E+00 -1.06003E+01 -1.93995E+01 -2.74082E+01 -3.41777E+01 -3.91937E+01 -4.24470E+01 -4.37783E+01 -4.33022E+01 -4.17442E+01
  -3.95390E+01 -3.73183E+01 -3.53312E+01 -3.31172E+01 -3.08686E+01 -2.87001E+01 -2.72935E+01 -2.74933E+01 -2.93904E+01 -3.23647E+01
  -3.49268E+01 -3.86285E+01 -4.65362E+01 -5.15733E+01 -4.92461E+01 -4.32620E+01 -3.45747E+01 -1.61896E+01  2.14084E+01  7.10791E+01
   1.07548E+02  1.19480E+02  1.15823E+02  1.08284E+02  1.01617E+02  9.62895E+01  9.18625E+01  8.79995E+01  8.45949E+01  8.17281E+01
   7.94225E+01  7.76073E+01  7.61521E+01  7.49024E+01  7.37542E+01  7.26005E+01  7.13498E+01  7.00180E+01  6.86596E+01  6.72414E+01
   6.56320E+01  6.37796E+01  6.17646E+01  5.96693E+01  5.75148E+01  5.52210E+01  5.27386E+01  5.01020E+01  4.72563E+01  4.41326E+01
   4.07614E+01  3.72784E+01  3.39066E+01  3.08917E+01  2.84861E+01  2.69646E+01  2.65055E+01  2.70795E+01  2.84542E+01  3.03239E+01
   3.24377E+01  3.46764E+01  3.69815E+01  3.92769E+01  4.14960E+01  4.36016E+01  4.56312E+01  4.76514E+01  4.97300E+01  5.18677E+01
   5.39089E+01  5.56821E+01  5.71787E+01  5.84232E+01  5.93783E+01  5.99373E+01  6.00106E+01  5.95387E+01  5.84924E+01  5.68635E+01
   5.47138E+01  5.21292E+01  4.90414E+01  4.53194E+01  4.09423E+01  3.58592E+01  2.99437E+01  2.31441E+01  1.57182E+01  8.28922E+00
   1.61929E+00 -3.69303E+00 -7.31341E+00 -9.03896E+00 -8.84211E+00 -6.97918E+00 -3.96351E+00 -4.64817E-01  2.90625E+00  5.90163E+00
   8.55028E+00  1.10184E+01  1.34571E+01  1.58984E+01  1.83013E+01  2.05564E+01  2.24363E+01  2.37877E+01  2.45123E+01  2.45082E+01
   2.36708E+01  2.20063E+01  1.96223E+01  1.67378E+01  1.37095E+01  1.10240E+01  9.21194E+00  8.57543E+00  9.08217E+00  1.06049E+01
   1.29336E+01  1.58351E+01  1.91085E+01  2.25528E+01  2.60350E+01  2.94554E+01  3.27277E+01  3.58744E+01  3.89603E+01  4.20614E+01
   4.52426E+01  4.85347E+01  5.19332E+01  5.55258E+01  5.94804E+01  6.38991E+01  6.87804E+01  7.41010E+01  7.98963E+01  8.62053E+01
   9.29105E+01  9.98012E+01  1.06670E+02  1.13202E+02  1.18773E+02  1.22642E+02  1.24183E+02  1.22954E+02  1.18807E+02  1.12117E+02
   1.03827E+02  9.51118E+01  8.68190E+01  7.92584E+01  7.23029E+01  6.55734E+01  5.86558E+01  5.12960E+01  4.36013E+01  3.59674E+01
   2.88587E+01  2.26880E+01  1.77069E+01  1.38757E+01  1.09877E+01  8.83285E+00  7.26020E+00  6.08835E+00  5.14751E+00  4.32579E+00
   3.62245E+00  3.11449E+00  2.84778E+00  2.74460E+00  2.68632E+00  2.66298E+00  2.70639E+00  2.75945E+00  2.76082E+00  2.76404E+00
   2.88121E+00  3.07295E+00  3.18286E+00  3.19799E+00  3.24201E+00  3.34147E+00  3.42842E+00  3.49075E+00  3.59528E+00  3.77980E+00
   3.96262E+00  4.05742E+00  4.05316E+00  4.01252E+00  4.01228E+00  4.09334E+00  4.25692E+00  4.47963E+00  4.70828E+00  4.89013E+00
   4.99897E+00  5.05175E+00  5.07285E+00  5.06340E+00  5.00072E+00  4.93328E+00  4.93333E+00  5.00270E+00  5.12091E+00  5.24125E+00
   5.32882E+00  5.38713E+00  5.43928E+00  5.53487E+00  5.70023E+00  5.88892E+00  6.06225E+00  6.19944E+00  6.28932E+00  6.35407E+00
   6.40993E+00  6.43062E+00  6.41161E+00  6.37626E+00  6.39234E+00  6.48902E+00  6.65552E+00  6.87129E+00  7.11093E+00  7.30449E+00
   7.36207E+00  7.26169E+00  7.11005E+00  7.01284E+00  7.00019E+00  7.03262E+00  7.08714E+00  7.14975E+00  7.23121E+00  7.32990E+00
 NY background values follow
     1.211E+02    1.203E+02    1.195E+02    1.187E+02    1.179E+02    1.171E+02    1.163E+02    1.155E+02    1.147E+02    1.139E+02
     1.131E+02    1.123E+02    1.115E+02    1.107E+02    1.099E+02    1.091E+02    1.083E+02    1.075E+02    1.067E+02    1.059E+02
     1.051E+02    1.043E+02    1.035E+02    1.027E+02    1.019E+02    1.011E+02    1.003E+02    9.953E+01    9.873E+01    9.793E+01
     9.712E+01    9.632E+01    9.552E+01    9.472E+01    9.392E+01    9.312E+01    9.232E+01    9.152E+01    9.072E+01    8.992E+01
     8.913E+01    8.833E+01    8.754E+01    8.675E+01    8.596E+01    8.518E+01    8.439E+01    8.361E+01    8.283E+01    8.206E+01
     8.129E+01    8.052E+01    7.975E+01    7.899E+01    7.823E+01    7.748E+01    7.673E+01    7.598E+01    7.524E+01    7.451E+01
     7.377E+01    7.305E+01    7.233E+01    7.161E+01    7.090E+01    7.019E+01    6.949E+01    6.880E+01    6.811E+01    6.743E+01
     6.675E+01    6.607E+01    6.541E+01    6.475E+01    6.409E+01    6.345E+01    6.280E+01    6.217E+01    6.154E+01    6.091E+01
     6.030E+01    5.969E+01    5.908E+01    5.849E+01    5.790E+01    5.731E+01    5.674E+01    5.617E+01    5.560E+01    5.505E+01
     5.450E+01    5.396E+01    5.343E+01    5.290E+01    5.238E+01    5.187E+01    5.137E+01    5.087E+01    5.038E+01    4.990E+01
     4.942E+01    4.895E+01    4.849E+01    4.804E+01    4.759E+01    4.715E+01    4.672E+01    4.629E+01    4.588E+01    4.547E+01
     4.506E+01    4.466E+01    4.427E+01    4.389E+01    4.352E+01    4.315E+01    4.278E+01    4.243E+01    4.208E+01    4.174E+01
     4.141E+01    4.108E+01    4.076E+01    4.044E+01    4.014E+01    3.984E+01    3.954E+01    3.925E+01    3.897E+01    3.869E+01
     3.842E+01    3.816E+01    3.790E+01    3.764E+01    3.739E+01    3.714E+01    3.690E+01    3.667E+01    3.644E+01    3.621E+01
     3.599E+01    3.577E+01    3.555E+01    3.534E+01    3.514E+01    3.493E+01    3.473E+01    3.453E+01    3.434E+01    3.415E+01
     3.396E+01    3.378E+01    3.359E+01    3.341E+01    3.324E+01    3.306E+01    3.289E+01    3.271E+01    3.254E+01    3.238E+01
     3.221E+01    3.205E+01    3.188E+01    3.172E+01    3.156E+01    3.140E+01    3.124E+01    3.108E+01    3.092E+01    3.077E+01
     3.061E+01    3.045E+01    3.030E+01    3.014E+01    2.998E+01    2.983E+01    2.967E+01    2.951E+01    2.936E+01    2.920E+01
     2.904E+01    2.888E+01    2.872E+01    2.856E+01    2.839E+01    2.823E+01    2.807E+01    2.790E+01    2.774E+01    2.757E+01
     2.741E+01    2.724E+01    2.707E+01    2.690E+01    2.673E+01    2.656E+01    2.639E+01    2.622E+01    2.605E+01    2.588E+01
     2.571E+01    2.553E+01    2.536E+01    2.518E+01    2.501E+01    2.483E+01    2.466E+01    2.448E+01    2.431E+01    2.413E+01
     2.395E+01    2.377E+01    2.360E+01    2.342E+01    2.324E+01    2.306E+01    2.288E+01    2.269E+01    2.251E+01    2.232E+01
     2.214E+01    2.195E+01    2.176E+01    2.157E+01    2.138E+01    2.119E+01    2.099E+01    2.079E+01    2.059E+01    2.039E+01
     2.019E+01    1.998E+01    1.977E+01    1.956E+01    1.935E+01    1.913E+01    1.891E+01    1.869E+01    1.846E+01    1.823E+01
     1.800E+01    1.777E+01    1.753E+01    1.729E+01    1.705E+01    1.680E+01    1.655E+01    1.630E+01    1.604E+01    1.578E+01
     1.552E+01    1.526E+01    1.499E+01    1.472E+01    1.445E+01    1.418E+01    1.391E+01    1.363E+01    1.335E+01    1.307E+01
     1.279E+01    1.250E+01    1.221E+01    1.193E+01    1.163E+01    1.134E+01    1.105E+01    1.075E+01    1.046E+01    1.016E+01
     9.862E+00    9.562E+00    9.261E+00    8.960E+00    8.660E+00    8.360E+00    8.062E+00    7.764E+00    7.469E+00    7.177E+00
     6.887E+00    6.600E+00    6.317E+00    6.038E+00    5.764E+00    5.494E+00    5.230E+00    4.972E+00    4.720E+00    4.474E+00
     4.236E+00    4.005E+00    3.782E+00    3.567E+00    3.361E+00    3.165E+00    2.978E+00    2.801E+00    2.634E+00    2.479E+00
     2.334E+00    2.201E+00    2.080E+00    1.969E+00    1.870E+00    1.781E+00    1.704E+00    1.637E+00    1.581E+00    1.535E+00
     1.500E+00    1.475E+00    1.460E+00    1.456E+00    1.461E+00    1.476E+00    1.501E+00    1.535E+00    1.579E+00    1.633E+00
     1.696E+00    1.767E+00    1.848E+00    1.938E+00    2.037E+00    2.144E+00    2.260E+00    2.385E+00    2.518E+00    2.659E+00
     2.808E+00    2.966E+00    3.131E+00    3.303E+00    3.483E+00    3.669E+00    3.863E+00    4.062E+00    4.268E+00    4.479E+00
     4.696E+00    4.919E+00    5.146E+00    5.378E+00    5.615E+00    5.856E+00    6.101E+00    6.350E+00    6.602E+00    6.858E+00
     7.116E+00    7.378E+00    7.641E+00    7.907E+00    8.175E+00    8.444E+00    8.714E+00    8.986E+00    9.259E+00    9.532E+00
     9.806E+00    1.008E+01    1.035E+01    1.063E+01    1.090E+01    1.117E+01    1.144E+01    1.171E+01    1.197E+01    1.223E+01
     1.250E+01    1.275E+01    1.301E+01    1.326E+01    1.351E+01    1.375E+01    1.399E+01    1.423E+01    1.446E+01    1.468E+01
     1.490E+01    1.511E+01    1.532E+01    1.552E+01    1.572E+01    1.590E+01    1.608E+01    1.626E+01    1.642E+01    1.658E+01
     1.673E+01    1.687E+01    1.700E+01    1.713E+01    1.724E+01    1.735E+01    1.745E+01    1.754E+01    1.763E+01    1.771E+01
     1.778E+01    1.784E+01    1.790E+01    1.795E+01    1.799E+01    1.803E+01    1.806E+01    1.808E+01    1.810E+01    1.811E+01
     1.812E+01    1.812E+01    1.811E+01    1.810E+01    1.808E+01    1.806E+01    1.803E+01    1.799E+01    1.796E+01    1.791E+01
     1.786E+01    1.781E+01    1.775E+01    1.769E+01    1.762E+01    1.755E+01    1.748E+01    1.740E+01    1.732E+01    1.723E+01
     1.714E+01    1.705E+01    1.696E+01    1.686E+01    1.676E+01    1.666E+01    1.656E+01    1.646E+01    1.635E+01    1.624E+01
     1.613E+01    1.602E+01    1.591E+01    1.580E+01    1.568E+01    1.557E+01    1.546E+01    1.534E+01    1.523E+01    1.512E+01
     1.500E+01    1.489E+01    1.478E+01    1.466E+01    1.455E+01    1.444E+01    1.433E+01    1.422E+01    1.411E+01    1.400E+01
     1.389E+01    1.378E+01    1.367E+01    1.356E+01    1.345E+01    1.334E+01    1.323E+01    1.312E+01    1.301E+01    1.290E+01
     1.279E+01    1.268E+01    1.257E+01    1.245E+01    1.234E+01    1.223E+01    1.212E+01    1.201E+01    1.190E+01    1.179E+01
 Mac      Conc. = 2.68E-04
   1.02374E+02  1.01053E+02  9.97795E+01  9.84835E+01  9.70367E+01  9.53381E+01  9.33990E+01  9.12870E+01  8.91562E+01  8.71875E+01
   8.54770E+01  8.39952E+01  8.26254E+01  8.13351E+01  8.01364E+01  7.89620E+01  7.80676E+01  7.80779E+01  7.94091E+01  8.18051E+01
   8.44544E+01  8.67619E+01  8.86103E+01  8.99699E+01  9.08385E+01  9.14091E+01  9.19542E+01  9.26203E+01  9.33893E+01  9.41376E+01
   9.46827E+01  9.48963E+01  9.48015E+01  9.45283E+01  9.41612E+01  9.37559E+01  9.34802E+01  9.35791E+01  9.41030E+01  9.47360E+01
   9.50455E+01  9.48483E+01  9.43992E+01  9.40754E+01  9.39701E+01  9.38490E+01  9.33917E+01  9.24529E+01  9.10787E+01  8.94039E+01
   8.75910E+01  8.57958E+01  8.41997E+01  8.29016E+01  8.18660E+01  8.10858E+01  8.06488E+01  8.06098E+01  8.08618E+01  8.11944E+01
   8.14008E+01  8.14213E+01  8.11976E+01  8.05846E+01  7.95324E+01  7.82110E+01  7.69190E+01  7.59188E+01  7.52606E+01  7.49219E+01
   7.50003E+01  7.55849E+01  7.65242E+01  7.73916E+01  7.77981E+01  7.76630E+01  7.70584E+01  7.60796E+01  7.48937E+01  7.36950E+01
   7.26279E+01  7.17631E+01  7.11067E+01  7.07097E+01  7.05896E+01  7.06606E+01  7.07953E+01  7.09018E+01  7.09288E+01  7.08742E+01
   7.06945E+01  7.03498E+01  6.97887E+01  6.89227E+01  6.76739E+01  6.59972E+01  6.38861E+01  6.14193E+01  5.87649E+01  5.61008E+01
   5.34763E+01  5.07331E+01  4.75510E+01  4.37478E+01  3.93809E+01  3.45439E+01  2.94491E+01  2.45769E+01  2.06680E+01  1.83706E+01
