 LCModel (Version 6.3-1N) Copyright: S.W. Provencher.          Ref.: Magn. Reson. Med. 30:672-679 (1993).                
 Slice_N1@24_18  28-Feb-2025 11:43:41
 27 lines in following concentration table = NCONC+1
    Conc.  %SD /Cr+PCr  Metabolite                                         
 2.83E-04   5% 6.8E-04 Mac                                                 
    3.351  28%   8.000 Cr                                                  
    0.000 999%   0.000 PCr                                                 
    0.000 999%   0.000 Ins                                                 
    0.000 999%   0.000 NAA                                                 
    4.078  39%   9.736 Tau                                                 
    0.000 999%   0.000 PCho                                                
    1.908  18%   4.557 GPC                                                 
    9.416  15%  22.482 Glu                                                 
    3.805  33%   9.085 Gln                                                 
    0.000 999%   0.000 Ala                                                 
    0.000 999%   0.000 Asc                                                 
    1.764  54%   4.213 Asp                                                 
    0.443 126%   1.059 GABA                                                
    0.821  73%   1.960 Glc                                                 
    2.783  27%   6.644 GSH                                                 
   18.501   6%  44.173 Lac                                                 
    4.546  20%  10.855 NAAG                                                
    0.000 999%   0.000 PE                                                  
    1.908  18%   4.557 GPC+PCho                                            
    4.546  20%  10.855 NAA+NAAG                                            
   13.221  13%  31.568 Glu+Gln                                             
    3.351  28%   8.000 Cr+PCr                                              
    4.546  20%  10.855 NAA+NAAG                                            
    3.351  28%   8.000 Cr+PCr                                              
   13.221  13%  31.568 Glu+Gln                                             
   6 lines in following misc. output table
  FWHM = 0.106 ppm    S/N =   3                                            
  Data shift =-0.065 ppm                                                   
  Ph: -74 deg       0.0 deg/ppm                                            
  alphaB,S = 1.4E-01,   2.6E+01                                            
   19 spline knots.   Ns =10(1)                                            
  (16) 9 infls.   (11) 5 extrs.                                            
  480 points on ppm-axis = NY
      4.100000     4.091866     4.083733     4.075600     4.067466     4.059333     4.051199     4.043066     4.034933     4.026799
      4.018666     4.010532     4.002399     3.994265     3.986132     3.977998     3.969864     3.961731     3.953597     3.945463
      3.937330     3.929196     3.921062     3.912929     3.904795     3.896662     3.888528     3.880394     3.872261     3.864127
      3.855993     3.847860     3.839726     3.831592     3.823459     3.815325     3.807191     3.799058     3.790924     3.782790
      3.774657     3.766523     3.758389     3.750256     3.742122     3.733989     3.725855     3.717721     3.709588     3.701454
      3.693320     3.685187     3.677053     3.668919     3.660786     3.652652     3.644518     3.636385     3.628251     3.620117
      3.611984     3.603850     3.595716     3.587583     3.579449     3.571316     3.563182     3.555048     3.546915     3.538781
      3.530647     3.522514     3.514380     3.506246     3.498113     3.489979     3.481845     3.473712     3.465578     3.457444
      3.449311     3.441177     3.433043     3.424910     3.416776     3.408643     3.400509     3.392375     3.384242     3.376108
      3.367974     3.359841     3.351707     3.343573     3.335440     3.327306     3.319172     3.311039     3.302905     3.294771
      3.286638     3.278504     3.270370     3.262237     3.254103     3.245970     3.237836     3.229702     3.221569     3.213435
      3.205301     3.197168     3.189034     3.180900     3.172767     3.164633     3.156499     3.148366     3.140232     3.132098
      3.123965     3.115831     3.107697     3.099564     3.091430     3.083297     3.075163     3.067029     3.058896     3.050762
      3.042628     3.034495     3.026361     3.018227     3.010094     3.001960     2.993826     2.985693     2.977559     2.969425
      2.961292     2.953158     2.945024     2.936891     2.928757     2.920624     2.912490     2.904356     2.896223     2.888089
      2.879955     2.871822     2.863688     2.855554     2.847421     2.839287     2.831153     2.823020     2.814886     2.806752
      2.798619     2.790485     2.782351     2.774218     2.766084     2.757951     2.749817     2.741683     2.733550     2.725416
      2.717282     2.709149     2.701015     2.692881     2.684748     2.676614     2.668480     2.660347     2.652213     2.644079
      2.635946     2.627812     2.619678     2.611545     2.603411     2.595278     2.587144     2.579010     2.570877     2.562743
      2.554609     2.546476     2.538342     2.530208     2.522075     2.513941     2.505807     2.497674     2.489540     2.481406
      2.473273     2.465139     2.457006     2.448872     2.440738     2.432605     2.424471     2.416337     2.408204     2.400070
      2.391936     2.383803     2.375669     2.367535     2.359402     2.351268     2.343134     2.335001     2.326867     2.318733
      2.310600     2.302466     2.294333     2.286199     2.278065     2.269932     2.261798     2.253664     2.245531     2.237397
      2.229263     2.221130     2.212996     2.204862     2.196729     2.188595     2.180461     2.172328     2.164194     2.156060
      2.147927     2.139793     2.131660     2.123526     2.115392     2.107259     2.099125     2.090991     2.082858     2.074724
      2.066590     2.058457     2.050323     2.042189     2.034056     2.025922     2.017788     2.009655     2.001521     1.993387
      1.985254     1.977120     1.968987     1.960853     1.952719     1.944586     1.936452     1.928318     1.920185     1.912051
      1.903917     1.895784     1.887650     1.879516     1.871383     1.863249     1.855115     1.846982     1.838848     1.830714
      1.822581     1.814447     1.806314     1.798180     1.790046     1.781913     1.773779     1.765645     1.757512     1.749378
      1.741244     1.733111     1.724977     1.716843     1.708710     1.700576     1.692442     1.684309     1.676175     1.668041
      1.659908     1.651774     1.643641     1.635507     1.627373     1.619240     1.611106     1.602972     1.594839     1.586705
      1.578571     1.570438     1.562304     1.554170     1.546037     1.537903     1.529769     1.521636     1.513502     1.505368
      1.497235     1.489101     1.480968     1.472834     1.464700     1.456567     1.448433     1.440299     1.432166     1.424032
      1.415898     1.407765     1.399631     1.391497     1.383364     1.375230     1.367096     1.358963     1.350829     1.342695
      1.334562     1.326428     1.318295     1.310161     1.302027     1.293894     1.285760     1.277626     1.269493     1.261359
      1.253225     1.245092     1.236958     1.228824     1.220691     1.212557     1.204423     1.196290     1.188156     1.180022
      1.171889     1.163755     1.155622     1.147488     1.139354     1.131221     1.123087     1.114953     1.106820     1.098686
      1.090552     1.082419     1.074285     1.066151     1.058018     1.049884     1.041750     1.033617     1.025483     1.017349
      1.009216     1.001082     0.992949     0.984815     0.976681     0.968548     0.960414     0.952280     0.944147     0.936013
      0.927879     0.919746     0.911612     0.903478     0.895345     0.887211     0.879077     0.870944     0.862810     0.854676
      0.846543     0.838409     0.830276     0.822142     0.814008     0.805875     0.797741     0.789607     0.781474     0.773340
      0.765206     0.757073     0.748939     0.740805     0.732672     0.724538     0.716404     0.708271     0.700137     0.692003
      0.683870     0.675736     0.667603     0.659469     0.651335     0.643202     0.635068     0.626934     0.618801     0.610667
      0.602533     0.594400     0.586266     0.578132     0.569999     0.561865     0.553731     0.545598     0.537464     0.529330
      0.521197     0.513063     0.504930     0.496796     0.488662     0.480529     0.472395     0.464261     0.456128     0.447994
      0.439861     0.431727     0.423593     0.415460     0.407326     0.399192     0.391059     0.382925     0.374792     0.366658
      0.358524     0.350391     0.342257     0.334124     0.325990     0.317856     0.309723     0.301589     0.293455     0.285322
      0.277188     0.269055     0.260921     0.252787     0.244654     0.236520     0.228386     0.220253     0.212119     0.203986
 NY phased data points follow
  -4.23412E+01 -3.07186E+01 -2.09823E+01 -2.93654E+01 -5.48843E+01 -5.08315E+01 -3.26375E+01 -2.78763E+01 -3.11219E+01 -5.29121E+01
  -3.78949E+01 -2.76555E+01 -4.11322E+01 -4.29832E+01 -4.31271E+01 -4.57228E+01 -6.14307E+01 -5.58077E+01 -5.91327E+01 -8.43387E+01
  -7.49953E+01 -6.07065E+01 -7.13739E+01 -7.52167E+01 -8.38525E+01 -7.71782E+01 -6.03604E+01 -7.81309E+01 -7.19212E+01 -6.35245E+01
  -8.65336E+01 -8.69485E+01 -6.98424E+01 -5.98334E+01 -5.91492E+01 -6.55591E+01 -6.22370E+01 -5.83868E+01 -7.77614E+01 -7.09920E+01
  -7.17497E+01 -8.35962E+01 -7.57785E+01 -7.09781E+01 -5.36114E+01 -5.41729E+01 -6.09754E+01 -4.81638E+01 -4.07935E+01 -3.85973E+01
  -2.76686E+01 -3.38926E+01 -2.76311E+01 -3.10527E+01 -4.89019E+01 -2.92635E+01 -3.46910E+01 -1.74047E+01 -2.97260E+01 -4.18785E+01
  -1.59098E+01 -2.11085E+01 -8.91663E+00 -2.14727E+01 -5.19684E+00  4.48561E+00 -4.24230E+00  1.11292E+00 -7.34854E+00 -1.32726E+01
  -3.87367E+01 -2.26653E+01 -1.64184E+01 -1.43528E+01 -3.25761E+00 -7.29600E+00 -8.97186E-01  6.23399E+00  1.56186E+01 -8.29093E+00
  -1.03493E+01 -4.99088E+00 -1.13556E+01 -7.79835E+00 -1.33443E+01 -4.94293E+00 -5.63915E+00 -3.36416E+00 -7.39083E+00 -1.41998E+01
   5.50597E+00  2.09389E+00 -4.97588E+00  9.26149E+00  8.28317E+00  1.25637E+01  1.38136E+01  9.84880E+00  1.33474E+01  2.01177E+00
   6.61316E+00  1.09209E+01 -8.24435E+00 -1.06509E+01 -1.87440E+01 -3.35519E+01 -3.29698E+01 -4.15850E+01 -5.19833E+01 -6.71799E+01
  -7.58432E+01 -7.90712E+01 -8.86238E+01 -8.93719E+01 -8.82731E+01 -8.31570E+01 -7.43540E+01 -4.21471E+01 -4.42805E+01 -5.05351E+01
  -2.03985E+01 -2.54590E+01 -2.11478E+01 -2.58739E+01 -1.96609E+01  1.81326E+01  1.28536E+01  1.08075E+00  2.49711E-01 -1.09244E+01
  -8.31509E+00 -2.14997E+00 -1.29860E+01 -3.57495E+01 -5.03706E+01 -4.42640E+01 -5.78651E+01 -6.51580E+01 -6.94312E+01 -8.35970E+01
  -6.95331E+01 -5.45837E+01 -4.72825E+01 -5.15074E+01 -7.59312E+01 -7.75733E+01 -4.14870E+01 -4.38565E+01 -6.17914E+01 -6.02034E+01
  -5.04565E+01 -4.64430E+01 -5.82795E+01 -4.70188E+01 -4.21250E+01 -2.92843E+01 -3.84532E+01 -4.86918E+01 -3.53433E+01 -3.77179E+01
  -3.27838E+01 -3.70313E+01 -3.30386E+01 -2.23650E+01 -1.22276E+01 -3.87828E+01 -4.28935E+01 -2.08693E+01 -3.22707E+01 -3.30360E+01
  -3.12948E+01 -1.69126E+01 -2.76285E+01 -3.11272E+01 -2.69942E+01 -2.22047E+01 -4.15911E+00 -1.85468E+01 -3.44902E+01 -3.47265E+01
  -2.29646E+01 -3.55312E+01 -4.57462E+01 -4.16656E+01 -4.34697E+01 -5.57599E+01 -5.84840E+01 -4.79048E+01 -3.84665E+01 -4.16045E+01
  -4.92549E+01 -3.60186E+01 -5.29185E+01 -3.26707E+01 -3.41381E+01 -3.80741E+01 -1.99739E+01 -5.03186E+01 -3.35660E+01 -3.65527E+01
  -2.36247E+01 -2.73410E+01 -4.25141E+01 -1.75348E+01 -3.14950E+01 -2.63010E+01 -2.49934E+01 -2.58308E+01 -1.41475E+01 -1.87298E+01
  -2.91005E+01 -2.11895E+01 -2.37056E+01 -1.69171E+01 -9.56897E+00 -1.57282E+01  4.48840E+00  1.84009E+00  9.90555E+00  1.14936E+01
   1.09937E+00 -1.24931E+01 -1.23745E+01 -1.09936E+00 -7.93123E+00 -1.60774E+01 -2.29124E+01 -7.14850E+00 -3.20785E+01 -1.75933E+01
  -4.20163E+00 -2.32673E+01 -2.38804E+01 -4.17744E+01 -2.54067E+01 -3.48710E+01 -3.33942E+01 -3.69528E+01 -2.79431E+01 -2.24983E+01
  -3.50369E+01 -2.06321E+01 -3.56464E+01 -9.57108E+00 -3.01614E+01 -2.71504E+01 -4.26358E-01 -2.15458E+01 -8.23810E+00 -1.68096E+01
   9.79673E+00  8.30859E+00 -2.15696E+01 -8.57079E+00  6.18551E+00  1.36508E+00  1.71828E+01  5.95043E+01  4.96613E+01  6.75909E+01
   9.65177E+01  9.54625E+01  9.51179E+01  1.05100E+02  9.45853E+01  6.84485E+01  9.08204E+01  4.84207E+01  3.75004E+01  8.26814E+01
   6.33467E+01  6.74436E+01  5.67001E+01  5.55223E+01  6.06860E+01  4.68567E+01  6.75756E+01  5.90037E+01  5.57270E+01  6.00308E+01
   4.57630E+01  4.03838E+01  4.76134E+01  4.90580E+01  2.18102E+01  3.54747E+01  4.36829E+01  3.21622E+01  4.14638E+01  3.01900E+01
   2.20972E+01  3.93328E+00  1.23110E+01  2.01239E+01  1.84867E+01  4.00204E+01  1.68858E+01  1.53027E+01  2.32597E+01  6.22384E+00
  -2.08157E-01  1.15098E+01  4.13634E+01  3.00735E+01  8.22473E+00  1.63780E+01  3.89253E+01  4.00064E+01  3.97254E+01  4.92742E+01
   3.89738E+01  6.45353E+01  6.76562E+01  4.37816E+01  6.83991E+01  6.87172E+01  5.70164E+01  6.67689E+01  6.31501E+01  6.78896E+01
   7.66688E+01  8.16555E+01  7.43633E+01  5.05598E+01  5.68932E+01  6.98010E+01  7.43009E+01  7.35684E+01  5.65601E+01  5.59816E+01
   5.86220E+01  4.82543E+01  3.57117E+01  2.66493E+01  1.60730E+01  1.27043E+01  1.83699E+01  7.32055E+00  2.19143E+01  3.01010E+01
   9.28973E+00  2.25541E+01  1.31793E+01  7.16710E+00  5.28065E+00 -2.55854E+01 -1.17407E+01 -1.89464E+01 -2.43255E+01 -2.53844E+01
  -6.01790E+01 -4.86922E+01 -5.93794E+01 -8.73688E+01 -8.17447E+01 -8.99011E+01 -9.55416E+01 -8.13583E+01 -7.89071E+01 -7.21622E+01
  -6.79897E+01 -7.98520E+01 -5.33508E+01 -4.54167E+01 -4.13891E+01 -2.30904E+01 -3.62416E+01 -2.97596E+01 -1.02622E+01  1.94117E+00
  -7.72457E+00 -1.52773E+00  1.48965E+01  4.52736E+00  1.15959E+01  1.92832E+01  1.77455E+01  2.28468E+01  3.18578E+01  2.20036E+01
   3.36860E+01  5.40900E+01  3.34006E+01  4.20373E+01  5.36632E+01  4.49445E+01  4.62546E+01  3.90755E+01  3.75101E+01  4.77726E+01
   4.66593E+01  3.45643E+01  3.80838E+01  2.25579E+01  4.11364E+00  1.23500E+01 -1.58753E+00 -1.07696E+01 -1.38126E+01 -2.44843E+01
  -2.29986E+01 -2.72267E+01 -3.91026E+01 -5.88189E+01 -6.00421E+01 -4.86618E+01 -5.42358E+01 -7.21034E+01 -8.57720E+01 -6.83585E+01
  -5.55146E+01 -6.34546E+01 -6.28753E+01 -6.58533E+01 -7.79220E+01 -7.73794E+01 -6.50791E+01 -5.53199E+01 -5.78934E+01 -7.22091E+01
  -6.29201E+01 -6.05910E+01 -6.54822E+01 -5.56819E+01 -6.82663E+01 -5.88754E+01 -4.82702E+01 -7.30048E+01 -6.72783E+01 -4.55808E+01
  -5.57023E+01 -5.72071E+01 -3.73866E+01 -4.02031E+01 -5.82816E+01 -6.61529E+01 -5.34386E+01 -5.47630E+01 -5.14914E+01 -3.47626E+01
  -4.46343E+01 -4.82599E+01 -3.97408E+01 -2.96294E+01 -4.84152E+01 -5.11797E+01 -3.56042E+01 -5.69788E+01 -5.04208E+01 -4.22981E+01
  -3.35583E+01 -2.69268E+01 -5.05286E+01 -4.36858E+01 -1.68463E+01 -2.63348E+01 -3.85648E+01 -2.99960E+01 -4.83483E+01 -4.51959E+01
  -3.42578E+01 -3.98681E+01 -3.04160E+01 -3.36129E+01 -3.83804E+01 -4.00686E+01 -2.59359E+01 -2.05898E+01 -2.89496E+01 -2.02994E+01
  -2.70460E+01 -5.28914E+01 -3.67554E+01 -2.32174E+01 -3.35837E+01 -1.85624E+01 -3.76695E+01 -3.12077E+01 -2.35288E+01 -4.24047E+01
 NY points of the fit to the data follow
  -7.11601E+01 -6.82894E+01 -6.49404E+01 -6.13110E+01 -5.80601E+01 -5.49897E+01 -5.23469E+01 -5.01342E+01 -4.86939E+01 -4.83640E+01
  -4.83160E+01 -4.99008E+01 -5.30576E+01 -5.60617E+01 -5.81047E+01 -5.94236E+01 -6.17339E+01 -6.42332E+01 -6.60327E+01 -6.67070E+01
  -6.66379E+01 -6.66442E+01 -6.68191E+01 -6.58041E+01 -6.31701E+01 -5.95400E+01 -5.59108E+01 -5.33535E+01 -5.15667E+01 -5.01839E+01
  -5.03270E+01 -4.89450E+01 -4.56324E+01 -4.21416E+01 -4.15983E+01 -4.32376E+01 -4.49798E+01 -4.70969E+01 -4.96994E+01 -5.32649E+01
  -5.70100E+01 -5.92365E+01 -6.01348E+01 -5.98057E+01 -5.81785E+01 -5.57085E+01 -5.26316E+01 -5.01006E+01 -4.77010E+01 -4.44108E+01
  -3.98997E+01 -3.44440E+01 -3.16195E+01 -2.99591E+01 -2.85061E+01 -2.70945E+01 -2.59347E+01 -2.54743E+01 -2.50554E+01 -2.40509E+01
  -2.24386E+01 -2.06750E+01 -1.87688E+01 -1.66605E+01 -1.44601E+01 -1.25760E+01 -1.12506E+01 -1.02339E+01 -9.03415E+00 -7.76022E+00
  -6.69549E+00 -6.20693E+00 -5.68303E+00 -5.83790E+00 -5.63238E+00 -5.44558E+00 -5.00720E+00 -4.64911E+00 -4.49798E+00 -4.83265E+00
  -5.72861E+00 -6.85078E+00 -8.17660E+00 -9.81211E+00 -1.12506E+01 -1.24304E+01 -1.29946E+01 -1.28676E+01 -1.23739E+01 -1.15095E+01
  -1.04771E+01 -8.87869E+00 -6.69442E+00 -5.05972E+00 -2.61476E+00 -1.22479E+00  1.23457E+00  3.79879E+00  5.58088E-01 -5.12573E+00
  -7.23147E+00 -5.48340E+00 -5.42616E+00 -9.30215E+00 -1.52590E+01 -2.12205E+01 -2.54583E+01 -3.06201E+01 -3.93735E+01 -4.87324E+01
  -5.60965E+01 -6.03627E+01 -6.27960E+01 -6.53972E+01 -6.69363E+01 -6.70036E+01 -6.48202E+01 -6.32599E+01 -6.08805E+01 -5.23847E+01
  -4.28121E+01 -3.38485E+01 -2.90624E+01 -2.77102E+01 -2.56047E+01 -2.10926E+01 -1.68701E+01 -1.51405E+01 -1.51241E+01 -1.55790E+01
  -1.53059E+01 -1.56040E+01 -1.89674E+01 -2.42546E+01 -2.97844E+01 -3.45582E+01 -3.86076E+01 -4.27671E+01 -4.67525E+01 -5.03766E+01
  -5.37848E+01 -5.76355E+01 -6.17547E+01 -6.24858E+01 -6.17697E+01 -6.10942E+01 -6.02409E+01 -5.93728E+01 -5.86137E+01 -5.80109E+01
  -5.69999E+01 -5.55918E+01 -5.39497E+01 -5.24031E+01 -5.10864E+01 -4.91915E+01 -4.69372E+01 -4.50255E+01 -4.37934E+01 -4.28451E+01
  -4.13926E+01 -3.91704E+01 -3.70459E+01 -3.60300E+01 -3.57945E+01 -3.52353E+01 -3.41800E+01 -3.32194E+01 -3.26307E+01 -3.22803E+01
  -3.18787E+01 -3.13510E+01 -3.11735E+01 -3.14313E+01 -3.19418E+01 -3.25496E+01 -3.32349E+01 -3.40666E+01 -3.47901E+01 -3.53918E+01
  -3.56743E+01 -3.58341E+01 -3.67856E+01 -3.76175E+01 -3.75499E+01 -3.70709E+01 -3.64861E+01 -3.58405E+01 -3.48674E+01 -3.36533E+01
  -3.21006E+01 -3.06149E+01 -2.93604E+01 -2.77405E+01 -2.60913E+01 -2.48225E+01 -2.40152E+01 -2.38519E+01 -2.37399E+01 -2.37204E+01
  -2.39154E+01 -2.47819E+01 -2.61397E+01 -2.62149E+01 -2.63520E+01 -2.64100E+01 -2.51516E+01 -2.48986E+01 -2.43423E+01 -2.41177E+01
  -2.39554E+01 -2.36021E+01 -2.23592E+01 -1.99162E+01 -1.73919E+01 -1.43390E+01 -1.08052E+01 -7.44330E+00 -3.74382E+00 -7.89043E-01
   1.32695E+00  2.96158E+00  3.71133E+00  4.35994E+00  3.36010E+00  1.24045E+00 -1.86704E+00 -7.43884E+00 -1.26204E+01 -1.89529E+01
  -2.52725E+01 -3.13684E+01 -3.68942E+01 -4.17707E+01 -4.60596E+01 -4.94296E+01 -5.17512E+01 -5.31249E+01 -5.30599E+01 -5.21704E+01
  -5.03993E+01 -4.82317E+01 -4.62304E+01 -4.16601E+01 -3.25246E+01 -2.34458E+01 -1.81662E+01 -1.56217E+01 -1.14848E+01 -6.23431E+00
  -6.97584E-01  4.21515E+00  8.40834E+00  1.47859E+01  2.41384E+01  3.34205E+01  4.15474E+01  4.77701E+01  5.33775E+01  5.95949E+01
   6.53626E+01  6.99911E+01  7.44530E+01  7.84573E+01  7.94822E+01  7.65210E+01  7.35138E+01  7.05980E+01  6.77644E+01  6.52602E+01
   6.30112E+01  6.11396E+01  5.95776E+01  5.81459E+01  5.69325E+01  5.59351E+01  5.51030E+01  5.43951E+01  5.37209E+01  5.29724E+01
   5.22107E+01  5.12951E+01  5.02168E+01  4.89155E+01  4.75172E+01  4.60781E+01  4.44261E+01  4.26105E+01  4.06028E+01  3.86386E+01
   3.67621E+01  3.49782E+01  3.33241E+01  3.19249E+01  3.08998E+01  3.02530E+01  3.00722E+01  3.02814E+01  3.08480E+01  3.18110E+01
   3.31119E+01  3.47880E+01  3.68168E+01  3.90408E+01  4.13084E+01  4.36104E+01  4.58521E+01  4.79724E+01  4.99833E+01  5.19004E+01
   5.35429E+01  5.49621E+01  5.61538E+01  5.71263E+01  5.77709E+01  5.79452E+01  5.75753E+01  5.67547E+01  5.56291E+01  5.41851E+01
   5.23737E+01  5.02581E+01  4.79383E+01  4.55245E+01  4.30715E+01  4.04491E+01  3.77262E+01  3.52425E+01  3.33248E+01  3.23634E+01
   3.29097E+01  3.54193E+01  3.46874E+01  2.92650E+01  2.51332E+01  2.10115E+01  2.10142E+01  2.46199E+01  2.85118E+01  2.87827E+01
   2.71060E+01  2.47581E+01  1.88797E+01  9.33362E+00 -3.78032E+00 -1.92333E+01 -3.20445E+01 -4.25286E+01 -5.17287E+01 -6.03751E+01
  -7.00321E+01 -7.93795E+01 -8.77412E+01 -9.00458E+01 -8.75705E+01 -8.31498E+01 -7.31920E+01 -6.58889E+01 -6.04020E+01 -5.58148E+01
  -5.16535E+01 -4.76231E+01 -4.35768E+01 -3.94084E+01 -3.51136E+01 -3.07897E+01 -2.64212E+01 -2.19666E+01 -1.75214E+01 -1.31015E+01
  -8.63786E+00 -4.03471E+00  6.28936E-01  5.37817E+00  1.01316E+01  1.48662E+01  1.94616E+01  2.38552E+01  2.80489E+01  3.22014E+01
   3.63467E+01  4.02371E+01  4.37227E+01  4.66345E+01  4.86978E+01  4.96631E+01  4.94862E+01  4.80888E+01  4.54731E+01  4.19445E+01
   3.76379E+01  3.25139E+01  2.66363E+01  2.01696E+01  1.32643E+01  6.05769E+00 -1.23516E+00 -8.30989E+00 -1.49609E+01 -2.10095E+01
  -2.65399E+01 -3.15762E+01 -3.61852E+01 -4.03999E+01 -4.41071E+01 -4.72655E+01 -4.99044E+01 -5.20989E+01 -5.36882E+01 -5.47672E+01
  -5.55754E+01 -5.61888E+01 -5.65579E+01 -5.67377E+01 -5.68005E+01 -5.68461E+01 -5.68350E+01 -5.67053E+01 -5.64723E+01 -5.62146E+01
  -5.59789E+01 -5.57372E+01 -5.54726E+01 -5.51079E+01 -5.47528E+01 -5.44456E+01 -5.41145E+01 -5.36909E+01 -5.32603E+01 -5.29098E+01
  -5.25240E+01 -5.21388E+01 -5.17524E+01 -5.13906E+01 -5.09909E+01 -5.05270E+01 -5.00511E+01 -4.96207E+01 -4.92165E+01 -4.88106E+01
  -4.84072E+01 -4.79592E+01 -4.74904E+01 -4.70502E+01 -4.66297E+01 -4.62104E+01 -4.57651E+01 -4.53397E+01 -4.48853E+01 -4.44834E+01
  -4.40785E+01 -4.36818E+01 -4.32435E+01 -4.27691E+01 -4.22783E+01 -4.17957E+01 -4.13080E+01 -4.08053E+01 -4.03639E+01 -3.99743E+01
  -3.95502E+01 -3.91011E+01 -3.86367E+01 -3.81983E+01 -3.77917E+01 -3.73664E+01 -3.68982E+01 -3.64855E+01 -3.60815E+01 -3.57003E+01
  -3.52932E+01 -3.48527E+01 -3.43627E+01 -3.38853E+01 -3.34237E+01 -3.29448E+01 -3.24775E+01 -3.20079E+01 -3.15271E+01 -3.09502E+01
 NY background values follow
    -3.915E+01   -3.934E+01   -3.954E+01   -3.973E+01   -3.992E+01   -4.011E+01   -4.030E+01   -4.049E+01   -4.068E+01   -4.087E+01
    -4.106E+01   -4.124E+01   -4.142E+01   -4.160E+01   -4.177E+01   -4.194E+01   -4.211E+01   -4.227E+01   -4.242E+01   -4.257E+01
    -4.272E+01   -4.286E+01   -4.299E+01   -4.311E+01   -4.323E+01   -4.334E+01   -4.344E+01   -4.353E+01   -4.361E+01   -4.369E+01
    -4.375E+01   -4.381E+01   -4.385E+01   -4.388E+01   -4.391E+01   -4.392E+01   -4.393E+01   -4.393E+01   -4.391E+01   -4.389E+01
    -4.386E+01   -4.382E+01   -4.377E+01   -4.371E+01   -4.364E+01   -4.357E+01   -4.348E+01   -4.339E+01   -4.329E+01   -4.318E+01
    -4.306E+01   -4.293E+01   -4.280E+01   -4.266E+01   -4.251E+01   -4.236E+01   -4.219E+01   -4.202E+01   -4.184E+01   -4.166E+01
    -4.146E+01   -4.126E+01   -4.106E+01   -4.084E+01   -4.063E+01   -4.040E+01   -4.017E+01   -3.993E+01   -3.969E+01   -3.944E+01
    -3.919E+01   -3.893E+01   -3.867E+01   -3.840E+01   -3.813E+01   -3.785E+01   -3.757E+01   -3.729E+01   -3.700E+01   -3.671E+01
    -3.641E+01   -3.611E+01   -3.581E+01   -3.551E+01   -3.521E+01   -3.490E+01   -3.459E+01   -3.428E+01   -3.396E+01   -3.365E+01
    -3.333E+01   -3.302E+01   -3.270E+01   -3.238E+01   -3.206E+01   -3.174E+01   -3.142E+01   -3.110E+01   -3.077E+01   -3.045E+01
    -3.013E+01   -2.980E+01   -2.948E+01   -2.915E+01   -2.882E+01   -2.850E+01   -2.817E+01   -2.785E+01   -2.752E+01   -2.719E+01
    -2.686E+01   -2.654E+01   -2.621E+01   -2.588E+01   -2.556E+01   -2.523E+01   -2.491E+01   -2.458E+01   -2.426E+01   -2.393E+01
    -2.361E+01   -2.328E+01   -2.296E+01   -2.264E+01   -2.232E+01   -2.200E+01   -2.168E+01   -2.136E+01   -2.105E+01   -2.073E+01
    -2.042E+01   -2.011E+01   -1.980E+01   -1.949E+01   -1.919E+01   -1.889E+01   -1.858E+01   -1.829E+01   -1.799E+01   -1.770E+01
    -1.741E+01   -1.712E+01   -1.683E+01   -1.655E+01   -1.627E+01   -1.600E+01   -1.573E+01   -1.546E+01   -1.519E+01   -1.493E+01
    -1.468E+01   -1.442E+01   -1.417E+01   -1.393E+01   -1.369E+01   -1.345E+01   -1.321E+01   -1.298E+01   -1.275E+01   -1.253E+01
    -1.231E+01   -1.209E+01   -1.188E+01   -1.167E+01   -1.146E+01   -1.126E+01   -1.106E+01   -1.087E+01   -1.067E+01   -1.048E+01
    -1.030E+01   -1.011E+01   -9.932E+00   -9.755E+00   -9.581E+00   -9.409E+00   -9.241E+00   -9.075E+00   -8.913E+00   -8.753E+00
    -8.596E+00   -8.442E+00   -8.290E+00   -8.141E+00   -7.995E+00   -7.852E+00   -7.712E+00   -7.574E+00   -7.439E+00   -7.306E+00
    -7.177E+00   -7.050E+00   -6.925E+00   -6.804E+00   -6.685E+00   -6.568E+00   -6.454E+00   -6.343E+00   -6.235E+00   -6.129E+00
    -6.026E+00   -5.925E+00   -5.827E+00   -5.732E+00   -5.639E+00   -5.548E+00   -5.461E+00   -5.375E+00   -5.293E+00   -5.212E+00
    -5.135E+00   -5.060E+00   -4.987E+00   -4.918E+00   -4.851E+00   -4.788E+00   -4.727E+00   -4.670E+00   -4.617E+00   -4.567E+00
    -4.521E+00   -4.478E+00   -4.440E+00   -4.406E+00   -4.376E+00   -4.350E+00   -4.329E+00   -4.312E+00   -4.300E+00   -4.293E+00
    -4.291E+00   -4.295E+00   -4.303E+00   -4.317E+00   -4.336E+00   -4.361E+00   -4.392E+00   -4.428E+00   -4.471E+00   -4.520E+00
    -4.575E+00   -4.636E+00   -4.704E+00   -4.777E+00   -4.856E+00   -4.941E+00   -5.031E+00   -5.126E+00   -5.227E+00   -5.332E+00
    -5.442E+00   -5.556E+00   -5.675E+00   -5.798E+00   -5.925E+00   -6.056E+00   -6.191E+00   -6.329E+00   -6.470E+00   -6.615E+00
    -6.762E+00   -6.913E+00   -7.066E+00   -7.221E+00   -7.379E+00   -7.539E+00   -7.701E+00   -7.865E+00   -8.030E+00   -8.197E+00
    -8.365E+00   -8.534E+00   -8.704E+00   -8.875E+00   -9.047E+00   -9.220E+00   -9.393E+00   -9.566E+00   -9.740E+00   -9.914E+00
    -1.009E+01   -1.026E+01   -1.044E+01   -1.061E+01   -1.078E+01   -1.096E+01   -1.113E+01   -1.130E+01   -1.147E+01   -1.164E+01
    -1.181E+01   -1.197E+01   -1.214E+01   -1.230E+01   -1.247E+01   -1.263E+01   -1.279E+01   -1.295E+01   -1.310E+01   -1.325E+01
    -1.340E+01   -1.355E+01   -1.370E+01   -1.384E+01   -1.399E+01   -1.413E+01   -1.427E+01   -1.441E+01   -1.455E+01   -1.469E+01
    -1.484E+01   -1.498E+01   -1.512E+01   -1.526E+01   -1.540E+01   -1.555E+01   -1.569E+01   -1.584E+01   -1.599E+01   -1.614E+01
    -1.630E+01   -1.646E+01   -1.662E+01   -1.678E+01   -1.695E+01   -1.712E+01   -1.730E+01   -1.748E+01   -1.766E+01   -1.785E+01
    -1.805E+01   -1.825E+01   -1.845E+01   -1.866E+01   -1.888E+01   -1.910E+01   -1.932E+01   -1.954E+01   -1.977E+01   -2.001E+01
    -2.024E+01   -2.048E+01   -2.073E+01   -2.097E+01   -2.122E+01   -2.147E+01   -2.172E+01   -2.198E+01   -2.223E+01   -2.249E+01
    -2.275E+01   -2.301E+01   -2.327E+01   -2.353E+01   -2.379E+01   -2.406E+01   -2.432E+01   -2.458E+01   -2.485E+01   -2.511E+01
    -2.537E+01   -2.563E+01   -2.589E+01   -2.615E+01   -2.641E+01   -2.666E+01   -2.692E+01   -2.717E+01   -2.742E+01   -2.767E+01
    -2.792E+01   -2.816E+01   -2.840E+01   -2.864E+01   -2.888E+01   -2.911E+01   -2.934E+01   -2.956E+01   -2.978E+01   -3.000E+01
    -3.022E+01   -3.043E+01   -3.063E+01   -3.083E+01   -3.103E+01   -3.122E+01   -3.141E+01   -3.159E+01   -3.176E+01   -3.193E+01
    -3.210E+01   -3.226E+01   -3.241E+01   -3.256E+01   -3.270E+01   -3.283E+01   -3.296E+01   -3.308E+01   -3.320E+01   -3.330E+01
    -3.341E+01   -3.350E+01   -3.359E+01   -3.367E+01   -3.375E+01   -3.382E+01   -3.388E+01   -3.393E+01   -3.398E+01   -3.402E+01
    -3.405E+01   -3.407E+01   -3.409E+01   -3.410E+01   -3.410E+01   -3.409E+01   -3.408E+01   -3.405E+01   -3.402E+01   -3.398E+01
    -3.394E+01   -3.388E+01   -3.382E+01   -3.374E+01   -3.367E+01   -3.358E+01   -3.349E+01   -3.339E+01   -3.328E+01   -3.317E+01
    -3.305E+01   -3.292E+01   -3.279E+01   -3.266E+01   -3.251E+01   -3.237E+01   -3.222E+01   -3.206E+01   -3.190E+01   -3.174E+01
    -3.157E+01   -3.140E+01   -3.122E+01   -3.104E+01   -3.086E+01   -3.068E+01   -3.049E+01   -3.030E+01   -3.011E+01   -2.992E+01
    -2.972E+01   -2.953E+01   -2.933E+01   -2.913E+01   -2.893E+01   -2.873E+01   -2.852E+01   -2.832E+01   -2.811E+01   -2.791E+01
    -2.770E+01   -2.749E+01   -2.728E+01   -2.707E+01   -2.686E+01   -2.665E+01   -2.644E+01   -2.623E+01   -2.602E+01   -2.580E+01
    -2.559E+01   -2.538E+01   -2.516E+01   -2.495E+01   -2.474E+01   -2.453E+01   -2.431E+01   -2.410E+01   -2.389E+01   -2.368E+01
 Mac      Conc. = 2.83E-04
  -6.00394E+01 -6.07918E+01 -6.16335E+01 -6.26104E+01 -6.37364E+01 -6.48502E+01 -6.56469E+01 -6.62321E+01 -6.68897E+01 -6.75927E+01
  -6.81348E+01 -6.85148E+01 -6.88602E+01 -6.91667E+01 -6.92897E+01 -6.90567E+01 -6.83084E+01 -6.72036E+01 -6.59418E+01 -6.45530E+01
  -6.30534E+01 -6.13942E+01 -5.97652E+01 -5.81589E+01 -5.64364E+01 -5.44698E+01 -5.23895E+01 -5.06211E+01 -4.91887E+01 -4.80204E+01
  -4.70105E+01 -4.59899E+01 -4.49089E+01 -4.38936E+01 -4.30152E+01 -4.21959E+01 -4.13338E+01 -4.04982E+01 -3.98189E+01 -3.92831E+01
  -3.88014E+01 -3.82879E+01 -3.77304E+01 -3.71908E+01 -3.67250E+01 -3.63244E+01 -3.60043E+01 -3.59082E+01 -3.59876E+01 -3.60106E+01
  -3.59702E+01 -3.59952E+01 -3.60779E+01 -3.62545E+01 -3.63703E+01 -3.63243E+01 -3.61307E+01 -3.59251E+01 -3.56217E+01 -3.50227E+01
  -3.42489E+01 -3.35244E+01 -3.29528E+01 -3.24634E+01 -3.18944E+01 -3.12964E+01 -3.07806E+01 -3.03661E+01 -2.98674E+01 -2.92817E+01
  -2.87030E+01 -2.80663E+01 -2.73652E+01 -2.66776E+01 -2.59285E+01 -2.52348E+01 -2.45528E+01 -2.39241E+01 -2.32513E+01 -2.26557E+01
  -2.22172E+01 -2.18671E+01 -2.14936E+01 -2.11739E+01 -2.08731E+01 -2.05847E+01 -2.02564E+01 -1.99244E+01 -1.95789E+01 -1.92629E+01
  -1.90988E+01 -1.90971E+01 -1.93011E+01 -1.98141E+01 -2.06776E+01 -2.19637E+01 -2.34335E+01 -2.48975E+01 -2.63690E+01 -2.80178E+01
  -2.98780E+01 -3.18826E+01 -3.40156E+01 -3.62506E+01 -3.85077E+01 -4.06922E+01 -4.26179E+01 -4.41583E+01 -4.53010E+01 -4.60609E+01
