 
 $NMID
 ID=''
 FMTDAT='(2E13.5)'
 TRAMP=   1.00000E+0
 VOLUME=   1.00000E+0
 $END
   4.31620E+5   7.25534E+5
   4.28832E+5   2.23671E+6
   6.45718E+5   2.09879E+6
   4.59315E+5   1.99672E+6
   4.52456E+5   2.12369E+6
   5.64568E+5   2.05467E+6
   4.92830E+5   1.98514E+6
   4.56688E+5   2.05863E+6
   4.92840E+5   2.02804E+6
   4.26635E+5   1.98962E+6
   3.89030E+5   2.02697E+6
   3.96567E+5   1.99701E+6
   3.49935E+5   1.96766E+6
   3.15378E+5   1.99082E+6
   2.97103E+5   1.96611E+6
   2.52841E+5   1.93924E+6
   2.31731E+5   1.95143E+6
   2.20696E+5   1.93429E+6
   1.90360E+5   1.91498E+6
   1.87531E+5   1.91358E+6
   1.79023E+5   1.89207E+6
   1.50125E+5   1.87888E+6
   1.37333E+5   1.87634E+6
   1.24102E+5   1.85632E+6
   9.39280E+4   1.84139E+6
   8.41176E+4   1.83283E+6
   6.28299E+4   1.81590E+6
   2.83169E+4   1.80386E+6
   7.32847E+3   1.79142E+6
  -6.80959E+3   1.77173E+6
  -3.02497E+4   1.76148E+6
  -4.20861E+4   1.74868E+6
  -5.50815E+4   1.72806E+6
  -6.91531E+4   1.71582E+6
  -7.50238E+4   1.70201E+6
  -7.92221E+4   1.68464E+6
  -8.83856E+4   1.67505E+6
  -9.74723E+4   1.66249E+6
  -1.10603E+5   1.64222E+6
  -1.24382E+5   1.62849E+6
  -1.36640E+5   1.61276E+6
  -1.51487E+5   1.59338E+6
  -1.64898E+5   1.57688E+6
  -1.76566E+5   1.56184E+6
  -1.92640E+5   1.54388E+6
  -2.08224E+5   1.52962E+6
  -2.21116E+5   1.51351E+6
  -2.35120E+5   1.49478E+6
  -2.45294E+5   1.47666E+6
  -2.52750E+5   1.46077E+6
  -2.62195E+5   1.44456E+6
  -2.72103E+5   1.42932E+6
  -2.79572E+5   1.41404E+6
  -2.89489E+5   1.39751E+6
  -3.00382E+5   1.38106E+6
  -3.10231E+5   1.36424E+6
  -3.22192E+5   1.34567E+6
  -3.33473E+5   1.32692E+6
  -3.41559E+5   1.30949E+6
  -3.50692E+5   1.29286E+6
  -3.62037E+5   1.27599E+6
  -3.71421E+5   1.25887E+6
  -3.79929E+5   1.24189E+6
  -3.89598E+5   1.22433E+6
  -3.97390E+5   1.20617E+6
  -4.03228E+5   1.18805E+6
  -4.09583E+5   1.17088E+6
  -4.16605E+5   1.15395E+6
  -4.23740E+5   1.13766E+6
  -4.32141E+5   1.12083E+6
  -4.40474E+5   1.10344E+6
  -4.46951E+5   1.08547E+6
  -4.53217E+5   1.06872E+6
  -4.60649E+5   1.05210E+6
  -4.67661E+5   1.03470E+6
  -4.73754E+5   1.01682E+6
  -4.79433E+5   1.00021E+6
  -4.84748E+5   9.84183E+5
  -4.90222E+5   9.67380E+5
  -4.96034E+5   9.49977E+5
  -5.00691E+5   9.32799E+5
  -5.04429E+5   9.16043E+5
  -5.09235E+5   8.99907E+5
  -5.14754E+5   8.82721E+5
  -5.19808E+5   8.64586E+5
  -5.23912E+5   8.47795E+5
  -5.28246E+5   8.31562E+5
  -5.32557E+5   8.15352E+5
  -5.36054E+5   7.98184E+5
  -5.38985E+5   7.82066E+5
  -5.41142E+5   7.65916E+5
  -5.43327E+5   7.50777E+5
  -5.45720E+5   7.35502E+5
  -5.46999E+5   7.20134E+5
  -5.47377E+5   7.04686E+5
  -5.47095E+5   6.90028E+5
  -5.47854E+5   6.76341E+5
  -5.48863E+5   6.62616E+5
  -5.49626E+5   6.48269E+5
  -5.49566E+5   6.33368E+5
  -5.49764E+5   6.19484E+5
  -5.50421E+5   6.05678E+5
  -5.51061E+5   5.90535E+5
  -5.50272E+5   5.75604E+5
  -5.49299E+5   5.62398E+5
  -5.48210E+5   5.49719E+5
  -5.48253E+5   5.36495E+5
  -5.47781E+5   5.22717E+5
  -5.45526E+5   5.08960E+5
  -5.42626E+5   4.96905E+5
  -5.41186E+5   4.85055E+5
  -5.40416E+5   4.72890E+5
  -5.39254E+5   4.59775E+5
  -5.37669E+5   4.47016E+5
  -5.35833E+5   4.35149E+5
  -5.34398E+5   4.22441E+5
  -5.32835E+5   4.09646E+5
  -5.30107E+5   3.97004E+5
  -5.26814E+5   3.85268E+5
  -5.23758E+5   3.74192E+5
  -5.21447E+5   3.63383E+5
  -5.19280E+5   3.52471E+5
  -5.16580E+5   3.41352E+5
  -5.14310E+5   3.30345E+5
  -5.11618E+5   3.19205E+5
  -5.07503E+5   3.08275E+5
  -5.04101E+5   2.97429E+5
  -5.00888E+5   2.86998E+5
  -4.98121E+5   2.76305E+5
  -4.95260E+5   2.65772E+5
  -4.92532E+5   2.54829E+5
  -4.89150E+5   2.43234E+5
  -4.84837E+5   2.32525E+5
  -4.81081E+5   2.22658E+5
  -4.77639E+5   2.13026E+5
  -4.73740E+5   2.02510E+5
  -4.69310E+5   1.93276E+5
  -4.65773E+5   1.84171E+5
  -4.61883E+5   1.74950E+5
  -4.57931E+5   1.65328E+5
  -4.53515E+5   1.55827E+5
  -4.48837E+5   1.47219E+5
  -4.43665E+5   1.38938E+5
  -4.39608E+5   1.30149E+5
  -4.35603E+5   1.21731E+5
  -4.30991E+5   1.13131E+5
  -4.25855E+5   1.04583E+5
  -4.20739E+5   9.61324E+4
  -4.15648E+5   8.83188E+4
  -4.10386E+5   8.05732E+4
  -4.05386E+5   7.30772E+4
  -4.00300E+5   6.59487E+4
  -3.95323E+5   5.92589E+4
  -3.90484E+5   5.23414E+4
  -3.85092E+5   4.53222E+4
  -3.79585E+5   3.87178E+4
  -3.74556E+5   3.29591E+4
  -3.69142E+5   2.67834E+4
  -3.64135E+5   2.07727E+4
  -3.58390E+5   1.50620E+4
  -3.53136E+5   9.03475E+3
  -3.47860E+5   3.62775E+3
  -3.42150E+5  -2.01677E+3
  -3.36573E+5  -7.54915E+3
  -3.31066E+5  -1.25226E+4
  -3.25487E+5  -1.71607E+4
  -3.20280E+5  -2.17513E+4
  -3.15118E+5  -2.67533E+4
  -3.09818E+5  -3.15879E+4
  -3.04319E+5  -3.58836E+4
  -2.98651E+5  -3.99141E+4
  -2.93429E+5  -4.39145E+4
  -2.88262E+5  -4.82827E+4
  -2.82791E+5  -5.22936E+4
  -2.77621E+5  -5.62500E+4
  -2.72162E+5  -5.97684E+4
  -2.67188E+5  -6.39514E+4
  -2.61618E+5  -6.76445E+4
  -2.56239E+5  -7.11772E+4
  -2.50582E+5  -7.42379E+4
  -2.45540E+5  -7.77644E+4
  -2.40788E+5  -8.11570E+4
  -2.35390E+5  -8.45002E+4
  -2.30239E+5  -8.75922E+4
  -2.24844E+5  -9.04842E+4
  -2.19949E+5  -9.32765E+4
  -2.14527E+5  -9.54849E+4
  -2.09384E+5  -9.79403E+4
  -2.04279E+5  -1.00632E+5
  -1.99746E+5  -1.02756E+5
  -1.95325E+5  -1.05212E+5
  -1.89938E+5  -1.08223E+5
  -1.84648E+5  -1.10630E+5
  -1.79579E+5  -1.12778E+5
  -1.74497E+5  -1.14681E+5
  -1.69971E+5  -1.16683E+5
  -1.64683E+5  -1.18866E+5
  -1.60086E+5  -1.20501E+5
  -1.55358E+5  -1.22334E+5
  -1.50256E+5  -1.24434E+5
  -1.45409E+5  -1.26397E+5
  -1.40371E+5  -1.27598E+5
  -1.35560E+5  -1.28780E+5
  -1.30966E+5  -1.30274E+5
  -1.26499E+5  -1.31386E+5
  -1.22006E+5  -1.32674E+5
  -1.17275E+5  -1.33981E+5
  -1.12675E+5  -1.35142E+5
  -1.07718E+5  -1.35798E+5
  -1.03758E+5  -1.36664E+5
  -9.91233E+4  -1.37457E+5
  -9.44213E+4  -1.38045E+5
  -9.03343E+4  -1.38464E+5
  -8.65080E+4  -1.39188E+5
  -8.19074E+4  -1.40117E+5
  -7.76777E+4  -1.40338E+5
  -7.35691E+4  -1.40567E+5
  -6.96268E+4  -1.40400E+5
  -6.59320E+4  -1.40700E+5
  -6.19087E+4  -1.40807E+5
  -5.81641E+4  -1.40672E+5
  -5.45875E+4  -1.40356E+5
  -5.09832E+4  -1.40324E+5
  -4.71268E+4  -1.40077E+5
  -4.36270E+4  -1.39848E+5
  -4.01826E+4  -1.39483E+5
  -3.67298E+4  -1.38871E+5
  -3.33781E+4  -1.38283E+5
  -3.03632E+4  -1.38009E+5
  -2.68780E+4  -1.37465E+5
  -2.35830E+4  -1.36688E+5
  -2.08146E+4  -1.35741E+5
  -1.77733E+4  -1.34971E+5
  -1.47542E+4  -1.34230E+5
  -1.21771E+4  -1.33677E+5
  -9.28179E+3  -1.32654E+5
  -6.90853E+3  -1.31882E+5
  -4.20429E+3  -1.30665E+5
  -1.54572E+3  -1.30004E+5
   7.68643E+2  -1.28932E+5
   3.05089E+3  -1.27744E+5
   5.28036E+3  -1.26776E+5
   7.85831E+3  -1.25766E+5
   1.00471E+4  -1.24679E+5
   1.25831E+4  -1.23189E+5
   1.44079E+4  -1.22304E+5
   1.67512E+4  -1.21137E+5
   1.86479E+4  -1.19762E+5
   2.04541E+4  -1.18480E+5
   2.26907E+4  -1.17228E+5
   2.44769E+4  -1.16015E+5
   2.63210E+4  -1.15046E+5
   2.83082E+4  -1.13664E+5
   3.00234E+4  -1.12218E+5
   3.17767E+4  -1.10701E+5
   3.31295E+4  -1.09227E+5
   3.50708E+4  -1.07984E+5
   3.65753E+4  -1.06678E+5
   3.83710E+4  -1.05409E+5
   3.98585E+4  -1.03987E+5
   4.14283E+4  -1.02526E+5
   4.30906E+4  -1.00815E+5
   4.44472E+4  -9.94180E+4
   4.58176E+4  -9.78091E+4
   4.72252E+4  -9.64830E+4
   4.81315E+4  -9.51290E+4
   4.99001E+4  -9.33654E+4
   5.10756E+4  -9.17219E+4
   5.23665E+4  -9.00279E+4
   5.32521E+4  -8.86187E+4
   5.44826E+4  -8.71900E+4
   5.55127E+4  -8.56823E+4
   5.62615E+4  -8.40744E+4
   5.74265E+4  -8.23883E+4
   5.85307E+4  -8.10390E+4
   5.97103E+4  -7.94608E+4
   6.04954E+4  -7.76764E+4
   6.13641E+4  -7.59992E+4
   6.18575E+4  -7.45084E+4
   6.27862E+4  -7.28512E+4
   6.34549E+4  -7.09428E+4
   6.43465E+4  -6.95104E+4
   6.49056E+4  -6.82150E+4
   6.57864E+4  -6.65583E+4
   6.62601E+4  -6.48228E+4
   6.65100E+4  -6.30716E+4
   6.69572E+4  -6.13989E+4
   6.73808E+4  -5.99932E+4
   6.78813E+4  -5.85127E+4
   6.81013E+4  -5.70139E+4
   6.85575E+4  -5.54098E+4
   6.89850E+4  -5.35615E+4
   6.93244E+4  -5.22457E+4
   6.93385E+4  -5.05833E+4
   6.99280E+4  -4.89762E+4
   6.99154E+4  -4.75768E+4
   7.00914E+4  -4.61093E+4
   7.02053E+4  -4.47598E+4
   7.04927E+4  -4.32332E+4
   7.02629E+4  -4.13533E+4
   7.02957E+4  -3.99130E+4
   7.04315E+4  -3.87063E+4
   7.05919E+4  -3.73474E+4
   7.09104E+4  -3.59203E+4
   7.05590E+4  -3.41267E+4
   7.05695E+4  -3.31887E+4
   7.03902E+4  -3.17680E+4
   7.01578E+4  -3.00271E+4
   7.04082E+4  -2.86967E+4
   6.99460E+4  -2.73306E+4
   7.00562E+4  -2.62803E+4
   6.97332E+4  -2.50482E+4
   6.96324E+4  -2.36647E+4
   6.93189E+4  -2.23844E+4
   6.92274E+4  -2.09514E+4
   6.87084E+4  -1.93393E+4
   6.84748E+4  -1.84801E+4
   6.83773E+4  -1.72539E+4
   6.79770E+4  -1.60357E+4
   6.75448E+4  -1.49239E+4
   6.74562E+4  -1.37905E+4
   6.70452E+4  -1.25342E+4
   6.66303E+4  -1.15285E+4
   6.63861E+4  -1.05097E+4
   6.58894E+4  -9.32703E+3
   6.53992E+4  -8.45435E+3
   6.50871E+4  -7.06951E+3
   6.47481E+4  -6.05041E+3
   6.42591E+4  -4.90709E+3
   6.37587E+4  -3.74077E+3
   6.32378E+4  -2.84702E+3
   6.28032E+4  -2.02607E+3
   6.22586E+4  -1.00496E+3
   6.18632E+4  -2.50375E+2
   6.15510E+4   7.52614E+2
   6.09043E+4   1.89011E+3
   6.04668E+4   2.59423E+3
   5.99904E+4   3.83423E+3
   5.91441E+4   4.37808E+3
   5.87671E+4   5.21664E+3
   5.79844E+4   6.06365E+3
   5.75632E+4   6.77990E+3
   5.71526E+4   7.80090E+3
   5.65110E+4   8.51895E+3
   5.60870E+4   9.26031E+3
   5.54242E+4   1.01512E+4
   5.47742E+4   1.08826E+4
   5.39348E+4   1.16080E+4
   5.34356E+4   1.21918E+4
   5.30014E+4   1.27566E+4
   5.24770E+4   1.34597E+4
   5.14080E+4   1.42305E+4
   5.08370E+4   1.48177E+4
   5.02728E+4   1.54750E+4
   4.97704E+4   1.58590E+4
   4.89983E+4   1.66238E+4
   4.83616E+4   1.69884E+4
   4.76398E+4   1.76314E+4
   4.69205E+4   1.79979E+4
   4.66460E+4   1.86415E+4
   4.58600E+4   1.92871E+4
   4.51438E+4   1.98150E+4
   4.43845E+4   2.01061E+4
   4.37811E+4   2.01977E+4
   4.34958E+4   2.06976E+4
   4.25785E+4   2.13762E+4
   4.20603E+4   2.15816E+4
