 LCModel (Version 6.3-1N) Copyright: S.W. Provencher.          Ref.: Magn. Reson. Med. 30:672-679 (1993).                
 Slice_N1@17_23  28-Feb-2025 11:38:51
 27 lines in following concentration table = NCONC+1
    Conc.  %SD /Cr+PCr  Metabolite                                         
 2.37E-04   6% 2.2E-04 Mac                                                 
    5.642  61%   5.236 Cr                                                  
    2.979 116%   2.764 PCr                                                 
    6.388  20%   5.929 Ins                                                 
   10.556  12%   9.796 NAA                                                 
    6.310  22%   5.856 Tau                                                 
    1.603 105%   1.488 PCho                                                
    0.519 302%   0.482 GPC                                                 
    8.999  15%   8.352 Glu                                                 
    6.466  19%   6.001 Gln                                                 
 7.55E-02 999% 7.0E-02 Ala                                                 
    0.000 999%   0.000 Asc                                                 
    2.881  48%   2.674 Asp                                                 
    2.870  27%   2.664 GABA                                                
    0.375 261%   0.348 Glc                                                 
    2.193  36%   2.036 GSH                                                 
    0.899 111%   0.835 Lac                                                 
    6.754  15%   6.268 NAAG                                                
    0.915 190%   0.849 PE                                                  
    2.122  22%   1.969 GPC+PCho                                            
   17.309   7%  16.064 NAA+NAAG                                            
   15.465  12%  14.353 Glu+Gln                                             
    8.620  12%   8.000 Cr+PCr                                              
   17.309   7%  16.064 NAA+NAAG                                            
    8.620  12%   8.000 Cr+PCr                                              
   15.465  12%  14.353 Glu+Gln                                             
   6 lines in following misc. output table
  FWHM = 0.049 ppm    S/N =   3                                            
  Data shift = 0.008 ppm                                                   
  Ph: -46 deg       0.0 deg/ppm                                            
  alphaB,S = 3.1E-01,   2.9E+01                                            
   19 spline knots.   Ns = 6(1)                                            
  (11) 4 infls.   ( 7) 1 extrs.                                            
  480 points on ppm-axis = NY
      4.100000     4.091866     4.083733     4.075600     4.067466     4.059333     4.051199     4.043066     4.034933     4.026799
      4.018666     4.010532     4.002399     3.994265     3.986132     3.977998     3.969864     3.961731     3.953597     3.945463
      3.937330     3.929196     3.921062     3.912929     3.904795     3.896662     3.888528     3.880394     3.872261     3.864127
      3.855993     3.847860     3.839726     3.831592     3.823459     3.815325     3.807191     3.799058     3.790924     3.782790
      3.774657     3.766523     3.758389     3.750256     3.742122     3.733989     3.725855     3.717721     3.709588     3.701454
      3.693320     3.685187     3.677053     3.668919     3.660786     3.652652     3.644518     3.636385     3.628251     3.620117
      3.611984     3.603850     3.595716     3.587583     3.579449     3.571316     3.563182     3.555048     3.546915     3.538781
      3.530647     3.522514     3.514380     3.506246     3.498113     3.489979     3.481845     3.473712     3.465578     3.457444
      3.449311     3.441177     3.433043     3.424910     3.416776     3.408643     3.400509     3.392375     3.384242     3.376108
      3.367974     3.359841     3.351707     3.343573     3.335440     3.327306     3.319172     3.311039     3.302905     3.294771
      3.286638     3.278504     3.270370     3.262237     3.254103     3.245970     3.237836     3.229702     3.221569     3.213435
      3.205301     3.197168     3.189034     3.180900     3.172767     3.164633     3.156499     3.148366     3.140232     3.132098
      3.123965     3.115831     3.107697     3.099564     3.091430     3.083297     3.075163     3.067029     3.058896     3.050762
      3.042628     3.034495     3.026361     3.018227     3.010094     3.001960     2.993826     2.985693     2.977559     2.969425
      2.961292     2.953158     2.945024     2.936891     2.928757     2.920624     2.912490     2.904356     2.896223     2.888089
      2.879955     2.871822     2.863688     2.855554     2.847421     2.839287     2.831153     2.823020     2.814886     2.806752
      2.798619     2.790485     2.782351     2.774218     2.766084     2.757951     2.749817     2.741683     2.733550     2.725416
      2.717282     2.709149     2.701015     2.692881     2.684748     2.676614     2.668480     2.660347     2.652213     2.644079
      2.635946     2.627812     2.619678     2.611545     2.603411     2.595278     2.587144     2.579010     2.570877     2.562743
      2.554609     2.546476     2.538342     2.530208     2.522075     2.513941     2.505807     2.497674     2.489540     2.481406
      2.473273     2.465139     2.457006     2.448872     2.440738     2.432605     2.424471     2.416337     2.408204     2.400070
      2.391936     2.383803     2.375669     2.367535     2.359402     2.351268     2.343134     2.335001     2.326867     2.318733
      2.310600     2.302466     2.294333     2.286199     2.278065     2.269932     2.261798     2.253664     2.245531     2.237397
      2.229263     2.221130     2.212996     2.204862     2.196729     2.188595     2.180461     2.172328     2.164194     2.156060
      2.147927     2.139793     2.131660     2.123526     2.115392     2.107259     2.099125     2.090991     2.082858     2.074724
      2.066590     2.058457     2.050323     2.042189     2.034056     2.025922     2.017788     2.009655     2.001521     1.993387
      1.985254     1.977120     1.968987     1.960853     1.952719     1.944586     1.936452     1.928318     1.920185     1.912051
      1.903917     1.895784     1.887650     1.879516     1.871383     1.863249     1.855115     1.846982     1.838848     1.830714
      1.822581     1.814447     1.806314     1.798180     1.790046     1.781913     1.773779     1.765645     1.757512     1.749378
      1.741244     1.733111     1.724977     1.716843     1.708710     1.700576     1.692442     1.684309     1.676175     1.668041
      1.659908     1.651774     1.643641     1.635507     1.627373     1.619240     1.611106     1.602972     1.594839     1.586705
      1.578571     1.570438     1.562304     1.554170     1.546037     1.537903     1.529769     1.521636     1.513502     1.505368
      1.497235     1.489101     1.480968     1.472834     1.464700     1.456567     1.448433     1.440299     1.432166     1.424032
      1.415898     1.407765     1.399631     1.391497     1.383364     1.375230     1.367096     1.358963     1.350829     1.342695
      1.334562     1.326428     1.318295     1.310161     1.302027     1.293894     1.285760     1.277626     1.269493     1.261359
      1.253225     1.245092     1.236958     1.228824     1.220691     1.212557     1.204423     1.196290     1.188156     1.180022
      1.171889     1.163755     1.155622     1.147488     1.139354     1.131221     1.123087     1.114953     1.106820     1.098686
      1.090552     1.082419     1.074285     1.066151     1.058018     1.049884     1.041750     1.033617     1.025483     1.017349
      1.009216     1.001082     0.992949     0.984815     0.976681     0.968548     0.960414     0.952280     0.944147     0.936013
      0.927879     0.919746     0.911612     0.903478     0.895345     0.887211     0.879077     0.870944     0.862810     0.854676
      0.846543     0.838409     0.830276     0.822142     0.814008     0.805875     0.797741     0.789607     0.781474     0.773340
      0.765206     0.757073     0.748939     0.740805     0.732672     0.724538     0.716404     0.708271     0.700137     0.692003
      0.683870     0.675736     0.667603     0.659469     0.651335     0.643202     0.635068     0.626934     0.618801     0.610667
      0.602533     0.594400     0.586266     0.578132     0.569999     0.561865     0.553731     0.545598     0.537464     0.529330
      0.521197     0.513063     0.504930     0.496796     0.488662     0.480529     0.472395     0.464261     0.456128     0.447994
      0.439861     0.431727     0.423593     0.415460     0.407326     0.399192     0.391059     0.382925     0.374792     0.366658
      0.358524     0.350391     0.342257     0.334124     0.325990     0.317856     0.309723     0.301589     0.293455     0.285322
      0.277188     0.269055     0.260921     0.252787     0.244654     0.236520     0.228386     0.220253     0.212119     0.203986
 NY phased data points follow
  -8.98867E+01 -9.54014E+01 -9.56476E+01 -9.82351E+01 -9.62210E+01 -9.34536E+01 -7.91116E+01 -9.53849E+01 -1.01588E+02 -9.83492E+01
  -1.05088E+02 -1.00255E+02 -1.00001E+02 -1.05486E+02 -1.11648E+02 -1.13706E+02 -1.26127E+02 -1.07008E+02 -1.15565E+02 -1.41414E+02
  -1.34131E+02 -1.19262E+02 -8.75313E+01 -8.15741E+01 -7.04808E+01 -5.43464E+01 -5.41783E+01 -6.92802E+01 -6.23107E+01 -5.46010E+01
  -6.32201E+01 -5.53704E+01 -7.22146E+01 -7.82746E+01 -7.78556E+01 -7.05989E+01 -7.09911E+01 -7.61843E+01 -1.02750E+02 -1.26141E+02
  -9.48651E+01 -9.93104E+01 -9.14880E+01 -7.20011E+01 -6.10647E+01 -3.91218E+01 -2.02145E+01 -1.88516E+01 -3.03051E+01 -2.11153E+01
  -3.28260E+01 -3.67242E+01 -4.52823E+01 -6.30233E+01 -6.52455E+01 -6.31024E+01 -6.41020E+01 -6.66331E+01 -5.43253E+01 -6.70488E+01
  -6.47271E+01 -3.90998E+01 -4.34486E+01 -5.43841E+01 -2.96388E+01 -2.36119E+01 -5.53830E+01 -5.68644E+01 -5.72406E+01 -6.28969E+01
  -6.56610E+01 -6.06053E+01 -3.91446E+01 -4.35728E+01 -3.71796E+01 -3.75345E+00 -1.47127E+01 -2.33860E+01 -1.17253E+01 -2.50581E+01
  -2.56222E+01 -3.21464E+01 -3.93332E+01 -4.00666E+01 -5.08349E+01 -4.50041E+01 -3.69490E+01 -2.59582E+01 -7.68569E+00 -4.12077E-01
  -3.65544E+00 -5.51683E+00  2.47994E+00  3.21580E+00  1.80124E+00  1.20008E+01  1.32842E+01  1.07284E+01 -8.15500E+00 -1.25762E+01
  -8.71122E+00 -3.12677E+01 -3.17571E+01 -5.39118E+01 -6.89635E+01 -6.30209E+01 -8.01752E+01 -8.74899E+01 -1.03614E+02 -1.14558E+02
  -1.35097E+02 -1.57322E+02 -1.23336E+02 -9.35207E+01 -1.10783E+02 -9.55890E+01 -6.62070E+01 -6.83156E+01 -5.43254E+01 -5.60997E+01
  -4.71873E+01 -2.67788E+01 -2.61199E+01 -1.35183E+01 -1.22431E+01  1.27472E+01  2.11280E+01  1.60853E+01  2.77972E+01  2.59601E+00
   1.52851E+00 -1.25713E+01 -4.62479E+01 -9.32073E+01 -1.38951E+02 -1.18286E+02 -1.15906E+02 -1.16178E+02 -1.15984E+02 -1.14129E+02
  -1.01356E+02 -1.05179E+02 -1.04009E+02 -9.89496E+01 -8.89346E+01 -9.78403E+01 -8.75455E+01 -9.88894E+01 -9.64043E+01 -8.34183E+01
  -1.00740E+02 -7.26005E+01 -7.76136E+01 -7.55517E+01 -7.22345E+01 -6.58903E+01 -6.17225E+01 -7.78766E+01 -6.30655E+01 -7.68819E+01
  -5.13931E+01 -5.68711E+01 -6.62171E+01 -5.25550E+01 -7.72063E+01 -4.85035E+01 -4.92390E+01 -5.41336E+01 -4.64385E+01 -4.01822E+01
  -2.06570E+01 -3.14226E+01 -2.49686E+01 -2.80032E+01 -4.14045E+01 -4.38007E+01 -4.84129E+01 -4.23358E+01 -4.72546E+01 -6.77830E+01
  -8.36606E+01 -9.97227E+01 -9.87552E+01 -9.95065E+01 -9.75014E+01 -7.66560E+01 -9.62237E+01 -8.85765E+01 -7.71176E+01 -7.91952E+01
  -5.93583E+01 -6.83788E+01 -4.11514E+01 -4.88885E+01 -6.17130E+01 -2.72071E+01 -3.64132E+01 -3.99177E+01 -3.12345E+01 -2.91317E+01
  -3.85533E+01 -2.70594E+01 -2.99664E+01 -3.49100E+01 -2.71700E+01 -5.77545E+01 -5.63936E+01 -6.49377E+01 -6.93282E+01 -6.32195E+01
  -7.12259E+01 -6.06965E+01 -5.67584E+01 -4.13176E+01 -3.16521E+01 -3.09930E+01 -3.02151E+01 -2.29090E+01 -2.80326E+01 -4.62053E+01
  -5.09778E+01 -5.03437E+01 -4.90496E+01 -5.87716E+01 -6.41041E+01 -4.70031E+01 -3.78770E+01 -6.24334E+01 -6.15431E+01 -6.57687E+01
  -6.72942E+01 -6.50904E+01 -9.07590E+01 -8.08426E+01 -8.44785E+01 -8.97209E+01 -1.01028E+02 -1.08197E+02 -1.05965E+02 -1.14708E+02
  -9.60913E+01 -9.18004E+01 -8.77099E+01 -8.06469E+01 -7.03949E+01 -7.24446E+01 -6.98089E+01 -6.72778E+01 -7.94995E+01 -7.45984E+01
  -1.00680E+02 -1.04561E+02 -9.04787E+01 -9.61930E+01 -6.94766E+01 -3.02507E+01 -1.21546E+01  8.31216E+00  5.52240E+01  1.08708E+02
   1.11482E+02  8.71751E+01  7.39393E+01  5.43353E+01  5.81325E+01  4.24498E+01  3.48974E+01  3.05879E+01  1.89605E+01  3.64684E+01
   1.57018E+01  1.30419E+01  2.55307E+01  2.78717E+01  2.39117E+01  2.66357E+01  4.07790E+01  3.45095E+01  4.09385E+01  3.05620E+01
   2.90324E+01  3.51148E+01  2.41186E+01  2.16220E+01  2.02731E+01  2.67075E+01  3.48787E+01  3.08602E+01  2.91201E+01  3.60873E+01
   2.21303E+01  1.95914E+01  2.89823E+01  3.77607E+01  4.92176E+01  4.09877E+01  4.82172E+01  6.68726E+01  8.20313E+01  9.05983E+01
   8.61193E+01  1.04522E+02  1.22320E+02  1.17717E+02  1.19271E+02  1.10092E+02  1.16109E+02  1.17858E+02  8.46109E+01  6.85967E+01
   5.85386E+01  3.95624E+01  1.80426E+01  8.17337E+00  5.22783E+00 -2.37771E+00 -1.22259E+01 -1.18182E+01 -1.66888E+01 -3.17011E+01
  -2.15031E+01 -1.99068E+01 -3.67016E+00  6.74038E+00 -3.80408E+00  9.43315E+00  1.32801E+01  1.85511E+01  2.25217E+01  1.96900E+01
   1.61819E+00 -1.76421E+01 -1.87306E+01 -2.46136E+01 -3.55843E+01 -4.57121E+01 -4.29612E+01 -5.30938E+01 -4.07747E+01 -2.26362E+01
  -2.81392E+01 -1.26673E+01 -2.59100E+01 -1.64084E+01 -1.18619E-01 -1.79085E+01 -6.76567E-01 -7.98599E+00 -9.58097E+00  2.39565E+00
  -1.37204E+01 -1.62487E+01 -1.89474E+01 -1.18504E+01 -1.42747E+01 -3.69573E+01 -4.36957E+01 -3.88010E+01 -4.31618E+01 -4.92810E+01
  -3.41781E+01 -3.30185E+01 -3.97482E+01 -3.30685E+01 -3.33444E+01 -2.07354E+01 -1.65676E+01 -1.67631E+01 -1.07571E+01 -1.83702E+01
  -3.31178E-01  9.21861E+00  8.26028E+00  1.67704E+01  1.59981E+01  1.59014E+01  1.97300E+01  2.40640E+01  7.99612E+00  2.49212E+01
   4.60028E+01  4.47720E+01  4.48058E+01  4.86559E+01  7.03079E+01  6.14031E+01  7.48348E+01  9.23242E+01  7.57701E+01  6.83235E+01
   6.77364E+01  5.15274E+01  4.20786E+01  4.69446E+01  1.83774E+01  9.21047E+00  8.55566E+00  1.18069E+01  7.36410E-01 -1.41131E+01
  -9.13019E+00 -2.82633E+01 -3.19328E+01 -3.46220E+01 -2.95439E+01 -4.64275E+01 -4.44825E+01 -3.84177E+01 -5.90903E+01 -4.34255E+01
  -5.24391E+01 -4.67559E+01 -4.63062E+01 -5.10180E+01 -4.62551E+01 -5.79294E+01 -5.26446E+01 -4.44318E+01 -3.73660E+01 -4.77215E+01
  -3.84674E+01 -3.72976E+01 -5.39587E+01 -4.03790E+01 -3.69086E+01 -4.49789E+01 -4.23902E+01 -4.35256E+01 -5.00784E+01 -4.69958E+01
  -4.34972E+01 -5.23579E+01 -6.19081E+01 -3.72426E+01 -3.22289E+01 -5.39815E+01 -4.09208E+01 -5.61027E+01 -5.90442E+01 -4.14552E+01
  -5.60903E+01 -3.47532E+01 -3.90773E+01 -4.56268E+01 -4.15914E+01 -5.08465E+01 -1.94937E+01 -5.04991E+01 -5.43614E+01 -3.48076E+01
  -5.09172E+01 -4.16724E+01 -4.83935E+01 -3.76893E+01 -3.54597E+01 -2.88429E+01 -4.35759E+01 -4.47353E+01 -2.28699E+01 -2.87024E+01
  -2.54583E+01 -4.56989E+01 -4.82673E+01 -4.15555E+01 -2.82760E+01 -4.12251E+01 -4.56765E+01 -3.16033E+01 -3.71810E+01 -3.63163E+01
  -4.00703E+01 -1.05536E+01 -3.35080E+01 -4.00476E+01 -2.79819E+01 -3.97058E+01 -3.17340E+01 -3.68716E+01 -2.28732E+01 -3.61465E+01
 NY points of the fit to the data follow
  -9.71001E+01 -9.87793E+01 -9.98024E+01 -9.91734E+01 -9.66617E+01 -9.27780E+01 -8.90512E+01 -8.75528E+01 -8.95746E+01 -9.37047E+01
  -9.76105E+01 -1.00575E+02 -1.03199E+02 -1.06036E+02 -1.09590E+02 -1.13340E+02 -1.18244E+02 -1.23051E+02 -1.25983E+02 -1.26382E+02
  -1.22750E+02 -1.13525E+02 -9.88664E+01 -8.12055E+01 -6.45994E+01 -5.32344E+01 -4.82702E+01 -4.66456E+01 -4.53668E+01 -4.38809E+01
  -4.39680E+01 -4.57117E+01 -4.82888E+01 -5.20577E+01 -5.77895E+01 -6.67809E+01 -7.67284E+01 -8.74396E+01 -9.71523E+01 -1.03576E+02
  -1.04393E+02 -9.82139E+01 -8.52677E+01 -6.88405E+01 -5.41783E+01 -4.41976E+01 -3.83374E+01 -3.53198E+01 -3.43745E+01 -3.57073E+01
  -3.84341E+01 -4.20874E+01 -4.67848E+01 -5.32346E+01 -5.89930E+01 -6.34786E+01 -6.71461E+01 -6.83587E+01 -6.74126E+01 -6.50899E+01
  -6.08730E+01 -5.45183E+01 -4.81942E+01 -4.43096E+01 -4.22143E+01 -4.14973E+01 -4.42277E+01 -5.01384E+01 -5.56979E+01 -5.90432E+01
  -5.91428E+01 -5.48306E+01 -4.80062E+01 -4.12987E+01 -3.49167E+01 -2.88788E+01 -2.40178E+01 -2.33043E+01 -2.56362E+01 -3.00808E+01
  -3.63509E+01 -4.35439E+01 -5.00112E+01 -5.39929E+01 -5.41518E+01 -5.01287E+01 -4.31768E+01 -3.53368E+01 -2.81005E+01 -2.24214E+01
  -1.76694E+01 -1.35977E+01 -9.46701E+00 -6.02810E+00 -2.90885E+00  4.22209E-01  2.86999E+00  3.63680E+00  3.14735E+00 -9.48824E-01
  -7.16063E+00 -1.47511E+01 -2.26707E+01 -3.24714E+01 -4.63167E+01 -5.98740E+01 -7.26100E+01 -8.57823E+01 -1.00110E+02 -1.15616E+02
  -1.28819E+02 -1.32001E+02 -1.21179E+02 -1.05073E+02 -9.27104E+01 -8.50313E+01 -7.72626E+01 -6.76025E+01 -5.84889E+01 -4.96551E+01
  -4.11583E+01 -3.31315E+01 -2.53773E+01 -1.74046E+01 -7.92831E+00  5.63643E+00  1.53045E+01  1.99135E+01  2.10639E+01  1.68255E+01
   3.78532E+00 -1.94954E+01 -5.22782E+01 -8.55808E+01 -1.05471E+02 -1.08688E+02 -1.06484E+02 -1.07914E+02 -1.11354E+02 -1.11017E+02
  -1.09151E+02 -1.07674E+02 -1.06391E+02 -1.04906E+02 -1.03270E+02 -1.01316E+02 -9.93269E+01 -9.72667E+01 -9.51570E+01 -9.29443E+01
  -9.06647E+01 -8.83274E+01 -8.59009E+01 -8.35934E+01 -8.13991E+01 -7.92786E+01 -7.74245E+01 -7.60993E+01 -7.49182E+01 -7.33758E+01
  -7.12419E+01 -6.92153E+01 -6.81366E+01 -6.78796E+01 -6.72597E+01 -6.49344E+01 -6.06222E+01 -5.60228E+01 -5.21155E+01 -4.80858E+01
  -4.34231E+01 -3.83570E+01 -3.50415E+01 -3.59656E+01 -3.98292E+01 -4.34049E+01 -4.50377E+01 -4.64888E+01 -5.07519E+01 -5.85453E+01
  -6.69323E+01 -7.28240E+01 -7.58111E+01 -7.73806E+01 -7.87568E+01 -7.92116E+01 -7.89124E+01 -7.79990E+01 -7.55100E+01 -7.14109E+01
  -6.66349E+01 -6.15695E+01 -5.60718E+01 -5.07311E+01 -4.57791E+01 -4.19339E+01 -4.01267E+01 -3.94482E+01 -3.83693E+01 -3.63957E+01
  -3.47419E+01 -3.35748E+01 -3.20102E+01 -3.02385E+01 -3.05034E+01 -3.42906E+01 -4.05409E+01 -4.70380E+01 -5.35645E+01 -5.89452E+01
  -6.10321E+01 -5.99656E+01 -5.46340E+01 -4.64912E+01 -3.73215E+01 -2.82263E+01 -2.09042E+01 -1.66811E+01 -1.56062E+01 -1.70006E+01
  -1.92295E+01 -2.13853E+01 -2.35177E+01 -2.63689E+01 -3.08472E+01 -3.85648E+01 -4.89529E+01 -6.06271E+01 -7.33021E+01 -8.55488E+01
  -9.55624E+01 -1.03592E+02 -1.08284E+02 -1.09596E+02 -1.08116E+02 -1.05235E+02 -1.00653E+02 -9.62206E+01 -9.20252E+01 -8.78701E+01
  -8.36187E+01 -7.86407E+01 -7.35849E+01 -6.91882E+01 -6.66043E+01 -6.82992E+01 -7.53381E+01 -8.45990E+01 -9.13083E+01 -9.75470E+01
  -1.04551E+02 -1.09479E+02 -1.02253E+02 -8.45720E+01 -6.00292E+01 -3.46958E+01 -1.21512E+01  1.43415E+01  4.97548E+01  8.16741E+01
   9.25659E+01  8.48667E+01  7.56985E+01  7.11943E+01  6.69586E+01  5.88218E+01  5.06267E+01  4.35465E+01  3.77058E+01  3.38872E+01
   3.21019E+01  3.22503E+01  3.39062E+01  3.65404E+01  3.95840E+01  4.23617E+01  4.45249E+01  4.56783E+01  4.58863E+01  4.53008E+01
   4.40993E+01  4.24888E+01  4.03121E+01  3.78469E+01  3.50976E+01  3.21288E+01  2.89721E+01  2.57324E+01  2.26243E+01  1.98869E+01
   1.76869E+01  1.61515E+01  1.54152E+01  1.54876E+01  1.62274E+01  1.74086E+01  1.88468E+01  2.04404E+01  2.21208E+01  2.38745E+01
   2.56508E+01  2.73708E+01  2.90502E+01  3.07005E+01  3.23574E+01  3.40263E+01  3.56346E+01  3.70558E+01  3.82596E+01  3.92070E+01
   3.98788E+01  4.02442E+01  4.02313E+01  3.97055E+01  3.86993E+01  3.72465E+01  3.53421E+01  3.29691E+01  3.01019E+01  2.65971E+01
   2.23685E+01  1.74127E+01  1.17805E+01  5.53406E+00 -1.07070E+00 -7.59495E+00 -1.34401E+01 -1.81161E+01 -2.14080E+01 -2.32639E+01
  -2.37313E+01 -2.29478E+01 -2.11917E+01 -1.88236E+01 -1.61562E+01 -1.35269E+01 -1.11572E+01 -8.92242E+00 -7.19945E+00 -5.95064E+00
  -5.30522E+00 -5.48653E+00 -6.40494E+00 -7.54014E+00 -8.48310E+00 -9.19543E+00 -9.90609E+00 -1.09927E+01 -1.28144E+01 -1.52197E+01
  -1.77460E+01 -1.98906E+01 -2.15142E+01 -2.23570E+01 -2.23305E+01 -2.15270E+01 -2.01221E+01 -1.82315E+01 -1.59888E+01 -1.35456E+01
  -1.10223E+01 -8.48479E+00 -6.00064E+00 -3.56553E+00 -1.15929E+00  1.23441E+00  3.69282E+00  6.28751E+00  8.98729E+00  1.18740E+01
   1.50752E+01  1.86355E+01  2.25934E+01  2.69931E+01  3.18356E+01  3.70621E+01  4.26672E+01  4.85225E+01  5.43168E+01  5.96844E+01
   6.41608E+01  6.72009E+01  6.82880E+01  6.71956E+01  6.39334E+01  5.88189E+01  5.24369E+01  4.55119E+01  3.86304E+01  3.20859E+01
   2.57930E+01  1.94540E+01  1.29511E+01  6.24511E+00 -5.96218E-01 -7.34077E+00 -1.36142E+01 -1.91272E+01 -2.37813E+01 -2.75493E+01
  -3.05308E+01 -3.29006E+01 -3.47982E+01 -3.62910E+01 -3.74576E+01 -3.84568E+01 -3.93043E+01 -3.99727E+01 -4.04319E+01 -4.07534E+01
  -4.09994E+01 -4.11717E+01 -4.13118E+01 -4.14229E+01 -4.15017E+01 -4.15691E+01 -4.16116E+01 -4.15975E+01 -4.15484E+01 -4.15587E+01
  -4.16039E+01 -4.16171E+01 -4.15556E+01 -4.14874E+01 -4.14600E+01 -4.14118E+01 -4.13319E+01 -4.12619E+01 -4.12787E+01 -4.13187E+01
  -4.13201E+01 -4.12526E+01 -4.11334E+01 -4.09776E+01 -4.08078E+01 -4.06782E+01 -4.05898E+01 -4.05431E+01 -4.05302E+01 -4.05371E+01
  -4.05632E+01 -4.05794E+01 -4.05963E+01 -4.05704E+01 -4.04856E+01 -4.03941E+01 -4.03405E+01 -4.02923E+01 -4.02325E+01 -4.01554E+01
  -4.00407E+01 -3.98933E+01 -3.97558E+01 -3.96572E+01 -3.96052E+01 -3.95675E+01 -3.95471E+01 -3.95632E+01 -3.95825E+01 -3.96005E+01
  -3.95858E+01 -3.95270E+01 -3.94135E+01 -3.92931E+01 -3.91919E+01 -3.91237E+01 -3.91364E+01 -3.92483E+01 -3.94012E+01 -3.95401E+01
  -3.96431E+01 -3.97188E+01 -3.97892E+01 -3.99082E+01 -3.99920E+01 -4.00303E+01 -4.00022E+01 -3.98967E+01 -3.96708E+01 -3.93155E+01
 NY background values follow
    -7.751E+01   -7.718E+01   -7.686E+01   -7.653E+01   -7.620E+01   -7.588E+01   -7.555E+01   -7.522E+01   -7.490E+01   -7.457E+01
    -7.424E+01   -7.392E+01   -7.359E+01   -7.326E+01   -7.294E+01   -7.261E+01   -7.228E+01   -7.196E+01   -7.163E+01   -7.130E+01
    -7.098E+01   -7.065E+01   -7.032E+01   -6.999E+01   -6.967E+01   -6.934E+01   -6.901E+01   -6.869E+01   -6.836E+01   -6.803E+01
    -6.771E+01   -6.738E+01   -6.705E+01   -6.673E+01   -6.640E+01   -6.607E+01   -6.575E+01   -6.542E+01   -6.509E+01   -6.477E+01
    -6.444E+01   -6.412E+01   -6.379E+01   -6.347E+01   -6.315E+01   -6.282E+01   -6.250E+01   -6.218E+01   -6.186E+01   -6.154E+01
    -6.122E+01   -6.090E+01   -6.058E+01   -6.026E+01   -5.994E+01   -5.963E+01   -5.931E+01   -5.900E+01   -5.869E+01   -5.837E+01
    -5.806E+01   -5.775E+01   -5.745E+01   -5.714E+01   -5.683E+01   -5.653E+01   -5.622E+01   -5.592E+01   -5.562E+01   -5.532E+01
    -5.502E+01   -5.472E+01   -5.443E+01   -5.413E+01   -5.384E+01   -5.354E+01   -5.325E+01   -5.296E+01   -5.267E+01   -5.239E+01
    -5.210E+01   -5.182E+01   -5.153E+01   -5.125E+01   -5.097E+01   -5.069E+01   -5.042E+01   -5.014E+01   -4.987E+01   -4.959E+01
    -4.932E+01   -4.905E+01   -4.879E+01   -4.852E+01   -4.825E+01   -4.799E+01   -4.773E+01   -4.747E+01   -4.721E+01   -4.695E+01
    -4.669E+01   -4.644E+01   -4.618E+01   -4.593E+01   -4.568E+01   -4.543E+01   -4.518E+01   -4.493E+01   -4.469E+01   -4.444E+01
    -4.420E+01   -4.396E+01   -4.372E+01   -4.348E+01   -4.324E+01   -4.300E+01   -4.277E+01   -4.253E+01   -4.230E+01   -4.206E+01
    -4.183E+01   -4.160E+01   -4.137E+01   -4.115E+01   -4.092E+01   -4.069E+01   -4.047E+01   -4.024E+01   -4.002E+01   -3.980E+01
    -3.958E+01   -3.936E+01   -3.914E+01   -3.893E+01   -3.871E+01   -3.850E+01   -3.829E+01   -3.808E+01   -3.787E+01   -3.766E+01
    -3.745E+01   -3.725E+01   -3.705E+01   -3.684E+01   -3.664E+01   -3.644E+01   -3.625E+01   -3.605E+01   -3.586E+01   -3.566E+01
    -3.547E+01   -3.528E+01   -3.510E+01   -3.491E+01   -3.472E+01   -3.454E+01   -3.436E+01   -3.418E+01   -3.400E+01   -3.382E+01
    -3.365E+01   -3.347E+01   -3.330E+01   -3.313E+01   -3.296E+01   -3.279E+01   -3.262E+01   -3.245E+01   -3.229E+01   -3.212E+01
    -3.196E+01   -3.180E+01   -3.164E+01   -3.148E+01   -3.132E+01   -3.117E+01   -3.101E+01   -3.085E+01   -3.070E+01   -3.055E+01
    -3.040E+01   -3.025E+01   -3.010E+01   -2.995E+01   -2.980E+01   -2.966E+01   -2.951E+01   -2.937E+01   -2.922E+01   -2.908E+01
    -2.894E+01   -2.880E+01   -2.866E+01   -2.852E+01   -2.838E+01   -2.824E+01   -2.811E+01   -2.797E+01   -2.784E+01   -2.770E+01
    -2.757E+01   -2.744E+01   -2.731E+01   -2.717E+01   -2.704E+01   -2.691E+01   -2.678E+01   -2.666E+01   -2.653E+01   -2.640E+01
    -2.627E+01   -2.615E+01   -2.602E+01   -2.590E+01   -2.577E+01   -2.565E+01   -2.553E+01   -2.541E+01   -2.529E+01   -2.517E+01
    -2.505E+01   -2.493E+01   -2.481E+01   -2.469E+01   -2.458E+01   -2.447E+01   -2.435E+01   -2.424E+01   -2.413E+01   -2.402E+01
    -2.391E+01   -2.380E+01   -2.370E+01   -2.359E+01   -2.349E+01   -2.339E+01   -2.329E+01   -2.319E+01   -2.309E+01   -2.299E+01
    -2.290E+01   -2.281E+01   -2.272E+01   -2.263E+01   -2.254E+01   -2.245E+01   -2.237E+01   -2.228E+01   -2.220E+01   -2.212E+01
    -2.204E+01   -2.197E+01   -2.189E+01   -2.182E+01   -2.175E+01   -2.168E+01   -2.161E+01   -2.155E+01   -2.148E+01   -2.142E+01
    -2.136E+01   -2.130E+01   -2.125E+01   -2.119E+01   -2.114E+01   -2.109E+01   -2.105E+01   -2.100E+01   -2.096E+01   -2.092E+01
    -2.088E+01   -2.084E+01   -2.081E+01   -2.078E+01   -2.075E+01   -2.072E+01   -2.070E+01   -2.068E+01   -2.066E+01   -2.064E+01
    -2.063E+01   -2.062E+01   -2.061E+01   -2.060E+01   -2.060E+01   -2.060E+01   -2.061E+01   -2.062E+01   -2.063E+01   -2.064E+01
    -2.066E+01   -2.068E+01   -2.071E+01   -2.073E+01   -2.077E+01   -2.080E+01   -2.084E+01   -2.089E+01   -2.093E+01   -2.098E+01
    -2.104E+01   -2.110E+01   -2.116E+01   -2.123E+01   -2.130E+01   -2.137E+01   -2.145E+01   -2.153E+01   -2.162E+01   -2.171E+01
    -2.180E+01   -2.189E+01   -2.199E+01   -2.208E+01   -2.219E+01   -2.229E+01   -2.239E+01   -2.250E+01   -2.261E+01   -2.273E+01
    -2.284E+01   -2.296E+01   -2.307E+01   -2.319E+01   -2.331E+01   -2.344E+01   -2.356E+01   -2.369E+01   -2.381E+01   -2.394E+01
    -2.406E+01   -2.419E+01   -2.432E+01   -2.445E+01   -2.458E+01   -2.471E+01   -2.484E+01   -2.497E+01   -2.510E+01   -2.523E+01
    -2.536E+01   -2.549E+01   -2.562E+01   -2.575E+01   -2.588E+01   -2.601E+01   -2.614E+01   -2.627E+01   -2.640E+01   -2.652E+01
    -2.665E+01   -2.677E+01   -2.690E+01   -2.702E+01   -2.714E+01   -2.726E+01   -2.738E+01   -2.750E+01   -2.761E+01   -2.773E+01
    -2.784E+01   -2.795E+01   -2.806E+01   -2.817E+01   -2.827E+01   -2.838E+01   -2.848E+01   -2.858E+01   -2.868E+01   -2.878E+01
    -2.888E+01   -2.897E+01   -2.907E+01   -2.916E+01   -2.925E+01   -2.934E+01   -2.943E+01   -2.952E+01   -2.961E+01   -2.970E+01
    -2.978E+01   -2.986E+01   -2.995E+01   -3.003E+01   -3.011E+01   -3.019E+01   -3.027E+01   -3.035E+01   -3.043E+01   -3.050E+01
    -3.058E+01   -3.066E+01   -3.073E+01   -3.081E+01   -3.088E+01   -3.095E+01   -3.102E+01   -3.109E+01   -3.117E+01   -3.123E+01
    -3.130E+01   -3.137E+01   -3.144E+01   -3.151E+01   -3.157E+01   -3.164E+01   -3.170E+01   -3.177E+01   -3.183E+01   -3.189E+01
    -3.195E+01   -3.201E+01   -3.207E+01   -3.213E+01   -3.219E+01   -3.225E+01   -3.230E+01   -3.236E+01   -3.241E+01   -3.247E+01
    -3.252E+01   -3.257E+01   -3.263E+01   -3.268E+01   -3.273E+01   -3.278E+01   -3.282E+01   -3.287E+01   -3.292E+01   -3.297E+01
    -3.301E+01   -3.306E+01   -3.310E+01   -3.314E+01   -3.318E+01   -3.323E+01   -3.327E+01   -3.331E+01   -3.335E+01   -3.339E+01
    -3.343E+01   -3.346E+01   -3.350E+01   -3.354E+01   -3.357E+01   -3.361E+01   -3.364E+01   -3.368E+01   -3.371E+01   -3.374E+01
    -3.377E+01   -3.381E+01   -3.384E+01   -3.387E+01   -3.390E+01   -3.393E+01   -3.396E+01   -3.398E+01   -3.401E+01   -3.404E+01
    -3.407E+01   -3.409E+01   -3.412E+01   -3.415E+01   -3.417E+01   -3.420E+01   -3.423E+01   -3.425E+01   -3.428E+01   -3.430E+01
    -3.433E+01   -3.435E+01   -3.438E+01   -3.440E+01   -3.443E+01   -3.445E+01   -3.448E+01   -3.450E+01   -3.453E+01   -3.455E+01
 Mac      Conc. = 2.37E-04
  -9.56824E+01 -9.61814E+01 -9.68434E+01 -9.76238E+01 -9.83710E+01 -9.90030E+01 -9.94939E+01 -9.98993E+01 -1.00284E+02 -1.00537E+02
  -1.00604E+02 -1.00484E+02 -9.99775E+01 -9.88342E+01 -9.69196E+01 -9.42645E+01 -9.12313E+01 -8.83728E+01 -8.59738E+01 -8.38773E+01
  -8.19324E+01 -8.01589E+01 -7.85291E+01 -7.68635E+01 -7.51004E+01 -7.34298E+01 -7.19728E+01 -7.07664E+01 -6.97947E+01 -6.89381E+01
  -6.80872E+01 -6.71884E+01 -6.62461E+01 -6.51564E+01 -6.38697E+01 -6.24719E+01 -6.11588E+01 -6.01427E+01 -5.93574E+01 -5.85963E+01
  -5.77020E+01 -5.68329E+01 -5.62335E+01 -5.60146E+01 -5.61600E+01 -5.65150E+01 -5.69534E+01 -5.73950E+01 -5.77473E+01 -5.78788E+01
  -5.77725E+01 -5.74596E+01 -5.68825E+01 -5.60401E+01 -5.49820E+01 -5.38021E+01 -5.27249E+01 -5.18539E+01 -5.12119E+01 -5.07770E+01
  -5.06361E+01 -5.07349E+01 -5.08327E+01 -5.06958E+01 -5.02648E+01 -4.95494E+01 -4.85435E+01 -4.72904E+01 -4.58407E+01 -4.43755E+01
  -4.32076E+01 -4.24713E+01 -4.21011E+01 -4.19507E+01 -4.19439E+01 -4.19804E+01 -4.19867E+01 -4.18387E+01 -4.15405E+01 -4.10682E+01
  -4.04362E+01 -3.96496E+01 -3.87702E+01 -3.79027E+01 -3.71095E+01 -3.63638E+01 -3.57229E+01 -3.52467E+01 -3.49803E+01 -3.49891E+01
  -3.53503E+01 -3.60339E+01 -3.70252E+01 -3.82920E+01 -3.97436E+01 -4.12687E+01 -4.28872E+01 -4.46965E+01 -4.69234E+01 -4.96751E+01
  -5.29137E+01 -5.64616E+01 -6.00013E+01 -6.32394E+01 -6.57725E+01 -6.72220E+01 -6.73966E+01 -6.65133E+01 -6.49546E+01 -6.30469E+01
