 
 $NMID
 ID=''
 FMTDAT='(2E13.5)'
 TRAMP=   1.00000E+0
 VOLUME=   1.00000E+0
 $END
  -9.35127E+3   1.15746E+4
  -3.14274E+3   3.05551E+4
   3.28313E+4   1.35965E+4
   2.33249E+4  -2.38353E+4
  -2.03142E+4  -2.49272E+4
  -2.82239E+4   6.97617E+3
   1.82780E+3   2.48807E+4
   2.18119E+4   8.75804E+3
   1.30870E+4  -1.52230E+4
  -9.90047E+3  -1.46118E+4
  -1.84744E+4   6.36732E+3
  -3.06789E+3   1.46783E+4
   1.22237E+4   3.75100E+3
   7.07297E+3  -6.99103E+3
  -6.32118E+3  -8.10950E+3
  -8.68035E+3  -1.56007E+3
  -4.21778E+2   6.76374E+3
   5.72803E+3   5.94078E+3
   3.04914E+3  -2.63442E+3
  -2.16979E+3  -5.49435E+3
  -3.31246E+3  -8.87711E+2
  -7.97515E+2   3.14165E+3
   1.59112E+3   3.33847E+3
   1.22879E+3  -4.40761E+2
  -1.51028E+2  -3.70296E+3
  -2.68349E+2  -6.98094E+2
  -7.28432E+2   2.97245E+3
  -1.31866E+3   1.36651E+3
   6.37171E+2  -1.10262E+3
   1.72913E+3   4.18547E+1
  -8.92558E+2   7.85135E+2
  -1.80293E+3  -4.53165E+2
  -2.29359E+2  -8.99848E+2
   2.61279E+2  -3.07146E+2
   2.43972E+2  -1.11834E+3
   1.36830E+3  -1.50800E+3
   1.02693E+3   5.75945E+2
  -6.80924E+2   1.29388E+3
  -7.93383E+2  -9.87838E+1
   2.09243E+2  -4.76033E+2
  -3.23541E+2  -3.53783E+1
  -4.62198E+2  -1.07700E+3
   4.05582E+2  -1.04939E+3
   1.03598E+3  -8.71326E+1
   5.57269E+2   6.26477E+2
   3.34966E+2   8.41790E+2
  -1.03989E+3   8.78637E+2
  -1.45709E+3  -2.11733E+2
  -1.10919E+3  -1.49499E+3
   3.89052E+2  -1.17125E+3
   7.11582E+2  -4.63282E+2
   1.81555E+2  -5.94696E+2
   4.57531E+2  -4.50479E+2
   3.49937E+2   5.38593E+2
  -2.44357E+2   8.32317E+2
  -3.59731E+2  -9.55643E+1
  -5.83632E+2  -6.78781E+2
  -2.57302E+2  -8.94072E+2
   4.24685E+2  -8.62062E+2
   5.72471E+2  -2.27454E+2
   4.65914E+2   5.83304E+2
   3.41577E+2   1.00660E+3
  -5.08242E+2   1.13730E+3
  -1.32235E+3   3.34764E+2
  -1.26242E+3  -8.78999E+2
  -5.17108E+2  -7.74792E+2
   2.92767E+2  -7.11315E+2
   7.06130E+2  -7.74283E+2
   1.01158E+3  -7.48050E+1
   2.83488E+2   9.47828E+2
  -4.05945E+2   3.11802E+2
   2.67050E+2  -5.37138E+2
   8.85703E+2   2.36888E+2
  -1.17326E+2   1.03302E+3
  -7.47584E+2   3.94378E+2
  -1.78826E+2  -8.01856E+1
   6.90525E+2   3.13514E+2
  -2.73866E+1   7.33609E+2
  -2.64718E+2   2.81085E+2
  -3.93683E+2  -2.14819E+2
  -1.79033E+2  -1.80039E+2
   1.96214E+1  -9.45582E+1
   2.29414E+2   2.51355E+1
   2.88410E+2  -1.51655E+2
   4.12690E+1  -2.01665E+2
   5.66544E+2   6.43390E+1
   6.34868E+2   4.03657E+2
   2.21510E+2   5.32731E+2
   1.13440E+2   4.02024E+2
   6.88312E+1   3.25400E+2
   4.24671E+2   4.68550E+2
   2.47854E+2   7.81537E+2
  -2.69157E+2   2.48044E+2
  -4.17084E+2  -4.34096E+1
   1.11790E+2  -4.30101E+2
   7.80316E+2  -3.05522E+2
   7.61638E+2   1.18155E+2
   2.10434E+2   5.53454E+2
   1.20429E+2  -2.28510E+2
   9.65734E+2  -2.81326E+2
   7.94376E+2   6.04316E+2
  -1.27141E+2   9.34791E+2
  -5.58667E+2   8.42023E+1
   2.43984E+2  -5.40418E+2
   7.15350E+2  -1.32952E+2
   3.70127E+2   6.72339E+2
  -4.99259E+2   3.67571E+2
  -5.31024E+2  -5.11064E+2
  -7.30836E+1  -8.68844E+2
   1.04935E+3  -6.12993E+2
   9.43484E+2   1.43060E+2
   4.63309E+2   4.48909E+2
  -2.11025E+0   3.67276E+2
  -3.02411E+2   3.21860E+2
  -1.96063E+1   3.33915E+2
  -1.83478E+2  -3.78902E+1
  -5.32023E+2  -2.12883E+2
  -4.92847E+2  -6.35959E+2
   3.38834E+2  -6.13691E+2
   8.18147E+2   1.40821E+1
   7.43830E+2   2.17408E+2
   2.60893E+2   4.49614E+2
  -2.81191E+2   4.72040E+2
  -1.50233E+2   4.19766E+2
  -2.91571E+2   5.61266E+1
  -2.92670E+2  -1.22268E+2
   2.79258E+2  -3.85739E+2
   5.35343E+2  -2.79744E+2
   2.08697E+2   1.98993E+2
  -5.27081E+1   5.32690E+2
  -3.64785E+2   2.51485E+2
  -2.84102E+2  -2.08718E+2
  -1.35683E+2  -3.27527E+2
   1.10073E+2   4.45227E+0
   9.97213E+1  -8.40069E+0
   2.11711E+2   3.96465E+0
   2.85838E+2  -5.00752E+1
   2.60347E+2   3.51603E+2
  -6.15812E+1   6.26100E+2
  -2.80989E+2   2.30599E+2
  -6.27325E+2  -1.14103E+2
   2.51359E+2  -2.24161E+2
   3.76888E+2   1.05838E+2
   1.97286E+2   4.25832E+2
  -1.55113E+2   4.71123E+2
  -1.85369E+2   8.61776E+1
  -2.81627E+1  -1.24628E+2
  -2.19627E+2  -4.86545E+1
  -2.36548E+2  -8.01824E+1
   1.26123E+2   2.21433E+1
   4.79948E+2  -5.05205E+1
   5.45394E+2   2.95852E+1
   3.67474E+2   3.69307E+2
  -7.73033E+1   5.84037E+2
  -5.03540E+1   2.52797E+1
   1.03326E+2  -1.06342E+2
  -2.04191E+2  -2.83304E+1
  -1.75286E+2   1.79762E+2
  -3.32656E+2   1.59271E+2
  -2.48922E+2  -1.45159E+2
   7.81984E+1   2.36918E+2
  -3.01736E+1   1.12258E+2
  -2.56486E+2  -9.22099E+1
   4.24695E+1  -1.80764E+2
   2.43737E+2  -6.53757E+1
   2.75831E+2   1.32353E+2
   7.77145E+1   7.45085E+1
  -7.37466E+1  -8.25591E+1
   5.59139E+1   3.62694E+1
   9.29083E+1   1.27495E+1
   2.51990E+2   2.24720E+1
  -1.45252E+1   2.11099E+2
  -1.89420E+2  -9.26671E+1
  -4.67884E+1   6.57246E+1
   1.48543E+2  -2.10651E+1
   7.30257E+1   2.33134E+2
  -1.89563E+2  -2.67207E+0
  -2.56457E+2  -1.31336E+2
   1.92393E+2  -4.48055E+2
   3.87549E+2   1.52943E-1
  -1.02039E+2   3.25303E+2
  -1.66884E+2  -7.84974E+1
  -1.70296E+2  -1.46060E+2
  -1.54490E+2  -1.37622E+2
   4.75505E+1  -1.75646E+2
   1.84334E+2  -2.45452E+2
   2.71723E+2  -2.74025E+2
   3.48681E+2   1.57697E+2
   2.79686E+2   2.85591E+2
   6.50760E+1   3.87967E+2
  -2.32948E+2   2.99220E+2
  -3.39090E+2  -1.73557E+2
  -1.62948E+2  -2.71079E+2
   6.11383E+1  -2.37378E+2
   1.23908E+2  -2.28841E+2
   8.86127E+1   4.05724E+1
   3.56505E+1  -1.29736E+2
  -5.92927E+1  -1.37451E+1
  -1.50913E+2   5.04886E+1
  -3.49261E+1   1.12526E+2
  -1.29950E+2  -1.91892E+2
  -5.04344E+1  -2.24927E+2
   2.89064E+2  -1.00109E+2
   1.65471E+2   1.47157E+2
   9.12861E+0  -6.15938E+1
   7.59215E+1  -2.04417E+0
   1.06754E+2  -2.02888E+2
   1.80736E+1  -6.87630E+1
  -7.32670E+0  -1.67156E+2
  -2.37009E+1  -1.63651E+2
  -9.34439E+1  -3.68067E+2
   2.40899E+2  -1.20132E+2
   7.26041E+1   5.00786E+1
  -3.62626E+2   2.76394E+2
  -4.91617E+2  -7.93545E+1
  -7.67123E+1  -3.83757E+2
   6.72871E+0  -1.78517E+2
   1.74346E+2  -1.42367E+2
   2.26054E+2  -1.55987E+1
  -9.92920E+1  -1.18145E+2
   6.88193E+1  -6.02823E+1
  -1.95927E+1   1.53568E+1
  -1.61893E+2   2.13461E+2
  -1.10834E+2  -2.79289E+2
  -4.76983E+1  -5.99696E+2
  -9.67632E+1  -3.33336E+2
  -1.52881E+2  -2.06312E+2
  -4.61364E+1   7.55584E+1
  -1.15819E+2  -1.13810E+2
   3.64739E+1  -1.72147E+2
   1.12474E+2  -5.83166E+1
   1.14292E+2  -2.90353E+2
  -1.17652E+2  -2.09695E+1
  -2.39613E+2  -3.00068E+2
  -1.25412E+1  -1.30669E+2
  -1.79486E+2  -1.94313E+2
  -7.09187E+1  -1.75757E+1
  -1.87066E+2  -6.06251E+1
  -8.58483E+1  -1.09588E+2
   1.37807E+2  -8.94237E+1
   1.25823E+2  -2.14733E+2
  -3.73173E+1   2.23898E+2
   1.00413E+2  -9.31440E+1
   1.45767E+1  -4.97560E+1
   2.57770E+2  -5.53269E+1
   8.48088E+1   2.89137E+1
   1.97205E+1  -4.98917E+1
  -5.43363E+1  -8.27785E+1
   1.56790E+2   8.65411E+1
  -1.35679E+2   8.41163E+0
  -6.77706E+1   4.81960E+1
  -4.22868E+1  -8.74097E+1
  -7.54762E+1  -3.29215E+2
   1.33410E+1  -2.21997E+2
  -1.43499E+1   2.57194E+1
   2.37568E+1   3.22826E+2
  -6.34262E+1  -2.87192E+0
  -6.72178E+1  -5.47746E+1
   4.50747E-2  -1.25687E+2
  -2.32522E+2  -1.50570E+2
  -2.21652E+2  -4.55214E+1
  -1.03070E+2  -2.97533E+2
   1.63407E+2  -1.83360E+2
   2.83517E+2   8.98985E+1
   3.14102E+2   7.80191E+1
  -1.11893E+2  -5.07820E+1
  -8.32834E+1  -1.44344E+2
  -1.92921E+2  -2.24082E+2
   6.32397E+1  -3.02634E+2
   1.29118E+2  -7.25778E+1
  -7.71072E-1   1.26862E+2
   6.50124E+1  -2.03684E+2
  -1.67414E+2   1.50911E+2
   1.15107E+1  -3.73558E+1
   6.69950E+1   3.15021E+1
  -7.67603E+1  -6.95673E+1
   7.30633E+1  -3.38045E+2
  -1.49321E+1   3.19231E+1
  -9.21965E+0  -2.11753E+2
   1.32604E+2   2.19200E+2
  -1.63049E+2  -6.25250E+1
  -7.41296E+1   5.56311E+0
   1.14189E+2   6.71521E+1
  -3.31463E+1   6.56519E+1
  -1.63746E+2  -6.59577E+1
   2.16728E+1  -2.86576E+2
   1.67895E+2  -2.09770E+2
   3.56753E+2   9.38262E+1
  -1.52972E+2   1.89904E+2
  -7.92122E+1   1.18269E+1
  -1.31096E+2  -4.82307E+1
   1.17608E+2   6.23231E+0
   9.18387E+1  -1.17536E+2
   3.30072E+1  -9.44379E+1
   1.00282E+2  -8.45269E+1
   7.84640E+1  -1.31116E+2
   4.19029E+1  -1.77257E+1
   4.07437E+1   1.10699E+2
   7.91294E+0   1.47420E+2
   1.84116E+2  -9.52918E+1
   1.47507E+2  -1.95104E+2
  -2.20766E+2  -1.91736E+2
  -2.55559E+2   1.69821E+1
  -1.49494E+2  -6.61676E+1
  -2.75270E+2  -3.31528E+1
   3.13702E+2  -3.16584E+2
   1.83783E+2   1.10163E+2
  -8.12288E+0   2.38588E+1
  -1.09897E+2   1.77905E+2
   1.00412E+2  -8.30297E+1
   2.08130E+2   6.69958E-1
   4.85599E+1  -1.16822E+1
  -1.28773E+2  -8.25296E+1
  -4.71009E+1  -1.84424E+2
   1.66820E+1  -4.69557E+2
  -9.83211E+1   9.42135E+1
  -2.63590E+1  -1.59424E+2
  -1.53689E+2  -1.14935E+1
  -1.02772E+2  -9.98486E+1
  -5.78928E+1  -7.79031E+1
  -1.19859E+2  -9.30276E+1
   6.38770E+1   2.57057E+2
  -2.31655E+2   4.86876E+1
  -2.19333E+1  -6.22441E+0
  -1.27135E+2   1.73965E+2
   1.22744E+2   2.58705E+2
  -2.75033E+2   2.59623E+2
  -2.75691E+2  -1.87921E+1
  -8.47463E+1  -2.98185E+2
   1.09813E+2  -8.75801E+1
   2.97274E+2  -5.46426E+1
  -2.37321E+2  -1.27746E+2
   6.36256E+1  -8.32554E+1
  -1.61790E+2   7.29081E+1
   1.38031E+1  -4.30921E+1
   1.23732E+2   1.31617E+1
  -2.10088E+2  -1.02406E+2
  -4.32593E+1  -1.15388E+2
  -6.75945E+1  -1.16966E+2
   1.40396E+2   9.50591E+1
   1.84033E+2   4.87179E+1
  -8.45839E+1   3.75180E+1
  -3.25708E+2  -7.37259E+1
   6.89564E+1  -7.49257E+1
   4.19017E+0  -5.86489E+1
  -2.15948E+2  -5.78053E+0
  -1.17969E+2  -1.01698E+2
   3.94241E+2   8.07875E+1
  -5.82822E+0  -9.01583E+0
   2.03004E+2  -2.08902E+2
  -1.65413E+2  -9.72427E+1
   1.79049E+2  -2.27633E+1
  -9.29844E+1  -2.98071E+1
  -1.37883E+1  -6.53910E+1
   6.00400E+1   3.79743E+1
   5.61687E+1   9.27337E+1
   1.08806E+2   8.82894E+1
  -7.33811E+1   5.00954E+1
   4.03946E+1   1.59676E+2
  -5.03143E+1   2.96035E+2
  -1.58434E+2   1.12921E+0
   2.40567E+2   4.42984E-1
   2.02452E+2   2.04265E+1
  -7.51622E+0   3.08159E+2
  -7.39058E+1   7.89389E+1
  -1.40547E+2   1.31304E+2
   8.59072E+1  -5.48331E+1
