 
 $NMID
 ID=''
 FMTDAT='(2E13.5)'
 TRAMP=   1.00000E+0
 VOLUME=   1.00000E+0
 $END
  -4.94923E+4   7.53834E+5
  -8.20086E+5   1.78133E+6
  -6.35713E+5   1.78617E+6
  -7.61180E+5   1.65828E+6
  -8.49299E+5   1.73622E+6
  -7.85608E+5   1.67349E+6
  -8.61706E+5   1.54806E+6
  -9.54201E+5   1.58576E+6
  -9.18553E+5   1.58546E+6
  -9.37083E+5   1.51162E+6
  -9.81258E+5   1.48524E+6
  -9.90979E+5   1.44619E+6
  -1.02740E+6   1.40990E+6
  -1.03654E+6   1.40793E+6
  -1.02442E+6   1.36021E+6
  -1.05626E+6   1.30996E+6
  -1.08595E+6   1.30312E+6
  -1.09176E+6   1.26215E+6
  -1.12071E+6   1.21000E+6
  -1.14012E+6   1.18378E+6
  -1.15046E+6   1.13680E+6
  -1.17717E+6   1.09441E+6
  -1.18891E+6   1.07170E+6
  -1.19260E+6   1.02941E+6
  -1.21100E+6   9.83665E+5
  -1.21437E+6   9.62380E+5
  -1.21608E+6   9.30189E+5
  -1.22582E+6   8.99981E+5
  -1.22560E+6   8.72397E+5
  -1.22423E+6   8.38255E+5
  -1.23750E+6   8.03064E+5
  -1.23977E+6   7.72844E+5
  -1.24170E+6   7.33555E+5
  -1.24867E+6   6.98064E+5
  -1.24828E+6   6.64699E+5
  -1.24898E+6   6.27308E+5
  -1.25734E+6   5.92130E+5
  -1.25799E+6   5.57177E+5
  -1.25274E+6   5.21433E+5
  -1.25224E+6   4.92325E+5
  -1.24773E+6   4.63101E+5
  -1.24160E+6   4.31111E+5
  -1.23505E+6   4.05395E+5
  -1.22935E+6   3.81185E+5
  -1.22292E+6   3.51995E+5
  -1.21724E+6   3.25248E+5
  -1.21053E+6   2.96721E+5
  -1.20518E+6   2.63359E+5
  -1.19677E+6   2.31631E+5
  -1.18673E+6   2.01974E+5
  -1.17900E+6   1.71550E+5
  -1.17234E+6   1.40560E+5
  -1.16271E+6   1.10704E+5
  -1.15327E+6   8.18953E+4
  -1.14305E+6   5.34268E+4
  -1.13257E+6   2.49530E+4
  -1.12041E+6  -1.89717E+3
  -1.10682E+6  -2.63684E+4
  -1.09354E+6  -4.96644E+4
  -1.08199E+6  -7.42866E+4
  -1.06994E+6  -9.89798E+4
  -1.05591E+6  -1.22449E+5
  -1.04284E+6  -1.46823E+5
  -1.02919E+6  -1.72195E+5
  -1.01290E+6  -1.97009E+5
  -9.95816E+5  -2.19455E+5
  -9.80193E+5  -2.41719E+5
  -9.64390E+5  -2.64381E+5
  -9.48695E+5  -2.85978E+5
  -9.33003E+5  -3.07215E+5
  -9.15980E+5  -3.27788E+5
  -8.98391E+5  -3.46434E+5
  -8.81850E+5  -3.64188E+5
  -8.65819E+5  -3.82098E+5
  -8.48202E+5  -4.00470E+5
  -8.29912E+5  -4.17548E+5
  -8.11780E+5  -4.34256E+5
  -7.94027E+5  -4.50948E+5
  -7.75025E+5  -4.67830E+5
  -7.54872E+5  -4.84217E+5
  -7.35040E+5  -4.99521E+5
  -7.15807E+5  -5.13841E+5
  -6.96510E+5  -5.27527E+5
  -6.76209E+5  -5.40877E+5
  -6.55845E+5  -5.53331E+5
  -6.36473E+5  -5.64584E+5
  -6.17626E+5  -5.74540E+5
  -5.98550E+5  -5.84452E+5
  -5.79225E+5  -5.93571E+5
  -5.60071E+5  -6.01762E+5
  -5.41717E+5  -6.09326E+5
  -5.22713E+5  -6.17456E+5
  -5.03209E+5  -6.25457E+5
  -4.83192E+5  -6.32733E+5
  -4.63006E+5  -6.38805E+5
  -4.43024E+5  -6.44113E+5
  -4.24115E+5  -6.49850E+5
  -4.05165E+5  -6.55391E+5
  -3.85063E+5  -6.60359E+5
  -3.66092E+5  -6.63694E+5
  -3.48052E+5  -6.67186E+5
  -3.29092E+5  -6.70946E+5
  -3.09784E+5  -6.73176E+5
  -2.91643E+5  -6.74113E+5
  -2.74371E+5  -6.74654E+5
  -2.57399E+5  -6.76000E+5
  -2.39930E+5  -6.76883E+5
  -2.22048E+5  -6.77040E+5
  -2.04513E+5  -6.76250E+5
  -1.87655E+5  -6.74682E+5
  -1.71563E+5  -6.73885E+5
  -1.54562E+5  -6.73197E+5
  -1.37082E+5  -6.71919E+5
  -1.19667E+5  -6.69983E+5
  -1.03103E+5  -6.67264E+5
  -8.65038E+4  -6.64721E+5
  -7.00445E+4  -6.61980E+5
  -5.38156E+4  -6.57820E+5
  -3.86422E+4  -6.52834E+5
  -2.43929E+4  -6.48613E+5
  -1.00844E+4  -6.44752E+5
   4.67975E+3  -6.40467E+5
   1.89424E+4  -6.35337E+5
   3.33772E+4  -6.30045E+5
   4.76826E+4  -6.24516E+5
   6.14981E+4  -6.18288E+5
   7.44990E+4  -6.11274E+5
   8.76458E+4  -6.04880E+5
   1.00808E+5  -5.98060E+5
   1.14211E+5  -5.91157E+5
   1.27639E+5  -5.83775E+5
   1.40514E+5  -5.75852E+5
   1.52792E+5  -5.67118E+5
   1.64349E+5  -5.58797E+5
   1.76096E+5  -5.50789E+5
   1.87370E+5  -5.41859E+5
   1.98371E+5  -5.32859E+5
   2.08961E+5  -5.23912E+5
   2.20070E+5  -5.15341E+5
   2.30618E+5  -5.05426E+5
   2.40587E+5  -4.95192E+5
   2.49625E+5  -4.85050E+5
   2.57843E+5  -4.75198E+5
   2.66784E+5  -4.65554E+5
   2.75771E+5  -4.55558E+5
   2.84022E+5  -4.44943E+5
   2.91890E+5  -4.34402E+5
   2.98969E+5  -4.23330E+5
   3.06185E+5  -4.12853E+5
   3.12436E+5  -4.02202E+5
   3.18651E+5  -3.91321E+5
   3.24079E+5  -3.80707E+5
   3.29658E+5  -3.70745E+5
   3.35045E+5  -3.60475E+5
   3.40410E+5  -3.49364E+5
   3.44911E+5  -3.38682E+5
   3.48958E+5  -3.28266E+5
   3.53410E+5  -3.17825E+5
   3.57017E+5  -3.07173E+5
   3.60331E+5  -2.96455E+5
   3.63607E+5  -2.86059E+5
   3.66704E+5  -2.75430E+5
   3.69332E+5  -2.64855E+5
   3.71625E+5  -2.54263E+5
   3.73516E+5  -2.44018E+5
   3.74820E+5  -2.33937E+5
   3.76502E+5  -2.24030E+5
   3.78176E+5  -2.14127E+5
   3.79327E+5  -2.03745E+5
   3.79804E+5  -1.94431E+5
   3.80294E+5  -1.84832E+5
   3.80611E+5  -1.75241E+5
   3.80916E+5  -1.65832E+5
   3.80593E+5  -1.56357E+5
   3.80221E+5  -1.47040E+5
   3.79853E+5  -1.37876E+5
   3.79492E+5  -1.28554E+5
   3.78566E+5  -1.18857E+5
   3.76827E+5  -1.09676E+5
   3.75701E+5  -1.00660E+5
   3.74296E+5  -9.19970E+4
   3.73058E+5  -8.31886E+4
   3.71227E+5  -7.41087E+4
   3.69149E+5  -6.53302E+4
   3.66551E+5  -5.67605E+4
   3.64619E+5  -4.87173E+4
   3.61597E+5  -4.06197E+4
   3.58695E+5  -3.26058E+4
   3.55828E+5  -2.48293E+4
   3.53163E+5  -1.75106E+4
   3.50734E+5  -9.70529E+3
   3.47410E+5  -1.77623E+3
   3.43825E+5   6.53380E+3
   3.39784E+5   1.38692E+4
   3.35856E+5   2.13442E+4
   3.32394E+5   2.85429E+4
   3.28507E+5   3.57622E+4
   3.24421E+5   4.28943E+4
   3.20131E+5   4.96933E+4
   3.15929E+5   5.69784E+4
   3.11363E+5   6.39252E+4
   3.06560E+5   7.05009E+4
   3.01305E+5   7.68006E+4
   2.96797E+5   8.26912E+4
   2.92011E+5   8.86955E+4
   2.86769E+5   9.47995E+4
   2.81675E+5   1.00810E+5
   2.76388E+5   1.06247E+5
   2.71190E+5   1.11682E+5
   2.65663E+5   1.17184E+5
   2.60119E+5   1.22449E+5
   2.54443E+5   1.27303E+5
   2.49283E+5   1.31946E+5
   2.43667E+5   1.36461E+5
   2.37819E+5   1.41021E+5
   2.31900E+5   1.45770E+5
   2.26038E+5   1.49330E+5
   2.20140E+5   1.52856E+5
   2.14377E+5   1.56449E+5
   2.08597E+5   1.59964E+5
   2.02611E+5   1.63126E+5
   1.97008E+5   1.66098E+5
   1.91283E+5   1.69004E+5
   1.85471E+5   1.72097E+5
   1.79618E+5   1.74715E+5
   1.73526E+5   1.76614E+5
   1.68001E+5   1.78648E+5
   1.62231E+5   1.80800E+5
   1.56731E+5   1.82824E+5
   1.50791E+5   1.84713E+5
   1.44834E+5   1.85974E+5
   1.39399E+5   1.87441E+5
   1.33848E+5   1.88444E+5
   1.28230E+5   1.89593E+5
   1.22902E+5   1.90463E+5
   1.17892E+5   1.91199E+5
   1.12874E+5   1.91821E+5
   1.07608E+5   1.92551E+5
   1.02102E+5   1.92501E+5
   9.70886E+4   1.92967E+5
   9.21818E+4   1.92967E+5
   8.72917E+4   1.92796E+5
   8.23080E+4   1.93093E+5
   7.70333E+4   1.92652E+5
   7.21958E+4   1.92220E+5
   6.79251E+4   1.91784E+5
   6.32951E+4   1.91461E+5
   5.87299E+4   1.90888E+5
   5.38595E+4   1.89932E+5
   5.01512E+4   1.89152E+5
   4.55558E+4   1.88491E+5
   4.12876E+4   1.87605E+5
   3.66070E+4   1.86543E+5
   3.26084E+4   1.85050E+5
   2.82623E+4   1.83621E+5
   2.45907E+4   1.82358E+5
   2.03956E+4   1.81078E+5
   1.64508E+4   1.79835E+5
   1.25259E+4   1.78531E+5
   8.55490E+3   1.76850E+5
   4.63586E+3   1.75279E+5
   8.22571E+2   1.73367E+5
  -2.86885E+3   1.71364E+5
  -6.34413E+3   1.69351E+5
  -9.63978E+3   1.67920E+5
  -1.32002E+4   1.65933E+5
  -1.69029E+4   1.63839E+5
  -2.02271E+4   1.61364E+5
  -2.30609E+4   1.59289E+5
  -2.60611E+4   1.56903E+5
  -2.90515E+4   1.54703E+5
  -3.19025E+4   1.52566E+5
  -3.48620E+4   1.50265E+5
  -3.75782E+4   1.47792E+5
  -4.08375E+4   1.45560E+5
  -4.33421E+4   1.43358E+5
  -4.61700E+4   1.40584E+5
  -4.86125E+4   1.38014E+5
  -5.08498E+4   1.35257E+5
  -5.33640E+4   1.32703E+5
  -5.53978E+4   1.30053E+5
  -5.77957E+4   1.27432E+5
  -5.99757E+4   1.24976E+5
  -6.18132E+4   1.22196E+5
  -6.39163E+4   1.19548E+5
  -6.58367E+4   1.16740E+5
  -6.70942E+4   1.13856E+5
  -6.90762E+4   1.11225E+5
  -7.07543E+4   1.08788E+5
  -7.22320E+4   1.06167E+5
  -7.37923E+4   1.03234E+5
  -7.52298E+4   1.00625E+5
  -7.62916E+4   9.79050E+4
  -7.73750E+4   9.51586E+4
  -7.87533E+4   9.23520E+4
  -7.99334E+4   8.95668E+4
  -8.06681E+4   8.70237E+4
  -8.18855E+4   8.45055E+4
  -8.26555E+4   8.20039E+4
  -8.36407E+4   7.91960E+4
  -8.42375E+4   7.64430E+4
  -8.49539E+4   7.39293E+4
  -8.55379E+4   7.13927E+4
  -8.63028E+4   6.88192E+4
  -8.67618E+4   6.59552E+4
  -8.70505E+4   6.33793E+4
  -8.75707E+4   6.11334E+4
  -8.76383E+4   5.87423E+4
  -8.83413E+4   5.60542E+4
  -8.80105E+4   5.35407E+4
  -8.82851E+4   5.13505E+4
  -8.88023E+4   4.89072E+4
  -8.86461E+4   4.63992E+4
  -8.87311E+4   4.38925E+4
  -8.85274E+4   4.15758E+4
  -8.84095E+4   3.91887E+4
  -8.82201E+4   3.67239E+4
  -8.82273E+4   3.46585E+4
  -8.76228E+4   3.25160E+4
  -8.73539E+4   3.05055E+4
  -8.72095E+4   2.82606E+4
  -8.68158E+4   2.60970E+4
  -8.62175E+4   2.38580E+4
  -8.57219E+4   2.19443E+4
  -8.52589E+4   1.96910E+4
  -8.45837E+4   1.80910E+4
  -8.39659E+4   1.59075E+4
  -8.34557E+4   1.36522E+4
  -8.25715E+4   1.19987E+4
  -8.17130E+4   1.01093E+4
  -8.09399E+4   8.35888E+3
  -8.00506E+4   6.47305E+3
  -7.95093E+4   4.80054E+3
  -7.85611E+4   2.87147E+3
  -7.77946E+4   1.37669E+3
  -7.70802E+4  -2.29551E+2
  -7.60847E+4  -1.98309E+3
  -7.47678E+4  -3.46294E+3
  -7.37396E+4  -5.12521E+3
  -7.26629E+4  -6.62153E+3
  -7.18633E+4  -8.12467E+3
  -7.11717E+4  -9.32634E+3
  -6.99127E+4  -1.08876E+4
  -6.85533E+4  -1.21891E+4
  -6.77108E+4  -1.36038E+4
  -6.64888E+4  -1.48232E+4
  -6.53107E+4  -1.58848E+4
  -6.40503E+4  -1.71869E+4
  -6.31819E+4  -1.84339E+4
  -6.18090E+4  -1.92481E+4
  -6.05770E+4  -2.01657E+4
  -5.96571E+4  -2.14682E+4
  -5.82623E+4  -2.25088E+4
  -5.68965E+4  -2.32869E+4
  -5.58785E+4  -2.44055E+4
  -5.46883E+4  -2.52613E+4
  -5.31727E+4  -2.58412E+4
  -5.22187E+4  -2.66077E+4
  -5.12929E+4  -2.73655E+4
  -4.99321E+4  -2.82662E+4
  -4.85458E+4  -2.89318E+4
  -4.72714E+4  -2.94017E+4
  -4.60888E+4  -2.99554E+4
  -4.51036E+4  -3.04915E+4
  -4.37020E+4  -3.10776E+4
  -4.27807E+4  -3.18058E+4
  -4.12335E+4  -3.22294E+4
