 
 $NMID
 ID=''
 FMTDAT='(2E13.5)'
 TRAMP=   1.00000E+0
 VOLUME=   1.00000E+0
 $END
   7.03924E+3  -1.87381E+4
  -1.09631E+4  -1.70098E+4
  -1.36314E+4   1.46159E+4
   2.07424E+4   1.63910E+4
   1.24790E+4  -1.70276E+4
  -1.85132E+4  -9.63165E+3
  -2.15315E+3   1.68143E+4
   1.69821E+4   2.40804E+3
  -5.54951E+2  -9.34144E+3
  -6.73993E+3   7.65597E+3
   3.64032E+3   7.24619E+3
   1.64433E+3  -6.73175E+3
  -2.67068E+3  -2.85931E+3
  -1.88711E+3   3.63407E+3
  -3.91995E+3  -4.46138E+2
  -7.11229E+2  -1.91188E+3
   3.66216E+3   2.32986E+2
  -9.34310E+2   1.50264E+3
  -2.96316E+3   2.05928E+3
   1.44661E+3   7.92196E+2
   1.69440E+3  -1.57060E+3
  -2.44754E+2  -5.26843E+2
   7.88149E+2   2.42436E+3
   7.06167E+2   1.84464E+3
   2.46479E+1  -1.94763E+3
   1.11955E+3  -1.73336E+3
   8.25014E+2   3.27896E+3
  -9.38963E+2   1.84898E+3
  -8.68476E+2  -3.46579E+3
   5.69324E+2  -9.05211E+2
  -2.45504E+2   3.42224E+3
  -1.90321E+3   3.47523E+2
  -9.41267E+2  -2.69635E+3
   2.08354E+2  -1.16454E+3
  -2.27723E+2  -4.99806E+2
   9.29516E+2  -1.50141E+3
   1.08661E+3   5.84417E+1
  -6.11927E+2   1.71179E+3
  -9.94089E+2   9.45700E+2
  -5.08435E+1  -9.30640E+2
  -1.06337E+3  -1.03552E+3
  -1.51898E+3   4.20881E+2
   7.25817E+2  -3.03063E+2
   1.58475E+3  -1.58866E+3
   1.56477E+3  -1.20774E+2
   4.17962E+2   2.36850E+3
  -1.59655E+3   1.83716E+3
  -3.02893E+3  -6.22554E+2
  -1.41813E+3  -1.66668E+3
   4.15178E+1  -3.52167E+2
  -9.29928E+1  -3.24994E+2
  -2.88292E+2  -1.25414E+3
   4.77197E+2  -2.43718E+2
   5.59457E+2   1.34847E+3
  -3.48529E+1   7.33182E+2
  -1.77757E+2  -1.09341E+2
  -4.62820E+2   2.89469E+2
  -7.47114E+2  -3.18748E+2
   2.85787E+2  -1.19555E+3
   1.10197E+3  -7.94999E+2
   1.04746E+3   9.85677E+2
   2.81440E+2   1.74303E+3
  -7.33837E+1   8.84208E+2
  -9.19165E+2   3.88218E+2
  -1.52229E+3   1.35386E+2
  -9.66503E+2  -6.01984E+2
  -1.05876E+2  -1.65162E+3
   1.25796E+3  -1.48574E+3
   1.47094E+3   5.03662E+2
  -1.66651E+1   1.05600E+3
  -7.29609E+2  -8.77685E+1
   6.27157E+2  -9.49713E+2
   1.50431E+3   7.09725E+2
   3.14382E+2   1.15467E+3
  -5.31235E+2   2.26183E+2
  -2.17881E+1  -3.12384E+2
   5.51049E+2   3.67024E+2
  -9.75813E+1   6.37999E+2
  -1.22113E+2   3.41542E+2
  -6.51208E+1   1.85739E+2
  -4.78241E+2  -3.11636E+2
  -3.03684E+2  -3.95821E+2
   2.74419E+2  -3.03418E+2
   2.53236E+2   7.10013E+0
   3.59940E+2  -2.74566E+2
   4.80313E+2  -7.04665E+2
   7.62417E+2  -1.66564E+2
   2.63571E+2   5.63202E+2
  -7.37490E+1   6.30707E+2
   4.41536E+2   2.29786E+2
   7.04982E+2   9.05288E+1
   1.49849E+2   3.94559E+2
  -4.23863E+2   7.23683E+2
  -8.51986E+2  -6.90463E+0
  -2.35635E+2  -6.34069E+2
   6.13544E+2  -6.12415E+2
   6.04288E+2  -2.65060E+2
   5.44784E+1   6.88830E+1
   2.74240E+2  -3.05517E+2
   5.54404E+2  -2.27410E+1
   5.96608E+2   3.98500E+2
   7.01473E-1   4.68183E+2
  -3.01387E+2  -1.56677E+2
  -8.37294E+1  -5.76987E+2
   6.00975E+1  -3.89706E+2
   9.57106E+2   3.94078E+2
   3.25451E+2   4.92666E+2
  -5.43537E+2   1.60839E+1
  -5.64308E+2  -1.13212E+3
   5.87875E+2  -8.27188E+2
   1.34037E+3   9.90824E+1
   5.30517E+2   6.03460E+2
  -4.10129E+2   3.34912E+2
   3.93022E+1   1.06617E+2
   1.47098E+2   2.10967E+2
  -2.22702E+2   3.93173E+2
  -5.76037E+2  -1.70485E+2
  -2.85514E+2  -8.97415E+2
   3.17095E+2  -1.05772E+3
   7.02575E+2  -4.44185E+2
   5.54492E+2  -3.52084E+0
   6.14140E+2   2.85538E+2
   2.89235E+2   2.09219E+2
  -8.85030E-1   3.67709E+2
  -3.58836E+1   2.05703E+2
  -2.85100E+1  -4.70819E+2
   1.08127E+2  -2.21067E+2
   9.76740E+1  -4.02936E+2
   3.30635E+2  -1.49915E+2
   1.44399E+1   1.76426E+2
  -1.32501E+2   2.35235E+2
  -4.04345E+2  -1.33632E+2
  -1.90825E+2  -4.24416E+2
   3.66106E+2  -1.01044E+2
   7.99020E+1   7.07683E+1
  -1.42323E+2  -1.35181E+2
   1.61915E+2  -2.57857E+2
   5.63111E+2   3.58687E+2
  -3.60273E+1   5.55234E+2
  -3.38898E+2  -1.81798E+1
  -1.55012E+1  -4.45135E+2
   3.39404E+2  -3.03385E+2
   5.86930E+2  -2.11515E+2
   2.70991E+2   3.66715E+2
  -2.84518E+2   6.74925E+2
  -4.40740E+2   1.39372E+2
  -7.18067E+1  -5.00807E+1
  -3.69814E+1   3.41608E+1
  -5.41360E+1  -1.69896E+2
  -1.79324E+2  -1.37967E+2
   2.01731E+2  -3.95727E+2
   3.36899E+2  -6.61704E+1
   4.24757E+2   3.04072E+2
   3.85761E+1   5.80346E+2
  -4.03107E+1   5.64812E+1
   8.57837E+1  -1.81632E+2
   1.48853E+2   2.08316E+2
   3.81418E+1   2.77991E+2
  -3.63350E+2   1.79592E+2
  -2.26102E+1  -7.46832E+1
  -8.33292E+1   3.07952E+2
  -1.45045E+2   7.44273E+1
  -4.08253E+1   1.53717E+2
   7.94748E+1  -2.10922E+2
   2.10346E+2  -2.59864E+2
   3.97048E+2  -1.99989E+1
   2.11784E+2   2.42848E+2
   4.53486E+1   3.05467E+2
  -1.59490E+2   1.74802E+1
   2.01541E+2  -1.04949E+2
   2.58897E+2  -1.25771E+1
   1.41066E+2   3.57172E+2
  -1.13945E+2   4.70040E+1
   7.41660E+1   3.21383E+1
   3.23979E+2  -2.41412E+2
   8.34667E+1   1.60195E+2
  -2.83116E+2   1.77791E+2
  -3.05273E+2  -1.12364E+2
  -1.13982E+2  -3.56804E+2
   4.57808E+2   1.53703E+2
   4.04533E+2   3.60148E+2
  -5.26557E+1   2.93917E+2
  -2.62698E+2  -1.26871E+2
  -7.97806E-3  -4.84581E+2
  -2.15660E+1  -2.56978E+2
   1.57991E+2  -2.00074E+2
   9.47086E+1   1.27246E+1
   2.85023E+2  -1.99450E+2
   4.10262E+2   2.13180E+2
   3.36763E+2   2.82056E+2
  -1.55742E+2   4.15918E+2
  -3.26875E+2  -2.15019E+2
   6.72373E+1  -5.32017E+2
   1.42321E+2  -4.14709E+2
   3.66612E+2  -4.75855E+2
   1.77728E+2  -9.73220E+1
  -2.42136E+2   1.58013E+2
   1.51736E+2   6.50953E+1
  -1.37640E+2  -1.71701E+2
  -1.29084E+1   1.95354E+1
  -4.77069E+2  -2.74689E+2
   2.31740E+2  -4.04904E+2
   2.64435E+2  -5.08700E+2
   2.26617E+2  -1.04731E+2
  -7.70122E+1   6.28132E+1
  -2.30356E+2   2.18214E+2
  -3.28766E+2  -2.76376E+2
  -1.07015E+2   1.51379E+2
   8.61211E+1  -1.40537E+2
  -1.19719E+2   1.55989E+2
  -8.63423E+1  -2.71502E+2
   1.58136E+2  -2.07985E+2
   1.50788E+2   1.00969E+2
  -1.62081E+2   3.66968E+2
  -3.38986E+2  -9.79040E+1
  -4.06688E+2  -4.99958E+2
   1.13465E+1  -3.94926E+2
   1.69047E+2  -1.95025E+2
  -8.19131E+1  -2.90058E+2
   1.78428E+2  -9.81946E+1
   9.42392E+1  -8.53323E+1
   3.04927E+1   6.05111E+0
  -1.84135E+2   9.56143E+1
  -4.95327E+2   1.41356E+2
  -5.31124E+2  -2.41408E+2
   1.05062E+2  -3.10425E+2
   1.53958E+2  -8.19111E+1
   1.37644E+2   1.62846E+2
  -1.18981E+2   2.26030E+1
  -7.66665E+1   2.75908E+1
   6.30295E+1   2.63532E+1
   1.65854E+2   1.10323E+2
  -1.29235E+2  -5.88380E+1
  -4.53647E+1   2.43330E+2
  -1.62023E+2  -1.84581E+2
   7.22927E+0  -1.21991E+2
  -1.53983E+1  -5.95764E+1
   3.71142E+0   2.04579E+1
  -1.75595E+2   1.29709E+2
  -7.85168E+1   3.37923E+1
   9.39167E+0   6.92183E+1
   1.06272E+2   8.96088E+1
  -3.66052E+1  -5.29430E+1
  -2.20188E+2  -1.94895E+2
  -8.25617E+1   2.00784E+2
   7.64745E+1   1.96074E+1
   8.53779E+1  -3.15825E+1
  -2.13478E+1  -1.93952E+2
  -3.92827E+0  -5.17508E+1
   2.46678E+1   1.84844E+2
  -1.37377E+1   1.20844E+2
  -9.94379E+1  -1.91988E+2
   1.25235E+1  -1.33113E+2
   3.47569E+1  -3.89951E+2
   1.32393E+2  -7.97216E+1
   3.87435E+2   1.43515E+1
  -7.27341E+1  -9.93256E+1
  -2.31993E+2  -3.76116E+1
  -1.43015E+2  -2.01415E+1
  -5.65463E+1   1.68530E+1
  -2.76856E+2   1.32033E+2
  -3.67946E+1  -3.31052E+2
  -1.46718E+2  -1.56978E+2
   2.33977E+2  -2.13079E+2
   4.14318E+2  -1.01793E+1
  -2.09611E+2   2.41589E+2
  -2.39716E+2  -5.17523E+1
  -1.86098E+2  -6.18835E+1
  -3.24494E+1  -1.03612E+2
  -1.12824E+2   1.30869E+2
   2.94205E+1  -4.47535E+1
   1.74427E+2  -2.01027E+2
  -1.54413E+2   9.80022E+0
   1.57789E+2   1.34452E+2
  -9.94380E+1  -1.03680E+2
  -2.41818E+2   9.80304E+0
  -1.64551E+2  -2.42628E+2
   1.89106E+2  -3.17082E+2
   2.91315E+2  -5.31831E+1
   7.98707E+1  -2.62574E+2
  -4.24963E+2   1.14417E+1
  -4.69861E+1  -1.66787E+1
  -1.28040E+2  -9.15995E+1
  -9.09444E+1   2.62905E+2
  -1.91984E+2  -4.40188E+1
  -2.60464E+2  -7.27648E+1
   9.55430E+1  -3.58901E+2
   2.30994E+2  -1.19267E+1
   1.61053E+2   3.33045E+2
  -4.99837E+1   3.86276E+2
  -3.56510E+2   1.03085E+2
   3.85437E+0   3.16692E+1
  -3.97275E+2  -6.74303E+1
  -6.78525E+1  -1.90578E+2
   9.03077E+0  -9.80820E+1
   7.68512E+1  -1.67555E+2
  -6.03134E+0   4.71993E+1
   5.55259E+1   2.19473E+2
  -2.50295E+2   1.56299E+2
  -3.37903E+2  -5.89237E+1
   2.32495E+2  -1.93404E+2
   7.71626E+0  -1.69363E+2
   1.05990E+2   4.53151E+0
  -1.94994E+1  -7.54951E+0
   1.11155E+2  -8.20807E+1
   1.76268E+2  -4.56613E+2
   1.83282E+2   8.63064E+1
   2.34854E+2  -1.43617E+2
   7.49576E+1   2.74380E+1
  -5.38293E+1   7.96314E+1
   2.02244E+1  -1.69949E+2
   8.67389E+1  -9.16017E+1
   1.74038E+2   2.65226E+2
  -1.19690E+2   3.27539E+0
   4.10220E+1  -2.15605E+1
  -8.63344E+1  -6.97576E+1
   9.81725E+1   5.19413E+1
  -1.95072E+2   6.10334E+0
  -2.46969E+2  -3.46849E+2
   4.63869E+1  -1.74994E+2
  -7.20511E+0  -1.03703E+2
   9.13512E+1   2.56208E+1
  -1.80849E+2  -1.12945E+2
  -1.60955E+2  -9.45321E+1
   3.16957E+2  -2.58891E+1
   1.97735E+2  -2.83925E+1
   1.04267E+2   1.33726E+2
  -2.83837E+2  -3.48843E+1
  -1.58279E+1  -1.73307E+2
  -3.64275E+1  -2.80272E+2
   2.14044E+2   7.78333E+1
   3.97771E+1  -3.63334E+1
  -1.17088E+2  -3.95527E+1
  -4.86630E+1   1.45424E+2
   3.12901E+1   1.20621E+1
  -7.83782E+1   3.13229E+1
  -1.59258E+2   1.35434E+2
   2.07669E+1  -2.27697E+2
   6.29585E+1  -2.50484E+2
   2.64076E+2   1.34850E+2
   4.24813E+1   2.23720E+1
   6.49303E+1   4.40942E+1
   1.37229E+1  -1.27990E+2
   9.07747E+1  -4.09468E+1
   1.86046E+2   5.63664E+0
  -2.17235E+1  -5.98002E+1
  -1.01061E+2  -2.57852E+2
   3.53081E+2   6.30272E+1
   4.38328E-1  -1.05543E+2
   2.33023E+1   2.19681E+2
  -2.15417E+2  -1.14000E+2
  -4.01722E+1  -3.77936E+1
   8.65785E+1  -2.44144E+2
   8.39195E+1  -7.88360E+1
  -3.49864E+1  -2.81886E+1
   8.80442E+1  -2.51661E+2
  -6.60511E+1  -1.99657E+2
   3.12693E+2  -1.97610E+2
   7.75451E+1  -2.38581E+2
  -2.75274E+1   8.20301E+1
  -3.10850E+1  -1.09471E+2
  -2.08835E+1  -2.88142E+2
   9.73350E+1  -1.39162E+2
   1.60701E+2   1.22144E+2
   5.39617E+1   2.15047E+2
  -1.47069E+2  -1.62289E+2
  -3.50810E+1  -4.87999E+1
