 LCModel (Version 6.3-1N) Copyright: S.W. Provencher.          Ref.: Magn. Reson. Med. 30:672-679 (1993).                
 Slice_N1@14_12  28-Feb-2025 11:38:51
 27 lines in following concentration table = NCONC+1
    Conc.  %SD /Cr+PCr  Metabolite                                         
 3.46E-04   5% 3.5E-04 Mac                                                 
    3.150  57%   3.185 Cr                                                  
    4.762  38%   4.815 PCr                                                 
    5.732  21%   5.796 Ins                                                 
    8.531  11%   8.626 NAA                                                 
    6.885  18%   6.962 Tau                                                 
    1.420  29%   1.435 PCho                                                
    0.000 999%   0.000 GPC                                                 
    8.397  17%   8.491 Glu                                                 
    4.415  24%   4.464 Gln                                                 
    4.491  23%   4.541 Ala                                                 
    0.000 999%   0.000 Asc                                                 
    1.744  52%   1.763 Asp                                                 
    0.165 312%   0.167 GABA                                                
    0.566 101%   0.573 Glc                                                 
    0.670  90%   0.678 GSH                                                 
    1.805  55%   1.825 Lac                                                 
    2.418  32%   2.445 NAAG                                                
    2.213  71%   2.238 PE                                                  
    1.420  29%   1.435 GPC+PCho                                            
   10.948  10%  11.071 NAA+NAAG                                            
   12.812  13%  12.955 Glu+Gln                                             
    7.912  12%   8.000 Cr+PCr                                              
   10.948  10%  11.071 NAA+NAAG                                            
    7.912  12%   8.000 Cr+PCr                                              
   12.812  13%  12.955 Glu+Gln                                             
   6 lines in following misc. output table
  FWHM = 0.033 ppm    S/N =   3                                            
  Data shift = 0.016 ppm                                                   
  Ph: 156 deg       0.0 deg/ppm                                            
  alphaB,S = 1.2E-01,   1.3E+01                                            
   19 spline knots.   Ns = 5(1)                                            
  ( 4) 2 infls.   ( 4) 2 extrs.                                            
  480 points on ppm-axis = NY
      4.100000     4.091866     4.083733     4.075600     4.067466     4.059333     4.051199     4.043066     4.034933     4.026799
      4.018666     4.010532     4.002399     3.994265     3.986132     3.977998     3.969864     3.961731     3.953597     3.945463
      3.937330     3.929196     3.921062     3.912929     3.904795     3.896662     3.888528     3.880394     3.872261     3.864127
      3.855993     3.847860     3.839726     3.831592     3.823459     3.815325     3.807191     3.799058     3.790924     3.782790
      3.774657     3.766523     3.758389     3.750256     3.742122     3.733989     3.725855     3.717721     3.709588     3.701454
      3.693320     3.685187     3.677053     3.668919     3.660786     3.652652     3.644518     3.636385     3.628251     3.620117
      3.611984     3.603850     3.595716     3.587583     3.579449     3.571316     3.563182     3.555048     3.546915     3.538781
      3.530647     3.522514     3.514380     3.506246     3.498113     3.489979     3.481845     3.473712     3.465578     3.457444
      3.449311     3.441177     3.433043     3.424910     3.416776     3.408643     3.400509     3.392375     3.384242     3.376108
      3.367974     3.359841     3.351707     3.343573     3.335440     3.327306     3.319172     3.311039     3.302905     3.294771
      3.286638     3.278504     3.270370     3.262237     3.254103     3.245970     3.237836     3.229702     3.221569     3.213435
      3.205301     3.197168     3.189034     3.180900     3.172767     3.164633     3.156499     3.148366     3.140232     3.132098
      3.123965     3.115831     3.107697     3.099564     3.091430     3.083297     3.075163     3.067029     3.058896     3.050762
      3.042628     3.034495     3.026361     3.018227     3.010094     3.001960     2.993826     2.985693     2.977559     2.969425
      2.961292     2.953158     2.945024     2.936891     2.928757     2.920624     2.912490     2.904356     2.896223     2.888089
      2.879955     2.871822     2.863688     2.855554     2.847421     2.839287     2.831153     2.823020     2.814886     2.806752
      2.798619     2.790485     2.782351     2.774218     2.766084     2.757951     2.749817     2.741683     2.733550     2.725416
      2.717282     2.709149     2.701015     2.692881     2.684748     2.676614     2.668480     2.660347     2.652213     2.644079
      2.635946     2.627812     2.619678     2.611545     2.603411     2.595278     2.587144     2.579010     2.570877     2.562743
      2.554609     2.546476     2.538342     2.530208     2.522075     2.513941     2.505807     2.497674     2.489540     2.481406
      2.473273     2.465139     2.457006     2.448872     2.440738     2.432605     2.424471     2.416337     2.408204     2.400070
      2.391936     2.383803     2.375669     2.367535     2.359402     2.351268     2.343134     2.335001     2.326867     2.318733
      2.310600     2.302466     2.294333     2.286199     2.278065     2.269932     2.261798     2.253664     2.245531     2.237397
      2.229263     2.221130     2.212996     2.204862     2.196729     2.188595     2.180461     2.172328     2.164194     2.156060
      2.147927     2.139793     2.131660     2.123526     2.115392     2.107259     2.099125     2.090991     2.082858     2.074724
      2.066590     2.058457     2.050323     2.042189     2.034056     2.025922     2.017788     2.009655     2.001521     1.993387
      1.985254     1.977120     1.968987     1.960853     1.952719     1.944586     1.936452     1.928318     1.920185     1.912051
      1.903917     1.895784     1.887650     1.879516     1.871383     1.863249     1.855115     1.846982     1.838848     1.830714
      1.822581     1.814447     1.806314     1.798180     1.790046     1.781913     1.773779     1.765645     1.757512     1.749378
      1.741244     1.733111     1.724977     1.716843     1.708710     1.700576     1.692442     1.684309     1.676175     1.668041
      1.659908     1.651774     1.643641     1.635507     1.627373     1.619240     1.611106     1.602972     1.594839     1.586705
      1.578571     1.570438     1.562304     1.554170     1.546037     1.537903     1.529769     1.521636     1.513502     1.505368
      1.497235     1.489101     1.480968     1.472834     1.464700     1.456567     1.448433     1.440299     1.432166     1.424032
      1.415898     1.407765     1.399631     1.391497     1.383364     1.375230     1.367096     1.358963     1.350829     1.342695
      1.334562     1.326428     1.318295     1.310161     1.302027     1.293894     1.285760     1.277626     1.269493     1.261359
      1.253225     1.245092     1.236958     1.228824     1.220691     1.212557     1.204423     1.196290     1.188156     1.180022
      1.171889     1.163755     1.155622     1.147488     1.139354     1.131221     1.123087     1.114953     1.106820     1.098686
      1.090552     1.082419     1.074285     1.066151     1.058018     1.049884     1.041750     1.033617     1.025483     1.017349
      1.009216     1.001082     0.992949     0.984815     0.976681     0.968548     0.960414     0.952280     0.944147     0.936013
      0.927879     0.919746     0.911612     0.903478     0.895345     0.887211     0.879077     0.870944     0.862810     0.854676
      0.846543     0.838409     0.830276     0.822142     0.814008     0.805875     0.797741     0.789607     0.781474     0.773340
      0.765206     0.757073     0.748939     0.740805     0.732672     0.724538     0.716404     0.708271     0.700137     0.692003
      0.683870     0.675736     0.667603     0.659469     0.651335     0.643202     0.635068     0.626934     0.618801     0.610667
      0.602533     0.594400     0.586266     0.578132     0.569999     0.561865     0.553731     0.545598     0.537464     0.529330
      0.521197     0.513063     0.504930     0.496796     0.488662     0.480529     0.472395     0.464261     0.456128     0.447994
      0.439861     0.431727     0.423593     0.415460     0.407326     0.399192     0.391059     0.382925     0.374792     0.366658
      0.358524     0.350391     0.342257     0.334124     0.325990     0.317856     0.309723     0.301589     0.293455     0.285322
      0.277188     0.269055     0.260921     0.252787     0.244654     0.236520     0.228386     0.220253     0.212119     0.203986
 NY phased data points follow
  -1.18059E+02 -1.25573E+02 -1.15142E+02 -1.23502E+02 -1.17188E+02 -1.09034E+02 -1.02782E+02 -1.14679E+02 -1.25945E+02 -1.22302E+02
  -1.25944E+02 -1.34653E+02 -1.31736E+02 -1.33318E+02 -1.33941E+02 -1.34215E+02 -1.46344E+02 -1.38110E+02 -1.55142E+02 -1.60885E+02
  -1.56176E+02 -1.41473E+02 -9.21716E+01 -8.81881E+01 -6.24833E+01 -3.27700E+01 -5.75200E+01 -6.50300E+01 -5.06781E+01 -4.88404E+01
  -5.53853E+01 -6.42856E+01 -6.50877E+01 -6.30201E+01 -6.15060E+01 -6.22279E+01 -8.57653E+01 -8.20494E+01 -9.23219E+01 -1.24159E+02
  -1.11774E+02 -1.01054E+02 -9.72634E+01 -7.97277E+01 -5.25468E+01 -3.18790E+01 -2.22958E+01 -7.97181E+00 -1.23403E+01 -2.43404E+01
  -2.04639E+01 -4.35839E+01 -4.15796E+01 -3.93874E+01 -6.21983E+01 -5.79576E+01 -7.36246E+01 -6.15351E+01 -6.38132E+01 -7.26035E+01
  -4.57634E+01 -3.42785E+01 -3.00847E+01 -3.42962E+01 -1.47640E+01 -1.86022E+01 -3.07638E+01 -4.16617E+01 -7.57273E+01 -9.42432E+01
  -9.36970E+01 -6.61602E+01 -4.48711E+01 -3.76882E+01 -1.66536E+01 -4.66830E+00 -1.39631E+01 -1.19750E+01 -3.04435E+01 -2.49085E+01
  -1.55104E+01 -4.16993E+01 -4.59289E+01 -7.59648E+01 -7.95674E+01 -5.77402E+01 -4.69430E+01 -3.92383E+01 -3.01359E+01 -1.62094E+01
  -1.79562E+01 -1.09743E+01 -1.69641E+01 -1.29712E+01 -6.21776E+00 -1.29110E+01 -9.03694E+00 -9.31664E+00 -3.46859E+01 -3.88301E+01
  -2.86367E+01 -5.34941E+01 -6.42698E+01 -7.93471E+01 -9.14121E+01 -1.12965E+02 -1.21681E+02 -1.15505E+02 -1.40318E+02 -1.73259E+02
  -2.41664E+02 -2.42354E+02 -1.66586E+02 -1.18941E+02 -9.91009E+01 -8.82266E+01 -7.21895E+01 -6.26440E+01 -6.58477E+01 -6.25231E+01
  -4.45418E+01 -4.41539E+01 -5.38674E+01 -5.32958E+01 -3.59075E+01 -3.04698E+01 -3.56411E+01 -1.00147E+01  3.36576E+01  4.96810E+01
   3.34615E+01  2.98063E+00 -9.52551E+01 -1.85697E+02 -1.91848E+02 -1.66363E+02 -1.46128E+02 -1.44559E+02 -1.36234E+02 -1.31324E+02
  -1.30490E+02 -1.29068E+02 -1.33235E+02 -1.27881E+02 -1.15464E+02 -1.15312E+02 -1.14947E+02 -1.08322E+02 -1.08122E+02 -1.03627E+02
  -9.76101E+01 -8.44378E+01 -8.16403E+01 -8.44073E+01 -7.90732E+01 -6.63201E+01 -5.74921E+01 -7.60716E+01 -6.36616E+01 -4.63570E+01
  -6.97016E+01 -7.16884E+01 -5.82353E+01 -5.96637E+01 -7.05675E+01 -6.76874E+01 -5.60851E+01 -6.54395E+01 -6.08174E+01 -4.72835E+01
  -4.52080E+01 -4.08797E+01 -3.76642E+01 -3.08510E+01 -3.72075E+01 -5.12373E+01 -4.75128E+01 -3.57238E+01 -4.35763E+01 -6.33732E+01
  -7.90735E+01 -7.62411E+01 -7.57381E+01 -8.72314E+01 -8.25619E+01 -9.27996E+01 -8.41389E+01 -7.84159E+01 -7.80305E+01 -6.13175E+01
  -6.79037E+01 -5.83480E+01 -6.48867E+01 -6.62059E+01 -5.74720E+01 -5.28396E+01 -4.28578E+01 -4.84551E+01 -4.39355E+01 -5.29695E+01
  -4.70783E+01 -5.16906E+01 -5.95476E+01 -3.25111E+01 -3.14120E+01 -4.73063E+01 -5.35488E+01 -5.53880E+01 -6.72036E+01 -6.31879E+01
  -5.55516E+01 -4.90595E+01 -4.74195E+01 -2.90296E+01  7.65265E+00  7.83124E+00  4.30130E+01  3.94237E+01  5.52553E+00  4.53206E+00
  -1.77734E+01 -2.57434E+01 -5.10670E+01 -4.49663E+01 -4.02959E+01 -4.15299E+01 -3.07982E+01 -5.09232E+01 -3.84282E+01 -5.58299E+01
  -5.81796E+01 -6.84803E+01 -8.71516E+01 -6.66090E+01 -8.95952E+01 -1.01976E+02 -1.10405E+02 -1.05925E+02 -1.07997E+02 -1.04971E+02
  -8.66370E+01 -8.73887E+01 -5.64849E+01 -5.41550E+01 -5.72493E+01 -3.50443E+01 -3.06553E+01 -3.64059E+01 -4.50695E+01 -5.63663E+01
  -6.07878E+01 -6.13940E+01 -5.87896E+01 -5.54905E+01 -6.47947E+01 -6.41134E+01 -6.15989E+01  1.84712E+01  1.51450E+02  1.59318E+02
   1.13228E+02  1.34615E+02  1.11116E+02  7.08581E+01  7.36426E+01  4.75610E+01  5.16817E+01  4.39545E+01  4.08290E+01  4.39033E+01
   3.66561E+01  3.98476E+01  9.87626E+00  3.72209E+01  3.59573E+01  1.39535E+01  2.72738E+01  2.41748E+01  1.95927E+01  1.96290E+01
   2.63013E+01  3.93364E+00  6.94453E+00  3.86732E+00  7.39082E-03  4.99998E+00  1.07554E+01  2.21216E+01  5.79410E+00  1.70891E+01
   7.99511E+00  9.38126E+00  4.42828E+00 -1.11550E+01  9.36204E+00  3.94979E-02  6.07690E+00  1.16923E+01  1.37726E+01  3.22416E+01
   3.44747E+01  3.87837E+01  5.00081E+01  6.12668E+01  5.70295E+01  5.64331E+01  8.12387E+01  9.05710E+01  9.15580E+01  1.00036E+02
   1.11732E+02  1.29207E+02  1.25512E+02  1.21328E+02  1.29761E+02  1.49527E+02  1.50006E+02  1.32872E+02  1.35862E+02  1.30593E+02
   1.28587E+02  1.10816E+02  8.66161E+01  7.22764E+01  4.28123E+01  3.08582E+01  9.49061E+00 -2.11874E+01 -3.22420E+01 -5.22902E+01
  -6.22726E+01 -7.33223E+01 -9.74659E+01 -1.04856E+02 -1.08732E+02 -1.19041E+02 -1.28429E+02 -1.18136E+02 -1.02477E+02 -9.84041E+01
  -1.00827E+02 -8.68514E+01 -7.47156E+01 -6.93949E+01 -5.45590E+01 -7.13011E+01 -6.29880E+01 -7.02990E+01 -8.14162E+01 -6.18772E+01
  -7.72585E+01 -6.22266E+01 -5.74681E+01 -5.61264E+01 -5.30842E+01 -6.99352E+01 -6.11104E+01 -6.52517E+01 -7.24326E+01 -6.04983E+01
  -4.43065E+01 -4.75817E+01 -4.82539E+01 -4.11459E+01 -3.87952E+01 -4.09930E+01 -4.79809E+01 -3.71966E+01 -2.75934E+01 -3.03638E+01
  -3.45818E+01 -3.58843E+01 -3.16024E+01 -1.88489E+01 -1.11228E+01 -9.04474E+00 -6.33066E+00 -2.33851E+00  2.28545E+00  1.70573E+00
   1.60654E+01  2.77150E+01  2.38090E+01  3.66594E+01  4.58944E+01  5.94806E+01  7.14209E+01  4.20758E+01  4.97731E+01  5.50537E+01
   1.93455E+01  8.42806E+00  1.17742E+01 -1.38618E+01 -5.42679E+01 -3.36246E+01 -3.24723E+01 -3.86598E+01 -3.81966E+01 -6.06785E+01
  -5.75542E+01 -7.38172E+01 -8.31186E+01 -8.33666E+01 -7.46548E+01 -7.14002E+01 -8.06316E+01 -9.04839E+01 -8.79099E+01 -9.06316E+01
  -9.72500E+01 -7.21573E+01 -8.59488E+01 -7.69551E+01 -7.50662E+01 -7.59681E+01 -5.54673E+01 -6.58181E+01 -7.08349E+01 -8.13021E+01
  -6.62580E+01 -6.85293E+01 -6.85285E+01 -7.47117E+01 -7.57047E+01 -5.66403E+01 -6.20614E+01 -5.86947E+01 -6.91922E+01 -6.15222E+01
  -6.86479E+01 -6.32300E+01 -4.32262E+01 -6.04378E+01 -6.32490E+01 -5.35417E+01 -4.72316E+01 -5.92636E+01 -6.12360E+01 -5.01213E+01
  -5.67459E+01 -6.05930E+01 -4.62907E+01 -5.95158E+01 -6.17633E+01 -5.34338E+01 -5.56499E+01 -3.86575E+01 -4.22310E+01 -5.05362E+01
  -4.81431E+01 -3.50448E+01 -5.30176E+01 -5.38429E+01 -4.25115E+01 -5.69524E+01 -4.42913E+01 -4.61101E+01 -3.93803E+01 -3.90531E+01
  -4.61447E+01 -5.60001E+01 -5.67704E+01 -4.58868E+01 -5.65663E+01 -4.38563E+01 -4.27610E+01 -4.26308E+01 -3.42139E+01 -4.92257E+01
  -5.40121E+01 -3.56385E+01 -2.69970E+01 -4.01758E+01 -4.97976E+01 -4.47979E+01 -4.21821E+01 -4.53528E+01 -4.43273E+01 -4.27614E+01
 NY points of the fit to the data follow
  -1.15259E+02 -1.20579E+02 -1.25589E+02 -1.26263E+02 -1.20415E+02 -1.09756E+02 -1.00910E+02 -9.96938E+01 -1.05522E+02 -1.13653E+02
  -1.21141E+02 -1.27739E+02 -1.33679E+02 -1.38066E+02 -1.39199E+02 -1.36366E+02 -1.34105E+02 -1.36943E+02 -1.45896E+02 -1.54814E+02
  -1.52457E+02 -1.32054E+02 -1.00526E+02 -7.21183E+01 -5.44239E+01 -4.81710E+01 -4.96412E+01 -5.16011E+01 -5.20924E+01 -5.18164E+01
  -5.21173E+01 -5.38662E+01 -5.66585E+01 -5.98254E+01 -6.26061E+01 -6.53397E+01 -7.08329E+01 -8.21166E+01 -9.97909E+01 -1.18389E+02
  -1.28878E+02 -1.23461E+02 -1.02746E+02 -7.50989E+01 -5.01705E+01 -3.40806E+01 -2.77054E+01 -2.83917E+01 -3.21245E+01 -3.53394E+01
  -3.76029E+01 -3.98751E+01 -4.44975E+01 -5.16025E+01 -6.00188E+01 -6.86133E+01 -7.45096E+01 -7.66749E+01 -7.67147E+01 -7.41518E+01
  -6.76565E+01 -5.98367E+01 -5.24048E+01 -4.26037E+01 -3.28280E+01 -3.02641E+01 -3.72429E+01 -5.16625E+01 -6.78849E+01 -7.78926E+01
  -7.66706E+01 -6.72274E+01 -5.65790E+01 -4.60841E+01 -3.49627E+01 -2.58754E+01 -1.99559E+01 -1.72211E+01 -1.66069E+01 -2.02445E+01
  -3.03720E+01 -4.72054E+01 -6.66195E+01 -8.23127E+01 -8.79734E+01 -8.13109E+01 -6.65546E+01 -4.97858E+01 -3.58654E+01 -2.75026E+01
  -2.21722E+01 -1.85079E+01 -1.53412E+01 -1.25523E+01 -9.96968E+00 -7.80269E+00 -6.11564E+00 -4.36334E+00 -2.28870E+00 -1.29804E+00
  -1.62110E+00 -8.12992E+00 -2.43992E+01 -4.82109E+01 -7.02884E+01 -8.51849E+01 -9.46658E+01 -1.06387E+02 -1.30243E+02 -1.63234E+02
  -1.86082E+02 -1.82172E+02 -1.56057E+02 -1.28861E+02 -1.09996E+02 -9.87707E+01 -9.13290E+01 -8.42835E+01 -7.73237E+01 -7.01390E+01
  -6.22317E+01 -5.32251E+01 -4.25752E+01 -3.03303E+01 -1.81028E+01 -8.75210E+00 -3.46344E+00  8.31350E+00  2.87041E+01  4.67149E+01
   4.14356E+01 -4.48179E+00 -8.35627E+01 -1.52703E+02 -1.74715E+02 -1.62150E+02 -1.44371E+02 -1.32345E+02 -1.28595E+02 -1.26870E+02
  -1.25309E+02 -1.24224E+02 -1.23315E+02 -1.21838E+02 -1.19281E+02 -1.15770E+02 -1.11689E+02 -1.07535E+02 -1.03955E+02 -1.01223E+02
  -9.91428E+01 -9.71641E+01 -9.46638E+01 -9.14811E+01 -8.80610E+01 -8.51842E+01 -8.35959E+01 -8.31450E+01 -8.25984E+01 -8.08846E+01
  -7.81749E+01 -7.57868E+01 -7.49031E+01 -7.51813E+01 -7.50915E+01 -7.42501E+01 -7.39925E+01 -7.45217E+01 -7.32353E+01 -6.70546E+01
  -5.64187E+01 -4.61010E+01 -4.20213E+01 -4.55070E+01 -5.06265E+01 -5.06468E+01 -4.56393E+01 -4.24596E+01 -4.68778E+01 -5.78501E+01
  -6.89553E+01 -7.55691E+01 -7.80143E+01 -7.79191E+01 -7.65908E+01 -7.51971E+01 -7.40219E+01 -7.29781E+01 -7.19975E+01 -7.16625E+01
  -7.14346E+01 -7.02879E+01 -6.75228E+01 -6.24986E+01 -5.63436E+01 -5.18539E+01 -4.93811E+01 -4.65675E+01 -4.35871E+01 -4.25845E+01
  -4.27667E+01 -4.18598E+01 -3.85335E+01 -3.52884E+01 -3.56641E+01 -3.96732E+01 -4.53969E+01 -5.20471E+01 -5.93655E+01 -6.54300E+01
  -6.93588E+01 -6.82752E+01 -5.94047E+01 -4.32974E+01 -2.33979E+01 -4.28468E+00  8.27092E+00  1.10437E+01  7.44314E+00  9.25838E-01
  -5.52391E+00 -7.59836E+00 -6.97815E+00 -6.41751E+00 -8.16808E+00 -1.35823E+01 -2.19818E+01 -3.23646E+01 -4.41590E+01 -5.65106E+01
  -6.88018E+01 -8.05965E+01 -9.06919E+01 -9.79458E+01 -1.01964E+02 -1.02226E+02 -9.92016E+01 -9.52987E+01 -9.17297E+01 -8.86177E+01
  -8.53351E+01 -8.00665E+01 -7.15166E+01 -6.18933E+01 -5.41787E+01 -4.98823E+01 -4.97373E+01 -5.17672E+01 -5.50835E+01 -6.08240E+01
  -6.54117E+01 -6.45161E+01 -6.19682E+01 -6.36753E+01 -6.91967E+01 -6.95500E+01 -4.56179E+01  1.58658E+01  8.78398E+01  1.24598E+02
   1.20347E+02  1.00537E+02  8.35647E+01  7.51605E+01  7.13403E+01  6.79397E+01  6.47379E+01  6.19628E+01  5.98110E+01  5.85108E+01
   5.78562E+01  5.74968E+01  5.71811E+01  5.67854E+01  5.62099E+01  5.56629E+01  5.52136E+01  5.44819E+01  5.32821E+01  5.16137E+01
   4.96527E+01  4.76798E+01  4.55651E+01  4.32193E+01  4.06750E+01  3.79627E+01  3.48941E+01  3.12413E+01  2.69428E+01  2.20886E+01
   1.70723E+01  1.23574E+01  8.54427E+00  6.45903E+00  6.48716E+00  8.33139E+00  1.13321E+01  1.47186E+01  1.81116E+01  2.15107E+01
   2.49592E+01  2.82161E+01  3.10738E+01  3.36368E+01  3.61841E+01  3.90187E+01  4.22559E+01  4.56387E+01  4.87290E+01  5.13250E+01
   5.35565E+01  5.56275E+01  5.76018E+01  5.92362E+01  6.02038E+01  6.04995E+01  6.01435E+01  5.92673E+01  5.89145E+01  5.94738E+01
   5.72975E+01  4.92001E+01  3.05884E+01  9.26029E-01 -3.31372E+01 -6.09770E+01 -7.71855E+01 -8.13428E+01 -7.68347E+01 -7.22240E+01
  -7.13821E+01 -7.08402E+01 -6.88881E+01 -6.37973E+01 -5.68938E+01 -5.00072E+01 -4.38189E+01 -3.83216E+01 -3.39081E+01 -3.09286E+01
  -3.08740E+01 -3.45360E+01 -4.03378E+01 -4.50111E+01 -4.66653E+01 -4.49360E+01 -4.08734E+01 -3.76584E+01 -3.71523E+01 -3.93278E+01
  -4.39200E+01 -4.98453E+01 -5.62654E+01 -6.18956E+01 -6.55774E+01 -6.70337E+01 -6.65454E+01 -6.45743E+01 -6.15186E+01 -5.77493E+01
  -5.35250E+01 -4.91762E+01 -4.50127E+01 -4.12735E+01 -3.79501E+01 -3.47668E+01 -3.15302E+01 -2.81741E+01 -2.47154E+01 -2.13516E+01
  -1.78452E+01 -1.39294E+01 -9.43334E+00 -4.27897E+00  1.58956E+00  8.15635E+00  1.54825E+01  2.36443E+01  3.24511E+01  4.17598E+01
   5.17844E+01  6.22486E+01  7.22209E+01  8.00752E+01  8.40455E+01  8.25234E+01  7.50494E+01  6.27467E+01  4.81304E+01  3.41569E+01
   2.26920E+01  1.38818E+01  6.67098E+00 -3.40253E-01 -8.46921E+00 -1.84651E+01 -2.98256E+01 -4.12355E+01 -5.15498E+01 -5.99406E+01
  -6.61073E+01 -7.03470E+01 -7.32680E+01 -7.51930E+01 -7.63933E+01 -7.72617E+01 -7.81608E+01 -7.90843E+01 -7.98060E+01 -8.01066E+01
  -8.00232E+01 -7.96971E+01 -7.93204E+01 -7.89542E+01 -7.85730E+01 -7.81849E+01 -7.78808E+01 -7.75127E+01 -7.68753E+01 -7.61066E+01
  -7.55342E+01 -7.51274E+01 -7.46553E+01 -7.41548E+01 -7.36937E+01 -7.31483E+01 -7.23380E+01 -7.13061E+01 -7.03420E+01 -6.97449E+01
  -6.94667E+01 -6.92400E+01 -6.88217E+01 -6.81078E+01 -6.71423E+01 -6.61107E+01 -6.52083E+01 -6.44106E+01 -6.36783E+01 -6.29855E+01
  -6.23161E+01 -6.18023E+01 -6.14320E+01 -6.10645E+01 -6.05152E+01 -5.97037E+01 -5.87623E+01 -5.79275E+01 -5.73037E+01 -5.67685E+01
  -5.62667E+01 -5.55739E+01 -5.46598E+01 -5.37220E+01 -5.29217E+01 -5.22046E+01 -5.15249E+01 -5.08264E+01 -5.01479E+01 -4.95905E+01
  -4.92416E+01 -4.89935E+01 -4.86732E+01 -4.81171E+01 -4.73015E+01 -4.61676E+01 -4.49628E+01 -4.40402E+01 -4.36742E+01 -4.37347E+01
  -4.38435E+01 -4.36747E+01 -4.31558E+01 -4.24760E+01 -4.19278E+01 -4.15483E+01 -4.13757E+01 -4.13216E+01 -4.11280E+01 -4.04856E+01
 NY background values follow
    -8.488E+01   -8.456E+01   -8.423E+01   -8.391E+01   -8.359E+01   -8.327E+01   -8.295E+01   -8.263E+01   -8.231E+01   -8.198E+01
    -8.166E+01   -8.134E+01   -8.102E+01   -8.070E+01   -8.038E+01   -8.006E+01   -7.974E+01   -7.942E+01   -7.910E+01   -7.879E+01
    -7.847E+01   -7.816E+01   -7.784E+01   -7.753E+01   -7.722E+01   -7.691E+01   -7.660E+01   -7.629E+01   -7.598E+01   -7.568E+01
    -7.538E+01   -7.507E+01   -7.477E+01   -7.448E+01   -7.418E+01   -7.389E+01   -7.360E+01   -7.331E+01   -7.302E+01   -7.274E+01
    -7.246E+01   -7.218E+01   -7.191E+01   -7.164E+01   -7.137E+01   -7.110E+01   -7.084E+01   -7.058E+01   -7.033E+01   -7.008E+01
    -6.983E+01   -6.959E+01   -6.935E+01   -6.912E+01   -6.889E+01   -6.867E+01   -6.845E+01   -6.823E+01   -6.802E+01   -6.782E+01
    -6.762E+01   -6.742E+01   -6.723E+01   -6.705E+01   -6.687E+01   -6.669E+01   -6.652E+01   -6.635E+01   -6.618E+01   -6.602E+01
    -6.586E+01   -6.570E+01   -6.554E+01   -6.539E+01   -6.524E+01   -6.509E+01   -6.494E+01   -6.479E+01   -6.464E+01   -6.449E+01
    -6.434E+01   -6.419E+01   -6.404E+01   -6.389E+01   -6.373E+01   -6.358E+01   -6.342E+01   -6.326E+01   -6.310E+01   -6.294E+01
    -6.277E+01   -6.260E+01   -6.243E+01   -6.225E+01   -6.207E+01   -6.189E+01   -6.170E+01   -6.150E+01   -6.131E+01   -6.110E+01
    -6.090E+01   -6.069E+01   -6.047E+01   -6.025E+01   -6.002E+01   -5.979E+01   -5.955E+01   -5.931E+01   -5.906E+01   -5.880E+01
    -5.854E+01   -5.827E+01   -5.799E+01   -5.771E+01   -5.742E+01   -5.713E+01   -5.682E+01   -5.651E+01   -5.619E+01   -5.587E+01
    -5.553E+01   -5.519E+01   -5.484E+01   -5.449E+01   -5.412E+01   -5.375E+01   -5.338E+01   -5.299E+01   -5.260E+01   -5.221E+01
    -5.181E+01   -5.141E+01   -5.100E+01   -5.059E+01   -5.017E+01   -4.975E+01   -4.933E+01   -4.891E+01   -4.848E+01   -4.805E+01
    -4.762E+01   -4.719E+01   -4.675E+01   -4.632E+01   -4.588E+01   -4.544E+01   -4.501E+01   -4.457E+01   -4.414E+01   -4.370E+01
    -4.327E+01   -4.284E+01   -4.241E+01   -4.198E+01   -4.156E+01   -4.113E+01   -4.071E+01   -4.029E+01   -3.987E+01   -3.946E+01
    -3.905E+01   -3.864E+01   -3.823E+01   -3.783E+01   -3.743E+01   -3.703E+01   -3.663E+01   -3.624E+01   -3.585E+01   -3.547E+01
    -3.509E+01   -3.471E+01   -3.434E+01   -3.397E+01   -3.360E+01   -3.324E+01   -3.289E+01   -3.253E+01   -3.219E+01   -3.184E+01
    -3.150E+01   -3.117E+01   -3.084E+01   -3.052E+01   -3.020E+01   -2.988E+01   -2.957E+01   -2.926E+01   -2.896E+01   -2.866E+01
    -2.837E+01   -2.808E+01   -2.780E+01   -2.751E+01   -2.724E+01   -2.697E+01   -2.670E+01   -2.643E+01   -2.617E+01   -2.591E+01
    -2.566E+01   -2.541E+01   -2.517E+01   -2.492E+01   -2.469E+01   -2.445E+01   -2.422E+01   -2.399E+01   -2.377E+01   -2.355E+01
    -2.333E+01   -2.311E+01   -2.290E+01   -2.269E+01   -2.249E+01   -2.229E+01   -2.209E+01   -2.190E+01   -2.171E+01   -2.153E+01
    -2.134E+01   -2.117E+01   -2.099E+01   -2.082E+01   -2.066E+01   -2.050E+01   -2.034E+01   -2.019E+01   -2.004E+01   -1.990E+01
    -1.976E+01   -1.963E+01   -1.950E+01   -1.938E+01   -1.926E+01   -1.914E+01   -1.903E+01   -1.893E+01   -1.883E+01   -1.874E+01
    -1.865E+01   -1.857E+01   -1.849E+01   -1.842E+01   -1.835E+01   -1.829E+01   -1.823E+01   -1.818E+01   -1.813E+01   -1.808E+01
    -1.804E+01   -1.800E+01   -1.796E+01   -1.793E+01   -1.790E+01   -1.788E+01   -1.785E+01   -1.783E+01   -1.781E+01   -1.780E+01
    -1.778E+01   -1.777E+01   -1.776E+01   -1.775E+01   -1.774E+01   -1.774E+01   -1.773E+01   -1.773E+01   -1.772E+01   -1.772E+01
    -1.772E+01   -1.771E+01   -1.771E+01   -1.771E+01   -1.771E+01   -1.772E+01   -1.773E+01   -1.774E+01   -1.776E+01   -1.778E+01
    -1.781E+01   -1.784E+01   -1.788E+01   -1.793E+01   -1.799E+01   -1.805E+01   -1.812E+01   -1.821E+01   -1.830E+01   -1.840E+01
    -1.852E+01   -1.864E+01   -1.878E+01   -1.893E+01   -1.910E+01   -1.927E+01   -1.947E+01   -1.967E+01   -1.990E+01   -2.014E+01
    -2.039E+01   -2.067E+01   -2.095E+01   -2.126E+01   -2.158E+01   -2.192E+01   -2.227E+01   -2.264E+01   -2.302E+01   -2.342E+01
    -2.383E+01   -2.426E+01   -2.470E+01   -2.516E+01   -2.563E+01   -2.611E+01   -2.660E+01   -2.711E+01   -2.763E+01   -2.817E+01
    -2.871E+01   -2.927E+01   -2.984E+01   -3.042E+01   -3.102E+01   -3.162E+01   -3.223E+01   -3.286E+01   -3.349E+01   -3.414E+01
    -3.479E+01   -3.546E+01   -3.613E+01   -3.681E+01   -3.750E+01   -3.819E+01   -3.889E+01   -3.958E+01   -4.029E+01   -4.099E+01
    -4.169E+01   -4.240E+01   -4.310E+01   -4.380E+01   -4.450E+01   -4.519E+01   -4.588E+01   -4.656E+01   -4.723E+01   -4.790E+01
    -4.856E+01   -4.921E+01   -4.984E+01   -5.047E+01   -5.108E+01   -5.168E+01   -5.226E+01   -5.283E+01   -5.339E+01   -5.392E+01
    -5.444E+01   -5.493E+01   -5.541E+01   -5.587E+01   -5.631E+01   -5.674E+01   -5.714E+01   -5.753E+01   -5.789E+01   -5.824E+01
    -5.857E+01   -5.888E+01   -5.917E+01   -5.944E+01   -5.970E+01   -5.993E+01   -6.015E+01   -6.034E+01   -6.052E+01   -6.068E+01
    -6.082E+01   -6.094E+01   -6.104E+01   -6.112E+01   -6.119E+01   -6.123E+01   -6.126E+01   -6.127E+01   -6.125E+01   -6.122E+01
    -6.117E+01   -6.110E+01   -6.101E+01   -6.091E+01   -6.079E+01   -6.064E+01   -6.049E+01   -6.031E+01   -6.013E+01   -5.992E+01
    -5.970E+01   -5.947E+01   -5.922E+01   -5.896E+01   -5.868E+01   -5.839E+01   -5.809E+01   -5.778E+01   -5.745E+01   -5.712E+01
    -5.677E+01   -5.641E+01   -5.605E+01   -5.567E+01   -5.528E+01   -5.489E+01   -5.448E+01   -5.407E+01   -5.365E+01   -5.323E+01
    -5.280E+01   -5.236E+01   -5.191E+01   -5.146E+01   -5.100E+01   -5.054E+01   -5.007E+01   -4.960E+01   -4.913E+01   -4.864E+01
    -4.816E+01   -4.767E+01   -4.717E+01   -4.668E+01   -4.618E+01   -4.567E+01   -4.517E+01   -4.466E+01   -4.415E+01   -4.363E+01
    -4.312E+01   -4.260E+01   -4.208E+01   -4.156E+01   -4.104E+01   -4.052E+01   -4.000E+01   -3.947E+01   -3.895E+01   -3.843E+01
    -3.791E+01   -3.739E+01   -3.687E+01   -3.635E+01   -3.583E+01   -3.531E+01   -3.479E+01   -3.427E+01   -3.375E+01   -3.324E+01
    -3.272E+01   -3.220E+01   -3.169E+01   -3.117E+01   -3.065E+01   -3.014E+01   -2.962E+01   -2.910E+01   -2.859E+01   -2.807E+01
    -2.756E+01   -2.704E+01   -2.653E+01   -2.601E+01   -2.550E+01   -2.498E+01   -2.447E+01   -2.395E+01   -2.343E+01   -2.292E+01
 Mac      Conc. = 3.46E-04
  -1.09556E+02 -1.09475E+02 -1.09700E+02 -1.10545E+02 -1.12162E+02 -1.14324E+02 -1.16528E+02 -1.18170E+02 -1.18905E+02 -1.18796E+02
  -1.18405E+02 -1.18622E+02 -1.20081E+02 -1.22281E+02 -1.23713E+02 -1.22637E+02 -1.18275E+02 -1.11737E+02 -1.05281E+02 -1.00193E+02
  -9.63118E+01 -9.36169E+01 -9.20500E+01 -9.08410E+01 -8.92239E+01 -8.69051E+01 -8.41319E+01 -8.13258E+01 -7.89041E+01 -7.71024E+01
  -7.58940E+01 -7.53387E+01 -7.54354E+01 -7.56350E+01 -7.48859E+01 -7.25777E+01 -6.92080E+01 -6.61935E+01 -6.47639E+01 -6.46970E+01
  -6.46731E+01 -6.36052E+01 -6.16191E+01 -5.95873E+01 -5.84054E+01 -5.84649E+01 -5.94512E+01 -6.09406E+01 -6.25679E+01 -6.39531E+01
  -6.49312E+01 -6.55661E+01 -6.59041E+01 -6.57392E+01 -6.49861E+01 -6.36142E+01 -6.16596E+01 -5.95260E+01 -5.75045E+01 -5.57140E+01
  -5.45277E+01 -5.44412E+01 -5.53222E+01 -5.65150E+01 -5.75663E+01 -5.82975E+01 -5.86590E+01 -5.84451E+01 -5.71150E+01 -5.43038E+01
  -5.06244E+01 -4.73654E+01 -4.54266E+01 -4.48222E+01 -4.52164E+01 -4.61704E+01 -4.72460E+01 -4.82139E+01 -4.88578E+01 -4.91054E+01
  -4.90096E+01 -4.84280E+01 -4.73307E+01 -4.59379E+01 -4.45837E+01 -4.33738E+01 -4.22763E+01 -4.13418E+01 -4.05641E+01 -3.98271E+01
  -3.92258E+01 -3.89960E+01 -3.94259E+01 -4.08527E+01 -4.33595E+01 -4.64561E+01 -4.94852E+01 -5.20494E+01 -5.41065E+01 -5.60434E+01
  -5.84802E+01 -6.19944E+01 -6.70686E+01 -7.39923E+01 -8.23636E+01 -9.06068E+01 -9.66100E+01 -9.88756E+01 -9.75475E+01 -9.39920E+01
