 LCModel (Version 6.3-1N) Copyright: S.W. Provencher.          Ref.: Magn. Reson. Med. 30:672-679 (1993).                
 Slice_N1@17_8  28-Feb-2025 11:38:13
 27 lines in following concentration table = NCONC+1
    Conc.  %SD /Cr+PCr  Metabolite                                         
 2.94E-04   4% 5.5E-04 Mac                                                 
    4.253  17%   8.000 Cr                                                  
    0.000 999%   0.000 PCr                                                 
    1.319  76%   2.481 Ins                                                 
    4.055  26%   7.627 NAA                                                 
    1.893  56%   3.561 Tau                                                 
    0.000 999%   0.000 PCho                                                
    0.000 999%   0.000 GPC                                                 
    5.449  21%  10.249 Glu                                                 
    2.407  37%   4.527 Gln                                                 
    0.000 999%   0.000 Ala                                                 
    0.749 191%   1.410 Asc                                                 
    2.010  39%   3.781 Asp                                                 
    0.000 999%   0.000 GABA                                                
    0.577  89%   1.085 Glc                                                 
    0.939  55%   1.767 GSH                                                 
    0.000 999%   0.000 Lac                                                 
    5.353  15%  10.070 NAAG                                                
    2.737  35%   5.148 PE                                                  
    0.000 999%   0.000 GPC+PCho                                            
    9.408  10%  17.697 NAA+NAAG                                            
    7.855  17%  14.776 Glu+Gln                                             
    4.253  17%   8.000 Cr+PCr                                              
    9.408  10%  17.697 NAA+NAAG                                            
    4.253  17%   8.000 Cr+PCr                                              
    7.855  17%  14.776 Glu+Gln                                             
   6 lines in following misc. output table
  FWHM = 0.065 ppm    S/N =   3                                            
  Data shift =-0.041 ppm                                                   
  Ph:-178 deg       0.0 deg/ppm                                            
  alphaB,S = 8.6E-01,   7.6E+01                                            
   19 spline knots.   Ns = 9(1)                                            
  (11) 2 infls.   (12) 2 extrs.                                            
  480 points on ppm-axis = NY
      4.100000     4.091866     4.083733     4.075600     4.067466     4.059333     4.051199     4.043066     4.034933     4.026799
      4.018666     4.010532     4.002399     3.994265     3.986132     3.977998     3.969864     3.961731     3.953597     3.945463
      3.937330     3.929196     3.921062     3.912929     3.904795     3.896662     3.888528     3.880394     3.872261     3.864127
      3.855993     3.847860     3.839726     3.831592     3.823459     3.815325     3.807191     3.799058     3.790924     3.782790
      3.774657     3.766523     3.758389     3.750256     3.742122     3.733989     3.725855     3.717721     3.709588     3.701454
      3.693320     3.685187     3.677053     3.668919     3.660786     3.652652     3.644518     3.636385     3.628251     3.620117
      3.611984     3.603850     3.595716     3.587583     3.579449     3.571316     3.563182     3.555048     3.546915     3.538781
      3.530647     3.522514     3.514380     3.506246     3.498113     3.489979     3.481845     3.473712     3.465578     3.457444
      3.449311     3.441177     3.433043     3.424910     3.416776     3.408643     3.400509     3.392375     3.384242     3.376108
      3.367974     3.359841     3.351707     3.343573     3.335440     3.327306     3.319172     3.311039     3.302905     3.294771
      3.286638     3.278504     3.270370     3.262237     3.254103     3.245970     3.237836     3.229702     3.221569     3.213435
      3.205301     3.197168     3.189034     3.180900     3.172767     3.164633     3.156499     3.148366     3.140232     3.132098
      3.123965     3.115831     3.107697     3.099564     3.091430     3.083297     3.075163     3.067029     3.058896     3.050762
      3.042628     3.034495     3.026361     3.018227     3.010094     3.001960     2.993826     2.985693     2.977559     2.969425
      2.961292     2.953158     2.945024     2.936891     2.928757     2.920624     2.912490     2.904356     2.896223     2.888089
      2.879955     2.871822     2.863688     2.855554     2.847421     2.839287     2.831153     2.823020     2.814886     2.806752
      2.798619     2.790485     2.782351     2.774218     2.766084     2.757951     2.749817     2.741683     2.733550     2.725416
      2.717282     2.709149     2.701015     2.692881     2.684748     2.676614     2.668480     2.660347     2.652213     2.644079
      2.635946     2.627812     2.619678     2.611545     2.603411     2.595278     2.587144     2.579010     2.570877     2.562743
      2.554609     2.546476     2.538342     2.530208     2.522075     2.513941     2.505807     2.497674     2.489540     2.481406
      2.473273     2.465139     2.457006     2.448872     2.440738     2.432605     2.424471     2.416337     2.408204     2.400070
      2.391936     2.383803     2.375669     2.367535     2.359402     2.351268     2.343134     2.335001     2.326867     2.318733
      2.310600     2.302466     2.294333     2.286199     2.278065     2.269932     2.261798     2.253664     2.245531     2.237397
      2.229263     2.221130     2.212996     2.204862     2.196729     2.188595     2.180461     2.172328     2.164194     2.156060
      2.147927     2.139793     2.131660     2.123526     2.115392     2.107259     2.099125     2.090991     2.082858     2.074724
      2.066590     2.058457     2.050323     2.042189     2.034056     2.025922     2.017788     2.009655     2.001521     1.993387
      1.985254     1.977120     1.968987     1.960853     1.952719     1.944586     1.936452     1.928318     1.920185     1.912051
      1.903917     1.895784     1.887650     1.879516     1.871383     1.863249     1.855115     1.846982     1.838848     1.830714
      1.822581     1.814447     1.806314     1.798180     1.790046     1.781913     1.773779     1.765645     1.757512     1.749378
      1.741244     1.733111     1.724977     1.716843     1.708710     1.700576     1.692442     1.684309     1.676175     1.668041
      1.659908     1.651774     1.643641     1.635507     1.627373     1.619240     1.611106     1.602972     1.594839     1.586705
      1.578571     1.570438     1.562304     1.554170     1.546037     1.537903     1.529769     1.521636     1.513502     1.505368
      1.497235     1.489101     1.480968     1.472834     1.464700     1.456567     1.448433     1.440299     1.432166     1.424032
      1.415898     1.407765     1.399631     1.391497     1.383364     1.375230     1.367096     1.358963     1.350829     1.342695
      1.334562     1.326428     1.318295     1.310161     1.302027     1.293894     1.285760     1.277626     1.269493     1.261359
      1.253225     1.245092     1.236958     1.228824     1.220691     1.212557     1.204423     1.196290     1.188156     1.180022
      1.171889     1.163755     1.155622     1.147488     1.139354     1.131221     1.123087     1.114953     1.106820     1.098686
      1.090552     1.082419     1.074285     1.066151     1.058018     1.049884     1.041750     1.033617     1.025483     1.017349
      1.009216     1.001082     0.992949     0.984815     0.976681     0.968548     0.960414     0.952280     0.944147     0.936013
      0.927879     0.919746     0.911612     0.903478     0.895345     0.887211     0.879077     0.870944     0.862810     0.854676
      0.846543     0.838409     0.830276     0.822142     0.814008     0.805875     0.797741     0.789607     0.781474     0.773340
      0.765206     0.757073     0.748939     0.740805     0.732672     0.724538     0.716404     0.708271     0.700137     0.692003
      0.683870     0.675736     0.667603     0.659469     0.651335     0.643202     0.635068     0.626934     0.618801     0.610667
      0.602533     0.594400     0.586266     0.578132     0.569999     0.561865     0.553731     0.545598     0.537464     0.529330
      0.521197     0.513063     0.504930     0.496796     0.488662     0.480529     0.472395     0.464261     0.456128     0.447994
      0.439861     0.431727     0.423593     0.415460     0.407326     0.399192     0.391059     0.382925     0.374792     0.366658
      0.358524     0.350391     0.342257     0.334124     0.325990     0.317856     0.309723     0.301589     0.293455     0.285322
      0.277188     0.269055     0.260921     0.252787     0.244654     0.236520     0.228386     0.220253     0.212119     0.203986
 NY phased data points follow
  -1.27625E+02 -1.29606E+02 -1.61810E+02 -1.43219E+02 -1.21923E+02 -1.30528E+02 -1.16653E+02 -1.53227E+02 -1.48839E+02 -1.42884E+02
  -1.48162E+02 -1.47951E+02 -1.71851E+02 -1.38054E+02 -1.36615E+02 -1.72319E+02 -1.58744E+02 -1.47326E+02 -1.63629E+02 -1.64011E+02
  -1.61322E+02 -1.57525E+02 -1.48861E+02 -1.46046E+02 -1.31156E+02 -1.40586E+02 -1.20053E+02 -1.05608E+02 -1.22096E+02 -1.02748E+02
  -1.07036E+02 -1.19116E+02 -1.23234E+02 -1.07316E+02 -1.06040E+02 -1.18367E+02 -1.05291E+02 -1.12852E+02 -1.27763E+02 -1.19855E+02
  -1.09348E+02 -1.37377E+02 -1.31434E+02 -1.22140E+02 -1.23531E+02 -9.93915E+01 -9.22093E+01 -7.82982E+01 -7.82497E+01 -8.77550E+01
  -8.90823E+01 -5.94386E+01 -6.88814E+01 -8.02526E+01 -7.45001E+01 -8.72708E+01 -6.07420E+01 -7.41789E+01 -5.75349E+01 -6.14736E+01
  -9.18931E+01 -6.95775E+01 -5.91350E+01 -4.97189E+01 -5.46914E+01 -5.18557E+01 -7.35572E+01 -7.93592E+01 -6.60938E+01 -7.31943E+01
  -7.77291E+01 -8.88712E+01 -8.64893E+01 -6.93755E+01 -5.39220E+01 -7.58876E+01 -8.68128E+01 -5.58931E+01 -3.87000E+01 -6.51932E+01
  -6.60897E+01 -6.83606E+01 -8.16501E+01 -6.46317E+01 -6.14892E+01 -3.95484E+01 -5.56210E+01 -7.14151E+01 -5.87824E+01 -6.14109E+01
  -5.58092E+01 -4.67509E+01 -5.67351E+01 -5.90457E+01 -3.52677E+01 -5.11054E+01 -2.52086E+01 -2.43409E+01 -3.21644E+01 -1.05929E+01
  -4.41517E+01 -4.74891E+01 -5.62269E+01 -5.36500E+01 -5.57960E+01 -6.44563E+01 -8.32357E+01 -1.10427E+02 -9.40404E+01 -1.08874E+02
  -1.27538E+02 -1.36491E+02 -1.29673E+02 -1.31945E+02 -1.34849E+02 -1.11771E+02 -1.01171E+02 -9.29235E+01 -1.09197E+02 -9.31804E+01
  -6.57073E+01 -8.64019E+01 -6.79935E+01 -3.34625E+01 -5.40564E+01 -5.62264E+01 -1.37664E+01 -1.83366E+01 -2.70328E+01  6.46585E+00
  -1.31482E+01 -4.42759E+01 -5.87037E+01 -8.34672E+01 -1.02403E+02 -1.17429E+02 -1.09031E+02 -1.32081E+02 -1.20584E+02 -9.57251E+01
  -1.29013E+02 -1.35768E+02 -1.43943E+02 -1.30232E+02 -1.13961E+02 -1.16492E+02 -1.11577E+02 -1.14628E+02 -1.04495E+02 -1.02788E+02
  -9.84879E+01 -8.44008E+01 -8.60017E+01 -8.57136E+01 -8.14182E+01 -8.75492E+01 -8.90495E+01 -9.45285E+01 -8.53823E+01 -7.43070E+01
  -8.48532E+01 -6.10940E+01 -5.53435E+01 -8.77419E+01 -7.17394E+01 -5.98080E+01 -7.97769E+01 -4.84955E+01 -2.74483E+01 -5.28156E+01
  -4.45915E+01 -2.23911E+01 -5.17047E+01 -5.54199E+01 -2.41851E+01 -4.63096E+01 -5.10386E+01 -5.00083E+01 -6.06495E+01 -7.25842E+01
  -6.49901E+01 -5.69034E+01 -8.92117E+01 -6.81977E+01 -9.30858E+01 -1.13198E+02 -7.96744E+01 -1.07025E+02 -8.94249E+01 -6.01132E+01
  -7.56630E+01 -8.02105E+01 -6.86873E+01 -4.87355E+01 -6.12716E+01 -7.95224E+01 -5.07969E+01 -3.69593E+01 -5.34200E+01 -5.23961E+01
  -3.24091E+01 -3.63395E+01 -6.65999E+01 -5.99052E+01 -4.73860E+01 -7.90605E+01 -9.80049E+01 -7.16223E+01 -7.91050E+01 -8.56756E+01
  -6.90533E+01 -6.70659E+01 -5.75971E+01 -7.42063E+01 -4.88927E+01 -2.73093E+01 -4.65434E+01 -3.30268E+01 -4.29819E+01 -4.90103E+01
  -3.83260E+01 -3.15036E+01 -3.41288E+01 -5.00189E+01 -4.52595E+01 -5.41777E+01 -5.87340E+01 -5.40448E+01 -6.11347E+01 -4.95285E+01
  -6.47873E+01 -7.04118E+01 -7.99558E+01 -9.51205E+01 -6.65244E+01 -8.81369E+01 -1.03703E+02 -8.43428E+01 -8.65158E+01 -9.76242E+01
  -1.00690E+02 -1.02902E+02 -8.64863E+01 -8.50755E+01 -1.09608E+02 -7.91033E+01 -9.30730E+01 -9.62104E+01 -8.42720E+01 -1.07632E+02
  -1.05009E+02 -1.13181E+02 -8.69893E+01 -8.86576E+01 -9.45846E+01 -7.77632E+01 -5.32916E+01 -2.00413E+01 -1.01008E+01  3.31402E+01
   6.18204E+01  7.12195E+01  7.38873E+01  6.41168E+01  5.62879E+01  5.99260E+01  6.04353E+01  5.91533E+01  6.35002E+01  5.08366E+01
   4.48936E+01  3.53368E+01  4.00056E+01  1.45120E+01  1.13646E+01  5.10374E+01  2.13118E+01  1.64264E+01  3.66321E+01  2.77840E+01
   9.30708E+00 -7.96084E-01  2.76702E+01  1.35610E+01  2.20147E+00  3.32724E+01  1.41741E+01  1.73414E+00 -5.14920E+00  1.43325E+00
   1.39695E+01  4.15686E-01  3.99289E+00 -1.30200E+01 -1.52498E+01 -1.49731E+01 -9.50321E+00 -1.57133E+00 -2.56178E+00  1.02996E+01
   1.80704E+00 -8.14230E+00 -1.66766E+01 -1.09796E+00 -9.45887E+00 -1.28474E+01 -3.81455E+00 -3.85489E+00  1.57906E+01  5.15336E+00
   3.75928E-01 -1.84641E+01 -7.81093E+00 -1.51349E+01 -5.48381E+01 -2.99631E+01 -2.28474E+01 -7.10764E+00  1.61789E+01  1.18940E+01
   5.08142E+00  3.84917E+00  4.77058E+01  7.34405E+01  4.22610E+01  5.45819E+01  4.79894E+01  1.15472E+01  1.07188E+01 -3.66058E+01
  -4.99500E+01 -3.83947E+01 -6.78773E+01 -7.17600E+01 -7.03914E+01 -6.42371E+01 -5.65110E+01 -4.63642E+01 -3.73829E+01 -4.58380E+01
  -3.43132E+01 -3.17065E+01 -2.61084E+01 -5.07107E+00 -2.05582E+01 -1.25892E+01  1.16143E+00 -6.04460E+00  5.92146E+00 -5.19923E+00
  -1.40899E+01 -1.74916E-01 -1.70901E+00  2.27089E+00 -4.94106E+00 -2.20007E+01 -2.75742E+01 -3.24987E+01 -2.03019E+01 -4.58192E+01
  -3.94247E+01 -2.74937E+01 -5.96300E+01 -4.75342E+01 -3.53075E+01 -4.29749E+00 -1.43638E+01  2.41887E+00  1.21571E+01 -2.05543E+01
   2.23897E+01  2.91707E+01  1.92038E+01  5.76688E+00  3.86234E+01  4.06021E+01  1.91523E+01  6.15490E+01  5.54288E+01  4.04074E+01
   4.48314E+01  6.64315E+01  5.73783E+01  6.59696E+01  6.92145E+01  9.20594E+01  9.64667E+01  6.95015E+01  1.18335E+02  7.66502E+01
   7.96479E+01  9.89971E+01  7.29861E+01  7.91041E+01  5.32948E+01  6.79065E+01  6.71179E+01  4.73892E+01  4.58269E+01  4.62814E+01
   1.96886E+01  2.10142E+01  2.18008E+01 -5.08049E+00 -1.81373E+00 -2.81170E+01 -2.46700E+01 -9.08168E+00 -2.90959E+01 -4.78497E+01
  -2.73087E+01 -9.72581E+00 -3.70009E+01 -5.00021E+01 -4.78941E+01 -4.47702E+01 -3.96339E+01 -3.64426E+01 -4.50486E+01 -3.39089E+01
  -3.95750E+01 -5.35949E+01 -5.26294E+01 -4.45476E+01 -1.68039E+01 -4.50056E+01 -5.19315E+01 -2.54869E+01 -2.19916E+01 -1.00329E+01
  -2.86011E+01 -4.69281E+01 -3.54073E+01 -2.42220E+01 -4.04032E+01 -3.97556E+01 -2.11189E+01 -2.86746E+01 -1.93005E+01 -3.28307E+01
  -2.24934E+01 -1.29033E+01 -4.13735E+01 -2.72621E+01 -4.10183E+01 -1.88267E+01 -1.02889E+01 -3.23760E+01 -3.10458E+01 -2.91873E+01
  -1.33064E+01 -5.17251E+01 -3.52175E+01 -3.44270E+01 -3.99797E+01 -1.84670E+01 -3.05929E+01 -2.01366E+01 -3.97778E+01 -1.33737E+01
  -2.09782E+01 -4.12006E+01 -2.19633E+01 -2.20030E+01 -2.57129E+01 -3.15536E+01 -8.82560E+00 -2.28879E+01 -2.12853E+01 -2.17156E+01
  -1.90021E+01 -7.95882E+00 -3.61769E+01 -3.44867E+01 -2.50100E+01 -2.91597E+01 -2.56048E+01 -1.36333E+01 -1.65311E+01  9.75999E-02
 NY points of the fit to the data follow
  -1.30191E+02 -1.29011E+02 -1.28648E+02 -1.29025E+02 -1.30031E+02 -1.31539E+02 -1.33493E+02 -1.35968E+02 -1.39028E+02 -1.42585E+02
  -1.46271E+02 -1.49569E+02 -1.51678E+02 -1.52554E+02 -1.53137E+02 -1.53777E+02 -1.54493E+02 -1.55113E+02 -1.55354E+02 -1.54841E+02
  -1.53165E+02 -1.50013E+02 -1.45340E+02 -1.39280E+02 -1.32057E+02 -1.24080E+02 -1.15943E+02 -1.08286E+02 -1.01620E+02 -9.62307E+01
  -9.21109E+01 -8.89398E+01 -8.67118E+01 -8.55099E+01 -8.54988E+01 -8.70324E+01 -9.03207E+01 -9.51409E+01 -1.00834E+02 -1.06517E+02
  -1.11269E+02 -1.14366E+02 -1.15318E+02 -1.13977E+02 -1.10573E+02 -1.05623E+02 -9.97893E+01 -9.37379E+01 -8.81357E+01 -8.34824E+01
  -7.99620E+01 -7.76672E+01 -7.64476E+01 -7.59320E+01 -7.58401E+01 -7.60072E+01 -7.62807E+01 -7.65621E+01 -7.67546E+01 -7.67391E+01
  -7.63814E+01 -7.56535E+01 -7.47468E+01 -7.38250E+01 -7.30093E+01 -7.24249E+01 -7.21666E+01 -7.21893E+01 -7.23265E+01 -7.24292E+01
  -7.23644E+01 -7.19571E+01 -7.10466E+01 -6.96659E+01 -6.78098E+01 -6.56508E+01 -6.34607E+01 -6.15801E+01 -6.03886E+01 -6.01093E+01
  -6.07886E+01 -6.22535E+01 -6.41796E+01 -6.62090E+01 -6.79797E+01 -6.91376E+01 -6.94471E+01 -6.88283E+01 -6.73463E+01 -6.51931E+01
  -6.26511E+01 -6.00078E+01 -5.75810E+01 -5.55383E+01 -5.38139E+01 -5.24139E+01 -5.10932E+01 -4.98521E+01 -4.86693E+01 -4.77479E+01
  -4.74093E+01 -4.80640E+01 -5.02399E+01 -5.43739E+01 -6.05902E+01 -6.86616E+01 -7.80218E+01 -8.78739E+01 -9.73084E+01 -1.05448E+02
  -1.11620E+02 -1.15443E+02 -1.16832E+02 -1.15998E+02 -1.13389E+02 -1.09527E+02 -1.04980E+02 -1.00136E+02 -9.51358E+01 -8.98503E+01
  -8.43276E+01 -7.90585E+01 -7.29302E+01 -6.45220E+01 -5.41054E+01 -4.28564E+01 -3.23081E+01 -2.40951E+01 -1.96788E+01 -2.00503E+01
  -2.53886E+01 -3.49833E+01 -4.76276E+01 -6.18964E+01 -7.62453E+01 -8.92325E+01 -9.98727E+01 -1.07805E+02 -1.13112E+02 -1.16156E+02
  -1.17420E+02 -1.17443E+02 -1.17053E+02 -1.16655E+02 -1.16111E+02 -1.15302E+02 -1.14212E+02 -1.12853E+02 -1.11230E+02 -1.09312E+02
  -1.07120E+02 -1.04756E+02 -1.02409E+02 -1.00166E+02 -9.79639E+01 -9.58008E+01 -9.37735E+01 -9.19706E+01 -9.03351E+01 -8.86798E+01
  -8.69280E+01 -8.52215E+01 -8.38277E+01 -8.29085E+01 -8.21231E+01 -8.10503E+01 -7.94636E+01 -7.72841E+01 -7.47125E+01 -7.19905E+01
  -6.92225E+01 -6.66239E+01 -6.43569E+01 -6.25930E+01 -6.15204E+01 -6.12759E+01 -6.18983E+01 -6.33570E+01 -6.55550E+01 -6.83363E+01
  -7.14537E+01 -7.47463E+01 -7.79893E+01 -8.07811E+01 -8.30752E+01 -8.48909E+01 -8.60304E+01 -8.62549E+01 -8.54616E+01 -8.39169E+01
  -8.18548E+01 -7.92622E+01 -7.62212E+01 -7.29892E+01 -6.98052E+01 -6.68332E+01 -6.42067E+01 -6.20938E+01 -6.05926E+01 -5.96340E+01
  -5.91381E+01 -5.90513E+01 -5.92790E+01 -5.98783E+01 -6.10007E+01 -6.25765E+01 -6.49967E+01 -6.81443E+01 -7.15471E+01 -7.47797E+01
  -7.71356E+01 -7.80256E+01 -7.71114E+01 -7.43504E+01 -7.00169E+01 -6.46024E+01 -5.86607E+01 -5.27206E+01 -4.72289E+01 -4.24937E+01
  -3.86552E+01 -3.57842E+01 -3.38991E+01 -3.29559E+01 -3.32488E+01 -3.48724E+01 -3.81425E+01 -4.35788E+01 -5.10090E+01 -6.03176E+01
  -7.09343E+01 -8.17418E+01 -9.15785E+01 -9.95772E+01 -1.05001E+02 -1.07681E+02 -1.07706E+02 -1.05448E+02 -1.01523E+02 -9.64584E+01
  -9.10031E+01 -8.56002E+01 -8.04247E+01 -7.52162E+01 -7.18506E+01 -7.25199E+01 -7.68015E+01 -8.29411E+01 -8.99698E+01 -9.73636E+01
  -1.03491E+02 -1.06391E+02 -1.04634E+02 -9.76150E+01 -8.53328E+01 -6.82880E+01 -4.79194E+01 -2.63069E+01 -5.37939E+00  1.33719E+01
   2.88179E+01  4.00767E+01  4.69582E+01  4.98728E+01  4.99849E+01  4.81726E+01  4.47717E+01  4.03860E+01  3.59050E+01  3.20338E+01
   2.88759E+01  2.64659E+01  2.48055E+01  2.38533E+01  2.35301E+01  2.36998E+01  2.41746E+01  2.47794E+01  2.53357E+01  2.57186E+01
   2.58544E+01  2.56859E+01  2.51890E+01  2.43651E+01  2.32007E+01  2.16383E+01  1.96368E+01  1.71291E+01  1.41139E+01  1.06542E+01
   6.89483E+00  3.02621E+00 -7.02802E-01 -4.03298E+00 -6.73512E+00 -8.63415E+00 -9.62144E+00 -9.69117E+00 -8.93538E+00 -7.49752E+00
  -5.54351E+00 -3.21635E+00 -6.49536E-01  2.04342E+00  4.79227E+00  7.57546E+00  1.03734E+01  1.31718E+01  1.59767E+01  1.87808E+01
   2.15339E+01  2.41767E+01  2.66424E+01  2.88413E+01  3.06938E+01  3.21017E+01  3.30280E+01  3.35006E+01  3.35505E+01  3.31504E+01
   3.22263E+01  3.06559E+01  2.82549E+01  2.48319E+01  2.01996E+01  1.42709E+01  7.11339E+00 -1.00639E+00 -9.64146E+00 -1.82117E+01
  -2.60886E+01 -3.27700E+01 -3.79274E+01 -4.13978E+01 -4.32367E+01 -4.35921E+01 -4.26888E+01 -4.07785E+01 -3.81077E+01 -3.48977E+01
  -3.13116E+01 -2.74922E+01 -2.35561E+01 -1.95986E+01 -1.57308E+01 -1.21467E+01 -9.08505E+00 -6.80927E+00 -5.55060E+00 -5.44955E+00
  -6.53016E+00 -8.67018E+00 -1.16165E+01 -1.50554E+01 -1.85887E+01 -2.18435E+01 -2.44832E+01 -2.62478E+01 -2.69996E+01 -2.67141E+01
  -2.54704E+01 -2.34163E+01 -2.07456E+01 -1.76730E+01 -1.43789E+01 -1.10271E+01 -7.70493E+00 -4.46796E+00 -1.34206E+00  1.67777E+00
   4.66204E+00  7.68952E+00  1.08333E+01  1.41825E+01  1.78400E+01  2.19345E+01  2.66328E+01  3.21050E+01  3.85624E+01  4.61125E+01
   5.46809E+01  6.39128E+01  7.32379E+01  8.19469E+01  8.92607E+01  9.45212E+01  9.73114E+01  9.75298E+01  9.53098E+01  9.10095E+01
   8.50815E+01  7.79853E+01  7.00961E+01  6.17188E+01  5.30414E+01  4.41887E+01  3.52283E+01  2.62550E+01  1.73905E+01  8.81993E+00
   7.56440E-01 -6.59091E+00 -1.30641E+01 -1.85705E+01 -2.30781E+01 -2.66579E+01 -2.94382E+01 -3.15554E+01 -3.31184E+01 -3.42570E+01
  -3.50918E+01 -3.56772E+01 -3.60527E+01 -3.62641E+01 -3.63516E+01 -3.63367E+01 -3.62288E+01 -3.60500E+01 -3.58340E+01 -3.56118E+01
  -3.53870E+01 -3.51549E+01 -3.49049E+01 -3.46352E+01 -3.43284E+01 -3.39971E+01 -3.36515E+01 -3.33083E+01 -3.29839E+01 -3.26728E+01
  -3.23695E+01 -3.20774E+01 -3.17937E+01 -3.14951E+01 -3.11719E+01 -3.08095E+01 -3.04147E+01 -3.00091E+01 -2.95985E+01 -2.92031E+01
  -2.88431E+01 -2.85094E+01 -2.81998E+01 -2.79114E+01 -2.76448E+01 -2.73815E+01 -2.71249E+01 -2.68559E+01 -2.65754E+01 -2.62747E+01
  -2.59637E+01 -2.56271E+01 -2.52619E+01 -2.48724E+01 -2.44617E+01 -2.40406E+01 -2.36232E+01 -2.32333E+01 -2.29033E+01 -2.26297E+01
  -2.23948E+01 -2.21635E+01 -2.19070E+01 -2.16087E+01 -2.12715E+01 -2.09012E+01 -2.05174E+01 -2.01505E+01 -1.98034E+01 -1.94745E+01
  -1.91823E+01 -1.89339E+01 -1.87382E+01 -1.85996E+01 -1.85136E+01 -1.84617E+01 -1.84153E+01 -1.83420E+01 -1.82080E+01 -1.79806E+01
 NY background values follow
    -1.112E+02   -1.108E+02   -1.104E+02   -1.101E+02   -1.097E+02   -1.093E+02   -1.090E+02   -1.086E+02   -1.082E+02   -1.079E+02
    -1.075E+02   -1.071E+02   -1.068E+02   -1.064E+02   -1.060E+02   -1.057E+02   -1.053E+02   -1.049E+02   -1.046E+02   -1.042E+02
    -1.038E+02   -1.035E+02   -1.031E+02   -1.027E+02   -1.024E+02   -1.020E+02   -1.016E+02   -1.013E+02   -1.009E+02   -1.005E+02
    -1.002E+02   -9.979E+01   -9.942E+01   -9.905E+01   -9.869E+01   -9.832E+01   -9.796E+01   -9.759E+01   -9.722E+01   -9.686E+01
    -9.649E+01   -9.613E+01   -9.576E+01   -9.540E+01   -9.504E+01   -9.467E+01   -9.431E+01   -9.394E+01   -9.358E+01   -9.322E+01
    -9.285E+01   -9.249E+01   -9.213E+01   -9.177E+01   -9.141E+01   -9.105E+01   -9.069E+01   -9.033E+01   -8.997E+01   -8.961E+01
    -8.925E+01   -8.889E+01   -8.853E+01   -8.817E+01   -8.782E+01   -8.746E+01   -8.710E+01   -8.675E+01   -8.639E+01   -8.604E+01
    -8.569E+01   -8.533E+01   -8.498E+01   -8.463E+01   -8.428E+01   -8.393E+01   -8.358E+01   -8.323E+01   -8.288E+01   -8.253E+01
    -8.218E+01   -8.184E+01   -8.149E+01   -8.114E+01   -8.080E+01   -8.046E+01   -8.011E+01   -7.977E+01   -7.943E+01   -7.909E+01
    -7.875E+01   -7.841E+01   -7.807E+01   -7.773E+01   -7.740E+01   -7.706E+01   -7.673E+01   -7.639E+01   -7.606E+01   -7.573E+01
    -7.539E+01   -7.506E+01   -7.473E+01   -7.441E+01   -7.408E+01   -7.375E+01   -7.342E+01   -7.310E+01   -7.277E+01   -7.245E+01
    -7.213E+01   -7.181E+01   -7.149E+01   -7.117E+01   -7.085E+01   -7.053E+01   -7.021E+01   -6.990E+01   -6.958E+01   -6.927E+01
    -6.896E+01   -6.864E+01   -6.833E+01   -6.802E+01   -6.772E+01   -6.741E+01   -6.710E+01   -6.680E+01   -6.649E+01   -6.619E+01
    -6.589E+01   -6.558E+01   -6.528E+01   -6.498E+01   -6.469E+01   -6.439E+01   -6.409E+01   -6.380E+01   -6.351E+01   -6.322E+01
    -6.292E+01   -6.264E+01   -6.235E+01   -6.206E+01   -6.177E+01   -6.149E+01   -6.121E+01   -6.092E+01   -6.064E+01   -6.036E+01
    -6.009E+01   -5.981E+01   -5.953E+01   -5.926E+01   -5.899E+01   -5.871E+01   -5.844E+01   -5.818E+01   -5.791E+01   -5.764E+01
    -5.738E+01   -5.711E+01   -5.685E+01   -5.659E+01   -5.633E+01   -5.607E+01   -5.582E+01   -5.556E+01   -5.531E+01   -5.506E+01
    -5.481E+01   -5.456E+01   -5.431E+01   -5.406E+01   -5.382E+01   -5.357E+01   -5.333E+01   -5.309E+01   -5.285E+01   -5.261E+01
    -5.238E+01   -5.214E+01   -5.191E+01   -5.168E+01   -5.145E+01   -5.122E+01   -5.099E+01   -5.077E+01   -5.054E+01   -5.032E+01
    -5.010E+01   -4.988E+01   -4.966E+01   -4.944E+01   -4.922E+01   -4.901E+01   -4.879E+01   -4.858E+01   -4.837E+01   -4.816E+01
    -4.795E+01   -4.775E+01   -4.754E+01   -4.734E+01   -4.713E+01   -4.693E+01   -4.673E+01   -4.653E+01   -4.633E+01   -4.614E+01
    -4.594E+01   -4.575E+01   -4.555E+01   -4.536E+01   -4.517E+01   -4.498E+01   -4.479E+01   -4.461E+01   -4.442E+01   -4.424E+01
    -4.405E+01   -4.387E+01   -4.369E+01   -4.351E+01   -4.333E+01   -4.315E+01   -4.298E+01   -4.280E+01   -4.263E+01   -4.245E+01
    -4.228E+01   -4.211E+01   -4.194E+01   -4.177E+01   -4.160E+01   -4.144E+01   -4.127E+01   -4.110E+01   -4.094E+01   -4.078E+01
    -4.061E+01   -4.045E+01   -4.029E+01   -4.013E+01   -3.997E+01   -3.981E+01   -3.966E+01   -3.950E+01   -3.935E+01   -3.919E+01
    -3.904E+01   -3.889E+01   -3.873E+01   -3.858E+01   -3.843E+01   -3.828E+01   -3.813E+01   -3.799E+01   -3.784E+01   -3.769E+01
    -3.755E+01   -3.740E+01   -3.726E+01   -3.711E+01   -3.697E+01   -3.683E+01   -3.668E+01   -3.654E+01   -3.640E+01   -3.626E+01
    -3.612E+01   -3.598E+01   -3.585E+01   -3.571E+01   -3.557E+01   -3.543E+01   -3.530E+01   -3.516E+01   -3.503E+01   -3.489E+01
    -3.476E+01   -3.462E+01   -3.449E+01   -3.436E+01   -3.423E+01   -3.409E+01   -3.396E+01   -3.383E+01   -3.370E+01   -3.357E+01
    -3.343E+01   -3.330E+01   -3.317E+01   -3.304E+01   -3.291E+01   -3.278E+01   -3.265E+01   -3.252E+01   -3.239E+01   -3.226E+01
    -3.213E+01   -3.200E+01   -3.187E+01   -3.174E+01   -3.161E+01   -3.148E+01   -3.135E+01   -3.122E+01   -3.109E+01   -3.096E+01
    -3.083E+01   -3.070E+01   -3.057E+01   -3.044E+01   -3.031E+01   -3.018E+01   -3.005E+01   -2.992E+01   -2.979E+01   -2.966E+01
    -2.953E+01   -2.940E+01   -2.927E+01   -2.914E+01   -2.901E+01   -2.888E+01   -2.875E+01   -2.862E+01   -2.848E+01   -2.835E+01
    -2.822E+01   -2.809E+01   -2.796E+01   -2.783E+01   -2.770E+01   -2.756E+01   -2.743E+01   -2.730E+01   -2.717E+01   -2.704E+01
    -2.690E+01   -2.677E+01   -2.664E+01   -2.651E+01   -2.637E+01   -2.624E+01   -2.611E+01   -2.598E+01   -2.584E+01   -2.571E+01
    -2.558E+01   -2.545E+01   -2.531E+01   -2.518E+01   -2.505E+01   -2.491E+01   -2.478E+01   -2.465E+01   -2.452E+01   -2.438E+01
    -2.425E+01   -2.412E+01   -2.399E+01   -2.385E+01   -2.372E+01   -2.359E+01   -2.346E+01   -2.332E+01   -2.319E+01   -2.306E+01
    -2.293E+01   -2.279E+01   -2.266E+01   -2.253E+01   -2.240E+01   -2.227E+01   -2.214E+01   -2.201E+01   -2.187E+01   -2.174E+01
    -2.161E+01   -2.148E+01   -2.135E+01   -2.122E+01   -2.109E+01   -2.096E+01   -2.083E+01   -2.070E+01   -2.057E+01   -2.044E+01
    -2.032E+01   -2.019E+01   -2.006E+01   -1.993E+01   -1.980E+01   -1.967E+01   -1.955E+01   -1.942E+01   -1.929E+01   -1.916E+01
    -1.904E+01   -1.891E+01   -1.879E+01   -1.866E+01   -1.853E+01   -1.841E+01   -1.828E+01   -1.816E+01   -1.803E+01   -1.791E+01
    -1.778E+01   -1.766E+01   -1.753E+01   -1.741E+01   -1.728E+01   -1.716E+01   -1.704E+01   -1.691E+01   -1.679E+01   -1.667E+01
    -1.654E+01   -1.642E+01   -1.630E+01   -1.617E+01   -1.605E+01   -1.593E+01   -1.581E+01   -1.569E+01   -1.556E+01   -1.544E+01
    -1.532E+01   -1.520E+01   -1.508E+01   -1.496E+01   -1.483E+01   -1.471E+01   -1.459E+01   -1.447E+01   -1.435E+01   -1.423E+01
    -1.411E+01   -1.399E+01   -1.387E+01   -1.375E+01   -1.363E+01   -1.351E+01   -1.339E+01   -1.327E+01   -1.315E+01   -1.303E+01
    -1.291E+01   -1.279E+01   -1.267E+01   -1.255E+01   -1.243E+01   -1.231E+01   -1.219E+01   -1.207E+01   -1.195E+01   -1.183E+01
    -1.171E+01   -1.159E+01   -1.147E+01   -1.135E+01   -1.123E+01   -1.111E+01   -1.099E+01   -1.087E+01   -1.075E+01   -1.063E+01
    -1.051E+01   -1.039E+01   -1.027E+01   -1.015E+01   -1.003E+01   -9.909E+00   -9.789E+00   -9.669E+00   -9.549E+00   -9.429E+00
 Mac      Conc. = 2.94E-04
  -1.30392E+02 -1.30441E+02 -1.30632E+02 -1.31007E+02 -1.31561E+02 -1.32229E+02 -1.32923E+02 -1.33643E+02 -1.34507E+02 -1.35550E+02
  -1.36738E+02 -1.38030E+02 -1.39301E+02 -1.40343E+02 -1.40920E+02 -1.40860E+02 -1.40066E+02 -1.38531E+02 -1.36337E+02 -1.33634E+02
  -1.30600E+02 -1.27416E+02 -1.24242E+02 -1.21182E+02 -1.18295E+02 -1.15582E+02 -1.13041E+02 -1.10692E+02 -1.08575E+02 -1.06729E+02
  -1.05116E+02 -1.03667E+02 -1.02329E+02 -1.01057E+02 -9.98359E+01 -9.86286E+01 -9.74035E+01 -9.61226E+01 -9.47558E+01 -9.32896E+01
  -9.17396E+01 -9.01613E+01 -8.86179E+01 -8.71974E+01 -8.59926E+01 -8.50687E+01 -8.44674E+01 -8.42186E+01 -8.43188E+01 -8.47067E+01
  -8.53143E+01 -8.60440E+01 -8.67350E+01 -8.72284E+01 -8.73831E+01 -8.71208E+01 -8.64480E+01 -8.54336E+01 -8.41830E+01 -8.28198E+01
  -8.15113E+01 -8.04410E+01 -7.97243E+01 -7.93732E+01 -7.93297E+01 -7.94388E+01 -7.95233E+01 -7.93856E+01 -7.88856E+01 -7.79873E+01
  -7.67233E+01 -7.51879E+01 -7.35320E+01 -7.19390E+01 -7.05774E+01 -6.95445E+01 -6.88712E+01 -6.85396E+01 -6.84710E+01 -6.85449E+01
  -6.86302E+01 -6.86034E+01 -6.83937E+01 -6.79683E+01 -6.73243E+01 -6.64620E+01 -6.54035E+01 -6.41911E+01 -6.28887E+01 -6.15886E+01
  -6.04260E+01 -5.95122E+01 -5.89261E+01 -5.87134E+01 -5.88699E+01 -5.93467E+01 -6.00329E+01 -6.08573E+01 -6.18626E+01 -6.31963E+01
  -6.50484E+01 -6.75877E+01 -7.09218E+01 -7.50265E+01 -7.97081E+01 -8.46639E+01 -8.95115E+01 -9.38777E+01 -9.74265E+01 -9.99041E+01
