 
 $NMID
 ID=''
 FMTDAT='(2E13.5)'
 TRAMP=   1.00000E+0
 VOLUME=   1.00000E+0
 $END
  -9.21442E+3   1.81776E+2
  -1.22388E+4   6.17015E+3
   3.79438E+3   1.78348E+4
   1.55023E+4   1.04328E+4
   1.11382E+4  -9.23454E+3
   9.09196E+2  -1.70772E+4
  -1.01591E+4  -6.74227E+3
  -1.26525E+4   8.64660E+3
   1.73007E+3   1.38891E+4
   1.28067E+4   6.09431E+3
   5.24077E+3  -6.49956E+3
  -5.99827E+3  -1.02054E+4
  -6.80379E+3  -2.26514E+3
  -3.73832E+3   6.71208E+3
   1.38023E+2   4.89371E+3
   5.27197E+3  -2.23493E+3
   5.45219E+3  -3.37697E+3
  -9.05661E+2  -1.03318E+3
  -4.28623E+3   3.34446E+1
  -1.83812E+3   1.65760E+3
   2.56420E+3   1.91976E+3
   3.33229E+3  -2.47730E+2
   5.42614E+2  -8.53368E+2
  -2.09124E+3  -8.98011E+2
  -9.09886E+2  -9.26078E+2
   1.80250E+3   8.27545E+2
   1.20947E+3   2.53175E+3
  -9.03410E+2  -5.44746E+1
   2.18562E+2  -1.94772E+3
   1.22846E+3   4.11200E+2
  -7.19954E+2   1.74808E+3
  -1.48050E+3  -4.43648E+2
   3.00912E+2  -1.47415E+3
   3.03308E+2  -3.46274E+2
  -5.33154E+2  -1.29423E+3
   1.02523E+3  -1.48528E+3
   1.60060E+3   9.76455E+2
  -8.63310E+2   2.17032E+3
  -1.13619E+3  -2.80421E+2
   2.85626E+2  -6.16747E+2
  -1.22713E+2  -6.40524E+1
  -8.72378E+2  -5.52829E+2
   2.16240E+2  -9.44837E+2
   1.45434E+3  -6.39066E+1
   1.05346E+3   9.87550E+2
   2.10242E+2   1.10111E+3
  -6.63615E+2   1.13225E+3
  -1.50515E+3   1.58339E+2
  -9.50955E+2  -9.54365E+2
  -2.19338E+2  -7.36284E+2
   5.20173E+1  -5.05473E+2
   5.50874E+2  -6.36863E+2
   6.87959E+2  -9.64438E+1
   1.34839E+2   5.52558E+2
  -3.53664E+2   8.34305E+2
  -1.26773E+2   4.32595E+2
  -4.70346E+2  -2.59261E+2
  -6.79501E+2  -9.18789E+2
   4.50660E+2  -8.95215E+2
   1.07640E+3   4.22920E+2
   8.14399E+2   9.14451E+2
   1.23768E+2   7.92839E+2
  -1.57449E+2   6.51462E+2
  -9.18040E+2   9.82974E+2
  -1.62878E+3   3.94227E+2
  -1.03868E+3  -9.30320E+2
   5.41202E+2  -1.28508E+3
   1.09443E+3  -8.03330E+2
   7.21676E+2  -6.11866E+0
  -8.34167E+1   3.89594E+2
   9.05623E+1   5.43196E+1
   5.78663E+2   6.01898E+1
   7.71971E+2   4.19452E+2
   1.98880E+2   5.69754E+2
  -8.19675E+2   4.99025E+2
  -1.19408E+2   4.21012E+1
   1.80181E+2   2.77966E+2
   3.58384E+2   4.05832E+2
  -2.51405E+2   2.28470E+2
  -5.71296E+2   5.60945E+1
  -5.71696E+2  -1.62744E+2
   3.36143E+0  -2.17514E+2
   1.43770E+2   1.75797E+2
  -4.25497E+0  -6.10072E+1
  -1.11944E+2  -5.64348E+2
   1.74384E+2  -4.36486E+2
   6.81778E+2   5.46455E+1
   3.62644E+2   5.70532E+2
   1.73294E+2   8.22507E+1
   1.57644E+2  -8.05887E+1
   3.02326E+2   3.60184E+2
   2.60471E+2   5.30482E+2
  -4.86341E+2   6.91422E+2
  -8.16259E+2  -1.71380E+2
  -4.25352E+2  -7.89584E+2
   3.07733E+2  -7.28792E+2
   4.15020E+2  -3.19123E+2
  -2.12637E+2  -4.60187E+1
  -2.29080E+2  -2.06670E+2
   5.98696E+2  -6.76569E+2
   7.92542E+2   2.59518E+2
  -1.67340E+2   1.12978E+3
  -6.49161E+2   3.08246E+1
  -2.07874E+2  -8.94090E+2
   5.04116E+2  -2.38103E+2
   3.25682E+2   1.79521E+2
   7.29898E+1   2.83051E+2
  -1.04075E+3  -1.72258E+2
  -7.99508E+2  -5.83262E+2
   3.30125E+2  -9.55910E+2
   1.02204E+3  -2.88944E+2
   6.68121E+2   1.39489E+2
  -1.24567E+2   4.52653E+2
  -3.77612E+2   1.05336E+2
   1.46739E+2   3.63392E+1
  -1.92505E+2   3.61957E+2
  -7.20568E+2   5.33599E+2
  -8.66639E+2  -3.33535E+2
  -2.47712E+2  -8.46063E+2
   3.09979E+2  -5.81239E+2
   6.45070E+2  -9.88914E+1
   4.49066E+2   2.57656E+2
   3.89383E+1   2.50986E+2
  -1.76349E+2   3.44399E+2
  -5.41083E+2   1.07876E+2
  -5.55451E+2  -3.17968E+1
  -2.10200E+2  -2.76575E+2
   1.03897E+2  -1.65419E+2
   1.87842E+2  -1.74552E+2
   6.23971E+1   2.36958E+2
  -4.72532E+2   5.01729E+2
  -5.69638E+2   7.94624E+1
  -2.79492E+2  -2.44486E+2
  -6.37031E+1  -2.24177E+2
  -2.45575E+2   1.29017E+2
  -4.15331E+2  -6.68021E+1
   9.50671E+1  -2.71854E+2
   5.78120E+2   3.82053E+2
   2.47772E+2   6.29308E+2
  -4.11360E+2   1.91824E+2
  -6.50416E+2  -9.23955E+1
  -1.80178E+2  -9.51869E+1
   2.67027E+2  -2.37104E+2
   5.12777E+2   3.67530E+2
   2.47723E+2   4.40921E+2
  -3.36610E+2   4.67321E+2
  -4.52390E+2   2.43985E+2
  -3.63773E+2   8.29966E+1
  -9.70477E+1   9.02939E+1
  -1.79651E+2  -2.22958E+1
  -6.43759E+0  -3.13785E+2
   3.44414E+2  -1.84170E+2
   4.10195E+2   6.19611E+1
   5.06528E+2   6.00792E+2
  -1.38158E+2   1.99545E+2
   9.45838E+1  -1.06656E+2
   1.21223E+2   3.44455E+2
   9.37905E+1   2.65981E+2
  -2.72411E+2   3.56922E+2
  -9.66783E-1   8.20281E+1
   2.67115E+2   3.18021E+2
  -1.82892E+2   2.41124E+2
  -4.12688E+2   2.27661E+1
  -2.61192E+2  -4.80038E+1
   1.03086E+2  -2.12574E+2
   2.22876E+2  -1.41398E+2
   5.13750E+2   1.23088E+2
   8.39952E+1   3.90812E+2
   1.79267E+2   1.49678E+2
  -1.16678E+1  -1.38677E+2
   3.21753E+2  -1.06243E+2
  -7.01022E+0   3.24659E+2
   1.07727E+2   3.50400E+2
  -1.83389E+2  -2.55559E+1
   2.03205E+1  -1.95137E+2
   2.61491E+2   1.12790E+2
  -2.46244E+2   2.72577E+2
  -3.63992E+2   1.32813E+1
  -3.92256E+1  -4.39200E+2
   1.12927E+2  -6.08448E+1
   2.86224E+2   3.45423E+2
   1.60295E+2   5.07792E+2
  -1.26186E+1   2.86999E+2
  -2.69865E+2   2.78937E+1
  -1.97649E+2  -5.63383E+1
  -2.76241E+1   9.85175E+1
  -8.29213E+1  -1.21644E+2
  -1.70249E+1  -2.95058E+2
   6.54337E+1  -2.58135E+2
   3.28628E+2   1.58644E+2
   8.73914E+1   7.24227E+2
  -3.79816E+2   7.31944E+2
  -3.67502E+2   3.43415E+0
  -1.60292E+2  -2.70166E+2
   3.46671E+1  -1.58288E+2
   6.98886E+1  -3.90023E+1
   5.69011E+1   3.85478E+2
   2.81255E+1   8.81488E+1
   1.51818E+2   2.77952E+2
   5.17321E+1   2.74974E+2
  -1.88991E+2   3.56134E+2
  -4.72845E+2  -1.62939E+2
   7.86436E+1  -3.33525E+2
   2.50409E+2  -1.43111E+2
   1.92850E+2  -2.29335E+2
   2.21097E+2   2.45441E+2
  -1.53691E+1  -6.27327E+1
  -2.44331E+1  -4.93341E+1
   1.38498E+2   3.29372E+1
  -6.26161E+1   2.95141E+2
  -1.05670E+2  -2.89087E+2
   9.53854E+1  -3.30546E+2
   4.59014E+2   9.81262E+1
   3.06823E+2   2.44047E+2
  -2.77822E+2   3.59709E+2
  -4.64283E+2   6.92459E+1
  -2.97776E+2  -2.99445E+1
  -2.47134E+2  -4.31239E+2
   1.77364E+2  -8.47373E+1
  -5.65678E+1  -9.30502E+1
   3.12741E+1  -2.80607E+2
   1.22947E+2  -1.51706E+2
   6.21234E+1   2.65180E+2
   5.43825E+1   2.90304E+2
  -7.72518E+1   5.79903E+1
  -2.47175E+2  -3.90842E+2
   2.33204E+2  -5.24406E+1
   6.37405E+1   4.52837E+1
   1.08173E+2   3.70176E+2
   7.77534E+1   9.40959E-1
  -1.05645E+2  -1.69369E+1
   2.91583E+1  -1.65804E+2
   9.48810E+1   2.37298E+2
  -1.01199E+2   3.27933E+1
  -7.70437E+1   2.62087E+1
   7.00524E+1  -4.39743E+2
  -2.22534E+1   2.57464E+2
  -2.75765E+1   1.86562E+2
  -1.01549E+2  -3.32560E+1
  -5.56031E+1  -1.42089E+2
   8.93110E+1  -8.81921E+1
   1.37912E+2   2.11619E+2
   9.10189E+1  -3.65327E+1
  -6.98568E+1   6.89950E+1
  -2.03019E+1  -4.45484E+1
   9.41449E+1   1.64878E+2
  -1.08429E+2   2.53711E+1
  -2.63570E+2  -8.25379E+1
  -1.78837E+2   1.19639E+2
   2.42297E+2  -1.77626E+2
   1.09654E+2  -6.01253E+1
  -5.46927E+1   8.81642E+1
  -2.94294E+1   1.04749E+2
  -3.88015E+2  -3.53184E+2
   9.75219E+1  -5.06150E+2
   2.42626E+2  -3.65763E+1
   2.41316E+2   4.78910E+1
   6.62867E+1   2.34048E+2
   1.08852E+1   2.14889E+2
   1.23169E+2   2.88262E+2
  -2.05852E+2  -9.19620E+0
  -4.61875E+2  -9.49188E+1
  -1.09897E+2  -1.98223E+2
   1.29175E+2  -3.23045E+2
   2.73867E+2   2.96425E+1
   1.12732E+2   2.79817E+2
  -2.89046E+1   1.37917E+2
  -1.41323E+2   2.13629E+2
  -1.33910E+2  -4.81748E+0
   9.89638E+1   2.49855E+0
  -1.70882E+2  -1.44912E+2
   9.58815E+1  -1.63986E+2
   4.98811E+1  -1.28798E+2
   2.22489E+2  -1.51099E+2
   1.33191E+2   4.08617E+2
  -1.20035E+2   2.45568E+2
  -1.20412E+2   3.57363E+1
  -5.96241E+1  -2.58718E+2
   9.09496E+1  -1.64717E+2
   4.83365E+1   2.89575E+2
   8.88716E+1   4.57857E+1
  -3.26853E+1   1.60493E+1
   1.50076E+2   4.71011E+1
  -1.47173E+2   1.78815E+2
  -1.78824E+2   1.54210E+2
  -2.61532E+2  -1.14591E+2
  -1.17250E+2  -3.92566E+2
   5.66578E+0  -2.47214E+2
   1.08900E+2   6.65015E+1
   1.05462E+2  -3.59517E+1
  -1.31821E+1  -1.16951E+2
  -7.71014E+1   1.73689E+0
  -3.24359E+1  -6.81131E+1
  -1.03617E+2  -2.57198E-1
  -1.09978E+2  -1.55958E+2
   1.55783E+1  -2.74923E+2
  -6.36073E+1  -1.41082E+2
  -7.97590E+1   8.96444E+1
  -1.47310E+1   2.13426E+2
  -1.88078E+2   1.07604E+2
  -1.80708E+2  -3.69982E+2
  -9.21300E+1  -2.19874E+2
   1.78058E+2   4.20150E+1
  -1.59242E+2   2.18627E+2
  -2.16771E+2  -1.17760E+2
  -3.75870E+1  -1.92380E+2
   7.92480E-1  -2.41702E+2
  -1.21874E+2   1.68423E+2
  -1.49853E+2  -2.59653E+1
   1.12158E+2   8.58387E+1
   1.31754E+2   1.37309E+2
   8.21379E+1  -1.72277E+2
  -2.27032E+2   1.77548E+2
   9.84363E+1   7.52462E+1
  -1.98493E+2  -2.32326E+2
   1.34075E+2  -1.15332E+2
  -4.91819E+1  -1.01559E+2
  -5.37302E+1   1.34025E+2
  -9.67057E+1   2.42702E+2
  -6.43384E+1  -2.18230E+2
  -6.38320E+1  -2.10358E+2
  -5.36208E+1   8.47566E+1
  -2.03279E+2   2.37603E+2
  -1.07685E+2  -6.40630E+1
   8.58171E+1   2.53898E+1
   9.10743E+1   9.51228E+1
  -2.99947E+1   2.16848E+2
  -1.44592E+2   2.15951E+2
   8.75802E+0  -1.91445E+1
  -1.42989E+2  -4.60722E+0
  -4.09684E+1   5.04444E+1
  -1.68663E+2  -2.34976E+2
  -7.00335E+1   3.91694E+1
   1.22390E+2  -1.64024E+2
  -6.66751E+1   1.60828E+2
   1.17918E+2   1.46289E+2
  -1.13392E+2   2.71483E+2
   2.01258E+0  -8.52657E+1
   1.65687E+2  -2.72953E+2
  -8.57075E+1  -1.07960E+2
   2.39542E+2   7.34089E+1
  -4.04132E+0   3.50252E+1
  -5.47589E+1  -1.67169E+2
   4.16403E+1   1.84644E+2
   1.32657E+2   9.91300E+1
   6.09769E+1  -9.15192E+1
  -7.14134E+1  -1.84125E+2
   1.81475E+2  -2.38960E+2
  -7.16794E+1  -2.36358E+2
   1.74469E+2   1.58623E+2
  -1.80508E+2   1.95497E+2
  -2.01031E+2   1.11390E+2
   4.50344E+0  -4.42131E+1
  -6.75035E+1  -9.76938E+1
   5.28506E+1   6.29243E+0
   8.04568E+1  -2.21570E+2
  -1.31549E+2  -2.38910E+2
   2.26723E+2  -1.99195E+2
  -6.90529E+1   2.81797E+2
  -1.06740E+1   2.18238E+2
  -1.62587E+2   8.88963E+1
   3.72352E+1  -1.64955E+2
  -6.95928E+1  -2.82173E+1
   4.89292E+1  -1.93960E+2
  -4.35818E+1   1.42866E+2
  -7.23000E+1  -2.17785E+1
   7.56078E+0   3.44684E+1
