 
 $NMID
 ID=''
 FMTDAT='(2E13.5)'
 TRAMP=   1.00000E+0
 VOLUME=   1.00000E+0
 $END
   5.97498E+5   5.62880E+5
   9.69245E+5   1.92459E+6
   1.10210E+6   1.75155E+6
   9.31582E+5   1.73194E+6
   9.87114E+5   1.82645E+6
   1.05518E+6   1.71874E+6
   9.84510E+5   1.69412E+6
   1.00274E+6   1.75998E+6
   1.01411E+6   1.70781E+6
   9.37879E+5   1.70566E+6
   9.37315E+5   1.74415E+6
   9.31719E+5   1.70113E+6
   8.72636E+5   1.70147E+6
   8.60153E+5   1.73286E+6
   8.34751E+5   1.70233E+6
   7.81732E+5   1.69991E+6
   7.79074E+5   1.72211E+6
   7.67906E+5   1.69815E+6
   7.33533E+5   1.68881E+6
   7.42354E+5   1.69048E+6
   7.31833E+5   1.66880E+6
   6.99642E+5   1.66603E+6
   6.94582E+5   1.66732E+6
   6.81081E+5   1.64928E+6
   6.48063E+5   1.64657E+6
   6.39292E+5   1.64277E+6
   6.15955E+5   1.63189E+6
   5.79684E+5   1.63462E+6
   5.57315E+5   1.63101E+6
   5.38328E+5   1.61521E+6
   5.15317E+5   1.61395E+6
   5.04748E+5   1.60725E+6
   4.88163E+5   1.59215E+6
   4.72289E+5   1.58534E+6
   4.66853E+5   1.57370E+6
   4.61702E+5   1.55852E+6
   4.53006E+5   1.55454E+6
   4.43452E+5   1.54605E+6
   4.26997E+5   1.53077E+6
   4.11615E+5   1.52436E+6
   3.96324E+5   1.51586E+6
   3.76617E+5   1.50316E+6
   3.59945E+5   1.49327E+6
   3.45559E+5   1.48539E+6
   3.25144E+5   1.47518E+6
   3.06298E+5   1.46786E+6
   2.91335E+5   1.45911E+6
   2.74295E+5   1.44798E+6
   2.59812E+5   1.43539E+6
   2.49693E+5   1.42336E+6
   2.38621E+5   1.41247E+6
   2.26108E+5   1.40257E+6
   2.15169E+5   1.39171E+6
   2.03321E+5   1.38055E+6
   1.89562E+5   1.36996E+6
   1.75432E+5   1.35943E+6
   1.59475E+5   1.34765E+6
   1.44286E+5   1.33489E+6
   1.31258E+5   1.32199E+6
   1.18214E+5   1.31142E+6
   1.03861E+5   1.30093E+6
   8.97925E+4   1.28954E+6
   7.73415E+4   1.27802E+6
   6.38430E+4   1.26568E+6
   5.14873E+4   1.25237E+6
   4.09638E+4   1.23848E+6
   3.05496E+4   1.22540E+6
   1.99673E+4   1.21272E+6
   9.04437E+3   1.20182E+6
  -3.51296E+3   1.19050E+6
  -1.68453E+4   1.17774E+6
  -2.81097E+4   1.16386E+6
  -3.86216E+4   1.15184E+6
  -5.09971E+4   1.14045E+6
  -6.28522E+4   1.12778E+6
  -7.36463E+4   1.11374E+6
  -8.36388E+4   1.10184E+6
  -9.34626E+4   1.08981E+6
  -1.03855E+5   1.07679E+6
  -1.13906E+5   1.06365E+6
  -1.23266E+5   1.05086E+6
  -1.32162E+5   1.03734E+6
  -1.41414E+5   1.02488E+6
  -1.51381E+5   1.01229E+6
  -1.61984E+5   9.99341E+5
  -1.71580E+5   9.86211E+5
  -1.80728E+5   9.73590E+5
  -1.89778E+5   9.61057E+5
  -1.99064E+5   9.48419E+5
  -2.07182E+5   9.35510E+5
  -2.13971E+5   9.22542E+5
  -2.20520E+5   9.10591E+5
  -2.27441E+5   8.98823E+5
  -2.33597E+5   8.86161E+5
  -2.38500E+5   8.72845E+5
  -2.42373E+5   8.60556E+5
  -2.46756E+5   8.49290E+5
  -2.51877E+5   8.37825E+5
  -2.56934E+5   8.25887E+5
  -2.60560E+5   8.13677E+5
  -2.64889E+5   8.02274E+5
  -2.70049E+5   7.90672E+5
  -2.75227E+5   7.77621E+5
  -2.78918E+5   7.64454E+5
  -2.81932E+5   7.52662E+5
  -2.84806E+5   7.41588E+5
  -2.88164E+5   7.30536E+5
  -2.92012E+5   7.18532E+5
  -2.94317E+5   7.05942E+5
  -2.95201E+5   6.94089E+5
  -2.96502E+5   6.83170E+5
  -2.99257E+5   6.72547E+5
  -3.02091E+5   6.60876E+5
  -3.04545E+5   6.49427E+5
  -3.06160E+5   6.37907E+5
  -3.08641E+5   6.26333E+5
  -3.10977E+5   6.14632E+5
  -3.12706E+5   6.02161E+5
  -3.13032E+5   5.90075E+5
  -3.13090E+5   5.79436E+5
  -3.14262E+5   5.69066E+5
  -3.15646E+5   5.58601E+5
  -3.16408E+5   5.47387E+5
  -3.17665E+5   5.36896E+5
  -3.18891E+5   5.25909E+5
  -3.18909E+5   5.14635E+5
  -3.19361E+5   5.03690E+5
  -3.19550E+5   4.93030E+5
  -3.20729E+5   4.82322E+5
  -3.21911E+5   4.71879E+5
  -3.23220E+5   4.61570E+5
  -3.24462E+5   4.49714E+5
  -3.24947E+5   4.38651E+5
  -3.24963E+5   4.28253E+5
  -3.25409E+5   4.18218E+5
  -3.25791E+5   4.07588E+5
  -3.25583E+5   3.97966E+5
  -3.25255E+5   3.88396E+5
  -3.25418E+5   3.79155E+5
  -3.25505E+5   3.69296E+5
  -3.25274E+5   3.59073E+5
  -3.24622E+5   3.49491E+5
  -3.23341E+5   3.40571E+5
  -3.22810E+5   3.31723E+5
  -3.22655E+5   3.22739E+5
  -3.22219E+5   3.13759E+5
  -3.21377E+5   3.04810E+5
  -3.20503E+5   2.95470E+5
  -3.19408E+5   2.87060E+5
  -3.18081E+5   2.78701E+5
  -3.16688E+5   2.70287E+5
  -3.15208E+5   2.62617E+5
  -3.13750E+5   2.55411E+5
  -3.12514E+5   2.48082E+5
  -3.10708E+5   2.40526E+5
  -3.08957E+5   2.33118E+5
  -3.07081E+5   2.26360E+5
  -3.04990E+5   2.19856E+5
  -3.03202E+5   2.13084E+5
  -3.00931E+5   2.06419E+5
  -2.98841E+5   1.99721E+5
  -2.96735E+5   1.93662E+5
  -2.94592E+5   1.87134E+5
  -2.92095E+5   1.80911E+5
  -2.89401E+5   1.75050E+5
  -2.86953E+5   1.69353E+5
  -2.84558E+5   1.64138E+5
  -2.82279E+5   1.58600E+5
  -2.80086E+5   1.52985E+5
  -2.77412E+5   1.47796E+5
  -2.74337E+5   1.42808E+5
  -2.71905E+5   1.38048E+5
  -2.69608E+5   1.33391E+5
  -2.67011E+5   1.28363E+5
  -2.64151E+5   1.23367E+5
  -2.61293E+5   1.18957E+5
  -2.58960E+5   1.14292E+5
  -2.56288E+5   1.09497E+5
  -2.53444E+5   1.04911E+5
  -2.50369E+5   1.00477E+5
  -2.47680E+5   9.65809E+4
  -2.45194E+5   9.26076E+4
  -2.42276E+5   8.82578E+4
  -2.39704E+5   8.37586E+4
  -2.36887E+5   8.01157E+4
  -2.33667E+5   7.59406E+4
  -2.30626E+5   7.26367E+4
  -2.27655E+5   6.89052E+4
  -2.24653E+5   6.53710E+4
  -2.21752E+5   6.21204E+4
  -2.19403E+5   5.87056E+4
  -2.16834E+5   5.48795E+4
  -2.13957E+5   5.12360E+4
  -2.10612E+5   4.74877E+4
  -2.07907E+5   4.42550E+4
  -2.04941E+5   4.09435E+4
  -2.01960E+5   3.75762E+4
  -1.99060E+5   3.44773E+4
  -1.96506E+5   3.14936E+4
  -1.93723E+5   2.80462E+4
  -1.91193E+5   2.47235E+4
  -1.88116E+5   2.17567E+4
  -1.84806E+5   1.90283E+4
  -1.82169E+5   1.58650E+4
  -1.79386E+5   1.33175E+4
  -1.76833E+5   1.05442E+4
  -1.73918E+5   7.81371E+3
  -1.71365E+5   4.98541E+3
  -1.68490E+5   2.33512E+3
  -1.65853E+5  -7.81305E+1
  -1.63136E+5  -2.60667E+3
  -1.60266E+5  -4.91682E+3
  -1.57562E+5  -7.21948E+3
  -1.55138E+5  -9.24058E+3
  -1.52501E+5  -1.18341E+4
  -1.50030E+5  -1.38763E+4
  -1.47179E+5  -1.62844E+4
  -1.44413E+5  -1.78620E+4
  -1.42268E+5  -1.97673E+4
  -1.39378E+5  -2.16657E+4
  -1.37270E+5  -2.33623E+4
  -1.34563E+5  -2.51808E+4
  -1.32006E+5  -2.67556E+4
  -1.29678E+5  -2.82678E+4
  -1.27298E+5  -2.98534E+4
  -1.24841E+5  -3.13523E+4
  -1.22150E+5  -3.23841E+4
  -1.20057E+5  -3.34470E+4
  -1.17940E+5  -3.50071E+4
  -1.15618E+5  -3.62615E+4
  -1.13131E+5  -3.72622E+4
  -1.10881E+5  -3.82418E+4
  -1.08471E+5  -3.91155E+4
  -1.06421E+5  -4.02314E+4
  -1.04319E+5  -4.09608E+4
  -1.02017E+5  -4.16226E+4
  -1.00209E+5  -4.23393E+4
  -9.80125E+4  -4.32176E+4
  -9.59645E+4  -4.39289E+4
  -9.40220E+4  -4.42369E+4
  -9.20452E+4  -4.45673E+4
  -8.97569E+4  -4.49974E+4
  -8.77007E+4  -4.56619E+4
  -8.60630E+4  -4.64637E+4
  -8.37381E+4  -4.64038E+4
  -8.19587E+4  -4.69739E+4
  -7.98901E+4  -4.75308E+4
  -7.79299E+4  -4.75712E+4
  -7.61936E+4  -4.79606E+4
  -7.40684E+4  -4.80162E+4
  -7.23388E+4  -4.82420E+4
  -7.07050E+4  -4.87281E+4
  -6.87576E+4  -4.88816E+4
  -6.70491E+4  -4.91485E+4
  -6.50765E+4  -4.91840E+4
  -6.34155E+4  -4.91462E+4
  -6.15844E+4  -4.92785E+4
  -5.99035E+4  -4.94601E+4
  -5.79759E+4  -4.95908E+4
  -5.65287E+4  -4.97277E+4
  -5.48804E+4  -4.98610E+4
  -5.29384E+4  -5.00048E+4
  -5.12288E+4  -5.00730E+4
  -4.94657E+4  -4.99400E+4
  -4.78877E+4  -4.98703E+4
  -4.66015E+4  -4.99349E+4
  -4.49283E+4  -4.97278E+4
  -4.33518E+4  -4.98879E+4
  -4.15271E+4  -4.95430E+4
  -4.01087E+4  -4.94336E+4
  -3.87597E+4  -4.93607E+4
  -3.72562E+4  -4.95013E+4
  -3.57585E+4  -4.91300E+4
  -3.43855E+4  -4.90958E+4
  -3.30302E+4  -4.90092E+4
  -3.12943E+4  -4.87997E+4
  -2.99906E+4  -4.85313E+4
  -2.85380E+4  -4.82837E+4
  -2.74452E+4  -4.81717E+4
  -2.60183E+4  -4.78897E+4
  -2.47127E+4  -4.72900E+4
  -2.36361E+4  -4.72243E+4
  -2.21571E+4  -4.73406E+4
  -2.09535E+4  -4.66666E+4
  -1.98299E+4  -4.65060E+4
  -1.87385E+4  -4.62449E+4
  -1.75785E+4  -4.55770E+4
  -1.63878E+4  -4.50333E+4
  -1.54604E+4  -4.46701E+4
  -1.45356E+4  -4.46273E+4
  -1.32559E+4  -4.41085E+4
  -1.21195E+4  -4.34105E+4
  -1.12082E+4  -4.31195E+4
  -1.05363E+4  -4.27488E+4
  -9.17821E+3  -4.20128E+4
  -8.32595E+3  -4.15837E+4
  -7.25016E+3  -4.12303E+4
  -6.47163E+3  -4.04579E+4
  -5.32835E+3  -4.00322E+4
  -4.71573E+3  -3.96896E+4
  -3.74961E+3  -3.91075E+4
  -2.99204E+3  -3.84189E+4
  -2.04139E+3  -3.79019E+4
  -1.18617E+3  -3.75129E+4
  -4.09606E+2  -3.69897E+4
   3.63378E+2  -3.65023E+4
   1.48146E+3  -3.57840E+4
   1.89155E+3  -3.49955E+4
   2.66112E+3  -3.46781E+4
   3.27359E+3  -3.37559E+4
   4.15489E+3  -3.34636E+4
   4.73817E+3  -3.29713E+4
   5.22484E+3  -3.25781E+4
   5.81022E+3  -3.17587E+4
   6.86695E+3  -3.11126E+4
   7.26269E+3  -3.04765E+4
   7.85478E+3  -2.98802E+4
   8.54224E+3  -2.93422E+4
   9.02732E+3  -2.87626E+4
   9.75287E+3  -2.80082E+4
   1.01054E+4  -2.74926E+4
   1.07737E+4  -2.68103E+4
   1.11407E+4  -2.65144E+4
   1.17262E+4  -2.59032E+4
   1.20110E+4  -2.52273E+4
   1.25399E+4  -2.45502E+4
   1.30976E+4  -2.38256E+4
   1.36325E+4  -2.35006E+4
   1.43430E+4  -2.28670E+4
   1.45149E+4  -2.21430E+4
   1.48966E+4  -2.14171E+4
   1.51937E+4  -2.11119E+4
   1.54588E+4  -2.02793E+4
   1.58896E+4  -1.99473E+4
   1.63716E+4  -1.92752E+4
   1.67061E+4  -1.86387E+4
   1.69464E+4  -1.82552E+4
   1.73580E+4  -1.77175E+4
   1.76159E+4  -1.71021E+4
   1.80163E+4  -1.64161E+4
   1.80408E+4  -1.57735E+4
   1.84397E+4  -1.52558E+4
   1.87231E+4  -1.47112E+4
   1.89110E+4  -1.42484E+4
   1.94253E+4  -1.37750E+4
   1.93300E+4  -1.30602E+4
   1.96193E+4  -1.26448E+4
   1.97498E+4  -1.19795E+4
   2.00389E+4  -1.15453E+4
   1.98521E+4  -1.09125E+4
   2.03532E+4  -1.05624E+4
   2.03950E+4  -9.78179E+3
   2.06727E+4  -9.38377E+3
   2.08504E+4  -8.82213E+3
   2.07266E+4  -8.51833E+3
   2.07710E+4  -7.87356E+3
   2.08196E+4  -7.58008E+3
   2.09263E+4  -7.15245E+3
   2.08334E+4  -6.66371E+3
   2.11422E+4  -6.16676E+3
   2.12920E+4  -5.65238E+3
   2.11838E+4  -4.98726E+3
   2.11815E+4  -4.66765E+3
   2.10487E+4  -4.39673E+3
   2.12207E+4  -3.90995E+3
   2.10316E+4  -3.51225E+3
   2.10158E+4  -3.17478E+3
