 LCModel (Version 6.3-1N) Copyright: S.W. Provencher.          Ref.: Magn. Reson. Med. 30:672-679 (1993).                
 Slice_N1@20_19  28-Feb-2025 11:41:12
 27 lines in following concentration table = NCONC+1
    Conc.  %SD /Cr+PCr  Metabolite                                         
 2.92E-04   3% 2.7E-04 Mac                                                 
    4.692  20%   4.334 Cr                                                  
    3.969  22%   3.666 PCr                                                 
    7.704  10%   7.116 Ins                                                 
   10.459   6%   9.660 NAA                                                 
    4.686  15%   4.328 Tau                                                 
    0.893  82%   0.824 PCho                                                
    1.349  51%   1.246 GPC                                                 
    8.225  10%   7.597 Glu                                                 
    4.344  16%   4.012 Gln                                                 
    0.000 999%   0.000 Ala                                                 
    2.878  34%   2.658 Asc                                                 
    3.189  28%   2.945 Asp                                                 
    1.281  36%   1.183 GABA                                                
    0.797  83%   0.736 Glc                                                 
    1.629  26%   1.504 GSH                                                 
    0.000 999%   0.000 Lac                                                 
    1.917  24%   1.771 NAAG                                                
    0.175 509%   0.162 PE                                                  
    2.242  11%   2.071 GPC+PCho                                            
   12.376   5%  11.431 NAA+NAAG                                            
   12.569   9%  11.609 Glu+Gln                                             
    8.661   7%   8.000 Cr+PCr                                              
   12.376   5%  11.431 NAA+NAAG                                            
    8.661   7%   8.000 Cr+PCr                                              
   12.569   9%  11.609 Glu+Gln                                             
   6 lines in following misc. output table
  FWHM = 0.024 ppm    S/N =   5                                            
  Data shift = 0.016 ppm                                                   
  Ph: -73 deg       0.0 deg/ppm                                            
  alphaB,S = 4.0E-01,   4.4E-01                                            
   19 spline knots.   Ns = 5(1)                                            
   2 inflections.     1 extrema                                            
  480 points on ppm-axis = NY
      4.100000     4.091866     4.083733     4.075600     4.067466     4.059333     4.051199     4.043066     4.034933     4.026799
      4.018666     4.010532     4.002399     3.994265     3.986132     3.977998     3.969864     3.961731     3.953597     3.945463
      3.937330     3.929196     3.921062     3.912929     3.904795     3.896662     3.888528     3.880394     3.872261     3.864127
      3.855993     3.847860     3.839726     3.831592     3.823459     3.815325     3.807191     3.799058     3.790924     3.782790
      3.774657     3.766523     3.758389     3.750256     3.742122     3.733989     3.725855     3.717721     3.709588     3.701454
      3.693320     3.685187     3.677053     3.668919     3.660786     3.652652     3.644518     3.636385     3.628251     3.620117
      3.611984     3.603850     3.595716     3.587583     3.579449     3.571316     3.563182     3.555048     3.546915     3.538781
      3.530647     3.522514     3.514380     3.506246     3.498113     3.489979     3.481845     3.473712     3.465578     3.457444
      3.449311     3.441177     3.433043     3.424910     3.416776     3.408643     3.400509     3.392375     3.384242     3.376108
      3.367974     3.359841     3.351707     3.343573     3.335440     3.327306     3.319172     3.311039     3.302905     3.294771
      3.286638     3.278504     3.270370     3.262237     3.254103     3.245970     3.237836     3.229702     3.221569     3.213435
      3.205301     3.197168     3.189034     3.180900     3.172767     3.164633     3.156499     3.148366     3.140232     3.132098
      3.123965     3.115831     3.107697     3.099564     3.091430     3.083297     3.075163     3.067029     3.058896     3.050762
      3.042628     3.034495     3.026361     3.018227     3.010094     3.001960     2.993826     2.985693     2.977559     2.969425
      2.961292     2.953158     2.945024     2.936891     2.928757     2.920624     2.912490     2.904356     2.896223     2.888089
      2.879955     2.871822     2.863688     2.855554     2.847421     2.839287     2.831153     2.823020     2.814886     2.806752
      2.798619     2.790485     2.782351     2.774218     2.766084     2.757951     2.749817     2.741683     2.733550     2.725416
      2.717282     2.709149     2.701015     2.692881     2.684748     2.676614     2.668480     2.660347     2.652213     2.644079
      2.635946     2.627812     2.619678     2.611545     2.603411     2.595278     2.587144     2.579010     2.570877     2.562743
      2.554609     2.546476     2.538342     2.530208     2.522075     2.513941     2.505807     2.497674     2.489540     2.481406
      2.473273     2.465139     2.457006     2.448872     2.440738     2.432605     2.424471     2.416337     2.408204     2.400070
      2.391936     2.383803     2.375669     2.367535     2.359402     2.351268     2.343134     2.335001     2.326867     2.318733
      2.310600     2.302466     2.294333     2.286199     2.278065     2.269932     2.261798     2.253664     2.245531     2.237397
      2.229263     2.221130     2.212996     2.204862     2.196729     2.188595     2.180461     2.172328     2.164194     2.156060
      2.147927     2.139793     2.131660     2.123526     2.115392     2.107259     2.099125     2.090991     2.082858     2.074724
      2.066590     2.058457     2.050323     2.042189     2.034056     2.025922     2.017788     2.009655     2.001521     1.993387
      1.985254     1.977120     1.968987     1.960853     1.952719     1.944586     1.936452     1.928318     1.920185     1.912051
      1.903917     1.895784     1.887650     1.879516     1.871383     1.863249     1.855115     1.846982     1.838848     1.830714
      1.822581     1.814447     1.806314     1.798180     1.790046     1.781913     1.773779     1.765645     1.757512     1.749378
      1.741244     1.733111     1.724977     1.716843     1.708710     1.700576     1.692442     1.684309     1.676175     1.668041
      1.659908     1.651774     1.643641     1.635507     1.627373     1.619240     1.611106     1.602972     1.594839     1.586705
      1.578571     1.570438     1.562304     1.554170     1.546037     1.537903     1.529769     1.521636     1.513502     1.505368
      1.497235     1.489101     1.480968     1.472834     1.464700     1.456567     1.448433     1.440299     1.432166     1.424032
      1.415898     1.407765     1.399631     1.391497     1.383364     1.375230     1.367096     1.358963     1.350829     1.342695
      1.334562     1.326428     1.318295     1.310161     1.302027     1.293894     1.285760     1.277626     1.269493     1.261359
      1.253225     1.245092     1.236958     1.228824     1.220691     1.212557     1.204423     1.196290     1.188156     1.180022
      1.171889     1.163755     1.155622     1.147488     1.139354     1.131221     1.123087     1.114953     1.106820     1.098686
      1.090552     1.082419     1.074285     1.066151     1.058018     1.049884     1.041750     1.033617     1.025483     1.017349
      1.009216     1.001082     0.992949     0.984815     0.976681     0.968548     0.960414     0.952280     0.944147     0.936013
      0.927879     0.919746     0.911612     0.903478     0.895345     0.887211     0.879077     0.870944     0.862810     0.854676
      0.846543     0.838409     0.830276     0.822142     0.814008     0.805875     0.797741     0.789607     0.781474     0.773340
      0.765206     0.757073     0.748939     0.740805     0.732672     0.724538     0.716404     0.708271     0.700137     0.692003
      0.683870     0.675736     0.667603     0.659469     0.651335     0.643202     0.635068     0.626934     0.618801     0.610667
      0.602533     0.594400     0.586266     0.578132     0.569999     0.561865     0.553731     0.545598     0.537464     0.529330
      0.521197     0.513063     0.504930     0.496796     0.488662     0.480529     0.472395     0.464261     0.456128     0.447994
      0.439861     0.431727     0.423593     0.415460     0.407326     0.399192     0.391059     0.382925     0.374792     0.366658
      0.358524     0.350391     0.342257     0.334124     0.325990     0.317856     0.309723     0.301589     0.293455     0.285322
      0.277188     0.269055     0.260921     0.252787     0.244654     0.236520     0.228386     0.220253     0.212119     0.203986
 NY phased data points follow
   1.93339E+01  9.44340E+00 -3.88901E+00  9.09671E+00  1.03800E+01  1.56009E+01  1.38715E+01  1.18055E+01  2.38161E+01  1.63635E+01
   1.43680E-01 -4.45831E+00 -1.39745E+01 -1.42437E+01  4.60484E+00 -5.09841E+00 -1.53590E+01 -2.76967E+01 -4.20235E+01 -4.60843E+01
  -6.63262E+01 -5.55345E+01 -4.07013E+01 -3.25632E+01  2.82336E-01  3.24134E+01  4.39447E+01  3.80259E+01  4.39951E+01  5.02918E+01
   4.52846E+01  4.14163E+01  3.74459E+01  3.10773E+01  4.21760E+01  4.32264E+01  2.67754E+01  4.36046E+01  3.50970E+01  2.60611E+00
  -6.20977E+00 -1.74677E+01 -8.72250E+00  5.24630E+00  1.17051E+00  1.88071E+01  5.12951E+01  6.92940E+01  7.29768E+01  7.61307E+01
   8.09657E+01  7.74592E+01  7.27519E+01  6.04749E+01  4.60997E+01  3.98744E+01  3.07672E+01  2.24126E+01  2.52923E+01  9.10703E+00
  -4.89543E+00  2.79281E+01  2.30365E+01  3.05464E+01  7.12697E+01  7.02520E+01  8.15836E+01  6.60323E+01  3.44779E+01  1.31775E+01
  -1.56173E+01 -4.47559E+00  2.86903E+01  2.61004E+01  2.98180E+01  7.42543E+01  7.36663E+01  6.71964E+01  7.38067E+01  6.49000E+01
   7.56804E+01  7.44050E+01  6.89607E+01  7.52034E+01  5.54694E+01  3.52311E+01  4.97831E+01  4.29464E+01  5.36385E+01  8.78211E+01
   9.29794E+01  8.68390E+01  8.91009E+01  1.15617E+02  9.89211E+01  9.90582E+01  1.19343E+02  1.15031E+02  1.28166E+02  1.09794E+02
   9.13545E+01  8.36536E+01  8.39754E+01  7.15544E+01  6.39960E+01  6.69054E+01  3.81906E+01  3.32890E+01  1.60875E+01 -2.47355E-02
  -5.87213E+01 -1.25970E+02 -9.56627E+01 -7.21947E+01 -4.21476E+01 -1.78404E+01 -8.98994E+00  1.62682E+00  3.35521E+00  3.11336E+01
   2.81902E+01  2.77520E+01  4.50041E+01  4.26182E+01  4.61492E+01  5.79450E+01  6.85101E+01  8.88243E+01  1.15381E+02  1.28214E+02
   1.57291E+02  1.76630E+02  1.42957E+02  4.14180E+01 -5.16192E+01 -5.81056E+01 -4.45988E+01 -4.60067E+01 -4.92979E+01 -4.08219E+01
  -3.86848E+01 -3.41656E+01 -4.69142E+01 -4.91687E+01 -1.74285E+01 -3.08797E+01 -4.12818E+01 -3.43913E+01 -2.29556E+01 -2.01145E+01
  -2.10685E+01 -1.57088E+01 -2.69093E+01 -1.43431E+01 -1.53218E+00 -3.68162E+00 -1.33314E+01  5.28189E-01  9.76651E+00  1.30306E+00
   1.24499E+01  9.34976E+00  1.96567E+01  1.95323E+01 -4.49944E-01  4.44868E+00  9.73909E+00 -8.19996E+00 -2.28775E+00  2.14303E+01
   1.55679E+01  1.76836E+01  3.50004E+01  5.70680E+01  4.36484E+01  2.70722E+01  4.60769E+01  3.58413E+01  3.63677E+01  3.48099E+01
   2.69299E+00  6.17378E+00 -4.25538E+00 -2.29801E+01 -1.70121E+01 -2.70014E+01 -2.00080E+01 -1.64165E+01 -1.09498E+01  5.21733E+00
  -3.96915E+00 -6.02112E+00  6.05497E+00  8.00282E+00  1.46134E+01  3.69635E+01  2.65309E+01  1.21124E+01  1.79486E+01  2.36631E+01
   2.27934E+01  1.88690E+01  2.68443E+01  3.44396E+01  4.46379E+01  3.68445E+01  2.93555E+01  1.61369E+01  1.85161E+00 -1.09034E+01
  -2.61431E+01 -1.80707E+01 -1.21352E+01  4.35985E+00  1.84096E+01  3.86830E+01  5.12124E+01  6.03779E+01  5.93525E+01  4.69546E+01
   4.02202E+01  2.43912E+01  3.19834E+01  8.49445E+00  1.40858E+01  3.40119E+01  3.82123E+01  3.80938E+01  1.15762E+01  2.05963E+01
   1.48308E+01  2.55579E+01  2.03271E+01  4.29078E+00  1.09169E+00 -2.10333E+01 -3.26397E+01 -3.77135E+01 -2.92522E+01 -5.13962E+01
  -3.77423E+01 -2.39594E+01 -2.75674E+01 -1.27659E+01 -6.24720E+00  8.42243E+00  6.02470E+00  1.65775E+01  5.03874E+00 -5.86762E+00
  -1.60353E+01 -2.65354E+01 -2.14088E+01 -2.95791E+01 -3.75161E+01 -5.48645E+01 -5.76811E+01 -5.37259E+01  7.55779E+01  2.25326E+02
   2.17306E+02  1.84182E+02  1.61528E+02  1.44200E+02  1.26481E+02  1.14975E+02  1.15594E+02  1.15391E+02  1.02754E+02  9.20852E+01
   1.04107E+02  1.03571E+02  1.06255E+02  1.00762E+02  9.93314E+01  1.08369E+02  1.03128E+02  1.11680E+02  1.13562E+02  1.03289E+02
   1.12295E+02  1.11975E+02  9.47791E+01  9.83828E+01  9.40003E+01  8.31722E+01  9.87659E+01  8.92472E+01  8.00425E+01  8.96637E+01
   7.21410E+01  8.67413E+01  8.72339E+01  6.21515E+01  6.47486E+01  5.09326E+01  5.63787E+01  5.08902E+01  4.77212E+01  5.33463E+01
   3.35225E+01  4.40147E+01  5.02286E+01  5.34601E+01  6.35523E+01  6.60681E+01  6.53612E+01  6.74972E+01  6.62179E+01  6.47457E+01
   7.41497E+01  5.97184E+01  6.72365E+01  7.73670E+01  6.09128E+01  6.09587E+01  6.79006E+01  6.90761E+01  5.01089E+01  4.95534E+01
   6.11477E+01  4.91130E+01  4.89897E+01  5.00630E+01  3.77112E+01  5.20604E+01  6.53805E+01  4.63035E+01  3.31178E+01  3.20360E+01
   3.54663E+01  3.45896E+01  2.65378E+01  1.40128E+01  1.63913E+01  2.84998E+01  2.46350E+01  2.94796E+01  3.86290E+01  4.50193E+01
   4.86028E+01  3.97914E+01  3.86822E+01  5.83408E+01  4.78900E+01  3.16636E+01  6.10070E+01  5.43942E+01  5.39084E+01  6.77927E+01
   3.98118E+01  4.24411E+01  4.58913E+01  4.55641E+01  5.24844E+01  3.67305E+01  3.61778E+01  3.17128E+01  2.12998E+01  2.48085E+01
   2.50556E+01  2.25441E+01  3.12034E+01  3.42490E+01  2.50497E+01  4.08580E+01  4.84631E+01  4.60515E+01  5.73445E+01  5.40315E+01
   5.26290E+01  7.09865E+01  8.21689E+01  6.87397E+01  7.41773E+01  8.54452E+01  8.32181E+01  8.78949E+01  1.02457E+02  1.05896E+02
   1.00596E+02  1.32282E+02  1.24794E+02  1.14306E+02  1.43959E+02  1.41397E+02  1.41182E+02  1.51337E+02  1.61479E+02  1.52929E+02
   1.51730E+02  1.54226E+02  1.33288E+02  1.09601E+02  9.19178E+01  9.41410E+01  8.88871E+01  9.16329E+01  9.07840E+01  7.25545E+01
   6.66886E+01  5.79599E+01  4.12328E+01  3.27900E+01  1.70188E+01  1.76568E+00  8.11851E+00  1.45872E+01  2.41957E+01  1.37002E+01
   2.92608E+00  8.37947E+00  1.48140E+01  1.07755E+01  6.79694E+00  1.06137E+01 -2.27223E+00  1.86684E+01  2.63330E+01  2.38455E+01
   2.44457E+01  7.75982E+00  1.09871E+01  3.59745E+00  6.68485E+00  1.94385E+01  2.22141E+01  8.36936E+00  1.03715E+01  1.29351E+01
   9.58649E+00  1.83250E+01  1.46422E+01  1.62837E+01  1.13479E+01  1.76155E+01  8.29001E+00  1.38223E+01  2.02053E+01  2.14583E+01
   3.14769E+01  2.81058E+00  1.35467E+01  1.66939E+01  1.56630E+01  1.31626E+01  7.84350E-01  7.67666E+00  5.75777E+00  2.14837E+01
   1.65277E+01  1.57124E+01  1.95496E+01  2.28111E+01  1.78497E+01  1.38931E+00  1.36742E+01  1.02253E+01  8.99635E+00  1.16374E+01
   1.11043E+01  1.70294E+01  1.14663E+01  1.46343E+01  1.66292E+01  1.09774E+01  1.53988E+01  1.16446E+01  1.23705E+01  2.00368E+01
   1.67528E+01  1.43671E+01  1.60970E+01  1.94770E+01  1.93073E+01  2.54774E+01  1.09177E+01  6.81495E+00  2.48269E+01  2.02183E+01
 NY points of the fit to the data follow
   5.78530E+00 -2.18414E-01 -8.78439E+00 -1.59763E+01 -1.86673E+01 -1.04751E+01  1.04204E+01  2.79058E+01  2.51375E+01  1.33815E+01
   4.05130E+00 -9.06179E-01 -2.27084E+00 -1.65545E+00 -1.13275E+00 -4.17386E+00 -9.13140E+00 -1.83933E+01 -2.88663E+01 -4.05649E+01
  -5.21683E+01 -6.05675E+01 -4.36351E+01 -1.57092E+01  6.72878E-02  3.82777E+01  5.95872E+01  5.62587E+01  6.04295E+01  6.17334E+01
   6.37693E+01  6.31205E+01  6.09113E+01  5.89458E+01  5.62248E+01  5.17624E+01  4.69067E+01  3.99335E+01  2.96898E+01  1.29383E+01
  -5.51972E+00 -2.24379E+01 -1.84629E+01  1.35472E+00  1.48506E+01  3.17617E+01  4.73725E+01  6.13299E+01  6.63493E+01  6.86107E+01
   6.89647E+01  6.49188E+01  5.94189E+01  5.03228E+01  3.90996E+01  2.86494E+01  2.09813E+01  1.79029E+01  1.79197E+01  8.98122E+00
   4.24354E+00  2.34249E+01  3.38851E+01  3.68406E+01  5.74175E+01  7.09881E+01  7.11174E+01  6.45662E+01  4.68177E+01  2.05554E+01
  -2.26002E+00  3.08688E+00  2.15633E+01  2.59558E+01  3.85527E+01  5.87546E+01  6.98388E+01  7.46741E+01  7.61464E+01  7.70699E+01
   7.64937E+01  7.26365E+01  6.39882E+01  5.18940E+01  4.05893E+01  3.16553E+01  3.47644E+01  4.29684E+01  5.38908E+01  6.68660E+01
   7.25032E+01  7.78055E+01  8.17628E+01  8.56720E+01  8.95448E+01  9.36890E+01  9.69088E+01  9.88845E+01  9.92668E+01  9.69227E+01
   9.09570E+01  9.06652E+01  8.97459E+01  7.54969E+01  6.43480E+01  5.94011E+01  4.84600E+01  4.41014E+01  3.82299E+01  7.63137E+00
  -6.03786E+01 -1.20606E+02 -9.97257E+01 -5.73365E+01 -3.33520E+01 -1.51198E+01 -6.13112E+00  1.73851E+00  9.23401E+00  1.65462E+01
   2.32907E+01  2.99953E+01  3.72598E+01  4.53393E+01  5.45254E+01  6.58918E+01  7.89953E+01  9.25679E+01  1.11497E+02  1.33149E+02
   1.55066E+02  1.61397E+02  1.40919E+02  4.39131E+01 -6.27056E+01 -6.94356E+01 -5.30921E+01 -4.33311E+01 -3.50150E+01 -3.30058E+01
  -3.40231E+01 -3.37200E+01 -3.36506E+01 -3.46191E+01 -3.42471E+01 -3.36702E+01 -3.31499E+01 -2.98455E+01 -2.65821E+01 -2.30633E+01
  -1.99312E+01 -1.73928E+01 -1.45652E+01 -1.24468E+01 -9.74117E+00 -6.10363E+00 -2.44073E+00 -4.83926E-01 -7.13978E-01 -9.36354E-01
   1.34686E+00  5.42336E+00  8.58508E+00  6.95118E+00  1.54157E+00 -4.14811E-01  1.32747E+00  3.49714E+00  4.13007E+00  3.90150E+00
   8.28619E+00  1.98475E+01  3.50468E+01  4.33904E+01  3.60963E+01  2.57213E+01  2.97544E+01  4.20725E+01  4.32383E+01  3.05940E+01
   1.18748E+01  1.19656E+00 -1.08831E+00 -5.19806E+00 -7.33952E+00 -8.44433E+00 -8.74559E+00 -8.05491E+00 -6.88716E+00 -4.86527E+00
  -3.00472E+00 -7.07129E-01  3.62494E+00  6.99613E+00  1.19384E+01  2.37759E+01  2.46060E+01  1.76673E+01  2.54192E+01  2.82728E+01
   2.77320E+01  2.82789E+01  2.75696E+01  3.77481E+01  4.01299E+01  3.36315E+01  2.60271E+01  1.82318E+01  1.11452E+01  9.04435E-01
  -5.08191E+00 -8.48450E+00 -8.23609E+00 -3.00447E+00  1.17223E+01  2.73383E+01  4.92584E+01  6.77964E+01  6.22548E+01  6.15435E+01
   5.19994E+01  3.73748E+01  3.72433E+01  3.85681E+01  4.32573E+01  4.83442E+01  4.75737E+01  4.42954E+01  3.74604E+01  2.57387E+01
   1.47210E+01  2.63045E+00 -9.31938E+00 -2.01430E+01 -2.89134E+01 -3.73904E+01 -4.41550E+01 -4.51038E+01 -4.66827E+01 -4.45871E+01
  -3.67959E+01 -3.12270E+01 -2.39030E+01 -1.07697E+01 -3.87322E+00  4.07362E+00  8.13041E+00  3.47260E+00  1.76606E+00 -7.32788E+00
  -1.56879E+01 -2.27597E+01 -3.04432E+01 -3.97726E+01 -4.54907E+01 -5.55562E+01 -6.57675E+01 -6.35139E+01  6.61306E+01  1.95695E+02
   1.83608E+02  1.69395E+02  1.45286E+02  1.31263E+02  1.24093E+02  1.19549E+02  1.14930E+02  1.10009E+02  1.04683E+02  1.00480E+02
   9.71347E+01  9.57379E+01  9.63897E+01  9.65361E+01  9.91218E+01  9.97889E+01  1.00828E+02  1.01137E+02  9.99516E+01  9.95942E+01
   9.79200E+01  9.60678E+01  9.36070E+01  9.13090E+01  8.92511E+01  8.73097E+01  8.47180E+01  8.22666E+01  7.98512E+01  7.68544E+01
   7.35518E+01  6.96010E+01  6.53356E+01  6.14598E+01  5.74730E+01  5.44057E+01  5.33585E+01  5.38434E+01  5.57162E+01  5.81917E+01
   6.08104E+01  6.32548E+01  6.60724E+01  6.90658E+01  7.16540E+01  7.39956E+01  7.60282E+01  7.79833E+01  8.01357E+01  8.27505E+01
   8.55419E+01  8.75958E+01  8.93167E+01  9.07425E+01  9.19785E+01  9.34049E+01  9.39129E+01  9.34969E+01  9.29305E+01  9.13954E+01
   8.87700E+01  8.61545E+01  8.32817E+01  7.94019E+01  7.50694E+01  7.08205E+01  6.51672E+01  5.81687E+01  4.90547E+01  3.86437E+01
   2.90583E+01  2.09173E+01  1.45473E+01  1.03246E+01  9.12919E+00  1.08677E+01  1.48170E+01  2.00746E+01  2.43264E+01  2.74065E+01
   2.95494E+01  3.11373E+01  3.35979E+01  3.73253E+01  4.17563E+01  4.57873E+01  4.93014E+01  5.10584E+01  5.11899E+01  5.11122E+01
   5.06263E+01  4.91188E+01  4.61849E+01  4.23807E+01  3.76210E+01  3.24843E+01  2.82938E+01  2.63268E+01  2.60998E+01  2.68941E+01
   2.93325E+01  3.21959E+01  3.56917E+01  3.96320E+01  4.32804E+01  4.70855E+01  5.04806E+01  5.34807E+01  5.65307E+01  5.93385E+01
   6.25152E+01  6.58162E+01  6.87894E+01  7.20899E+01  7.56171E+01  7.94506E+01  8.41860E+01  8.96957E+01  9.51152E+01  1.01183E+02
   1.08666E+02  1.15807E+02  1.23095E+02  1.31295E+02  1.39709E+02  1.46857E+02  1.51963E+02  1.53927E+02  1.50912E+02  1.43228E+02
   1.31661E+02  1.18987E+02  1.07893E+02  9.91202E+01  9.18451E+01  8.54627E+01  7.94160E+01  7.18046E+01  6.24923E+01  5.26115E+01
   4.34652E+01  3.47003E+01  2.81740E+01  2.36774E+01  2.01445E+01  1.76736E+01  1.59461E+01  1.51170E+01  1.41656E+01  1.31739E+01
   1.21459E+01  1.12479E+01  1.08126E+01  1.07701E+01  1.09319E+01  1.08946E+01  1.08274E+01  1.11015E+01  1.11163E+01  1.08179E+01
   1.06349E+01  1.14217E+01  1.18869E+01  1.15636E+01  1.15507E+01  1.17869E+01  1.20307E+01  1.19283E+01  1.18604E+01  1.22213E+01
   1.29223E+01  1.32213E+01  1.30717E+01  1.30220E+01  1.27664E+01  1.28667E+01  1.30708E+01  1.35426E+01  1.39021E+01  1.42323E+01
   1.46532E+01  1.46836E+01  1.49000E+01  1.49903E+01  1.50260E+01  1.46538E+01  1.45271E+01  1.47880E+01  1.51335E+01  1.54870E+01
   1.55869E+01  1.57552E+01  1.57261E+01  1.56051E+01  1.60674E+01  1.65048E+01  1.67003E+01  1.70119E+01  1.71850E+01  1.72880E+01
   1.75144E+01  1.76730E+01  1.77278E+01  1.76472E+01  1.74568E+01  1.74977E+01  1.78251E+01  1.80646E+01  1.87336E+01  1.93589E+01
   1.96317E+01  1.94843E+01  1.90763E+01  1.88753E+01  1.88367E+01  1.92536E+01  1.93579E+01  1.94022E+01  1.97383E+01  1.98168E+01
 NY background values follow
     3.420E+01    3.426E+01    3.432E+01    3.438E+01    3.444E+01    3.451E+01    3.457E+01    3.463E+01    3.469E+01    3.476E+01
     3.482E+01    3.488E+01    3.494E+01    3.501E+01    3.507E+01    3.513E+01    3.520E+01    3.526E+01    3.532E+01    3.539E+01
     3.545E+01    3.552E+01    3.558E+01    3.565E+01    3.571E+01    3.578E+01    3.585E+01    3.591E+01    3.598E+01    3.605E+01
     3.612E+01    3.618E+01    3.625E+01    3.632E+01    3.639E+01    3.646E+01    3.653E+01    3.660E+01    3.667E+01    3.673E+01
     3.680E+01    3.687E+01    3.694E+01    3.701E+01    3.708E+01    3.715E+01    3.722E+01    3.729E+01    3.736E+01    3.742E+01
     3.749E+01    3.756E+01    3.763E+01    3.769E+01    3.776E+01    3.782E+01    3.789E+01    3.795E+01    3.802E+01    3.808E+01
     3.814E+01    3.820E+01    3.826E+01    3.832E+01    3.838E+01    3.844E+01    3.850E+01    3.855E+01    3.861E+01    3.866E+01
     3.872E+01    3.877E+01    3.882E+01    3.887E+01    3.892E+01    3.897E+01    3.902E+01    3.906E+01    3.911E+01    3.915E+01
     3.920E+01    3.924E+01    3.928E+01    3.932E+01    3.936E+01    3.939E+01    3.943E+01    3.946E+01    3.949E+01    3.953E+01
     3.956E+01    3.958E+01    3.961E+01    3.964E+01    3.966E+01    3.968E+01    3.971E+01    3.973E+01    3.974E+01    3.976E+01
     3.978E+01    3.979E+01    3.981E+01    3.982E+01    3.983E+01    3.984E+01    3.985E+01    3.986E+01    3.987E+01    3.987E+01
     3.988E+01    3.988E+01    3.988E+01    3.988E+01    3.988E+01    3.988E+01    3.988E+01    3.988E+01    3.988E+01    3.987E+01
     3.986E+01    3.986E+01    3.985E+01    3.984E+01    3.983E+01    3.982E+01    3.981E+01    3.980E+01    3.979E+01    3.977E+01
     3.976E+01    3.974E+01    3.972E+01    3.971E+01    3.969E+01    3.967E+01    3.965E+01    3.963E+01    3.961E+01    3.958E+01
     3.956E+01    3.954E+01    3.951E+01    3.948E+01    3.946E+01    3.943E+01    3.940E+01    3.937E+01    3.934E+01    3.931E+01
     3.928E+01    3.925E+01    3.921E+01    3.918E+01    3.914E+01    3.911E+01    3.907E+01    3.903E+01    3.900E+01    3.896E+01
     3.892E+01    3.888E+01    3.884E+01    3.880E+01    3.875E+01    3.871E+01    3.867E+01    3.862E+01    3.858E+01    3.854E+01
     3.849E+01    3.844E+01    3.840E+01    3.835E+01    3.830E+01    3.825E+01    3.821E+01    3.816E+01    3.811E+01    3.806E+01
     3.801E+01    3.796E+01    3.790E+01    3.785E+01    3.780E+01    3.775E+01    3.769E+01    3.764E+01    3.759E+01    3.753E+01
     3.748E+01    3.743E+01    3.737E+01    3.732E+01    3.726E+01    3.720E+01    3.715E+01    3.709E+01    3.704E+01    3.698E+01
     3.692E+01    3.687E+01    3.681E+01    3.675E+01    3.669E+01    3.664E+01    3.658E+01    3.652E+01    3.646E+01    3.641E+01
     3.635E+01    3.629E+01    3.623E+01    3.618E+01    3.612E+01    3.606E+01    3.600E+01    3.594E+01    3.588E+01    3.583E+01
     3.577E+01    3.571E+01    3.565E+01    3.559E+01    3.553E+01    3.547E+01    3.541E+01    3.534E+01    3.528E+01    3.522E+01
     3.516E+01    3.509E+01    3.503E+01    3.497E+01    3.490E+01    3.484E+01    3.477E+01    3.471E+01    3.464E+01    3.457E+01
     3.450E+01    3.444E+01    3.437E+01    3.430E+01    3.423E+01    3.416E+01    3.408E+01    3.401E+01    3.394E+01    3.386E+01
     3.379E+01    3.372E+01    3.364E+01    3.356E+01    3.349E+01    3.341E+01    3.333E+01    3.325E+01    3.317E+01    3.310E+01
     3.302E+01    3.293E+01    3.285E+01    3.277E+01    3.269E+01    3.261E+01    3.252E+01    3.244E+01    3.235E+01    3.227E+01
     3.218E+01    3.209E+01    3.201E+01    3.192E+01    3.183E+01    3.174E+01    3.166E+01    3.157E+01    3.148E+01    3.139E+01
     3.130E+01    3.122E+01    3.113E+01    3.104E+01    3.096E+01    3.087E+01    3.078E+01    3.070E+01    3.061E+01    3.053E+01
     3.045E+01    3.037E+01    3.029E+01    3.021E+01    3.013E+01    3.005E+01    2.997E+01    2.990E+01    2.983E+01    2.975E+01
     2.968E+01    2.961E+01    2.955E+01    2.948E+01    2.942E+01    2.936E+01    2.929E+01    2.924E+01    2.918E+01    2.912E+01
     2.907E+01    2.902E+01    2.896E+01    2.892E+01    2.887E+01    2.882E+01    2.878E+01    2.873E+01    2.869E+01    2.865E+01
     2.862E+01    2.858E+01    2.854E+01    2.851E+01    2.848E+01    2.845E+01    2.842E+01    2.840E+01    2.837E+01    2.835E+01
     2.833E+01    2.831E+01    2.829E+01    2.827E+01    2.826E+01    2.824E+01    2.823E+01    2.822E+01    2.821E+01    2.820E+01
     2.820E+01    2.819E+01    2.818E+01    2.818E+01    2.818E+01    2.817E+01    2.817E+01    2.817E+01    2.817E+01    2.817E+01
     2.817E+01    2.818E+01    2.818E+01    2.818E+01    2.818E+01    2.819E+01    2.819E+01    2.820E+01    2.820E+01    2.821E+01
     2.821E+01    2.821E+01    2.822E+01    2.822E+01    2.823E+01    2.823E+01    2.824E+01    2.824E+01    2.824E+01    2.825E+01
     2.825E+01    2.825E+01    2.826E+01    2.826E+01    2.826E+01    2.826E+01    2.826E+01    2.826E+01    2.826E+01    2.826E+01
     2.826E+01    2.826E+01    2.825E+01    2.825E+01    2.825E+01    2.824E+01    2.823E+01    2.823E+01    2.822E+01    2.821E+01
     2.820E+01    2.819E+01    2.818E+01    2.816E+01    2.815E+01    2.813E+01    2.812E+01    2.810E+01    2.808E+01    2.806E+01
     2.804E+01    2.802E+01    2.800E+01    2.798E+01    2.795E+01    2.793E+01    2.790E+01    2.787E+01    2.785E+01    2.782E+01
     2.779E+01    2.776E+01    2.772E+01    2.769E+01    2.766E+01    2.762E+01    2.758E+01    2.755E+01    2.751E+01    2.747E+01
     2.743E+01    2.739E+01    2.735E+01    2.730E+01    2.726E+01    2.721E+01    2.717E+01    2.712E+01    2.707E+01    2.703E+01
     2.698E+01    2.693E+01    2.688E+01    2.683E+01    2.678E+01    2.672E+01    2.667E+01    2.662E+01    2.656E+01    2.651E+01
     2.645E+01    2.640E+01    2.634E+01    2.629E+01    2.623E+01    2.617E+01    2.612E+01    2.606E+01    2.600E+01    2.594E+01
     2.588E+01    2.582E+01    2.576E+01    2.570E+01    2.565E+01    2.559E+01    2.553E+01    2.547E+01    2.541E+01    2.534E+01
     2.528E+01    2.522E+01    2.516E+01    2.510E+01    2.504E+01    2.498E+01    2.492E+01    2.486E+01    2.480E+01    2.473E+01
     2.467E+01    2.461E+01    2.455E+01    2.449E+01    2.443E+01    2.436E+01    2.430E+01    2.424E+01    2.418E+01    2.412E+01
 Mac      Conc. = 2.92E-04
   1.40180E+01  1.32115E+01  1.27903E+01  1.27671E+01  1.26223E+01  1.21912E+01  1.10460E+01  9.43063E+00  7.49573E+00  5.60959E+00
   4.31087E+00  3.62972E+00  3.76632E+00  3.91672E+00  3.57150E+00  2.61951E+00  4.39499E-01 -8.92308E-01  1.10368E-01  5.06405E+00
   1.13716E+01  1.52462E+01  1.86246E+01  2.21471E+01  2.36869E+01  2.44216E+01  2.53835E+01  2.69780E+01  2.90133E+01  3.10296E+01
   3.33126E+01  3.48247E+01  3.59280E+01  3.65744E+01  3.69780E+01  3.66450E+01  3.61206E+01  3.67413E+01  3.87567E+01  4.19154E+01
   4.42337E+01  4.46193E+01  4.38103E+01  4.37672E+01  4.50237E+01  4.66073E+01  4.82048E+01  4.84517E+01  4.77715E+01  4.67402E+01
   4.53028E+01  4.38078E+01  4.23753E+01  4.19403E+01  4.13683E+01  4.09328E+01  4.10192E+01  4.14254E+01  4.27560E+01  4.47320E+01
   4.61285E+01  4.71805E+01  4.87353E+01  4.95377E+01  4.88580E+01  4.79952E+01  4.68201E+01  4.58963E+01  4.57099E+01  4.54758E+01
   4.55812E+01  4.65847E+01  4.94858E+01  5.25709E+01  5.45497E+01  5.53189E+01  5.56981E+01  5.52121E+01  5.42939E+01  5.34809E+01
   5.25202E+01  5.21563E+01  5.18074E+01  5.16554E+01  5.20458E+01  5.32143E+01  5.41678E+01  5.51333E+01  5.59696E+01  5.65787E+01
   5.71915E+01  5.73883E+01  5.79650E+01  5.80305E+01  5.77756E+01  5.71509E+01  5.55685E+01  5.29225E+01  5.03284E+01  4.75351E+01
   4.51872E+01  4.35748E+01  4.17921E+01  3.89950E+01  3.53442E+01  3.09920E+01  2.49095E+01  1.78045E+01  1.09548E+01  6.56764E+00
