 
 $NMID
 ID=''
 FMTDAT='(2E13.5)'
 TRAMP=   1.00000E+0
 VOLUME=   1.00000E+0
 $END
  -5.02624E+5   3.32450E+5
  -1.53160E+6   4.07496E+5
  -1.40103E+6   5.89656E+5
  -1.30684E+6   4.25810E+5
  -1.40478E+6   3.24782E+5
  -1.41386E+6   3.14100E+5
  -1.40480E+6   2.65727E+5
  -1.43201E+6   2.70318E+5
  -1.37208E+6   2.75438E+5
  -1.34083E+6   1.94487E+5
  -1.37452E+6   1.48481E+5
  -1.36920E+6   1.43242E+5
  -1.35932E+6   1.20555E+5
  -1.35478E+6   1.19522E+5
  -1.31451E+6   1.05371E+5
  -1.29826E+6   5.93040E+4
  -1.31591E+6   3.48824E+4
  -1.30336E+6   1.33192E+4
  -1.28950E+6  -2.41035E+4
  -1.28285E+6  -4.59247E+4
  -1.25810E+6  -7.66004E+4
  -1.24661E+6  -1.17580E+5
  -1.24478E+6  -1.37346E+5
  -1.22811E+6  -1.59069E+5
  -1.21196E+6  -1.89678E+5
  -1.20070E+6  -1.99212E+5
  -1.18424E+6  -2.14103E+5
  -1.17419E+6  -2.35609E+5
  -1.16183E+6  -2.48317E+5
  -1.14508E+6  -2.60746E+5
  -1.13489E+6  -2.84648E+5
  -1.12090E+6  -3.02656E+5
  -1.10160E+6  -3.24210E+5
  -1.08853E+6  -3.46509E+5
  -1.07504E+6  -3.64072E+5
  -1.05847E+6  -3.84999E+5
  -1.04561E+6  -4.08335E+5
  -1.02952E+6  -4.26559E+5
  -1.01102E+6  -4.42260E+5
  -9.98493E+5  -4.57427E+5
  -9.83518E+5  -4.68861E+5
  -9.67328E+5  -4.80246E+5
  -9.54347E+5  -4.89293E+5
  -9.41299E+5  -4.98152E+5
  -9.25549E+5  -5.08234E+5
  -9.13456E+5  -5.18415E+5
  -8.99191E+5  -5.29583E+5
  -8.81359E+5  -5.43264E+5
  -8.62301E+5  -5.54380E+5
  -8.45930E+5  -5.64878E+5
  -8.29951E+5  -5.77056E+5
  -8.13329E+5  -5.88745E+5
  -7.96866E+5  -5.98705E+5
  -7.80188E+5  -6.08806E+5
  -7.63478E+5  -6.17785E+5
  -7.46132E+5  -6.26173E+5
  -7.29497E+5  -6.33059E+5
  -7.13999E+5  -6.38069E+5
  -6.98562E+5  -6.41990E+5
  -6.83014E+5  -6.47617E+5
  -6.67191E+5  -6.53224E+5
  -6.51142E+5  -6.58632E+5
  -6.35283E+5  -6.64149E+5
  -6.18095E+5  -6.69532E+5
  -5.99612E+5  -6.72899E+5
  -5.81681E+5  -6.76018E+5
  -5.64524E+5  -6.79509E+5
  -5.47342E+5  -6.82669E+5
  -5.31087E+5  -6.85665E+5
  -5.14879E+5  -6.87857E+5
  -4.97644E+5  -6.89403E+5
  -4.81576E+5  -6.90098E+5
  -4.66744E+5  -6.91000E+5
  -4.51022E+5  -6.92750E+5
  -4.34865E+5  -6.92801E+5
  -4.18796E+5  -6.92104E+5
  -4.03078E+5  -6.91857E+5
  -3.86611E+5  -6.91703E+5
  -3.69337E+5  -6.91908E+5
  -3.52507E+5  -6.91049E+5
  -3.35772E+5  -6.89309E+5
  -3.19926E+5  -6.87431E+5
  -3.04006E+5  -6.85498E+5
  -2.87892E+5  -6.83818E+5
  -2.72133E+5  -6.81000E+5
  -2.57551E+5  -6.77448E+5
  -2.44266E+5  -6.74032E+5
  -2.30645E+5  -6.70553E+5
  -2.17051E+5  -6.66471E+5
  -2.04058E+5  -6.62015E+5
  -1.91875E+5  -6.57604E+5
  -1.78889E+5  -6.53862E+5
  -1.65528E+5  -6.49113E+5
  -1.52066E+5  -6.43613E+5
  -1.38862E+5  -6.37954E+5
  -1.26160E+5  -6.32764E+5
  -1.13466E+5  -6.27529E+5
  -1.01230E+5  -6.22103E+5
  -8.88911E+4  -6.16176E+5
  -7.74691E+4  -6.10102E+5
  -6.63632E+4  -6.03990E+5
  -5.51669E+4  -5.98359E+5
  -4.43659E+4  -5.91489E+5
  -3.41656E+4  -5.84005E+5
  -2.51862E+4  -5.77011E+5
  -1.64199E+4  -5.70627E+5
  -6.73104E+3  -5.64279E+5
   3.65823E+3  -5.56926E+5
   1.22010E+4  -5.48881E+5
   2.01616E+4  -5.41324E+5
   2.84305E+4  -5.34673E+5
   3.77890E+4  -5.27411E+5
   4.71167E+4  -5.19766E+5
   5.56237E+4  -5.12092E+5
   6.39003E+4  -5.04298E+5
   7.24048E+4  -4.96991E+5
   8.04707E+4  -4.88849E+5
   8.86300E+4  -4.80656E+5
   9.50672E+4  -4.71871E+5
   1.01559E+5  -4.63955E+5
   1.08269E+5  -4.56371E+5
   1.15032E+5  -4.48987E+5
   1.21805E+5  -4.40828E+5
   1.28064E+5  -4.32841E+5
   1.34401E+5  -4.24435E+5
   1.40342E+5  -4.15726E+5
   1.45829E+5  -4.07380E+5
   1.51719E+5  -3.99018E+5
   1.56841E+5  -3.91030E+5
   1.62594E+5  -3.83106E+5
   1.68278E+5  -3.74674E+5
   1.73696E+5  -3.65794E+5
   1.78399E+5  -3.57053E+5
   1.83089E+5  -3.48821E+5
   1.87772E+5  -3.40794E+5
   1.91948E+5  -3.31795E+5
   1.95487E+5  -3.23567E+5
   1.99511E+5  -3.15455E+5
   2.03988E+5  -3.07470E+5
   2.07870E+5  -2.99023E+5
   2.10850E+5  -2.90322E+5
   2.13842E+5  -2.81901E+5
   2.16771E+5  -2.74095E+5
   2.19945E+5  -2.66221E+5
   2.22665E+5  -2.58256E+5
   2.25242E+5  -2.50379E+5
   2.27276E+5  -2.42403E+5
   2.29486E+5  -2.34551E+5
   2.31143E+5  -2.27009E+5
   2.32808E+5  -2.19542E+5
   2.34274E+5  -2.12405E+5
   2.35133E+5  -2.05148E+5
   2.36501E+5  -1.98118E+5
   2.37693E+5  -1.91238E+5
   2.38954E+5  -1.84017E+5
   2.39555E+5  -1.76978E+5
   2.40111E+5  -1.70454E+5
   2.40766E+5  -1.64026E+5
   2.41498E+5  -1.57223E+5
   2.41464E+5  -1.50755E+5
   2.41726E+5  -1.44672E+5
   2.41958E+5  -1.38834E+5
   2.41753E+5  -1.32020E+5
   2.41610E+5  -1.26000E+5
   2.41038E+5  -1.20766E+5
   2.40788E+5  -1.15063E+5
   2.40651E+5  -1.09468E+5
   2.40399E+5  -1.04025E+5
   2.39751E+5  -9.87381E+4
   2.38733E+5  -9.34895E+4
   2.38172E+5  -8.86313E+4
   2.37302E+5  -8.35654E+4
   2.36814E+5  -7.88290E+4
   2.35750E+5  -7.39090E+4
   2.34265E+5  -6.91152E+4
   2.33391E+5  -6.46022E+4
   2.32523E+5  -5.99528E+4
   2.31293E+5  -5.50553E+4
   2.29529E+5  -5.05299E+4
   2.28079E+5  -4.65652E+4
   2.27133E+5  -4.24068E+4
   2.25891E+5  -3.77817E+4
   2.24325E+5  -3.37997E+4
   2.22868E+5  -2.96361E+4
   2.21266E+5  -2.57126E+4
   2.19504E+5  -2.21565E+4
   2.17347E+5  -1.80932E+4
   2.15397E+5  -1.47354E+4
   2.13988E+5  -1.12829E+4
   2.12286E+5  -8.33662E+3
   2.10809E+5  -4.65593E+3
   2.08828E+5  -1.04889E+3
   2.06632E+5   2.44081E+3
   2.04575E+5   5.60998E+3
   2.02311E+5   8.54591E+3
   2.00445E+5   1.18622E+4
   1.98157E+5   1.49902E+4
   1.96060E+5   1.80025E+4
   1.94177E+5   2.11001E+4
   1.91970E+5   2.42995E+4
   1.89661E+5   2.73485E+4
   1.87074E+5   3.00883E+4
   1.84689E+5   3.27826E+4
   1.82480E+5   3.54699E+4
   1.80208E+5   3.81932E+4
   1.77913E+5   4.10268E+4
   1.75450E+5   4.33827E+4
   1.73064E+5   4.59690E+4
   1.70334E+5   4.83285E+4
   1.67716E+5   5.08011E+4
   1.65092E+5   5.34129E+4
   1.62462E+5   5.53550E+4
   1.60399E+5   5.76267E+4
   1.57962E+5   5.98226E+4
   1.55082E+5   6.23557E+4
   1.52442E+5   6.42327E+4
   1.49788E+5   6.61077E+4
   1.47220E+5   6.76920E+4
   1.44727E+5   6.95352E+4
   1.41959E+5   7.15956E+4
   1.39454E+5   7.30405E+4
   1.37033E+5   7.46939E+4
   1.34483E+5   7.62395E+4
   1.31976E+5   7.80296E+4
   1.29340E+5   7.92274E+4
   1.26757E+5   8.05534E+4
   1.24353E+5   8.18402E+4
   1.22145E+5   8.29884E+4
   1.19645E+5   8.45877E+4
   1.16833E+5   8.56951E+4
   1.14505E+5   8.65736E+4
   1.12038E+5   8.72109E+4
   1.09636E+5   8.85338E+4
   1.07414E+5   8.94030E+4
   1.04843E+5   9.02466E+4
   1.02694E+5   9.08899E+4
   1.00622E+5   9.18617E+4
   9.80963E+4   9.23875E+4
   9.60524E+4   9.31614E+4
   9.40175E+4   9.37721E+4
   9.19072E+4   9.41442E+4
   8.96484E+4   9.47583E+4
   8.74585E+4   9.52772E+4
   8.52751E+4   9.58267E+4
   8.28854E+4   9.59464E+4
   8.09944E+4   9.66124E+4
   7.89279E+4   9.67187E+4
   7.68010E+4   9.71278E+4
   7.47899E+4   9.71542E+4
   7.29839E+4   9.74612E+4
   7.13358E+4   9.76651E+4
   6.90599E+4   9.78331E+4
   6.71592E+4   9.80218E+4
   6.51940E+4   9.81405E+4
   6.33376E+4   9.79277E+4
   6.14304E+4   9.80669E+4
   5.96695E+4   9.80643E+4
   5.79408E+4   9.80704E+4
   5.59825E+4   9.81053E+4
   5.40411E+4   9.81304E+4
   5.20641E+4   9.80058E+4
   5.02217E+4   9.78610E+4
   4.81054E+4   9.74253E+4
   4.65492E+4   9.74790E+4
   4.47131E+4   9.71235E+4
   4.28455E+4   9.73249E+4
   4.10697E+4   9.68768E+4
   3.91636E+4   9.67452E+4
   3.75124E+4   9.62787E+4
   3.56146E+4   9.61592E+4
   3.38937E+4   9.56955E+4
   3.22331E+4   9.52850E+4
   3.05390E+4   9.47242E+4
   2.89547E+4   9.45160E+4
   2.71120E+4   9.42056E+4
   2.53819E+4   9.36298E+4
   2.36821E+4   9.32457E+4
   2.22240E+4   9.27118E+4
   2.07180E+4   9.21511E+4
   1.91140E+4   9.16275E+4
   1.73254E+4   9.09807E+4
   1.58869E+4   9.08815E+4
   1.42953E+4   8.97374E+4
   1.28858E+4   8.96317E+4
   1.11398E+4   8.88628E+4
   9.70797E+3   8.79257E+4
   8.24177E+3   8.75327E+4
   7.22737E+3   8.67270E+4
   5.47557E+3   8.64263E+4
   4.17007E+3   8.57907E+4
   2.71661E+3   8.50490E+4
   1.48009E+3   8.41483E+4
   2.15023E+2   8.39581E+4
  -1.14191E+3   8.28708E+4
  -2.75098E+3   8.23742E+4
  -3.51513E+3   8.14296E+4
  -4.95488E+3   8.08417E+4
  -5.81156E+3   7.99758E+4
  -7.29747E+3   7.90992E+4
  -8.42034E+3   7.85661E+4
  -9.33164E+3   7.76438E+4
  -1.05560E+4   7.69087E+4
  -1.17773E+4   7.63002E+4
  -1.28307E+4   7.53500E+4
  -1.38745E+4   7.45458E+4
  -1.49032E+4   7.37966E+4
  -1.58731E+4   7.27230E+4
  -1.68901E+4   7.20279E+4
  -1.77333E+4   7.12063E+4
  -1.86815E+4   7.03318E+4
  -1.95731E+4   6.95706E+4
  -2.05752E+4   6.86391E+4
  -2.12863E+4   6.77340E+4
  -2.23927E+4   6.69987E+4
  -2.29991E+4   6.59335E+4
  -2.37930E+4   6.47905E+4
  -2.46795E+4   6.40862E+4
  -2.55087E+4   6.30806E+4
  -2.60628E+4   6.22204E+4
  -2.66771E+4   6.12127E+4
  -2.76232E+4   6.05330E+4
  -2.85214E+4   5.96263E+4
  -2.89941E+4   5.83473E+4
  -2.97670E+4   5.74552E+4
  -3.02188E+4   5.66092E+4
  -3.08459E+4   5.54890E+4
  -3.16375E+4   5.44869E+4
  -3.23939E+4   5.35733E+4
  -3.26649E+4   5.22234E+4
  -3.33863E+4   5.13320E+4
  -3.40170E+4   5.04365E+4
  -3.42749E+4   4.95442E+4
  -3.48055E+4   4.86394E+4
  -3.54201E+4   4.74733E+4
  -3.59833E+4   4.68032E+4
  -3.65602E+4   4.55298E+4
  -3.69422E+4   4.44322E+4
  -3.74069E+4   4.33814E+4
  -3.77004E+4   4.24947E+4
  -3.81090E+4   4.15039E+4
  -3.88979E+4   4.06775E+4
  -3.89727E+4   3.93715E+4
  -3.95429E+4   3.86317E+4
  -3.99872E+4   3.75821E+4
  -3.99962E+4   3.65466E+4
  -4.05837E+4   3.53273E+4
  -4.08017E+4   3.43593E+4
  -4.09972E+4   3.35375E+4
  -4.11936E+4   3.24674E+4
  -4.17030E+4   3.17057E+4
  -4.20553E+4   3.04301E+4
  -4.20655E+4   2.96599E+4
  -4.23091E+4   2.88147E+4
  -4.26576E+4   2.76249E+4
  -4.27285E+4   2.68832E+4
  -4.28616E+4   2.59726E+4
  -4.28507E+4   2.48384E+4
  -4.30892E+4   2.43291E+4
  -4.34043E+4   2.33362E+4
  -4.33764E+4   2.25258E+4
  -4.31547E+4   2.15326E+4
  -4.32198E+4   2.09466E+4
  -4.34979E+4   1.99289E+4
  -4.34967E+4   1.93747E+4
  -4.35764E+4   1.83501E+4
  -4.35604E+4   1.75659E+4
  -4.35894E+4   1.66447E+4
