 LCModel (Version 6.3-1N) Copyright: S.W. Provencher.          Ref.: Magn. Reson. Med. 30:672-679 (1993).                
 Slice_N1@19_21  28-Feb-2025 11:42:19
 27 lines in following concentration table = NCONC+1
    Conc.  %SD /Cr+PCr  Metabolite                                         
 3.23E-04   4% 2.9E-04 Mac                                                 
    3.533  40%   3.205 Cr                                                  
    5.286  26%   4.795 PCr                                                 
   10.043  10%   9.111 Ins                                                 
   12.110   6%  10.986 NAA                                                 
    7.923  12%   7.187 Tau                                                 
    0.273 387%   0.247 PCho                                                
    1.457  68%   1.322 GPC                                                 
    9.868  11%   8.951 Glu                                                 
    5.441  15%   4.935 Gln                                                 
    5.648  13%   5.124 Ala                                                 
    3.789  34%   3.437 Asc                                                 
    2.055  54%   1.864 Asp                                                 
    0.839  68%   0.761 GABA                                                
    0.530 151%   0.481 Glc                                                 
    0.939  56%   0.852 GSH                                                 
    4.317  17%   3.916 Lac                                                 
    2.278  27%   2.067 NAAG                                                
    1.344  88%   1.219 PE                                                  
    1.730  18%   1.569 GPC+PCho                                            
   14.388   6%  13.052 NAA+NAAG                                            
   15.309   9%  13.887 Glu+Gln                                             
    8.819   8%   8.000 Cr+PCr                                              
   14.388   6%  13.052 NAA+NAAG                                            
    8.819   8%   8.000 Cr+PCr                                              
   15.309   9%  13.887 Glu+Gln                                             
   6 lines in following misc. output table
  FWHM = 0.024 ppm    S/N =   4                                            
  Data shift = 0.033 ppm                                                   
  Ph: -68 deg       0.0 deg/ppm                                            
  alphaB,S = 1.7E-01,   1.5E+01                                            
   19 spline knots.   Ns = 5(1)                                            
  ( 3) 2 infls.   ( 3) 1 extrs.                                            
  480 points on ppm-axis = NY
      4.100000     4.091866     4.083733     4.075600     4.067466     4.059333     4.051199     4.043066     4.034933     4.026799
      4.018666     4.010532     4.002399     3.994265     3.986132     3.977998     3.969864     3.961731     3.953597     3.945463
      3.937330     3.929196     3.921062     3.912929     3.904795     3.896662     3.888528     3.880394     3.872261     3.864127
      3.855993     3.847860     3.839726     3.831592     3.823459     3.815325     3.807191     3.799058     3.790924     3.782790
      3.774657     3.766523     3.758389     3.750256     3.742122     3.733989     3.725855     3.717721     3.709588     3.701454
      3.693320     3.685187     3.677053     3.668919     3.660786     3.652652     3.644518     3.636385     3.628251     3.620117
      3.611984     3.603850     3.595716     3.587583     3.579449     3.571316     3.563182     3.555048     3.546915     3.538781
      3.530647     3.522514     3.514380     3.506246     3.498113     3.489979     3.481845     3.473712     3.465578     3.457444
      3.449311     3.441177     3.433043     3.424910     3.416776     3.408643     3.400509     3.392375     3.384242     3.376108
      3.367974     3.359841     3.351707     3.343573     3.335440     3.327306     3.319172     3.311039     3.302905     3.294771
      3.286638     3.278504     3.270370     3.262237     3.254103     3.245970     3.237836     3.229702     3.221569     3.213435
      3.205301     3.197168     3.189034     3.180900     3.172767     3.164633     3.156499     3.148366     3.140232     3.132098
      3.123965     3.115831     3.107697     3.099564     3.091430     3.083297     3.075163     3.067029     3.058896     3.050762
      3.042628     3.034495     3.026361     3.018227     3.010094     3.001960     2.993826     2.985693     2.977559     2.969425
      2.961292     2.953158     2.945024     2.936891     2.928757     2.920624     2.912490     2.904356     2.896223     2.888089
      2.879955     2.871822     2.863688     2.855554     2.847421     2.839287     2.831153     2.823020     2.814886     2.806752
      2.798619     2.790485     2.782351     2.774218     2.766084     2.757951     2.749817     2.741683     2.733550     2.725416
      2.717282     2.709149     2.701015     2.692881     2.684748     2.676614     2.668480     2.660347     2.652213     2.644079
      2.635946     2.627812     2.619678     2.611545     2.603411     2.595278     2.587144     2.579010     2.570877     2.562743
      2.554609     2.546476     2.538342     2.530208     2.522075     2.513941     2.505807     2.497674     2.489540     2.481406
      2.473273     2.465139     2.457006     2.448872     2.440738     2.432605     2.424471     2.416337     2.408204     2.400070
      2.391936     2.383803     2.375669     2.367535     2.359402     2.351268     2.343134     2.335001     2.326867     2.318733
      2.310600     2.302466     2.294333     2.286199     2.278065     2.269932     2.261798     2.253664     2.245531     2.237397
      2.229263     2.221130     2.212996     2.204862     2.196729     2.188595     2.180461     2.172328     2.164194     2.156060
      2.147927     2.139793     2.131660     2.123526     2.115392     2.107259     2.099125     2.090991     2.082858     2.074724
      2.066590     2.058457     2.050323     2.042189     2.034056     2.025922     2.017788     2.009655     2.001521     1.993387
      1.985254     1.977120     1.968987     1.960853     1.952719     1.944586     1.936452     1.928318     1.920185     1.912051
      1.903917     1.895784     1.887650     1.879516     1.871383     1.863249     1.855115     1.846982     1.838848     1.830714
      1.822581     1.814447     1.806314     1.798180     1.790046     1.781913     1.773779     1.765645     1.757512     1.749378
      1.741244     1.733111     1.724977     1.716843     1.708710     1.700576     1.692442     1.684309     1.676175     1.668041
      1.659908     1.651774     1.643641     1.635507     1.627373     1.619240     1.611106     1.602972     1.594839     1.586705
      1.578571     1.570438     1.562304     1.554170     1.546037     1.537903     1.529769     1.521636     1.513502     1.505368
      1.497235     1.489101     1.480968     1.472834     1.464700     1.456567     1.448433     1.440299     1.432166     1.424032
      1.415898     1.407765     1.399631     1.391497     1.383364     1.375230     1.367096     1.358963     1.350829     1.342695
      1.334562     1.326428     1.318295     1.310161     1.302027     1.293894     1.285760     1.277626     1.269493     1.261359
      1.253225     1.245092     1.236958     1.228824     1.220691     1.212557     1.204423     1.196290     1.188156     1.180022
      1.171889     1.163755     1.155622     1.147488     1.139354     1.131221     1.123087     1.114953     1.106820     1.098686
      1.090552     1.082419     1.074285     1.066151     1.058018     1.049884     1.041750     1.033617     1.025483     1.017349
      1.009216     1.001082     0.992949     0.984815     0.976681     0.968548     0.960414     0.952280     0.944147     0.936013
      0.927879     0.919746     0.911612     0.903478     0.895345     0.887211     0.879077     0.870944     0.862810     0.854676
      0.846543     0.838409     0.830276     0.822142     0.814008     0.805875     0.797741     0.789607     0.781474     0.773340
      0.765206     0.757073     0.748939     0.740805     0.732672     0.724538     0.716404     0.708271     0.700137     0.692003
      0.683870     0.675736     0.667603     0.659469     0.651335     0.643202     0.635068     0.626934     0.618801     0.610667
      0.602533     0.594400     0.586266     0.578132     0.569999     0.561865     0.553731     0.545598     0.537464     0.529330
      0.521197     0.513063     0.504930     0.496796     0.488662     0.480529     0.472395     0.464261     0.456128     0.447994
      0.439861     0.431727     0.423593     0.415460     0.407326     0.399192     0.391059     0.382925     0.374792     0.366658
      0.358524     0.350391     0.342257     0.334124     0.325990     0.317856     0.309723     0.301589     0.293455     0.285322
      0.277188     0.269055     0.260921     0.252787     0.244654     0.236520     0.228386     0.220253     0.212119     0.203986
 NY phased data points follow
  -2.82247E+01 -1.41907E+01 -2.32342E+01 -3.20778E+01 -2.38641E+01 -1.52848E+01 -1.66130E+01 -1.68489E+01 -3.32728E+01 -4.77970E+01
  -4.42064E+01 -4.13046E+01 -3.86586E+01 -5.70646E+01 -6.00978E+01 -4.26976E+01 -5.90988E+01 -7.01560E+01 -8.01528E+01 -8.82325E+01
  -6.16958E+01 -4.22418E+01 -3.40122E+01 -1.59584E+00  3.89771E+01  2.86194E+01  1.28767E+01  2.61933E+01  1.71475E+01  2.93970E+01
   3.08191E+01  1.00211E+01  1.46458E+01 -5.22669E+00  5.31542E+00  1.61868E+01 -1.28283E+01 -1.87619E+01 -4.12624E+01 -5.72071E+01
  -6.21242E+01 -5.84184E+01 -3.39926E+01 -1.87189E+01  6.22492E+00  1.11484E+01  2.87922E+01  5.60427E+01  4.30498E+01  3.91968E+01
   3.36231E+01  3.33205E+01  2.69189E+01  1.55080E+01  6.25868E+00 -1.82774E+01 -6.51254E-01 -1.47061E+01 -4.77545E+01 -2.90771E+01
  -1.85884E+01 -1.09375E+01  1.24042E+01  3.40759E+01  3.11322E+01  4.55320E+01  5.21303E+01  1.29972E+01 -4.05427E+01 -4.77765E+01
  -3.51470E+00 -2.19140E+01 -2.27235E+01  2.51801E+01  3.58690E+01  4.11513E+01  5.51684E+01  6.13342E+01  5.64957E+01  4.95709E+01
   3.70205E+01  3.73314E+01  1.78185E+01 -9.20252E+00 -1.42427E+01 -1.10474E+01  8.54402E+00  2.85152E+01  5.26796E+01  4.83763E+01
   5.22326E+01  6.82249E+01  6.72422E+01  8.40312E+01  7.26333E+01  6.54332E+01  9.01467E+01  7.90249E+01  5.35832E+01  4.76661E+01
   4.48720E+01  3.30992E+01 -1.69826E+00 -1.34930E+01 -1.96728E+01 -4.54685E+01 -4.80139E+01 -5.01072E+01 -6.97826E+01 -1.30003E+02
  -1.53004E+02 -1.23751E+02 -1.00937E+02 -6.38298E+01 -4.99262E+01 -3.83639E+01 -2.58994E+01 -1.99110E+01 -1.15484E+01  2.30677E+00
   2.04913E+01  1.58916E+01  1.94961E+01  1.69825E+01  2.74688E+01  4.58256E+01  4.64021E+01  7.39044E+01  9.54535E+01  1.19503E+02
   1.29584E+02  5.24787E+01 -5.20048E+01 -1.02559E+02 -1.01821E+02 -8.98459E+01 -7.68723E+01 -7.59355E+01 -8.40954E+01 -6.34026E+01
  -6.34723E+01 -7.06395E+01 -4.77444E+01 -5.94154E+01 -6.72277E+01 -5.48835E+01 -5.41789E+01 -4.18812E+01 -4.11974E+01 -4.71710E+01
  -4.22642E+01 -3.70579E+01 -3.46626E+01 -3.68197E+01 -3.03195E+01 -2.66732E+01 -2.98395E+01 -2.93248E+01 -2.29167E+01 -2.07308E+01
  -2.46850E+01 -1.59829E+01 -1.66869E+01 -2.26123E+01 -2.80712E+01 -2.56219E+01 -3.92974E+00 -7.44922E+00 -9.37615E+00  8.22523E+00
   3.26519E+00  2.03779E+00  1.67883E+01  9.46408E+00  7.54176E+00  1.67044E+01  1.68144E+01  2.08566E+01  4.98902E+00 -1.97501E+01
  -3.28762E+01 -2.58324E+01 -3.10035E+01 -5.68102E+01 -4.90927E+01 -4.17365E+01 -4.02340E+01 -2.73215E+01 -2.67919E+01 -2.76970E+01
  -1.65814E+01 -2.06865E+01 -2.31073E+01  9.66859E+00  9.24881E+00 -1.34646E+01 -6.51751E-01 -1.10693E+00 -1.10176E+01 -1.05602E+00
  -3.19750E+00  3.61150E+00  3.15273E+01  3.14766E+01  7.17301E+00 -1.46720E+00  1.84756E+00 -4.90759E+00 -1.62463E+01 -2.33021E+01
  -2.11375E+01 -1.29235E+01  4.96237E+00  1.70968E+01  3.33618E+01  5.86624E+01  6.33508E+01  6.55039E+01  4.66657E+01  2.96375E+01
   2.27536E+01  1.51306E+01  1.25935E+01  6.14277E+00  1.59440E+01 -2.79145E+00  1.24566E+00  1.33772E+01 -3.42444E+00 -3.85039E+00
  -1.82424E+01 -3.05519E+00 -1.76580E+01 -4.72002E+01 -2.81743E+01 -4.97028E+01 -5.71930E+01 -4.28322E+01 -5.98222E+01 -5.45438E+01
  -4.94804E+01 -5.17555E+01 -3.24620E+01 -2.83785E+01 -1.69702E+01 -8.93137E+00 -1.85170E+01 -1.64317E+01 -1.58981E+01 -2.21455E+01
  -3.39057E+01 -2.98602E+01 -3.74190E+01 -3.28641E+01 -3.79388E+01 -1.00022E+02 -4.18598E+01  1.24505E+02  1.98310E+02  1.93426E+02
   1.87797E+02  1.62828E+02  1.36872E+02  1.35856E+02  1.26561E+02  1.18150E+02  1.04446E+02  9.41769E+01  9.52217E+01  7.51787E+01
   7.62416E+01  8.90440E+01  8.75246E+01  9.29422E+01  8.68564E+01  8.90558E+01  9.07358E+01  8.59772E+01  8.65055E+01  9.71968E+01
   9.95645E+01  6.92783E+01  8.75256E+01  8.87552E+01  7.65992E+01  9.75293E+01  7.63183E+01  8.20772E+01  7.89577E+01  6.80938E+01
   7.54701E+01  7.22068E+01  7.39149E+01  6.52700E+01  7.03577E+01  6.45189E+01  6.50037E+01  5.62630E+01  5.46041E+01  6.08930E+01
   5.54347E+01  9.02459E+01  8.94199E+01  9.44668E+01  1.14546E+02  1.09025E+02  1.17787E+02  1.36093E+02  1.37624E+02  1.19567E+02
   1.34442E+02  1.21833E+02  1.13653E+02  1.22242E+02  9.74549E+01  1.00151E+02  8.72754E+01  7.52403E+01  8.28129E+01  6.23154E+01
   4.63825E+01  4.04036E+01  2.17826E+01  1.56338E+01  1.91274E+01  7.37240E+00 -5.19924E+00 -5.63686E+00 -5.26223E+00 -9.28672E+00
  -1.19253E+01 -2.73268E+01 -2.41649E+01 -1.98487E+01 -2.34513E+01 -1.49581E+01 -2.57428E+01 -2.46465E+01 -2.54488E+01 -3.21038E+01
  -3.15451E+01 -2.92344E+01 -3.72751E+01 -4.80797E+01 -3.88360E+01 -3.57055E+01 -1.73345E+01 -1.79089E+01 -1.41764E+01 -5.08497E+00
  -1.78822E+01  3.53222E+00 -4.71675E-01 -1.41163E+01 -1.10564E+01 -2.31998E+01 -4.04855E+01 -3.97601E+01 -2.32071E+01 -3.01810E+01
  -3.66448E+01 -2.80117E+01 -1.85469E+01 -1.02002E+01 -1.80093E+00 -4.19244E+00 -5.01804E+00 -1.08004E+01 -1.38615E+01  9.03631E+00
   1.79300E+01  2.74592E+01  3.36849E+01  3.44582E+01  3.81391E+01  3.98206E+01  4.49084E+01  4.39708E+01  5.18087E+01  7.26725E+01
   9.02608E+01  7.37310E+01  7.75096E+01  8.51178E+01  8.42520E+01  1.03264E+02  9.83025E+01  1.11974E+02  1.09844E+02  1.16682E+02
   1.22270E+02  8.69460E+01  8.05513E+01  6.56332E+01  4.68433E+01  4.58044E+01  6.25996E+01  4.98372E+01  3.39062E+01  2.92243E+01
  -8.14930E-01  4.69556E+00 -1.10386E+01 -2.84018E+01 -2.92811E+01 -3.62821E+01 -1.85931E+01 -1.56425E+01 -2.78540E+01 -3.84914E+01
  -3.49890E+01 -3.08860E+01 -3.21947E+01 -3.56661E+01 -2.97673E+01 -2.94151E+01 -2.92949E+01 -1.51514E+01 -3.72809E+01 -3.93466E+01
  -1.93752E+01 -1.71880E+01 -1.75785E+01 -1.75395E+01 -1.39238E+01 -2.86564E+01 -3.02483E+01 -1.89251E+01 -2.28596E+01 -3.44366E+01
  -3.30901E+01 -2.26747E+01 -2.82854E+01 -2.87736E+01 -2.60243E+01 -1.91053E+01 -1.54313E+01 -1.96169E+01 -1.47818E+01 -2.72148E+01
  -2.82144E+01 -1.51508E+01 -1.15579E+01 -1.78448E+01 -2.83759E+01 -1.07998E+01 -2.98786E+01 -3.31674E+01 -4.91943E+00 -2.93835E+01
  -2.99435E+01 -2.19321E+01 -1.97676E+01 -2.75143E+01 -3.02643E+01 -1.37243E+01 -1.71735E+01 -1.08033E+01 -2.51339E+01 -2.73680E+01
  -2.46492E+01 -2.97271E+01 -1.50806E+01 -2.38568E+01 -3.29515E+01 -2.40875E+01 -1.61847E+01 -3.33243E+01 -2.51321E+01 -7.27410E+00
  -2.48887E+01 -2.25074E+01 -7.24414E+00 -1.62858E+01 -2.54829E+01 -1.69264E+01 -1.41477E+01 -3.85870E+00 -1.53686E+01 -2.45662E+01
 NY points of the fit to the data follow
  -3.93698E+01 -4.32093E+01 -4.92606E+01 -5.02399E+01 -3.81784E+01 -1.87552E+01 -7.53221E+00 -1.09201E+01 -2.18061E+01 -3.21763E+01
  -3.86863E+01 -4.14740E+01 -4.19410E+01 -4.22241E+01 -4.45230E+01 -4.98303E+01 -5.43818E+01 -6.06945E+01 -7.27654E+01 -8.15423E+01
  -7.26207E+01 -4.73992E+01 -1.90289E+01  5.64265E+00  2.16704E+01  2.71458E+01  2.87415E+01  3.06121E+01  3.17821E+01  3.11885E+01
   2.91149E+01  2.64713E+01  2.29450E+01  1.71006E+01  9.23035E+00 -6.34430E-01 -1.12926E+01 -2.36511E+01 -3.93254E+01 -5.55929E+01
  -6.24001E+01 -5.38713E+01 -3.60298E+01 -1.62052E+01  3.21917E+00  1.98016E+01  3.11876E+01  3.77342E+01  4.04602E+01  3.97638E+01
   3.61927E+01  2.99610E+01  2.16264E+01  9.93929E+00 -2.60264E+00 -8.17080E+00 -1.09866E+01 -2.06681E+01 -2.97112E+01 -2.52129E+01
  -1.35722E+01 -4.03098E+00  9.79111E+00  2.64974E+01  3.55519E+01  3.69905E+01  2.86705E+01  4.38822E+00 -2.51933E+01 -3.78536E+01
  -3.04235E+01 -1.86688E+01 -6.71609E+00  1.07786E+01  2.94390E+01  4.24309E+01  4.85176E+01  5.10803E+01  5.00799E+01  4.51456E+01
   3.37919E+01  1.68248E+01 -2.03968E+00 -1.55754E+01 -1.80464E+01 -9.59195E+00  6.28320E+00  2.31036E+01  3.54059E+01  4.36590E+01
   4.95983E+01  5.47670E+01  5.98740E+01  6.47156E+01  6.83700E+01  7.24798E+01  7.61536E+01  7.50571E+01  7.06262E+01  6.91805E+01
   6.44577E+01  5.08854E+01  3.13828E+01  1.14911E+01 -1.24358E+01 -3.30255E+01 -3.88938E+01 -4.51756E+01 -7.27610E+01 -1.12305E+02
  -1.29693E+02 -1.14144E+02 -8.69499E+01 -6.45027E+01 -4.96144E+01 -3.95359E+01 -3.08179E+01 -2.26335E+01 -1.49429E+01 -7.39427E+00
   5.45673E-01  9.20948E+00  1.89782E+01  3.00589E+01  4.26727E+01  5.77433E+01  7.57670E+01  8.58045E+01  9.57733E+01  1.12857E+02
   1.08753E+02  4.80926E+01 -3.93239E+01 -9.11498E+01 -9.80758E+01 -8.75414E+01 -7.71130E+01 -7.25152E+01 -7.10570E+01 -6.98825E+01
  -6.85995E+01 -6.74709E+01 -6.65284E+01 -6.53699E+01 -6.36741E+01 -6.11715E+01 -5.78529E+01 -5.41562E+01 -5.05860E+01 -4.74083E+01
  -4.46675E+01 -4.23451E+01 -4.00754E+01 -3.73343E+01 -3.43518E+01 -3.18812E+01 -3.03667E+01 -2.95294E+01 -2.85417E+01 -2.66379E+01
  -2.42733E+01 -2.30824E+01 -2.37794E+01 -2.47128E+01 -2.38897E+01 -2.15750E+01 -1.95485E+01 -1.86441E+01 -1.72445E+01 -1.12629E+01
   1.41976E+00  1.44197E+01  1.72912E+01  9.96850E+00  4.32018E+00  9.05643E+00  1.73111E+01  1.64202E+01  3.69414E+00 -1.16100E+01
  -2.15782E+01 -2.66863E+01 -2.94653E+01 -3.08676E+01 -3.13545E+01 -3.10628E+01 -3.02397E+01 -2.95153E+01 -2.83555E+01 -2.55261E+01
  -2.32540E+01 -2.23981E+01 -1.78404E+01 -8.45472E+00 -1.49635E+00 -9.37589E-01  3.82049E-01  5.82196E+00  9.71399E+00  9.14974E+00
   8.60925E+00  1.28499E+01  1.82303E+01  1.85491E+01  1.47361E+01  9.51719E+00  2.80967E+00 -5.86757E+00 -1.45720E+01 -2.12563E+01
  -2.20013E+01 -1.74076E+01 -6.93866E+00  1.05339E+01  3.28108E+01  5.10091E+01  5.89283E+01  5.85736E+01  5.12571E+01  4.04459E+01
   3.33004E+01  3.14338E+01  3.29671E+01  3.49278E+01  3.46587E+01  3.13355E+01  2.47547E+01  1.51856E+01  4.01870E+00 -8.30090E+00
  -2.07351E+01 -3.19925E+01 -4.20130E+01 -5.06323E+01 -5.68621E+01 -6.04138E+01 -6.24944E+01 -6.21840E+01 -6.00808E+01 -5.69665E+01
  -5.21056E+01 -4.37943E+01 -3.28987E+01 -2.22964E+01 -1.36742E+01 -1.00813E+01 -1.20086E+01 -1.79331E+01 -2.40909E+01 -3.00045E+01
  -4.06788E+01 -5.42393E+01 -5.00688E+01 -4.21962E+01 -6.03927E+01 -7.54329E+01 -2.02433E+01  8.94532E+01  1.67848E+02  1.84369E+02
   1.68756E+02  1.48595E+02  1.35540E+02  1.28215E+02  1.22565E+02  1.17355E+02  1.12334E+02  1.07814E+02  1.04216E+02  1.01911E+02
   1.00922E+02  1.00821E+02  1.01277E+02  1.01699E+02  1.01727E+02  1.01324E+02  1.00499E+02  9.94679E+01  9.81114E+01  9.61791E+01
   9.37828E+01  9.13480E+01  8.90187E+01  8.65973E+01  8.39276E+01  8.11082E+01  7.82162E+01  7.50540E+01  7.13719E+01  6.71475E+01
   6.27775E+01  5.85153E+01  5.44743E+01  5.11765E+01  4.93621E+01  4.93704E+01  5.10085E+01  5.35125E+01  5.62125E+01  5.89761E+01
   6.19486E+01  6.50109E+01  6.79528E+01  7.07548E+01  7.33733E+01  7.58409E+01  7.84779E+01  8.15060E+01  8.46984E+01  8.76069E+01
   9.00928E+01  9.23819E+01  9.47774E+01  9.71590E+01  9.92852E+01  1.01232E+02  1.02724E+02  1.01313E+02  9.97501E+01  9.39993E+01
   7.67659E+01  4.76410E+01  1.72514E+01 -5.84991E+00 -1.81370E+01 -1.70650E+01 -9.87717E+00 -6.79016E+00 -8.76583E+00 -1.31974E+01
  -1.73267E+01 -1.93709E+01 -1.86867E+01 -1.48793E+01 -8.07052E+00  6.39501E-01  8.35750E+00  1.67233E+01  2.18148E+01  1.83409E+01
   4.37788E+00 -1.35301E+01 -2.85283E+01 -3.50398E+01 -2.97139E+01 -1.87774E+01 -1.00484E+01 -4.81944E+00 -2.65895E+00 -2.52304E+00
  -3.93180E+00 -6.67643E+00 -1.06044E+01 -1.49918E+01 -1.86502E+01 -2.07839E+01 -2.12012E+01 -2.01087E+01 -1.77761E+01 -1.45793E+01
  -1.07400E+01 -6.47917E+00 -2.12577E+00  2.03039E+00  5.90467E+00  9.54801E+00  1.30252E+01  1.65158E+01  2.01082E+01  2.36622E+01
   2.72611E+01  3.10452E+01  3.51132E+01  3.95928E+01  4.47285E+01  5.04005E+01  5.65758E+01  6.35598E+01  7.13104E+01  7.92826E+01
   8.74781E+01  9.61390E+01  1.04872E+02  1.12517E+02  1.18035E+02  1.20366E+02  1.18489E+02  1.11778E+02  1.00959E+02  8.83658E+01
   7.63696E+01  6.60612E+01  5.73510E+01  4.99386E+01  4.28371E+01  3.47201E+01  2.52964E+01  1.52562E+01  5.24993E+00 -3.96038E+00
  -1.14591E+01 -1.69727E+01 -2.11202E+01 -2.42193E+01 -2.63157E+01 -2.76332E+01 -2.85814E+01 -2.94840E+01 -3.03789E+01 -3.11671E+01
  -3.15793E+01 -3.16032E+01 -3.15390E+01 -3.15693E+01 -3.14306E+01 -3.10156E+01 -3.08352E+01 -3.10038E+01 -3.09707E+01 -3.04413E+01
  -2.99497E+01 -2.98209E+01 -2.97365E+01 -2.94770E+01 -2.91638E+01 -2.90062E+01 -2.88747E+01 -2.84868E+01 -2.78601E+01 -2.73899E+01
  -2.72222E+01 -2.72395E+01 -2.73011E+01 -2.72075E+01 -2.68575E+01 -2.63694E+01 -2.59255E+01 -2.54901E+01 -2.51087E+01 -2.48081E+01
  -2.45205E+01 -2.42169E+01 -2.40420E+01 -2.41189E+01 -2.42388E+01 -2.40756E+01 -2.36826E+01 -2.32834E+01 -2.29280E+01 -2.26585E+01
  -2.26280E+01 -2.25641E+01 -2.22327E+01 -2.17352E+01 -2.13094E+01 -2.09349E+01 -2.06826E+01 -2.04471E+01 -2.01559E+01 -1.98798E+01
  -1.97692E+01 -1.97984E+01 -1.98023E+01 -1.97005E+01 -1.94763E+01 -1.90597E+01 -1.83950E+01 -1.76310E+01 -1.71526E+01 -1.71299E+01
  -1.74249E+01 -1.76506E+01 -1.75085E+01 -1.71463E+01 -1.68587E+01 -1.65987E+01 -1.63183E+01 -1.61720E+01 -1.60669E+01 -1.56866E+01
 NY background values follow
    -2.905E-01   -2.476E-01   -2.044E-01   -1.608E-01   -1.169E-01   -7.265E-02   -2.791E-02    1.731E-02    6.305E-02    1.094E-01
     1.563E-01    2.038E-01    2.521E-01    3.011E-01    3.508E-01    4.014E-01    4.528E-01    5.051E-01    5.583E-01    6.125E-01
     6.677E-01    7.240E-01    7.813E-01    8.398E-01    8.995E-01    9.603E-01    1.022E+00    1.086E+00    1.151E+00    1.217E+00
     1.284E+00    1.353E+00    1.424E+00    1.495E+00    1.568E+00    1.642E+00    1.718E+00    1.794E+00    1.871E+00    1.949E+00
     2.028E+00    2.107E+00    2.188E+00    2.269E+00    2.350E+00    2.432E+00    2.514E+00    2.597E+00    2.680E+00    2.763E+00
     2.846E+00    2.929E+00    3.012E+00    3.095E+00    3.178E+00    3.260E+00    3.343E+00    3.424E+00    3.506E+00    3.587E+00
     3.667E+00    3.747E+00    3.826E+00    3.904E+00    3.982E+00    4.059E+00    4.136E+00    4.213E+00    4.289E+00    4.364E+00
     4.440E+00    4.515E+00    4.590E+00    4.664E+00    4.739E+00    4.813E+00    4.887E+00    4.961E+00    5.035E+00    5.109E+00
     5.183E+00    5.258E+00    5.332E+00    5.406E+00    5.481E+00    5.556E+00    5.631E+00    5.706E+00    5.782E+00    5.858E+00
     5.934E+00    6.011E+00    6.089E+00    6.167E+00    6.245E+00    6.325E+00    6.405E+00    6.486E+00    6.568E+00    6.650E+00
     6.734E+00    6.819E+00    6.905E+00    6.992E+00    7.081E+00    7.171E+00    7.262E+00    7.355E+00    7.449E+00    7.545E+00
     7.643E+00    7.742E+00    7.843E+00    7.946E+00    8.051E+00    8.158E+00    8.267E+00    8.378E+00    8.491E+00    8.607E+00
     8.725E+00    8.845E+00    8.967E+00    9.092E+00    9.218E+00    9.346E+00    9.476E+00    9.608E+00    9.741E+00    9.876E+00
     1.001E+01    1.015E+01    1.029E+01    1.043E+01    1.057E+01    1.071E+01    1.085E+01    1.099E+01    1.113E+01    1.127E+01
     1.142E+01    1.156E+01    1.170E+01    1.184E+01    1.199E+01    1.213E+01    1.227E+01    1.241E+01    1.255E+01    1.269E+01
     1.283E+01    1.296E+01    1.310E+01    1.323E+01    1.337E+01    1.350E+01    1.363E+01    1.376E+01    1.389E+01    1.402E+01
     1.415E+01    1.427E+01    1.440E+01    1.452E+01    1.465E+01    1.477E+01    1.489E+01    1.502E+01    1.514E+01    1.526E+01
     1.538E+01    1.549E+01    1.561E+01    1.573E+01    1.585E+01    1.596E+01    1.608E+01    1.619E+01    1.630E+01    1.642E+01
     1.653E+01    1.664E+01    1.675E+01    1.686E+01    1.697E+01    1.708E+01    1.719E+01    1.730E+01    1.741E+01    1.751E+01
     1.762E+01    1.772E+01    1.783E+01    1.793E+01    1.804E+01    1.814E+01    1.824E+01    1.834E+01    1.844E+01    1.854E+01
     1.864E+01    1.874E+01    1.883E+01    1.893E+01    1.903E+01    1.912E+01    1.921E+01    1.931E+01    1.940E+01    1.949E+01
     1.958E+01    1.967E+01    1.976E+01    1.985E+01    1.993E+01    2.002E+01    2.010E+01    2.018E+01    2.026E+01    2.034E+01
     2.041E+01    2.049E+01    2.056E+01    2.062E+01    2.069E+01    2.075E+01    2.081E+01    2.087E+01    2.092E+01    2.097E+01
     2.101E+01    2.106E+01    2.110E+01    2.113E+01    2.116E+01    2.119E+01    2.121E+01    2.123E+01    2.124E+01    2.125E+01
     2.125E+01    2.125E+01    2.124E+01    2.123E+01    2.121E+01    2.119E+01    2.116E+01    2.113E+01    2.109E+01    2.105E+01
     2.100E+01    2.095E+01    2.089E+01    2.083E+01    2.077E+01    2.069E+01    2.062E+01    2.053E+01    2.045E+01    2.035E+01
     2.026E+01    2.015E+01    2.005E+01    1.993E+01    1.982E+01    1.969E+01    1.956E+01    1.943E+01    1.929E+01    1.915E+01
     1.900E+01    1.885E+01    1.869E+01    1.853E+01    1.836E+01    1.818E+01    1.800E+01    1.781E+01    1.762E+01    1.742E+01
     1.722E+01    1.701E+01    1.679E+01    1.657E+01    1.634E+01    1.610E+01    1.586E+01    1.561E+01    1.535E+01    1.509E+01
     1.482E+01    1.454E+01    1.425E+01    1.396E+01    1.366E+01    1.335E+01    1.304E+01    1.272E+01    1.239E+01    1.205E+01
     1.170E+01    1.135E+01    1.098E+01    1.062E+01    1.024E+01    9.858E+00    9.470E+00    9.077E+00    8.678E+00    8.275E+00
     7.867E+00    7.456E+00    7.040E+00    6.622E+00    6.201E+00    5.777E+00    5.351E+00    4.924E+00    4.495E+00    4.066E+00
     3.636E+00    3.206E+00    2.776E+00    2.347E+00    1.918E+00    1.492E+00    1.067E+00    6.440E-01    2.239E-01   -1.933E-01
    -6.072E-01   -1.017E+00   -1.424E+00   -1.826E+00   -2.223E+00   -2.616E+00   -3.004E+00   -3.387E+00   -3.764E+00   -4.136E+00
    -4.501E+00   -4.860E+00   -5.213E+00   -5.559E+00   -5.898E+00   -6.230E+00   -6.554E+00   -6.871E+00   -7.179E+00   -7.479E+00
    -7.771E+00   -8.053E+00   -8.327E+00   -8.591E+00   -8.846E+00   -9.091E+00   -9.326E+00   -9.550E+00   -9.764E+00   -9.967E+00
    -1.016E+01   -1.034E+01   -1.051E+01   -1.067E+01   -1.082E+01   -1.096E+01   -1.109E+01   -1.121E+01   -1.132E+01   -1.142E+01
    -1.152E+01   -1.160E+01   -1.168E+01   -1.175E+01   -1.181E+01   -1.187E+01   -1.192E+01   -1.196E+01   -1.199E+01   -1.202E+01
    -1.205E+01   -1.206E+01   -1.208E+01   -1.208E+01   -1.209E+01   -1.208E+01   -1.208E+01   -1.207E+01   -1.206E+01   -1.204E+01
    -1.202E+01   -1.200E+01   -1.197E+01   -1.194E+01   -1.191E+01   -1.188E+01   -1.184E+01   -1.181E+01   -1.177E+01   -1.173E+01
    -1.169E+01   -1.164E+01   -1.160E+01   -1.155E+01   -1.151E+01   -1.146E+01   -1.142E+01   -1.137E+01   -1.132E+01   -1.127E+01
    -1.123E+01   -1.118E+01   -1.114E+01   -1.109E+01   -1.105E+01   -1.100E+01   -1.096E+01   -1.092E+01   -1.088E+01   -1.085E+01
    -1.081E+01   -1.078E+01   -1.075E+01   -1.072E+01   -1.069E+01   -1.067E+01   -1.064E+01   -1.062E+01   -1.060E+01   -1.058E+01
    -1.056E+01   -1.055E+01   -1.053E+01   -1.052E+01   -1.051E+01   -1.050E+01   -1.049E+01   -1.048E+01   -1.047E+01   -1.047E+01
    -1.046E+01   -1.046E+01   -1.046E+01   -1.046E+01   -1.046E+01   -1.046E+01   -1.046E+01   -1.047E+01   -1.047E+01   -1.048E+01
    -1.048E+01   -1.049E+01   -1.049E+01   -1.050E+01   -1.051E+01   -1.052E+01   -1.053E+01   -1.054E+01   -1.055E+01   -1.056E+01
    -1.057E+01   -1.059E+01   -1.060E+01   -1.061E+01   -1.062E+01   -1.064E+01   -1.065E+01   -1.066E+01   -1.068E+01   -1.069E+01
    -1.071E+01   -1.072E+01   -1.073E+01   -1.075E+01   -1.076E+01   -1.078E+01   -1.079E+01   -1.080E+01   -1.082E+01   -1.083E+01
 Mac      Conc. = 3.23E-04
  -2.39009E+01 -2.42828E+01 -2.46092E+01 -2.51299E+01 -2.61332E+01 -2.77457E+01 -2.97179E+01 -3.16661E+01 -3.31407E+01 -3.39921E+01
  -3.43929E+01 -3.46394E+01 -3.49447E+01 -3.55433E+01 -3.69322E+01 -3.82828E+01 -3.73562E+01 -3.32693E+01 -2.79193E+01 -2.32212E+01
  -1.91256E+01 -1.55784E+01 -1.32045E+01 -1.18306E+01 -1.06846E+01 -9.21545E+00 -7.25529E+00 -4.93484E+00 -2.68587E+00 -9.46681E-01
   3.09890E-01  1.28434E+00  1.90259E+00  2.00126E+00  1.81210E+00  2.14069E+00  3.77706E+00  6.50327E+00  8.94785E+00  1.00046E+01
   9.94860E+00  9.94852E+00  1.07687E+01  1.22578E+01  1.36681E+01  1.42544E+01  1.39411E+01  1.29998E+01  1.16695E+01  1.01839E+01
   8.81675E+00  7.82956E+00  7.28817E+00  7.07725E+00  7.00382E+00  7.36046E+00  8.56363E+00  1.02371E+01  1.17692E+01  1.32197E+01
   1.46517E+01  1.55577E+01  1.54968E+01  1.46976E+01  1.35569E+01  1.27126E+01  1.24216E+01  1.22839E+01  1.22823E+01  1.32856E+01
   1.57387E+01  1.87638E+01  2.10800E+01  2.23270E+01  2.27132E+01  2.24713E+01  2.17569E+01  2.08376E+01  2.01295E+01  1.97408E+01
   1.94225E+01  1.93101E+01  1.96802E+01  2.05523E+01  2.15485E+01  2.25750E+01  2.35957E+01  2.44602E+01  2.50934E+01  2.56281E+01
   2.59914E+01  2.61446E+01  2.59927E+01  2.52906E+01  2.37133E+01  2.13953E+01  1.86580E+01  1.57701E+01  1.31662E+01  1.10465E+01
   8.84984E+00  5.90559E+00  2.10966E+00 -2.51396E+00 -8.30181E+00 -1.52755E+01 -2.21592E+01 -2.69401E+01 -2.85650E+01 -2.75982E+01
