 LCModel (Version 6.3-1N) Copyright: S.W. Provencher.          Ref.: Magn. Reson. Med. 30:672-679 (1993).                
 Slice_N1@22_10  28-Feb-2025 11:40:51
 27 lines in following concentration table = NCONC+1
    Conc.  %SD /Cr+PCr  Metabolite                                         
 1.73E-04  31% 8.3E-05 Mac                                                 
   16.662  20%   8.000 Cr                                                  
    0.000 999%   0.000 PCr                                                 
    0.000 999%   0.000 Ins                                                 
    6.059  66%   2.909 NAA                                                 
    0.000 999%   0.000 Tau                                                 
    0.000 999%   0.000 PCho                                                
    8.467  14%   4.065 GPC                                                 
   65.438   9%  31.418 Glu                                                 
   37.342  12%  17.929 Gln                                                 
   19.918  24%   9.563 Ala                                                 
  165.886   5%  79.647 Asc                                                 
   17.360  22%   8.335+Asp                                                 
    0.000 999%   0.000 GABA                                                
    5.220  44%   2.506 Glc                                                 
   31.655  10%  15.198 GSH                                                 
   18.738  24%   8.996 Lac                                                 
    0.659 621%   0.316 NAAG                                                
    0.000 999%   0.000 PE                                                  
    8.467  14%   4.065 GPC+PCho                                            
    6.717  58%   3.225 NAA+NAAG                                            
  102.780   9%  49.348 Glu+Gln                                             
   16.662  20%   8.000 Cr+PCr                                              
    6.717  58%   3.225 NAA+NAAG                                            
   16.662  20%   8.000 Cr+PCr                                              
  102.780   9%  49.348 Glu+Gln                                             
   6 lines in following misc. output table
  FWHM = 0.138 ppm    S/N =   7                                            
  Data shift =-0.033 ppm                                                   
  Ph: 111 deg       0.0 deg/ppm                                            
  alphaB,S = 7.2E-02,   2.4E+02                                            
   19 spline knots.   Ns = 9(1)                                            
  (16) 2 infls.   (11) 1 extrs.                                            
  480 points on ppm-axis = NY
      4.100000     4.091866     4.083733     4.075600     4.067466     4.059333     4.051199     4.043066     4.034933     4.026799
      4.018666     4.010532     4.002399     3.994265     3.986132     3.977998     3.969864     3.961731     3.953597     3.945463
      3.937330     3.929196     3.921062     3.912929     3.904795     3.896662     3.888528     3.880394     3.872261     3.864127
      3.855993     3.847860     3.839726     3.831592     3.823459     3.815325     3.807191     3.799058     3.790924     3.782790
      3.774657     3.766523     3.758389     3.750256     3.742122     3.733989     3.725855     3.717721     3.709588     3.701454
      3.693320     3.685187     3.677053     3.668919     3.660786     3.652652     3.644518     3.636385     3.628251     3.620117
      3.611984     3.603850     3.595716     3.587583     3.579449     3.571316     3.563182     3.555048     3.546915     3.538781
      3.530647     3.522514     3.514380     3.506246     3.498113     3.489979     3.481845     3.473712     3.465578     3.457444
      3.449311     3.441177     3.433043     3.424910     3.416776     3.408643     3.400509     3.392375     3.384242     3.376108
      3.367974     3.359841     3.351707     3.343573     3.335440     3.327306     3.319172     3.311039     3.302905     3.294771
      3.286638     3.278504     3.270370     3.262237     3.254103     3.245970     3.237836     3.229702     3.221569     3.213435
      3.205301     3.197168     3.189034     3.180900     3.172767     3.164633     3.156499     3.148366     3.140232     3.132098
      3.123965     3.115831     3.107697     3.099564     3.091430     3.083297     3.075163     3.067029     3.058896     3.050762
      3.042628     3.034495     3.026361     3.018227     3.010094     3.001960     2.993826     2.985693     2.977559     2.969425
      2.961292     2.953158     2.945024     2.936891     2.928757     2.920624     2.912490     2.904356     2.896223     2.888089
      2.879955     2.871822     2.863688     2.855554     2.847421     2.839287     2.831153     2.823020     2.814886     2.806752
      2.798619     2.790485     2.782351     2.774218     2.766084     2.757951     2.749817     2.741683     2.733550     2.725416
      2.717282     2.709149     2.701015     2.692881     2.684748     2.676614     2.668480     2.660347     2.652213     2.644079
      2.635946     2.627812     2.619678     2.611545     2.603411     2.595278     2.587144     2.579010     2.570877     2.562743
      2.554609     2.546476     2.538342     2.530208     2.522075     2.513941     2.505807     2.497674     2.489540     2.481406
      2.473273     2.465139     2.457006     2.448872     2.440738     2.432605     2.424471     2.416337     2.408204     2.400070
      2.391936     2.383803     2.375669     2.367535     2.359402     2.351268     2.343134     2.335001     2.326867     2.318733
      2.310600     2.302466     2.294333     2.286199     2.278065     2.269932     2.261798     2.253664     2.245531     2.237397
      2.229263     2.221130     2.212996     2.204862     2.196729     2.188595     2.180461     2.172328     2.164194     2.156060
      2.147927     2.139793     2.131660     2.123526     2.115392     2.107259     2.099125     2.090991     2.082858     2.074724
      2.066590     2.058457     2.050323     2.042189     2.034056     2.025922     2.017788     2.009655     2.001521     1.993387
      1.985254     1.977120     1.968987     1.960853     1.952719     1.944586     1.936452     1.928318     1.920185     1.912051
      1.903917     1.895784     1.887650     1.879516     1.871383     1.863249     1.855115     1.846982     1.838848     1.830714
      1.822581     1.814447     1.806314     1.798180     1.790046     1.781913     1.773779     1.765645     1.757512     1.749378
      1.741244     1.733111     1.724977     1.716843     1.708710     1.700576     1.692442     1.684309     1.676175     1.668041
      1.659908     1.651774     1.643641     1.635507     1.627373     1.619240     1.611106     1.602972     1.594839     1.586705
      1.578571     1.570438     1.562304     1.554170     1.546037     1.537903     1.529769     1.521636     1.513502     1.505368
      1.497235     1.489101     1.480968     1.472834     1.464700     1.456567     1.448433     1.440299     1.432166     1.424032
      1.415898     1.407765     1.399631     1.391497     1.383364     1.375230     1.367096     1.358963     1.350829     1.342695
      1.334562     1.326428     1.318295     1.310161     1.302027     1.293894     1.285760     1.277626     1.269493     1.261359
      1.253225     1.245092     1.236958     1.228824     1.220691     1.212557     1.204423     1.196290     1.188156     1.180022
      1.171889     1.163755     1.155622     1.147488     1.139354     1.131221     1.123087     1.114953     1.106820     1.098686
      1.090552     1.082419     1.074285     1.066151     1.058018     1.049884     1.041750     1.033617     1.025483     1.017349
      1.009216     1.001082     0.992949     0.984815     0.976681     0.968548     0.960414     0.952280     0.944147     0.936013
      0.927879     0.919746     0.911612     0.903478     0.895345     0.887211     0.879077     0.870944     0.862810     0.854676
      0.846543     0.838409     0.830276     0.822142     0.814008     0.805875     0.797741     0.789607     0.781474     0.773340
      0.765206     0.757073     0.748939     0.740805     0.732672     0.724538     0.716404     0.708271     0.700137     0.692003
      0.683870     0.675736     0.667603     0.659469     0.651335     0.643202     0.635068     0.626934     0.618801     0.610667
      0.602533     0.594400     0.586266     0.578132     0.569999     0.561865     0.553731     0.545598     0.537464     0.529330
      0.521197     0.513063     0.504930     0.496796     0.488662     0.480529     0.472395     0.464261     0.456128     0.447994
      0.439861     0.431727     0.423593     0.415460     0.407326     0.399192     0.391059     0.382925     0.374792     0.366658
      0.358524     0.350391     0.342257     0.334124     0.325990     0.317856     0.309723     0.301589     0.293455     0.285322
      0.277188     0.269055     0.260921     0.252787     0.244654     0.236520     0.228386     0.220253     0.212119     0.203986
 NY phased data points follow
  -1.71066E+02 -1.90873E+02 -1.92667E+02 -2.07219E+02 -2.12880E+02 -2.17226E+02 -2.39345E+02 -2.36701E+02 -2.59709E+02 -2.77512E+02
  -2.83361E+02 -3.00855E+02 -3.01819E+02 -3.14796E+02 -3.43152E+02 -3.66734E+02 -3.81641E+02 -3.94574E+02 -4.07427E+02 -4.25288E+02
  -4.60732E+02 -4.78218E+02 -4.99658E+02 -5.37984E+02 -5.52909E+02 -5.81391E+02 -6.15195E+02 -6.35065E+02 -6.60335E+02 -6.75753E+02
  -6.94375E+02 -7.38798E+02 -8.04220E+02 -8.69117E+02 -9.23229E+02 -9.98932E+02 -1.08732E+03 -1.15684E+03 -1.22003E+03 -1.26723E+03
  -1.27069E+03 -1.24248E+03 -1.21496E+03 -1.14438E+03 -1.05769E+03 -9.96816E+02 -8.99052E+02 -8.09407E+02 -7.27803E+02 -6.34992E+02
  -5.62369E+02 -4.82923E+02 -4.12608E+02 -3.56799E+02 -3.11416E+02 -2.65456E+02 -2.16670E+02 -1.94319E+02 -1.61489E+02 -1.30711E+02
  -1.21050E+02 -9.52906E+01 -8.67309E+01 -7.77088E+01 -6.26403E+01 -5.74386E+01 -5.01877E+01 -4.40169E+01 -1.83408E+01 -1.36434E+01
  -7.58740E+00  4.03882E+00 -1.89430E+00 -1.58228E+01 -3.40858E+01 -2.06292E+01 -1.48792E+01 -1.58097E+00  6.26585E+00  3.79694E+00
   1.76581E+01  9.76542E+00 -1.25963E-01 -1.55022E+01 -1.43912E+00  1.14190E+01 -1.35326E+01 -4.01979E+00 -1.97606E+00 -2.50062E+01
  -3.96874E+01 -3.14024E+01 -5.47058E+00 -1.35207E+01 -2.80869E+00  6.29795E-01 -1.80460E+01  4.40746E+00 -4.59693E+00 -3.90805E+00
   9.71298E+00  2.85057E+00 -1.01007E+01 -2.84029E+01 -3.08871E+01 -5.73259E+01 -3.80654E+01 -3.31308E+01 -6.46630E+01 -5.33184E+01
  -7.66502E+01 -7.89454E+01 -7.60540E+01 -9.30278E+01 -8.09756E+01 -8.72452E+01 -8.50244E+01 -6.74976E+01 -4.27776E+01 -1.12018E+01
  -1.49597E+01 -1.59354E+01  1.35950E+01  1.96847E+01  2.33442E+01  3.86270E+01  2.01938E+01  2.92298E+01  3.65311E+01  2.46340E+01
   3.28631E+01  1.68607E+01  2.61103E+01  1.78063E+01  9.76473E+00  2.05907E+01  9.15113E+00 -1.68358E+01 -9.28042E+01 -1.07664E+02
  -9.01843E+01 -7.28195E+01 -5.25108E+01 -6.35620E+01 -5.63510E+01 -5.36086E+01 -4.86995E+01 -4.84553E+01 -2.40729E+01 -3.51433E+00
  -1.26543E+01 -1.13354E+01  4.35823E+00  4.81531E+00  5.53749E+00  3.43705E+01  1.64348E+01  1.97894E+01  4.32398E+01  4.04630E+01
   3.77252E+01  3.18459E+01  3.39163E+01  3.50337E+01  3.62596E+01  3.22560E+01  4.35620E+01  3.41717E+01  2.53350E+01  3.64371E+01
   3.25935E+01  1.88217E+01  2.58533E+01  3.56568E+01  2.42114E+01  4.04666E+01  2.91741E+01  3.74870E+01  6.20238E+01  4.32449E+01
   2.70240E+01  1.47600E+01  2.41407E+01  3.63944E+01  2.76067E+01  1.01176E+01  1.07554E+01  1.23233E+01  6.30271E+00 -2.41011E+00
   9.42589E+00  8.51279E+00  3.83089E+00  1.77811E+01  1.54121E+01  3.84366E+01  2.54083E+01  2.36145E+01  3.87251E+01  4.18903E+01
   4.73400E+01  3.46661E+01  4.21656E+01  2.86852E+01  3.19041E+01  4.24946E+01  3.60390E+01  1.94576E+01  3.31007E+01  4.61426E+01
   2.27071E+01  2.75710E+01  2.89165E+01  3.85980E+01  3.14247E+01  3.33874E+01  4.04011E+01  3.34024E+01  3.70430E+01  4.57300E+01
   6.36994E+01  6.70899E+01  5.92049E+01  5.10978E+01  5.32679E+01  2.66936E+01  2.55305E+01  9.96311E-01 -6.38527E+00  3.21090E+01
   1.30202E+01  2.39348E+01  1.88215E+01  1.70148E+01  1.00817E+01  2.65182E+00  4.15543E+00 -1.68773E+01  1.59779E+00 -9.39059E+00
  -1.64837E+01 -2.71899E+00 -9.69894E-01  9.94996E+00  1.53836E+01  2.00243E+01  4.89439E+01  5.34522E+01  5.83215E+01  6.37965E+01
   5.43825E+01  8.44258E+01  9.23248E+01  1.05333E+02  8.53463E+01  8.17968E+01  9.04126E+01  8.56786E+01  1.14924E+02  9.10275E+01
   1.13234E+02  1.12604E+02  1.02224E+02  1.75569E+02  2.42757E+02  2.17035E+02  1.45486E+02  1.55572E+02  1.31567E+02  9.56166E+01
   1.05134E+02  9.93909E+01  8.42361E+01  8.61869E+01  7.04354E+01  4.20402E+01  4.88998E+01  3.70118E+01  2.48973E+01  3.49773E+01
   4.03154E+01  1.60431E+01  3.35969E+01  4.55304E+01  1.49428E+01  1.93473E+01  2.27413E-01 -9.64264E+00 -5.14353E+00  6.21155E+00
  -2.91765E+00 -1.50696E+01 -3.22424E+00 -1.27004E+01 -1.77726E+00 -1.40376E+01 -1.86689E+01 -1.17894E+01 -1.71251E+01 -1.41290E+01
  -2.93398E+01 -2.01677E+01 -1.82383E+01 -1.94624E+01 -4.92063E+00  8.67742E+00  2.35679E+01  1.52174E+01  2.54869E+01  4.14668E+01
   4.41580E+01  4.67089E+01  4.47146E+01  6.12331E+01  6.21878E+01  5.97760E+01  6.80514E+01  5.52559E+01  4.31197E+01  4.51433E+01
   5.25327E+01  5.06831E+01  4.81569E+01  3.95466E+01  2.79278E+01  2.61028E+01  1.97271E+00 -2.77209E+01 -3.19282E+01 -4.03977E+01
  -3.74578E+01 -1.31178E+01 -3.26235E+01 -4.70042E+01 -2.55971E+01 -3.26204E+01 -4.82475E+01 -6.56854E+01 -6.59188E+01 -5.51584E+01
  -6.95885E+01 -6.84829E+01 -5.73707E+01 -5.20922E+01 -4.94692E+01 -4.54622E+01 -3.80838E+01 -2.59170E+01 -2.75123E+01 -4.76742E+01
  -2.75569E+01 -1.14887E+01 -1.25964E+01 -2.14101E+01 -3.22876E+01 -2.63116E+01 -3.49577E+01 -1.95221E+01 -1.49366E+01 -1.67617E+01
  -1.37021E+01 -2.28993E+01 -2.96092E+01 -2.60085E+01 -3.58957E+00 -1.01342E+01  7.11496E+00  1.38392E+01  1.28630E+00  2.10259E+01
   2.49763E+01  2.47930E+01  1.78122E+01  2.25253E+01  3.47859E+01  1.87034E+01  3.17272E+01  4.66817E+01  1.56120E+01  2.94414E+01
   1.92756E+01  1.35468E+01  3.50741E+01  1.67040E+01  3.32132E+01  2.49515E+01  2.12942E+01  5.97425E+00  8.46992E+00  2.07559E+01
  -1.65634E+00  3.52906E+00 -1.35573E+01 -9.70450E+00 -2.96510E+01 -3.98140E+01 -5.19602E+01 -5.98510E+01 -4.94024E+01 -8.88050E+01
  -9.73086E+01 -1.07283E+02 -1.17048E+02 -1.16409E+02 -1.03753E+02 -1.20296E+02 -1.06588E+02 -9.77739E+01 -1.25131E+02 -9.35126E+01
  -1.01840E+02 -9.14072E+01 -7.60750E+01 -6.54800E+01 -6.25546E+01 -5.83447E+01 -4.77641E+01 -5.64887E+01 -3.21759E+01 -3.36792E+01
  -2.20254E+01 -1.91398E+01 -4.09407E+00 -8.59202E+00 -3.09922E+00  2.48267E+01  8.62157E+00  4.62601E+01  4.80798E+01  3.31231E+01
   3.83011E+01  3.99430E+01  3.97135E+01  5.18337E+01  4.98195E+01  3.06591E+01  4.99679E+01  3.56098E+01  3.96046E+01  4.67405E+01
   4.10186E+01  3.41424E+01  2.25390E+01  2.64585E+01  2.73521E+01  2.65783E+01  1.13522E+01  1.71214E+01  1.67991E+01  2.30231E+01
   2.37276E+01  2.25483E+01  1.66283E+01 -3.07990E+00  6.52435E+00 -7.16049E+00 -7.75575E+00 -2.75587E+00  2.01659E+00  1.30898E+01
   8.14252E+00  9.16021E+00 -2.92731E-01 -5.13925E+00 -8.63012E-01  1.05862E+01  1.67219E+01  1.89621E+00 -5.59657E-01  8.68033E+00
  -5.69707E+00 -7.86027E+00  8.57109E+00  8.65082E+00  9.84423E+00  1.02726E+01  7.55961E+00  2.19891E+01  2.51460E+01  2.03688E+01
 NY points of the fit to the data follow
  -2.80449E+02 -3.12061E+02 -3.32903E+02 -3.41631E+02 -3.40645E+02 -3.35299E+02 -3.29949E+02 -3.26566E+02 -3.25404E+02 -3.25427E+02
  -3.26608E+02 -3.27890E+02 -3.28992E+02 -3.30954E+02 -3.32138E+02 -3.27757E+02 -3.19481E+02 -3.12976E+02 -3.13335E+02 -3.23102E+02
  -3.43486E+02 -3.68982E+02 -3.97732E+02 -4.25582E+02 -4.51719E+02 -4.78345E+02 -5.08554E+02 -5.45643E+02 -5.94841E+02 -6.44465E+02
  -6.89411E+02 -7.35025E+02 -7.92657E+02 -8.68070E+02 -9.53845E+02 -1.02982E+03 -1.09225E+03 -1.13601E+03 -1.16191E+03 -1.17362E+03
  -1.17285E+03 -1.15820E+03 -1.12853E+03 -1.08446E+03 -1.02795E+03 -9.61664E+02 -8.88336E+02 -8.11382E+02 -7.33755E+02 -6.46063E+02
  -5.48947E+02 -4.51224E+02 -3.65090E+02 -2.97860E+02 -2.49195E+02 -2.11950E+02 -1.86505E+02 -1.67294E+02 -1.53474E+02 -1.44683E+02
  -1.38795E+02 -1.32715E+02 -1.25404E+02 -1.17756E+02 -1.11136E+02 -1.06210E+02 -1.02185E+02 -9.80327E+01 -9.38332E+01 -9.00052E+01
  -8.64779E+01 -8.33544E+01 -8.02677E+01 -7.71637E+01 -7.40294E+01 -7.08736E+01 -6.76775E+01 -6.45309E+01 -6.13850E+01 -5.82200E+01
  -5.50205E+01 -5.17238E+01 -4.82891E+01 -4.46188E+01 -4.07226E+01 -3.66168E+01 -3.21785E+01 -2.73935E+01 -2.24818E+01 -1.74258E+01
  -1.22415E+01 -7.15756E+00 -2.06043E+00  3.20227E+00  8.96696E+00  1.55843E+01  2.32771E+01  3.25801E+01  4.43354E+01  5.85261E+01
   6.24061E+01  5.14237E+01  3.21935E+01  1.16150E+01 -6.63714E+00 -2.17540E+01 -3.43824E+01 -4.54955E+01 -5.58251E+01 -6.56164E+01
  -7.48095E+01 -8.34586E+01 -9.18660E+01 -1.00405E+02 -1.08926E+02 -1.16100E+02 -1.19148E+02 -1.13904E+02 -9.64949E+01 -6.76162E+01
  -3.89052E+01 -1.27366E+01  1.55733E+01  4.12094E+01  5.69324E+01  6.45198E+01  6.91637E+01  7.27725E+01  7.61405E+01  7.83283E+01
   7.74854E+01  7.44423E+01  6.82868E+01  5.97036E+01  4.93798E+01  3.76976E+01  2.40661E+01  7.74450E+00 -1.10425E+01 -3.07557E+01
  -4.84893E+01 -6.02293E+01 -6.32137E+01 -6.30487E+01 -6.50022E+01 -6.72224E+01 -6.72029E+01 -6.47472E+01 -5.97467E+01 -5.35914E+01
  -4.72501E+01 -3.96181E+01 -3.12072E+01 -2.22913E+01 -1.43710E+01 -8.00836E+00 -3.28853E+00  8.20288E-02  2.56513E+00  4.42560E+00
   5.75378E+00  6.59983E+00  7.21895E+00  8.51196E+00  9.97915E+00  1.10161E+01  1.23122E+01  1.33914E+01  1.39123E+01  1.36234E+01
   1.22986E+01  1.10987E+01  1.11338E+01  1.21019E+01  1.29989E+01  1.35060E+01  1.45738E+01  1.57954E+01  1.81064E+01  2.18037E+01
   2.55898E+01  3.02894E+01  3.51345E+01  3.96286E+01  4.32062E+01  4.51424E+01  4.64627E+01  4.67011E+01  4.61908E+01  4.53948E+01
   4.36712E+01  4.23609E+01  4.18297E+01  4.25843E+01  4.54425E+01  5.02442E+01  5.57234E+01  6.05497E+01  6.37779E+01  6.46193E+01
   6.30981E+01  6.11237E+01  5.85604E+01  5.52252E+01  5.12736E+01  4.59417E+01  3.92884E+01  3.02691E+01  1.87739E+01  7.69655E+00
  -3.82458E+00 -1.11793E+01 -1.13791E+01 -7.39961E+00  3.31840E+00  1.76387E+01  3.20403E+01  4.57200E+01  5.74965E+01  6.74509E+01
   7.59165E+01  8.28887E+01  8.81830E+01  9.11205E+01  9.21107E+01  8.96308E+01  8.41659E+01  7.38021E+01  5.73019E+01  3.55822E+01
   8.23155E+00 -2.05986E+01 -4.61088E+01 -6.74699E+01 -8.04108E+01 -8.53608E+01 -8.48043E+01 -7.99933E+01 -7.16332E+01 -6.09636E+01
  -4.75553E+01 -3.23210E+01 -1.61291E+01 -3.26687E-01  1.37433E+01  2.48010E+01  3.47894E+01  4.17451E+01  4.77551E+01  5.59689E+01
   6.70811E+01  7.84828E+01  8.93368E+01  9.89822E+01  1.07208E+02  1.15535E+02  1.23268E+02  1.30465E+02  1.36918E+02  1.41891E+02
   1.46188E+02  1.49639E+02  1.52868E+02  1.55857E+02  1.57775E+02  1.58089E+02  1.55779E+02  1.48475E+02  1.37956E+02  1.26651E+02
   1.15806E+02  1.05277E+02  9.51778E+01  8.57849E+01  7.69591E+01  6.88522E+01  6.13765E+01  5.44356E+01  4.79632E+01  4.18906E+01
   3.61835E+01  3.08278E+01  2.58265E+01  2.12129E+01  1.70245E+01  1.32833E+01  9.98790E+00  7.13906E+00  4.73893E+00  2.79879E+00
   1.31893E+00  2.86700E-01 -2.99840E-01 -4.42651E-01 -1.29152E-01  6.57393E-01  1.89618E+00  3.56290E+00  5.60927E+00  7.96934E+00
   1.05985E+01  1.34421E+01  1.64498E+01  1.96064E+01  2.28894E+01  2.62667E+01  2.97210E+01  3.32730E+01  3.69225E+01  4.06919E+01
   4.46171E+01  4.87420E+01  5.31280E+01  5.78042E+01  6.25611E+01  6.46551E+01  6.08264E+01  5.26990E+01  3.85276E+01  2.21525E+01
   7.10119E+00 -5.17282E+00 -1.47219E+01 -2.21850E+01 -2.81703E+01 -3.30165E+01 -3.68041E+01 -3.94358E+01 -4.06538E+01 -3.99254E+01
  -3.67370E+01 -3.49408E+01 -3.33510E+01 -3.22779E+01 -3.06283E+01 -2.78488E+01 -2.46440E+01 -2.09713E+01 -2.07673E+01 -2.26174E+01
  -2.58489E+01 -3.02027E+01 -3.54887E+01 -4.16167E+01 -4.85797E+01 -5.62902E+01 -6.42311E+01 -7.12154E+01 -7.53060E+01 -7.42943E+01
  -6.75656E+01 -5.85996E+01 -4.79086E+01 -3.89240E+01 -3.24300E+01 -2.73526E+01 -2.31108E+01 -1.93947E+01 -1.60178E+01 -1.28964E+01
  -1.00061E+01 -7.33557E+00 -4.83801E+00 -2.52152E+00 -3.62100E-01  1.68885E+00  3.65397E+00  5.55873E+00  7.44028E+00  9.34275E+00
   1.12908E+01  1.32810E+01  1.52809E+01  1.72033E+01  1.89231E+01  2.02874E+01  2.11656E+01  2.14849E+01  2.12538E+01  2.04873E+01
   1.92230E+01  1.75062E+01  1.53527E+01  1.27057E+01  9.54491E+00  5.87735E+00  1.69605E+00 -2.93895E+00 -7.91334E+00 -1.30656E+01
  -1.82363E+01 -2.32363E+01 -2.78923E+01 -3.20823E+01 -3.57573E+01 -3.89531E+01 -4.17316E+01 -4.41393E+01 -4.61865E+01 -4.78700E+01
  -4.91686E+01 -5.00502E+01 -5.05006E+01 -5.05440E+01 -5.02317E+01 -4.96297E+01 -4.87911E+01 -4.77500E+01 -4.65573E+01 -4.52455E+01
  -4.38407E+01 -4.23434E+01 -4.07631E+01 -3.91107E+01 -3.73928E+01 -3.56065E+01 -3.37667E+01 -3.18840E+01 -2.99666E+01 -2.80197E+01
  -2.60510E+01 -2.40671E+01 -2.20554E+01 -2.00249E+01 -1.79888E+01 -1.59599E+01 -1.39287E+01 -1.19063E+01 -9.90480E+00 -7.93143E+00
  -5.99886E+00 -4.11325E+00 -2.28820E+00 -5.28311E-01  1.16957E+00  2.81010E+00  4.39133E+00  5.90090E+00  7.32071E+00  8.64648E+00
   9.87422E+00  1.09956E+01  1.20141E+01  1.29184E+01  1.37083E+01  1.43790E+01  1.49274E+01  1.53518E+01  1.56499E+01  1.58082E+01
   1.58180E+01  1.56879E+01  1.54295E+01  1.50714E+01  1.46337E+01  1.41369E+01  1.35873E+01  1.29852E+01  1.23288E+01  1.16442E+01
   1.09588E+01  1.02936E+01  9.66830E+00  9.11270E+00  8.64774E+00  8.29132E+00  8.07035E+00  8.02797E+00  8.18917E+00  8.60190E+00
   9.30841E+00  1.03552E+01  1.17846E+01  1.36612E+01  1.60638E+01  1.90765E+01  2.27716E+01  2.72669E+01  3.27030E+01  3.92547E+01
 NY background values follow
    -1.264E+01   -3.001E+01   -4.739E+01   -6.476E+01   -8.208E+01   -9.932E+01   -1.165E+02   -1.335E+02   -1.503E+02   -1.670E+02
    -1.834E+02   -1.996E+02   -2.156E+02   -2.312E+02   -2.465E+02   -2.614E+02   -2.759E+02   -2.900E+02   -3.037E+02   -3.169E+02
    -3.296E+02   -3.417E+02   -3.533E+02   -3.643E+02   -3.747E+02   -3.844E+02   -3.934E+02   -4.017E+02   -4.093E+02   -4.161E+02
    -4.222E+02   -4.274E+02   -4.318E+02   -4.354E+02   -4.384E+02   -4.406E+02   -4.421E+02   -4.429E+02   -4.432E+02   -4.428E+02
    -4.419E+02   -4.404E+02   -4.383E+02   -4.358E+02   -4.328E+02   -4.294E+02   -4.256E+02   -4.214E+02   -4.168E+02   -4.119E+02
    -4.067E+02   -4.012E+02   -3.954E+02   -3.895E+02   -3.833E+02   -3.770E+02   -3.705E+02   -3.639E+02   -3.573E+02   -3.505E+02
    -3.438E+02   -3.370E+02   -3.303E+02   -3.235E+02   -3.167E+02   -3.100E+02   -3.033E+02   -2.967E+02   -2.901E+02   -2.835E+02
    -2.770E+02   -2.705E+02   -2.642E+02   -2.579E+02   -2.517E+02   -2.456E+02   -2.396E+02   -2.337E+02   -2.279E+02   -2.223E+02
    -2.168E+02   -2.114E+02   -2.062E+02   -2.011E+02   -1.962E+02   -1.914E+02   -1.869E+02   -1.825E+02   -1.783E+02   -1.743E+02
    -1.705E+02   -1.669E+02   -1.635E+02   -1.603E+02   -1.573E+02   -1.544E+02   -1.517E+02   -1.491E+02   -1.467E+02   -1.443E+02
    -1.421E+02   -1.399E+02   -1.379E+02   -1.359E+02   -1.339E+02   -1.320E+02   -1.301E+02   -1.282E+02   -1.264E+02   -1.245E+02
    -1.226E+02   -1.207E+02   -1.187E+02   -1.167E+02   -1.146E+02   -1.124E+02   -1.101E+02   -1.078E+02   -1.053E+02   -1.027E+02
    -9.991E+01   -9.701E+01   -9.398E+01   -9.082E+01   -8.754E+01   -8.416E+01   -8.069E+01   -7.713E+01   -7.349E+01   -6.979E+01
    -6.604E+01   -6.224E+01   -5.841E+01   -5.455E+01   -5.068E+01   -4.681E+01   -4.295E+01   -3.910E+01   -3.528E+01   -3.150E+01
    -2.777E+01   -2.410E+01   -2.049E+01   -1.696E+01   -1.353E+01   -1.019E+01   -6.961E+00   -3.853E+00   -8.756E-01    1.962E+00
     4.648E+00    7.179E+00    9.555E+00    1.178E+01    1.386E+01    1.579E+01    1.758E+01    1.923E+01    2.075E+01    2.213E+01
     2.338E+01    2.450E+01    2.550E+01    2.638E+01    2.713E+01    2.777E+01    2.830E+01    2.872E+01    2.903E+01    2.924E+01
     2.934E+01    2.935E+01    2.926E+01    2.908E+01    2.881E+01    2.845E+01    2.801E+01    2.749E+01    2.689E+01    2.621E+01
     2.546E+01    2.465E+01    2.377E+01    2.282E+01    2.182E+01    2.077E+01    1.967E+01    1.853E+01    1.735E+01    1.613E+01
     1.488E+01    1.360E+01    1.229E+01    1.097E+01    9.632E+00    8.283E+00    6.926E+00    5.566E+00    4.207E+00    2.853E+00
     1.508E+00    1.763E-01   -1.138E+00   -2.431E+00   -3.698E+00   -4.936E+00   -6.139E+00   -7.305E+00   -8.429E+00   -9.507E+00
    -1.053E+01   -1.151E+01   -1.245E+01   -1.335E+01   -1.422E+01   -1.507E+01   -1.591E+01   -1.674E+01   -1.757E+01   -1.840E+01
    -1.925E+01   -2.012E+01   -2.102E+01   -2.195E+01   -2.292E+01   -2.395E+01   -2.502E+01   -2.616E+01   -2.737E+01   -2.866E+01
    -3.003E+01   -3.149E+01   -3.305E+01   -3.471E+01   -3.649E+01   -3.838E+01   -4.040E+01   -4.255E+01   -4.485E+01   -4.728E+01
    -4.988E+01   -5.262E+01   -5.551E+01   -5.852E+01   -6.166E+01   -6.492E+01   -6.827E+01   -7.172E+01   -7.524E+01   -7.884E+01
    -8.251E+01   -8.622E+01   -8.998E+01   -9.376E+01   -9.757E+01   -1.014E+02   -1.052E+02   -1.090E+02   -1.128E+02   -1.166E+02
    -1.203E+02   -1.240E+02   -1.276E+02   -1.312E+02   -1.347E+02   -1.381E+02   -1.413E+02   -1.445E+02   -1.476E+02   -1.505E+02
    -1.533E+02   -1.560E+02   -1.585E+02   -1.608E+02   -1.631E+02   -1.652E+02   -1.671E+02   -1.689E+02   -1.705E+02   -1.720E+02
    -1.734E+02   -1.746E+02   -1.757E+02   -1.766E+02   -1.774E+02   -1.781E+02   -1.786E+02   -1.790E+02   -1.792E+02   -1.793E+02
    -1.792E+02   -1.790E+02   -1.786E+02   -1.781E+02   -1.775E+02   -1.767E+02   -1.758E+02   -1.747E+02   -1.735E+02   -1.721E+02
    -1.706E+02   -1.690E+02   -1.672E+02   -1.653E+02   -1.633E+02   -1.612E+02   -1.589E+02   -1.566E+02   -1.543E+02   -1.518E+02
    -1.493E+02   -1.467E+02   -1.441E+02   -1.414E+02   -1.387E+02   -1.360E+02   -1.333E+02   -1.305E+02   -1.278E+02   -1.251E+02
    -1.224E+02   -1.197E+02   -1.170E+02   -1.144E+02   -1.119E+02   -1.094E+02   -1.070E+02   -1.046E+02   -1.024E+02   -1.002E+02
    -9.811E+01   -9.615E+01   -9.428E+01   -9.252E+01   -9.087E+01   -8.931E+01   -8.786E+01   -8.652E+01   -8.527E+01   -8.413E+01
    -8.309E+01   -8.216E+01   -8.132E+01   -8.059E+01   -7.996E+01   -7.944E+01   -7.901E+01   -7.869E+01   -7.847E+01   -7.835E+01
    -7.833E+01   -7.842E+01   -7.860E+01   -7.889E+01   -7.928E+01   -7.977E+01   -8.036E+01   -8.105E+01   -8.184E+01   -8.274E+01
    -8.373E+01   -8.482E+01   -8.599E+01   -8.725E+01   -8.859E+01   -8.998E+01   -9.144E+01   -9.296E+01   -9.451E+01   -9.611E+01
    -9.773E+01   -9.939E+01   -1.011E+02   -1.027E+02   -1.044E+02   -1.061E+02   -1.078E+02   -1.094E+02   -1.110E+02   -1.126E+02
    -1.142E+02   -1.157E+02   -1.171E+02   -1.185E+02   -1.198E+02   -1.210E+02   -1.222E+02   -1.233E+02   -1.242E+02   -1.251E+02
    -1.259E+02   -1.265E+02   -1.270E+02   -1.275E+02   -1.278E+02   -1.281E+02   -1.282E+02   -1.282E+02   -1.282E+02   -1.281E+02
    -1.279E+02   -1.276E+02   -1.272E+02   -1.268E+02   -1.263E+02   -1.257E+02   -1.251E+02   -1.244E+02   -1.236E+02   -1.228E+02
    -1.220E+02   -1.211E+02   -1.201E+02   -1.191E+02   -1.181E+02   -1.170E+02   -1.159E+02   -1.148E+02   -1.136E+02   -1.124E+02
    -1.112E+02   -1.100E+02   -1.088E+02   -1.076E+02   -1.063E+02   -1.051E+02   -1.040E+02   -1.028E+02   -1.017E+02   -1.007E+02
    -9.964E+01   -9.869E+01   -9.781E+01   -9.701E+01   -9.629E+01   -9.566E+01   -9.512E+01   -9.469E+01   -9.438E+01   -9.418E+01
    -9.411E+01   -9.418E+01   -9.439E+01   -9.475E+01   -9.527E+01   -9.595E+01   -9.680E+01   -9.783E+01   -9.905E+01   -1.005E+02
    -1.021E+02   -1.039E+02   -1.059E+02   -1.081E+02   -1.104E+02   -1.129E+02   -1.155E+02   -1.183E+02   -1.212E+02   -1.243E+02
    -1.274E+02   -1.307E+02   -1.341E+02   -1.375E+02   -1.410E+02   -1.446E+02   -1.483E+02   -1.520E+02   -1.558E+02   -1.595E+02
    -1.634E+02   -1.672E+02   -1.710E+02   -1.749E+02   -1.787E+02   -1.825E+02   -1.863E+02   -1.900E+02   -1.937E+02   -1.974E+02
 Mac      Conc. = 1.73E-04
  -2.80179E+01 -4.57535E+01 -6.35446E+01 -8.13589E+01 -9.90703E+01 -1.16552E+02 -1.33777E+02 -1.50707E+02 -1.67300E+02 -1.83543E+02
  -1.99433E+02 -2.14967E+02 -2.30116E+02 -2.44868E+02 -2.59205E+02 -2.73103E+02 -2.86544E+02 -2.99499E+02 -3.11949E+02 -3.23860E+02
  -3.35251E+02 -3.46175E+02 -3.56697E+02 -3.66818E+02 -3.76417E+02 -3.85391E+02 -3.93724E+02 -4.01402E+02 -4.08387E+02 -4.14650E+02
  -4.20151E+02 -4.24860E+02 -4.28802E+02 -4.32024E+02 -4.34567E+02 -4.36454E+02 -4.37724E+02 -4.38402E+02 -4.38492E+02 -4.38014E+02
  -4.37012E+02 -4.35539E+02 -4.33637E+02 -4.31300E+02 -4.28477E+02 -4.25163E+02 -4.21399E+02 -4.17229E+02 -4.12686E+02 -4.07816E+02
  -4.02637E+02 -3.97175E+02 -3.91454E+02 -3.85487E+02 -3.79287E+02 -3.72893E+02 -3.66347E+02 -3.59646E+02 -3.52777E+02 -3.45776E+02
  -3.38700E+02 -3.31603E+02 -3.24542E+02 -3.17538E+02 -3.10599E+02 -3.03745E+02 -2.96962E+02 -2.90223E+02 -2.83517E+02 -2.76849E+02
  -2.70203E+02 -2.63602E+02 -2.57050E+02 -2.50576E+02 -2.44201E+02 -2.37979E+02 -2.31933E+02 -2.26042E+02 -2.20283E+02 -2.14653E+02
  -2.09142E+02 -2.03760E+02 -1.98548E+02 -1.93530E+02 -1.88750E+02 -1.84232E+02 -1.79975E+02 -1.75984E+02 -1.72292E+02 -1.68926E+02
  -1.65897E+02 -1.63239E+02 -1.60967E+02 -1.59126E+02 -1.57684E+02 -1.56564E+02 -1.55661E+02 -1.54856E+02 -1.54067E+02 -1.53220E+02
  -1.52270E+02 -1.51204E+02 -1.50021E+02 -1.48710E+02 -1.47263E+02 -1.45665E+02 -1.43887E+02 -1.41883E+02 -1.39620E+02 -1.37049E+02
