 
 $NMID
 ID=''
 FMTDAT='(2E13.5)'
 TRAMP=   1.00000E+0
 VOLUME=   1.00000E+0
 $END
   4.54015E+5   5.76560E+5
   6.12309E+5   1.80107E+6
   7.70671E+5   1.63886E+6
   5.64773E+5   1.60476E+6
   5.34196E+5   1.75361E+6
   5.84149E+5   1.68998E+6
   4.85226E+5   1.61862E+6
   4.24848E+5   1.67940E+6
   4.31430E+5   1.67368E+6
   3.92387E+5   1.65421E+6
   3.71379E+5   1.65612E+6
   3.38211E+5   1.61502E+6
   2.75440E+5   1.61307E+6
   2.71309E+5   1.63377E+6
   2.66277E+5   1.59641E+6
   2.16599E+5   1.57148E+6
   1.87492E+5   1.58167E+6
   1.58856E+5   1.56366E+6
   1.11019E+5   1.55205E+6
   8.61298E+4   1.54739E+6
   5.29821E+4   1.52034E+6
   8.45063E+3   1.50804E+6
  -1.38636E+4   1.50324E+6
  -4.16515E+4   1.48029E+6
  -7.98097E+4   1.46311E+6
  -9.30087E+4   1.45160E+6
  -1.13811E+5   1.43114E+6
  -1.41802E+5   1.41847E+6
  -1.58429E+5   1.40285E+6
  -1.76889E+5   1.38153E+6
  -2.07475E+5   1.36821E+6
  -2.29064E+5   1.35148E+6
  -2.54221E+5   1.32852E+6
  -2.80762E+5   1.31239E+6
  -3.02275E+5   1.29374E+6
  -3.26953E+5   1.27239E+6
  -3.53723E+5   1.25791E+6
  -3.75725E+5   1.23819E+6
  -3.96905E+5   1.21389E+6
  -4.16282E+5   1.19724E+6
  -4.31824E+5   1.17880E+6
  -4.47777E+5   1.15663E+6
  -4.60951E+5   1.13731E+6
  -4.73646E+5   1.12022E+6
  -4.88860E+5   1.10054E+6
  -5.03176E+5   1.08233E+6
  -5.17728E+5   1.06198E+6
  -5.35756E+5   1.03935E+6
  -5.52470E+5   1.01605E+6
  -5.66275E+5   9.94385E+5
  -5.81281E+5   9.73120E+5
  -5.97323E+5   9.51418E+5
  -6.11558E+5   9.29309E+5
  -6.25241E+5   9.08092E+5
  -6.37825E+5   8.86478E+5
  -6.49812E+5   8.64113E+5
  -6.60541E+5   8.42035E+5
  -6.69660E+5   8.20967E+5
  -6.77024E+5   8.00896E+5
  -6.86085E+5   7.80839E+5
  -6.94870E+5   7.59031E+5
  -7.03097E+5   7.38538E+5
  -7.11871E+5   7.18273E+5
  -7.20635E+5   6.95943E+5
  -7.27371E+5   6.71613E+5
  -7.33444E+5   6.49381E+5
  -7.39801E+5   6.28171E+5
  -7.45942E+5   6.06576E+5
  -7.50737E+5   5.85253E+5
  -7.56362E+5   5.63907E+5
  -7.61345E+5   5.42522E+5
  -7.64466E+5   5.21598E+5
  -7.66749E+5   5.02727E+5
  -7.70391E+5   4.82614E+5
  -7.73531E+5   4.61549E+5
  -7.75195E+5   4.41295E+5
  -7.77060E+5   4.22070E+5
  -7.79144E+5   4.01648E+5
  -7.80467E+5   3.80921E+5
  -7.81214E+5   3.59851E+5
  -7.81783E+5   3.39682E+5
  -7.81663E+5   3.19987E+5
  -7.81109E+5   3.00516E+5
  -7.80467E+5   2.81356E+5
  -7.78889E+5   2.61868E+5
  -7.76402E+5   2.43901E+5
  -7.74046E+5   2.26497E+5
  -7.71619E+5   2.08825E+5
  -7.68390E+5   1.92095E+5
  -7.64772E+5   1.76093E+5
  -7.60924E+5   1.60473E+5
  -7.57245E+5   1.44443E+5
  -7.53880E+5   1.27955E+5
  -7.49071E+5   1.11805E+5
  -7.43676E+5   9.64361E+4
  -7.38298E+5   8.13132E+4
  -7.33443E+5   6.64537E+4
  -7.28481E+5   5.16937E+4
  -7.22617E+5   3.69641E+4
  -7.16151E+5   2.35722E+4
  -7.10368E+5   1.01254E+4
  -7.04396E+5  -3.07583E+3
  -6.97412E+5  -1.62393E+4
  -6.89668E+5  -2.83055E+4
  -6.82519E+5  -3.94703E+4
  -6.75687E+5  -5.01739E+4
  -6.68967E+5  -6.14675E+4
  -6.61017E+5  -7.28182E+4
  -6.52686E+5  -8.35519E+4
  -6.44702E+5  -9.25321E+4
  -6.37192E+5  -1.02060E+5
  -6.29935E+5  -1.12450E+5
  -6.22172E+5  -1.22728E+5
  -6.13518E+5  -1.32577E+5
  -6.05024E+5  -1.41915E+5
  -5.96725E+5  -1.51489E+5
  -5.88226E+5  -1.60473E+5
  -5.79091E+5  -1.68995E+5
  -5.69698E+5  -1.76332E+5
  -5.61028E+5  -1.83189E+5
  -5.53006E+5  -1.90261E+5
  -5.44537E+5  -1.97558E+5
  -5.35847E+5  -2.04370E+5
  -5.27185E+5  -2.11588E+5
  -5.18068E+5  -2.18432E+5
  -5.08583E+5  -2.24767E+5
  -4.99018E+5  -2.30324E+5
  -4.90126E+5  -2.36235E+5
  -4.80944E+5  -2.41987E+5
  -4.72120E+5  -2.47837E+5
  -4.62471E+5  -2.53937E+5
  -4.52639E+5  -2.59240E+5
  -4.42853E+5  -2.64305E+5
  -4.33630E+5  -2.68983E+5
  -4.24314E+5  -2.73495E+5
  -4.14658E+5  -2.77977E+5
  -4.05190E+5  -2.81859E+5
  -3.96369E+5  -2.85384E+5
  -3.87180E+5  -2.89483E+5
  -3.77526E+5  -2.93232E+5
  -3.68017E+5  -2.96806E+5
  -3.58738E+5  -2.99183E+5
  -3.49608E+5  -3.01668E+5
  -3.40868E+5  -3.03925E+5
  -3.32182E+5  -3.06746E+5
  -3.22689E+5  -3.08896E+5
  -3.13674E+5  -3.10456E+5
  -3.04831E+5  -3.11996E+5
  -2.96018E+5  -3.13620E+5
  -2.87444E+5  -3.14358E+5
  -2.78843E+5  -3.15256E+5
  -2.70558E+5  -3.15772E+5
  -2.62734E+5  -3.16165E+5
  -2.54595E+5  -3.16672E+5
  -2.46721E+5  -3.16993E+5
  -2.38763E+5  -3.17148E+5
  -2.31026E+5  -3.16911E+5
  -2.23626E+5  -3.16617E+5
  -2.15953E+5  -3.16241E+5
  -2.08668E+5  -3.15598E+5
  -2.01619E+5  -3.14923E+5
  -1.94224E+5  -3.14200E+5
  -1.87030E+5  -3.13095E+5
  -1.80172E+5  -3.12038E+5
  -1.73073E+5  -3.10467E+5
  -1.66645E+5  -3.09148E+5
  -1.60101E+5  -3.07637E+5
  -1.53668E+5  -3.06598E+5
  -1.47412E+5  -3.05174E+5
  -1.41420E+5  -3.03322E+5
  -1.35463E+5  -3.01538E+5
  -1.29862E+5  -2.99661E+5
  -1.23644E+5  -2.97642E+5
  -1.18302E+5  -2.95618E+5
  -1.12369E+5  -2.93895E+5
  -1.07058E+5  -2.92075E+5
  -1.01313E+5  -2.90362E+5
  -9.55236E+4  -2.87792E+5
  -8.98993E+4  -2.85599E+5
  -8.50178E+4  -2.83222E+5
  -8.02229E+4  -2.81197E+5
  -7.50502E+4  -2.79194E+5
  -6.96903E+4  -2.76966E+5
  -6.44967E+4  -2.74619E+5
  -5.97429E+4  -2.72202E+5
  -5.50885E+4  -2.69611E+5
  -5.06481E+4  -2.67042E+5
  -4.59920E+4  -2.64266E+5
  -4.20996E+4  -2.61586E+5
  -3.81975E+4  -2.59587E+5
  -3.38285E+4  -2.57441E+5
  -2.92098E+4  -2.54875E+5
  -2.45757E+4  -2.52075E+5
  -2.03734E+4  -2.49467E+5
  -1.65294E+4  -2.46752E+5
  -1.26090E+4  -2.43901E+5
  -8.83867E+3  -2.41372E+5
  -4.73567E+3  -2.38625E+5
  -9.92440E+2  -2.35909E+5
   2.99579E+3  -2.33186E+5
   6.77099E+3  -2.30476E+5
   1.03231E+4  -2.27213E+5
   1.35222E+4  -2.24076E+5
   1.66025E+4  -2.21300E+5
   1.98093E+4  -2.18670E+5
   2.28535E+4  -2.15747E+5
   2.60093E+4  -2.12754E+5
   2.92313E+4  -2.09590E+5
   3.21686E+4  -2.06641E+5
   3.48316E+4  -2.03380E+5
   3.76644E+4  -2.00433E+5
   4.01870E+4  -1.97274E+5
   4.26156E+4  -1.94453E+5
   4.51245E+4  -1.91641E+5
   4.76921E+4  -1.88869E+5
   5.01659E+4  -1.85419E+5
   5.23736E+4  -1.82217E+5
   5.41794E+4  -1.79014E+5
   5.60026E+4  -1.76150E+5
   5.79782E+4  -1.73054E+5
   5.95000E+4  -1.69977E+5
   6.13268E+4  -1.67278E+5
   6.29162E+4  -1.64330E+5
   6.46407E+4  -1.61365E+5
   6.61942E+4  -1.58262E+5
   6.74187E+4  -1.55318E+5
   6.88789E+4  -1.52219E+5
   6.96697E+4  -1.49572E+5
   7.11277E+4  -1.46654E+5
   7.21724E+4  -1.43719E+5
   7.34486E+4  -1.40797E+5
   7.41892E+4  -1.38064E+5
   7.49085E+4  -1.35520E+5
   7.55797E+4  -1.32823E+5
   7.67520E+4  -1.30162E+5
   7.71471E+4  -1.27492E+5
   7.75762E+4  -1.24779E+5
   7.82465E+4  -1.22307E+5
   7.87863E+4  -1.19601E+5
   7.90404E+4  -1.17158E+5
   7.96576E+4  -1.14769E+5
   7.99421E+4  -1.12664E+5
   8.05594E+4  -1.10053E+5
   8.08640E+4  -1.07333E+5
   8.10955E+4  -1.04773E+5
   8.11675E+4  -1.02911E+5
   8.13798E+4  -1.00414E+5
   8.19471E+4  -9.81239E+4
   8.16532E+4  -9.57496E+4
   8.16660E+4  -9.33749E+4
   8.17234E+4  -9.14227E+4
   8.21308E+4  -8.95019E+4
   8.24077E+4  -8.72872E+4
   8.22996E+4  -8.48402E+4
   8.20060E+4  -8.27569E+4
   8.17824E+4  -8.08982E+4
   8.19241E+4  -7.88046E+4
   8.23223E+4  -7.70847E+4
   8.21131E+4  -7.49394E+4
   8.22191E+4  -7.28528E+4
   8.22697E+4  -7.07147E+4
   8.22868E+4  -6.86229E+4
   8.19852E+4  -6.65578E+4
   8.18160E+4  -6.48461E+4
   8.14788E+4  -6.29894E+4
   8.13894E+4  -6.14339E+4
   8.15087E+4  -5.95710E+4
   8.14727E+4  -5.74965E+4
   8.10194E+4  -5.56301E+4
   8.06413E+4  -5.41838E+4
   8.05190E+4  -5.25717E+4
   8.03198E+4  -5.06714E+4
   8.00620E+4  -4.93438E+4
   7.97899E+4  -4.76317E+4
   7.96671E+4  -4.60702E+4
   7.92844E+4  -4.46137E+4
   7.90244E+4  -4.25340E+4
   7.88146E+4  -4.09998E+4
   7.84763E+4  -3.97291E+4
   7.83000E+4  -3.83290E+4
   7.76462E+4  -3.68121E+4
   7.73527E+4  -3.55384E+4
   7.69137E+4  -3.40005E+4
   7.67846E+4  -3.27540E+4
   7.63609E+4  -3.12500E+4
   7.59657E+4  -2.99018E+4
   7.54446E+4  -2.85758E+4
   7.46975E+4  -2.75264E+4
   7.43509E+4  -2.64288E+4
   7.41850E+4  -2.53018E+4
   7.39717E+4  -2.41527E+4
   7.32937E+4  -2.27991E+4
   7.28072E+4  -2.17412E+4
   7.21451E+4  -2.05461E+4
   7.17080E+4  -1.92438E+4
   7.14255E+4  -1.84350E+4
   7.08195E+4  -1.75632E+4
   6.99325E+4  -1.65752E+4
   6.99009E+4  -1.56962E+4
   6.94167E+4  -1.45445E+4
   6.85988E+4  -1.35218E+4
   6.78628E+4  -1.26761E+4
   6.77218E+4  -1.18841E+4
   6.74634E+4  -1.11358E+4
   6.65759E+4  -9.91801E+3
   6.59562E+4  -9.05618E+3
   6.50715E+4  -8.46532E+3
   6.47280E+4  -7.82713E+3
   6.44189E+4  -7.00222E+3
   6.34415E+4  -6.26059E+3
   6.30067E+4  -5.59003E+3
   6.23616E+4  -5.02594E+3
   6.19867E+4  -4.35334E+3
   6.14123E+4  -3.35090E+3
   6.06002E+4  -2.72075E+3
   5.99431E+4  -2.19055E+3
   5.93209E+4  -1.92729E+3
   5.86598E+4  -1.18349E+3
   5.81346E+4  -5.58221E+2
   5.75247E+4   6.92969E+1
   5.66828E+4   1.54347E+2
   5.63601E+4   9.29236E+2
   5.56962E+4   1.31352E+3
   5.50943E+4   2.08870E+3
   5.42225E+4   2.53290E+3
   5.37811E+4   2.73964E+3
   5.32820E+4   3.16376E+3
   5.28398E+4   3.61365E+3
   5.20296E+4   4.31821E+3
   5.13671E+4   4.12802E+3
   5.06910E+4   4.55386E+3
   5.02209E+4   5.27731E+3
   4.95739E+4   5.51851E+3
   4.90313E+4   5.60811E+3
   4.84275E+4   5.97074E+3
   4.82108E+4   6.45509E+3
   4.74109E+4   6.79541E+3
   4.67728E+4   7.44408E+3
   4.62634E+4   7.42730E+3
   4.53962E+4   7.58330E+3
   4.49986E+4   8.13880E+3
   4.46156E+4   8.10817E+3
   4.38704E+4   8.30035E+3
   4.36873E+4   8.55584E+3
   4.28696E+4   8.78519E+3
   4.22819E+4   8.79998E+3
   4.16744E+4   8.99700E+3
   4.10327E+4   9.28705E+3
   4.03263E+4   9.38783E+3
   4.01231E+4   9.70451E+3
   4.01794E+4   1.01249E+4
   3.91625E+4   1.03885E+4
   3.86323E+4   1.01611E+4
   3.80975E+4   1.03873E+4
   3.80466E+4   1.05510E+4
   3.72390E+4   1.07819E+4
   3.66545E+4   1.07558E+4
   3.59531E+4   1.07992E+4
   3.57161E+4   1.10234E+4
   3.53153E+4   1.13675E+4
   3.49144E+4   1.12835E+4
   3.42373E+4   1.13684E+4
   3.38108E+4   1.15592E+4
   3.33654E+4   1.15450E+4
   3.29889E+4   1.15644E+4
   3.26282E+4   1.18224E+4
   3.20590E+4   1.17891E+4
