 LCModel (Version 6.3-1N) Copyright: S.W. Provencher.          Ref.: Magn. Reson. Med. 30:672-679 (1993).                
 Slice_N1@23_17  28-Feb-2025 11:43:22
 27 lines in following concentration table = NCONC+1
    Conc.  %SD /Cr+PCr  Metabolite                                         
 4.65E-04   5% 8.6E-04 Mac                                                 
    4.311  34%   8.000 Cr                                                  
    0.000 999%   0.000 PCr                                                 
    0.000 999%   0.000 Ins                                                 
    0.000 999%   0.000 NAA                                                 
   12.982  19%  24.090 Tau                                                 
    0.000 999%   0.000 PCho                                                
    1.764  31%   3.274 GPC                                                 
   10.017  22%  18.589 Glu                                                 
    1.739  94%   3.227 Gln                                                 
    0.747 280%   1.387 Ala                                                 
    0.000 999%   0.000 Asc                                                 
    1.078  63%   2.000 Asp                                                 
    0.563  72%   1.045 GABA                                                
    0.576  72%   1.069 Glc                                                 
    2.375  37%   4.408 GSH                                                 
   65.962   4% 122.405 Lac                                                 
    5.678  26%  10.537 NAAG                                                
    0.000 999%   0.000 PE                                                  
    1.764  31%   3.274 GPC+PCho                                            
    5.678  26%  10.537 NAA+NAAG                                            
   11.756  22%  21.816 Glu+Gln                                             
    4.311  34%   8.000 Cr+PCr                                              
    5.678  26%  10.537 NAA+NAAG                                            
    4.311  34%   8.000 Cr+PCr                                              
   11.756  22%  21.816 Glu+Gln                                             
   6 lines in following misc. output table
  FWHM = 0.122 ppm    S/N =   5                                            
  Data shift =-0.057 ppm                                                   
  Ph: -86 deg       0.0 deg/ppm                                            
  alphaB,S = 7.9E-02,   1.3E+02                                            
   19 spline knots.   Ns =11(1)                                            
  (20) 2 infls.   (12) 1 extrs.                                            
  480 points on ppm-axis = NY
      4.100000     4.091866     4.083733     4.075600     4.067466     4.059333     4.051199     4.043066     4.034933     4.026799
      4.018666     4.010532     4.002399     3.994265     3.986132     3.977998     3.969864     3.961731     3.953597     3.945463
      3.937330     3.929196     3.921062     3.912929     3.904795     3.896662     3.888528     3.880394     3.872261     3.864127
      3.855993     3.847860     3.839726     3.831592     3.823459     3.815325     3.807191     3.799058     3.790924     3.782790
      3.774657     3.766523     3.758389     3.750256     3.742122     3.733989     3.725855     3.717721     3.709588     3.701454
      3.693320     3.685187     3.677053     3.668919     3.660786     3.652652     3.644518     3.636385     3.628251     3.620117
      3.611984     3.603850     3.595716     3.587583     3.579449     3.571316     3.563182     3.555048     3.546915     3.538781
      3.530647     3.522514     3.514380     3.506246     3.498113     3.489979     3.481845     3.473712     3.465578     3.457444
      3.449311     3.441177     3.433043     3.424910     3.416776     3.408643     3.400509     3.392375     3.384242     3.376108
      3.367974     3.359841     3.351707     3.343573     3.335440     3.327306     3.319172     3.311039     3.302905     3.294771
      3.286638     3.278504     3.270370     3.262237     3.254103     3.245970     3.237836     3.229702     3.221569     3.213435
      3.205301     3.197168     3.189034     3.180900     3.172767     3.164633     3.156499     3.148366     3.140232     3.132098
      3.123965     3.115831     3.107697     3.099564     3.091430     3.083297     3.075163     3.067029     3.058896     3.050762
      3.042628     3.034495     3.026361     3.018227     3.010094     3.001960     2.993826     2.985693     2.977559     2.969425
      2.961292     2.953158     2.945024     2.936891     2.928757     2.920624     2.912490     2.904356     2.896223     2.888089
      2.879955     2.871822     2.863688     2.855554     2.847421     2.839287     2.831153     2.823020     2.814886     2.806752
      2.798619     2.790485     2.782351     2.774218     2.766084     2.757951     2.749817     2.741683     2.733550     2.725416
      2.717282     2.709149     2.701015     2.692881     2.684748     2.676614     2.668480     2.660347     2.652213     2.644079
      2.635946     2.627812     2.619678     2.611545     2.603411     2.595278     2.587144     2.579010     2.570877     2.562743
      2.554609     2.546476     2.538342     2.530208     2.522075     2.513941     2.505807     2.497674     2.489540     2.481406
      2.473273     2.465139     2.457006     2.448872     2.440738     2.432605     2.424471     2.416337     2.408204     2.400070
      2.391936     2.383803     2.375669     2.367535     2.359402     2.351268     2.343134     2.335001     2.326867     2.318733
      2.310600     2.302466     2.294333     2.286199     2.278065     2.269932     2.261798     2.253664     2.245531     2.237397
      2.229263     2.221130     2.212996     2.204862     2.196729     2.188595     2.180461     2.172328     2.164194     2.156060
      2.147927     2.139793     2.131660     2.123526     2.115392     2.107259     2.099125     2.090991     2.082858     2.074724
      2.066590     2.058457     2.050323     2.042189     2.034056     2.025922     2.017788     2.009655     2.001521     1.993387
      1.985254     1.977120     1.968987     1.960853     1.952719     1.944586     1.936452     1.928318     1.920185     1.912051
      1.903917     1.895784     1.887650     1.879516     1.871383     1.863249     1.855115     1.846982     1.838848     1.830714
      1.822581     1.814447     1.806314     1.798180     1.790046     1.781913     1.773779     1.765645     1.757512     1.749378
      1.741244     1.733111     1.724977     1.716843     1.708710     1.700576     1.692442     1.684309     1.676175     1.668041
      1.659908     1.651774     1.643641     1.635507     1.627373     1.619240     1.611106     1.602972     1.594839     1.586705
      1.578571     1.570438     1.562304     1.554170     1.546037     1.537903     1.529769     1.521636     1.513502     1.505368
      1.497235     1.489101     1.480968     1.472834     1.464700     1.456567     1.448433     1.440299     1.432166     1.424032
      1.415898     1.407765     1.399631     1.391497     1.383364     1.375230     1.367096     1.358963     1.350829     1.342695
      1.334562     1.326428     1.318295     1.310161     1.302027     1.293894     1.285760     1.277626     1.269493     1.261359
      1.253225     1.245092     1.236958     1.228824     1.220691     1.212557     1.204423     1.196290     1.188156     1.180022
      1.171889     1.163755     1.155622     1.147488     1.139354     1.131221     1.123087     1.114953     1.106820     1.098686
      1.090552     1.082419     1.074285     1.066151     1.058018     1.049884     1.041750     1.033617     1.025483     1.017349
      1.009216     1.001082     0.992949     0.984815     0.976681     0.968548     0.960414     0.952280     0.944147     0.936013
      0.927879     0.919746     0.911612     0.903478     0.895345     0.887211     0.879077     0.870944     0.862810     0.854676
      0.846543     0.838409     0.830276     0.822142     0.814008     0.805875     0.797741     0.789607     0.781474     0.773340
      0.765206     0.757073     0.748939     0.740805     0.732672     0.724538     0.716404     0.708271     0.700137     0.692003
      0.683870     0.675736     0.667603     0.659469     0.651335     0.643202     0.635068     0.626934     0.618801     0.610667
      0.602533     0.594400     0.586266     0.578132     0.569999     0.561865     0.553731     0.545598     0.537464     0.529330
      0.521197     0.513063     0.504930     0.496796     0.488662     0.480529     0.472395     0.464261     0.456128     0.447994
      0.439861     0.431727     0.423593     0.415460     0.407326     0.399192     0.391059     0.382925     0.374792     0.366658
      0.358524     0.350391     0.342257     0.334124     0.325990     0.317856     0.309723     0.301589     0.293455     0.285322
      0.277188     0.269055     0.260921     0.252787     0.244654     0.236520     0.228386     0.220253     0.212119     0.203986
 NY phased data points follow
  -3.35091E+01 -2.36653E+01 -1.89027E+01 -5.33862E+01 -4.10049E+01 -2.21893E+01 -1.79601E+01 -1.46981E+01 -3.57481E+01 -1.62394E+01
  -2.11918E+01 -3.62751E+01 -3.27039E+01 -3.78159E+01 -3.69614E+01 -4.13125E+01 -4.26875E+01 -5.22229E+01 -6.93266E+01 -5.31793E+01
  -4.85260E+01 -5.55419E+01 -5.27835E+01 -6.90516E+01 -6.98098E+01 -7.29238E+01 -8.62906E+01 -8.75664E+01 -8.08750E+01 -8.23579E+01
  -8.73858E+01 -6.35903E+01 -7.02644E+01 -7.17205E+01 -5.67201E+01 -5.55678E+01 -5.72485E+01 -6.53149E+01 -7.09685E+01 -6.69490E+01
  -7.95443E+01 -8.41609E+01 -5.38568E+01 -7.35166E+01 -8.16857E+01 -8.00049E+01 -8.05875E+01 -5.20926E+01 -4.16147E+01 -2.61809E+01
  -4.12528E+01 -2.66177E+01 -2.41830E+01 -2.31663E+01 -1.76902E+01 -3.69008E+01 -9.94560E+00 -2.16674E+01 -2.86838E+01 -2.27615E+01
  -2.23941E+01 -2.58471E+01 -3.30505E+01 -9.15487E+00 -8.24750E+00 -7.39914E+00 -2.85317E+00 -6.73739E+00 -3.20443E+01 -3.32170E+01
  -2.04056E+01 -3.67297E+01 -3.15107E+01 -1.78302E+01 -1.78205E+01 -6.69113E+00  1.33309E+00  2.55538E+00  2.51442E+00 -1.06436E+01
   7.06120E+00  4.78650E+00 -6.01068E+00 -2.53939E+00 -1.47579E+01 -1.31744E+01 -3.55146E+01 -3.36470E+01 -4.28945E+01 -4.66431E+01
  -2.91798E+01 -2.13931E+01 -3.22057E-01 -1.21822E+01  4.74195E+00  1.46860E+01  1.01889E+01  2.54775E+01  2.35653E+01  3.73380E+01
   3.31386E+01  2.84260E+01  3.22115E+01  2.12943E+01  1.68275E+01  9.03343E+00  5.55539E+00 -9.89160E+00 -3.86055E+01 -5.67740E+01
  -7.93831E+01 -8.92676E+01 -1.10095E+02 -1.19727E+02 -1.27566E+02 -1.26386E+02 -9.50417E+01 -9.62679E+01 -5.92672E+01 -4.60560E+01
  -6.39760E+01 -3.88959E+01 -3.21193E+01 -1.65259E+01 -3.28194E+00 -3.94508E+00 -4.83463E+00  8.53148E+00  7.33885E+00  4.85042E+00
   1.68647E+01  1.75229E+01  1.13678E+01 -1.22561E+01 -8.73204E+00 -9.08114E+00 -3.40012E+01 -3.87714E+01 -4.18565E+01 -5.38885E+01
  -3.47264E+01 -1.85907E+01 -4.82680E+01 -6.29524E+01 -6.29390E+01 -5.08167E+01 -4.08024E+01 -4.64019E+01 -5.12965E+01 -4.57701E+01
  -4.41114E+01 -3.78585E+01 -3.32047E+01 -3.76540E+01 -1.97888E+01 -3.33820E+01 -3.44262E+01 -1.94848E+01 -2.34285E+01 -1.23101E+01
  -9.49749E+00 -1.02426E+01 -9.55887E+00  2.03327E+00 -2.28605E+01 -2.95636E+01 -4.39245E+00 -2.03585E+01 -2.50884E+01 -2.19663E+01
  -1.87338E+01 -1.70633E+01 -3.00542E+01 -3.55826E+01 -3.13852E+01 -3.21891E+01 -4.40282E+01 -4.78945E+01 -4.13820E+01 -4.24451E+01
  -5.23827E+01 -6.19181E+01 -4.91018E+01 -4.86814E+01 -7.66894E+01 -7.43235E+01 -7.07171E+01 -4.86915E+01 -5.47023E+01 -8.49356E+01
  -6.92262E+01 -6.84386E+01 -5.87023E+01 -6.11826E+01 -4.96809E+01 -3.46288E+01 -5.11903E+01 -4.63562E+01 -5.67032E+01 -4.54125E+01
  -3.34864E+01 -4.55899E+01 -4.23557E+01 -3.15353E+01 -3.03259E+01 -3.41753E+01 -2.94226E+01 -2.16870E+01 -2.21039E+01 -4.00698E+01
  -4.37857E+01 -4.92931E+01 -4.98724E+01 -4.41574E+01 -5.48240E+01 -4.40048E+01 -3.24878E+01 -3.17347E+01 -2.64981E+01 -1.26305E+01
  -1.17883E+01 -1.95703E+01 -9.30375E+00 -3.11724E+00 -1.97579E+01 -1.75844E+01 -1.24398E+01 -2.68125E+01 -9.95507E+00 -1.21000E+01
  -1.90869E+01 -1.90914E+01 -1.92845E+01 -6.90704E+00 -2.47314E+01 -1.41866E+01 -8.65899E+00 -6.09241E+00 -4.94663E+00 -1.23997E+01
  -9.81017E+00 -2.48883E+01 -6.33966E+00 -2.01280E+01 -1.98635E+01  3.17477E+00 -2.78681E+00 -1.48759E+00 -7.19966E+00  1.74591E+01
  -2.84229E+00 -1.77306E+01 -7.03878E+00 -1.17323E+01 -7.19633E+00 -5.19470E+00  2.56972E+01  3.59108E+01  5.43657E+01  6.60246E+01
   7.86709E+01  9.31272E+01  1.05268E+02  1.49990E+02  1.40389E+02  1.17850E+02  7.82611E+01  9.93492E+01  1.44252E+02  1.15567E+02
   1.19430E+02  1.04432E+02  9.11924E+01  8.91888E+01  8.66090E+01  9.19336E+01  8.51980E+01  9.26446E+01  8.57043E+01  9.35180E+01
   1.06145E+02  9.78882E+01  7.82124E+01  6.55125E+01  7.22850E+01  7.71726E+01  8.23004E+01  7.53537E+01  6.96539E+01  6.12952E+01
   5.55395E+01  6.70129E+01  5.52122E+01  5.38350E+01  4.91812E+01  3.42845E+01  5.03820E+01  3.93431E+01  2.00704E+01  1.50427E+01
   1.88458E+01  3.33639E+01  3.15532E+01  2.63497E+01  1.17652E+01  1.88269E+01  2.97002E+01  2.64748E+01  2.65388E+01  1.96212E+01
   3.34593E+01  3.86587E+01  2.12041E+01  1.92466E+01  1.13579E+01  8.19201E-02  2.14090E+01  1.63124E+01  2.77338E-02  1.29227E+01
   1.20787E+01  1.36823E+00 -8.20946E+00  8.12718E+00  1.17225E+01  2.23347E+01  3.41711E+01  2.10644E+01  3.71565E+01  3.79804E+01
   4.47256E+01  5.65752E+01  5.78767E+01  7.29661E+01  8.72605E+01  8.83151E+01  7.00421E+01  7.69115E+01  8.03310E+01  6.53313E+01
   5.92525E+01  4.89897E+01  3.66126E+01  2.15602E+01 -2.68088E+00 -2.57875E+01 -4.99658E+01 -7.46101E+01 -1.17909E+02 -1.73199E+02
  -2.04388E+02 -2.56583E+02 -3.00287E+02 -3.45835E+02 -3.92101E+02 -3.90637E+02 -3.89012E+02 -3.72622E+02 -3.60194E+02 -3.29005E+02
  -3.07286E+02 -2.95124E+02 -2.59080E+02 -2.35957E+02 -1.99879E+02 -1.95651E+02 -1.74710E+02 -1.51542E+02 -1.40070E+02 -1.11158E+02
  -1.08268E+02 -9.27547E+01 -9.17937E+01 -8.27484E+01 -6.99552E+01 -5.04472E+01 -3.24126E+01 -3.78862E+01 -1.89524E+01 -3.52532E+00
   7.60867E+00  1.00803E+00  1.25076E+01  2.48062E+01  1.81570E+01  2.92002E+01  3.12036E+01  3.04072E+01  2.37339E+01  5.33442E+01
   5.75796E+01  4.77721E+01  6.16031E+01  3.59343E+01  4.53156E+01  3.86859E+01  2.34574E+01  3.56508E+01  1.54284E+01  1.54068E+01
   9.47302E+00 -4.11929E+00 -2.04522E+01 -4.08573E+01 -3.59005E+01 -5.90247E+01 -7.56358E+01 -7.68841E+01 -8.81482E+01 -8.05106E+01
  -9.06704E+01 -9.00361E+01 -8.46019E+01 -1.03440E+02 -9.14133E+01 -9.00874E+01 -9.05540E+01 -7.73155E+01 -9.18071E+01 -8.36292E+01
  -7.56803E+01 -8.25829E+01 -7.85778E+01 -7.30871E+01 -7.56533E+01 -7.98562E+01 -7.64119E+01 -8.80399E+01 -6.88908E+01 -6.06348E+01
  -8.41671E+01 -7.83321E+01 -6.49085E+01 -6.57540E+01 -8.42466E+01 -7.08749E+01 -6.77984E+01 -6.93111E+01 -6.44579E+01 -7.12725E+01
  -6.51809E+01 -7.38617E+01 -5.53342E+01 -6.34719E+01 -6.44975E+01 -5.46118E+01 -7.54793E+01 -5.96478E+01 -6.19908E+01 -6.18877E+01
  -5.88811E+01 -6.17117E+01 -6.65187E+01 -6.17033E+01 -5.27857E+01 -5.62037E+01 -4.43128E+01 -6.11098E+01 -5.83285E+01 -5.32429E+01
  -5.24356E+01 -4.87280E+01 -6.36232E+01 -5.08357E+01 -5.51062E+01 -4.87930E+01 -4.59731E+01 -5.83274E+01 -4.80437E+01 -5.04268E+01
  -4.60748E+01 -4.71330E+01 -6.95529E+01 -5.93063E+01 -4.06898E+01 -5.05103E+01 -4.53601E+01 -4.52136E+01 -4.84095E+01 -5.04753E+01
 NY points of the fit to the data follow
  -1.08086E+02 -1.04507E+02 -9.96504E+01 -9.35147E+01 -8.60451E+01 -7.73442E+01 -6.75339E+01 -5.66347E+01 -4.46237E+01 -3.19715E+01
  -2.00051E+01 -1.05727E+01 -4.86269E+00 -5.41501E+00 -9.79008E+00 -1.82172E+01 -2.76427E+01 -3.63235E+01 -4.38984E+01 -4.95423E+01
  -5.36725E+01 -5.66188E+01 -5.85111E+01 -5.94499E+01 -5.94444E+01 -5.85791E+01 -5.70727E+01 -5.52676E+01 -5.34817E+01 -5.16560E+01
  -4.97490E+01 -4.76864E+01 -4.51877E+01 -4.23004E+01 -3.98431E+01 -3.92321E+01 -4.07813E+01 -4.26900E+01 -4.47449E+01 -4.68736E+01
  -4.88901E+01 -5.07354E+01 -5.23833E+01 -5.38063E+01 -5.49274E+01 -5.57215E+01 -5.61766E+01 -5.62108E+01 -5.55469E+01 -5.37002E+01
  -5.03854E+01 -4.59364E+01 -4.12434E+01 -3.75418E+01 -3.45758E+01 -3.22729E+01 -3.08492E+01 -3.01161E+01 -2.98164E+01 -2.94208E+01
  -2.86100E+01 -2.73368E+01 -2.55334E+01 -2.30180E+01 -1.97975E+01 -1.62254E+01 -1.28579E+01 -1.00260E+01 -7.54141E+00 -5.04673E+00
  -2.52801E+00 -2.27089E-01  1.83921E+00  3.41101E+00  4.42115E+00  4.78193E+00  4.46143E+00  3.66452E+00  2.55135E+00  1.16892E+00
  -5.97282E-01 -2.79475E+00 -5.32659E+00 -8.06108E+00 -1.09440E+01 -1.38833E+01 -1.67997E+01 -1.96047E+01 -2.21830E+01 -2.43729E+01
  -2.58073E+01 -2.57672E+01 -2.33301E+01 -1.81676E+01 -1.08268E+01 -2.02286E+00  5.45528E+00  1.13989E+01  1.47633E+01  1.57437E+01
   1.46058E+01  1.15953E+01  7.11174E+00  1.56065E+00 -4.81809E+00 -1.18536E+01 -1.95093E+01 -2.77115E+01 -3.64226E+01 -4.55762E+01
  -5.51745E+01 -6.50959E+01 -7.48395E+01 -8.32942E+01 -8.87892E+01 -9.02675E+01 -8.84549E+01 -8.35614E+01 -7.80709E+01 -7.08416E+01
  -6.12059E+01 -4.87163E+01 -3.68575E+01 -2.70629E+01 -1.90613E+01 -1.26559E+01 -7.60668E+00 -3.74033E+00 -9.60813E-01  7.31296E-01
   1.31309E+00  7.37524E-01 -1.00717E+00 -3.95854E+00 -8.19809E+00 -1.37182E+01 -2.02473E+01 -2.71482E+01 -3.37380E+01 -3.98447E+01
  -4.61235E+01 -5.30844E+01 -6.00890E+01 -6.54276E+01 -6.72817E+01 -6.62986E+01 -6.51394E+01 -6.38600E+01 -6.24867E+01 -6.10721E+01
  -5.96420E+01 -5.80570E+01 -5.62271E+01 -5.40827E+01 -5.17531E+01 -4.94135E+01 -4.70304E+01 -4.47589E+01 -4.27000E+01 -4.08314E+01
  -3.91043E+01 -3.73989E+01 -3.56744E+01 -3.40083E+01 -3.25018E+01 -3.12335E+01 -3.02520E+01 -2.95079E+01 -2.88852E+01 -2.83010E+01
  -2.78419E+01 -2.76387E+01 -2.77509E+01 -2.81219E+01 -2.86376E+01 -2.93784E+01 -3.04430E+01 -3.17467E+01 -3.30264E+01 -3.41002E+01
  -3.51026E+01 -3.62909E+01 -3.77607E+01 -3.91629E+01 -3.99460E+01 -3.99761E+01 -3.95178E+01 -3.87473E+01 -3.77658E+01 -3.66679E+01
  -3.54828E+01 -3.41985E+01 -3.27990E+01 -3.13563E+01 -2.99861E+01 -2.88026E+01 -2.78504E+01 -2.71746E+01 -2.67894E+01 -2.67266E+01
  -2.71174E+01 -2.80255E+01 -2.94432E+01 -3.11290E+01 -3.28889E+01 -3.49381E+01 -3.67745E+01 -3.80963E+01 -3.90045E+01 -3.93019E+01
  -3.90872E+01 -3.81188E+01 -3.63275E+01 -3.38306E+01 -3.07216E+01 -2.71376E+01 -2.31601E+01 -1.88414E+01 -1.43495E+01 -9.79222E+00
  -5.31066E+00 -9.63844E-01  3.17435E+00  6.82774E+00  9.56054E+00  1.08750E+01  1.04398E+01  8.23540E+00  3.87017E+00 -1.65081E+00
  -7.76037E+00 -1.44550E+01 -2.07754E+01 -2.69715E+01 -3.30609E+01 -3.88799E+01 -4.40714E+01 -4.83365E+01 -5.14465E+01 -5.32604E+01
  -5.37099E+01 -5.28668E+01 -5.10159E+01 -4.81696E+01 -4.41303E+01 -3.89862E+01 -3.28404E+01 -2.66343E+01 -2.05828E+01 -1.44242E+01
  -8.52107E+00 -2.09690E+00  4.98383E+00  1.24867E+01  2.05608E+01  2.91179E+01  3.82571E+01  4.78304E+01  5.76751E+01  6.75334E+01
   7.75494E+01  8.78939E+01  9.82774E+01  1.07287E+02  1.12637E+02  1.12164E+02  1.08528E+02  1.04603E+02  1.00740E+02  9.71157E+01
   9.37676E+01  9.07451E+01  8.79888E+01  8.54100E+01  8.29494E+01  8.06423E+01  7.84977E+01  7.65435E+01  7.47394E+01  7.30202E+01
   7.12348E+01  6.93026E+01  6.71035E+01  6.45962E+01  6.17013E+01  5.84900E+01  5.49853E+01  5.11621E+01  4.71752E+01  4.30954E+01
   3.90611E+01  3.51378E+01  3.14047E+01  2.79259E+01  2.47902E+01  2.20578E+01  1.97597E+01  1.79969E+01  1.68501E+01  1.64031E+01
   1.67086E+01  1.77595E+01  1.95578E+01  2.20474E+01  2.50330E+01  2.83223E+01  3.17428E+01  3.51735E+01  3.85472E+01  4.18256E+01
   4.49480E+01  4.78396E+01  5.04763E+01  5.28050E+01  5.47963E+01  5.63752E+01  5.74460E+01  5.79084E+01  5.76935E+01  5.68193E+01
   5.53268E+01  5.32441E+01  5.06571E+01  4.76583E+01  4.44468E+01  4.12727E+01  3.83651E+01  3.59841E+01  3.44815E+01  3.42036E+01
   3.56557E+01  3.96573E+01  4.73122E+01  5.72520E+01  6.74622E+01  7.57577E+01  7.98290E+01  7.96261E+01  7.58839E+01  6.96283E+01
   6.13958E+01  5.08745E+01  3.76444E+01  2.14966E+01  1.99204E+00 -2.13394E+01 -4.89237E+01 -8.07951E+01 -1.16905E+02 -1.57284E+02
  -2.02304E+02 -2.52336E+02 -3.04755E+02 -3.51660E+02 -3.80343E+02 -3.80841E+02 -3.62493E+02 -3.29488E+02 -2.93716E+02 -2.67684E+02
  -2.47609E+02 -2.30968E+02 -2.16310E+02 -2.02753E+02 -1.89825E+02 -1.77328E+02 -1.65202E+02 -1.53358E+02 -1.41787E+02 -1.30460E+02
  -1.19322E+02 -1.08334E+02 -9.73995E+01 -8.64437E+01 -7.54048E+01 -6.42368E+01 -5.29726E+01 -4.17036E+01 -3.05797E+01 -1.97618E+01
  -9.35747E+00  5.19322E-01  9.74429E+00  1.82107E+01  2.57604E+01  3.22007E+01  3.73809E+01  4.11430E+01  4.32538E+01  4.35993E+01
   4.21396E+01  3.87874E+01  3.35294E+01  2.64985E+01  1.79637E+01  8.28406E+00 -2.00551E+00 -1.23304E+01 -2.21999E+01 -3.13426E+01
  -3.97502E+01 -4.75325E+01 -5.47846E+01 -6.15391E+01 -6.78008E+01 -7.34112E+01 -7.81832E+01 -8.19991E+01 -8.48728E+01 -8.68283E+01
  -8.80065E+01 -8.86322E+01 -8.88151E+01 -8.86679E+01 -8.82856E+01 -8.77697E+01 -8.71493E+01 -8.64131E+01 -8.55656E+01 -8.46181E+01
  -8.36072E+01 -8.25830E+01 -8.15659E+01 -8.05608E+01 -7.95552E+01 -7.85798E+01 -7.76098E+01 -7.66197E+01 -7.56100E+01 -7.46502E+01
  -7.37479E+01 -7.28261E+01 -7.18983E+01 -7.09980E+01 -7.01326E+01 -6.92715E+01 -6.84052E+01 -6.75660E+01 -6.67831E+01 -6.60442E+01
  -6.53008E+01 -6.45542E+01 -6.37928E+01 -6.30284E+01 -6.22814E+01 -6.15673E+01 -6.08902E+01 -6.02358E+01 -5.96204E+01 -5.90101E+01
  -5.84130E+01 -5.78257E+01 -5.72422E+01 -5.66300E+01 -5.59928E+01 -5.53648E+01 -5.47613E+01 -5.41748E+01 -5.35907E+01 -5.30110E+01
  -5.24343E+01 -5.18504E+01 -5.12988E+01 -5.07960E+01 -5.03217E+01 -4.98734E+01 -4.94525E+01 -4.90469E+01 -4.86711E+01 -4.83184E+01
  -4.79810E+01 -4.76357E+01 -4.72755E+01 -4.68954E+01 -4.65202E+01 -4.61552E+01 -4.58143E+01 -4.55114E+01 -4.52078E+01 -4.48682E+01
 NY background values follow
    -2.871E+01   -3.026E+01   -3.181E+01   -3.336E+01   -3.491E+01   -3.645E+01   -3.798E+01   -3.951E+01   -4.103E+01   -4.253E+01
    -4.402E+01   -4.550E+01   -4.696E+01   -4.840E+01   -4.982E+01   -5.122E+01   -5.260E+01   -5.395E+01   -5.527E+01   -5.657E+01
    -5.784E+01   -5.907E+01   -6.027E+01   -6.144E+01   -6.257E+01   -6.367E+01   -6.472E+01   -6.573E+01   -6.670E+01   -6.762E+01
    -6.850E+01   -6.933E+01   -7.012E+01   -7.085E+01   -7.154E+01   -7.218E+01   -7.278E+01   -7.334E+01   -7.384E+01   -7.431E+01
    -7.473E+01   -7.510E+01   -7.544E+01   -7.573E+01   -7.598E+01   -7.619E+01   -7.635E+01   -7.648E+01   -7.656E+01   -7.661E+01
    -7.662E+01   -7.658E+01   -7.651E+01   -7.640E+01   -7.626E+01   -7.607E+01   -7.585E+01   -7.560E+01   -7.530E+01   -7.498E+01
    -7.462E+01   -7.422E+01   -7.379E+01   -7.333E+01   -7.283E+01   -7.231E+01   -7.175E+01   -7.117E+01   -7.055E+01   -6.991E+01
    -6.924E+01   -6.855E+01   -6.783E+01   -6.709E+01   -6.632E+01   -6.554E+01   -6.473E+01   -6.389E+01   -6.304E+01   -6.218E+01
    -6.129E+01   -6.038E+01   -5.946E+01   -5.852E+01   -5.757E+01   -5.661E+01   -5.563E+01   -5.464E+01   -5.363E+01   -5.262E+01
    -5.160E+01   -5.057E+01   -4.953E+01   -4.848E+01   -4.743E+01   -4.637E+01   -4.531E+01   -4.424E+01   -4.317E+01   -4.210E+01
    -4.102E+01   -3.995E+01   -3.888E+01   -3.780E+01   -3.673E+01   -3.566E+01   -3.460E+01   -3.354E+01   -3.248E+01   -3.143E+01
    -3.039E+01   -2.935E+01   -2.832E+01   -2.730E+01   -2.629E+01   -2.530E+01   -2.431E+01   -2.334E+01   -2.238E+01   -2.143E+01
    -2.050E+01   -1.958E+01   -1.868E+01   -1.780E+01   -1.694E+01   -1.609E+01   -1.526E+01   -1.446E+01   -1.367E+01   -1.290E+01
    -1.216E+01   -1.144E+01   -1.074E+01   -1.007E+01   -9.420E+00   -8.797E+00   -8.200E+00   -7.630E+00   -7.088E+00   -6.574E+00
    -6.089E+00   -5.634E+00   -5.209E+00   -4.815E+00   -4.453E+00   -4.124E+00   -3.828E+00   -3.565E+00   -3.338E+00   -3.145E+00
    -2.989E+00   -2.869E+00   -2.783E+00   -2.730E+00   -2.709E+00   -2.717E+00   -2.754E+00   -2.818E+00   -2.907E+00   -3.020E+00
    -3.156E+00   -3.312E+00   -3.487E+00   -3.680E+00   -3.889E+00   -4.113E+00   -4.350E+00   -4.599E+00   -4.858E+00   -5.125E+00
    -5.400E+00   -5.680E+00   -5.963E+00   -6.250E+00   -6.537E+00   -6.824E+00   -7.108E+00   -7.389E+00   -7.665E+00   -7.934E+00
    -8.195E+00   -8.446E+00   -8.688E+00   -8.920E+00   -9.143E+00   -9.355E+00   -9.556E+00   -9.747E+00   -9.926E+00   -1.009E+01
    -1.025E+01   -1.040E+01   -1.053E+01   -1.065E+01   -1.076E+01   -1.085E+01   -1.094E+01   -1.100E+01   -1.106E+01   -1.110E+01
    -1.113E+01   -1.114E+01   -1.114E+01   -1.112E+01   -1.109E+01   -1.105E+01   -1.099E+01   -1.091E+01   -1.081E+01   -1.070E+01
    -1.058E+01   -1.043E+01   -1.028E+01   -1.011E+01   -9.925E+00   -9.734E+00   -9.535E+00   -9.329E+00   -9.119E+00   -8.905E+00
    -8.689E+00   -8.474E+00   -8.259E+00   -8.048E+00   -7.841E+00   -7.640E+00   -7.448E+00   -7.264E+00   -7.091E+00   -6.931E+00
    -6.785E+00   -6.655E+00   -6.542E+00   -6.447E+00   -6.374E+00   -6.322E+00   -6.294E+00   -6.290E+00   -6.314E+00   -6.366E+00
    -6.448E+00   -6.561E+00   -6.705E+00   -6.880E+00   -7.087E+00   -7.327E+00   -7.598E+00   -7.902E+00   -8.239E+00   -8.609E+00
    -9.013E+00   -9.451E+00   -9.922E+00   -1.043E+01   -1.097E+01   -1.154E+01   -1.215E+01   -1.280E+01   -1.348E+01   -1.420E+01
    -1.496E+01   -1.575E+01   -1.658E+01   -1.744E+01   -1.834E+01   -1.929E+01   -2.027E+01   -2.128E+01   -2.234E+01   -2.343E+01
    -2.457E+01   -2.574E+01   -2.695E+01   -2.820E+01   -2.948E+01   -3.079E+01   -3.213E+01   -3.350E+01   -3.490E+01   -3.633E+01
    -3.777E+01   -3.925E+01   -4.074E+01   -4.225E+01   -4.378E+01   -4.533E+01   -4.689E+01   -4.846E+01   -5.005E+01   -5.164E+01
    -5.324E+01   -5.485E+01   -5.647E+01   -5.809E+01   -5.971E+01   -6.133E+01   -6.295E+01   -6.457E+01   -6.618E+01   -6.779E+01
    -6.938E+01   -7.097E+01   -7.255E+01   -7.412E+01   -7.567E+01   -7.721E+01   -7.872E+01   -8.022E+01   -8.170E+01   -8.316E+01
    -8.459E+01   -8.600E+01   -8.737E+01   -8.872E+01   -9.004E+01   -9.133E+01   -9.258E+01   -9.379E+01   -9.497E+01   -9.611E+01
    -9.721E+01   -9.827E+01   -9.928E+01   -1.002E+02   -1.012E+02   -1.020E+02   -1.029E+02   -1.036E+02   -1.043E+02   -1.050E+02
    -1.056E+02   -1.061E+02   -1.066E+02   -1.070E+02   -1.074E+02   -1.077E+02   -1.080E+02   -1.082E+02   -1.083E+02   -1.084E+02
    -1.085E+02   -1.085E+02   -1.084E+02   -1.083E+02   -1.082E+02   -1.079E+02   -1.077E+02   -1.074E+02   -1.070E+02   -1.066E+02
    -1.061E+02   -1.056E+02   -1.051E+02   -1.045E+02   -1.038E+02   -1.032E+02   -1.024E+02   -1.016E+02   -1.008E+02   -9.995E+01
    -9.904E+01   -9.809E+01   -9.710E+01   -9.607E+01   -9.501E+01   -9.391E+01   -9.278E+01   -9.162E+01   -9.044E+01   -8.923E+01
    -8.800E+01   -8.675E+01   -8.547E+01   -8.419E+01   -8.288E+01   -8.156E+01   -8.024E+01   -7.890E+01   -7.756E+01   -7.621E+01
    -7.486E+01   -7.351E+01   -7.216E+01   -7.081E+01   -6.947E+01   -6.814E+01   -6.681E+01   -6.550E+01   -6.420E+01   -6.292E+01
    -6.165E+01   -6.041E+01   -5.918E+01   -5.797E+01   -5.678E+01   -5.560E+01   -5.445E+01   -5.332E+01   -5.220E+01   -5.110E+01
    -5.003E+01   -4.897E+01   -4.793E+01   -4.692E+01   -4.592E+01   -4.495E+01   -4.399E+01   -4.305E+01   -4.214E+01   -4.125E+01
    -4.037E+01   -3.952E+01   -3.869E+01   -3.788E+01   -3.710E+01   -3.633E+01   -3.559E+01   -3.487E+01   -3.417E+01   -3.349E+01
    -3.284E+01   -3.221E+01   -3.160E+01   -3.101E+01   -3.044E+01   -2.989E+01   -2.936E+01   -2.885E+01   -2.835E+01   -2.788E+01
    -2.742E+01   -2.697E+01   -2.654E+01   -2.613E+01   -2.573E+01   -2.535E+01   -2.498E+01   -2.462E+01   -2.427E+01   -2.393E+01
    -2.361E+01   -2.329E+01   -2.299E+01   -2.269E+01   -2.240E+01   -2.212E+01   -2.185E+01   -2.158E+01   -2.132E+01   -2.107E+01
    -2.082E+01   -2.057E+01   -2.033E+01   -2.010E+01   -1.987E+01   -1.964E+01   -1.941E+01   -1.919E+01   -1.897E+01   -1.876E+01
    -1.855E+01   -1.834E+01   -1.813E+01   -1.793E+01   -1.773E+01   -1.753E+01   -1.733E+01   -1.714E+01   -1.695E+01   -1.675E+01
    -1.656E+01   -1.637E+01   -1.618E+01   -1.599E+01   -1.581E+01   -1.562E+01   -1.543E+01   -1.524E+01   -1.506E+01   -1.487E+01
 Mac      Conc. = 4.65E-04
  -6.01508E+01 -6.27862E+01 -6.54443E+01 -6.81682E+01 -7.09563E+01 -7.38050E+01 -7.67014E+01 -7.95990E+01 -8.23961E+01 -8.50369E+01
  -8.75024E+01 -8.98043E+01 -9.19163E+01 -9.38095E+01 -9.54063E+01 -9.66365E+01 -9.74473E+01 -9.78145E+01 -9.77502E+01 -9.73048E+01
  -9.65388E+01 -9.55021E+01 -9.41654E+01 -9.25181E+01 -9.04800E+01 -8.81026E+01 -8.55963E+01 -8.32729E+01 -8.13405E+01 -7.96862E+01
  -7.82482E+01 -7.70570E+01 -7.59746E+01 -7.48519E+01 -7.36953E+01 -7.25567E+01 -7.15096E+01 -7.05663E+01 -6.97634E+01 -6.90703E+01
  -6.84568E+01 -6.79026E+01 -6.73767E+01 -6.68327E+01 -6.62325E+01 -6.56593E+01 -6.52355E+01 -6.50683E+01 -6.51204E+01 -6.52186E+01
  -6.52236E+01 -6.51554E+01 -6.51297E+01 -6.52066E+01 -6.53886E+01 -6.55908E+01 -6.56990E+01 -6.56724E+01 -6.54595E+01 -6.50348E+01
  -6.43602E+01 -6.34810E+01 -6.24192E+01 -6.11751E+01 -5.98048E+01 -5.83663E+01 -5.69562E+01 -5.56528E+01 -5.44530E+01 -5.33161E+01
  -5.22812E+01 -5.13059E+01 -5.02492E+01 -4.90408E+01 -4.76684E+01 -4.61254E+01 -4.44819E+01 -4.27417E+01 -4.09485E+01 -3.91794E+01
  -3.76074E+01 -3.62942E+01 -3.51577E+01 -3.40946E+01 -3.30594E+01 -3.20105E+01 -3.09064E+01 -2.97661E+01 -2.86048E+01 -2.74617E+01
  -2.63749E+01 -2.53856E+01 -2.45778E+01 -2.40602E+01 -2.39100E+01 -2.41781E+01 -2.49497E+01 -2.62014E+01 -2.79362E+01 -3.00695E+01
  -3.25721E+01 -3.53587E+01 -3.83485E+01 -4.14477E+01 -4.45492E+01 -4.74933E+01 -5.02106E+01 -5.26409E+01 -5.47569E+01 -5.65644E+01
