 
 $NMID
 ID=''
 FMTDAT='(2E13.5)'
 TRAMP=   1.00000E+0
 VOLUME=   1.00000E+0
 $END
   6.30087E+3  -9.63816E+3
   2.97171E+3  -1.22888E+3
  -3.48196E+3   2.26361E+3
   4.57209E+3  -5.00148E+3
   3.82628E+3  -1.14536E+2
  -1.59515E+3   6.10498E+3
  -2.30084E+3  -1.49894E+3
   1.40363E+2  -5.11590E+3
   4.57300E+3   2.36485E+3
   2.77961E+3   4.64396E+3
  -4.66641E+3   1.12987E+3
  -3.00930E+3  -1.73464E+3
   3.34861E+3  -1.22022E+3
   4.19615E+2   2.78699E+3
  -3.97681E+3   1.27603E+3
  -1.14494E+3  -3.28587E+3
   1.42695E+3  -3.06417E+2
  -6.38419E+2   2.35981E+3
  -2.68177E+2  -2.68019E+3
   3.17764E+3  -2.52856E+3
   1.53851E+3   3.09722E+3
  -2.39439E+3   7.81927E+2
   3.34440E+2  -2.87426E+3
   4.00529E+3   2.23203E+3
  -1.46021E+3   3.96473E+3
  -4.10344E+3  -2.50580E+3
   2.67916E+3  -3.61213E+3
   3.38396E+3   3.31117E+3
  -3.26545E+3   3.36699E+3
  -2.07412E+3  -3.14246E+3
   2.87904E+3  -1.94494E+3
   8.61569E+2   2.65792E+3
  -2.68242E+3   1.88365E+2
  -4.97659E+2  -2.86202E+3
   1.55020E+3   4.05263E+2
  -9.16705E+2   1.36675E+3
  -1.35865E+3  -2.28298E+3
   1.57911E+3  -1.99335E+3
   1.77698E+3   1.80529E+3
  -1.24457E+3   1.81689E+3
  -9.04079E+2  -7.13321E+2
   1.12923E+3  -1.31359E+2
  -2.86628E+2   1.62274E+3
  -2.54369E+3   3.00038E+2
  -1.10792E+3  -1.99185E+3
   2.16756E+3  -1.21636E+3
   1.98606E+3   1.40951E+3
  -4.19064E+2   1.13171E+3
  -5.39767E+2  -5.41488E+2
   5.32981E+2   5.14863E+2
  -5.32555E+2   1.43555E+3
  -1.67852E+3  -7.33330E+2
   4.41119E+2  -2.03168E+3
   1.24962E+3  -1.90024E+2
  -3.64012E+2   5.62376E+2
  -1.65775E+2  -1.00902E+3
   1.50427E+3  -4.64239E+2
   5.71803E+2   1.74894E+3
  -2.00686E+3   9.22138E+2
  -1.32102E+3  -1.31955E+3
   5.38961E+2  -4.58308E+2
   1.55920E+2   5.40399E+2
  -7.40370E+2  -8.03954E+2
   5.68061E+2  -1.22813E+3
   1.12956E+3   5.41876E+2
   1.75799E+2   1.67563E+3
  -3.00972E+2   7.22682E+2
  -3.21911E+2   1.31409E+2
  -5.26926E+2   2.35865E+2
  -7.81489E+2  -1.91586E+2
  -6.63342E+1  -7.62284E+2
   4.32613E+2  -4.03052E+2
   2.89316E+1  -2.12004E+2
  -1.27808E+1  -7.49733E+2
   3.82496E+2  -7.46213E+2
   6.70866E+2   4.12068E+2
  -3.23368E+2   8.03065E+2
  -8.59279E+2  -6.34978E+0
  -1.33431E+1  -8.92313E+2
   7.28493E+1  -2.02460E+1
  -4.70276E+1   3.58860E+2
  -9.33447E+1  -2.25700E+2
   3.59040E+2  -2.97714E+2
   3.77915E+2   4.72111E+2
  -3.65220E+2   4.63376E+1
   1.71215E+2  -2.47622E+2
   1.48379E+2   2.96691E+2
  -2.28194E+2   4.34424E+2
  -1.37584E+2  -4.26901E+2
   2.75071E+2  -7.53801E+2
   4.80900E+2   1.67679E+2
  -2.68731E+2   2.67671E+2
  -7.48593E+1  -4.77609E+2
   4.26763E+2  -1.54829E+2
   3.65850E+2   2.79137E+2
  -4.00045E+2   2.11616E+2
  -4.97894E+1  -1.51411E+2
   3.03521E+2  -6.62470E+1
  -1.67682E+2   2.19784E+2
  -3.06242E+2   2.08450E+2
  -2.20026E+2  -1.86699E+2
  -1.02083E+2  -2.99080E+1
  -4.57696E+2  -2.81733E+1
   4.54129E+1  -2.37610E+2
   3.60318E+1  -9.98771E+1
   6.89853E+1   4.22978E+1
  -1.51219E+2  -4.12089E+2
   1.34311E+2  -5.01597E+2
   6.16428E+2   5.06340E+1
   1.43665E+2   5.22907E+2
  -3.93190E+2   3.81047E+2
  -2.45490E+2  -1.07822E+2
  -1.34210E+2   4.20677E+1
  -3.21369E+2   1.69881E+2
  -3.06886E+2   5.59238E+1
  -8.83611E+1  -3.74924E+2
  -1.63304E+2  -1.35434E+2
  -1.20771E+2  -8.13548E+1
   2.11733E+2  -1.72599E+2
   2.24114E+2   1.12968E+2
   5.48539E+1   3.39840E+2
  -3.70305E+2   8.11665E+1
  -7.36840E+1  -1.50298E+2
   4.59135E+0  -7.59859E+1
   6.62057E+1   1.00735E+2
   1.58189E+2   2.21332E+2
   1.60527E+2  -1.12179E+2
   2.61516E+2   1.17976E+2
  -5.23274E+1   2.28778E+2
   2.29788E+1   2.43925E+2
   8.30055E+1   1.07979E+2
   1.80608E+2   1.26610E+2
  -2.96006E+0  -7.69436E+1
  -2.78745E+1  -1.00857E+2
   8.18458E+1  -7.93888E+1
   1.37444E+2   1.32527E+2
   1.56515E+2  -6.30887E+1
  -1.77019E+2  -1.78205E+2
   5.58065E+1   9.18946E+1
  -1.80552E+2   1.67902E+2
  -3.28088E+2  -4.79424E+1
   3.71785E+1  -2.42552E+2
   4.28107E+2  -2.05207E+2
   3.98966E+2   5.99416E+1
   6.64373E+1   1.30425E+2
   2.38769E+2  -1.04416E+2
   2.77079E+2   2.13276E+2
   1.16364E+2  -1.79382E+2
   1.00057E+2  -1.71755E+2
   4.02266E+1   1.44143E+1
  -1.24956E+2   2.68407E+2
   1.67668E+2  -5.54821E+1
   3.65298E+2  -1.93603E+2
   1.09707E+2   5.46347E+1
   4.76425E+1   1.66918E+2
  -1.28436E+2  -1.47876E+1
   2.56036E+2  -1.12699E+2
   2.95991E+2  -2.25472E+1
  -9.82281E+0  -9.39334E+1
   1.29253E+1  -5.70277E+1
   1.17661E+1   1.10335E+2
  -5.25014E+1  -8.97316E+0
  -1.76536E+1  -2.08787E+2
  -1.65780E+2  -6.65526E+1
  -1.61231E+2  -2.60814E+1
   1.73271E+2  -1.37277E+2
  -9.27566E+1  -4.64013E+1
  -8.25926E+1   3.78344E+1
   1.29690E+1   8.91562E+1
  -8.99955E+1   1.53299E+1
   7.37177E+1  -4.59887E+1
   1.97636E+1   6.77205E+1
   6.72286E+1  -1.57740E+2
  -1.59069E+2  -8.84714E+0
  -7.26312E+1  -1.76324E+2
   1.06749E+2   2.33234E+1
  -1.02039E+2  -2.44906E+2
   6.50080E+1   2.80337E+1
   3.16085E+2  -2.22022E+2
   2.28575E+1  -5.57793E+1
   1.42699E+2   2.63230E+2
  -1.33476E+2   2.43903E+2
   1.29918E+2   9.62073E+1
  -1.87481E+2   1.26792E+2
  -5.55061E+1  -1.96841E+1
   8.84347E+0   3.58958E+0
  -4.40458E+1   6.98219E+1
  -3.89168E+1  -8.47755E+1
   3.49616E+1  -3.79080E+2
   2.47847E+2  -2.06588E+2
   4.72393E+1   1.88808E+1
  -1.60856E+2   3.28583E+1
  -1.72181E+2  -1.78916E+2
  -3.87451E+1  -1.14399E+2
   5.14296E+1   9.04700E+1
  -2.79961E+2   2.51946E+1
  -2.02926E+2  -1.03885E+2
   1.79582E+2  -1.20286E+2
   6.90155E+1   8.46211E+1
  -7.64697E+1   1.55486E+2
  -1.43690E+2   2.10184E+2
  -9.62779E+0   2.44508E+1
   2.46921E+2  -1.19048E+2
   1.95580E+2   1.11854E+2
   2.72463E+1   9.59736E+1
   1.82366E+2  -4.01414E+1
   6.71089E+1   1.88513E+2
  -4.32092E+1  -3.15194E+1
  -6.10440E+1   3.30298E+2
   1.27505E+1   1.02659E+2
   1.65176E+1   7.94098E+1
   3.32455E+1   5.93538E+1
   1.06894E+1   7.44885E+0
  -2.66670E+1   3.22764E+1
   1.14609E+1   3.57415E+1
  -2.23990E+2   5.35732E+1
   3.22368E+0  -5.10052E+1
  -4.89703E+1   2.28554E+2
  -1.13015E+1   1.39484E+2
   1.37972E+2   1.14701E+2
   2.58172E+2   6.57475E+1
   1.97686E+2   9.01904E+1
   2.44316E+2   1.33943E+2
  -2.30700E+2   3.04569E+2
  -1.56114E+2   1.37384E+2
  -1.36670E+2   1.50217E+2
   3.82810E+1  -7.14163E+1
   1.32324E+2   7.51774E+1
   3.53666E+1   1.90994E+2
  -6.33916E+1   9.12387E+1
   1.40396E+1  -8.68289E+1
   2.50558E+1  -5.69417E+0
   1.08068E+2   6.47903E+1
  -7.56188E+1  -3.22166E+2
  -2.62561E+1  -6.95704E+1
  -1.91897E+2   5.14139E+1
   2.55230E+1   3.72349E+1
   1.34171E+2   1.10989E+1
   1.19607E+2   5.57553E+1
  -8.72491E+1  -1.38216E+2
   1.90405E+2  -9.78045E+1
   5.64682E+1   4.34629E+1
   1.24396E+2   1.88311E+2
  -1.56054E+2  -1.00608E+2
  -1.87688E+1  -2.03291E+2
   7.08173E+1  -2.15035E+2
   1.46694E+2   5.47933E+1
   1.44697E+2  -8.41448E+1
  -4.63060E+0  -2.38925E+2
   2.63912E+1  -2.11855E+2
   1.46892E+2  -2.14465E+2
  -7.01550E+1  -4.59143E+1
  -1.59393E+2   1.44159E+2
   5.46595E+1  -2.36524E+1
  -8.27186E+1  -2.49507E+2
   6.04317E+1  -1.76151E+2
   4.23668E+1  -1.76021E+2
  -1.34990E+2   1.68885E+2
  -1.83246E+1  -2.11238E+2
  -1.78476E+2  -1.45585E+2
  -1.01817E+2   7.69778E+1
  -3.45296E+2  -9.45009E+1
  -1.10280E+2   1.77447E+1
  -6.23242E+1  -4.45636E+2
   2.23813E+2  -9.17050E+0
  -1.05988E+1  -2.00996E+1
  -2.76407E+2   1.72614E+2
  -1.46617E+2   9.90253E+1
  -2.98129E+2  -4.83534E+0
  -8.70087E+1   4.21470E+1
  -7.95908E+1  -3.87387E+1
  -2.04438E+2   1.58694E+2
  -1.64674E+2  -3.30733E+1
   1.53868E+1  -2.17557E+2
  -5.04389E+1   7.51473E+1
  -1.12380E+2   1.65526E+2
  -1.14685E+2   4.93216E+1
  -1.06660E+2  -3.74148E+2
   4.49036E+1  -1.46423E+2
   6.36136E+1   1.03651E+2
  -5.59657E+0   1.27274E+2
  -4.48986E+1  -1.52019E+2
  -3.40483E+1  -7.44644E+1
   9.04418E+0   2.83609E+2
  -1.81001E+2   1.14991E+2
  -1.69887E+2   7.40194E+1
  -6.17215E+1  -1.41248E+2
   1.28829E+2  -2.13514E+1
   2.14975E+2  -8.82431E+1
   1.58142E+2  -3.63557E+1
  -1.48081E+2   6.02840E+1
   2.13606E+2  -1.95113E+2
   3.00473E+2   1.74726E+1
  -7.17285E+0  -1.50144E+2
  -2.55954E+2  -4.32180E+1
   5.30187E+1   5.28249E+1
   1.99684E+2   1.40284E+2
   1.58182E+2   1.94304E+2
  -2.57741E+1   5.00564E+1
  -1.66165E+2   9.61769E+1
   3.54578E+1  -1.15601E+1
   2.52264E+2   2.09574E+1
  -7.51969E+1   1.39980E+2
   2.62779E+2   1.07617E+2
  -2.30979E+2  -3.62318E+0
  -2.33057E+2   1.93447E+2
   2.03431E+2   1.28344E+1
  -1.16160E+2  -3.49758E+1
   7.39450E+1  -7.47672E+0
   1.71333E+2  -5.43055E+1
   5.70121E+1   1.31524E+0
  -1.02205E+2  -7.13193E+1
   2.46042E+2  -3.36367E+1
   2.52891E+1  -1.50530E+1
  -1.62718E+2  -1.33193E+2
  -1.64602E+2  -6.67879E+0
   3.33571E+1  -1.92727E+2
  -6.41709E+1   9.01029E+0
   3.57308E+1   1.60381E+2
  -7.21723E+1  -5.04747E+1
   8.77492E+1  -4.59900E+1
   3.74596E+1   7.07357E+1
  -4.58635E+1   7.58483E+1
   6.85159E+1   1.48228E+2
  -2.43454E+1  -1.39413E+2
  -6.41611E+1  -1.12468E+2
   1.00570E+2   1.43551E+2
  -8.78533E+1   1.95691E+2
  -2.94411E+2   1.18362E+1
  -1.21864E+2  -1.07577E+2
  -5.18370E+0   2.43598E+2
   2.20575E+1  -1.22079E+1
  -4.26422E+0  -8.86610E+1
   2.98579E+1  -9.38545E+1
   2.49876E+2   1.32753E+1
   9.31994E+1   1.29057E+1
  -1.40627E+1   2.29031E+2
   5.30239E+1  -2.39017E+2
   5.94360E+1  -1.30017E+2
  -1.87280E+2  -3.83843E+1
   6.56128E+1   1.94618E+2
   1.44468E+2  -3.97174E+1
  -8.83728E+1   6.96427E+0
  -2.51896E+2  -7.34167E+1
  -3.70641E+2   1.92873E+1
   1.21329E+2   8.30383E+0
  -2.85451E+2   3.68555E+1
  -1.55893E+2   3.85150E+1
  -1.77153E+2  -3.99452E+0
   5.07249E+1  -1.39155E+2
  -3.40501E+0   5.41493E+1
  -5.31121E+1   1.05468E+2
  -2.38712E+2  -1.07165E+2
  -1.57308E+2   9.64684E+0
   1.29598E+2  -3.91938E+0
  -2.81834E+2  -5.44156E+0
   2.12005E+1   2.39398E+1
  -2.79938E+1  -1.09231E+2
   7.42355E+1   1.38652E+2
   8.59065E+1   2.38838E+1
  -1.03252E+2  -5.98507E+0
  -1.70076E+2  -2.36273E+1
  -4.08681E+1  -1.49168E+2
   5.80135E+0  -1.09363E+2
   1.88037E+2   5.93441E+1
  -5.48948E+1   3.72929E+2
  -4.02468E+1   1.66075E+2
