 
 $NMID
 ID=''
 FMTDAT='(2E13.5)'
 TRAMP=   1.00000E+0
 VOLUME=   1.00000E+0
 $END
  -1.55740E+4   1.62391E+4
  -1.06972E+4   4.08881E+4
   4.12248E+4   2.57901E+4
   3.35818E+4  -2.74714E+4
  -2.35313E+4  -3.88262E+4
  -3.85986E+4   4.19264E+3
  -1.82245E+3   3.49472E+4
   2.83131E+4   1.75888E+4
   2.00748E+4  -1.85775E+4
  -1.28467E+4  -2.61743E+4
  -2.73978E+4   8.32585E+2
  -5.19270E+3   2.22645E+4
   1.66428E+4   1.04482E+4
   1.09250E+4  -1.32153E+4
  -4.70917E+3  -1.70262E+4
  -1.06582E+4   2.09937E+2
  -5.60689E+3   1.32183E+4
   5.88796E+3   6.89675E+3
   8.90767E+3  -5.30318E+3
  -1.66273E+2  -6.48042E+3
  -7.07519E+3  -1.12915E+3
  -3.59438E+3   3.73372E+3
   2.70248E+3   5.72405E+3
   3.69073E+3   9.59430E+2
   1.22257E+3  -5.39961E+3
  -1.22324E+3  -2.40512E+3
  -2.87070E+3   3.28622E+3
  -1.74776E+3   2.81204E+3
   2.03860E+3  -7.54250E+2
   3.21123E+3  -1.58293E+3
  -6.40490E+2  -1.10283E+3
  -3.07142E+3  -1.55976E+2
  -1.57489E+3   3.73898E+2
   1.67778E+3  -4.39144E+2
   3.34211E+3  -1.21701E+3
   1.68435E+3   1.32261E+2
  -1.82884E+3   4.43725E+2
  -1.81734E+3   4.71473E+2
   7.53835E+2   2.80475E+2
   9.16586E+2  -4.84012E+1
  -1.17662E+2  -1.57005E+3
   7.78212E+1  -1.88253E+3
   7.83323E+2   5.64940E+2
   6.48613E+2   1.46177E+3
   3.74437E+2   5.68577E+2
  -1.41323E+2  -4.17513E+1
  -1.54396E+3   2.97529E+2
  -1.85687E+3  -1.17321E+3
   3.37987E+2  -1.60378E+3
   1.22457E+3  -7.12599E+2
   7.34246E+2   5.39384E+1
   1.48642E+2  -2.38979E+2
   6.82000E+1   9.27204E+1
  -3.77987E+0   9.68526E+2
  -5.06609E+2   4.96668E+2
  -6.37510E+2  -1.60381E+2
  -2.86729E+2  -8.37990E+2
   4.19498E+2  -7.57514E+2
   9.64814E+2  -2.65209E+1
   4.81842E+2   8.46507E+2
  -4.70701E+2   9.39484E+2
  -2.92373E+2   1.03555E+3
  -1.06128E+3   8.60024E+2
  -1.61382E+3  -4.17702E+2
  -1.09092E+3  -1.44353E+3
   6.28196E+2  -8.18134E+2
   9.64504E+2  -2.25932E+1
   1.13569E+3   4.58666E+2
   7.38277E+2   8.20094E+2
  -3.01742E+2   5.52250E+2
  -3.84078E+1  -4.09412E+0
   4.97979E+2   3.84706E+2
   5.73619E+2   1.03465E+3
  -2.51547E+2   5.67203E+2
  -5.39491E+2  -3.00860E+1
   6.66820E+1  -2.33226E+2
   1.91202E+2   4.61796E+2
  -4.45103E+2   6.91643E+2
  -2.45306E+2   2.46654E+2
   2.27031E+2  -1.05921E+2
   2.32608E+2  -1.72384E+2
   4.91401E+2  -4.54054E+1
   4.04624E+2   1.72262E+2
   1.17598E+2   1.29783E+2
   4.98287E+2  -2.09596E+2
   8.98244E+2   1.44911E+2
   6.09631E+2   5.38235E+2
   3.42800E+1   5.01570E+2
   7.48649E+1   1.36491E+2
   5.16875E+2   2.64213E+2
   3.50042E+2   5.86603E+2
  -3.45760E+2   5.18445E+2
  -7.26485E+2  -1.77697E+2
  -9.39282E+1  -6.81587E+2
   7.70492E+2  -5.61114E+2
   9.61223E+2  -1.12188E+2
   3.95546E+2   1.24166E+2
   1.66309E+2  -6.46408E+1
   3.72952E+2  -6.51708E+0
   6.33170E+2   4.05543E+2
  -3.35704E+1   7.65009E+2
  -5.38208E+2   2.10062E+2
  -6.26449E+1  -6.17188E+2
   5.23815E+2  -4.49543E+2
   7.25764E+2   2.25684E+2
   1.73933E+2   5.98006E+2
  -5.26871E+2   6.07629E+1
  -4.74455E+2  -7.88542E+2
   5.25019E+2  -1.17836E+3
   1.10050E+3   2.47588E+2
   5.13861E+2   9.17589E+2
  -1.86146E+2   4.56094E+2
  -3.45496E+2  -3.39449E+2
   8.27809E+1   1.45970E+2
  -2.32696E+2   3.32782E+2
  -3.05849E+2  -1.31288E+2
  -3.33362E+2  -5.26580E+2
   8.60807E+1  -1.06593E+3
   5.51128E+2  -6.14908E+2
   6.77498E+2   4.91809E+1
   4.36715E+2   6.22973E+2
  -1.09410E+2   3.73821E+2
  -4.66635E+2   1.39419E+2
  -5.01088E+2   2.56907E+1
  -2.21849E+2  -7.63958E+1
  -2.46333E+1  -6.21596E+2
   2.91959E+2  -5.51710E+2
   3.70768E+2  -1.43161E+2
   3.50376E+2   1.14479E+2
  -3.46193E+2   3.11544E+2
  -4.49641E+2  -3.33190E+2
  -1.44156E+2  -8.18378E+2
   1.53606E+2  -3.61904E+2
  -2.04685E+2   1.97132E+2
  -8.05706E+1  -2.58383E+2
   4.02164E+2  -2.54499E+2
   2.86533E+2   8.18041E+1
   7.09363E-1   3.74929E+2
  -4.98838E+2   2.13671E+2
  -3.08782E+2  -2.36391E+2
  -1.06569E+2  -6.60501E+2
   2.69198E+2  -2.57554E+2
   3.03330E+2   2.20860E+2
  -2.26134E+2   7.38913E+2
  -6.79089E+2   1.80935E+2
  -4.31276E+2  -5.09064E+2
   2.83300E+2  -5.43025E+2
  -1.77499E+2  -3.91728E+2
  -3.28100E+1   6.27957E+1
  -2.62440E+1  -2.31785E+2
   3.71402E+2  -3.33214E+2
   2.96292E+2   1.38197E+1
  -1.62319E+2   5.65442E+2
  -2.67567E+2   2.65923E+2
  -1.95251E+2   2.22344E+1
   9.82739E+1  -2.29050E+2
  -1.22863E+2   2.80357E+2
  -4.36110E+2   7.78042E+1
  -2.25970E+2  -1.46196E+2
  -6.62882E+1   3.25987E+1
  -3.86709E+2  -1.61227E+1
  -4.70612E+2  -6.14898E+1
  -2.40040E+2  -3.83478E+2
  -1.22088E+2  -6.47599E+1
   1.26422E+2   3.31378E+1
   2.45940E+2   2.40617E+2
  -2.04009E+2   4.08578E+2
  -3.77805E+2  -1.15200E+2
   2.05646E+1  -8.97384E+1
  -1.44350E+1  -1.23281E+2
  -3.51962E+1   1.27055E+2
  -3.25320E+2   3.56052E+2
  -4.31993E+2  -7.76894E+1
   4.18529E+1  -3.16792E+2
   1.53838E+2   3.72388E+1
  -6.31677E+1   1.23687E+2
  -2.76252E+2  -4.76760E+1
  -1.60847E+2  -3.68843E+2
  -3.02850E+1  -2.45770E+2
   2.53016E+2   2.08206E+2
  -1.34970E+2   3.79404E+2
  -2.31961E+2   3.21673E+2
  -1.15251E+2  -3.11621E+1
  -1.90996E+2  -1.54028E+2
  -6.82124E+1  -2.07097E+2
   5.38587E+1  -2.20039E+2
   2.06879E+2  -4.70785E+2
   3.85293E+2  -5.28009E+1
   2.37409E+2   3.84388E+2
  -7.46625E+1   4.89257E+2
  -5.59969E+2   9.44220E+1
  -5.24117E+2  -3.41495E+2
   2.14018E+1  -6.38363E+2
   2.94463E+2  -1.35112E+2
   1.14184E+2  -2.38500E+1
   3.25348E+2   1.76677E+1
  -1.16200E+2  -5.08147E+1
   6.40157E+0  -1.52003E+2
   1.53418E+1   2.99688E+1
  -3.40941E+2  -1.94798E+0
  -2.84301E+2  -4.07840E+2
   3.85538E+2  -4.37813E+2
   4.45018E+2   6.22460E+1
   2.55136E+2   2.48524E+2
  -2.63317E+2   2.68133E+1
  -9.77024E+1  -1.42416E+2
  -2.11572E+2  -3.20151E+2
   2.52282E+1  -1.38140E+2
  -1.73927E+2  -2.64079E+1
  -1.05926E+1  -4.25533E+1
  -9.96753E+1  -2.69689E+2
   3.01302E+2  -9.87472E+1
   1.43426E+1   4.61349E+2
  -4.44911E+2   1.74684E+2
  -5.59260E+2  -3.61265E+2
  -9.56147E+0  -2.83290E+2
   2.79564E+2  -4.18653E+2
   1.51868E+2   2.50114E+2
   2.01747E+2  -6.63125E+1
  -9.26930E+1  -4.13803E+1
   8.02161E+1   1.72211E+2
   1.17782E+1   2.35937E+2
  -2.42782E+2   2.81922E+2
  -1.95864E+2  -1.82187E+1
  -2.90670E+2  -3.15580E+2
   2.26687E+2  -2.95580E+2
   1.76431E+2   1.74764E+2
  -1.96464E+2   2.59170E+2
  -2.49156E+2   9.89212E+1
  -1.33022E+2  -8.28006E+1
   1.55241E+2   2.37942E+1
  -1.11154E+1  -2.82048E+1
  -7.17266E+1   2.53939E+2
  -9.10265E+1   2.28854E+0
   1.03472E+2   7.34038E+1
  -1.62522E+2  -3.38693E+0
  -1.41615E+2   1.53373E+2
  -9.51898E+1   4.99554E+1
  -1.28394E+2  -3.63810E+2
   6.13243E+1   6.23019E+1
   2.65248E+2  -9.76037E+1
   1.17685E+1   1.67774E+2
  -1.24237E+2  -1.34679E+2
  -2.14522E+2  -1.57113E+2
  -5.13245E+1  -3.07929E+2
   6.44373E+1   8.92066E+1
  -1.69057E+1  -2.05747E+2
  -1.33923E+1  -1.95035E+2
  -6.09809E+1  -5.47290E+1
   4.38052E+1   1.59177E+2
  -4.15378E+1   2.99050E+1
  -1.20669E+2   1.33229E+2
  -1.26900E+2  -1.01642E+2
   2.32907E+2  -9.78437E+1
   9.70000E+1   7.56013E+1
   1.40643E+2   2.66979E+2
  -9.09309E+1   1.64440E+2
  -3.37807E+1   1.55126E+1
  -2.00161E+2   4.74589E+1
  -9.60054E+1   1.42258E+2
  -3.68508E+2  -2.31396E+2
  -1.50792E+2  -2.09454E+2
   2.05358E+2  -2.31735E+2
   1.93070E+2   1.59732E+1
   2.49370E+2   1.30668E+2
  -1.83982E+2   7.25707E+1
  -1.71886E+2   1.81527E+2
  -1.82196E+2  -3.23231E+2
   2.66630E+2  -1.65649E+2
  -1.36752E+1   7.96481E+1
   6.40399E+1   1.33731E+2
   3.13774E+2   2.21027E+2
   2.43803E+2   8.97197E+1
  -4.42305E+1   7.89299E+1
  -2.46460E+2   1.31136E+2
  -1.12762E+2  -1.77757E+2
  -6.51567E+1  -4.05620E+2
  -1.88314E+1  -1.92928E+2
   1.40326E+2  -7.11080E+0
  -1.97534E+2   1.89640E+2
  -9.30738E+1   4.90945E+1
  -1.37529E+1   1.01604E+2
   1.91842E+2  -1.43728E+2
  -4.59233E+2  -1.70156E+2
  -3.08731E+2   2.83372E+1
   1.03442E+2  -3.27025E+2
   3.63009E+2  -7.49701E+1
   1.30978E+2   6.94770E+1
  -1.66732E+2   3.52920E+2
  -1.65506E+2   1.28647E+2
  -4.23824E+1  -1.20710E+2
   9.24707E+0  -2.40356E+2
   1.63149E+2  -1.08955E+2
   1.18787E+2  -2.45585E+2
  -4.53480E+1   9.20782E+1
  -1.49529E+1  -6.83852E+1
   1.65382E+2  -4.77621E-1
  -2.34234E+2   1.44414E+2
  -1.84315E+1   3.08572E+1
  -3.01179E+1  -5.94054E+1
   1.24836E+2  -1.44172E+2
  -5.70351E+1  -6.29732E+0
  -1.34621E+2   8.76895E+1
  -1.77930E+2  -5.07773E+1
  -7.63937E+1  -1.32978E+2
   3.75589E+1  -1.01745E+2
   1.94690E+2   1.88496E+2
  -5.83315E+0   1.10513E+2
  -9.19068E+1   7.88853E+1
  -8.89230E+1   2.74582E+2
   9.84310E+1   6.22614E+1
  -1.67495E+2   5.25857E+1
  -2.49670E+2   2.43443E+1
   2.92466E+0  -1.61422E+2
   1.68479E+2   8.65980E+1
  -3.81291E+1   2.43515E+2
  -1.64607E+2   9.12191E+1
  -7.72763E+1  -1.85859E+2
  -1.41018E+2   3.69013E+1
   8.76492E+1   6.08966E+1
   1.18445E+2  -4.27860E+1
   6.51640E+0  -5.56787E+0
   9.39838E+1  -1.37676E+2
   7.68311E+1   1.03497E+2
   1.02252E+2   1.34856E+2
   2.36887E+1   6.50476E+1
  -8.05541E+1   2.80494E+2
  -3.37490E+2  -6.24974E+1
   8.71079E+1  -1.94251E+2
   2.41387E+2  -3.18301E+1
   1.57828E+2  -4.96887E+1
   1.59261E+1   9.18078E+1
   9.31176E+1   3.79052E+2
  -5.37944E+0   1.13994E+2
   2.43206E+1   2.37232E+2
  -2.71174E+2   4.40631E+1
   8.46904E+1  -1.42994E+2
   9.69253E+1  -3.22349E+2
   1.56155E+2   1.97160E+2
   2.08501E+2   1.90395E+2
   5.37677E+0   4.69311E+1
   7.46761E+1   1.35968E+2
  -2.10928E+2  -2.08085E+2
   7.27897E+0   1.12348E+2
   4.41096E+1  -1.20732E+2
   8.62978E+1  -2.14061E+1
   4.31341E+2  -6.98981E+1
   2.19025E+2  -7.41251E+1
   1.75080E+2   3.60486E+2
  -1.23274E+2   6.30137E+0
  -6.62030E+1  -3.17061E+1
   1.17371E+2  -1.55058E+2
  -5.56677E+1  -1.65816E+2
   2.37180E+1   6.70246E+1
   3.94976E+1   1.61334E+2
   2.29901E+2   1.30131E+2
   1.55703E+2   4.85970E+1
   6.64097E+1  -1.22109E+1
   2.17868E+2   1.91868E+2
  -2.49417E+2  -2.22262E+2
  -1.56364E+2  -9.14091E+1
   3.56658E+2  -3.43127E+2
   2.51805E+2   4.45156E+1
  -1.60144E+1   1.41990E+2
  -1.46969E+2  -1.26669E+1
  -1.07003E+2   2.38343E+1
   4.84624E+1   1.90553E+2
