 LCModel (Version 6.3-1N) Copyright: S.W. Provencher.          Ref.: Magn. Reson. Med. 30:672-679 (1993).                
 Slice_N1@19_15  28-Feb-2025 11:42:18
 27 lines in following concentration table = NCONC+1
    Conc.  %SD /Cr+PCr  Metabolite                                         
 2.09E-04   7% 1.6E-04 Mac                                                 
    4.327  48%   3.359 Cr                                                  
    5.979  34%   4.641 PCr                                                 
    6.554  18%   5.088 Ins                                                 
   10.754  10%   8.348 NAA                                                 
    6.059  20%   4.704 Tau                                                 
    2.534  18%   1.967 PCho                                                
    0.000 999%   0.000 GPC                                                 
    8.250  16%   6.404 Glu                                                 
    2.549  40%   1.979 Gln                                                 
    0.000 999%   0.000 Ala                                                 
    2.062  80%   1.600 Asc                                                 
    2.355  55%   1.828 Asp                                                 
    0.856  81%   0.665 GABA                                                
    0.531 167%   0.412 Glc                                                 
    1.433  41%   1.112 GSH                                                 
    4.582  21%   3.557 Lac                                                 
    2.102  41%   1.632 NAAG                                                
    1.125 142%   0.873 PE                                                  
    2.534  18%   1.967 GPC+PCho                                            
   12.856   8%   9.980 NAA+NAAG                                            
   10.799  15%   8.383 Glu+Gln                                             
   10.306   9%   8.000 Cr+PCr                                              
   12.856   8%   9.980 NAA+NAAG                                            
   10.306   9%   8.000 Cr+PCr                                              
   10.799  15%   8.383 Glu+Gln                                             
   6 lines in following misc. output table
  FWHM = 0.033 ppm    S/N =   3                                            
  Data shift = 0.016 ppm                                                   
  Ph:-120 deg       0.0 deg/ppm                                            
  alphaB,S = 1.4E-01,   1.3E+01                                            
   19 spline knots.   Ns = 5(1)                                            
  ( 3) 2 infls.   ( 1) 1 extrs.                                            
  480 points on ppm-axis = NY
      4.100000     4.091866     4.083733     4.075600     4.067466     4.059333     4.051199     4.043066     4.034933     4.026799
      4.018666     4.010532     4.002399     3.994265     3.986132     3.977998     3.969864     3.961731     3.953597     3.945463
      3.937330     3.929196     3.921062     3.912929     3.904795     3.896662     3.888528     3.880394     3.872261     3.864127
      3.855993     3.847860     3.839726     3.831592     3.823459     3.815325     3.807191     3.799058     3.790924     3.782790
      3.774657     3.766523     3.758389     3.750256     3.742122     3.733989     3.725855     3.717721     3.709588     3.701454
      3.693320     3.685187     3.677053     3.668919     3.660786     3.652652     3.644518     3.636385     3.628251     3.620117
      3.611984     3.603850     3.595716     3.587583     3.579449     3.571316     3.563182     3.555048     3.546915     3.538781
      3.530647     3.522514     3.514380     3.506246     3.498113     3.489979     3.481845     3.473712     3.465578     3.457444
      3.449311     3.441177     3.433043     3.424910     3.416776     3.408643     3.400509     3.392375     3.384242     3.376108
      3.367974     3.359841     3.351707     3.343573     3.335440     3.327306     3.319172     3.311039     3.302905     3.294771
      3.286638     3.278504     3.270370     3.262237     3.254103     3.245970     3.237836     3.229702     3.221569     3.213435
      3.205301     3.197168     3.189034     3.180900     3.172767     3.164633     3.156499     3.148366     3.140232     3.132098
      3.123965     3.115831     3.107697     3.099564     3.091430     3.083297     3.075163     3.067029     3.058896     3.050762
      3.042628     3.034495     3.026361     3.018227     3.010094     3.001960     2.993826     2.985693     2.977559     2.969425
      2.961292     2.953158     2.945024     2.936891     2.928757     2.920624     2.912490     2.904356     2.896223     2.888089
      2.879955     2.871822     2.863688     2.855554     2.847421     2.839287     2.831153     2.823020     2.814886     2.806752
      2.798619     2.790485     2.782351     2.774218     2.766084     2.757951     2.749817     2.741683     2.733550     2.725416
      2.717282     2.709149     2.701015     2.692881     2.684748     2.676614     2.668480     2.660347     2.652213     2.644079
      2.635946     2.627812     2.619678     2.611545     2.603411     2.595278     2.587144     2.579010     2.570877     2.562743
      2.554609     2.546476     2.538342     2.530208     2.522075     2.513941     2.505807     2.497674     2.489540     2.481406
      2.473273     2.465139     2.457006     2.448872     2.440738     2.432605     2.424471     2.416337     2.408204     2.400070
      2.391936     2.383803     2.375669     2.367535     2.359402     2.351268     2.343134     2.335001     2.326867     2.318733
      2.310600     2.302466     2.294333     2.286199     2.278065     2.269932     2.261798     2.253664     2.245531     2.237397
      2.229263     2.221130     2.212996     2.204862     2.196729     2.188595     2.180461     2.172328     2.164194     2.156060
      2.147927     2.139793     2.131660     2.123526     2.115392     2.107259     2.099125     2.090991     2.082858     2.074724
      2.066590     2.058457     2.050323     2.042189     2.034056     2.025922     2.017788     2.009655     2.001521     1.993387
      1.985254     1.977120     1.968987     1.960853     1.952719     1.944586     1.936452     1.928318     1.920185     1.912051
      1.903917     1.895784     1.887650     1.879516     1.871383     1.863249     1.855115     1.846982     1.838848     1.830714
      1.822581     1.814447     1.806314     1.798180     1.790046     1.781913     1.773779     1.765645     1.757512     1.749378
      1.741244     1.733111     1.724977     1.716843     1.708710     1.700576     1.692442     1.684309     1.676175     1.668041
      1.659908     1.651774     1.643641     1.635507     1.627373     1.619240     1.611106     1.602972     1.594839     1.586705
      1.578571     1.570438     1.562304     1.554170     1.546037     1.537903     1.529769     1.521636     1.513502     1.505368
      1.497235     1.489101     1.480968     1.472834     1.464700     1.456567     1.448433     1.440299     1.432166     1.424032
      1.415898     1.407765     1.399631     1.391497     1.383364     1.375230     1.367096     1.358963     1.350829     1.342695
      1.334562     1.326428     1.318295     1.310161     1.302027     1.293894     1.285760     1.277626     1.269493     1.261359
      1.253225     1.245092     1.236958     1.228824     1.220691     1.212557     1.204423     1.196290     1.188156     1.180022
      1.171889     1.163755     1.155622     1.147488     1.139354     1.131221     1.123087     1.114953     1.106820     1.098686
      1.090552     1.082419     1.074285     1.066151     1.058018     1.049884     1.041750     1.033617     1.025483     1.017349
      1.009216     1.001082     0.992949     0.984815     0.976681     0.968548     0.960414     0.952280     0.944147     0.936013
      0.927879     0.919746     0.911612     0.903478     0.895345     0.887211     0.879077     0.870944     0.862810     0.854676
      0.846543     0.838409     0.830276     0.822142     0.814008     0.805875     0.797741     0.789607     0.781474     0.773340
      0.765206     0.757073     0.748939     0.740805     0.732672     0.724538     0.716404     0.708271     0.700137     0.692003
      0.683870     0.675736     0.667603     0.659469     0.651335     0.643202     0.635068     0.626934     0.618801     0.610667
      0.602533     0.594400     0.586266     0.578132     0.569999     0.561865     0.553731     0.545598     0.537464     0.529330
      0.521197     0.513063     0.504930     0.496796     0.488662     0.480529     0.472395     0.464261     0.456128     0.447994
      0.439861     0.431727     0.423593     0.415460     0.407326     0.399192     0.391059     0.382925     0.374792     0.366658
      0.358524     0.350391     0.342257     0.334124     0.325990     0.317856     0.309723     0.301589     0.293455     0.285322
      0.277188     0.269055     0.260921     0.252787     0.244654     0.236520     0.228386     0.220253     0.212119     0.203986
 NY phased data points follow
   2.08456E+01  2.21728E+01  2.28620E+01  2.50165E+01  2.00067E+01  2.19495E+01  2.32958E+01  1.06545E+01  2.13898E+01  2.00690E+01
   1.91230E+01  1.25815E+01 -1.19782E+00  6.14466E+00 -5.38638E+00 -3.55083E+00 -7.81205E+00 -1.54159E+01 -1.84499E+01 -4.04591E+01
  -4.70369E+01 -3.99425E+01 -1.65377E+01 -6.76490E+00  1.23629E+01  3.81556E+01  5.10640E+01  5.90113E+01  4.84106E+01  5.93496E+01
   5.87728E+01  5.56010E+01  6.04455E+01  4.77713E+01  4.53710E+01  4.61123E+01  4.31705E+01  3.83833E+01  3.44919E+01  2.29732E+01
   1.75590E+01 -1.99324E+00 -1.92028E+01  4.40007E+00  1.16307E+01  2.63360E+01  4.72772E+01  5.22262E+01  7.74733E+01  7.34226E+01
   5.47225E+01  6.49209E+01  6.53932E+01  6.29306E+01  6.37723E+01  5.33473E+01  3.88001E+01  2.63998E+01  1.76893E+01  2.10248E+01
   3.45821E+01  4.17028E+01  3.91016E+01  4.02900E+01  6.61666E+01  7.00181E+01  6.24817E+01  6.43885E+01  3.84639E+01  2.72701E+01
   1.36422E+01  1.39351E+01  2.81415E+01  2.59870E+01  4.29190E+01  5.07799E+01  6.36124E+01  7.42761E+01  7.00905E+01  6.63623E+01
   7.12893E+01  7.26518E+01  6.18809E+01  6.22907E+01  4.57729E+01  3.55728E+01  3.12343E+01  4.38977E+01  6.41642E+01  6.45079E+01
   7.73775E+01  8.01089E+01  1.00747E+02  1.06777E+02  9.64975E+01  1.01794E+02  9.69875E+01  1.12688E+02  1.12709E+02  9.76430E+01
   1.05327E+02  1.00509E+02  7.61336E+01  7.50548E+01  7.21460E+01  4.93041E+01  4.90915E+01  3.99277E+01  6.19558E+00 -1.53381E+01
  -4.85189E+01 -8.86823E+01 -8.07061E+01 -6.95509E+01 -6.16407E+01 -3.81112E+01 -2.04266E+01 -7.66720E+00 -2.65160E+00  1.86685E+01
   2.31028E+01  2.12578E+01  3.81486E+01  4.44423E+01  4.54992E+01  5.34983E+01  6.64714E+01  7.86405E+01  1.01082E+02  1.10783E+02
   1.39811E+02  1.64592E+02  1.13274E+02  4.27243E+01 -4.86470E+00 -4.28847E+01 -5.80437E+01 -4.58544E+01 -5.36742E+01 -5.41790E+01
  -3.91412E+01 -3.52877E+01 -2.94174E+01 -3.27388E+01 -3.14482E+01 -3.15890E+01 -3.73245E+01 -3.71908E+01 -2.19213E+01 -1.67910E+01
  -2.83878E+01 -1.81962E+01 -2.01117E+01 -1.99934E+01 -6.12605E+00 -1.85690E+01 -1.14911E+01 -3.60527E+00 -1.46602E+01 -4.77361E+00
  -2.56003E+00  1.96081E+00  5.51717E+00  7.98246E+00  3.34017E+00 -1.34463E+01 -2.05184E+00  2.33077E+00  4.67329E+00  1.57878E+01
   2.50755E+01  3.29760E+01  3.58979E+01  4.07281E+01  4.14721E+01  2.76561E+01  2.12767E+01  3.87891E+01  3.54872E+01  2.86527E+01
   1.01060E+01  1.64946E+00 -4.70030E+00 -2.95228E+01 -2.96662E+01 -3.71152E+01 -1.57963E+01 -2.25928E+01 -2.52791E+01 -2.77903E-01
  -2.05128E+01 -4.28301E+00  3.21110E+00 -5.06868E+00  1.09485E+00  5.06479E+00  1.17532E+01  1.46001E+01  1.15900E+01  6.59307E+00
   1.66286E+01  1.64971E+01  2.00670E+01  2.65426E+01  2.74016E+01  2.41310E+01  2.18173E+01  1.45481E+01 -8.13410E+00 -2.04466E+01
  -4.45948E+01 -4.61294E+01 -2.62342E+01 -2.26992E+01 -2.36243E+00  5.90626E+00  1.76456E+01  4.65848E+01  3.26377E+01  2.97694E+01
   3.90760E+01  1.44888E+01  4.83641E+00  5.27436E+00  9.39050E+00  1.51769E+01  1.93378E+01  1.96661E+01  1.02213E+01  1.43763E+01
   2.70951E+01  1.83135E+01  2.12772E+00  8.21167E+00  1.14958E+01  3.91785E+00 -1.70106E+01 -2.65819E+01 -2.27886E+01 -1.75253E+01
  -2.25687E+01 -2.70977E+01 -1.51586E+00 -1.07879E+01 -1.22624E+01 -9.12874E+00 -8.04504E+00  1.49536E+00 -1.39015E+01 -1.31650E+01
  -2.82052E+01 -2.72792E+01 -3.44652E+01 -4.05453E+01 -4.12332E+01 -6.68183E+01 -6.12866E+01 -4.16603E+01  5.33846E+01  1.47362E+02
   1.49617E+02  1.38272E+02  1.48769E+02  1.45558E+02  1.37785E+02  1.33673E+02  9.23794E+01  9.44236E+01  9.70312E+01  8.51953E+01
   1.00844E+02  9.90742E+01  9.78049E+01  9.24225E+01  9.72298E+01  9.04193E+01  9.35874E+01  1.00409E+02  8.45323E+01  8.96622E+01
   8.01144E+01  8.75564E+01  1.00398E+02  8.90116E+01  8.99841E+01  7.20289E+01  6.38646E+01  6.39738E+01  6.03748E+01  6.99017E+01
   6.69410E+01  6.42621E+01  5.17349E+01  4.87971E+01  3.76844E+01  2.56264E+01  2.58633E+01  1.19489E+01  2.22160E+01 -3.10144E+00
   1.32729E+00  1.79859E+01 -9.49823E-01  2.67535E+01  1.73843E+01  1.89525E+01  3.59242E+01  2.82179E+01  2.96479E+01  3.49413E+01
   5.30319E+01  5.77933E+01  6.73427E+01  6.59602E+01  6.38576E+01  7.82618E+01  7.05947E+01  4.60394E+01  2.88808E+01  2.00536E+01
   1.90986E+01  1.30863E+01  7.98751E+00  2.49209E+01  2.79589E+01  5.41751E+01  8.14689E+01  9.11165E+01  1.15148E+02  1.19147E+02
   1.26019E+02  1.29129E+02  1.22651E+02  1.08919E+02  1.08576E+02  1.11987E+02  9.58743E+01  9.98720E+01  1.09738E+02  1.02629E+02
   9.49693E+01  9.59827E+01  7.68689E+01  6.29693E+01  5.77497E+01  6.40662E+01  7.35709E+01  5.30883E+01  5.88167E+01  6.65511E+01
   6.54246E+01  6.40917E+01  6.00625E+01  5.51943E+01  4.07853E+01  3.93056E+01  2.64624E+01  3.04516E+01  2.68257E+01  6.90577E+00
   2.20721E+01  2.73866E+01  2.80298E+01  3.39310E+01  3.56118E+01  3.65351E+01  3.33040E+01  3.35285E+01  3.91528E+01  5.84887E+01
   7.02359E+01  6.47886E+01  6.67995E+01  7.45579E+01  7.55368E+01  8.49838E+01  9.50451E+01  9.51723E+01  9.65996E+01  9.01423E+01
   9.93724E+01  1.12162E+02  1.21188E+02  1.21286E+02  1.10825E+02  1.32372E+02  1.33616E+02  1.37969E+02  1.50657E+02  1.37246E+02
   1.37039E+02  1.32824E+02  1.31910E+02  1.04831E+02  8.27599E+01  9.82292E+01  8.46718E+01  6.49397E+01  6.23924E+01  5.30511E+01
   3.65193E+01  3.66342E+01  3.31665E+01  7.35785E+00  1.59982E-01  1.30871E+01  7.92778E+00 -6.65763E+00 -6.91756E+00  1.77994E+00
   5.90785E+00 -1.12289E+00 -1.48342E+01 -1.20644E+01  7.52907E-01 -5.89763E+00 -5.90862E-01  3.36182E+00 -6.41317E+00 -1.08845E+01
   5.47435E+00  1.62593E+01 -9.12685E+00 -1.18775E+00  6.20260E+00  1.05719E+01  6.85175E+00 -8.04994E+00  7.26413E+00 -7.16110E+00
  -1.21865E+01 -4.38002E+00 -4.97787E+00 -1.08800E+01 -1.06704E+01 -6.15032E+00 -9.30620E+00  4.57755E+00  1.34267E+00 -2.50123E+00
  -1.48044E+01 -1.41956E+01  4.73381E+00  1.80171E-01 -1.11521E+01 -5.41154E+00  1.16106E+01  6.24387E+00  1.04240E+01 -2.60589E+00
  -8.69074E+00  4.59199E+00 -7.12501E+00 -4.49622E+00  3.26070E+00  5.63143E+00  1.65459E+00  5.39343E+00  1.11797E+01  4.26902E+00
  -6.13323E+00  2.70176E+00  7.11110E+00 -9.87704E+00  1.30153E+00  2.05374E+00 -7.84334E+00 -7.51511E+00 -2.99037E+00  4.78903E+00
  -2.64644E+00 -3.75190E-01  7.41858E+00 -5.79967E+00 -8.21302E+00  1.31765E+01  5.68381E+00  3.83814E+00  1.01175E+01  1.71827E+00
 NY points of the fit to the data follow
   7.83815E+00  7.99190E+00  6.65423E+00  4.61666E+00  4.39751E+00  8.55200E+00  1.65625E+01  2.33790E+01  2.45754E+01  2.10400E+01
   1.60990E+01  1.16732E+01  7.98196E+00  5.17404E+00  2.91802E+00  6.74043E-01 -2.45528E+00 -7.29166E+00 -1.54110E+01 -2.77377E+01
  -3.79473E+01 -3.79532E+01 -2.47049E+01 -2.42462E+00  2.12726E+01  4.28906E+01  5.82149E+01  6.43643E+01  6.61225E+01  6.76143E+01
   6.72081E+01  6.57457E+01  6.36598E+01  6.11716E+01  5.83406E+01  5.53727E+01  5.20366E+01  4.72647E+01  3.95668E+01  2.78132E+01
   1.42165E+01  4.01344E+00  1.79231E+00  7.64805E+00  1.78203E+01  2.96466E+01  4.19176E+01  5.26114E+01  5.99425E+01  6.43034E+01
   6.61638E+01  6.60025E+01  6.34085E+01  5.80553E+01  4.95691E+01  3.90282E+01  3.02649E+01  2.49999E+01  2.20074E+01  2.12308E+01
   2.32887E+01  2.85274E+01  3.50010E+01  4.18074E+01  5.13182E+01  6.05434E+01  6.39268E+01  6.08428E+01  5.10441E+01  3.72136E+01
   2.69338E+01  2.46786E+01  2.82702E+01  3.37164E+01  4.16245E+01  5.25161E+01  6.22739E+01  6.85416E+01  7.28561E+01  7.46884E+01
   7.27451E+01  6.61910E+01  5.52036E+01  4.27661E+01  3.23297E+01  2.77572E+01  3.02966E+01  3.80273E+01  4.77349E+01  5.70622E+01
   6.42672E+01  7.02262E+01  7.52478E+01  7.95266E+01  8.34741E+01  8.70769E+01  9.05680E+01  9.39014E+01  9.62882E+01  9.77425E+01
   9.90579E+01  9.84433E+01  9.37619E+01  8.41305E+01  7.27006E+01  6.28233E+01  5.51929E+01  4.87277E+01  3.14616E+01 -6.53043E+00
  -5.38546E+01 -8.24633E+01 -8.06831E+01 -6.29104E+01 -4.60104E+01 -3.07814E+01 -1.71433E+01 -6.37041E+00  2.57481E+00  1.04574E+01
   1.78384E+01  2.51808E+01  3.28534E+01  4.12108E+01  5.04466E+01  6.05094E+01  7.11632E+01  8.39203E+01  9.95707E+01  1.19686E+02
   1.41784E+02  1.46836E+02  1.14174E+02  4.84164E+01 -1.53573E+01 -4.70721E+01 -5.32874E+01 -5.33012E+01 -5.02803E+01 -4.50458E+01
  -4.09314E+01 -3.81323E+01 -3.64422E+01 -3.53269E+01 -3.41919E+01 -3.28089E+01 -3.10402E+01 -2.88031E+01 -2.62474E+01 -2.38148E+01
  -2.17414E+01 -1.98307E+01 -1.79117E+01 -1.57749E+01 -1.33424E+01 -1.08206E+01 -8.73877E+00 -7.52194E+00 -6.95887E+00 -6.18198E+00
  -4.48646E+00 -2.45396E+00 -1.41897E+00 -1.96694E+00 -3.10040E+00 -3.41070E+00 -2.91248E+00 -2.48381E+00 -1.95310E+00  3.51791E-01
   6.26138E+00  1.53758E+01  2.37426E+01  2.69619E+01  2.53162E+01  2.41229E+01  2.72102E+01  3.10897E+01  2.96348E+01  2.18072E+01
   1.15759E+01  3.03106E+00 -2.98580E+00 -7.27804E+00 -9.97497E+00 -1.11929E+01 -1.17624E+01 -1.18192E+01 -1.15535E+01 -1.09347E+01
  -9.50785E+00 -7.65447E+00 -5.01235E+00 -6.99702E-02  6.58737E+00  1.26661E+01  1.59695E+01  1.81383E+01  2.18032E+01  2.42225E+01
   2.34666E+01  2.21674E+01  2.20474E+01  2.21602E+01  2.02440E+01  1.57246E+01  1.06415E+01  5.55638E+00  1.93704E-02 -5.20667E+00
  -9.89079E+00 -1.35747E+01 -1.44053E+01 -1.10477E+01 -2.12343E+00  1.13626E+01  2.63462E+01  3.97292E+01  4.75896E+01  4.95187E+01
   4.73373E+01  4.27985E+01  3.90471E+01  3.77061E+01  3.65810E+01  3.48577E+01  3.15823E+01  2.64431E+01  1.96472E+01  1.16025E+01
   2.89932E+00 -5.94488E+00 -1.42933E+01 -2.17103E+01 -2.77370E+01 -3.19307E+01 -3.42600E+01 -3.46498E+01 -3.33364E+01 -3.09662E+01
  -2.77822E+01 -2.45384E+01 -2.09907E+01 -1.66680E+01 -1.28777E+01 -1.01307E+01 -8.62783E+00 -9.38889E+00 -1.24835E+01 -1.72990E+01
  -2.36582E+01 -3.07542E+01 -3.93168E+01 -4.58326E+01 -5.43998E+01 -6.79861E+01 -6.82322E+01 -3.19163E+01  3.75193E+01  9.92317E+01
   1.24678E+02  1.27432E+02  1.25981E+02  1.19888E+02  1.12999E+02  1.06947E+02  1.01509E+02  9.64942E+01  9.19865E+01  8.82639E+01
   8.54680E+01  8.37079E+01  8.28157E+01  8.25814E+01  8.27584E+01  8.30080E+01  8.31993E+01  8.32783E+01  8.29887E+01  8.22936E+01
   8.12300E+01  7.98824E+01  7.84274E+01  7.68642E+01  7.52035E+01  7.34449E+01  7.16353E+01  6.97154E+01  6.75480E+01  6.51127E+01
   6.24785E+01  5.97459E+01  5.70825E+01  5.47321E+01  5.30946E+01  5.24579E+01  5.27850E+01  5.38338E+01  5.53351E+01  5.71097E+01
   5.90897E+01  6.12238E+01  6.33818E+01  6.54606E+01  6.74323E+01  6.93299E+01  7.12479E+01  7.32833E+01  7.53972E+01  7.74346E+01
   7.92642E+01  8.09182E+01  8.24722E+01  8.38840E+01  8.50435E+01  8.58421E+01  8.62146E+01  8.61266E+01  8.55591E+01  8.46074E+01
   8.33647E+01  8.17843E+01  7.98003E+01  7.75054E+01  7.47923E+01  7.13065E+01  6.68037E+01  6.14675E+01  5.58434E+01  5.05908E+01
   4.61865E+01  4.30586E+01  4.16273E+01  4.21915E+01  4.47413E+01  4.89295E+01  5.44686E+01  6.08590E+01  6.76139E+01  7.38785E+01
   7.59431E+01  7.06528E+01  5.78695E+01  4.14694E+01  2.78768E+01  2.06926E+01  2.10691E+01  2.66373E+01  3.23950E+01  3.61754E+01
   3.88126E+01  3.96394E+01  3.91129E+01  3.77222E+01  3.60947E+01  3.48458E+01  3.43383E+01  3.46412E+01  3.57081E+01  3.74541E+01
   3.97234E+01  4.23330E+01  4.51203E+01  4.79084E+01  5.05956E+01  5.31488E+01  5.55538E+01  5.78664E+01  6.01383E+01  6.23889E+01
   6.46316E+01  6.68981E+01  6.92511E+01  7.17848E+01  7.46032E+01  7.77677E+01  8.12822E+01  8.51547E+01  8.94352E+01  9.40634E+01
   9.89319E+01  1.04078E+02  1.09437E+02  1.14565E+02  1.18800E+02  1.21476E+02  1.21858E+02  1.19433E+02  1.14305E+02  1.07359E+02
   9.97783E+01  9.25132E+01  8.59602E+01  8.01009E+01  7.46282E+01  6.90073E+01  6.28433E+01  5.61578E+01  4.93097E+01  4.26959E+01
   3.67237E+01  3.17155E+01  2.76871E+01  2.44546E+01  2.19586E+01  2.00956E+01  1.86247E+01  1.73290E+01  1.61232E+01  1.50231E+01
   1.40853E+01  1.33386E+01  1.27429E+01  1.22215E+01  1.17580E+01  1.13716E+01  1.09611E+01  1.04658E+01  9.99237E+00  9.68231E+00
   9.45954E+00  9.14319E+00  8.74019E+00  8.39304E+00  8.09184E+00  7.73266E+00  7.36380E+00  7.08794E+00  6.92550E+00  6.76165E+00
   6.47528E+00  6.08002E+00  5.65384E+00  5.26871E+00  4.95855E+00  4.74014E+00  4.56692E+00  4.40473E+00  4.25071E+00  4.08018E+00
   3.87582E+00  3.64036E+00  3.34579E+00  2.94177E+00  2.50795E+00  2.16515E+00  1.94490E+00  1.77150E+00  1.58200E+00  1.34721E+00
   1.06575E+00  7.75011E-01  5.54413E-01  4.36332E-01  3.32058E-01  1.88259E-01  3.69409E-02 -1.24369E-01 -2.95880E-01 -4.80055E-01
  -7.05640E-01 -1.00985E+00 -1.33468E+00 -1.63518E+00 -1.85467E+00 -1.96192E+00 -1.94753E+00 -1.87698E+00 -1.87750E+00 -2.05764E+00
  -2.39422E+00 -2.75570E+00 -3.03293E+00 -3.21533E+00 -3.36894E+00 -3.52177E+00 -3.67376E+00 -3.83272E+00 -4.01031E+00 -4.14253E+00
 NY background values follow
     3.054E+01    3.058E+01    3.062E+01    3.066E+01    3.070E+01    3.074E+01    3.078E+01    3.082E+01    3.086E+01    3.090E+01
     3.095E+01    3.099E+01    3.103E+01    3.108E+01    3.113E+01    3.117E+01    3.122E+01    3.127E+01    3.133E+01    3.138E+01
     3.143E+01    3.149E+01    3.155E+01    3.161E+01    3.167E+01    3.174E+01    3.180E+01    3.187E+01    3.194E+01    3.201E+01
     3.209E+01    3.216E+01    3.224E+01    3.233E+01    3.241E+01    3.249E+01    3.258E+01    3.267E+01    3.276E+01    3.285E+01
     3.294E+01    3.304E+01    3.313E+01    3.322E+01    3.332E+01    3.341E+01    3.351E+01    3.360E+01    3.370E+01    3.379E+01
     3.389E+01    3.398E+01    3.407E+01    3.417E+01    3.426E+01    3.435E+01    3.443E+01    3.452E+01    3.461E+01    3.469E+01
     3.477E+01    3.485E+01    3.492E+01    3.500E+01    3.507E+01    3.514E+01    3.521E+01    3.527E+01    3.533E+01    3.539E+01
     3.544E+01    3.550E+01    3.555E+01    3.559E+01    3.564E+01    3.568E+01    3.571E+01    3.574E+01    3.577E+01    3.580E+01
     3.582E+01    3.584E+01    3.585E+01    3.586E+01    3.587E+01    3.587E+01    3.587E+01    3.586E+01    3.585E+01    3.583E+01
     3.581E+01    3.578E+01    3.575E+01    3.572E+01    3.568E+01    3.564E+01    3.559E+01    3.554E+01    3.549E+01    3.543E+01
     3.536E+01    3.530E+01    3.523E+01    3.516E+01    3.508E+01    3.500E+01    3.492E+01    3.484E+01    3.475E+01    3.466E+01
     3.457E+01    3.448E+01    3.438E+01    3.428E+01    3.418E+01    3.408E+01    3.398E+01    3.387E+01    3.377E+01    3.366E+01
     3.355E+01    3.344E+01    3.333E+01    3.321E+01    3.310E+01    3.298E+01    3.287E+01    3.275E+01    3.263E+01    3.251E+01
     3.239E+01    3.227E+01    3.215E+01    3.203E+01    3.190E+01    3.178E+01    3.165E+01    3.152E+01    3.139E+01    3.126E+01
     3.113E+01    3.100E+01    3.087E+01    3.073E+01    3.060E+01    3.047E+01    3.033E+01    3.019E+01    3.005E+01    2.991E+01
     2.977E+01    2.963E+01    2.949E+01    2.935E+01    2.921E+01    2.906E+01    2.892E+01    2.878E+01    2.863E+01    2.849E+01
     2.835E+01    2.820E+01    2.806E+01    2.791E+01    2.777E+01    2.763E+01    2.749E+01    2.735E+01    2.721E+01    2.707E+01
     2.693E+01    2.679E+01    2.665E+01    2.652E+01    2.639E+01    2.625E+01    2.612E+01    2.599E+01    2.587E+01    2.574E+01
     2.562E+01    2.550E+01    2.538E+01    2.526E+01    2.514E+01    2.503E+01    2.492E+01    2.482E+01    2.471E+01    2.461E+01
     2.451E+01    2.442E+01    2.433E+01    2.424E+01    2.416E+01    2.408E+01    2.400E+01    2.393E+01    2.386E+01    2.380E+01
     2.374E+01    2.368E+01    2.363E+01    2.359E+01    2.355E+01    2.351E+01    2.348E+01    2.345E+01    2.343E+01    2.342E+01
     2.341E+01    2.341E+01    2.341E+01    2.342E+01    2.343E+01    2.344E+01    2.346E+01    2.349E+01    2.352E+01    2.355E+01
     2.359E+01    2.362E+01    2.367E+01    2.371E+01    2.376E+01    2.381E+01    2.386E+01    2.391E+01    2.396E+01    2.402E+01
     2.407E+01    2.413E+01    2.418E+01    2.424E+01    2.430E+01    2.435E+01    2.441E+01    2.446E+01    2.451E+01    2.457E+01
     2.462E+01    2.466E+01    2.471E+01    2.476E+01    2.480E+01    2.484E+01    2.488E+01    2.492E+01    2.495E+01    2.499E+01
     2.502E+01    2.505E+01    2.508E+01    2.511E+01    2.513E+01    2.516E+01    2.518E+01    2.520E+01    2.521E+01    2.523E+01
     2.524E+01    2.525E+01    2.526E+01    2.527E+01    2.528E+01    2.528E+01    2.528E+01    2.528E+01    2.528E+01    2.528E+01
     2.527E+01    2.526E+01    2.526E+01    2.525E+01    2.524E+01    2.523E+01    2.522E+01    2.522E+01    2.521E+01    2.521E+01
     2.522E+01    2.522E+01    2.523E+01    2.525E+01    2.527E+01    2.530E+01    2.534E+01    2.538E+01    2.543E+01    2.549E+01
     2.556E+01    2.564E+01    2.573E+01    2.583E+01    2.594E+01    2.607E+01    2.620E+01    2.635E+01    2.651E+01    2.669E+01
     2.688E+01    2.709E+01    2.731E+01    2.754E+01    2.779E+01    2.805E+01    2.831E+01    2.859E+01    2.888E+01    2.918E+01
     2.948E+01    2.979E+01    3.011E+01    3.043E+01    3.076E+01    3.109E+01    3.143E+01    3.176E+01    3.210E+01    3.244E+01
     3.278E+01    3.312E+01    3.346E+01    3.380E+01    3.413E+01    3.446E+01    3.479E+01    3.511E+01    3.542E+01    3.573E+01
     3.603E+01    3.632E+01    3.661E+01    3.689E+01    3.715E+01    3.741E+01    3.766E+01    3.791E+01    3.814E+01    3.836E+01
     3.858E+01    3.878E+01    3.897E+01    3.916E+01    3.933E+01    3.949E+01    3.964E+01    3.978E+01    3.991E+01    4.002E+01
     4.013E+01    4.022E+01    4.030E+01    4.037E+01    4.042E+01    4.046E+01    4.049E+01    4.050E+01    4.051E+01    4.049E+01
     4.047E+01    4.042E+01    4.037E+01    4.030E+01    4.022E+01    4.012E+01    4.001E+01    3.989E+01    3.975E+01    3.961E+01
     3.945E+01    3.927E+01    3.909E+01    3.889E+01    3.868E+01    3.845E+01    3.822E+01    3.797E+01    3.772E+01    3.745E+01
     3.717E+01    3.687E+01    3.657E+01    3.626E+01    3.593E+01    3.560E+01    3.525E+01    3.490E+01    3.453E+01    3.416E+01
     3.377E+01    3.338E+01    3.297E+01    3.256E+01    3.214E+01    3.171E+01    3.128E+01    3.083E+01    3.039E+01    2.993E+01
     2.947E+01    2.900E+01    2.853E+01    2.806E+01    2.758E+01    2.709E+01    2.661E+01    2.612E+01    2.563E+01    2.513E+01
     2.464E+01    2.414E+01    2.365E+01    2.315E+01    2.265E+01    2.216E+01    2.166E+01    2.117E+01    2.067E+01    2.018E+01
     1.970E+01    1.921E+01    1.873E+01    1.825E+01    1.777E+01    1.730E+01    1.683E+01    1.636E+01    1.590E+01    1.543E+01
     1.497E+01    1.452E+01    1.406E+01    1.361E+01    1.316E+01    1.272E+01    1.227E+01    1.183E+01    1.140E+01    1.096E+01
     1.053E+01    1.010E+01    9.673E+00    9.250E+00    8.829E+00    8.412E+00    7.997E+00    7.585E+00    7.176E+00    6.770E+00
     6.367E+00    5.966E+00    5.568E+00    5.173E+00    4.781E+00    4.390E+00    4.002E+00    3.616E+00    3.232E+00    2.850E+00
     2.469E+00    2.090E+00    1.713E+00    1.337E+00    9.629E-01    5.896E-01    2.173E-01   -1.539E-01   -5.243E-01   -8.940E-01
    -1.263E+00   -1.632E+00   -2.000E+00   -2.368E+00   -2.735E+00   -3.103E+00   -3.471E+00   -3.839E+00   -4.207E+00   -4.576E+00
 Mac      Conc. = 2.09E-04
   1.56056E+01  1.53552E+01  1.51655E+01  1.48989E+01  1.44104E+01  1.36119E+01  1.25611E+01  1.14203E+01  1.03906E+01  9.63477E+00
   9.18528E+00  8.95589E+00  8.70950E+00  8.24164E+00  7.45342E+00  6.66919E+00  6.70384E+00  8.13918E+00  1.06883E+01  1.35741E+01
   1.62843E+01  1.87545E+01  2.07904E+01  2.21767E+01  2.32179E+01  2.43016E+01  2.55475E+01  2.69173E+01  2.83320E+01  2.96412E+01
   3.07353E+01  3.15794E+01  3.21431E+01  3.23842E+01  3.24376E+01  3.26732E+01  3.34588E+01  3.47969E+01  3.62191E+01  3.72045E+01
   3.76488E+01  3.79175E+01  3.84303E+01  3.92385E+01  4.01016E+01  4.07187E+01  4.09066E+01  4.06811E+01  4.01356E+01  3.93782E+01
   3.85644E+01  3.78703E+01  3.73663E+01  3.70238E+01  3.68269E+01  3.69077E+01  3.73862E+01  3.82099E+01  3.91937E+01  4.01879E+01
   4.11375E+01  4.19103E+01  4.22425E+01  4.20850E+01  4.16731E+01  4.11963E+01  4.07912E+01  4.05080E+01  4.04246E+01  4.07923E+01
   4.18459E+01  4.33732E+01  4.48685E+01  4.59585E+01  4.66177E+01  4.68718E+01  4.67482E+01  4.63733E+01  4.59275E+01  4.55241E+01
   4.51783E+01  4.49525E+01  4.49453E+01  4.52188E+01  4.56999E+01  4.62476E+01  4.68123E+01  4.73380E+01  4.77685E+01  4.81099E+01
   4.83890E+01  4.85543E+01  4.85518E+01  4.82352E+01  4.75070E+01  4.62997E+01  4.47199E+01  4.29659E+01  4.12422E+01  3.96550E+01
   3.81372E+01  3.64122E+01  3.42456E+01  3.15172E+01  2.80765E+01  2.38872E+01  1.94598E+01  1.56808E+01  1.32790E+01  1.24318E+01
