 
 $NMID
 ID=''
 FMTDAT='(2E13.5)'
 TRAMP=   1.00000E+0
 VOLUME=   1.00000E+0
 $END
   6.26709E+5   5.74330E+5
   9.71815E+5   2.00450E+6
   1.12877E+6   1.84849E+6
   9.96221E+5   1.79987E+6
   1.06317E+6   1.86889E+6
   1.15689E+6   1.76400E+6
   1.12494E+6   1.71984E+6
   1.15453E+6   1.75892E+6
   1.17799E+6   1.70704E+6
   1.12839E+6   1.69610E+6
   1.13847E+6   1.71380E+6
   1.14494E+6   1.66738E+6
   1.11287E+6   1.66100E+6
   1.11301E+6   1.67865E+6
   1.09633E+6   1.64708E+6
   1.06549E+6   1.63927E+6
   1.07692E+6   1.64649E+6
   1.07822E+6   1.61490E+6
   1.06688E+6   1.59511E+6
   1.09219E+6   1.58109E+6
   1.09455E+6   1.55042E+6
   1.08102E+6   1.53659E+6
   1.09131E+6   1.52607E+6
   1.09013E+6   1.50189E+6
   1.07212E+6   1.49177E+6
   1.07624E+6   1.47660E+6
   1.06614E+6   1.46263E+6
   1.04322E+6   1.46252E+6
   1.03161E+6   1.45323E+6
   1.02552E+6   1.43141E+6
   1.01774E+6   1.42426E+6
   1.01735E+6   1.40893E+6
   1.01232E+6   1.38472E+6
   1.01141E+6   1.36866E+6
   1.01555E+6   1.34792E+6
   1.01913E+6   1.32111E+6
   1.02340E+6   1.30231E+6
   1.02557E+6   1.28489E+6
   1.01712E+6   1.26425E+6
   1.01116E+6   1.24920E+6
   1.00533E+6   1.23362E+6
   9.95052E+5   1.21797E+6
   9.85388E+5   1.20314E+6
   9.78048E+5   1.18909E+6
   9.66877E+5   1.17547E+6
   9.57394E+5   1.16499E+6
   9.48939E+5   1.15160E+6
   9.39333E+5   1.13490E+6
   9.32568E+5   1.11611E+6
   9.28734E+5   1.09886E+6
   9.23416E+5   1.08110E+6
   9.18309E+5   1.06378E+6
   9.14111E+5   1.04695E+6
   9.07736E+5   1.03124E+6
   8.99262E+5   1.01537E+6
   8.91329E+5   1.00033E+6
   8.80848E+5   9.86824E+5
   8.69608E+5   9.72311E+5
   8.60521E+5   9.56038E+5
   8.52857E+5   9.42773E+5
   8.43348E+5   9.30290E+5
   8.33089E+5   9.16266E+5
   8.25095E+5   9.01767E+5
   8.15936E+5   8.87519E+5
   8.06618E+5   8.72490E+5
   7.97858E+5   8.56322E+5
   7.90465E+5   8.40939E+5
   7.81959E+5   8.26097E+5
   7.73274E+5   8.12668E+5
   7.64147E+5   8.00192E+5
   7.54058E+5   7.87463E+5
   7.44365E+5   7.73990E+5
   7.35055E+5   7.60962E+5
   7.25513E+5   7.49164E+5
   7.15654E+5   7.36840E+5
   7.05703E+5   7.23827E+5
   6.96297E+5   7.10840E+5
   6.88192E+5   6.98097E+5
   6.79129E+5   6.85852E+5
   6.69545E+5   6.73394E+5
   6.60067E+5   6.60738E+5
   6.51627E+5   6.48020E+5
   6.42511E+5   6.36752E+5
   6.32423E+5   6.25888E+5
   6.22041E+5   6.14908E+5
   6.12430E+5   6.04707E+5
   6.02548E+5   5.94236E+5
   5.93196E+5   5.84119E+5
   5.83637E+5   5.74135E+5
   5.74106E+5   5.63739E+5
   5.65142E+5   5.52632E+5
   5.57007E+5   5.41482E+5
   5.49166E+5   5.30983E+5
   5.40709E+5   5.20168E+5
   5.32510E+5   5.08098E+5
   5.25435E+5   4.96392E+5
   5.18285E+5   4.85737E+5
   5.10708E+5   4.75347E+5
   5.02365E+5   4.65004E+5
   4.94908E+5   4.54444E+5
   4.87686E+5   4.44286E+5
   4.79514E+5   4.35409E+5
   4.70499E+5   4.25842E+5
   4.62311E+5   4.15706E+5
   4.54850E+5   4.05889E+5
   4.47740E+5   3.96586E+5
   4.40316E+5   3.87366E+5
   4.32496E+5   3.78576E+5
   4.24663E+5   3.69176E+5
   4.17463E+5   3.58937E+5
   4.11065E+5   3.49172E+5
   4.04238E+5   3.41088E+5
   3.96759E+5   3.33076E+5
   3.88909E+5   3.24717E+5
   3.81761E+5   3.16410E+5
   3.74792E+5   3.08619E+5
   3.66719E+5   3.00880E+5
   3.59316E+5   2.92668E+5
   3.52366E+5   2.84142E+5
   3.45943E+5   2.76453E+5
   3.39088E+5   2.68830E+5
   3.32313E+5   2.61530E+5
   3.25923E+5   2.54333E+5
   3.18786E+5   2.47255E+5
   3.11637E+5   2.40342E+5
   3.04921E+5   2.32991E+5
   2.98108E+5   2.26402E+5
   2.91583E+5   2.19882E+5
   2.84655E+5   2.13720E+5
   2.78147E+5   2.07605E+5
   2.71442E+5   2.02449E+5
   2.64477E+5   1.96891E+5
   2.57620E+5   1.90854E+5
   2.51253E+5   1.84957E+5
   2.44979E+5   1.79587E+5
   2.38643E+5   1.74183E+5
   2.32604E+5   1.68781E+5
   2.26898E+5   1.63411E+5
   2.21142E+5   1.58547E+5
   2.14992E+5   1.53448E+5
   2.09010E+5   1.48168E+5
   2.03105E+5   1.43004E+5
   1.97672E+5   1.37781E+5
   1.92140E+5   1.33023E+5
   1.86870E+5   1.28849E+5
   1.81181E+5   1.24266E+5
   1.75614E+5   1.19745E+5
   1.70339E+5   1.15116E+5
   1.65116E+5   1.11087E+5
   1.59942E+5   1.06850E+5
   1.55077E+5   1.02491E+5
   1.49828E+5   9.82573E+4
   1.45229E+5   9.41307E+4
   1.40447E+5   9.04886E+4
   1.35775E+5   8.62348E+4
   1.30982E+5   8.23164E+4
   1.26573E+5   7.83293E+4
   1.22118E+5   7.45910E+4
   1.17470E+5   7.10019E+4
   1.13154E+5   6.73106E+4
   1.09093E+5   6.36272E+4
   1.04772E+5   6.02931E+4
   1.00657E+5   5.67788E+4
   9.64010E+4   5.34015E+4
   9.22962E+4   5.00819E+4
   8.84909E+4   4.69645E+4
   8.47322E+4   4.40711E+4
   8.06916E+4   4.12113E+4
   7.66170E+4   3.79754E+4
   7.29630E+4   3.51969E+4
   6.93940E+4   3.23114E+4
   6.58896E+4   2.94875E+4
   6.19611E+4   2.71011E+4
   5.84899E+4   2.44790E+4
   5.46971E+4   2.17347E+4
   5.17430E+4   1.96215E+4
   4.81946E+4   1.73908E+4
   4.49846E+4   1.52178E+4
   4.15349E+4   1.28972E+4
   3.83693E+4   1.06746E+4
   3.55105E+4   8.74520E+3
   3.23988E+4   6.93510E+3
   2.96286E+4   4.96618E+3
   2.62154E+4   2.87896E+3
   2.33390E+4   1.25350E+3
   2.07152E+4  -5.72994E+2
   1.81085E+4  -2.29511E+3
   1.57540E+4  -4.14359E+3
   1.32485E+4  -5.63210E+3
   1.06392E+4  -7.09701E+3
   7.98360E+3  -8.64121E+3
   5.65943E+3  -1.01218E+4
   3.45786E+3  -1.14000E+4
   1.32566E+3  -1.29660E+4
  -9.64396E+2  -1.42980E+4
  -2.67186E+3  -1.56267E+4
  -4.37877E+3  -1.69569E+4
  -6.61154E+3  -1.83122E+4
  -8.55623E+3  -1.95200E+4
  -1.01007E+4  -2.08392E+4
  -1.17778E+4  -2.18854E+4
  -1.32288E+4  -2.32371E+4
  -1.46560E+4  -2.41609E+4
  -1.61426E+4  -2.56502E+4
  -1.74903E+4  -2.68752E+4
  -1.93270E+4  -2.78423E+4
  -2.02387E+4  -2.89846E+4
  -2.13421E+4  -3.01872E+4
  -2.25850E+4  -3.09750E+4
  -2.38995E+4  -3.24349E+4
  -2.46323E+4  -3.34429E+4
  -2.57596E+4  -3.43264E+4
  -2.68162E+4  -3.53827E+4
  -2.77169E+4  -3.64489E+4
  -2.85280E+4  -3.75043E+4
  -2.93843E+4  -3.82115E+4
  -3.01813E+4  -3.94260E+4
  -3.08603E+4  -4.00976E+4
  -3.16795E+4  -4.10872E+4
  -3.21989E+4  -4.19922E+4
  -3.30860E+4  -4.30840E+4
  -3.34791E+4  -4.40350E+4
  -3.40433E+4  -4.48093E+4
  -3.44616E+4  -4.54233E+4
  -3.49914E+4  -4.63778E+4
  -3.53910E+4  -4.71020E+4
  -3.55042E+4  -4.76451E+4
  -3.60015E+4  -4.83712E+4
  -3.66010E+4  -4.90445E+4
  -3.67359E+4  -4.97730E+4
  -3.68565E+4  -5.05297E+4
  -3.71879E+4  -5.11952E+4
  -3.74666E+4  -5.16161E+4
  -3.77625E+4  -5.22964E+4
  -3.77014E+4  -5.25374E+4
  -3.78905E+4  -5.31992E+4
  -3.80432E+4  -5.36264E+4
  -3.80575E+4  -5.40104E+4
  -3.80820E+4  -5.46601E+4
  -3.81171E+4  -5.49416E+4
  -3.82329E+4  -5.51036E+4
  -3.79378E+4  -5.55481E+4
  -3.79404E+4  -5.58395E+4
  -3.80648E+4  -5.63807E+4
  -3.79544E+4  -5.62496E+4
  -3.78553E+4  -5.66852E+4
  -3.77461E+4  -5.68404E+4
  -3.70672E+4  -5.71354E+4
  -3.71269E+4  -5.73028E+4
  -3.68202E+4  -5.72778E+4
  -3.67511E+4  -5.71967E+4
  -3.64896E+4  -5.76539E+4
  -3.61207E+4  -5.77595E+4
  -3.58017E+4  -5.78081E+4
  -3.54016E+4  -5.79260E+4
  -3.48199E+4  -5.78956E+4
  -3.45511E+4  -5.80587E+4
  -3.40500E+4  -5.79009E+4
  -3.37106E+4  -5.79982E+4
  -3.32878E+4  -5.81430E+4
  -3.26973E+4  -5.80836E+4
  -3.20049E+4  -5.80521E+4
  -3.15904E+4  -5.77950E+4
  -3.11231E+4  -5.78773E+4
  -3.03430E+4  -5.76113E+4
  -2.99532E+4  -5.77699E+4
  -2.91865E+4  -5.75494E+4
  -2.88448E+4  -5.74044E+4
  -2.80316E+4  -5.73259E+4
  -2.75454E+4  -5.71707E+4
  -2.68329E+4  -5.66532E+4
  -2.60453E+4  -5.66637E+4
  -2.54367E+4  -5.64359E+4
  -2.49854E+4  -5.63753E+4
  -2.42291E+4  -5.59252E+4
  -2.33573E+4  -5.58393E+4
  -2.25210E+4  -5.52605E+4
  -2.17775E+4  -5.51888E+4
  -2.12345E+4  -5.48620E+4
  -2.04050E+4  -5.45827E+4
  -1.97528E+4  -5.42301E+4
  -1.89704E+4  -5.39512E+4
  -1.81531E+4  -5.36537E+4
  -1.72234E+4  -5.31749E+4
  -1.64830E+4  -5.31092E+4
  -1.59007E+4  -5.26465E+4
  -1.51297E+4  -5.20387E+4
  -1.44184E+4  -5.13746E+4
  -1.37828E+4  -5.11732E+4
  -1.30869E+4  -5.09692E+4
  -1.21355E+4  -5.03345E+4
  -1.11722E+4  -4.98321E+4
  -1.05471E+4  -4.95581E+4
  -9.71816E+3  -4.92771E+4
  -8.87298E+3  -4.85581E+4
  -8.28437E+3  -4.79214E+4
  -7.71546E+3  -4.75952E+4
  -6.80996E+3  -4.68129E+4
  -5.99157E+3  -4.64526E+4
  -5.42612E+3  -4.62272E+4
  -4.59042E+3  -4.51404E+4
  -3.98300E+3  -4.48654E+4
  -3.22739E+3  -4.42903E+4
  -2.33588E+3  -4.38105E+4
  -1.68402E+3  -4.31021E+4
  -1.14558E+3  -4.27156E+4
  -3.59280E+2  -4.21341E+4
   4.60970E+2  -4.12572E+4
   9.84530E+2  -4.09058E+4
   1.59448E+3  -4.01698E+4
   2.44376E+3  -3.97676E+4
   2.87786E+3  -3.92829E+4
   3.46074E+3  -3.87515E+4
   4.06891E+3  -3.80327E+4
   4.83835E+3  -3.74207E+4
   5.46304E+3  -3.68479E+4
   6.18186E+3  -3.59579E+4
   6.60070E+3  -3.53194E+4
   7.08906E+3  -3.49614E+4
   7.85652E+3  -3.41278E+4
   8.29740E+3  -3.34909E+4
   8.70355E+3  -3.28140E+4
   9.33058E+3  -3.22996E+4
   9.71815E+3  -3.15385E+4
   1.03897E+4  -3.09053E+4
   1.09144E+4  -3.01574E+4
   1.13170E+4  -2.95038E+4
   1.20493E+4  -2.88272E+4
   1.26432E+4  -2.79512E+4
   1.28486E+4  -2.72934E+4
   1.32689E+4  -2.65150E+4
   1.37307E+4  -2.59362E+4
   1.43574E+4  -2.49973E+4
   1.48096E+4  -2.44993E+4
   1.51765E+4  -2.38969E+4
   1.56293E+4  -2.32137E+4
   1.57817E+4  -2.25356E+4
   1.65439E+4  -2.17664E+4
   1.65711E+4  -2.10866E+4
   1.70869E+4  -2.04351E+4
   1.71886E+4  -1.95499E+4
   1.77355E+4  -1.91666E+4
   1.81756E+4  -1.83451E+4
   1.85829E+4  -1.77441E+4
   1.90477E+4  -1.71170E+4
   1.90769E+4  -1.60937E+4
   1.94060E+4  -1.56613E+4
   1.97979E+4  -1.48610E+4
   1.98542E+4  -1.43663E+4
   2.00876E+4  -1.36720E+4
   2.05621E+4  -1.28803E+4
   2.07582E+4  -1.21478E+4
   2.10389E+4  -1.14542E+4
   2.10626E+4  -1.08898E+4
   2.14026E+4  -1.01496E+4
   2.15594E+4  -9.71187E+3
   2.16860E+4  -9.31904E+3
   2.19789E+4  -8.68517E+3
   2.17675E+4  -7.94930E+3
   2.22485E+4  -7.46926E+3
   2.22903E+4  -6.97857E+3
   2.22292E+4  -6.19298E+3
   2.24754E+4  -5.80031E+3
   2.25591E+4  -5.34446E+3
   2.26609E+4  -4.64417E+3
   2.26228E+4  -4.29440E+3
   2.27384E+4  -3.56581E+3
