 LCModel (Version 6.3-1N) Copyright: S.W. Provencher.          Ref.: Magn. Reson. Med. 30:672-679 (1993).                
 Slice_N1@9_11  28-Feb-2025 11:44:47
 27 lines in following concentration table = NCONC+1
    Conc.  %SD /Cr+PCr  Metabolite                                         
 3.80E-04   4% 5.5E-04 Mac                                                 
    1.198  88%   1.749 Cr                                                  
    4.283  25%   6.251 PCr                                                 
    3.556  25%   5.191 Ins                                                 
   10.098   9%  14.739 NAA                                                 
    3.442  25%   5.025 Tau                                                 
    0.000 999%   0.000 PCho                                                
    0.394  67%   0.574 GPC                                                 
   10.714  11%  15.639 Glu                                                 
    3.975  21%   5.802 Gln                                                 
    2.910  25%   4.248 Ala                                                 
    0.593 203%   0.865 Asc                                                 
    1.670  53%   2.437 Asp                                                 
    0.000 999%   0.000 GABA                                                
    0.357 166%   0.522 Glc                                                 
    0.601  81%   0.877 GSH                                                 
    1.054  65%   1.538 Lac                                                 
    2.672  20%   3.900 NAAG                                                
    3.000  37%   4.378 PE                                                  
    0.394  67%   0.574 GPC+PCho                                            
   12.770   8%  18.639 NAA+NAAG                                            
   14.689  10%  21.441 Glu+Gln                                             
    5.481  12%   8.000 Cr+PCr                                              
   12.770   8%  18.639 NAA+NAAG                                            
    5.481  12%   8.000 Cr+PCr                                              
   14.689  10%  21.441 Glu+Gln                                             
   6 lines in following misc. output table
  FWHM = 0.024 ppm    S/N =   4                                            
  Data shift = 0.049 ppm                                                   
  Ph: 148 deg       0.0 deg/ppm                                            
  alphaB,S = 1.2E+00,   4.0E-01                                            
   19 spline knots.   Ns = 5(1)                                            
   1 inflections.     2 extrema                                            
  480 points on ppm-axis = NY
      4.100000     4.091866     4.083733     4.075600     4.067466     4.059333     4.051199     4.043066     4.034933     4.026799
      4.018666     4.010532     4.002399     3.994265     3.986132     3.977998     3.969864     3.961731     3.953597     3.945463
      3.937330     3.929196     3.921062     3.912929     3.904795     3.896662     3.888528     3.880394     3.872261     3.864127
      3.855993     3.847860     3.839726     3.831592     3.823459     3.815325     3.807191     3.799058     3.790924     3.782790
      3.774657     3.766523     3.758389     3.750256     3.742122     3.733989     3.725855     3.717721     3.709588     3.701454
      3.693320     3.685187     3.677053     3.668919     3.660786     3.652652     3.644518     3.636385     3.628251     3.620117
      3.611984     3.603850     3.595716     3.587583     3.579449     3.571316     3.563182     3.555048     3.546915     3.538781
      3.530647     3.522514     3.514380     3.506246     3.498113     3.489979     3.481845     3.473712     3.465578     3.457444
      3.449311     3.441177     3.433043     3.424910     3.416776     3.408643     3.400509     3.392375     3.384242     3.376108
      3.367974     3.359841     3.351707     3.343573     3.335440     3.327306     3.319172     3.311039     3.302905     3.294771
      3.286638     3.278504     3.270370     3.262237     3.254103     3.245970     3.237836     3.229702     3.221569     3.213435
      3.205301     3.197168     3.189034     3.180900     3.172767     3.164633     3.156499     3.148366     3.140232     3.132098
      3.123965     3.115831     3.107697     3.099564     3.091430     3.083297     3.075163     3.067029     3.058896     3.050762
      3.042628     3.034495     3.026361     3.018227     3.010094     3.001960     2.993826     2.985693     2.977559     2.969425
      2.961292     2.953158     2.945024     2.936891     2.928757     2.920624     2.912490     2.904356     2.896223     2.888089
      2.879955     2.871822     2.863688     2.855554     2.847421     2.839287     2.831153     2.823020     2.814886     2.806752
      2.798619     2.790485     2.782351     2.774218     2.766084     2.757951     2.749817     2.741683     2.733550     2.725416
      2.717282     2.709149     2.701015     2.692881     2.684748     2.676614     2.668480     2.660347     2.652213     2.644079
      2.635946     2.627812     2.619678     2.611545     2.603411     2.595278     2.587144     2.579010     2.570877     2.562743
      2.554609     2.546476     2.538342     2.530208     2.522075     2.513941     2.505807     2.497674     2.489540     2.481406
      2.473273     2.465139     2.457006     2.448872     2.440738     2.432605     2.424471     2.416337     2.408204     2.400070
      2.391936     2.383803     2.375669     2.367535     2.359402     2.351268     2.343134     2.335001     2.326867     2.318733
      2.310600     2.302466     2.294333     2.286199     2.278065     2.269932     2.261798     2.253664     2.245531     2.237397
      2.229263     2.221130     2.212996     2.204862     2.196729     2.188595     2.180461     2.172328     2.164194     2.156060
      2.147927     2.139793     2.131660     2.123526     2.115392     2.107259     2.099125     2.090991     2.082858     2.074724
      2.066590     2.058457     2.050323     2.042189     2.034056     2.025922     2.017788     2.009655     2.001521     1.993387
      1.985254     1.977120     1.968987     1.960853     1.952719     1.944586     1.936452     1.928318     1.920185     1.912051
      1.903917     1.895784     1.887650     1.879516     1.871383     1.863249     1.855115     1.846982     1.838848     1.830714
      1.822581     1.814447     1.806314     1.798180     1.790046     1.781913     1.773779     1.765645     1.757512     1.749378
      1.741244     1.733111     1.724977     1.716843     1.708710     1.700576     1.692442     1.684309     1.676175     1.668041
      1.659908     1.651774     1.643641     1.635507     1.627373     1.619240     1.611106     1.602972     1.594839     1.586705
      1.578571     1.570438     1.562304     1.554170     1.546037     1.537903     1.529769     1.521636     1.513502     1.505368
      1.497235     1.489101     1.480968     1.472834     1.464700     1.456567     1.448433     1.440299     1.432166     1.424032
      1.415898     1.407765     1.399631     1.391497     1.383364     1.375230     1.367096     1.358963     1.350829     1.342695
      1.334562     1.326428     1.318295     1.310161     1.302027     1.293894     1.285760     1.277626     1.269493     1.261359
      1.253225     1.245092     1.236958     1.228824     1.220691     1.212557     1.204423     1.196290     1.188156     1.180022
      1.171889     1.163755     1.155622     1.147488     1.139354     1.131221     1.123087     1.114953     1.106820     1.098686
      1.090552     1.082419     1.074285     1.066151     1.058018     1.049884     1.041750     1.033617     1.025483     1.017349
      1.009216     1.001082     0.992949     0.984815     0.976681     0.968548     0.960414     0.952280     0.944147     0.936013
      0.927879     0.919746     0.911612     0.903478     0.895345     0.887211     0.879077     0.870944     0.862810     0.854676
      0.846543     0.838409     0.830276     0.822142     0.814008     0.805875     0.797741     0.789607     0.781474     0.773340
      0.765206     0.757073     0.748939     0.740805     0.732672     0.724538     0.716404     0.708271     0.700137     0.692003
      0.683870     0.675736     0.667603     0.659469     0.651335     0.643202     0.635068     0.626934     0.618801     0.610667
      0.602533     0.594400     0.586266     0.578132     0.569999     0.561865     0.553731     0.545598     0.537464     0.529330
      0.521197     0.513063     0.504930     0.496796     0.488662     0.480529     0.472395     0.464261     0.456128     0.447994
      0.439861     0.431727     0.423593     0.415460     0.407326     0.399192     0.391059     0.382925     0.374792     0.366658
      0.358524     0.350391     0.342257     0.334124     0.325990     0.317856     0.309723     0.301589     0.293455     0.285322
      0.277188     0.269055     0.260921     0.252787     0.244654     0.236520     0.228386     0.220253     0.212119     0.203986
 NY phased data points follow
  -5.43766E+01 -6.47748E+01 -8.17113E+01 -7.43163E+01 -7.67249E+01 -6.42588E+01 -7.92742E+01 -6.60414E+01 -6.40912E+01 -8.27295E+01
  -1.02324E+02 -1.05510E+02 -8.84973E+01 -1.20561E+02 -1.10858E+02 -1.00363E+02 -1.07086E+02 -1.22105E+02 -1.47541E+02 -1.48039E+02
  -1.43195E+02 -1.32649E+02 -1.04804E+02 -6.81784E+01 -6.32186E+01 -4.13590E+01 -4.14790E+01 -5.18949E+01 -2.98481E+01 -9.59922E+00
  -2.36613E+01 -4.84516E+01 -2.60372E+01 -4.28128E+01 -4.86317E+01 -4.42934E+01 -6.59639E+01 -6.32473E+01 -6.70927E+01 -1.07783E+02
  -1.45236E+02 -1.28872E+02 -1.12559E+02 -1.06452E+02 -9.55904E+01 -6.03059E+01 -3.61837E+01 -1.06968E+01 -5.18374E-01 -1.86734E+01
   4.44813E+00 -1.80759E+01 -3.92627E+01 -3.56258E+01 -2.65877E+01 -3.07273E+01 -6.30010E+01 -6.27926E+01 -7.36670E+01 -6.84731E+01
  -6.50287E+01 -6.50560E+01 -5.20996E+01 -5.56118E+01 -3.09975E+01 -2.06248E+01 -3.87178E+01 -4.24024E+01 -6.96352E+01 -8.65779E+01
  -6.93829E+01 -7.16384E+01 -5.99708E+01 -5.60685E+01 -4.73940E+01 -1.54724E+01 -2.25007E+01 -3.60280E+01 -1.95214E+01 -2.48324E+01
  -4.04673E+01 -3.32082E+01 -5.75371E+01 -5.47456E+01 -5.91526E+01 -6.32885E+01 -4.56292E+01 -7.78302E+01 -5.65188E+01 -4.98406E+01
  -4.60809E+01 -2.42529E+01 -3.29598E+01 -1.44359E+01 -1.82682E+01 -1.79549E+01 -7.01353E+00 -6.04242E+00 -2.74995E+01 -3.94974E+01
  -3.33052E+01 -3.90711E+01 -3.57089E+01 -5.89372E+01 -7.64010E+01 -9.14732E+01 -8.99394E+01 -1.01177E+02 -1.66052E+02 -1.71238E+02
  -1.86063E+02 -2.27354E+02 -1.79994E+02 -1.55848E+02 -1.63763E+02 -1.34408E+02 -1.43445E+02 -1.46271E+02 -1.47946E+02 -1.44982E+02
  -1.04160E+02 -1.09999E+02 -1.11231E+02 -9.53112E+01 -8.00995E+01 -6.19120E+01 -7.65135E+01 -5.57681E+01 -5.64608E+00  7.25104E+00
   1.61773E+01  1.77356E+01 -5.70318E+01 -1.56271E+02 -1.89358E+02 -1.88887E+02 -1.84162E+02 -1.89280E+02 -1.85588E+02 -1.78911E+02
  -1.78519E+02 -1.58067E+02 -1.84868E+02 -1.84296E+02 -1.80873E+02 -1.85871E+02 -1.52883E+02 -2.07851E+02 -1.87389E+02 -1.59076E+02
  -1.88881E+02 -1.55324E+02 -1.53964E+02 -1.58921E+02 -1.57129E+02 -1.43326E+02 -1.54692E+02 -1.44140E+02 -1.33921E+02 -1.46911E+02
  -1.36860E+02 -1.51026E+02 -1.34550E+02 -1.49977E+02 -1.44433E+02 -1.51725E+02 -1.63886E+02 -1.41245E+02 -1.54549E+02 -1.22296E+02
  -1.37823E+02 -1.26890E+02 -8.78989E+01 -1.08409E+02 -1.16153E+02 -1.19156E+02 -1.19051E+02 -1.07153E+02 -8.63039E+01 -1.04930E+02
  -1.35895E+02 -1.68118E+02 -1.76102E+02 -1.88320E+02 -1.87265E+02 -1.65247E+02 -1.87812E+02 -1.74009E+02 -1.83545E+02 -1.83650E+02
  -1.60812E+02 -1.59961E+02 -1.59873E+02 -1.82186E+02 -1.57174E+02 -1.52489E+02 -1.60395E+02 -1.39190E+02 -1.38032E+02 -1.35268E+02
  -1.38877E+02 -1.38643E+02 -1.41694E+02 -1.34966E+02 -1.33708E+02 -1.48160E+02 -1.56949E+02 -1.75936E+02 -1.61375E+02 -1.69316E+02
  -1.93651E+02 -1.85480E+02 -1.81131E+02 -1.61073E+02 -1.31332E+02 -8.91903E+01 -8.24477E+01 -6.54216E+01 -4.33899E+01 -7.94708E+01
  -1.17975E+02 -1.38633E+02 -1.33423E+02 -1.41814E+02 -1.28578E+02 -1.42330E+02 -1.31471E+02 -1.04325E+02 -1.45846E+02 -1.36354E+02
  -1.45147E+02 -1.54715E+02 -1.72912E+02 -1.81306E+02 -1.68971E+02 -2.06244E+02 -2.28798E+02 -2.48546E+02 -2.45416E+02 -2.57316E+02
  -2.63688E+02 -2.47815E+02 -2.33476E+02 -2.25543E+02 -2.00073E+02 -1.69143E+02 -1.99087E+02 -1.91566E+02 -2.05162E+02 -2.33320E+02
  -2.15393E+02 -2.28473E+02 -2.27658E+02 -2.15124E+02 -2.63915E+02 -3.01138E+02 -2.98348E+02 -2.35206E+02 -4.69260E+01  5.49579E+01
   4.25642E+01  1.67676E+01 -2.13201E+00 -5.29821E+00 -4.19119E+01 -5.80668E+01 -6.22952E+01 -5.76849E+01 -6.77857E+01 -7.76950E+01
  -8.67763E+01 -8.93697E+01 -6.90211E+01 -8.01700E+01 -8.10165E+01 -8.80058E+01 -9.29856E+01 -1.07136E+02 -9.76017E+01 -7.83382E+01
  -1.07330E+02 -1.01531E+02 -8.44643E+01 -9.05692E+01 -1.09106E+02 -1.03342E+02 -1.09218E+02 -1.31743E+02 -1.28718E+02 -1.29667E+02
  -1.18249E+02 -1.13630E+02 -1.22775E+02 -1.28332E+02 -1.25315E+02 -1.37654E+02 -1.46058E+02 -1.38513E+02 -1.35119E+02 -1.31846E+02
  -1.50028E+02 -1.40504E+02 -1.31636E+02 -1.39729E+02 -1.50494E+02 -1.52243E+02 -1.33679E+02 -1.50704E+02 -1.28446E+02 -1.19140E+02
  -1.24043E+02 -1.03649E+02 -1.13384E+02 -1.05882E+02 -1.28676E+02 -1.12880E+02 -8.46375E+01 -8.49870E+01 -5.65421E+01 -6.62752E+01
  -7.32214E+01 -6.94997E+01 -6.36073E+01 -7.44825E+01 -7.82764E+01 -8.91794E+01 -1.44084E+02 -1.48821E+02 -1.41887E+02 -1.83974E+02
  -2.19077E+02 -2.29345E+02 -2.65304E+02 -2.86190E+02 -3.13076E+02 -3.27575E+02 -2.94778E+02 -2.99586E+02 -2.93325E+02 -2.65528E+02
  -2.45322E+02 -2.43474E+02 -2.35073E+02 -2.42719E+02 -2.64857E+02 -2.51372E+02 -2.57146E+02 -2.46142E+02 -2.20074E+02 -2.22706E+02
  -2.14399E+02 -1.93816E+02 -2.09688E+02 -2.02094E+02 -1.97957E+02 -2.16928E+02 -1.97341E+02 -2.17399E+02 -2.10141E+02 -2.03929E+02
  -2.31196E+02 -2.12724E+02 -2.08746E+02 -2.17251E+02 -2.06592E+02 -1.96031E+02 -1.91683E+02 -1.85624E+02 -2.00871E+02 -1.95711E+02
  -1.92161E+02 -2.03414E+02 -1.84512E+02 -1.74913E+02 -1.77848E+02 -1.88879E+02 -1.66447E+02 -1.58661E+02 -1.77070E+02 -1.54940E+02
  -1.54130E+02 -1.56020E+02 -1.23967E+02 -1.09989E+02 -1.14744E+02 -9.48227E+01 -8.01908E+01 -9.28769E+01 -9.56403E+01 -8.16627E+01
  -6.06179E+01 -8.70290E+01 -1.11261E+02 -1.00244E+02 -1.42304E+02 -1.57061E+02 -1.49495E+02 -1.54473E+02 -1.47173E+02 -1.84126E+02
  -1.95164E+02 -1.79020E+02 -1.97428E+02 -2.21663E+02 -2.22211E+02 -2.31695E+02 -2.45431E+02 -2.42911E+02 -2.36095E+02 -2.27511E+02
  -2.54375E+02 -2.47622E+02 -2.33092E+02 -2.51706E+02 -2.38505E+02 -2.17900E+02 -2.30212E+02 -2.42495E+02 -2.28192E+02 -2.33152E+02
  -2.38405E+02 -2.42517E+02 -2.31148E+02 -2.49070E+02 -2.78643E+02 -2.57178E+02 -2.45395E+02 -2.42857E+02 -2.56928E+02 -2.38078E+02
  -2.43270E+02 -2.48369E+02 -2.29274E+02 -2.58816E+02 -2.45307E+02 -2.34533E+02 -2.44628E+02 -2.58247E+02 -2.53807E+02 -2.46781E+02
  -2.67228E+02 -2.48397E+02 -2.42255E+02 -2.58059E+02 -2.63910E+02 -2.53954E+02 -2.48618E+02 -2.55585E+02 -2.43585E+02 -2.53445E+02
  -2.55900E+02 -2.45471E+02 -2.63966E+02 -2.45567E+02 -2.48446E+02 -2.77435E+02 -2.47168E+02 -2.41983E+02 -2.43911E+02 -2.31854E+02
  -2.52657E+02 -2.55641E+02 -2.45045E+02 -2.38281E+02 -2.37085E+02 -2.51413E+02 -2.44373E+02 -2.56755E+02 -2.70335E+02 -2.42087E+02
  -2.39214E+02 -2.42059E+02 -2.46825E+02 -2.49296E+02 -2.53939E+02 -2.63503E+02 -2.54708E+02 -2.41592E+02 -2.44829E+02 -2.55991E+02
 NY points of the fit to the data follow
  -6.45953E+01 -7.11917E+01 -7.88937E+01 -8.40162E+01 -8.39742E+01 -7.67644E+01 -6.60557E+01 -6.12176E+01 -6.68172E+01 -7.59224E+01
  -8.56107E+01 -9.46608E+01 -1.02329E+02 -1.08502E+02 -1.08014E+02 -1.02679E+02 -1.05880E+02 -1.08036E+02 -1.22489E+02 -1.36346E+02
  -1.42384E+02 -1.29640E+02 -8.79412E+01 -6.18507E+01 -5.39983E+01 -4.79165E+01 -4.50216E+01 -4.31179E+01 -3.93322E+01 -3.50457E+01
  -3.29742E+01 -3.22655E+01 -3.17825E+01 -3.18942E+01 -3.10500E+01 -3.11710E+01 -3.30287E+01 -4.17252E+01 -6.20693E+01 -9.33258E+01
  -1.28942E+02 -1.47898E+02 -1.41443E+02 -1.13525E+02 -7.94346E+01 -5.05702E+01 -3.12804E+01 -2.40279E+01 -2.24751E+01 -2.28478E+01
  -2.40837E+01 -2.67701E+01 -3.12091E+01 -3.47921E+01 -3.96584E+01 -4.64109E+01 -5.03860E+01 -5.56499E+01 -6.10706E+01 -6.79077E+01
  -6.99932E+01 -6.18790E+01 -5.73089E+01 -5.09562E+01 -3.62946E+01 -2.87581E+01 -2.88249E+01 -3.62580E+01 -5.23376E+01 -7.06946E+01
  -8.22677E+01 -7.82773E+01 -7.02502E+01 -6.54709E+01 -5.60740E+01 -4.48967E+01 -3.71613E+01 -3.39650E+01 -2.81009E+01 -2.75176E+01
  -2.70682E+01 -3.68578E+01 -5.11134E+01 -6.63547E+01 -7.99991E+01 -8.19835E+01 -7.86307E+01 -6.99376E+01 -6.05098E+01 -5.44958E+01
  -5.04176E+01 -4.69604E+01 -4.37127E+01 -4.07543E+01 -3.73816E+01 -3.62994E+01 -3.61544E+01 -3.63709E+01 -3.67877E+01 -3.77974E+01
  -3.36589E+01 -3.32313E+01 -3.28009E+01 -4.62774E+01 -5.38330E+01 -6.35159E+01 -8.18592E+01 -9.88480E+01 -1.27906E+02 -1.59324E+02
  -1.87401E+02 -1.94441E+02 -1.80435E+02 -1.63330E+02 -1.51407E+02 -1.42803E+02 -1.35483E+02 -1.29176E+02 -1.23406E+02 -1.18868E+02
  -1.15164E+02 -1.11705E+02 -1.07878E+02 -1.02382E+02 -9.34853E+01 -8.34127E+01 -7.38292E+01 -4.02233E+01 -1.45955E+01  2.24814E+01
   3.51684E+01  1.69673E+01 -4.43550E+01 -1.42083E+02 -1.81445E+02 -1.77614E+02 -1.72142E+02 -1.71200E+02 -1.70951E+02 -1.71644E+02
  -1.73404E+02 -1.74631E+02 -1.75677E+02 -1.77609E+02 -1.78906E+02 -1.79599E+02 -1.78417E+02 -1.75540E+02 -1.72098E+02 -1.68172E+02
  -1.65322E+02 -1.63043E+02 -1.61217E+02 -1.59717E+02 -1.57036E+02 -1.54392E+02 -1.52589E+02 -1.51880E+02 -1.51168E+02 -1.49406E+02
  -1.47782E+02 -1.47052E+02 -1.47855E+02 -1.49186E+02 -1.49166E+02 -1.47155E+02 -1.47452E+02 -1.51601E+02 -1.56629E+02 -1.56238E+02
  -1.44857E+02 -1.27891E+02 -1.16056E+02 -1.19148E+02 -1.29619E+02 -1.31928E+02 -1.17714E+02 -1.04630E+02 -1.08272E+02 -1.25631E+02
  -1.44052E+02 -1.52899E+02 -1.58558E+02 -1.64471E+02 -1.68518E+02 -1.71033E+02 -1.72430E+02 -1.71730E+02 -1.71187E+02 -1.72326E+02
  -1.71037E+02 -1.70899E+02 -1.69924E+02 -1.65997E+02 -1.60272E+02 -1.50395E+02 -1.53062E+02 -1.54199E+02 -1.46174E+02 -1.44513E+02
  -1.43984E+02 -1.44671E+02 -1.38176E+02 -1.28999E+02 -1.30470E+02 -1.37028E+02 -1.44812E+02 -1.56003E+02 -1.69285E+02 -1.89235E+02
  -2.08394E+02 -2.13161E+02 -2.16922E+02 -1.92394E+02 -1.63892E+02 -1.22907E+02 -8.61972E+01 -8.08820E+01 -8.09647E+01 -9.70554E+01
  -1.16974E+02 -1.26288E+02 -1.27884E+02 -1.25309E+02 -1.21546E+02 -1.18100E+02 -1.17349E+02 -1.20066E+02 -1.28392E+02 -1.39026E+02
  -1.54537E+02 -1.71288E+02 -1.87941E+02 -2.04959E+02 -2.17744E+02 -2.30092E+02 -2.35923E+02 -2.38660E+02 -2.41637E+02 -2.40674E+02
  -2.39097E+02 -2.37173E+02 -2.28045E+02 -2.13209E+02 -2.01509E+02 -1.87229E+02 -1.84397E+02 -1.79772E+02 -1.91716E+02 -2.03702E+02
  -2.11567E+02 -2.08376E+02 -2.30712E+02 -2.39781E+02 -2.68584E+02 -3.00428E+02 -3.12336E+02 -2.44761E+02 -7.73464E+01  1.23499E+01
   8.84907E+00 -1.02616E+01 -2.21534E+01 -3.30421E+01 -4.12450E+01 -4.80625E+01 -5.47107E+01 -6.14160E+01 -6.76651E+01 -7.21233E+01
  -7.56876E+01 -7.70328E+01 -7.79707E+01 -7.86324E+01 -7.95124E+01 -8.07363E+01 -8.20488E+01 -8.34733E+01 -8.46243E+01 -8.59724E+01
  -8.79514E+01 -9.09470E+01 -9.37953E+01 -9.66914E+01 -9.91747E+01 -1.01908E+02 -1.04970E+02 -1.07451E+02 -1.10498E+02 -1.14405E+02
  -1.19506E+02 -1.26112E+02 -1.33509E+02 -1.41573E+02 -1.49495E+02 -1.54846E+02 -1.57217E+02 -1.56852E+02 -1.55120E+02 -1.52683E+02
  -1.49970E+02 -1.46702E+02 -1.42729E+02 -1.39241E+02 -1.36230E+02 -1.33694E+02 -1.31446E+02 -1.28685E+02 -1.25437E+02 -1.21566E+02
  -1.18220E+02 -1.15623E+02 -1.13204E+02 -1.10435E+02 -1.07589E+02 -1.05017E+02 -1.03830E+02 -1.02956E+02 -9.98430E+01 -9.49709E+01
  -9.14413E+01 -8.45232E+01 -9.22747E+01 -1.07429E+02 -1.35926E+02 -1.62229E+02 -1.79202E+02 -1.95577E+02 -1.99783E+02 -2.04514E+02
  -2.14695E+02 -2.26436E+02 -2.36077E+02 -2.42428E+02 -2.43294E+02 -2.39451E+02 -2.32022E+02 -2.22238E+02 -2.15024E+02 -2.06679E+02
  -2.03509E+02 -2.01885E+02 -2.04150E+02 -2.07219E+02 -2.06188E+02 -2.04164E+02 -1.98070E+02 -1.91883E+02 -1.87694E+02 -1.84600E+02
  -1.82737E+02 -1.84128E+02 -1.88072E+02 -1.94961E+02 -2.03836E+02 -2.12546E+02 -2.19532E+02 -2.23412E+02 -2.25414E+02 -2.25076E+02
  -2.22806E+02 -2.19292E+02 -2.14580E+02 -2.09534E+02 -2.04648E+02 -2.00085E+02 -1.95861E+02 -1.92100E+02 -1.88432E+02 -1.84782E+02
  -1.81306E+02 -1.78083E+02 -1.75080E+02 -1.71927E+02 -1.68719E+02 -1.64789E+02 -1.59830E+02 -1.54190E+02 -1.48302E+02 -1.40757E+02
  -1.32266E+02 -1.22843E+02 -1.11051E+02 -9.58704E+01 -7.92478E+01 -6.34743E+01 -5.11773E+01 -4.60392E+01 -5.00537E+01 -6.31439E+01
  -8.06596E+01 -9.84231E+01 -1.12470E+02 -1.23469E+02 -1.31833E+02 -1.38897E+02 -1.47826E+02 -1.59724E+02 -1.74522E+02 -1.89478E+02
  -2.04246E+02 -2.17436E+02 -2.27075E+02 -2.34698E+02 -2.40501E+02 -2.44405E+02 -2.46733E+02 -2.48302E+02 -2.50317E+02 -2.52047E+02
  -2.53897E+02 -2.55087E+02 -2.55783E+02 -2.55838E+02 -2.55866E+02 -2.56171E+02 -2.55822E+02 -2.56050E+02 -2.56438E+02 -2.57031E+02
  -2.56504E+02 -2.55536E+02 -2.55686E+02 -2.55979E+02 -2.56011E+02 -2.55733E+02 -2.56059E+02 -2.56207E+02 -2.55928E+02 -2.54965E+02
  -2.54184E+02 -2.54402E+02 -2.54769E+02 -2.55389E+02 -2.55552E+02 -2.55651E+02 -2.55131E+02 -2.54817E+02 -2.54499E+02 -2.53881E+02
  -2.53429E+02 -2.53054E+02 -2.52851E+02 -2.52850E+02 -2.53505E+02 -2.54219E+02 -2.54226E+02 -2.53729E+02 -2.53186E+02 -2.53099E+02
  -2.53095E+02 -2.53345E+02 -2.53652E+02 -2.53581E+02 -2.52782E+02 -2.52541E+02 -2.52254E+02 -2.51995E+02 -2.51692E+02 -2.51401E+02
  -2.51113E+02 -2.51017E+02 -2.51579E+02 -2.51983E+02 -2.52610E+02 -2.52514E+02 -2.52050E+02 -2.51012E+02 -2.49749E+02 -2.49141E+02
  -2.49256E+02 -2.50033E+02 -2.50630E+02 -2.50697E+02 -2.50361E+02 -2.50029E+02 -2.50060E+02 -2.50051E+02 -2.50253E+02 -2.50819E+02
 NY background values follow
    -3.755E+01   -3.798E+01   -3.840E+01   -3.883E+01   -3.925E+01   -3.968E+01   -4.010E+01   -4.053E+01   -4.095E+01   -4.138E+01
    -4.180E+01   -4.223E+01   -4.265E+01   -4.308E+01   -4.350E+01   -4.393E+01   -4.435E+01   -4.478E+01   -4.520E+01   -4.563E+01
    -4.605E+01   -4.648E+01   -4.690E+01   -4.733E+01   -4.775E+01   -4.817E+01   -4.860E+01   -4.903E+01   -4.945E+01   -4.988E+01
    -5.030E+01   -5.073E+01   -5.115E+01   -5.158E+01   -5.200E+01   -5.243E+01   -5.285E+01   -5.328E+01   -5.370E+01   -5.413E+01
    -5.456E+01   -5.498E+01   -5.541E+01   -5.584E+01   -5.627E+01   -5.669E+01   -5.712E+01   -5.755E+01   -5.798E+01   -5.841E+01
    -5.884E+01   -5.927E+01   -5.970E+01   -6.013E+01   -6.056E+01   -6.099E+01   -6.142E+01   -6.185E+01   -6.229E+01   -6.272E+01
    -6.315E+01   -6.359E+01   -6.402E+01   -6.446E+01   -6.490E+01   -6.533E+01   -6.577E+01   -6.621E+01   -6.665E+01   -6.709E+01
    -6.753E+01   -6.797E+01   -6.841E+01   -6.885E+01   -6.929E+01   -6.974E+01   -7.018E+01   -7.063E+01   -7.107E+01   -7.152E+01
    -7.197E+01   -7.241E+01   -7.286E+01   -7.331E+01   -7.376E+01   -7.421E+01   -7.466E+01   -7.511E+01   -7.557E+01   -7.602E+01
    -7.647E+01   -7.693E+01   -7.739E+01   -7.784E+01   -7.830E+01   -7.876E+01   -7.922E+01   -7.968E+01   -8.014E+01   -8.060E+01
    -8.106E+01   -8.152E+01   -8.198E+01   -8.245E+01   -8.291E+01   -8.337E+01   -8.384E+01   -8.430E+01   -8.477E+01   -8.524E+01
    -8.570E+01   -8.617E+01   -8.664E+01   -8.711E+01   -8.758E+01   -8.804E+01   -8.851E+01   -8.898E+01   -8.945E+01   -8.992E+01
    -9.039E+01   -9.086E+01   -9.134E+01   -9.181E+01   -9.228E+01   -9.275E+01   -9.322E+01   -9.370E+01   -9.417E+01   -9.464E+01
    -9.512E+01   -9.559E+01   -9.607E+01   -9.654E+01   -9.702E+01   -9.749E+01   -9.797E+01   -9.845E+01   -9.892E+01   -9.940E+01
    -9.988E+01   -1.004E+02   -1.008E+02   -1.013E+02   -1.018E+02   -1.023E+02   -1.028E+02   -1.032E+02   -1.037E+02   -1.042E+02
    -1.047E+02   -1.052E+02   -1.057E+02   -1.062E+02   -1.066E+02   -1.071E+02   -1.076E+02   -1.081E+02   -1.086E+02   -1.091E+02
    -1.096E+02   -1.101E+02   -1.106E+02   -1.111E+02   -1.116E+02   -1.120E+02   -1.125E+02   -1.130E+02   -1.135E+02   -1.140E+02
    -1.145E+02   -1.150E+02   -1.155E+02   -1.160E+02   -1.165E+02   -1.170E+02   -1.176E+02   -1.181E+02   -1.186E+02   -1.191E+02
    -1.196E+02   -1.201E+02   -1.206E+02   -1.211E+02   -1.216E+02   -1.221E+02   -1.227E+02   -1.232E+02   -1.237E+02   -1.242E+02
    -1.247E+02   -1.252E+02   -1.258E+02   -1.263E+02   -1.268E+02   -1.273E+02   -1.279E+02   -1.284E+02   -1.289E+02   -1.294E+02
    -1.300E+02   -1.305E+02   -1.310E+02   -1.316E+02   -1.321E+02   -1.326E+02   -1.332E+02   -1.337E+02   -1.342E+02   -1.348E+02
    -1.353E+02   -1.359E+02   -1.364E+02   -1.369E+02   -1.375E+02   -1.380E+02   -1.386E+02   -1.391E+02   -1.397E+02   -1.402E+02
    -1.408E+02   -1.413E+02   -1.419E+02   -1.424E+02   -1.430E+02   -1.435E+02   -1.441E+02   -1.446E+02   -1.452E+02   -1.458E+02
    -1.463E+02   -1.469E+02   -1.474E+02   -1.480E+02   -1.485E+02   -1.491E+02   -1.497E+02   -1.502E+02   -1.508E+02   -1.514E+02
    -1.519E+02   -1.525E+02   -1.531E+02   -1.536E+02   -1.542E+02   -1.547E+02   -1.553E+02   -1.559E+02   -1.564E+02   -1.570E+02
    -1.576E+02   -1.582E+02   -1.587E+02   -1.593E+02   -1.599E+02   -1.604E+02   -1.610E+02   -1.616E+02   -1.621E+02   -1.627E+02
    -1.633E+02   -1.638E+02   -1.644E+02   -1.650E+02   -1.655E+02   -1.661E+02   -1.667E+02   -1.672E+02   -1.678E+02   -1.684E+02
    -1.689E+02   -1.695E+02   -1.701E+02   -1.706E+02   -1.712E+02   -1.718E+02   -1.723E+02   -1.729E+02   -1.734E+02   -1.740E+02
    -1.746E+02   -1.751E+02   -1.757E+02   -1.762E+02   -1.768E+02   -1.773E+02   -1.779E+02   -1.784E+02   -1.790E+02   -1.796E+02
    -1.801E+02   -1.807E+02   -1.812E+02   -1.817E+02   -1.823E+02   -1.828E+02   -1.834E+02   -1.839E+02   -1.845E+02   -1.850E+02
    -1.855E+02   -1.861E+02   -1.866E+02   -1.872E+02   -1.877E+02   -1.882E+02   -1.887E+02   -1.893E+02   -1.898E+02   -1.903E+02
    -1.909E+02   -1.914E+02   -1.919E+02   -1.924E+02   -1.929E+02   -1.934E+02   -1.939E+02   -1.945E+02   -1.950E+02   -1.955E+02
    -1.960E+02   -1.965E+02   -1.970E+02   -1.974E+02   -1.979E+02   -1.984E+02   -1.989E+02   -1.994E+02   -1.999E+02   -2.003E+02
    -2.008E+02   -2.013E+02   -2.018E+02   -2.022E+02   -2.027E+02   -2.031E+02   -2.036E+02   -2.040E+02   -2.045E+02   -2.049E+02
    -2.054E+02   -2.058E+02   -2.063E+02   -2.067E+02   -2.071E+02   -2.075E+02   -2.080E+02   -2.084E+02   -2.088E+02   -2.092E+02
    -2.096E+02   -2.100E+02   -2.104E+02   -2.108E+02   -2.112E+02   -2.116E+02   -2.120E+02   -2.124E+02   -2.127E+02   -2.131E+02
    -2.135E+02   -2.138E+02   -2.142E+02   -2.146E+02   -2.149E+02   -2.153E+02   -2.156E+02   -2.160E+02   -2.163E+02   -2.167E+02
    -2.170E+02   -2.173E+02   -2.177E+02   -2.180E+02   -2.183E+02   -2.186E+02   -2.189E+02   -2.193E+02   -2.196E+02   -2.199E+02
    -2.202E+02   -2.205E+02   -2.208E+02   -2.211E+02   -2.214E+02   -2.217E+02   -2.220E+02   -2.223E+02   -2.226E+02   -2.228E+02
    -2.231E+02   -2.234E+02   -2.237E+02   -2.240E+02   -2.242E+02   -2.245E+02   -2.248E+02   -2.250E+02   -2.253E+02   -2.256E+02
    -2.258E+02   -2.261E+02   -2.263E+02   -2.266E+02   -2.269E+02   -2.271E+02   -2.274E+02   -2.276E+02   -2.279E+02   -2.281E+02
    -2.284E+02   -2.286E+02   -2.289E+02   -2.291E+02   -2.294E+02   -2.296E+02   -2.299E+02   -2.301E+02   -2.304E+02   -2.306E+02
    -2.308E+02   -2.311E+02   -2.313E+02   -2.316E+02   -2.318E+02   -2.321E+02   -2.323E+02   -2.325E+02   -2.328E+02   -2.330E+02
    -2.333E+02   -2.335E+02   -2.337E+02   -2.340E+02   -2.342E+02   -2.345E+02   -2.347E+02   -2.349E+02   -2.352E+02   -2.354E+02
    -2.357E+02   -2.359E+02   -2.361E+02   -2.364E+02   -2.366E+02   -2.368E+02   -2.371E+02   -2.373E+02   -2.376E+02   -2.378E+02
    -2.380E+02   -2.383E+02   -2.385E+02   -2.387E+02   -2.390E+02   -2.392E+02   -2.394E+02   -2.397E+02   -2.399E+02   -2.402E+02
    -2.404E+02   -2.406E+02   -2.409E+02   -2.411E+02   -2.413E+02   -2.416E+02   -2.418E+02   -2.420E+02   -2.423E+02   -2.425E+02
    -2.428E+02   -2.430E+02   -2.432E+02   -2.435E+02   -2.437E+02   -2.439E+02   -2.442E+02   -2.444E+02   -2.447E+02   -2.449E+02
 Mac      Conc. = 3.80E-04
  -6.42676E+01 -6.53376E+01 -6.54699E+01 -6.52185E+01 -6.53040E+01 -6.62952E+01 -6.89622E+01 -7.22529E+01 -7.62198E+01 -7.91972E+01
  -8.09752E+01 -8.11574E+01 -8.05436E+01 -8.20982E+01 -8.50741E+01 -9.09128E+01 -9.70577E+01 -9.95155E+01 -9.61797E+01 -8.82449E+01
  -8.11586E+01 -7.59176E+01 -7.03462E+01 -6.70473E+01 -6.63546E+01 -6.61512E+01 -6.49790E+01 -6.26693E+01 -6.01217E+01 -5.69041E+01
  -5.41652E+01 -5.19902E+01 -5.07736E+01 -5.10434E+01 -5.28155E+01 -5.53194E+01 -5.61903E+01 -5.42585E+01 -5.00210E+01 -4.64751E+01
  -4.57012E+01 -4.72613E+01 -4.86101E+01 -4.74671E+01 -4.51301E+01 -4.21784E+01 -4.06211E+01 -4.07962E+01 -4.20778E+01 -4.44539E+01
  -4.70862E+01 -5.01190E+01 -5.25532E+01 -5.47169E+01 -5.67318E+01 -5.86792E+01 -5.98363E+01 -5.95040E+01 -5.77460E+01 -5.54395E+01
  -5.32255E+01 -5.09002E+01 -4.85572E+01 -4.89009E+01 -5.02960E+01 -5.24467E+01 -5.51530E+01 -5.76473E+01 -6.03135E+01 -6.23731E+01
  -6.27530E+01 -5.98015E+01 -5.49444E+01 -5.09987E+01 -4.89109E+01 -4.79843E+01 -4.80883E+01 -4.92696E+01 -5.11149E+01 -5.31816E+01
  -5.48409E+01 -5.68979E+01 -5.82506E+01 -5.94293E+01 -5.88726E+01 -5.80988E+01 -5.73411E+01 -5.63541E+01 -5.56475E+01 -5.51724E+01
  -5.45179E+01 -5.37060E+01 -5.25723E+01 -5.17451E+01 -5.17593E+01 -5.30705E+01 -5.64261E+01 -6.04388E+01 -6.45033E+01 -6.79141E+01
  -6.99090E+01 -7.07366E+01 -7.18011E+01 -7.47033E+01 -7.96142E+01 -8.81051E+01 -1.00880E+02 -1.14832E+02 -1.26894E+02 -1.33150E+02
