 
 $NMID
 ID=''
 FMTDAT='(2E13.5)'
 TRAMP=   1.00000E+0
 VOLUME=   1.00000E+0
 $END
  -1.68318E+4  -2.48640E+3
  -7.14159E+3   5.14186E+3
  -7.62270E+2   2.20229E+3
   1.15467E+3  -3.73335E+3
   4.60044E+2   9.63977E+2
  -1.17935E+3   8.57239E+2
  -3.96350E+3  -3.33125E+3
  -1.37067E+3  -5.82530E+2
   2.84785E+3   4.88438E+2
   1.84667E+3  -1.17317E+3
   1.09451E+2   5.19756E+2
  -1.25947E+2   9.09824E+2
  -7.86477E+2  -6.37276E+2
   4.23780E+2   1.07838E+3
   2.62859E+2   1.66562E+3
  -2.02165E+3  -6.74581E+2
  -1.02234E+3  -1.28499E+3
   1.29242E+3   1.49738E+2
   1.44897E+2   2.75884E+2
  -2.94550E+2  -6.34212E+1
   5.97762E+2  -4.92879E+2
  -8.19579E+2  -2.17268E+2
  -7.10122E+2  -2.61195E+2
   1.39624E+3   2.69098E+2
   8.69798E+2   1.16905E+3
  -1.32811E+3   4.02027E+2
   1.53797E+1  -1.42271E+3
   1.09457E+3  -4.10601E+1
  -1.81496E+2   1.97423E+3
  -6.67761E+2   3.66639E+2
   3.19800E+2  -1.57230E+3
   1.28803E+3  -2.01913E+2
  -1.37301E+2   6.32024E+2
  -6.20004E+2   4.99274E+2
  -3.19534E+1   9.25416E+2
  -6.27884E+2   6.95937E+0
  -9.25005E+2  -1.11050E+3
   1.02445E+2  -8.50459E+2
   6.84920E+2  -1.15470E+2
   6.85672E+1   2.73147E+1
  -1.90802E+1   2.52650E+2
   4.08811E+2   2.76895E+2
  -1.79136E+2  -1.78364E+2
  -7.57550E+2   8.80927E+1
  -8.01309E+2  -5.18037E+1
  -2.83767E+2  -9.09059E+2
   5.69041E+2  -1.43610E+3
   1.09419E+3  -1.96770E+2
   3.67428E+2   7.49182E+2
   1.12084E+2   4.86357E+2
  -1.59123E+2   1.34207E+2
   1.06283E+2   1.45111E+2
  -4.04153E+2   3.73053E+2
  -3.06704E+2  -5.61575E+2
   1.16806E+2  -1.48857E+2
   1.24784E+2  -8.49205E+1
   4.39087E+2  -7.23021E+1
   3.55238E+2   3.84896E+1
  -2.30331E+2   4.00888E+2
  -3.55529E+2   4.38202E+2
  -4.52042E+2   1.35827E+2
  -2.21377E+1  -3.65079E+2
  -1.91746E+1  -4.58220E+2
   1.13793E+2  -4.37830E+2
   4.48741E+2  -1.08504E+2
   4.99229E+2   3.05216E+2
   5.25338E+2   3.83900E+2
  -4.33372E+1   6.23199E+2
  -2.91044E+2   4.56111E+2
  -2.63186E+2  -1.57048E+2
  -2.69150E+1  -6.67859E+0
  -2.07637E+2   1.41772E+2
  -8.44241E+1   1.37617E+2
  -3.14689E+2  -5.33162E+2
  -4.06300E+0  -4.33875E+2
   2.80009E+2  -1.98843E+1
  -3.42578E+1   2.19726E+2
   2.48225E+1  -2.73533E+2
   9.52112E+0  -1.51523E+2
   2.15034E+1  -7.96385E+1
   2.69423E+2  -1.00203E+2
   1.79462E+2   8.31930E+1
   1.40722E+2   7.70662E+1
   2.03921E+0   6.75579E+1
   2.30418E+2   1.05945E+2
  -8.40625E+1   1.99020E+2
  -3.28735E+1   1.35951E+1
   3.94090E+1   1.34115E+2
   1.59340E+2  -3.22900E+2
  -2.15225E+2   8.30415E+1
  -1.10720E+1  -4.27941E+1
  -1.41391E+1  -7.15486E+1
  -1.23410E+1  -7.13514E+1
   1.06240E+2   1.12535E+2
   2.18158E+2  -1.83506E+1
   1.98330E+2  -1.15830E+2
   3.56685E+1   2.13869E+2
  -8.11404E+1   2.18847E+2
   1.67717E+2   2.06010E+2
   5.48888E+1  -6.74828E+1
  -1.87755E+1   2.47690E+2
  -5.95526E+1   5.25775E+1
  -4.22938E+1  -1.80604E+2
   6.65431E+1  -2.67372E+0
  -4.09147E+1   1.82750E+2
  -2.70760E+2   1.02853E+2
  -2.79528E+2  -1.63047E+1
  -1.35807E+2  -1.01612E+2
  -4.98049E+1  -1.31868E+2
  -4.55983E+1   1.81243E+2
  -8.08775E+1   1.04556E+2
  -1.04683E+2   3.43380E+2
   5.82359E-1   9.58672E+1
  -1.77913E+2  -1.61833E+2
  -1.11945E+2  -6.36265E+1
  -1.39124E+2  -2.04534E+1
   3.67949E+1  -1.34628E+2
  -2.64679E+1   1.44041E+1
   1.13277E+2  -8.20556E+1
   2.31304E+2  -1.04464E+2
   6.13507E+1   2.22189E+2
  -8.80426E+1   1.43472E+2
   2.00481E+1  -1.12515E+2
  -3.18688E+0  -1.19977E+2
   2.82655E+2  -1.44077E+2
   5.99183E+0  -1.00773E+2
   4.75813E+1  -9.15562E+1
   1.20999E+1   1.61426E+2
   4.43389E+1  -7.31326E+0
  -2.70481E+2  -1.06672E+2
  -1.07429E+2   1.43781E+1
  -8.06584E+1   6.23597E+1
   1.24601E+2  -1.24124E+2
  -6.70579E+1  -1.53243E+2
   1.32877E+2  -1.17691E+1
  -2.97887E+1  -7.65570E+1
   4.49509E+0  -2.06328E+1
  -1.32931E+2   1.42526E+1
   1.41350E+1  -6.71243E+1
  -1.86973E+2  -1.84664E+2
  -9.74288E+1   1.52532E-1
   8.75821E+0  -1.70414E+1
   1.07110E+2   2.42860E+2
   4.23984E+1   1.54288E+2
   8.04963E+1   1.43800E+2
  -4.87069E+1  -1.99073E+2
  -3.53081E+1   1.80860E+2
   7.25850E+1  -1.74628E+1
  -9.70502E+1   1.41997E+2
  -3.38762E+1  -1.17147E+2
  -2.22719E+1  -1.11126E+2
   2.88795E+1  -1.41995E+1
  -2.60413E+2   1.75093E+2
  -9.42229E+1  -1.42493E+2
  -1.48175E+2  -3.08068E+1
   4.71165E+1   3.41702E+1
   9.25149E+1  -9.26484E+1
  -2.26242E+1  -5.42166E+1
  -1.45506E+1  -3.47128E+1
  -9.49552E+1   2.71158E+1
  -1.41374E+2  -3.94664E+1
   1.64385E+2  -1.62947E+2
  -1.55686E+2   3.34474E+1
   2.73713E+2  -5.04581E+1
  -2.90028E+1  -1.59440E+2
  -4.27555E+1   5.65333E+1
   1.22170E+2  -2.15136E+2
   1.93910E+2   1.14178E+1
  -8.25946E+1  -2.68527E+2
   4.74414E+0  -2.83456E+1
  -1.47840E+1  -1.24230E+1
   8.57460E+1   1.36904E+1
  -6.16223E+0  -9.26865E+1
  -2.96416E+1  -9.92357E+1
   1.64395E+2  -7.71743E+1
   3.71726E+1   2.35891E+2
  -1.04831E+2   1.16981E+2
  -5.71506E+0  -7.37758E+1
   8.97211E+1  -1.00417E+0
   6.57854E+1  -1.07124E+2
   7.24089E+0  -1.04289E+2
  -2.08712E+0  -2.14467E+2
   4.12240E+1   1.95764E+1
  -5.69619E+0  -1.48299E+2
  -1.51319E+1  -2.04620E+2
  -1.26649E+2  -1.41787E+2
   7.30708E+1  -2.83676E+1
   4.40379E+1  -5.85248E+1
   4.71479E+1   1.40708E+2
  -1.77170E+2   1.79115E+2
   7.57767E+1   1.46368E+2
  -2.01084E+2  -2.67677E+1
  -1.41418E+2   4.44108E+1
  -2.65629E+1   1.96121E+2
   7.72664E+1   7.78408E+1
  -2.62871E+1   1.67040E+2
  -6.43020E+1   1.27590E+1
   1.70037E+2  -3.96004E+1
   9.85033E+1  -1.31435E+2
   9.46587E+1  -2.57517E+2
  -7.64260E+1   4.57123E+1
  -1.35592E+2  -5.72569E+1
  -3.09137E+2   2.43532E+2
  -2.47770E+2   1.06708E+2
  -1.69750E+2   3.55890E+1
  -9.72256E+1  -7.59832E+1
  -4.37883E+0  -1.73610E+2
  -1.13671E+2   1.14526E+2
   3.16503E+0   7.20115E+1
   1.04827E+2  -7.69453E+0
   8.49294E+1   5.80151E+1
   5.89640E+1  -6.26095E+1
   6.90623E+1  -1.07263E+2
   2.35449E+1  -2.46857E+0
  -9.45622E+1  -1.84425E+0
   3.83696E+1  -7.20054E+1
   1.40384E+2   3.09839E+1
   5.48627E+0  -6.09246E+1
   1.42428E+2  -6.04314E+1
   6.33802E+1  -1.99146E+2
   8.87149E+1  -2.58855E+1
   6.50207E+1  -4.39319E+1
   1.46745E+0   1.20278E+2
   9.56762E-1  -1.26050E+2
   1.34943E+2   4.67405E+1
  -1.54266E+1   6.40121E+1
  -7.24128E+0   2.23839E+2
  -2.33752E+1   4.44191E+1
   1.14936E+2   1.80061E+1
  -1.38804E+2   4.68572E+0
  -6.66639E+1   6.82219E+1
   2.57320E+2   1.21399E+2
  -3.69134E+0  -1.30244E+1
   1.61685E+2  -5.91958E+1
  -3.23645E+1   2.02665E+2
   2.83107E+1   1.29236E+2
  -2.85702E+1   8.63222E+1
   5.83383E+1   9.63305E+1
   9.69042E+1  -1.19791E+2
   2.41344E+2  -2.81026E+0
   1.55755E+2   1.12462E+2
  -6.74685E+1   4.88483E+1
  -4.11394E+1   1.34330E+2
   7.55736E+0  -1.36202E+1
  -8.24470E+1   1.73894E+2
   3.54728E+1   7.98797E+1
  -2.01016E+2   1.00277E+2
   2.93638E+2  -4.25112E+1
  -1.56611E+2  -3.75949E+1
  -7.68371E+1   5.32243E+1
   1.18530E+2   1.99712E+1
   1.08765E+2  -5.77273E+1
   7.81717E+0  -6.96491E+1
  -1.28943E+2   1.24185E+2
   5.34680E+1  -7.46262E+1
  -1.43644E+2   2.48633E+2
  -2.50051E+2   9.63408E+1
  -2.93963E+1   1.43200E+1
   2.50740E+1  -1.57388E+2
   3.10996E+1   4.61234E+1
  -1.15629E+2  -2.59001E+1
  -6.02951E+1   2.72660E+0
   2.38523E+2  -1.85210E+1
   3.33561E+2   1.21380E+2
  -4.03508E+1   1.70604E+1
   2.12818E+2   1.31625E+2
  -1.42873E+1  -1.91725E+2
   2.94957E+2   4.03908E+1
   1.85915E+2   6.29630E+1
   1.25357E+2   2.02092E+1
  -1.27813E+2  -3.34403E+1
   2.26713E+2   7.51562E+1
   1.81550E+2   4.76978E+1
   2.70479E+1   2.98030E+2
   1.23719E+2  -1.14694E+2
   1.25681E+2  -8.69590E+1
   3.66766E+1  -2.14325E+2
   2.59282E+2   1.42211E+2
  -6.65250E+1   2.91685E+1
   3.75989E+0   8.73005E+0
  -3.35519E+1   4.08539E+1
   1.13071E+2  -1.05401E+2
  -1.05600E+2  -3.15704E+1
   3.85106E+1   1.30556E+2
   3.69568E+1   2.01076E+1
   1.78888E+2  -2.53610E+1
   1.61527E+2  -1.33801E+2
   1.84407E+2   3.67404E+2
  -2.37399E+2  -1.21130E+1
   4.74894E+1  -3.26717E+2
  -1.21317E+2  -6.36005E+1
  -1.85560E+1   1.22211E+2
  -2.06009E+2  -5.05210E+0
   9.02992E+1  -5.46998E+1
   1.15621E+2  -2.16217E+1
   2.43885E+2   3.09732E+1
   8.17435E+0   7.97161E+1
  -1.20635E+2  -2.60245E+1
  -9.85530E+1  -1.30230E+2
   1.16020E+2  -8.17783E+1
   1.73369E+2  -1.95038E+2
   7.06669E+1   1.41990E+2
   1.43592E+2   3.97344E+1
   2.38178E+2   1.25351E+2
  -5.68247E+1   3.00220E+0
   1.87842E+2  -8.53755E+1
   6.17613E+1  -4.86934E+1
   1.99723E+1   6.10439E+1
  -1.37025E+2   8.24426E+0
   9.96799E+1   1.58003E+2
  -1.70091E+2  -7.92976E+1
   1.13444E+1   1.07992E+2
   1.95884E+2  -5.40286E+1
   9.25604E+1   7.52423E+1
   1.65131E+1  -9.91915E+1
  -1.46066E+1   1.49531E+2
  -1.24225E+2  -1.04333E+2
   1.14887E+2   2.92354E+1
  -7.76633E+1  -1.64858E+2
  -7.20528E+1   3.55714E+1
  -2.77561E+1  -3.23263E+1
  -1.73979E+2   6.22612E+1
   1.00328E+2  -8.72424E+1
   1.99918E+2  -6.71958E+1
  -3.20583E+2   1.05497E+1
  -7.30836E+1   1.52955E+1
  -1.95069E+2  -1.77338E+2
   1.59924E+1  -1.01332E+2
  -8.40243E+1   8.44902E+1
   1.31399E+2   8.71276E+0
  -9.65750E+1  -3.55143E+1
  -1.25589E+2   7.44197E+1
  -8.52042E+1   1.96720E+2
  -3.20555E+2  -8.87951E+1
  -3.90905E+0   1.12282E+2
  -2.65276E+2   2.89484E+0
  -6.80510E+1   8.52967E+1
  -3.46925E+1  -3.12907E+2
   5.20946E+1   2.85010E+2
   1.23685E+2   9.37947E+1
  -5.17782E+1  -1.12350E+2
  -2.39448E+2   1.42602E+1
   1.41375E+2  -1.95991E+2
  -1.39500E+2   1.29841E+1
  -9.47824E+1   1.96469E+2
  -9.14598E+1   5.33984E+1
   5.47835E+1   6.11078E+0
   2.07171E+1   7.43567E+0
   2.64441E+1   2.16568E+1
   2.56899E+0  -1.69211E+2
  -2.32657E+1  -3.06164E+1
  -4.48599E+0  -3.57160E+1
   4.15022E+1   2.23046E+2
  -6.11452E+1   1.09401E+2
  -1.37552E+2  -4.87689E+1
   1.14575E+2   1.47665E+2
  -4.40427E+1   2.41621E+2
  -2.15960E+1   1.13061E+2
  -4.00457E+1   9.43758E+1
  -5.73138E+1  -9.85601E+1
  -6.45776E+1   1.44322E+2
  -3.22285E+1   1.12240E+2
   1.95583E+2   3.57113E+2
   9.05010E+1  -1.06477E+2
  -1.26887E+2   6.65403E+1
   1.46823E+2   1.67815E+2
   2.17386E+2   1.94971E+2
