 
 $NMID
 ID=''
 FMTDAT='(2E13.5)'
 TRAMP=   1.00000E+0
 VOLUME=   1.00000E+0
 $END
  -2.40050E+4   5.65585E+3
  -4.63055E+3   2.09143E+4
   2.49729E+4  -3.81241E+3
  -7.54694E+2  -1.76111E+4
  -1.66944E+4   1.15108E+4
   1.01590E+4   5.48515E+3
   6.18817E+3  -1.73765E+4
  -1.09281E+4   2.90426E+3
   4.96775E+3   1.12530E+4
   7.66694E+3  -8.14650E+3
  -9.29568E+3   3.70594E+1
  -2.79072E+3   1.02597E+4
   4.69222E+3  -3.57343E+3
  -3.71504E+3  -2.41841E+3
  -2.84772E+3   5.09044E+3
   1.53297E+3  -3.83187E+3
  -8.13885E+2  -3.66554E+3
   5.33750E+2   3.60236E+3
   1.31670E+3  -7.24359E+1
  -2.07304E+3  -1.80031E+3
  -7.72372E+2   6.64809E+2
   2.10144E+2  -1.50013E+3
   4.63906E+2  -4.11956E+2
   5.79614E+2   2.21011E+3
  -1.58972E+3  -7.43732E+2
  -4.06586E+2  -1.94503E+3
   3.30735E+3   1.20539E+3
  -5.96458E+2   2.42449E+3
  -3.15462E+3   1.97092E+2
   1.03790E+3  -1.24104E+3
   1.55162E+3   7.25458E+2
  -1.37843E+3   2.48391E+3
  -1.24911E+3   2.84552E+2
  -1.42949E+3  -1.31346E+3
  -1.33189E+3  -1.12046E+3
   1.56651E+3  -2.04676E+3
   1.89911E+3  -2.41438E+2
   6.99275E+2   1.86643E+3
   4.83153E+2   1.67757E+2
   6.33337E+1  -6.26440E+2
  -7.58838E+2   1.39608E+3
  -4.14820E+2   3.04696E+2
  -4.23803E+2  -2.31811E+3
   7.63558E+2  -1.20637E+3
   1.87436E+3  -3.62335E+2
   1.28538E+3   3.61865E+1
   2.80643E+2   1.45336E+3
  -5.58470E+2   1.61781E+3
  -1.95558E+3  -6.54227E+2
  -1.26683E+3  -1.23117E+3
   4.32723E+1  -9.70313E+2
   6.13206E+1  -1.06070E+3
  -1.20305E+1  -5.41677E+2
   8.02614E+2  -6.49845E+1
   9.11083E+2  -2.55725E+1
  -2.32170E+2   5.17241E+2
  -8.54017E+2   8.05583E+2
  -8.49561E+2  -4.77829E+2
  -4.37023E+2  -1.95043E+3
   7.59465E+2  -9.45435E+2
   1.09548E+3   3.39242E+1
   5.24920E+2  -5.92677E+1
   6.21311E+2   9.57932E+2
  -7.36737E+1   1.74603E+3
  -1.40760E+3   1.10158E+3
  -2.01184E+3  -4.24150E+2
  -1.03831E+3  -1.43664E+3
   4.26833E+2  -1.37185E+3
   8.97364E+2  -4.93868E+2
   5.46390E+2   6.87163E+2
  -2.99733E+2   1.70573E+2
  -3.88180E+2  -8.71630E+2
   6.95001E+2  -8.49103E+2
   8.65793E+2   5.73014E+2
  -2.18597E+1   6.20575E+2
  -2.99121E+2  -8.51673E+1
   3.25074E+2  -3.13715E+2
   4.96979E+2   4.04626E+2
   4.09952E+2   7.38157E+2
  -3.65994E+2   5.79191E+2
  -7.01283E+2   9.31115E+1
  -5.30518E+2  -3.17707E+2
  -2.56780E+1  -5.54311E+2
  -2.67702E+2  -1.39007E+2
  -4.03512E+2   6.15848E+1
  -1.79650E+2  -6.19748E+2
   5.75100E+2  -1.03523E+3
   5.33192E+2   3.35597E+2
   1.47893E+2   3.78700E+2
  -6.00665E+1  -5.38381E+1
   5.81489E+2  -6.08095E+2
   1.04055E+3   4.16444E+2
   2.61944E+1   8.94194E+2
  -9.82008E+2   9.50021E+2
  -6.96471E+2  -2.03300E+2
  -2.19708E+2  -8.94490E+2
   5.52818E+1  -4.75264E+2
   1.06444E+2   1.44777E+2
  -1.15991E+1  -4.38853E+2
   2.47657E+2  -4.24642E+2
   8.02122E+2  -8.52449E+1
   3.33236E+2   7.47335E+2
  -4.76737E+2   4.33544E+2
  -7.00854E+2  -1.38557E+2
  -9.73118E+1  -5.38076E+2
   8.53476E+2  -2.06459E+2
   7.41592E+2   6.76555E+2
  -4.01848E+2   7.54291E+2
  -1.26528E+3  -1.83278E+2
  -3.52301E+2  -9.48059E+2
   9.64630E+2  -7.66886E+2
   1.08745E+3   4.48807E+2
   2.19467E+2   5.90079E+2
  -1.88550E+0   3.72638E+2
   4.12938E+2   4.41465E+2
   2.18422E+2   7.46673E+2
  -4.46984E+2   9.21973E+2
  -1.03418E+3   1.80585E+2
  -6.95494E+2  -7.90756E+2
   2.06240E+1  -9.97019E+2
   8.11470E+2  -5.72692E+2
   5.60133E+2   3.29285E+2
   5.54248E+2   3.02696E+2
   3.49752E+2   3.79693E+2
   2.86945E+1   5.66066E+2
  -2.44589E+2   2.73510E+2
  -1.01810E+2  -3.02465E+2
   2.19160E+2  -3.81479E+2
   4.45534E+2  -2.32244E+2
   6.23545E+2   3.10184E+2
  -6.23781E+1   5.41349E+2
  -6.27867E+2   3.44535E+2
  -4.72839E+2  -1.86845E+2
  -2.80967E+1  -5.24543E+2
   9.67720E+1   9.68118E+1
   3.61579E+1  -2.99983E+2
  -2.86743E+1  -1.94316E+2
   6.50794E+2   1.02165E+2
   6.77223E+2   4.66010E+2
  -1.23914E+1   6.99806E+2
  -3.90977E+2   4.54428E+2
  -2.45051E+2  -2.81758E+2
   1.13617E+2  -7.53933E+2
   7.48043E+2  -1.79010E+2
   3.11144E+2   6.95802E+2
   1.72211E+1   6.79384E+2
  -2.17707E+2   8.59755E+1
  -1.81935E+2   4.49882E+2
  -2.98596E+2   1.33033E+2
  -3.50736E+2   2.56981E+1
  -2.03665E+2  -3.25296E+2
  -1.02947E+1  -5.09722E+2
   4.79555E+2  -3.94183E+2
   3.63315E+2   4.78391E+2
   5.68889E+1   3.82973E+2
  -2.38010E+2   6.53554E+1
   2.54068E+2  -4.80939E+1
   1.59950E+2   2.85729E+2
   1.25074E+2   4.13969E+2
  -1.03208E+2   2.71811E+2
   9.54441E+0   2.49372E+2
  -8.28798E+1   1.33166E+2
  -2.23144E+2   4.35604E+2
  -4.60208E+2   4.60341E+1
  -2.12369E+2  -3.14823E+2
  -5.21501E+0  -2.18687E+2
   3.97871E+2   9.34105E+1
   4.58571E+1   2.12929E+2
   1.24251E+2   1.34086E+2
  -2.31301E+1   1.10629E+1
   1.87178E+2  -2.53601E+2
   3.02228E+2   9.12725E+1
  -7.64681E+1   5.50166E+2
  -9.69128E+1   2.27828E+2
  -8.83374E+1  -7.66298E+1
   2.85678E+2   7.48935E+1
   4.62814E+2   6.61758E+2
  -2.52631E+2   3.83089E+2
  -3.81669E+2  -2.88697E+2
   2.58695E+2  -4.55378E+2
   4.98342E+2   2.27751E+2
   2.42029E+2   4.31065E+2
  -1.77114E+2   4.21356E+2
  -8.48356E+1   2.87331E+2
  -4.24156E+2   1.70113E+2
  -1.18743E+2   1.12427E+1
  -6.63869E+1  -3.32952E+2
   1.27566E+1  -3.12928E+2
   3.37942E+2  -4.11338E+2
   7.12479E+2   1.86240E+2
   5.52958E+2   4.11616E+2
  -2.29378E+2   6.10102E+2
  -6.03287E+2   3.77338E+2
  -2.23188E+2  -4.19460E+0
   8.43251E+1  -1.49087E+2
   2.01602E+2  -4.47544E+1
  -1.11120E+1   4.03801E+0
  -1.07390E+2  -6.60840E+0
   3.31688E+1   1.03430E+2
  -1.90942E+0   1.38715E+2
  -3.54276E+2   3.78511E+2
  -5.15327E+2   1.31779E+2
  -1.30319E+2  -2.16767E+2
   1.44688E+2  -8.27624E+0
   8.29741E+1  -3.51348E+1
   7.64649E+1   2.73949E+2
   2.17575E+1   1.22492E+2
  -1.27148E+2  -5.43300E+1
   3.28400E+1   1.97747E+2
   1.91862E+1   3.95243E+1
  -2.06877E+1   7.39452E+1
   8.24572E-2   1.91597E+1
   5.86554E+2  -3.76133E+2
   3.34587E+2   3.25905E+2
  -3.52062E+1   4.94994E+2
  -6.17754E+2   7.57552E+1
  -3.88382E+2  -1.39619E+2
   3.12073E+1  -2.87806E+2
   1.42026E+2   9.55035E+1
   7.84151E+1   2.62799E+1
  -7.58924E+1  -1.68997E+2
   2.14818E+2   6.91541E+1
   1.26201E+2  -2.53323E+2
   1.10217E+2   2.33122E+2
  -2.60479E+2   2.51515E+2
  -2.78927E+2  -1.53619E+2
   1.86015E+2  -1.32164E+2
   2.79932E+2  -1.48209E+2
   7.98545E+1   4.93933E+2
  -5.40159E+1   1.21499E+2
  -2.64229E+2  -1.57548E+2
   1.61553E+2  -1.59824E+2
   1.24416E+2   1.79636E+2
  -6.98305E+1   3.42332E+1
  -2.84731E+2   4.28218E+1
  -1.00163E+2   4.65406E+1
   2.12482E+2  -1.00109E+2
   5.37693E+1   3.44679E+2
  -4.71504E+1   1.47707E+2
  -2.01858E+2   6.09742E+1
   3.45578E+1  -1.51223E+1
   1.59292E+2   2.48397E+1
   4.61678E+1   2.35885E+2
  -3.87695E+2   3.02423E+2
  -1.74920E+2  -7.46838E+1
   4.44403E+0  -3.66675E+1
  -5.72938E+1  -9.37214E+1
  -2.54791E+2   1.52178E+2
  -1.83797E+2   1.45306E+1
   1.56372E+2  -1.50426E+2
  -4.63333E+1   1.34758E+2
  -1.06329E+1   2.94116E+2
  -3.41346E+2   7.51575E+1
  -3.53923E+2   3.90138E+1
  -1.08755E+2  -1.05285E+2
   2.52062E+2  -3.42546E+2
   2.51662E+2   1.01458E+2
  -1.81952E+1  -2.38452E+1
  -9.30849E+1   6.21225E+1
   1.97292E+2  -5.08026E+1
  -1.72337E+0   3.12106E+2
  -2.95384E+2   2.54225E+2
  -2.03283E+2  -1.84264E+2
   1.20027E+2  -4.93266E+2
   2.80046E+2  -1.53357E+2
   2.27827E+2   2.77496E+2
   5.43370E+1   2.01792E+2
  -2.91084E+2   1.18843E+2
  -7.51508E+1  -1.57874E+1
  -2.44412E+2  -5.11223E+1
   4.13259E+1   1.15067E+2
   1.25155E+2  -2.58088E+1
   2.52237E+2  -2.13307E+2
   1.08876E+2  -1.46769E+2
   3.92373E+2   2.33623E+2
  -1.40610E+2   2.32085E+2
  -9.77586E+1   9.63113E+1
  -3.95361E+2  -1.19701E+2
  -2.24891E+1  -4.99780E+2
   6.20118E+1  -7.14387E+1
  -2.06035E+2   1.70688E+2
   1.90669E+2   1.42699E+2
   2.72334E+2  -8.69098E+1
   2.56785E+2   8.29581E+1
  -1.42844E+2   1.27309E+2
  -4.04459E+2   1.83550E+2
  -1.07831E+2  -3.89813E+2
   1.74179E+2  -2.73041E+2
   1.77006E+2  -8.54436E+1
   3.30777E+2   2.57491E+2
   7.14287E+1  -7.36506E+1
  -1.10055E+2   1.96463E+2
  -2.05606E+2  -1.86849E+1
  -2.28578E+1   2.97162E+2
  -2.36078E+2  -8.28161E+1
  -1.34761E+2   2.02124E+2
  -1.42156E+2  -2.93105E+1
   5.41484E+1  -8.71907E+1
  -1.71513E+2   1.81521E+2
  -2.79946E+1   5.01775E+0
  -2.55083E+2  -2.26481E+2
   1.58018E+2  -2.28009E+2
  -3.73262E+1   1.53070E+2
   5.71727E+1   2.27464E+2
  -3.36464E+2   1.01913E+2
  -1.74003E+2  -2.12829E+2
  -1.23881E+2   6.77853E+1
  -4.44550E+1  -2.73548E+2
  -6.51460E+1   6.96315E+1
  -1.07173E+1   8.21542E+1
  -8.72598E+1   5.24489E+1
  -2.20223E+1  -1.39293E+2
  -4.03889E+0   1.35482E+2
  -2.68408E+2   8.49555E+0
  -2.44973E+2  -3.19882E+0
  -2.45556E+2   7.53285E-1
  -2.50129E+1   5.44385E+1
   2.06106E+1   1.36265E+2
  -1.15778E+2   2.54091E+2
  -2.00034E+2   3.85328E+1
  -1.87608E+2  -6.87522E+1
  -8.68114E+1   1.82756E+2
  -2.09858E+2   1.06661E+2
  -5.77268E+1  -1.47914E+2
  -1.89601E+1  -1.55153E+2
   1.15112E+2   1.18016E+2
   2.37283E+2   1.15427E+2
  -4.17245E+1   4.61197E+2
  -2.72140E+2   2.41269E+2
  -3.67984E+1  -1.87741E+1
  -3.28930E+2   1.44841E+1
  -1.46487E+2   9.98052E+1
  -1.67077E+2  -1.06032E+2
   2.14582E+2  -2.08405E+2
   1.35702E+2   2.44464E+2
   1.96447E+1   2.72950E+2
  -1.14949E+2   1.66394E+2
  -3.80632E+2   1.24785E+2
  -7.52483E+1  -1.06212E+2
   1.44831E+2  -7.88315E+1
   9.85322E+1  -7.80202E+1
   2.35758E+2   7.34130E+1
  -1.84838E+2   1.19849E+2
  -1.64718E+1   1.19860E+2
   2.09746E+2   7.89096E+1
  -1.50565E+2   1.02975E+2
  -1.42119E+2  -1.73106E+2
  -1.43934E+2  -7.21906E+1
   3.98642E+1  -1.14011E+2
   5.69433E+1   1.43220E+2
   8.99914E+1   1.86471E+2
  -2.96769E+2  -2.17705E+1
   3.87894E+1  -8.29640E+1
  -4.36998E+1   1.70890E+2
  -3.13212E+2   1.11425E+2
   1.20900E+2  -1.92732E+2
   5.85251E+1  -8.34835E+0
   2.54348E+2  -1.34765E+2
  -3.28186E+1   2.63962E+2
  -3.63248E+1   7.86121E+1
  -1.31697E+2   1.59328E+2
  -3.03588E+2  -1.89368E+2
  -7.17572E+1  -1.19897E+2
   1.25538E+2  -1.33275E+2
   1.46248E+2   1.24724E+0
   1.66188E+2   1.37371E+2
   3.38740E+1   1.85759E+1
