 LCModel (Version 6.3-1N) Copyright: S.W. Provencher.          Ref.: Magn. Reson. Med. 30:672-679 (1993).                
 Slice_N1@19_12  28-Feb-2025 11:41:12
 27 lines in following concentration table = NCONC+1
    Conc.  %SD /Cr+PCr  Metabolite                                         
 3.16E-04   3% 3.1E-04 Mac                                                 
    3.779  18%   3.739 Cr                                                  
    4.307  15%   4.261 PCr                                                 
    8.793   9%   8.699 Ins                                                 
   10.376   7%  10.266 NAA                                                 
    6.191  11%   6.125 Tau                                                 
    0.336 195%   0.333 PCho                                                
    1.422  44%   1.406 GPC                                                 
    9.205  10%   9.107 Glu                                                 
    4.132  18%   4.088 Gln                                                 
    0.494 109%   0.489 Ala                                                 
    4.896  21%   4.844 Asc                                                 
    2.384  37%   2.359 Asp                                                 
    0.693  68%   0.686 GABA                                                
    0.745  89%   0.737 Glc                                                 
    1.916  22%   1.895 GSH                                                 
 5.72E-02 945% 5.7E-02 Lac                                                 
    1.534  28%   1.517 NAAG                                                
    0.389 227%   0.385 PE                                                  
    1.758  13%   1.739 GPC+PCho                                            
   11.910   6%  11.783 NAA+NAAG                                            
   13.336   9%  13.194 Glu+Gln                                             
    8.086   8%   8.000 Cr+PCr                                              
   11.910   6%  11.783 NAA+NAAG                                            
    8.086   8%   8.000 Cr+PCr                                              
   13.336   9%  13.194 Glu+Gln                                             
   6 lines in following misc. output table
  FWHM = 0.016 ppm    S/N =   6                                            
  Data shift = 0.024 ppm                                                   
  Ph:-149 deg       0.0 deg/ppm                                            
  alphaB,S = 7.5E+00,   4.2E-01                                            
   19 spline knots.   Ns = 5(1)                                            
   2 inflections.     2 extrema                                            
  480 points on ppm-axis = NY
      4.100000     4.091866     4.083733     4.075600     4.067466     4.059333     4.051199     4.043066     4.034933     4.026799
      4.018666     4.010532     4.002399     3.994265     3.986132     3.977998     3.969864     3.961731     3.953597     3.945463
      3.937330     3.929196     3.921062     3.912929     3.904795     3.896662     3.888528     3.880394     3.872261     3.864127
      3.855993     3.847860     3.839726     3.831592     3.823459     3.815325     3.807191     3.799058     3.790924     3.782790
      3.774657     3.766523     3.758389     3.750256     3.742122     3.733989     3.725855     3.717721     3.709588     3.701454
      3.693320     3.685187     3.677053     3.668919     3.660786     3.652652     3.644518     3.636385     3.628251     3.620117
      3.611984     3.603850     3.595716     3.587583     3.579449     3.571316     3.563182     3.555048     3.546915     3.538781
      3.530647     3.522514     3.514380     3.506246     3.498113     3.489979     3.481845     3.473712     3.465578     3.457444
      3.449311     3.441177     3.433043     3.424910     3.416776     3.408643     3.400509     3.392375     3.384242     3.376108
      3.367974     3.359841     3.351707     3.343573     3.335440     3.327306     3.319172     3.311039     3.302905     3.294771
      3.286638     3.278504     3.270370     3.262237     3.254103     3.245970     3.237836     3.229702     3.221569     3.213435
      3.205301     3.197168     3.189034     3.180900     3.172767     3.164633     3.156499     3.148366     3.140232     3.132098
      3.123965     3.115831     3.107697     3.099564     3.091430     3.083297     3.075163     3.067029     3.058896     3.050762
      3.042628     3.034495     3.026361     3.018227     3.010094     3.001960     2.993826     2.985693     2.977559     2.969425
      2.961292     2.953158     2.945024     2.936891     2.928757     2.920624     2.912490     2.904356     2.896223     2.888089
      2.879955     2.871822     2.863688     2.855554     2.847421     2.839287     2.831153     2.823020     2.814886     2.806752
      2.798619     2.790485     2.782351     2.774218     2.766084     2.757951     2.749817     2.741683     2.733550     2.725416
      2.717282     2.709149     2.701015     2.692881     2.684748     2.676614     2.668480     2.660347     2.652213     2.644079
      2.635946     2.627812     2.619678     2.611545     2.603411     2.595278     2.587144     2.579010     2.570877     2.562743
      2.554609     2.546476     2.538342     2.530208     2.522075     2.513941     2.505807     2.497674     2.489540     2.481406
      2.473273     2.465139     2.457006     2.448872     2.440738     2.432605     2.424471     2.416337     2.408204     2.400070
      2.391936     2.383803     2.375669     2.367535     2.359402     2.351268     2.343134     2.335001     2.326867     2.318733
      2.310600     2.302466     2.294333     2.286199     2.278065     2.269932     2.261798     2.253664     2.245531     2.237397
      2.229263     2.221130     2.212996     2.204862     2.196729     2.188595     2.180461     2.172328     2.164194     2.156060
      2.147927     2.139793     2.131660     2.123526     2.115392     2.107259     2.099125     2.090991     2.082858     2.074724
      2.066590     2.058457     2.050323     2.042189     2.034056     2.025922     2.017788     2.009655     2.001521     1.993387
      1.985254     1.977120     1.968987     1.960853     1.952719     1.944586     1.936452     1.928318     1.920185     1.912051
      1.903917     1.895784     1.887650     1.879516     1.871383     1.863249     1.855115     1.846982     1.838848     1.830714
      1.822581     1.814447     1.806314     1.798180     1.790046     1.781913     1.773779     1.765645     1.757512     1.749378
      1.741244     1.733111     1.724977     1.716843     1.708710     1.700576     1.692442     1.684309     1.676175     1.668041
      1.659908     1.651774     1.643641     1.635507     1.627373     1.619240     1.611106     1.602972     1.594839     1.586705
      1.578571     1.570438     1.562304     1.554170     1.546037     1.537903     1.529769     1.521636     1.513502     1.505368
      1.497235     1.489101     1.480968     1.472834     1.464700     1.456567     1.448433     1.440299     1.432166     1.424032
      1.415898     1.407765     1.399631     1.391497     1.383364     1.375230     1.367096     1.358963     1.350829     1.342695
      1.334562     1.326428     1.318295     1.310161     1.302027     1.293894     1.285760     1.277626     1.269493     1.261359
      1.253225     1.245092     1.236958     1.228824     1.220691     1.212557     1.204423     1.196290     1.188156     1.180022
      1.171889     1.163755     1.155622     1.147488     1.139354     1.131221     1.123087     1.114953     1.106820     1.098686
      1.090552     1.082419     1.074285     1.066151     1.058018     1.049884     1.041750     1.033617     1.025483     1.017349
      1.009216     1.001082     0.992949     0.984815     0.976681     0.968548     0.960414     0.952280     0.944147     0.936013
      0.927879     0.919746     0.911612     0.903478     0.895345     0.887211     0.879077     0.870944     0.862810     0.854676
      0.846543     0.838409     0.830276     0.822142     0.814008     0.805875     0.797741     0.789607     0.781474     0.773340
      0.765206     0.757073     0.748939     0.740805     0.732672     0.724538     0.716404     0.708271     0.700137     0.692003
      0.683870     0.675736     0.667603     0.659469     0.651335     0.643202     0.635068     0.626934     0.618801     0.610667
      0.602533     0.594400     0.586266     0.578132     0.569999     0.561865     0.553731     0.545598     0.537464     0.529330
      0.521197     0.513063     0.504930     0.496796     0.488662     0.480529     0.472395     0.464261     0.456128     0.447994
      0.439861     0.431727     0.423593     0.415460     0.407326     0.399192     0.391059     0.382925     0.374792     0.366658
      0.358524     0.350391     0.342257     0.334124     0.325990     0.317856     0.309723     0.301589     0.293455     0.285322
      0.277188     0.269055     0.260921     0.252787     0.244654     0.236520     0.228386     0.220253     0.212119     0.203986
 NY phased data points follow
   3.95845E+01  2.68402E+01  1.43680E+01  4.11539E+00  1.17437E+01  1.12059E+01  3.11711E+01  1.95719E+01  1.37778E+01  2.32853E+01
  -9.16921E-01  1.33182E+01 -5.92137E+00 -1.18957E+00  1.66926E+00 -2.58170E+01  2.05069E+00 -9.47743E-02 -2.07869E+01 -6.82004E+01
  -8.86511E+01 -2.31732E+01 -2.16089E+01 -1.29103E+01  5.60297E+01  5.58266E+01  4.01042E+01  4.26363E+01  5.01231E+01  5.39895E+01
   4.90590E+01  4.84738E+01  3.98375E+01  4.99688E+01  5.35899E+01  4.20950E+01  3.09806E+01  3.59398E+01  2.34334E+00 -3.75944E+01
  -2.91921E+01 -5.61471E+01 -4.38383E+01 -1.85387E+01 -1.15952E+01  2.55203E+01  4.38788E+01  6.96933E+01  8.92918E+01  8.25347E+01
   7.49263E+01  7.76413E+01  7.76556E+01  5.67116E+01  3.27715E+01  2.32857E+01  2.72165E+01  2.61837E+01 -1.86285E+01 -1.94674E+01
   2.71818E+01 -1.03537E+01 -1.17148E+01  5.32487E+01  6.68854E+01  7.25704E+01  8.60900E+01  5.96842E+01  8.42722E+00 -3.42645E+01
  -1.17772E+01  2.81415E+01 -1.08292E+01  7.64144E+00  5.39809E+01  5.59842E+01  7.34293E+01  7.86829E+01  8.44646E+01  8.15161E+01
   8.71491E+01  7.47220E+01  5.29365E+01  3.71785E+01  8.91251E+00  1.53433E+01  1.37185E+01  3.59824E+01  7.33126E+01  7.77816E+01
   8.75083E+01  8.78217E+01  9.38872E+01  9.95259E+01  9.94502E+01  1.12809E+02  1.19955E+02  1.26578E+02  1.09859E+02  1.03605E+02
   1.21179E+02  9.78356E+01  7.38934E+01  6.54070E+01  5.21833E+01  2.92080E+01  1.82961E+01  2.47976E+01  1.52317E+01 -4.03324E+01
  -1.36779E+02 -1.36878E+02 -7.68682E+01 -6.96699E+01 -4.45592E+01 -1.17909E+01 -1.80468E+01 -9.79602E-01  1.98264E+01  1.23673E+01
   1.74323E+01  1.83790E+01  4.48110E+01  6.10045E+01  4.92919E+01  6.59504E+01  7.58476E+01  9.09180E+01  1.15774E+02  1.51259E+02
   2.33712E+02  2.26691E+02  4.18437E+01 -6.80419E+01 -5.50090E+01 -6.32845E+01 -5.92118E+01 -5.27998E+01 -5.52486E+01 -3.99162E+01
  -3.02633E+01 -4.21554E+01 -4.01613E+01 -4.13310E+01 -3.63251E+01 -3.44271E+01 -4.74669E+01 -3.75656E+01 -3.94855E+01 -2.74605E+01
  -1.96991E+01 -2.53679E+01 -2.00714E+01 -1.21001E+01 -8.67462E+00 -1.04431E+00  1.35722E+00 -1.25621E+01  1.41332E+00 -5.60819E+00
  -2.11088E+00  9.87116E+00 -1.97436E+00 -4.32395E+00 -4.65445E+00  3.04819E-01 -6.36359E+00  6.43198E-01  3.59337E+00  7.34033E+00
   1.54950E+01  4.05806E+01  6.09978E+01  5.37388E+01  3.38777E+01  1.09703E+01  5.36920E+01  6.66885E+01  4.20062E+01  6.75340E+00
  -1.10795E+01  3.46568E+00 -2.47426E+01 -2.22409E+01 -1.07514E+01 -1.07860E+01 -1.73520E+01 -2.69057E+01 -1.94246E+01 -1.33509E+01
  -8.46970E+00 -1.83189E+00  1.60110E-01  9.04533E+00  3.88719E+01  2.17587E+01  1.46949E+01  2.91960E+01  2.71319E+01  1.01474E+01
  -4.62207E+00  2.83590E+01  3.68810E+01  3.69322E+01  3.24682E+01  3.17334E+01  1.54879E+01 -8.49134E+00  6.74540E+00 -1.27199E+01
  -1.83213E+01 -2.13727E+01 -1.78807E+01  1.49910E+01  2.32585E+01  6.47793E+01  9.54183E+01  8.27655E+01  8.63624E+01  5.81590E+01
   2.55015E+01  1.53585E+01  1.52586E+01  3.03342E+01  5.30947E+00  2.02989E+01  3.10116E+01  2.19861E+01  5.10606E+01  2.79992E+01
   2.82487E+01  2.42758E+01  5.02157E+00  7.36876E+00 -1.94489E+01 -1.92988E+01 -2.51421E+01 -4.24624E+01 -3.91941E+01 -4.27247E+01
  -3.57619E+01 -3.52822E+01 -2.59335E+01  4.28321E+00  5.09411E-01  8.35759E+00  1.29037E+01  1.64054E+01  1.73393E+01 -9.62005E+00
  -8.01372E+00 -3.03671E+01 -1.08878E+01 -1.37110E+01 -4.27880E+01 -9.41539E+01 -1.93291E+02  1.78470E+01  2.45033E+02  2.20097E+02
   2.05652E+02  1.86789E+02  1.69601E+02  1.43533E+02  1.37580E+02  1.33414E+02  1.03273E+02  1.10142E+02  1.05334E+02  1.06338E+02
   1.12742E+02  1.07331E+02  1.12545E+02  9.94444E+01  9.47437E+01  1.03442E+02  9.73367E+01  1.15311E+02  1.14486E+02  1.00182E+02
   1.01905E+02  9.38894E+01  1.08875E+02  9.77331E+01  7.99634E+01  1.00246E+02  9.77321E+01  9.58064E+01  1.00324E+02  7.72449E+01
   8.14791E+01  9.26404E+01  7.07856E+01  6.42960E+01  6.05598E+01  6.30093E+01  5.20701E+01  3.55348E+01  5.62139E+01  6.70676E+01
   6.01819E+01  4.49906E+01  4.88459E+01  6.99003E+01  6.10629E+01  6.01348E+01  6.79062E+01  6.08714E+01  6.64235E+01  7.18169E+01
   8.44833E+01  7.29717E+01  6.30989E+01  8.57908E+01  6.73485E+01  6.37542E+01  6.20041E+01  5.84010E+01  6.93716E+01  6.06901E+01
   6.60910E+01  6.03312E+01  5.10703E+01  4.77070E+01  5.10014E+01  3.79158E+01  4.45418E+01  6.80790E+01  4.88771E+01  4.40625E+01
   3.20697E+01  2.05409E+01  1.81687E+01  7.97761E+00  1.04635E+01  2.07741E+01  1.79184E+01  2.06326E+01  4.25453E+01  4.96488E+01
   5.26473E+01  4.03399E+01  4.26707E+01  3.84022E+01  3.35120E+01  5.31854E+01  5.61494E+01  7.36581E+01  7.40122E+01  6.73372E+01
   7.14471E+01  6.44372E+01  5.88701E+01  6.20168E+01  5.24183E+01  4.01581E+01  3.22959E+01  1.17518E+01  2.32091E+01  2.24178E+01
   1.21824E+01  2.01608E+01  2.07774E+01  2.01662E+01  2.53369E+01  3.84262E+01  3.34045E+01  3.60711E+01  4.73561E+01  5.62642E+01
   5.89452E+01  5.92724E+01  6.41103E+01  6.57158E+01  7.04317E+01  7.42191E+01  8.51292E+01  8.73790E+01  8.45703E+01  9.26437E+01
   1.11083E+02  1.07995E+02  1.07206E+02  1.29448E+02  1.35129E+02  1.51147E+02  1.67873E+02  1.71962E+02  1.73156E+02  1.85979E+02
   1.85490E+02  1.59463E+02  1.34704E+02  1.07279E+02  1.02752E+02  9.66030E+01  8.59233E+01  9.55861E+01  8.87092E+01  6.75660E+01
   6.35915E+01  5.15480E+01  3.31705E+01  2.11238E+01  3.20548E+00  4.74852E-01  6.05390E+00  1.17683E+01  1.06936E+01  8.44172E+00
  -1.57230E-01 -1.78929E+00 -3.45637E+00 -1.07395E+01  1.58825E+01  7.96432E+00 -1.19679E+01  1.55213E+00  1.16653E+01  8.54315E+00
  -1.68241E+00  8.47429E-01 -7.00700E+00 -7.87893E+00 -8.38031E+00 -4.19556E+00  1.11567E+01  2.12551E+00  5.56272E+00 -3.17703E+00
  -2.29696E+01  1.84147E+00  1.54289E+01  5.30460E+00  1.19714E+01  3.71651E+00 -2.52405E+00  6.02548E+00 -8.34451E+00  3.16598E+00
   8.81686E+00 -1.34144E+01  1.15507E+01 -6.47656E-01 -1.76239E+01  1.11439E+01 -7.57795E+00  6.38204E+00  1.70097E+01 -8.91286E+00
   6.50264E+00  6.31042E+00  7.04235E+00  1.20870E+01  5.91648E+00  3.45886E+00  4.31692E+00  1.30911E+01  6.12817E+00  8.76350E+00
   2.19004E+00  6.75511E-01  1.92586E+01  3.10091E+00  5.60133E-01  1.33596E+01  1.44403E+01  3.81882E+00 -2.14233E+00  2.16643E+01
   1.31670E+01  2.47001E+00  1.16631E+01 -5.05738E+00 -7.12492E-01  1.84807E+01  1.83750E+01  1.17010E+01  7.09341E+00  1.25323E+01
 NY points of the fit to the data follow
   9.83219E+00 -3.96708E-01 -1.66016E+01 -3.46203E+01 -3.09721E+01  9.89279E+00  4.38091E+01  3.84632E+01  2.24733E+01  1.03161E+01
   6.67149E-01 -5.66620E+00  3.18410E-01  6.54920E+00  8.86007E+00  9.43866E+00  2.35494E+00 -1.02796E+01 -3.04430E+01 -5.54079E+01
  -7.91806E+01 -3.54477E+01 -8.81537E+00 -5.12166E+00  5.06933E+01  6.82153E+01  5.49976E+01  6.37137E+01  6.88710E+01  6.76367E+01
   6.68547E+01  6.52253E+01  6.48225E+01  6.33073E+01  5.96220E+01  5.49527E+01  5.10817E+01  4.57023E+01  2.86311E+01 -3.04971E+00
  -4.46652E+01 -5.14946E+01 -2.76433E+01 -1.69731E+01 -2.64284E+00  2.94354E+01  5.70168E+01  6.51537E+01  7.53768E+01  8.25603E+01
   7.79067E+01  7.59231E+01  7.08745E+01  5.46287E+01  3.73518E+01  2.52958E+01  2.73429E+01  3.05185E+01 -5.31954E+00 -1.35081E+01
   2.41275E+01  1.50211E+01  1.58726E+01  5.96336E+01  7.75298E+01  8.37690E+01  9.10706E+01  7.48251E+01  2.29180E+01 -2.42589E+01
  -7.51567E+00  9.99134E+00 -3.40022E+00  2.08784E+01  5.82209E+01  7.02965E+01  7.66972E+01  8.25500E+01  8.54505E+01  8.74034E+01
   8.74376E+01  7.54126E+01  6.02076E+01  3.39220E+01  1.09443E+01  1.33123E+01  1.76082E+01  3.61957E+01  5.81859E+01  6.61227E+01
   7.34457E+01  7.90804E+01  8.26707E+01  8.67830E+01  9.10947E+01  9.75106E+01  1.02858E+02  1.05244E+02  1.00711E+02  8.97342E+01
   9.75376E+01  9.89201E+01  7.90915E+01  6.71171E+01  5.57040E+01  1.78685E+01  1.46702E+01  4.11149E+01  3.87915E+01 -3.41093E+01
  -1.34473E+02 -1.22661E+02 -7.25708E+01 -5.86319E+01 -3.32617E+01 -1.29945E+01 -5.67207E+00  8.42241E-01  7.67870E+00  1.45363E+01
   2.02274E+01  2.64412E+01  3.32235E+01  4.08303E+01  4.93309E+01  6.00058E+01  7.35290E+01  8.60344E+01  1.12956E+02  1.62016E+02
   2.13280E+02  2.15460E+02  4.40141E+01 -8.76165E+01 -6.41884E+01 -6.25430E+01 -6.40828E+01 -4.06995E+01 -3.04002E+01 -2.92679E+01
  -3.12975E+01 -3.38067E+01 -3.62742E+01 -3.67559E+01 -3.79091E+01 -4.07831E+01 -3.84590E+01 -3.48395E+01 -3.19964E+01 -2.83782E+01
  -2.49835E+01 -2.16543E+01 -1.92400E+01 -1.77238E+01 -1.43529E+01 -8.91086E+00 -6.94386E+00 -8.78144E+00 -9.75979E+00 -6.36564E+00
  -7.95423E-01  3.47923E+00  1.48186E+00 -5.46562E+00 -7.07473E+00 -4.67989E+00 -1.38958E+00  7.07095E-02 -3.90139E+00 -7.35029E+00
   5.99360E-01  2.56463E+01  4.56268E+01  3.45250E+01  1.14927E+01  1.45770E+01  3.91020E+01  5.05379E+01  3.71083E+01  1.17504E+01
  -1.27416E-01 -4.06989E+00 -1.03317E+01 -1.28416E+01 -1.35153E+01 -1.46148E+01 -1.39939E+01 -1.36468E+01 -1.23440E+01 -9.08028E+00
  -7.61870E+00 -3.27755E+00 -1.88775E+00  2.47988E+00  2.71902E+01  2.27422E+01  6.50917E+00  2.37556E+01  2.54685E+01  2.15376E+01
   1.74081E+01  1.49456E+01  3.39354E+01  3.83345E+01  3.02449E+01  2.55818E+01  2.00979E+01  1.35524E+01 -1.32277E-01 -1.34876E+01
  -1.95113E+01 -2.56499E+01 -1.97281E+01 -3.96134E+00  6.16021E+00  5.72212E+01  7.89679E+01  7.39261E+01  8.52022E+01  6.17370E+01
   3.79232E+01  3.53301E+01  3.16447E+01  3.59360E+01  4.23934E+01  4.45200E+01  4.64299E+01  4.27443E+01  3.48595E+01  2.50080E+01
   1.34184E+01  2.48183E-01 -1.29656E+01 -2.27601E+01 -3.54465E+01 -4.86186E+01 -5.30234E+01 -5.86659E+01 -6.30299E+01 -5.38938E+01
  -5.01643E+01 -4.33127E+01 -2.44251E+01 -1.61246E+01 -9.43887E-01  1.03363E+01  7.51194E+00  7.43809E+00 -2.74510E+00 -5.63545E+00
  -1.34385E+01 -2.71448E+01 -2.42682E+01 -2.49704E+01 -3.78753E+01 -1.10941E+02 -2.00826E+02  8.17134E+00  2.16781E+02  1.88310E+02
   1.83821E+02  1.84715E+02  1.49175E+02  1.30186E+02  1.23949E+02  1.20661E+02  1.16434E+02  1.11714E+02  1.08069E+02  1.04142E+02
   1.02261E+02  1.01144E+02  1.02517E+02  1.04131E+02  1.04416E+02  1.06223E+02  1.04971E+02  1.03231E+02  1.02627E+02  1.01484E+02
   9.99441E+01  9.74966E+01  9.47972E+01  9.27487E+01  9.11960E+01  8.88607E+01  8.58355E+01  8.40826E+01  8.16803E+01  7.87608E+01
   7.56393E+01  7.06891E+01  6.66072E+01  6.22406E+01  5.66027E+01  5.23468E+01  5.06601E+01  5.12895E+01  5.40809E+01  5.73082E+01
   5.99769E+01  6.27871E+01  6.65305E+01  6.98487E+01  7.25651E+01  7.53620E+01  7.76233E+01  7.93999E+01  8.17199E+01  8.55080E+01
   8.88346E+01  9.08773E+01  9.27410E+01  9.43652E+01  9.63040E+01  9.81390E+01  9.88094E+01  9.91670E+01  9.96209E+01  9.80783E+01
   9.55077E+01  9.34715E+01  8.73113E+01  7.81388E+01  7.28885E+01  6.57360E+01  6.20782E+01  5.91726E+01  4.85171E+01  3.69734E+01
   2.67460E+01  1.66399E+01  7.92987E+00  2.39248E+00  2.80284E-01  2.49384E+00  8.03522E+00  1.51139E+01  2.09569E+01  2.45931E+01
   2.67615E+01  2.70546E+01  2.88842E+01  3.36376E+01  3.77157E+01  4.33943E+01  4.82322E+01  4.95253E+01  5.01337E+01  5.05649E+01
   5.08479E+01  4.91577E+01  4.63133E+01  4.25546E+01  3.58084E+01  2.87143E+01  2.38932E+01  2.11254E+01  2.01435E+01  2.11466E+01
   2.36705E+01  2.68042E+01  3.09365E+01  3.54089E+01  4.02334E+01  4.40603E+01  4.74884E+01  5.10520E+01  5.38473E+01  5.72363E+01
   6.08219E+01  6.39234E+01  6.68459E+01  7.01928E+01  7.41273E+01  7.77370E+01  8.28425E+01  8.80841E+01  9.33403E+01  1.00580E+02
   1.08722E+02  1.15465E+02  1.22958E+02  1.32985E+02  1.43243E+02  1.52246E+02  1.60276E+02  1.64730E+02  1.63497E+02  1.54116E+02
   1.39370E+02  1.23722E+02  1.10428E+02  1.00195E+02  9.14091E+01  8.61446E+01  8.10823E+01  7.27194E+01  6.18779E+01  5.13728E+01
   4.02292E+01  2.90044E+01  2.18709E+01  1.74211E+01  1.25899E+01  9.64313E+00  8.35749E+00  7.76035E+00  6.89472E+00  5.69397E+00
   4.70601E+00  3.56303E+00  3.39123E+00  3.62447E+00  3.50736E+00  2.88497E+00  3.47308E+00  4.45197E+00  4.01118E+00  2.81245E+00
   2.99877E+00  4.90192E+00  4.57399E+00  3.80614E+00  4.41647E+00  4.91528E+00  4.82305E+00  4.41591E+00  4.40038E+00  5.05497E+00
   6.29209E+00  6.52845E+00  6.24752E+00  6.05331E+00  5.83545E+00  5.44773E+00  6.14428E+00  6.90600E+00  6.80631E+00  7.51106E+00
   7.79005E+00  7.79553E+00  8.27324E+00  8.86614E+00  8.66689E+00  8.23751E+00  7.76096E+00  7.93161E+00  8.96575E+00  8.97958E+00
   9.29063E+00  1.00168E+01  9.14343E+00  8.89078E+00  9.90260E+00  1.04276E+01  1.04162E+01  1.11051E+01  1.10646E+01  1.12375E+01
   1.17074E+01  1.22492E+01  1.19648E+01  1.16506E+01  1.17675E+01  1.14555E+01  1.15036E+01  1.18670E+01  1.30544E+01  1.45229E+01
   1.48310E+01  1.43304E+01  1.35344E+01  1.31917E+01  1.34944E+01  1.41599E+01  1.42965E+01  1.44299E+01  1.52461E+01  1.49311E+01
 NY background values follow
     4.316E+01    4.312E+01    4.307E+01    4.302E+01    4.297E+01    4.292E+01    4.288E+01    4.283E+01    4.278E+01    4.273E+01
     4.269E+01    4.264E+01    4.259E+01    4.254E+01    4.249E+01    4.245E+01    4.240E+01    4.235E+01    4.230E+01    4.226E+01
     4.221E+01    4.216E+01    4.211E+01    4.206E+01    4.202E+01    4.197E+01    4.192E+01    4.187E+01    4.183E+01    4.178E+01
     4.173E+01    4.168E+01    4.164E+01    4.159E+01    4.154E+01    4.149E+01    4.144E+01    4.140E+01    4.135E+01    4.130E+01
     4.125E+01    4.121E+01    4.116E+01    4.111E+01    4.106E+01    4.101E+01    4.097E+01    4.092E+01    4.087E+01    4.082E+01
     4.078E+01    4.073E+01    4.068E+01    4.063E+01    4.059E+01    4.054E+01    4.049E+01    4.044E+01    4.039E+01    4.035E+01
     4.030E+01    4.025E+01    4.020E+01    4.016E+01    4.011E+01    4.006E+01    4.001E+01    3.996E+01    3.992E+01    3.987E+01
     3.982E+01    3.977E+01    3.973E+01    3.968E+01    3.963E+01    3.958E+01    3.954E+01    3.949E+01    3.944E+01    3.939E+01
     3.934E+01    3.930E+01    3.925E+01    3.920E+01    3.915E+01    3.911E+01    3.906E+01    3.901E+01    3.896E+01    3.891E+01
     3.887E+01    3.882E+01    3.877E+01    3.872E+01    3.867E+01    3.863E+01    3.858E+01    3.853E+01    3.848E+01    3.844E+01
     3.839E+01    3.834E+01    3.829E+01    3.824E+01    3.820E+01    3.815E+01    3.810E+01    3.805E+01    3.800E+01    3.796E+01
     3.791E+01    3.786E+01    3.781E+01    3.776E+01    3.772E+01    3.767E+01    3.762E+01    3.757E+01    3.752E+01    3.748E+01
     3.743E+01    3.738E+01    3.733E+01    3.728E+01    3.724E+01    3.719E+01    3.714E+01    3.709E+01    3.704E+01    3.699E+01
     3.695E+01    3.690E+01    3.685E+01    3.680E+01    3.675E+01    3.671E+01    3.666E+01    3.661E+01    3.656E+01    3.651E+01
     3.646E+01    3.642E+01    3.637E+01    3.632E+01    3.627E+01    3.622E+01    3.617E+01    3.613E+01    3.608E+01    3.603E+01
     3.598E+01    3.593E+01    3.588E+01    3.583E+01    3.579E+01    3.574E+01    3.569E+01    3.564E+01    3.559E+01    3.554E+01
     3.549E+01    3.545E+01    3.540E+01    3.535E+01    3.530E+01    3.525E+01    3.520E+01    3.515E+01    3.510E+01    3.506E+01
     3.501E+01    3.496E+01    3.491E+01    3.486E+01    3.481E+01    3.476E+01    3.471E+01    3.467E+01    3.462E+01    3.457E+01
     3.452E+01    3.447E+01    3.442E+01    3.437E+01    3.432E+01    3.427E+01    3.422E+01    3.418E+01    3.413E+01    3.408E+01
     3.403E+01    3.398E+01    3.393E+01    3.388E+01    3.383E+01    3.378E+01    3.373E+01    3.368E+01    3.363E+01    3.358E+01
     3.353E+01    3.349E+01    3.344E+01    3.339E+01    3.334E+01    3.329E+01    3.324E+01    3.319E+01    3.314E+01    3.309E+01
     3.304E+01    3.299E+01    3.294E+01    3.289E+01    3.284E+01    3.279E+01    3.274E+01    3.269E+01    3.264E+01    3.259E+01
     3.254E+01    3.249E+01    3.244E+01    3.239E+01    3.234E+01    3.229E+01    3.224E+01    3.219E+01    3.214E+01    3.209E+01
     3.204E+01    3.199E+01    3.194E+01    3.189E+01    3.184E+01    3.179E+01    3.174E+01    3.169E+01    3.164E+01    3.159E+01
     3.154E+01    3.149E+01    3.144E+01    3.139E+01    3.134E+01    3.129E+01    3.124E+01    3.119E+01    3.114E+01    3.109E+01
     3.104E+01    3.099E+01    3.094E+01    3.089E+01    3.084E+01    3.079E+01    3.074E+01    3.069E+01    3.064E+01    3.058E+01
     3.053E+01    3.048E+01    3.043E+01    3.038E+01    3.033E+01    3.028E+01    3.023E+01    3.018E+01    3.013E+01    3.008E+01
     3.003E+01    2.997E+01    2.992E+01    2.987E+01    2.982E+01    2.977E+01    2.972E+01    2.967E+01    2.962E+01    2.957E+01
     2.952E+01    2.946E+01    2.941E+01    2.936E+01    2.931E+01    2.926E+01    2.921E+01    2.916E+01    2.911E+01    2.906E+01
     2.900E+01    2.895E+01    2.890E+01    2.885E+01    2.880E+01    2.875E+01    2.870E+01    2.865E+01    2.859E+01    2.854E+01
     2.849E+01    2.844E+01    2.839E+01    2.834E+01    2.829E+01    2.823E+01    2.818E+01    2.813E+01    2.808E+01    2.803E+01
     2.798E+01    2.792E+01    2.787E+01    2.782E+01    2.777E+01    2.772E+01    2.767E+01    2.762E+01    2.756E+01    2.751E+01
     2.746E+01    2.741E+01    2.736E+01    2.731E+01    2.725E+01    2.720E+01    2.715E+01    2.710E+01    2.705E+01    2.700E+01
     2.694E+01    2.689E+01    2.684E+01    2.679E+01    2.674E+01    2.668E+01    2.663E+01    2.658E+01    2.653E+01    2.648E+01
     2.642E+01    2.637E+01    2.632E+01    2.627E+01    2.622E+01    2.617E+01    2.611E+01    2.606E+01    2.601E+01    2.596E+01
     2.591E+01    2.585E+01    2.580E+01    2.575E+01    2.570E+01    2.565E+01    2.559E+01    2.554E+01    2.549E+01    2.544E+01
     2.538E+01    2.533E+01    2.528E+01    2.523E+01    2.518E+01    2.512E+01    2.507E+01    2.502E+01    2.497E+01    2.492E+01
     2.486E+01    2.481E+01    2.476E+01    2.471E+01    2.465E+01    2.460E+01    2.455E+01    2.450E+01    2.444E+01    2.439E+01
     2.434E+01    2.429E+01    2.424E+01    2.418E+01    2.413E+01    2.408E+01    2.403E+01    2.397E+01    2.392E+01    2.387E+01
     2.382E+01    2.376E+01    2.371E+01    2.366E+01    2.361E+01    2.355E+01    2.350E+01    2.345E+01    2.340E+01    2.334E+01
     2.329E+01    2.324E+01    2.319E+01    2.313E+01    2.308E+01    2.303E+01    2.298E+01    2.292E+01    2.287E+01    2.282E+01
     2.277E+01    2.271E+01    2.266E+01    2.261E+01    2.255E+01    2.250E+01    2.245E+01    2.240E+01    2.234E+01    2.229E+01
     2.224E+01    2.219E+01    2.213E+01    2.208E+01    2.203E+01    2.198E+01    2.192E+01    2.187E+01    2.182E+01    2.176E+01
     2.171E+01    2.166E+01    2.161E+01    2.155E+01    2.150E+01    2.145E+01    2.140E+01    2.134E+01    2.129E+01    2.124E+01
     2.118E+01    2.113E+01    2.108E+01    2.103E+01    2.097E+01    2.092E+01    2.087E+01    2.082E+01    2.076E+01    2.071E+01
     2.066E+01    2.060E+01    2.055E+01    2.050E+01    2.045E+01    2.039E+01    2.034E+01    2.029E+01    2.023E+01    2.018E+01
     2.013E+01    2.008E+01    2.002E+01    1.997E+01    1.992E+01    1.987E+01    1.981E+01    1.976E+01    1.971E+01    1.965E+01
     1.960E+01    1.955E+01    1.950E+01    1.944E+01    1.939E+01    1.934E+01    1.929E+01    1.923E+01    1.918E+01    1.913E+01
 Mac      Conc. = 3.16E-04
   2.09877E+01  2.00119E+01  1.97810E+01  1.94973E+01  1.94649E+01  1.94893E+01  1.85022E+01  1.61517E+01  1.34680E+01  1.08677E+01
   9.14368E+00  8.46514E+00  8.69257E+00  9.07474E+00  9.66691E+00  8.29687E+00  3.70354E+00 -3.90247E-01  6.78749E-01  9.07390E+00
   1.51500E+01  1.77895E+01  2.41893E+01  2.90309E+01  2.94224E+01  2.93899E+01  3.03414E+01  3.16087E+01  3.33004E+01  3.62934E+01
   3.89005E+01  4.00055E+01  4.13937E+01  4.29712E+01  4.32655E+01  4.18649E+01  3.98164E+01  3.96795E+01  4.28347E+01  4.76175E+01
   5.04699E+01  4.95898E+01  4.78462E+01  4.79423E+01  4.90784E+01  5.14861E+01  5.34502E+01  5.36411E+01  5.31736E+01  5.18568E+01
   5.00076E+01  4.77106E+01  4.60746E+01  4.51210E+01  4.42711E+01  4.38605E+01  4.30986E+01  4.30733E+01  4.49340E+01  4.72165E+01
   4.78239E+01  4.94736E+01  5.28757E+01  5.33441E+01  5.21112E+01  5.11002E+01  4.90346E+01  4.83106E+01  4.80367E+01  4.66547E+01
   4.49213E+01  4.59944E+01  5.09777E+01  5.49101E+01  5.65718E+01  5.82508E+01  5.83471E+01  5.76135E+01  5.62237E+01  5.44270E+01
   5.39468E+01  5.34104E+01  5.24206E+01  5.17858E+01  5.23645E+01  5.38941E+01  5.42828E+01  5.53265E+01  5.67699E+01  5.73471E+01
   5.75808E+01  5.81823E+01  5.86365E+01  5.89231E+01  5.91307E+01  5.90513E+01  5.67660E+01  5.35656E+01  5.04995E+01  4.67982E+01
   4.40231E+01  4.30885E+01  4.14344E+01  3.83078E+01  3.56685E+01  3.18964E+01  2.48247E+01  1.46064E+01  4.63054E+00 -6.56198E-01
