 LCModel (Version 6.3-1N) Copyright: S.W. Provencher.          Ref.: Magn. Reson. Med. 30:672-679 (1993).                
 Slice_N1@23_15  28-Feb-2025 11:44:02
 27 lines in following concentration table = NCONC+1
    Conc.  %SD /Cr+PCr  Metabolite                                         
 2.56E-04   6% 4.2E-04 Mac                                                 
    4.834  27%   8.000 Cr                                                  
    0.000 999%   0.000 PCr                                                 
    8.713  20%  14.418 Ins                                                 
    3.500  47%   5.792 NAA                                                 
    5.707  41%   9.444 Tau                                                 
    0.000 999%   0.000 PCho                                                
    1.639  26%   2.713 GPC                                                 
   17.039  12%  28.196 Glu                                                 
    3.187  54%   5.274 Gln                                                 
    0.000 999%   0.000 Ala                                                 
    3.392  77%   5.613 Asc                                                 
    1.820  71%   3.012 Asp                                                 
    1.036  73%   1.714 GABA                                                
    1.144  72%   1.893 Glc                                                 
    5.689  18%   9.413 GSH                                                 
   14.469  10%  23.943 Lac                                                 
    6.155  23%  10.185 NAAG                                                
    0.000 999%   0.000 PE                                                  
    1.639  26%   2.713 GPC+PCho                                            
    9.655  15%  15.977 NAA+NAAG                                            
   20.226  13%  33.470 Glu+Gln                                             
    4.834  27%   8.000 Cr+PCr                                              
    9.655  15%  15.977 NAA+NAAG                                            
    4.834  27%   8.000 Cr+PCr                                              
   20.226  13%  33.470 Glu+Gln                                             
   6 lines in following misc. output table
  FWHM = 0.114 ppm    S/N =   2                                            
  Data shift =-0.057 ppm                                                   
  Ph: -91 deg       0.0 deg/ppm                                            
  alphaB,S = 1.3E-01,   5.1E+01                                            
   18 spline knots.   Ns =11(1)                                            
  (16) 6 infls.   (14) 3 extrs.                                            
  480 points on ppm-axis = NY
      4.100000     4.091866     4.083733     4.075600     4.067466     4.059333     4.051199     4.043066     4.034933     4.026799
      4.018666     4.010532     4.002399     3.994265     3.986132     3.977998     3.969864     3.961731     3.953597     3.945463
      3.937330     3.929196     3.921062     3.912929     3.904795     3.896662     3.888528     3.880394     3.872261     3.864127
      3.855993     3.847860     3.839726     3.831592     3.823459     3.815325     3.807191     3.799058     3.790924     3.782790
      3.774657     3.766523     3.758389     3.750256     3.742122     3.733989     3.725855     3.717721     3.709588     3.701454
      3.693320     3.685187     3.677053     3.668919     3.660786     3.652652     3.644518     3.636385     3.628251     3.620117
      3.611984     3.603850     3.595716     3.587583     3.579449     3.571316     3.563182     3.555048     3.546915     3.538781
      3.530647     3.522514     3.514380     3.506246     3.498113     3.489979     3.481845     3.473712     3.465578     3.457444
      3.449311     3.441177     3.433043     3.424910     3.416776     3.408643     3.400509     3.392375     3.384242     3.376108
      3.367974     3.359841     3.351707     3.343573     3.335440     3.327306     3.319172     3.311039     3.302905     3.294771
      3.286638     3.278504     3.270370     3.262237     3.254103     3.245970     3.237836     3.229702     3.221569     3.213435
      3.205301     3.197168     3.189034     3.180900     3.172767     3.164633     3.156499     3.148366     3.140232     3.132098
      3.123965     3.115831     3.107697     3.099564     3.091430     3.083297     3.075163     3.067029     3.058896     3.050762
      3.042628     3.034495     3.026361     3.018227     3.010094     3.001960     2.993826     2.985693     2.977559     2.969425
      2.961292     2.953158     2.945024     2.936891     2.928757     2.920624     2.912490     2.904356     2.896223     2.888089
      2.879955     2.871822     2.863688     2.855554     2.847421     2.839287     2.831153     2.823020     2.814886     2.806752
      2.798619     2.790485     2.782351     2.774218     2.766084     2.757951     2.749817     2.741683     2.733550     2.725416
      2.717282     2.709149     2.701015     2.692881     2.684748     2.676614     2.668480     2.660347     2.652213     2.644079
      2.635946     2.627812     2.619678     2.611545     2.603411     2.595278     2.587144     2.579010     2.570877     2.562743
      2.554609     2.546476     2.538342     2.530208     2.522075     2.513941     2.505807     2.497674     2.489540     2.481406
      2.473273     2.465139     2.457006     2.448872     2.440738     2.432605     2.424471     2.416337     2.408204     2.400070
      2.391936     2.383803     2.375669     2.367535     2.359402     2.351268     2.343134     2.335001     2.326867     2.318733
      2.310600     2.302466     2.294333     2.286199     2.278065     2.269932     2.261798     2.253664     2.245531     2.237397
      2.229263     2.221130     2.212996     2.204862     2.196729     2.188595     2.180461     2.172328     2.164194     2.156060
      2.147927     2.139793     2.131660     2.123526     2.115392     2.107259     2.099125     2.090991     2.082858     2.074724
      2.066590     2.058457     2.050323     2.042189     2.034056     2.025922     2.017788     2.009655     2.001521     1.993387
      1.985254     1.977120     1.968987     1.960853     1.952719     1.944586     1.936452     1.928318     1.920185     1.912051
      1.903917     1.895784     1.887650     1.879516     1.871383     1.863249     1.855115     1.846982     1.838848     1.830714
      1.822581     1.814447     1.806314     1.798180     1.790046     1.781913     1.773779     1.765645     1.757512     1.749378
      1.741244     1.733111     1.724977     1.716843     1.708710     1.700576     1.692442     1.684309     1.676175     1.668041
      1.659908     1.651774     1.643641     1.635507     1.627373     1.619240     1.611106     1.602972     1.594839     1.586705
      1.578571     1.570438     1.562304     1.554170     1.546037     1.537903     1.529769     1.521636     1.513502     1.505368
      1.497235     1.489101     1.480968     1.472834     1.464700     1.456567     1.448433     1.440299     1.432166     1.424032
      1.415898     1.407765     1.399631     1.391497     1.383364     1.375230     1.367096     1.358963     1.350829     1.342695
      1.334562     1.326428     1.318295     1.310161     1.302027     1.293894     1.285760     1.277626     1.269493     1.261359
      1.253225     1.245092     1.236958     1.228824     1.220691     1.212557     1.204423     1.196290     1.188156     1.180022
      1.171889     1.163755     1.155622     1.147488     1.139354     1.131221     1.123087     1.114953     1.106820     1.098686
      1.090552     1.082419     1.074285     1.066151     1.058018     1.049884     1.041750     1.033617     1.025483     1.017349
      1.009216     1.001082     0.992949     0.984815     0.976681     0.968548     0.960414     0.952280     0.944147     0.936013
      0.927879     0.919746     0.911612     0.903478     0.895345     0.887211     0.879077     0.870944     0.862810     0.854676
      0.846543     0.838409     0.830276     0.822142     0.814008     0.805875     0.797741     0.789607     0.781474     0.773340
      0.765206     0.757073     0.748939     0.740805     0.732672     0.724538     0.716404     0.708271     0.700137     0.692003
      0.683870     0.675736     0.667603     0.659469     0.651335     0.643202     0.635068     0.626934     0.618801     0.610667
      0.602533     0.594400     0.586266     0.578132     0.569999     0.561865     0.553731     0.545598     0.537464     0.529330
      0.521197     0.513063     0.504930     0.496796     0.488662     0.480529     0.472395     0.464261     0.456128     0.447994
      0.439861     0.431727     0.423593     0.415460     0.407326     0.399192     0.391059     0.382925     0.374792     0.366658
      0.358524     0.350391     0.342257     0.334124     0.325990     0.317856     0.309723     0.301589     0.293455     0.285322
      0.277188     0.269055     0.260921     0.252787     0.244654     0.236520     0.228386     0.220253     0.212119     0.203986
 NY phased data points follow
   3.87833E+00 -6.20081E+00  1.21976E+00 -1.28756E+01 -4.42032E+00  1.37963E+01  1.22723E+00  7.28090E-01  3.92965E+00  4.06384E+00
  -1.28569E+00  3.12179E+00 -1.23462E+01 -7.53120E+00  8.52340E+00 -1.47631E+01 -3.23239E-01 -2.79249E+00 -2.47817E+01 -1.59636E+01
  -2.22998E+01 -2.50043E+01 -2.52352E+01 -3.40615E+01 -3.11898E+01 -3.75636E+01 -3.85244E+01 -3.19979E+01 -3.78187E+01 -2.39818E+01
  -2.81876E+01 -3.54683E+01 -3.51682E+01 -4.98378E+01 -3.74132E+01 -6.17725E+01 -7.83705E+01 -5.73392E+01 -6.70377E+01 -7.39772E+01
  -7.73927E+01 -6.70924E+01 -7.46159E+01 -6.99529E+01 -5.33078E+01 -7.05129E+01 -5.58225E+01 -5.41256E+01 -5.41874E+01 -5.20593E+01
  -4.84417E+01 -2.87684E+01 -4.25474E+01 -4.16557E+01 -3.19285E+01 -2.61175E+01 -3.76599E+01 -3.11052E+01 -1.53937E+01 -2.22120E+01
  -2.23182E+01 -4.25098E+01 -2.49591E+01 -3.03539E+01 -3.42480E+01 -2.12775E+00 -2.23932E+01 -3.19329E+01 -2.44850E+01 -3.16346E+01
  -4.15083E+01 -2.30434E+01 -3.44928E+01 -3.87799E+01 -1.91573E+01 -1.87514E+01  3.64944E-01 -2.40073E+01 -8.27194E+00  7.50015E+00
  -1.51030E+01 -6.38008E+00 -1.40843E+01 -1.09443E+01 -9.92166E+00  2.66238E+00 -1.36856E+00 -1.28612E+01 -8.31589E-01 -3.91721E+00
  -3.63800E+00  8.00788E+00  1.31316E+01 -7.10088E+00 -2.72817E+00  1.38665E+01  1.85832E+01  2.00862E+01  3.20280E+01  2.59364E+01
   6.47041E+00  2.68667E+01  1.43028E+01 -3.01706E-01 -5.34003E+00 -2.96018E+00 -5.99895E+00 -2.72113E+01 -3.07853E+01 -6.43780E+01
  -7.31094E+01 -8.45480E+01 -9.42815E+01 -8.78795E+01 -9.78312E+01 -9.04872E+01 -8.77548E+01 -6.44604E+01 -5.08186E+01 -4.49359E+01
  -4.20202E+01 -4.12806E+01 -1.46097E+01  3.03727E+00  6.45059E-01 -9.09602E+00  4.27752E+00  1.24804E+01  7.13599E+00  1.36361E+01
   2.26358E+01  1.14493E+01  6.61967E+00  2.91648E+00 -1.29485E+01 -2.00932E+01 -4.03386E+01 -4.62434E+01 -6.04696E+01 -5.87168E+01
  -5.22257E+01 -5.66482E+01 -5.26176E+01 -8.97494E+01 -8.54570E+01 -5.56710E+01 -5.31058E+01 -6.93826E+01 -8.40720E+01 -6.98968E+01
  -6.49477E+01 -6.45090E+01 -5.26209E+01 -4.82282E+01 -5.27769E+01 -4.74197E+01 -5.44990E+01 -4.11576E+01 -4.24486E+01 -4.89185E+01
  -2.15772E+01 -3.35581E+01 -3.00106E+01 -2.00212E+01 -3.76205E+01 -5.05065E+01 -3.06917E+01 -2.88956E+01 -3.89575E+01 -2.19121E+01
  -3.55322E+01 -3.07658E+01 -3.34781E+01 -3.06543E+01 -2.44901E+01 -3.07718E+01 -2.27919E+01 -3.20776E+01 -2.62330E+01 -3.69374E+01
  -3.10410E+01 -3.62974E+01 -4.99141E+01 -3.62819E+01 -4.81311E+01 -4.79189E+01 -6.19816E+01 -6.79755E+01 -5.62617E+01 -5.26064E+01
  -5.79917E+01 -5.68962E+01 -3.97107E+01 -4.16450E+01 -4.08762E+01 -3.01894E+01 -1.98604E+01 -3.28162E+01 -2.66183E+01 -2.83238E+01
  -3.07244E+01 -8.84180E+00 -3.36894E+01 -2.72296E+01 -3.23766E+01 -3.77154E+01 -3.09633E+01 -4.26970E+01 -2.07270E+01 -4.49164E+01
  -4.49086E+01 -4.26298E+01 -6.08571E+01 -4.42909E+01 -3.99422E+01 -3.24806E+01 -4.13338E+01 -2.30479E+01 -2.16062E+01 -2.45367E+01
  -8.13640E+00 -3.41321E+01 -1.54923E+01 -1.59703E+01 -3.23481E+01 -1.17031E+01 -1.51573E+01 -1.24420E+01 -1.80854E+01 -3.33907E+01
  -2.90715E+01 -2.27100E+01 -2.24060E+01 -1.73076E+01 -1.48838E+01 -3.49105E+01 -5.08578E+01 -4.16330E+01 -3.78481E+01 -4.44909E+01
  -3.84761E+01 -4.12882E+01 -4.75260E+01 -4.78129E+01 -6.30015E+01 -5.79913E+01 -4.76408E+01 -5.10155E+01 -4.20039E+01 -5.12398E+01
  -5.80160E+01 -4.08477E+01 -3.28099E+01 -3.89856E+01 -4.32055E+01 -2.63933E+01  1.88914E-01  1.31177E+01  2.21078E+01  4.58737E+01
   6.44104E+01  6.79558E+01  7.47787E+01  9.18724E+01  8.56068E+01  8.32064E+01  8.80093E+01  5.30292E+01  7.36390E+01  9.19660E+01
   6.64754E+01  7.30295E+01  6.33733E+01  6.50344E+01  6.43942E+01  5.85294E+01  7.37173E+01  7.09222E+01  7.17611E+01  8.62077E+01
   7.44639E+01  5.85545E+01  6.63002E+01  5.45103E+01  4.82051E+01  4.04058E+01  4.29320E+01  5.92043E+01  3.98394E+01  3.74237E+01
   3.61140E+01  4.21939E+01  4.30561E+01  1.83842E+01  2.24792E+01  2.21593E+01  2.67106E+01  2.44101E+01  6.90917E+00  2.29977E+01
   3.83413E+01  2.59603E+01  1.94375E+01  2.39526E+01  1.68935E+01  2.52705E+01  2.99928E+01  2.99203E+01  2.87491E+01  4.29275E+00
   1.68918E+01  1.25096E+01 -1.90880E-01  6.98546E+00 -1.77061E+01 -1.01979E+01 -8.63842E+00 -2.06819E+01 -1.96600E+01 -2.46695E+01
  -1.85313E+01 -2.82244E+01 -2.71604E+01 -8.99867E+00  1.69031E-01  2.79011E+00  1.80982E+01  3.44758E+01  3.25314E+01  4.50644E+01
   4.84060E+01  5.70868E+01  5.73846E+01  2.06208E+01  2.57255E+01  2.32452E+01  4.47480E+00  1.40414E+01 -2.50662E+00  1.33358E+00
   2.35587E+00 -1.49057E+01  9.09668E+00  3.53096E+00 -2.21915E+01 -2.19711E+01 -2.09767E+01 -1.42937E+01 -2.05997E+01 -3.64209E+01
  -3.55060E+01 -4.00918E+01 -5.27842E+01 -7.61909E+01 -8.86212E+01 -8.87399E+01 -1.01489E+02 -9.57713E+01 -9.68479E+01 -9.64304E+01
  -8.26440E+01 -7.80575E+01 -7.18912E+01 -5.83651E+01 -4.40746E+01 -4.74635E+01 -3.68973E+01 -3.42119E+01 -3.99820E+01 -2.10261E+01
  -4.44382E-01  1.34067E+00  5.39444E+00  2.42599E+01  9.98577E+00  1.28654E+01  2.11784E+01  1.98093E+01  4.46675E+01  3.64877E+01
   2.38261E+01  2.50809E+01  4.00493E+01  4.99665E+01  3.70040E+01  6.06982E+01  7.15744E+01  5.98473E+01  6.29359E+01  6.04129E+01
   8.01347E+01  8.06422E+01  7.03515E+01  5.83594E+01  3.03327E+01  5.70804E+01  5.21130E+01  1.91394E+01  2.84929E+01  2.48131E+01
   1.41208E+01  6.63302E+00 -4.99004E+00 -2.06696E+01 -2.46260E+01 -3.54535E+01 -5.26633E+01 -4.01403E+01 -4.43605E+01 -6.67483E+01
  -4.66868E+01 -3.84176E+01 -5.05785E+01 -4.21883E+01 -4.22925E+01 -4.10177E+01 -4.76854E+01 -5.38942E+01 -5.88995E+01 -5.06065E+01
  -4.36152E+01 -5.20148E+01 -3.18244E+01 -3.20458E+01 -4.18493E+01 -4.90333E+01 -4.76355E+01 -4.03373E+01 -4.34498E+01 -3.11410E+01
  -3.43518E+01 -4.73028E+01 -4.60520E+01 -3.52396E+01 -4.25431E+01 -4.81802E+01 -3.87917E+01 -3.45523E+01 -4.01595E+01 -3.60138E+01
  -3.04777E+01 -5.36036E+01 -5.31373E+01 -4.19879E+01 -2.71500E+01 -2.87279E+01 -3.87272E+01 -2.95597E+01 -3.46730E+01 -2.07343E+01
  -2.67973E+01 -4.15860E+01 -2.70705E+01 -1.86870E+01 -2.22969E+01 -3.05927E+01 -3.00790E+01 -3.14882E+01 -3.13860E+01 -2.45645E+01
  -2.81157E+01 -3.54926E+01 -3.50210E+01 -2.83600E+01 -1.47636E+01 -2.32371E+01 -3.05886E+01 -2.72684E+01 -3.70482E+01 -2.69076E+01
  -1.48521E+01 -2.31312E+01 -3.95164E+01 -4.25089E+01 -3.89224E+01 -3.45464E+01 -1.82839E+01 -1.67153E+01 -1.78460E+01 -1.64658E+01
 NY points of the fit to the data follow
  -3.56122E+01 -3.44822E+01 -3.31729E+01 -3.13828E+01 -2.89967E+01 -2.61658E+01 -2.32361E+01 -2.03746E+01 -1.76824E+01 -1.55764E+01
  -1.43277E+01 -1.38675E+01 -1.46584E+01 -1.60445E+01 -1.73278E+01 -1.76697E+01 -1.76060E+01 -1.88880E+01 -2.15504E+01 -2.44302E+01
  -2.66315E+01 -2.79242E+01 -2.82645E+01 -2.75558E+01 -2.59127E+01 -2.34205E+01 -2.06637E+01 -1.84337E+01 -1.70947E+01 -1.67954E+01
  -1.84038E+01 -2.05163E+01 -2.14463E+01 -2.05545E+01 -1.93864E+01 -2.11676E+01 -2.64867E+01 -3.27721E+01 -3.90491E+01 -4.48118E+01
  -4.97613E+01 -5.36194E+01 -5.60303E+01 -5.69025E+01 -5.67516E+01 -5.60025E+01 -5.52184E+01 -5.44675E+01 -5.27664E+01 -4.96268E+01
  -4.44223E+01 -3.73385E+01 -3.13786E+01 -2.89495E+01 -2.59756E+01 -2.23804E+01 -1.83987E+01 -1.56253E+01 -1.43112E+01 -1.51574E+01
  -1.75473E+01 -2.01619E+01 -2.21419E+01 -2.33916E+01 -2.37228E+01 -2.33887E+01 -2.33713E+01 -2.39857E+01 -2.48938E+01 -2.58431E+01
  -2.51950E+01 -2.32784E+01 -2.16697E+01 -1.88570E+01 -1.55700E+01 -1.42157E+01 -1.43711E+01 -1.56781E+01 -1.73133E+01 -1.81676E+01
  -1.71904E+01 -1.45686E+01 -1.25719E+01 -1.13303E+01 -9.33865E+00 -7.50232E+00 -6.43093E+00 -5.34641E+00 -3.92100E+00 -2.46530E+00
  -1.46917E+00 -6.18268E-01  4.69130E-01  1.86443E+00  4.09237E+00  7.05745E+00  9.54948E+00  1.14635E+01  1.32092E+01  1.36099E+01
   1.18724E+01  8.00812E+00  2.57184E+00 -3.57762E+00 -9.66492E+00 -1.56829E+01 -2.20758E+01 -2.90054E+01 -3.61609E+01 -4.33193E+01
  -5.02114E+01 -5.63352E+01 -6.16398E+01 -6.51666E+01 -6.59166E+01 -6.47474E+01 -6.26365E+01 -6.00634E+01 -5.90273E+01 -5.78723E+01
  -5.35432E+01 -4.36305E+01 -3.31180E+01 -2.47579E+01 -1.87163E+01 -1.46376E+01 -1.18847E+01 -9.56668E+00 -7.20767E+00 -5.26221E+00
  -4.22908E+00 -4.36448E+00 -6.11212E+00 -9.49704E+00 -1.43435E+01 -1.98842E+01 -2.50316E+01 -2.90538E+01 -3.16660E+01 -3.38689E+01
  -3.76406E+01 -4.41805E+01 -5.28607E+01 -6.05863E+01 -6.33885E+01 -6.30819E+01 -6.26962E+01 -6.21046E+01 -6.16896E+01 -6.18957E+01
  -6.24717E+01 -6.27526E+01 -6.26371E+01 -6.18236E+01 -6.05823E+01 -5.92668E+01 -5.74710E+01 -5.57202E+01 -5.40331E+01 -5.25277E+01
  -5.10680E+01 -4.95348E+01 -4.76963E+01 -4.55890E+01 -4.35744E+01 -4.19666E+01 -4.09052E+01 -4.01072E+01 -3.90464E+01 -3.76238E+01
  -3.61688E+01 -3.51086E+01 -3.46767E+01 -3.46895E+01 -3.48708E+01 -3.52626E+01 -3.60492E+01 -3.72074E+01 -3.83382E+01 -3.90361E+01
  -3.94349E+01 -4.00011E+01 -4.13899E+01 -4.32937E+01 -4.46263E+01 -4.45880E+01 -4.35643E+01 -4.23349E+01 -4.12053E+01 -4.01653E+01
  -3.86410E+01 -3.64728E+01 -3.41330E+01 -3.18763E+01 -2.98270E+01 -2.80527E+01 -2.65600E+01 -2.53756E+01 -2.44160E+01 -2.38172E+01
  -2.37517E+01 -2.43544E+01 -2.60107E+01 -2.82398E+01 -3.10821E+01 -3.47541E+01 -3.88314E+01 -4.24308E+01 -4.48060E+01 -4.63949E+01
  -4.72829E+01 -4.69277E+01 -4.57744E+01 -4.37711E+01 -4.09536E+01 -3.72491E+01 -3.21616E+01 -2.59878E+01 -1.95739E+01 -1.35471E+01
  -8.67467E+00 -5.26684E+00 -3.04461E+00 -1.54440E+00 -7.95107E-02  1.30732E+00  1.87833E+00  6.12966E-01 -3.38724E+00 -1.14326E+01
  -2.04855E+01 -3.06176E+01 -4.06872E+01 -4.88774E+01 -5.57124E+01 -6.14962E+01 -6.59268E+01 -6.90800E+01 -7.10309E+01 -7.18530E+01
  -7.18928E+01 -7.12330E+01 -7.07670E+01 -7.05064E+01 -6.88049E+01 -6.49950E+01 -5.92293E+01 -5.41265E+01 -5.00295E+01 -4.59405E+01
  -4.22743E+01 -3.70483E+01 -3.05615E+01 -2.31580E+01 -1.43234E+01 -4.35975E+00  5.95123E+00  1.54733E+01  2.36285E+01  3.08950E+01
   3.78460E+01  4.58297E+01  5.56875E+01  6.61415E+01  7.43754E+01  7.61495E+01  7.48744E+01  7.55190E+01  7.65497E+01  7.58033E+01
   7.16139E+01  6.75451E+01  6.40343E+01  6.09819E+01  5.83786E+01  5.61347E+01  5.41838E+01  5.24974E+01  5.10796E+01  4.98809E+01
   4.88127E+01  4.78092E+01  4.67295E+01  4.55401E+01  4.40730E+01  4.24401E+01  4.05653E+01  3.84002E+01  3.61090E+01  3.37311E+01
   3.13807E+01  2.91206E+01  2.70311E+01  2.52222E+01  2.37396E+01  2.25615E+01  2.16943E+01  2.11485E+01  2.09154E+01  2.10145E+01
   2.14303E+01  2.21676E+01  2.32739E+01  2.46791E+01  2.63034E+01  2.80388E+01  2.97891E+01  3.14792E+01  3.31014E+01  3.46077E+01
   3.59298E+01  3.70466E+01  3.79527E+01  3.86525E+01  3.91384E+01  3.93561E+01  3.92130E+01  3.86182E+01  3.75626E+01  3.60967E+01
   3.42543E+01  3.20612E+01  2.95176E+01  2.66921E+01  2.36940E+01  2.06097E+01  1.75269E+01  1.46198E+01  1.20464E+01  9.96052E+00
   8.62825E+00  9.09092E+00  1.08654E+01  1.27162E+01  1.42051E+01  1.40387E+01  1.25279E+01  1.11126E+01  1.03817E+01  1.00794E+01
   9.39509E+00  7.04993E+00  2.18095E+00 -5.14018E+00 -1.41298E+01 -2.33563E+01 -3.14068E+01 -3.74518E+01 -4.13788E+01 -4.47115E+01
  -4.97643E+01 -5.79749E+01 -6.89147E+01 -7.87791E+01 -8.27557E+01 -8.16689E+01 -7.57198E+01 -6.69915E+01 -6.06709E+01 -5.58245E+01
  -5.17447E+01 -4.80389E+01 -4.44140E+01 -4.06754E+01 -3.68083E+01 -3.28591E+01 -2.88081E+01 -2.46884E+01 -2.05150E+01 -1.62904E+01
  -1.20213E+01 -7.68068E+00 -3.24111E+00  1.33572E+00  6.10120E+00  1.10183E+01  1.60250E+01  2.09972E+01  2.57911E+01  3.03526E+01
   3.46454E+01  3.86058E+01  4.21453E+01  4.51228E+01  4.73731E+01  4.87517E+01  4.92124E+01  4.86627E+01  4.71773E+01  4.49150E+01
   4.19939E+01  3.83976E+01  3.41015E+01  2.90775E+01  2.33291E+01  1.69985E+01  1.03821E+01  3.84702E+00 -2.25221E+00 -7.78899E+00
  -1.27422E+01 -1.72037E+01 -2.12577E+01 -2.50226E+01 -2.85234E+01 -3.16655E+01 -3.43648E+01 -3.65886E+01 -3.83118E+01 -3.95437E+01
  -4.04079E+01 -4.09868E+01 -4.13530E+01 -4.15394E+01 -4.16396E+01 -4.16781E+01 -4.16690E+01 -4.15812E+01 -4.14105E+01 -4.11682E+01
  -4.09047E+01 -4.06497E+01 -4.04030E+01 -4.01384E+01 -3.98694E+01 -3.96067E+01 -3.93162E+01 -3.89796E+01 -3.86493E+01 -3.83730E+01
  -3.80990E+01 -3.77989E+01 -3.75040E+01 -3.72190E+01 -3.69258E+01 -3.65921E+01 -3.62475E+01 -3.59292E+01 -3.56470E+01 -3.53880E+01
  -3.51344E+01 -3.48668E+01 -3.45790E+01 -3.42799E+01 -3.39661E+01 -3.36747E+01 -3.33806E+01 -3.31050E+01 -3.28265E+01 -3.25456E+01
  -3.22741E+01 -3.20130E+01 -3.17355E+01 -3.14308E+01 -3.11212E+01 -3.08060E+01 -3.05056E+01 -3.02116E+01 -2.99100E+01 -2.96217E+01
  -2.93302E+01 -2.90374E+01 -2.87599E+01 -2.84830E+01 -2.82032E+01 -2.79134E+01 -2.76253E+01 -2.73533E+01 -2.71168E+01 -2.69101E+01
  -2.67183E+01 -2.64850E+01 -2.62132E+01 -2.59040E+01 -2.55630E+01 -2.52076E+01 -2.48637E+01 -2.45358E+01 -2.41998E+01 -2.37880E+01
 NY background values follow
     2.842E+00    2.303E+00    1.761E+00    1.219E+00    6.770E-01    1.343E-01   -4.081E-01   -9.500E-01   -1.491E+00   -2.031E+00
    -2.569E+00   -3.105E+00   -3.638E+00   -4.169E+00   -4.697E+00   -5.222E+00   -5.743E+00   -6.259E+00   -6.771E+00   -7.278E+00
    -7.780E+00   -8.277E+00   -8.767E+00   -9.251E+00   -9.729E+00   -1.020E+01   -1.066E+01   -1.112E+01   -1.156E+01   -1.200E+01
    -1.243E+01   -1.285E+01   -1.327E+01   -1.367E+01   -1.406E+01   -1.444E+01   -1.481E+01   -1.518E+01   -1.553E+01   -1.587E+01
    -1.620E+01   -1.653E+01   -1.684E+01   -1.714E+01   -1.744E+01   -1.772E+01   -1.800E+01   -1.826E+01   -1.852E+01   -1.876E+01
    -1.900E+01   -1.922E+01   -1.944E+01   -1.965E+01   -1.985E+01   -2.003E+01   -2.021E+01   -2.038E+01   -2.054E+01   -2.069E+01
    -2.083E+01   -2.096E+01   -2.108E+01   -2.119E+01   -2.130E+01   -2.139E+01   -2.147E+01   -2.155E+01   -2.161E+01   -2.167E+01
    -2.172E+01   -2.176E+01   -2.179E+01   -2.181E+01   -2.183E+01   -2.184E+01   -2.184E+01   -2.184E+01   -2.182E+01   -2.180E+01
    -2.178E+01   -2.174E+01   -2.170E+01   -2.166E+01   -2.161E+01   -2.155E+01   -2.149E+01   -2.142E+01   -2.135E+01   -2.127E+01
    -2.118E+01   -2.110E+01   -2.100E+01   -2.091E+01   -2.081E+01   -2.070E+01   -2.060E+01   -2.048E+01   -2.037E+01   -2.025E+01
    -2.013E+01   -2.000E+01   -1.987E+01   -1.974E+01   -1.961E+01   -1.947E+01   -1.933E+01   -1.919E+01   -1.905E+01   -1.890E+01
    -1.875E+01   -1.860E+01   -1.845E+01   -1.829E+01   -1.813E+01   -1.797E+01   -1.781E+01   -1.765E+01   -1.749E+01   -1.732E+01
    -1.716E+01   -1.699E+01   -1.682E+01   -1.665E+01   -1.648E+01   -1.631E+01   -1.614E+01   -1.597E+01   -1.580E+01   -1.562E+01
    -1.545E+01   -1.528E+01   -1.510E+01   -1.493E+01   -1.476E+01   -1.459E+01   -1.442E+01   -1.424E+01   -1.407E+01   -1.390E+01
    -1.374E+01   -1.357E+01   -1.340E+01   -1.324E+01   -1.308E+01   -1.291E+01   -1.276E+01   -1.260E+01   -1.244E+01   -1.229E+01
    -1.214E+01   -1.199E+01   -1.184E+01   -1.170E+01   -1.156E+01   -1.142E+01   -1.128E+01   -1.115E+01   -1.102E+01   -1.090E+01
    -1.078E+01   -1.066E+01   -1.054E+01   -1.043E+01   -1.032E+01   -1.022E+01   -1.012E+01   -1.002E+01   -9.925E+00   -9.834E+00
    -9.747E+00   -9.662E+00   -9.581E+00   -9.503E+00   -9.428E+00   -9.356E+00   -9.287E+00   -9.222E+00   -9.159E+00   -9.099E+00
    -9.043E+00   -8.989E+00   -8.938E+00   -8.890E+00   -8.845E+00   -8.803E+00   -8.764E+00   -8.727E+00   -8.693E+00   -8.662E+00
    -8.633E+00   -8.607E+00   -8.584E+00   -8.563E+00   -8.545E+00   -8.530E+00   -8.518E+00   -8.508E+00   -8.502E+00   -8.498E+00
    -8.498E+00   -8.501E+00   -8.507E+00   -8.516E+00   -8.529E+00   -8.546E+00   -8.566E+00   -8.589E+00   -8.616E+00   -8.648E+00
    -8.682E+00   -8.721E+00   -8.764E+00   -8.811E+00   -8.862E+00   -8.918E+00   -8.977E+00   -9.041E+00   -9.110E+00   -9.182E+00
    -9.260E+00   -9.342E+00   -9.429E+00   -9.521E+00   -9.617E+00   -9.719E+00   -9.825E+00   -9.937E+00   -1.005E+01   -1.018E+01
    -1.030E+01   -1.043E+01   -1.057E+01   -1.072E+01   -1.086E+01   -1.102E+01   -1.118E+01   -1.134E+01   -1.151E+01   -1.169E+01
    -1.187E+01   -1.206E+01   -1.225E+01   -1.245E+01   -1.266E+01   -1.287E+01   -1.309E+01   -1.331E+01   -1.354E+01   -1.378E+01
    -1.402E+01   -1.427E+01   -1.453E+01   -1.479E+01   -1.506E+01   -1.533E+01   -1.562E+01   -1.591E+01   -1.620E+01   -1.650E+01
    -1.681E+01   -1.712E+01   -1.744E+01   -1.776E+01   -1.809E+01   -1.842E+01   -1.876E+01   -1.910E+01   -1.944E+01   -1.979E+01
    -2.014E+01   -2.050E+01   -2.086E+01   -2.122E+01   -2.158E+01   -2.195E+01   -2.232E+01   -2.269E+01   -2.306E+01   -2.343E+01
    -2.381E+01   -2.418E+01   -2.456E+01   -2.494E+01   -2.531E+01   -2.569E+01   -2.607E+01   -2.644E+01   -2.682E+01   -2.719E+01
    -2.757E+01   -2.794E+01   -2.831E+01   -2.868E+01   -2.904E+01   -2.940E+01   -2.976E+01   -3.011E+01   -3.047E+01   -3.081E+01
    -3.115E+01   -3.149E+01   -3.182E+01   -3.215E+01   -3.247E+01   -3.278E+01   -3.308E+01   -3.338E+01   -3.368E+01   -3.396E+01
    -3.424E+01   -3.450E+01   -3.476E+01   -3.501E+01   -3.525E+01   -3.548E+01   -3.570E+01   -3.591E+01   -3.611E+01   -3.630E+01
    -3.648E+01   -3.664E+01   -3.680E+01   -3.694E+01   -3.707E+01   -3.720E+01   -3.731E+01   -3.741E+01   -3.750E+01   -3.758E+01
    -3.765E+01   -3.771E+01   -3.776E+01   -3.780E+01   -3.783E+01   -3.786E+01   -3.787E+01   -3.788E+01   -3.787E+01   -3.786E+01
    -3.784E+01   -3.781E+01   -3.778E+01   -3.773E+01   -3.768E+01   -3.762E+01   -3.756E+01   -3.749E+01   -3.740E+01   -3.732E+01
    -3.722E+01   -3.712E+01   -3.702E+01   -3.691E+01   -3.679E+01   -3.666E+01   -3.653E+01   -3.640E+01   -3.626E+01   -3.612E+01
    -3.597E+01   -3.582E+01   -3.566E+01   -3.551E+01   -3.534E+01   -3.518E+01   -3.501E+01   -3.484E+01   -3.467E+01   -3.449E+01
    -3.432E+01   -3.414E+01   -3.396E+01   -3.378E+01   -3.360E+01   -3.342E+01   -3.324E+01   -3.306E+01   -3.288E+01   -3.270E+01
    -3.252E+01   -3.235E+01   -3.217E+01   -3.200E+01   -3.182E+01   -3.165E+01   -3.148E+01   -3.132E+01   -3.115E+01   -3.099E+01
    -3.083E+01   -3.067E+01   -3.052E+01   -3.036E+01   -3.021E+01   -3.006E+01   -2.991E+01   -2.976E+01   -2.962E+01   -2.947E+01
    -2.933E+01   -2.919E+01   -2.905E+01   -2.892E+01   -2.878E+01   -2.865E+01   -2.852E+01   -2.839E+01   -2.827E+01   -2.814E+01
    -2.802E+01   -2.790E+01   -2.778E+01   -2.766E+01   -2.755E+01   -2.743E+01   -2.732E+01   -2.721E+01   -2.710E+01   -2.700E+01
    -2.689E+01   -2.679E+01   -2.668E+01   -2.658E+01   -2.648E+01   -2.638E+01   -2.629E+01   -2.619E+01   -2.609E+01   -2.600E+01
    -2.591E+01   -2.581E+01   -2.572E+01   -2.563E+01   -2.554E+01   -2.545E+01   -2.536E+01   -2.527E+01   -2.518E+01   -2.509E+01
    -2.500E+01   -2.491E+01   -2.483E+01   -2.474E+01   -2.465E+01   -2.456E+01   -2.447E+01   -2.438E+01   -2.429E+01   -2.420E+01
    -2.411E+01   -2.403E+01   -2.393E+01   -2.384E+01   -2.375E+01   -2.366E+01   -2.357E+01   -2.348E+01   -2.339E+01   -2.330E+01
    -2.321E+01   -2.311E+01   -2.302E+01   -2.293E+01   -2.284E+01   -2.275E+01   -2.265E+01   -2.256E+01   -2.247E+01   -2.238E+01
    -2.229E+01   -2.219E+01   -2.210E+01   -2.201E+01   -2.192E+01   -2.183E+01   -2.173E+01   -2.164E+01   -2.155E+01   -2.146E+01
 Mac      Conc. = 2.56E-04
  -1.54457E+01 -1.65426E+01 -1.76649E+01 -1.88591E+01 -2.01378E+01 -2.15214E+01 -2.29241E+01 -2.42286E+01 -2.53707E+01 -2.63356E+01
  -2.72036E+01 -2.80085E+01 -2.87592E+01 -2.94026E+01 -2.98831E+01 -3.00971E+01 -2.99585E+01 -2.94623E+01 -2.87064E+01 -2.78407E+01
  -2.69704E+01 -2.61264E+01 -2.52920E+01 -2.43355E+01 -2.31505E+01 -2.17422E+01 -2.02731E+01 -1.89674E+01 -1.78634E+01 -1.69118E+01
  -1.62122E+01 -1.57262E+01 -1.52692E+01 -1.47496E+01 -1.41593E+01 -1.35596E+01 -1.29790E+01 -1.24979E+01 -1.21546E+01 -1.19277E+01
  -1.17963E+01 -1.17441E+01 -1.17063E+01 -1.16118E+01 -1.14872E+01 -1.14144E+01 -1.15202E+01 -1.18547E+01 -1.23115E+01 -1.27058E+01
  -1.29711E+01 -1.31704E+01 -1.33767E+01 -1.36488E+01 -1.39761E+01 -1.42688E+01 -1.45028E+01 -1.46679E+01 -1.47770E+01 -1.48000E+01
  -1.47526E+01 -1.46498E+01 -1.44615E+01 -1.42249E+01 -1.39420E+01 -1.36187E+01 -1.32973E+01 -1.29800E+01 -1.26321E+01 -1.22928E+01
  -1.20303E+01 -1.18103E+01 -1.15895E+01 -1.13681E+01 -1.11272E+01 -1.08867E+01 -1.06196E+01 -1.02761E+01 -9.83041E+00 -9.36627E+00
  -9.00994E+00 -8.77141E+00 -8.57571E+00 -8.41608E+00 -8.28668E+00 -8.15343E+00 -8.04927E+00 -7.94725E+00 -7.86246E+00 -7.80982E+00
  -7.79586E+00 -7.86381E+00 -8.08809E+00 -8.52655E+00 -9.21388E+00 -1.01940E+01 -1.14610E+01 -1.29837E+01 -1.46592E+01 -1.64676E+01
  -1.84102E+01 -2.04973E+01 -2.27449E+01 -2.51047E+01 -2.74440E+01 -2.96110E+01 -3.14833E+01 -3.29723E+01 -3.40842E+01 -3.48773E+01
