 
 $NMID
 ID=''
 FMTDAT='(2E13.5)'
 TRAMP=   1.00000E+0
 VOLUME=   1.00000E+0
 $END
   1.59681E+4  -1.68011E+4
  -3.96157E+3  -2.83326E+4
  -2.63373E+4   7.62717E+3
   8.17815E+3   3.53438E+4
   2.41535E+4  -7.79752E+3
  -9.67093E+3  -2.60174E+4
  -1.32862E+4   1.28327E+4
   1.36588E+4   1.54242E+4
   7.04893E+3  -1.12006E+4
  -1.15386E+4  -3.59723E+3
  -4.30835E+3   8.65377E+3
   3.14009E+3  -1.34583E+3
  -1.28511E+3  -4.20252E+3
  -4.26394E+3   4.47809E+2
  -2.25548E+3  -7.39054E+2
   2.19987E+3  -2.94631E+2
   3.06885E+3   1.72280E+3
  -1.36067E+3   1.54805E+2
  -1.57418E+3  -1.56321E+2
   1.31559E+3   3.45678E+2
   6.05301E+2  -2.03898E+2
   7.76390E+2   4.27288E+1
   1.27077E+3   6.10642E+2
  -1.30199E+3   1.16278E+2
  -6.82315E+2  -8.63703E+2
   2.62865E+3  -1.05412E+2
   3.20501E+2   2.14599E+3
  -2.67787E+3   9.22325E+2
  -5.35427E+2  -2.05820E+3
   1.00178E+3  -6.69595E+2
  -8.88462E+2   1.73870E+3
  -9.30311E+2   6.97089E+2
  -5.94239E+2  -1.19030E+3
  -5.26951E+2  -2.03573E+3
   9.58529E+2  -2.51925E+3
   2.61314E+3   2.94273E+2
   7.44260E+2   2.82127E+3
  -1.17486E+3   7.29417E+2
  -3.93512E+2  -1.23289E+3
   5.03608E+2   2.46024E+1
  -1.01568E+3   4.27962E+1
  -6.78389E+2  -1.45694E+3
   1.64996E+3  -5.50242E+2
   2.01528E+3   9.63266E+2
   6.11960E+2   5.96312E+2
   4.41545E+2   6.77638E+2
  -9.17500E+2   1.77583E+3
  -1.95049E+3   1.57808E+0
  -6.41825E+2  -2.12355E+3
   1.06976E+3  -1.88873E+3
   7.14312E+2  -3.52786E+2
   5.98037E+2  -3.47480E+2
   1.03287E+3  -2.36130E+2
   5.61776E+2   6.72656E+2
   3.76375E+1   5.55946E+2
  -5.79180E+2   1.40073E+2
  -4.81611E+2  -6.33337E+2
   8.58354E+1  -1.20095E+3
   1.41407E+3  -8.06916E+2
   1.80286E+3   4.07280E+2
   7.27394E+2   7.06546E+2
  -1.62049E+2   6.73452E+2
  -6.19427E+2   1.04279E+3
  -1.45899E+3   7.18959E+2
  -1.48725E+3  -1.08817E+3
  -5.83399E+2  -2.33926E+3
   7.08796E+2  -1.88587E+3
   1.73521E+3  -8.85978E+2
   1.14272E+3   4.84059E+2
  -4.57845E+2   6.85462E+2
  -6.80350E+2  -2.73144E+2
   9.96696E+2  -7.33921E+2
   8.34173E+2   2.13393E+2
  -4.25082E+2   1.17816E+3
  -9.78916E+2   1.53524E+2
  -1.66456E+2  -6.51872E+2
  -3.95217E+1  -1.14949E+2
  -7.37115E+2   6.90399E+2
  -5.08077E+2   3.40635E+2
  -2.27944E+2  -3.25206E+2
  -4.33690E+2  -8.56003E+2
  -2.30445E+2  -9.13857E+2
   1.39504E+2  -5.00325E+1
  -5.04385E+1   1.47858E+2
  -9.26969E+1  -4.90695E+2
   8.09859E+2  -4.91087E+2
   7.46398E+2   2.96588E+2
   5.47738E+0   6.55967E+2
  -1.85512E+2   3.42027E+2
   2.19599E+2   2.13071E+2
   5.76837E+2   7.88187E+2
  -6.12945E+1   1.12488E+3
  -1.08606E+3   5.51758E+2
  -1.37797E+3  -2.15679E+2
  -2.03692E+2  -1.03036E+3
   1.00096E+3  -7.78507E+2
   8.46852E+2  -8.15112E+0
   1.00871E+2   1.48694E+2
   1.10469E+2  -3.17576E+2
   9.10113E+2   3.98904E+1
   5.27024E+2   8.50969E+2
  -6.08142E+2   1.02694E+3
  -9.79354E+2  -1.27372E+2
  -1.96227E+2  -8.91539E+2
   7.02054E+2  -4.81528E+2
   9.13826E+2   7.90791E+2
  -2.87288E+2   1.01351E+3
  -9.03912E+2  -2.56180E+2
  -3.36414E+2  -1.25112E+3
   1.26243E+3  -1.01576E+3
   1.54772E+3   4.65262E+2
   4.86118E+2   9.84061E+2
  -2.15499E+2   6.74824E+2
  -1.58261E+2   3.21080E+2
   2.18203E+2   1.10706E+2
  -4.05881E+2   3.34972E+2
  -9.56402E+2  -8.32048E+1
  -6.20757E+2  -1.13196E+3
   4.87603E+2  -1.43443E+3
   1.09643E+3  -6.54586E+2
   9.33090E+2   2.13028E+2
   1.99041E+2   3.83634E+2
   1.66949E+2   6.01551E+2
  -4.52215E+2   5.42514E+2
  -5.84739E+2   3.72779E+2
  -3.89270E+2  -3.43286E+2
  -4.54903E+0  -4.78801E+2
   3.58851E+2  -3.12911E+2
   2.32356E+2   1.01702E+2
  -5.20370E+1   5.36076E+2
  -5.08811E+2   5.27316E+2
  -7.45409E+2  -3.76217E+2
   2.04463E+1  -7.94112E+2
   1.88646E+2  -1.05349E+2
  -3.86221E+2   2.47849E+2
  -1.47409E+2  -4.38526E+2
   5.65276E+2  -3.55032E+2
   5.27482E+2   2.35869E+2
  -3.42517E+1   7.89227E+2
  -5.66868E+2   3.36701E+2
  -5.68035E+2  -2.13402E+2
   3.00705E+2  -8.51074E+2
   9.62096E+2   8.39949E+1
   3.81751E+2   8.83191E+2
  -6.97493E+2   6.90088E+2
  -8.69770E+2   3.18570E+2
  -5.66421E+2  -2.88932E+2
  -4.70839E+2  -1.88413E+2
  -1.18273E+2  -2.10686E+2
  -1.99127E+2  -3.76137E+2
   2.79732E+2  -5.64672E+2
   5.27006E+2  -3.67011E+2
   6.89627E+2   4.34364E+2
   1.45991E+2   7.86907E+2
  -5.66092E+2   3.91043E+2
  -2.39719E+2  -1.64632E+2
   2.38616E+2   8.07526E+1
  -7.56393E+1   4.73699E+2
  -1.94698E+2   1.88833E+2
   9.34091E+1   9.14066E+1
  -1.58097E+2   1.49029E+2
  -4.09626E+2   1.61628E+2
  -4.08979E+2  -1.44635E+2
  -2.70687E+2  -5.73492E+2
   1.30524E+2  -7.04206E+2
   5.37250E+2  -3.83173E+2
   4.25600E+2   3.30332E+2
  -2.88317E+2   3.01083E+2
  -3.95161E+2   3.34156E+1
   1.68742E+2  -3.81736E+1
   4.35766E+2   4.37705E+2
   6.05295E+1   3.75816E+2
  -1.50107E+2   1.91692E+2
  -2.67217E+2  -2.21300E+2
   1.55547E+2  -5.39519E+1
   5.56706E+1   1.84679E+2
  -4.06484E+2   3.47546E+2
  -6.23927E+2  -3.75281E+1
  -1.03953E+2  -4.36128E+2
   4.94664E+2  -1.93014E+2
   2.97080E+2   5.76527E+2
  -4.19472E+1   8.37562E+2
  -5.89254E+2   7.53513E+1
  -1.18898E+2  -4.05082E+2
  -8.84145E+1  -1.98821E+2
  -2.61807E+2  -3.32306E+2
  -3.15597E+2  -2.83779E+2
   7.94084E+1  -4.55991E+2
   4.64128E+2  -3.21936E+2
   6.08143E+2   4.15296E+2
  -2.91107E+2   8.06730E+2
  -8.13517E+2   1.82255E+2
  -5.97908E+2  -5.16362E+2
  -1.77611E+2  -3.62951E+2
   8.19504E+1  -9.50355E+1
   2.31958E+2   1.34779E+2
   4.05866E+1   1.32717E+2
  -1.20495E+1   2.74692E+2
  -1.44712E+2   2.61031E+2
  -5.01779E+2   1.96099E+2
  -4.12340E+2   1.28158E+2
  -2.25895E+2  -5.89452E+2
   4.47306E+2  -5.46318E+2
   2.90253E+2  -1.02057E+2
   1.85526E+2   4.10230E+2
  -2.22583E+2  -2.71873E+0
  -1.13268E+2  -3.48595E+1
  -1.13962E+2  -2.62411E+2
   1.74238E+2   1.22807E+2
  -9.78942E+1   1.29535E+2
  -5.58607E+2  -2.05701E+2
   8.62135E+1  -1.24482E+2
   4.48199E+2   1.81805E+2
  -1.79123E+2   4.98842E+2
  -8.41494E+2   2.08026E+2
  -4.43615E+2  -2.47689E+2
   6.40343E+0  -4.09980E+2
   2.36067E+2  -2.09991E+2
  -3.79785E+1  -9.73773E+1
   2.81004E+2   1.08540E+2
  -9.02148E+1   1.28051E+2
   4.91057E+2  -8.57145E+1
   1.75481E+2   7.58575E+2
  -3.04363E+2   5.11700E+2
  -4.19527E+2  -2.16614E+2
  -2.07608E+2  -3.30556E+2
   2.15341E+2  -1.73365E+2
   1.78768E+2   3.85461E+2
  -2.09649E+2   6.06272E+2
  -2.92739E+2   4.28431E+1
  -3.31253E+2  -9.43811E+1
   4.03103E+1  -9.68443E+1
   4.29586E+1   4.20294E+1
  -7.24302E+1   5.44811E+0
  -3.23178E+1  -2.20419E+2
   9.59931E+1  -7.54283E+1
   2.82374E+2   2.59523E+2
  -1.90549E+2   3.14080E+2
   9.76099E+0  -1.08818E+2
   1.09827E+2  -1.06271E+2
   1.00416E+2  -5.11619E+1
  -9.78599E+1   1.51788E+2
  -1.44754E+2   1.77659E+2
  -2.36868E+2  -1.87408E+2
   4.96824E+1  -3.69651E+2
  -2.55486E+0   3.16905E+1
  -1.18179E+2   2.07863E+2
  -2.82670E+2  -5.48553E+1
  -6.32118E+1  -4.60684E+2
   3.60212E+2  -2.08212E+2
   2.11533E+2  -1.74605E+1
  -4.13670E+1   2.15477E+2
  -4.01741E+2   1.35771E+2
  -1.97834E+2  -4.83181E+2
   2.74508E+2   5.86669E+0
   3.71735E+2   1.46303E+2
   1.71520E+1   2.84175E+2
  -1.34768E+2   2.18799E+2
  -2.10260E+2   4.33933E+1
  -1.01302E+2  -4.59710E+0
  -4.18338E+2   1.65724E+2
  -4.63726E+2   8.70754E+1
   8.37298E+1  -3.29257E+2
   4.43845E+2  -5.05208E+2
   2.56977E+2   5.49532E+0
   6.67459E+1   2.45135E+2
  -1.91923E+2   2.62326E+2
  -2.67990E+2  -5.31671E+1
  -1.82884E+2  -2.26867E+2
  -1.01400E+0  -7.87335E+1
  -1.84483E+2  -6.38928E+1
  -6.40261E+1  -4.34871E+1
   4.50081E+1  -1.00692E+2
   2.34438E+2   3.15800E+2
  -8.85331E+1   3.13489E+2
  -3.84739E+2   2.04537E+2
  -1.64478E+2  -2.82404E+2
   9.10878E+1  -1.45770E+2
   1.88941E+2  -6.49197E+1
   8.08984E+1   1.71117E+2
  -9.10562E+1   1.94574E+1
  -1.85054E+1   9.16304E+1
   1.08172E+2  -5.87893E+1
  -4.13536E+1   4.54587E+2
  -2.44976E+2   2.19905E+2
  -4.06009E+2  -7.42164E+1
   1.21610E+2  -3.51052E+2
   5.37073E+2  -1.55292E+2
   3.55361E+2   1.52133E+2
   9.67128E+1   5.46979E+2
  -1.35607E+2   7.45453E+1
  -1.30455E+2  -2.19666E+2
  -1.37954E+2  -5.12644E+1
   5.36515E+1  -1.55756E+2
  -1.73625E+2  -3.72579E+1
   1.23403E+1  -1.93592E+2
   2.68751E+2   7.58842E+1
   2.38438E+2   2.46595E+2
  -1.68905E+2   2.29630E+2
  -3.48166E+2  -1.51341E+1
  -1.58519E+2  -5.20970E+1
   2.84667E+2  -6.76819E+1
   1.13917E+2   2.06921E+2
  -1.89286E+2  -2.07120E+1
  -2.11840E+2   1.20902E+2
  -1.49357E+2  -1.70661E+2
   1.36862E+2  -8.81072E+1
  -4.33527E+1   1.90113E+1
  -8.12569E+1   1.65688E+1
  -7.64443E+1  -2.29163E+2
   3.55762E+2   4.17706E+1
   2.31348E+2   3.40432E+1
   7.48343E+1   1.13923E+2
  -2.72959E+2   8.91973E+1
  -1.88335E+2  -1.44622E+2
   1.03749E+2  -2.46440E+1
   3.15190E+2   7.13402E+1
  -1.33684E+2   2.45682E+2
  -1.61223E+2   1.74777E+1
   1.46454E+2  -2.37495E+2
   7.62101E+1   2.38792E+2
  -4.47274E+1   1.32855E+2
  -3.31816E+2   3.10016E+2
  -8.51259E+1  -2.26681E+2
   1.44613E+2  -1.06610E+2
   1.07299E+2   1.54488E+2
   2.71961E+1   3.78737E+2
  -4.44090E+1   2.25280E+2
  -3.36789E+2  -3.02052E+1
  -6.45444E+1  -1.91784E+2
   5.31384E+1  -9.98232E+1
   1.20705E+2   6.29292E+1
   2.33892E+1  -2.03655E+2
  -4.75444E+1   9.26272E+1
   2.15263E+2   1.47434E+2
  -1.05796E+2   3.48274E+2
  -1.26731E+2   1.16198E+2
  -4.93972E+2  -2.45725E+2
  -5.48113E+1  -4.00603E+2
   4.34879E+2   3.54324E+1
   8.20621E+0   7.24560E+1
  -6.09085E+1   2.05186E+2
  -7.84483E+1  -3.30824E+1
  -2.38850E+1  -1.62442E+2
  -1.40572E+2   2.53632E+1
   1.50579E+2  -7.22777E+1
  -8.93725E+1  -5.10889E+1
   6.41933E+1  -1.05173E+1
   1.03116E+2   1.19222E+2
  -1.16064E+1   2.62912E+2
  -2.59456E+2   2.72925E+2
  -2.90438E+2   4.10969E+0
   1.06982E+2   1.57525E+2
   1.32222E+2  -6.21447E+1
   7.40288E+1   1.73391E+2
  -8.69898E+1   1.86031E+1
   2.36059E+2  -7.05946E+1
   1.10492E+2  -3.30687E+1
   2.26773E+2   5.21182E+0
  -2.00350E+2   1.25710E+2
  -2.63034E+2   1.22504E+2
  -3.26628E+2  -3.20068E+2
   6.49790E+1  -3.31241E+2
   1.57773E+2  -5.02782E+1
   9.75497E+1   1.14069E+2
  -1.62715E+2   1.39987E+2
  -5.31443E+0  -1.08412E+2
