 
 $NMID
 ID=''
 FMTDAT='(2E13.5)'
 TRAMP=   1.00000E+0
 VOLUME=   1.00000E+0
 $END
  -2.35387E+5   6.80191E+5
  -1.17804E+6   1.44934E+6
  -9.82603E+5   1.49881E+6
  -1.06885E+6   1.32017E+6
  -1.20385E+6   1.36568E+6
  -1.13983E+6   1.35699E+6
  -1.14942E+6   1.23212E+6
  -1.23169E+6   1.21462E+6
  -1.22266E+6   1.21102E+6
  -1.23597E+6   1.16400E+6
  -1.25287E+6   1.14717E+6
  -1.23537E+6   1.09690E+6
  -1.26667E+6   1.04049E+6
  -1.28752E+6   1.04682E+6
  -1.26123E+6   1.02308E+6
  -1.26490E+6   9.70100E+5
  -1.28758E+6   9.49550E+5
  -1.29044E+6   9.11173E+5
  -1.30866E+6   8.61547E+5
  -1.31733E+6   8.36314E+5
  -1.31153E+6   7.91660E+5
  -1.32573E+6   7.45542E+5
  -1.33238E+6   7.21619E+5
  -1.32580E+6   6.84587E+5
  -1.33060E+6   6.42658E+5
  -1.32649E+6   6.23778E+5
  -1.31800E+6   5.95301E+5
  -1.31885E+6   5.67745E+5
  -1.31234E+6   5.46039E+5
  -1.30156E+6   5.17954E+5
  -1.30359E+6   4.83907E+5
  -1.29711E+6   4.56641E+5
  -1.28968E+6   4.22071E+5
  -1.28812E+6   3.88973E+5
  -1.27900E+6   3.59834E+5
  -1.26966E+6   3.26151E+5
  -1.26843E+6   2.92304E+5
  -1.26046E+6   2.60278E+5
  -1.24672E+6   2.30378E+5
  -1.23873E+6   2.05835E+5
  -1.22730E+6   1.81436E+5
  -1.21321E+6   1.54755E+5
  -1.20049E+6   1.34741E+5
  -1.18953E+6   1.15433E+5
  -1.17675E+6   9.16583E+4
  -1.16442E+6   7.03830E+4
  -1.15120E+6   4.73735E+4
  -1.13890E+6   1.86600E+4
  -1.12397E+6  -8.68833E+3
  -1.10812E+6  -3.23796E+4
  -1.09368E+6  -5.73784E+4
  -1.08010E+6  -8.43761E+4
  -1.06490E+6  -1.09468E+5
  -1.05017E+6  -1.33234E+5
  -1.03456E+6  -1.55912E+5
  -1.01789E+6  -1.79342E+5
  -1.00159E+6  -2.01018E+5
  -9.84763E+5  -2.19133E+5
  -9.68246E+5  -2.37024E+5
  -9.51969E+5  -2.56123E+5
  -9.35644E+5  -2.75275E+5
  -9.18869E+5  -2.93089E+5
  -9.02895E+5  -3.11603E+5
  -8.84666E+5  -3.31189E+5
  -8.64604E+5  -3.49928E+5
  -8.45759E+5  -3.66879E+5
  -8.27988E+5  -3.84056E+5
  -8.08984E+5  -4.00025E+5
  -7.90404E+5  -4.15981E+5
  -7.73132E+5  -4.31899E+5
  -7.54689E+5  -4.47043E+5
  -7.35403E+5  -4.59365E+5
  -7.17720E+5  -4.70867E+5
  -7.00125E+5  -4.84055E+5
  -6.81323E+5  -4.96955E+5
  -6.62408E+5  -5.08168E+5
  -6.43966E+5  -5.18790E+5
  -6.24609E+5  -5.30563E+5
  -6.05108E+5  -5.42316E+5
  -5.85041E+5  -5.52520E+5
  -5.65199E+5  -5.62417E+5
  -5.45762E+5  -5.71261E+5
  -5.25948E+5  -5.80138E+5
  -5.06511E+5  -5.87856E+5
  -4.87179E+5  -5.94695E+5
  -4.68503E+5  -6.00908E+5
  -4.50087E+5  -6.06057E+5
  -4.32284E+5  -6.10981E+5
  -4.14540E+5  -6.15409E+5
  -3.96897E+5  -6.18813E+5
  -3.79576E+5  -6.21913E+5
  -3.61930E+5  -6.25363E+5
  -3.43923E+5  -6.29220E+5
  -3.25639E+5  -6.32074E+5
  -3.07613E+5  -6.33961E+5
  -2.89544E+5  -6.35679E+5
  -2.72189E+5  -6.37786E+5
  -2.54291E+5  -6.39589E+5
  -2.36696E+5  -6.40457E+5
  -2.20434E+5  -6.40583E+5
  -2.04234E+5  -6.40690E+5
  -1.87585E+5  -6.40720E+5
  -1.71135E+5  -6.39519E+5
  -1.55912E+5  -6.37519E+5
  -1.41263E+5  -6.35486E+5
  -1.27020E+5  -6.34092E+5
  -1.12341E+5  -6.32185E+5
  -9.72959E+4  -6.29771E+5
  -8.28931E+4  -6.26223E+5
  -6.93853E+4  -6.22433E+5
  -5.57865E+4  -6.19678E+5
  -4.13832E+4  -6.16872E+5
  -2.71289E+4  -6.13324E+5
  -1.33308E+4  -6.09215E+5
   3.78542E+2  -6.04706E+5
   1.38335E+4  -6.00224E+5
   2.71251E+4  -5.95584E+5
   3.98385E+4  -5.89961E+5
   5.14183E+4  -5.84295E+5
   6.28292E+4  -5.78401E+5
   7.41237E+4  -5.73438E+5
   8.56263E+4  -5.67843E+5
   9.68207E+4  -5.61738E+5
   1.07926E+5  -5.55566E+5
   1.19145E+5  -5.48952E+5
   1.29449E+5  -5.41835E+5
   1.39526E+5  -5.34441E+5
   1.49628E+5  -5.27404E+5
   1.59591E+5  -5.20233E+5
   1.69643E+5  -5.12578E+5
   1.79771E+5  -5.04984E+5
   1.89376E+5  -4.96416E+5
   1.98705E+5  -4.88103E+5
   2.07384E+5  -4.79725E+5
   2.16202E+5  -4.71507E+5
   2.24613E+5  -4.62475E+5
   2.32508E+5  -4.53991E+5
   2.40352E+5  -4.45499E+5
   2.48381E+5  -4.36683E+5
   2.56477E+5  -4.27513E+5
   2.63510E+5  -4.17926E+5
   2.69898E+5  -4.08752E+5
   2.75849E+5  -3.99489E+5
   2.82235E+5  -3.90188E+5
   2.88465E+5  -3.80779E+5
   2.94388E+5  -3.71474E+5
   2.99658E+5  -3.61710E+5
   3.04645E+5  -3.52018E+5
   3.09514E+5  -3.42224E+5
   3.13553E+5  -3.32702E+5
   3.17615E+5  -3.23140E+5
   3.21445E+5  -3.13567E+5
   3.25008E+5  -3.04603E+5
   3.28559E+5  -2.95825E+5
   3.31893E+5  -2.85783E+5
   3.34814E+5  -2.76622E+5
   3.37487E+5  -2.67814E+5
   3.40678E+5  -2.58625E+5
   3.42615E+5  -2.49506E+5
   3.44438E+5  -2.40097E+5
   3.46435E+5  -2.31446E+5
   3.48005E+5  -2.22388E+5
   3.49539E+5  -2.13241E+5
   3.50525E+5  -2.04062E+5
   3.51522E+5  -1.95621E+5
   3.51899E+5  -1.87205E+5
   3.52679E+5  -1.78968E+5
   3.53628E+5  -1.70465E+5
   3.53668E+5  -1.62261E+5
   3.53651E+5  -1.54212E+5
   3.53471E+5  -1.46328E+5
   3.53144E+5  -1.38312E+5
   3.52881E+5  -1.30617E+5
   3.52464E+5  -1.22985E+5
   3.51325E+5  -1.14983E+5
   3.50668E+5  -1.07680E+5
   3.49767E+5  -9.99806E+4
   3.48505E+5  -9.20742E+4
   3.47100E+5  -8.45127E+4
   3.45354E+5  -7.74974E+4
   3.44155E+5  -7.03068E+4
   3.42481E+5  -6.33309E+4
   3.40847E+5  -5.55466E+4
   3.38648E+5  -4.85372E+4
   3.36323E+5  -4.16439E+4
   3.34198E+5  -3.50880E+4
   3.31511E+5  -2.86887E+4
   3.28846E+5  -2.21807E+4
   3.26290E+5  -1.62859E+4
   3.23970E+5  -1.01096E+4
   3.21875E+5  -3.86937E+3
   3.18556E+5   2.56364E+3
   3.15320E+5   9.30559E+3
   3.11859E+5   1.52502E+4
   3.08397E+5   2.11633E+4
   3.05271E+5   2.69443E+4
   3.01783E+5   3.27346E+4
   2.98165E+5   3.85056E+4
   2.94564E+5   4.41786E+4
   2.90769E+5   4.99539E+4
   2.86734E+5   5.56595E+4
   2.82693E+5   6.10834E+4
   2.78272E+5   6.61021E+4
   2.74219E+5   7.08376E+4
   2.70197E+5   7.59662E+4
   2.65824E+5   8.07826E+4
   2.61358E+5   8.56794E+4
   2.56980E+5   9.00102E+4
   2.52488E+5   9.47868E+4
   2.47360E+5   9.90860E+4
   2.42880E+5   1.03587E+5
   2.38027E+5   1.07612E+5
   2.33314E+5   1.11379E+5
   2.28373E+5   1.15128E+5
   2.23616E+5   1.18958E+5
   2.18314E+5   1.22875E+5
   2.13398E+5   1.25946E+5
   2.08534E+5   1.29019E+5
   2.03349E+5   1.31988E+5
   1.98478E+5   1.34908E+5
   1.93194E+5   1.37735E+5
   1.88689E+5   1.40243E+5
   1.83553E+5   1.42824E+5
   1.78633E+5   1.45323E+5
   1.73539E+5   1.47994E+5
   1.68394E+5   1.49470E+5
   1.63701E+5   1.51349E+5
   1.58725E+5   1.53488E+5
   1.53842E+5   1.55143E+5
   1.48870E+5   1.56917E+5
   1.43772E+5   1.58149E+5
   1.38906E+5   1.59500E+5
   1.34386E+5   1.60495E+5
   1.29682E+5   1.61427E+5
   1.25143E+5   1.62622E+5
   1.20464E+5   1.63319E+5
   1.16033E+5   1.64193E+5
   1.11712E+5   1.64866E+5
   1.07108E+5   1.65055E+5
   1.02547E+5   1.65344E+5
   9.82961E+4   1.65520E+5
   9.42825E+4   1.65743E+5
   8.99866E+4   1.66061E+5
   8.52662E+4   1.65968E+5
   8.12137E+4   1.65705E+5
   7.73651E+4   1.65277E+5
   7.32248E+4   1.65304E+5
   6.92719E+4   1.64861E+5
   6.51786E+4   1.64463E+5
   6.16983E+4   1.63722E+5
   5.76759E+4   1.63286E+5
   5.38517E+4   1.62679E+5
   4.99010E+4   1.62235E+5
   4.62066E+4   1.61250E+5
   4.26122E+4   1.60118E+5
   3.92292E+4   1.59222E+5
   3.56135E+4   1.58107E+5
   3.18562E+4   1.57380E+5
   2.83114E+4   1.56473E+5
   2.46859E+4   1.55439E+5
   2.12927E+4   1.54231E+5
   1.76741E+4   1.52820E+5
   1.43430E+4   1.51177E+5
   1.10686E+4   1.49640E+5
   8.12585E+3   1.48350E+5
   4.90040E+3   1.46907E+5
   1.66067E+3   1.45572E+5
  -1.33695E+3   1.43891E+5
  -4.19598E+3   1.42060E+5
  -7.11561E+3   1.40562E+5
  -9.96261E+3   1.38772E+5
  -1.27781E+4   1.36967E+5
  -1.55763E+4   1.35162E+5
  -1.80696E+4   1.33531E+5
  -2.10955E+4   1.31749E+5
  -2.36582E+4   1.29731E+5
  -2.64983E+4   1.27678E+5
  -2.87002E+4   1.25612E+5
  -3.09780E+4   1.23791E+5
  -3.33391E+4   1.21696E+5
  -3.55121E+4   1.19703E+5
  -3.79332E+4   1.17552E+5
  -3.99085E+4   1.15617E+5
  -4.19119E+4   1.13701E+5
  -4.38306E+4   1.11564E+5
  -4.59091E+4   1.09194E+5
  -4.72361E+4   1.07147E+5
  -4.91743E+4   1.04927E+5
  -5.07033E+4   1.02961E+5
  -5.24608E+4   1.00992E+5
  -5.40937E+4   9.86571E+4
  -5.56265E+4   9.67665E+4
  -5.69598E+4   9.45747E+4
  -5.81335E+4   9.23605E+4
  -5.93682E+4   9.02348E+4
  -6.06490E+4   8.80448E+4
  -6.16372E+4   8.59761E+4
  -6.27754E+4   8.39446E+4
  -6.36418E+4   8.19313E+4
  -6.47306E+4   7.96471E+4
  -6.54958E+4   7.74647E+4
  -6.62332E+4   7.53445E+4
  -6.72003E+4   7.35338E+4
  -6.80852E+4   7.14771E+4
  -6.87478E+4   6.93567E+4
  -6.91482E+4   6.70352E+4
  -6.98129E+4   6.50569E+4
  -7.00798E+4   6.31676E+4
  -7.08269E+4   6.10988E+4
  -7.09070E+4   5.91382E+4
  -7.14552E+4   5.71155E+4
  -7.17419E+4   5.53942E+4
  -7.22019E+4   5.31777E+4
  -7.21241E+4   5.15406E+4
  -7.23623E+4   4.91814E+4
  -7.24582E+4   4.72896E+4
  -7.22418E+4   4.54370E+4
  -7.23963E+4   4.37529E+4
  -7.22892E+4   4.18032E+4
  -7.21812E+4   3.99737E+4
  -7.20786E+4   3.82702E+4
  -7.20556E+4   3.63740E+4
  -7.18226E+4   3.45801E+4
  -7.16957E+4   3.26808E+4
  -7.11266E+4   3.09756E+4
  -7.09751E+4   2.94840E+4
  -7.05987E+4   2.77647E+4
  -7.02302E+4   2.60659E+4
  -6.98171E+4   2.44247E+4
  -6.91825E+4   2.25770E+4
  -6.88809E+4   2.11738E+4
  -6.81658E+4   1.95216E+4
  -6.80931E+4   1.79398E+4
  -6.72664E+4   1.66164E+4
  -6.67572E+4   1.50349E+4
  -6.62528E+4   1.35847E+4
  -6.56027E+4   1.20204E+4
  -6.45953E+4   1.07976E+4
  -6.41401E+4   9.13514E+3
  -6.32942E+4   7.99893E+3
  -6.25401E+4   6.60850E+3
  -6.20398E+4   5.32304E+3
  -6.11199E+4   4.06855E+3
  -6.03136E+4   3.05325E+3
  -5.93285E+4   1.44403E+3
  -5.87566E+4   3.12478E+2
  -5.78109E+4  -8.35589E+2
  -5.70116E+4  -1.85682E+3
  -5.63970E+4  -2.93253E+3
  -5.51901E+4  -3.95365E+3
  -5.42703E+4  -4.84691E+3
  -5.37164E+4  -6.03244E+3
  -5.27621E+4  -7.10044E+3
  -5.15325E+4  -7.91273E+3
  -5.06662E+4  -8.89793E+3
  -5.00144E+4  -9.84618E+3
  -4.88774E+4  -1.04704E+4
  -4.80051E+4  -1.13689E+4
  -4.72722E+4  -1.19134E+4
  -4.63297E+4  -1.31629E+4
  -4.52116E+4  -1.38037E+4
  -4.42529E+4  -1.42501E+4
  -4.32619E+4  -1.48829E+4
  -4.25291E+4  -1.55052E+4
  -4.16361E+4  -1.59589E+4
  -4.06511E+4  -1.68486E+4
  -3.96591E+4  -1.72885E+4
