 
 $NMID
 ID=''
 FMTDAT='(2E13.5)'
 TRAMP=   1.00000E+0
 VOLUME=   1.00000E+0
 $END
  -8.42123E+3  -2.15979E+4
  -2.31243E+4   7.32615E+2
   1.26447E+4   1.69644E+4
   2.43330E+4  -1.28804E+4
  -1.74768E+4  -1.16163E+4
  -1.11882E+4   1.55276E+4
   2.07809E+4  -2.30226E+2
   1.35466E+3  -1.54867E+4
  -1.26361E+4   6.62686E+3
   8.92217E+3   9.86582E+3
   4.99985E+3  -6.16795E+3
  -1.08073E+4   1.85530E+1
  -8.67757E+2   7.30123E+3
   4.45471E+3   9.84902E+2
  -2.95755E+3  -1.50446E+3
  -7.10897E+2  -1.46219E+3
   1.94539E+3  -1.21213E+3
  -1.76172E+2   2.37424E+3
   9.82478E+2   6.02925E+2
   7.18888E+2  -1.50953E+3
  -4.16925E+2   1.05151E+3
   7.62924E+1  -1.03732E+3
   5.61312E+2  -2.16212E+3
   5.65858E+1   2.80021E+3
  -5.38293E+2   9.51510E+2
   5.76920E+1  -3.58682E+3
   2.20088E+3   2.83533E+2
   5.83515E+2   3.68516E+3
  -2.92793E+3   1.07203E+2
  -9.07776E+2  -1.36365E+3
   2.25544E+3   5.07706E+2
   9.54689E+1   1.78903E+3
  -2.36003E+3   1.14570E+3
  -2.16717E+3  -6.42172E+2
  -8.91938E+2  -2.71340E+3
   1.56665E+3  -1.76520E+3
   2.01699E+3   8.95827E+2
  -1.60088E+2   1.50366E+3
  -8.55857E+2  -5.70029E+1
   2.92778E+2   1.61838E+2
  -8.50886E+2   1.25860E+3
  -1.50362E+3  -4.15971E+1
  -1.56842E+2  -1.97851E+3
   1.12870E+3  -6.02555E+2
   7.51336E+2  -1.30954E+2
   9.05374E+2  -7.92180E+1
   9.53964E+2   1.89657E+3
  -6.59562E+2   2.46112E+3
  -2.50846E+3  -6.11648E+2
  -1.40912E+3  -1.41003E+3
   3.31999E+2  -5.27729E+2
   1.43464E+2  -5.69132E+2
  -3.87303E+2  -7.19352E+2
   6.31807E+2   1.08076E+2
   1.05136E+3   1.41342E+2
  -2.00413E+2   3.47435E+2
  -1.35671E+3   8.15786E+2
  -9.62341E+2  -5.75036E+2
   7.46958E+1  -1.94757E+3
   6.46145E+2  -6.62199E+2
   7.20862E+2   2.50895E+2
   1.19992E+3  -6.61212E+1
   6.37612E+2   1.01069E+3
  -5.43443E+2   2.22812E+3
  -1.92745E+3   1.18684E+3
  -2.25805E+3  -7.15388E+2
  -1.29273E+3  -1.16229E+3
  -6.00048E-1  -1.28707E+3
   4.74024E+2  -1.03312E+3
   3.02305E+2   2.60747E+2
  -5.39392E+2   4.75996E+2
  -3.59670E+2  -9.98342E+2
   6.20109E+2  -7.89963E+2
   9.36239E+2   9.53876E+2
  -8.04130E+1   8.25015E+2
  -7.21800E+2  -3.02878E+2
  -2.77761E+2  -4.14839E+1
   5.91561E+2   8.21927E+2
   6.82589E+1   9.25859E+2
  -9.72145E+2   4.31560E+2
  -9.86412E+2   6.89730E+1
  -1.82659E+2  -1.12623E+2
  -1.85704E+2   7.62383E+1
  -4.55144E+2   1.50917E+2
  -6.43171E+2  -8.99334E+1
   5.96247E+1  -6.75278E+2
   3.31450E+2  -4.05163E+2
   3.66130E+2   2.60710E+2
   2.40433E+2   2.47151E+2
   4.15379E+2  -1.23436E+2
   7.85881E+2   7.81040E+0
   6.46287E+2   6.11532E+2
   1.70681E+2   1.41696E+3
  -8.77724E+2   1.13949E+3
  -1.01785E+3  -3.90159E+2
  -1.12790E+2  -1.27482E+3
   5.68762E+2  -5.42027E+2
   1.66855E+2   1.49504E+2
  -4.02146E+2  -1.85737E+2
   2.18182E+2  -6.54567E+2
   1.20340E+3  -6.37140E+1
   5.57189E+2   1.13745E+3
  -6.55564E+2   4.67290E+2
  -7.26982E+2  -5.59103E+2
   1.60540E+2  -9.95830E+2
   8.98809E+2   7.27536E+1
   6.17885E+2   4.96267E+2
  -7.47847E+2   1.67244E+2
  -1.00184E+3  -7.65207E+2
   1.52061E+2  -1.09488E+3
   1.02240E+3  -7.07614E+2
   1.15658E+3   2.35972E+2
   3.83628E+2   6.19601E+2
   1.16130E+2   8.51977E+1
   2.37234E+2   2.54070E+1
   2.17205E+2   6.53890E+2
  -4.46836E+2   8.47278E+2
  -1.17770E+3  -2.62442E+1
  -7.58291E+2  -1.21627E+3
   3.29937E+2  -1.14802E+3
   1.00442E+3  -5.51585E+2
   6.00174E+2   1.68752E+2
   3.21473E+2   1.79565E+2
   4.54543E+2   5.06487E+2
  -1.08648E+2   4.18636E+2
  -5.03641E+2   1.07632E+2
  -2.83780E+2  -3.42919E+2
   1.53759E+1  -3.87730E+2
   6.60838E+2  -1.09623E+2
   5.05715E+2   2.62681E+2
  -1.72086E+2   5.37106E+2
  -6.18624E+2   2.35642E+2
  -3.74526E+2  -3.99923E+2
   3.09065E+2  -3.84836E+2
   6.67006E+1  -3.22561E+2
  -3.26564E+2  -3.98295E+2
  -9.19848E+1  -3.43099E+2
   4.86046E+2   1.56381E+1
   4.80391E+2   3.51159E+2
  -3.46571E+2   5.97324E+2
  -5.57800E+2   4.27828E+1
  -2.92091E+2  -7.35601E+2
   4.93792E+2  -6.81404E+2
   1.01463E+3   1.44796E+2
   7.37170E+1   8.75612E+2
  -1.23205E+2   4.74964E+2
  -4.05109E+2   1.57113E+1
  -2.66565E+2   6.02013E+1
  -5.54204E+2   1.24403E+2
  -4.88044E+2  -2.72538E+2
  -1.55443E+2  -7.61584E+2
   2.96821E+2  -6.56062E+2
   5.96397E+2  -1.64943E+2
   4.29019E+2   4.88163E+2
  -1.22977E+2   3.28754E+2
  -1.01698E+2  -1.49351E+2
   4.64904E+2  -4.70310E+1
   2.45939E+2   2.14567E+2
  -1.57060E+2   1.63859E+2
   1.73768E+1  -8.52634E+0
  -2.72490E+0   3.84988E+1
   3.79635E+1   3.46018E+2
  -2.92177E+2   4.18624E+2
  -5.10341E+2  -4.79849E+1
  -1.45364E+2  -6.16785E+2
   2.97721E+2  -2.73602E+2
   2.19656E+2   7.85057E+0
   1.42708E+2   1.32641E+2
  -1.03431E+2  -3.46596E+1
   6.42994E+0  -2.23090E+2
   2.84978E+2  -1.94421E+2
   4.30396E+1   1.50316E+2
  -1.43110E+2   5.39819E+2
  -4.37194E+1  -4.49047E+1
   1.21018E+1  -3.37748E+2
   4.77751E+2  -3.92556E+0
   8.63807E+1   5.49456E+2
  -3.16111E+2   6.04920E+1
  -4.45855E+2  -6.50309E+2
   5.62022E+2  -4.78054E+2
   5.75782E+2   1.99545E+2
   1.10760E+2   3.24526E+2
  -5.17482E+2   2.49218E+2
  -2.86616E+2   5.88254E+1
  -6.78945E+1  -1.10801E+2
  -6.03766E+1  -2.08820E+2
  -2.98888E+2  -2.95297E+2
   6.18489E+1  -6.34884E+2
   4.48537E+2  -6.26511E+2
   1.18345E+3  -5.29196E+1
   5.69434E+2   6.81790E+2
  -3.33777E+2   4.36734E+2
  -7.21390E+2   3.69965E+2
  -1.54685E+2  -3.69031E+2
   1.07774E+1  -3.05479E+2
   2.68819E+2  -2.51803E+2
   2.17602E+2   1.58328E+2
   1.13388E+1  -3.72102E+1
   1.40863E+2   1.29203E+2
  -4.55641E+1   2.42586E+2
  -2.28920E+2   2.86171E+2
  -5.56933E+2  -1.75885E+2
   2.24049E+2  -5.67228E+2
   3.89075E+2  -1.40854E+2
   1.82150E+2   9.44402E+1
  -1.09415E+1   2.66640E+2
  -1.66582E+2  -1.00803E+2
   1.20823E+2  -1.96127E+2
   3.44455E+2  -1.40033E+2
   2.75767E+2   1.20110E+0
  -1.11999E+2  -1.55250E+2
   4.82315E+1  -3.26194E+2
   7.76861E+2  -7.21578E+1
   2.76180E+2   3.96258E+2
  -2.87692E+2   5.26206E+2
  -7.46980E+2  -9.01810E+1
  -4.64458E+2  -5.33335E+2
   1.24640E+2  -2.23943E+2
   2.69401E+2  -2.84736E+2
   8.96090E+1  -6.75545E+0
   1.92063E+2  -3.40113E+1
   4.03276E+2  -4.88287E+1
   2.15376E+2  -7.99577E+1
  -1.07794E+2   1.34176E+2
  -5.37882E+2   9.44606E+1
  -3.17599E+2  -5.04372E+2
   2.82951E+2  -2.96894E+2
   4.49745E+2  -1.42748E+1
  -5.27279E+1   2.82510E+2
  -1.84997E+2   7.78757E+1
  -3.59466E+2  -3.53058E+2
   1.82052E+2  -1.41105E+2
   9.54430E+1   1.75962E+2
  -1.79402E+2  -3.27091E+1
  -1.86473E+2  -1.40866E+2
  -1.26225E+2  -2.04589E+2
   3.54836E+2   1.40500E+2
   3.86583E+1   1.89614E+2
  -1.28926E+2  -6.66514E+1
  -1.43201E+2  -2.10638E+2
   4.21125E+2  -9.68539E+1
   1.84733E+2   1.96493E+2
   2.14567E+1   2.51755E+2
  -4.27995E+2   2.35669E+2
  -2.39299E+2  -2.03803E+2
   1.29322E+2   7.71333E+1
  -1.73958E+1   1.05578E+2
  -3.68836E+2   1.72212E+1
  -7.23956E+1  -3.27570E+2
   2.86508E+2  -2.11018E+2
   1.29878E+2   1.04224E+2
  -2.56309E+2   2.50528E+2
  -3.05289E+2   1.69743E+2
  -1.58914E+2  -3.90032E+2
  -1.29104E+2  -3.11233E+2
   4.55570E+2  -1.03107E+2
   2.87777E+2   8.03990E+1
   6.04992E+1   8.82295E+0
  -4.98019E+1  -1.34166E+2
  -1.36867E+2   1.00967E+2
  -6.99045E+1   1.98795E+2
  -5.23618E+2  -4.18986E+1
  -2.62437E+2  -5.21302E+2
   4.87825E+2  -7.89575E+2
   3.79292E+2  -2.78016E+1
   5.30234E+1   3.29866E+2
  -1.00170E+2   1.99545E+2
  -4.93776E+2  -1.51640E+2
  -1.45060E+2  -1.82393E+2
   2.09581E+1  -2.55432E+2
   1.58463E+2  -2.82989E+1
   1.84863E+2  -1.17147E+2
   1.19082E+2  -3.32188E+2
   1.43992E+2   2.33282E+1
   2.68772E+2   1.95734E+2
  -2.42341E+2   8.53097E+1
  -1.67520E+2  -8.88748E+1
  -9.70932E+1  -4.38437E+2
   1.44813E+2  -1.65254E+2
  -6.61723E+1  -1.91477E+2
  -2.22545E+2   9.89313E+1
   5.04253E+1   3.05078E+1
   3.51268E+2  -7.47866E+1
   1.10983E+2   2.01951E+2
  -3.70405E+2   2.49687E+2
  -5.45573E+2  -6.20245E+1
  -2.06750E+1  -6.56033E+2
   4.41358E+2  -5.47509E+2
   4.39669E+2   2.14998E+2
   1.91170E+2   4.22167E+2
  -3.08761E+2  -3.04505E+2
  -7.82915E+1  -8.11078E+1
   1.66333E+1   1.62716E+1
  -9.13705E+1   1.54047E+2
  -1.08247E+1   1.91258E+1
   3.31705E+1  -9.70928E+1
   9.26084E+1  -2.91297E+1
   2.60065E+2   1.35008E+2
  -3.40917E+2   2.23320E+2
  -3.28475E+2   3.67862E+1
  -1.79856E+2  -3.11206E+2
   3.31981E+2   9.84535E+1
  -1.40410E+1   2.16413E+2
  -9.78838E+1   3.04802E+2
  -3.52337E+2  -1.78851E+2
  -1.13095E+2  -3.74625E+2
   4.89554E+1  -2.40867E+2
  -1.09032E+2  -5.19921E+1
  -2.38159E+1   8.66316E+1
  -1.06260E+2  -3.18484E+1
   1.01603E+2  -6.60226E+1
   6.24303E+1  -1.11994E+2
  -1.57823E+2   2.84636E+2
  -1.62965E+2   3.36042E+0
  -1.66819E+2   2.71529E+1
  -8.09636E+1  -5.64097E+1
   1.78401E+2   1.31738E+2
   4.25056E+1   5.79941E+1
  -1.89306E+2   2.12919E+0
  -6.36568E+1  -3.53468E+2
   7.22740E+1   1.49478E+2
  -3.90814E+1   3.67717E+2
  -3.48767E+2  -4.31064E+1
  -1.30271E+2  -4.04284E+2
   9.88350E+1  -7.46809E+1
   1.94777E+2   2.45875E+2
   3.04653E+1   3.53492E+2
  -3.43581E+2   1.15642E+2
  -3.62451E+2  -1.82476E+1
   8.11234E+1  -2.48720E+2
   6.51845E+1  -7.58565E+1
   4.57769E+1   2.92787E+1
  -6.14880E+1  -2.01151E+2
   3.88865E+2  -1.29713E+2
   3.49171E+2   2.49890E+2
  -9.18865E+1   4.21199E+2
  -2.42303E+2   2.65147E+2
  -3.85360E+2  -1.98962E+2
  -5.00169E+0  -2.94252E+2
   1.54087E+2  -1.14234E+2
   1.55389E+2   2.45395E+2
  -5.24779E+1  -9.29538E+1
  -3.40276E+2  -1.08714E+0
   8.93418E+1   1.26040E+2
   2.11282E+2  -2.34250E-1
  -2.54219E+1   3.11815E+1
   2.09508E+1  -1.63332E+2
   1.43386E+2  -1.16477E+2
   3.69152E+2  -8.99466E+1
   2.65444E+1   2.61635E+2
  -1.27203E+1   1.71880E+2
  -3.72078E+2  -1.60344E+2
  -1.42271E+2  -2.01159E+2
  -7.00688E+0   4.00790E+1
  -8.88428E+1   2.31358E+2
   5.67308E+0  -2.51613E+2
   4.04528E+1  -3.23351E+2
   1.09904E+2   3.23119E+1
  -2.80468E+1   4.65862E+2
  -4.20449E+2   2.47335E+2
  -3.46566E+2  -1.27941E+2
  -1.44507E+2  -4.51255E+2
   1.28008E+2  -1.69211E+2
   1.65168E+2   2.60183E+1
  -2.40724E+1   2.99005E+2
  -1.15103E+2   1.11900E+2
   6.34113E+1   1.45679E+2
