 LCModel (Version 6.3-1N) Copyright: S.W. Provencher.          Ref.: Magn. Reson. Med. 30:672-679 (1993).                
 Slice_N1@24_14  28-Feb-2025 11:44:01
 27 lines in following concentration table = NCONC+1
    Conc.  %SD /Cr+PCr  Metabolite                                         
 2.67E-04   5% 2.6E-04 Mac                                                 
    8.308  17%   8.000 Cr                                                  
    0.000 999%   0.000 PCr                                                 
    6.884  24%   6.628 Ins                                                 
    6.918  20%   6.661 NAA                                                 
    3.524  67%   3.394 Tau                                                 
    0.000 999%   0.000 PCho                                                
    2.900  13%   2.793 GPC                                                 
   14.444  13%  13.908 Glu                                                 
    1.816  79%   1.749 Gln                                                 
    0.000 999%   0.000 Ala                                                 
   21.581  12%  20.781 Asc                                                 
    2.297  55%   2.211 Asp                                                 
    2.129  34%   2.050 GABA                                                
    1.562  52%   1.504 Glc                                                 
    5.105  18%   4.916 GSH                                                 
    7.363  16%   7.090 Lac                                                 
    4.480  28%   4.314 NAAG                                                
    0.000 999%   0.000 PE                                                  
    2.900  13%   2.793 GPC+PCho                                            
   11.398  10%  10.975 NAA+NAAG                                            
   16.260  14%  15.657 Glu+Gln                                             
    8.308  17%   8.000 Cr+PCr                                              
   11.398  10%  10.975 NAA+NAAG                                            
    8.308  17%   8.000 Cr+PCr                                              
   16.260  14%  15.657 Glu+Gln                                             
   6 lines in following misc. output table
  FWHM = 0.114 ppm    S/N =   3                                            
  Data shift =-0.106 ppm                                                   
  Ph: -96 deg       0.0 deg/ppm                                            
  alphaB,S = 1.5E-01,   3.7E+01                                            
   14 spline knots.   Ns = 8(2)                                            
  ( 8) 7 infls.   (10) 3 extrs.                                            
  480 points on ppm-axis = NY
      4.100000     4.091866     4.083733     4.075600     4.067466     4.059333     4.051199     4.043066     4.034933     4.026799
      4.018666     4.010532     4.002399     3.994265     3.986132     3.977998     3.969864     3.961731     3.953597     3.945463
      3.937330     3.929196     3.921062     3.912929     3.904795     3.896662     3.888528     3.880394     3.872261     3.864127
      3.855993     3.847860     3.839726     3.831592     3.823459     3.815325     3.807191     3.799058     3.790924     3.782790
      3.774657     3.766523     3.758389     3.750256     3.742122     3.733989     3.725855     3.717721     3.709588     3.701454
      3.693320     3.685187     3.677053     3.668919     3.660786     3.652652     3.644518     3.636385     3.628251     3.620117
      3.611984     3.603850     3.595716     3.587583     3.579449     3.571316     3.563182     3.555048     3.546915     3.538781
      3.530647     3.522514     3.514380     3.506246     3.498113     3.489979     3.481845     3.473712     3.465578     3.457444
      3.449311     3.441177     3.433043     3.424910     3.416776     3.408643     3.400509     3.392375     3.384242     3.376108
      3.367974     3.359841     3.351707     3.343573     3.335440     3.327306     3.319172     3.311039     3.302905     3.294771
      3.286638     3.278504     3.270370     3.262237     3.254103     3.245970     3.237836     3.229702     3.221569     3.213435
      3.205301     3.197168     3.189034     3.180900     3.172767     3.164633     3.156499     3.148366     3.140232     3.132098
      3.123965     3.115831     3.107697     3.099564     3.091430     3.083297     3.075163     3.067029     3.058896     3.050762
      3.042628     3.034495     3.026361     3.018227     3.010094     3.001960     2.993826     2.985693     2.977559     2.969425
      2.961292     2.953158     2.945024     2.936891     2.928757     2.920624     2.912490     2.904356     2.896223     2.888089
      2.879955     2.871822     2.863688     2.855554     2.847421     2.839287     2.831153     2.823020     2.814886     2.806752
      2.798619     2.790485     2.782351     2.774218     2.766084     2.757951     2.749817     2.741683     2.733550     2.725416
      2.717282     2.709149     2.701015     2.692881     2.684748     2.676614     2.668480     2.660347     2.652213     2.644079
      2.635946     2.627812     2.619678     2.611545     2.603411     2.595278     2.587144     2.579010     2.570877     2.562743
      2.554609     2.546476     2.538342     2.530208     2.522075     2.513941     2.505807     2.497674     2.489540     2.481406
      2.473273     2.465139     2.457006     2.448872     2.440738     2.432605     2.424471     2.416337     2.408204     2.400070
      2.391936     2.383803     2.375669     2.367535     2.359402     2.351268     2.343134     2.335001     2.326867     2.318733
      2.310600     2.302466     2.294333     2.286199     2.278065     2.269932     2.261798     2.253664     2.245531     2.237397
      2.229263     2.221130     2.212996     2.204862     2.196729     2.188595     2.180461     2.172328     2.164194     2.156060
      2.147927     2.139793     2.131660     2.123526     2.115392     2.107259     2.099125     2.090991     2.082858     2.074724
      2.066590     2.058457     2.050323     2.042189     2.034056     2.025922     2.017788     2.009655     2.001521     1.993387
      1.985254     1.977120     1.968987     1.960853     1.952719     1.944586     1.936452     1.928318     1.920185     1.912051
      1.903917     1.895784     1.887650     1.879516     1.871383     1.863249     1.855115     1.846982     1.838848     1.830714
      1.822581     1.814447     1.806314     1.798180     1.790046     1.781913     1.773779     1.765645     1.757512     1.749378
      1.741244     1.733111     1.724977     1.716843     1.708710     1.700576     1.692442     1.684309     1.676175     1.668041
      1.659908     1.651774     1.643641     1.635507     1.627373     1.619240     1.611106     1.602972     1.594839     1.586705
      1.578571     1.570438     1.562304     1.554170     1.546037     1.537903     1.529769     1.521636     1.513502     1.505368
      1.497235     1.489101     1.480968     1.472834     1.464700     1.456567     1.448433     1.440299     1.432166     1.424032
      1.415898     1.407765     1.399631     1.391497     1.383364     1.375230     1.367096     1.358963     1.350829     1.342695
      1.334562     1.326428     1.318295     1.310161     1.302027     1.293894     1.285760     1.277626     1.269493     1.261359
      1.253225     1.245092     1.236958     1.228824     1.220691     1.212557     1.204423     1.196290     1.188156     1.180022
      1.171889     1.163755     1.155622     1.147488     1.139354     1.131221     1.123087     1.114953     1.106820     1.098686
      1.090552     1.082419     1.074285     1.066151     1.058018     1.049884     1.041750     1.033617     1.025483     1.017349
      1.009216     1.001082     0.992949     0.984815     0.976681     0.968548     0.960414     0.952280     0.944147     0.936013
      0.927879     0.919746     0.911612     0.903478     0.895345     0.887211     0.879077     0.870944     0.862810     0.854676
      0.846543     0.838409     0.830276     0.822142     0.814008     0.805875     0.797741     0.789607     0.781474     0.773340
      0.765206     0.757073     0.748939     0.740805     0.732672     0.724538     0.716404     0.708271     0.700137     0.692003
      0.683870     0.675736     0.667603     0.659469     0.651335     0.643202     0.635068     0.626934     0.618801     0.610667
      0.602533     0.594400     0.586266     0.578132     0.569999     0.561865     0.553731     0.545598     0.537464     0.529330
      0.521197     0.513063     0.504930     0.496796     0.488662     0.480529     0.472395     0.464261     0.456128     0.447994
      0.439861     0.431727     0.423593     0.415460     0.407326     0.399192     0.391059     0.382925     0.374792     0.366658
      0.358524     0.350391     0.342257     0.334124     0.325990     0.317856     0.309723     0.301589     0.293455     0.285322
      0.277188     0.269055     0.260921     0.252787     0.244654     0.236520     0.228386     0.220253     0.212119     0.203986
 NY phased data points follow
  -8.60709E+00 -1.67272E+01 -1.82285E+01 -1.78128E+01 -1.48327E+01 -1.12880E+01 -1.07431E+01 -9.97269E+00 -1.29444E+01 -2.06440E+01
  -1.50195E+01 -9.91684E+00 -1.73342E+01 -3.35406E+01 -1.96316E+01 -2.36176E+01 -3.01643E+01 -1.07666E+01 -2.27920E+01 -3.57635E+01
  -2.88307E+01 -3.68861E+01 -3.35556E+01 -1.76857E+01 -2.81460E+01 -2.08448E+01 -2.92872E+01 -3.41104E+01 -2.70471E+01 -5.10326E+01
  -2.94815E+01 -2.49413E+01 -2.98538E+01 -2.08002E+01 -4.15875E+01 -4.73981E+01 -5.51997E+01 -7.04175E+01 -6.98714E+01 -8.08141E+01
  -7.78379E+01 -7.50833E+01 -1.06386E+02 -1.01373E+02 -1.00673E+02 -1.16779E+02 -1.01336E+02 -1.04459E+02 -1.00555E+02 -7.42912E+01
  -6.67978E+01 -6.90681E+01 -5.84737E+01 -6.10664E+01 -6.00441E+01 -5.02192E+01 -6.33512E+01 -7.10306E+01 -5.60610E+01 -4.93379E+01
  -5.20612E+01 -4.76431E+01 -5.19842E+01 -4.04279E+01 -1.30393E+01 -1.89670E+01 -3.49713E+01 -2.69971E+01 -1.25992E+01 -1.25649E+01
  -1.68027E+01 -8.07531E+00 -6.10267E+00 -1.87842E+01 -8.04283E+00 -1.87720E+01 -4.04236E+01 -1.71534E+01 -1.87878E+01 -2.84271E+01
  -8.29296E+00 -1.44433E+01 -9.20666E+00 -9.43147E+00 -1.27461E+01  1.05114E+01 -1.26510E+01 -1.25014E+01 -2.56835E+00 -1.34141E+01
  -1.03143E+01 -1.74683E+01  1.97711E+00 -3.10354E+00  1.77076E+01  3.84466E+01  1.24947E+01  3.45026E+01  2.54390E+01  6.95633E+00
   1.52914E+01  8.02824E+00  1.53721E+01  6.06770E+00 -4.51166E+00 -1.45366E+01 -2.82525E+01 -2.67012E+01 -3.22488E+01 -3.16394E+01
  -5.89059E+01 -6.50086E+01 -4.69881E+01 -5.70969E+01 -5.87758E+01 -7.46983E+01 -6.61138E+01 -6.96896E+01 -6.45550E+01 -4.14265E+01
  -4.18712E+01 -3.28733E+01 -3.33446E+01 -9.72785E+00 -1.41841E+01 -6.17151E+00  1.05035E+01 -1.99381E+01 -1.77448E+01  6.15464E+00
   1.64915E+01 -3.49921E+00 -3.33401E+00 -5.64485E+00 -2.25151E+01 -2.77357E+01 -2.10090E+01 -1.84793E+01 -4.85343E+01 -7.03045E+01
  -6.67430E+01 -6.62648E+01 -8.35479E+01 -7.75462E+01 -7.50605E+01 -6.48998E+01 -6.22927E+01 -6.28455E+01 -4.04409E+01 -7.00642E+01
  -8.50488E+01 -7.71703E+01 -8.13827E+01 -9.25089E+01 -7.27845E+01 -5.26127E+01 -4.89551E+01 -5.29437E+01 -7.13509E+01 -5.01415E+01
  -5.56885E+01 -4.18818E+01 -4.74967E+01 -5.72450E+01 -4.46689E+01 -5.76791E+01 -3.01046E+01 -4.71922E+01 -3.09254E+01 -2.94765E+01
  -5.65688E+01 -4.34414E+01 -4.60590E+01 -3.34497E+01 -4.98883E+01 -4.51897E+01 -4.80881E+01 -4.47986E+01 -2.52707E+01 -3.35304E+01
  -3.20788E+01 -5.36436E+01 -4.81425E+01 -3.91277E+01 -6.23076E+01 -6.55877E+01 -3.43286E+01 -4.71809E+01 -5.39923E+01 -3.87291E+01
  -6.58155E+01 -3.61288E+01 -2.45285E+01 -3.81367E+01 -3.34203E+01 -4.14561E+01 -4.59203E+01 -4.26912E+01 -2.36055E+01 -3.43864E+01
  -3.70496E+01 -3.39761E+01 -3.16535E+01 -3.81405E+01 -3.13053E+01 -2.23306E+01 -4.16907E+01 -2.55746E+01 -4.07407E+01 -4.25842E+01
  -3.89414E+01 -3.64702E+01 -2.95640E+01 -5.70181E+01 -3.66960E+01 -5.24861E+01 -4.55117E+01 -1.68009E+01 -4.28413E+01 -3.25248E+01
  -1.58160E+01 -1.79969E+01 -2.53708E+01 -2.67765E+01 -1.78649E+01 -1.18123E+01 -1.91607E+01 -1.77180E+01 -1.57029E+01 -3.19539E+01
  -2.76183E+01 -2.71293E+01 -3.96430E+01 -1.88597E+01 -1.98460E+01 -4.34984E+01 -4.26785E+01 -6.25956E+01 -5.52513E+01 -4.74922E+01
  -5.19670E+01 -4.45328E+01 -5.86150E+01 -5.44771E+01 -4.98888E+01 -5.45180E+01 -4.51250E+01 -3.81230E+01 -5.60965E+01 -4.80834E+01
  -5.96156E+01 -5.88283E+01 -3.36564E+01 -5.75026E+01 -3.76424E+01 -3.07244E+01 -1.86110E+01 -2.33206E+01 -8.63956E+00  1.80862E+01
   1.50366E+00  5.15350E+01  4.93663E+01  5.01019E+01  5.57863E+01  6.16153E+01  7.24527E+01  4.55209E+01  5.76267E+01  5.14981E+01
   5.55549E+01  4.95623E+01  4.58289E+01  1.13853E+01  1.62285E+01  6.55229E+01  4.71195E+01  6.10978E+01  4.79071E+01  5.44603E+01
   6.60732E+01  5.05623E+01  5.45482E+01  4.77923E+01  6.09671E+01  4.84473E+01  4.50509E+01  4.77856E+01  3.62984E+01  2.26832E+01
   2.41901E+01  2.84626E+01  1.71645E+01  3.70523E+01  2.37438E+01  2.31748E+01  2.56277E+01  4.73291E+00  2.42234E+01  8.92262E+00
   2.39221E+01  3.20097E+01  1.37010E+01  2.45714E+01 -6.46130E+00  2.54816E+01  4.44788E+01  1.29252E+01  2.11113E+01  5.68728E+00
   1.72752E+01  2.30402E+01  1.20589E+00  5.54977E+00 -2.76814E+00 -6.84285E-01  1.45749E+01 -1.43043E+00  1.86383E+01  2.25455E+01
  -5.70017E+00  2.36060E+01  2.91384E+01  1.16321E+01  5.30580E+00  2.06876E+01  1.68225E+01  3.20608E+00  1.64863E+01  1.11050E+01
   2.27972E+01  2.90485E+00 -7.18147E+00  6.34585E+00 -2.04162E-02  3.63210E+00  1.64777E+00  3.86840E+00 -7.34905E+00 -2.32431E+01
  -2.01823E+01 -2.00262E+01 -4.49587E+01 -3.93787E+01 -3.17252E+01 -3.83854E+01 -3.53358E+01 -4.71139E+01 -3.28533E+01 -3.71061E+01
  -4.58108E+01 -5.39681E+01 -4.89040E+01 -3.31645E+01 -4.97579E+01 -3.81181E+01 -2.04996E+01 -2.12153E+01 -4.04875E+01 -4.81121E+01
  -3.88905E+01 -3.80518E+01 -4.33751E+01 -4.32300E+01 -4.10894E+01 -4.12456E+01 -1.85874E+01 -1.71154E+01 -2.02496E+01 -2.06487E+01
   4.82604E+00  1.73748E+01 -9.22223E+00  1.59520E+01  1.25975E+01  3.50010E+00  2.24066E+01  1.80521E+01  2.86321E+01  3.80790E+01
   1.73355E+01  1.65765E+01  5.47954E+01  6.10874E+01  5.86656E+01  5.29927E+01  3.41846E+01  3.26782E+01  3.99833E+01  4.70529E+01
   6.10350E+01  6.82367E+01  4.05382E+01  4.31627E+01  3.97363E+01  3.85203E+01  4.44833E+01  7.29807E+00  1.97783E+01  8.29863E+00
  -1.04557E+01  8.67850E+00 -1.26515E+00 -2.76230E+01 -3.81724E+01 -2.77551E+01 -3.90220E+01 -2.83519E+01 -4.19748E+01 -5.70564E+01
  -4.07179E+01 -5.49215E+01 -5.92521E+01 -5.57122E+01 -5.27381E+01 -7.43199E+01 -5.88881E+01 -3.95833E+01 -4.54007E+01 -3.34574E+01
  -4.46745E+01 -4.21633E+01 -5.18914E+01 -4.70128E+01 -4.39707E+01 -6.04756E+01 -4.99155E+01 -5.07152E+01 -5.02659E+01 -4.27028E+01
  -3.50105E+01 -4.83384E+01 -5.34891E+01 -4.10767E+01 -4.40347E+01 -4.69260E+01 -3.86774E+01 -4.35772E+01 -5.20418E+01 -3.97333E+01
  -4.49355E+01 -4.24579E+01 -4.26651E+01 -3.38043E+01 -2.33684E+01 -5.09920E+01 -4.85115E+01 -5.72330E+01 -5.72276E+01 -3.93213E+01
  -4.37628E+01 -1.48946E+01 -2.24223E+01 -5.08680E+01 -3.64604E+01 -2.95509E+01 -2.05997E+01 -2.81532E+01 -3.01091E+01 -2.21040E+01
  -4.59601E+01 -3.94212E+01 -3.20114E+01 -4.76179E+01 -4.02068E+01 -4.36649E+01 -5.15320E+01 -4.39995E+01 -4.86589E+01 -4.13417E+01
  -2.14973E+01 -3.74533E+01 -4.38482E+01 -3.63153E+01 -5.29202E+01 -4.26167E+01 -2.42205E+01 -3.30045E+01 -3.06751E+01 -3.79623E+01
 NY points of the fit to the data follow
  -1.61565E+01 -1.56985E+01 -2.02759E+01 -2.00611E+01 -2.39894E+01 -2.44459E+01 -2.72432E+01 -2.92002E+01 -3.09195E+01 -3.39235E+01
  -3.28279E+01 -3.52447E+01 -3.14717E+01 -3.32747E+01 -2.94399E+01 -3.18809E+01 -2.76787E+01 -3.20714E+01 -2.61361E+01 -3.15135E+01
  -2.60742E+01 -3.13896E+01 -2.59978E+01 -3.10487E+01 -2.62100E+01 -3.06306E+01 -2.37400E+01 -2.66718E+01 -1.82121E+01 -2.08630E+01
  -1.44218E+01 -1.73152E+01 -1.68934E+01 -2.07783E+01 -2.77391E+01 -3.36840E+01 -4.52710E+01 -5.30549E+01 -6.38126E+01 -6.96289E+01
  -7.67320E+01 -8.04002E+01 -9.13886E+01 -9.34766E+01 -1.00742E+02 -9.94959E+01 -1.01473E+02 -9.70492E+01 -9.31433E+01 -8.64332E+01
  -7.83080E+01 -7.04094E+01 -6.24494E+01 -5.53597E+01 -5.26195E+01 -4.77450E+01 -4.93533E+01 -4.69831E+01 -4.66545E+01 -4.65094E+01
  -4.37488E+01 -3.74453E+01 -3.22939E+01 -2.74687E+01 -2.52085E+01 -2.29226E+01 -2.34014E+01 -2.20085E+01 -2.31659E+01 -2.16737E+01
  -2.26338E+01 -2.09663E+01 -2.06794E+01 -2.10320E+01 -2.04921E+01 -2.11390E+01 -2.05164E+01 -1.73270E+01 -1.66229E+01 -1.36624E+01
  -1.08940E+01 -9.39387E+00 -8.43857E+00 -8.27413E+00 -9.06515E+00 -8.47179E+00 -9.38330E+00 -6.39331E+00 -5.73456E+00 -3.43791E+00
  -1.74224E+00  1.60810E+00  3.43919E+00  6.31468E+00  8.70160E+00  9.95467E+00  1.12373E+01  1.01651E+01  1.02227E+01  8.49767E+00
   8.36682E+00  5.61934E+00  5.52337E+00 -4.05308E-01 -1.78993E+00 -9.58543E+00 -1.18333E+01 -2.17434E+01 -2.57105E+01 -3.59445E+01
  -3.99431E+01 -4.77293E+01 -5.01088E+01 -5.52691E+01 -5.75113E+01 -5.94332E+01 -6.13084E+01 -5.73700E+01 -5.52022E+01 -4.89918E+01
  -4.18950E+01 -3.64925E+01 -2.91533E+01 -2.61079E+01 -2.25434E+01 -2.13666E+01 -2.08567E+01 -1.49384E+01 -8.46963E+00 -6.56340E+00
  -3.46325E+00 -6.95395E+00 -6.13290E+00 -1.40407E+01 -1.42419E+01 -2.33087E+01 -2.46658E+01 -3.53546E+01 -3.80770E+01 -5.03581E+01
  -5.31443E+01 -6.15566E+01 -6.30619E+01 -6.42733E+01 -6.46341E+01 -6.25481E+01 -6.42842E+01 -6.67864E+01 -7.06297E+01 -7.75103E+01
  -7.79178E+01 -7.52659E+01 -7.44886E+01 -7.22231E+01 -7.04235E+01 -6.88124E+01 -6.76396E+01 -6.57616E+01 -6.49907E+01 -6.27361E+01
  -6.13143E+01 -5.97177E+01 -5.79110E+01 -5.65140E+01 -5.46191E+01 -5.33713E+01 -5.13334E+01 -5.01623E+01 -4.82372E+01 -4.70530E+01
  -4.51400E+01 -4.40368E+01 -4.26172E+01 -4.19788E+01 -4.12111E+01 -4.04844E+01 -3.98687E+01 -3.95731E+01 -3.99006E+01 -4.06867E+01
  -4.17622E+01 -4.26421E+01 -4.36153E+01 -4.43493E+01 -4.46724E+01 -4.48068E+01 -4.42105E+01 -4.36158E+01 -4.30477E+01 -4.18425E+01
  -4.17052E+01 -3.89463E+01 -3.74078E+01 -3.48519E+01 -3.36308E+01 -3.25501E+01 -3.22393E+01 -3.08501E+01 -3.10672E+01 -3.08679E+01
  -3.12402E+01 -3.28944E+01 -3.30568E+01 -3.55084E+01 -3.62598E+01 -3.77517E+01 -3.99005E+01 -4.04067E+01 -4.25516E+01 -4.31239E+01
  -4.33233E+01 -4.31293E+01 -4.23116E+01 -4.04116E+01 -3.82193E+01 -3.36427E+01 -3.21038E+01 -2.49958E+01 -2.39196E+01 -1.55734E+01
  -1.53833E+01 -7.60965E+00 -9.50017E+00 -2.86991E+00 -8.48347E+00 -5.65612E+00 -1.35644E+01 -1.59482E+01 -2.22596E+01 -2.77790E+01
  -3.10569E+01 -3.57983E+01 -3.97789E+01 -4.23352E+01 -4.82034E+01 -5.22153E+01 -5.55653E+01 -6.01522E+01 -6.13037E+01 -6.28639E+01
  -6.23053E+01 -6.24012E+01 -6.16939E+01 -6.04225E+01 -6.07335E+01 -5.74528E+01 -5.90482E+01 -5.41885E+01 -5.63685E+01 -5.15557E+01
  -5.17061E+01 -4.74975E+01 -4.17456E+01 -3.74435E+01 -2.93061E+01 -2.46999E+01 -1.39488E+01 -9.97937E+00  4.37160E+00  7.16294E+00
   2.29599E+01  2.33307E+01  3.84689E+01  3.63334E+01  4.86348E+01  4.57041E+01  5.19412E+01  4.98419E+01  5.18528E+01  4.94776E+01
   5.21072E+01  4.78397E+01  5.01344E+01  4.75733E+01  5.43050E+01  5.27054E+01  5.12936E+01  4.95655E+01  4.81282E+01  4.70389E+01
   4.53337E+01  4.42044E+01  4.22787E+01  4.04493E+01  3.85660E+01  3.62340E+01  3.43532E+01  3.22415E+01  3.00707E+01  2.84886E+01
   2.61970E+01  2.47861E+01  2.28612E+01  2.15121E+01  2.00176E+01  1.90889E+01  1.81393E+01  1.78293E+01  1.75463E+01  1.78087E+01
   1.82285E+01  1.89582E+01  1.97521E+01  2.07358E+01  2.16826E+01  2.27469E+01  2.38288E+01  2.48761E+01  2.60503E+01  2.71100E+01
   2.82323E+01  2.90670E+01  2.98888E+01  3.02438E+01  3.05094E+01  3.03198E+01  2.98995E+01  2.90412E+01  2.79024E+01  2.63880E+01
   2.45762E+01  2.24626E+01  2.00575E+01  1.74203E+01  1.45787E+01  1.17520E+01  9.00746E+00  5.90097E+00  3.51176E+00  1.30843E-01
  -1.88575E+00 -4.60372E+00 -5.50086E+00 -7.45587E+00 -6.69687E+00 -8.79739E+00 -7.25601E+00 -9.78088E+00 -8.18502E+00 -1.20368E+01
  -1.11218E+01 -1.66218E+01 -1.72288E+01 -2.30043E+01 -2.43990E+01 -3.00914E+01 -3.19267E+01 -3.71524E+01 -3.98335E+01 -4.25666E+01
  -4.50160E+01 -4.41770E+01 -4.43682E+01 -4.23181E+01 -4.05948E+01 -4.08584E+01 -3.99606E+01 -4.22930E+01 -4.35169E+01 -4.20715E+01
  -4.18875E+01 -3.79199E+01 -3.46731E+01 -3.12432E+01 -2.83479E+01 -2.50861E+01 -2.22306E+01 -1.88457E+01 -1.58151E+01 -1.20588E+01
  -8.57398E+00 -4.46451E+00 -6.27620E-01  3.84308E+00  7.88526E+00  1.26717E+01  1.68196E+01  2.17283E+01  2.58424E+01  3.04843E+01
   3.42362E+01  3.81952E+01  4.10796E+01  4.39251E+01  4.54446E+01  4.67826E+01  4.66933E+01  4.63981E+01  4.46413E+01  4.26760E+01
   3.94001E+01  3.58648E+01  3.14933E+01  2.68959E+01  2.20466E+01  1.70338E+01  1.24046E+01  7.41397E+00  2.96353E+00 -2.06689E+00
  -6.57340E+00 -1.16827E+01 -1.60312E+01 -2.06944E+01 -2.41951E+01 -2.77837E+01 -3.02364E+01 -3.28740E+01 -3.46472E+01 -3.66650E+01
  -3.81585E+01 -3.98108E+01 -4.09573E+01 -4.21527E+01 -4.29130E+01 -4.36316E+01 -4.39923E+01 -4.44157E+01 -4.45663E+01 -4.47750E+01
  -4.48085E+01 -4.49267E+01 -4.49112E+01 -4.49512E+01 -4.48607E+01 -4.48087E+01 -4.46895E+01 -4.45688E+01 -4.45037E+01 -4.43042E+01
  -4.42593E+01 -4.39943E+01 -4.39774E+01 -4.36439E+01 -4.35731E+01 -4.32920E+01 -4.32496E+01 -4.29585E+01 -4.28562E+01 -4.26029E+01
  -4.24303E+01 -4.22224E+01 -4.19568E+01 -4.18221E+01 -4.15648E+01 -4.14749E+01 -4.12185E+01 -4.11219E+01 -4.08299E+01 -4.07321E+01
  -4.03757E+01 -4.03156E+01 -3.99065E+01 -3.99117E+01 -3.94603E+01 -3.95634E+01 -3.90675E+01 -3.92434E+01 -3.87552E+01 -3.88987E+01
  -3.84479E+01 -3.85799E+01 -3.81785E+01 -3.83724E+01 -3.79807E+01 -3.82128E+01 -3.78574E+01 -3.80763E+01 -3.77623E+01 -3.80234E+01
  -3.77278E+01 -3.80403E+01 -3.77729E+01 -3.81375E+01 -3.79460E+01 -3.83360E+01 -3.82084E+01 -3.85555E+01 -3.83843E+01 -3.86825E+01
 NY background values follow
     2.855E+01    2.732E+01    2.609E+01    2.486E+01    2.363E+01    2.239E+01    2.116E+01    1.992E+01    1.869E+01    1.746E+01
     1.623E+01    1.501E+01    1.379E+01    1.257E+01    1.136E+01    1.015E+01    8.955E+00    7.762E+00    6.576E+00    5.399E+00
     4.229E+00    3.069E+00    1.919E+00    7.790E-01   -3.501E-01   -1.468E+00   -2.573E+00   -3.666E+00   -4.746E+00   -5.811E+00
    -6.862E+00   -7.898E+00   -8.919E+00   -9.923E+00   -1.091E+01   -1.188E+01   -1.283E+01   -1.376E+01   -1.468E+01   -1.557E+01
    -1.645E+01   -1.730E+01   -1.813E+01   -1.894E+01   -1.972E+01   -2.049E+01   -2.123E+01   -2.194E+01   -2.264E+01   -2.331E+01
    -2.396E+01   -2.459E+01   -2.520E+01   -2.579E+01   -2.635E+01   -2.690E+01   -2.742E+01   -2.792E+01   -2.841E+01   -2.887E+01
    -2.932E+01   -2.974E+01   -3.015E+01   -3.053E+01   -3.090E+01   -3.125E+01   -3.158E+01   -3.189E+01   -3.219E+01   -3.247E+01
    -3.273E+01   -3.297E+01   -3.320E+01   -3.340E+01   -3.360E+01   -3.377E+01   -3.393E+01   -3.408E+01   -3.421E+01   -3.432E+01
    -3.442E+01   -3.451E+01   -3.457E+01   -3.463E+01   -3.467E+01   -3.470E+01   -3.471E+01   -3.471E+01   -3.469E+01   -3.467E+01
    -3.463E+01   -3.458E+01   -3.451E+01   -3.443E+01   -3.435E+01   -3.425E+01   -3.414E+01   -3.402E+01   -3.389E+01   -3.375E+01
    -3.360E+01   -3.344E+01   -3.327E+01   -3.309E+01   -3.291E+01   -3.271E+01   -3.251E+01   -3.230E+01   -3.208E+01   -3.186E+01
    -3.163E+01   -3.139E+01   -3.115E+01   -3.090E+01   -3.065E+01   -3.039E+01   -3.012E+01   -2.985E+01   -2.958E+01   -2.930E+01
    -2.902E+01   -2.874E+01   -2.845E+01   -2.816E+01   -2.787E+01   -2.757E+01   -2.728E+01   -2.698E+01   -2.668E+01   -2.638E+01
    -2.608E+01   -2.578E+01   -2.548E+01   -2.517E+01   -2.487E+01   -2.457E+01   -2.427E+01   -2.397E+01   -2.367E+01   -2.337E+01
    -2.307E+01   -2.278E+01   -2.248E+01   -2.218E+01   -2.189E+01   -2.159E+01   -2.130E+01   -2.101E+01   -2.072E+01   -2.043E+01
    -2.015E+01   -1.986E+01   -1.958E+01   -1.930E+01   -1.902E+01   -1.875E+01   -1.847E+01   -1.820E+01   -1.793E+01   -1.767E+01
    -1.740E+01   -1.714E+01   -1.688E+01   -1.663E+01   -1.638E+01   -1.613E+01   -1.588E+01   -1.564E+01   -1.540E+01   -1.517E+01
    -1.494E+01   -1.471E+01   -1.449E+01   -1.427E+01   -1.405E+01   -1.384E+01   -1.363E+01   -1.343E+01   -1.323E+01   -1.304E+01
    -1.285E+01   -1.266E+01   -1.248E+01   -1.230E+01   -1.213E+01   -1.196E+01   -1.179E+01   -1.163E+01   -1.147E+01   -1.132E+01
    -1.117E+01   -1.103E+01   -1.088E+01   -1.075E+01   -1.061E+01   -1.048E+01   -1.036E+01   -1.023E+01   -1.012E+01   -1.000E+01
    -9.891E+00   -9.784E+00   -9.681E+00   -9.582E+00   -9.486E+00   -9.394E+00   -9.306E+00   -9.222E+00   -9.141E+00   -9.064E+00
    -8.990E+00   -8.920E+00   -8.854E+00   -8.791E+00   -8.732E+00   -8.676E+00   -8.624E+00   -8.576E+00   -8.531E+00   -8.489E+00
    -8.451E+00   -8.418E+00   -8.388E+00   -8.363E+00   -8.342E+00   -8.326E+00   -8.315E+00   -8.309E+00   -8.309E+00   -8.315E+00
    -8.326E+00   -8.343E+00   -8.366E+00   -8.396E+00   -8.433E+00   -8.476E+00   -8.527E+00   -8.585E+00   -8.650E+00   -8.723E+00
    -8.804E+00   -8.893E+00   -8.990E+00   -9.096E+00   -9.211E+00   -9.335E+00   -9.467E+00   -9.609E+00   -9.761E+00   -9.923E+00
    -1.009E+01   -1.028E+01   -1.047E+01   -1.067E+01   -1.088E+01   -1.111E+01   -1.134E+01   -1.159E+01   -1.185E+01   -1.212E+01
    -1.240E+01   -1.270E+01   -1.301E+01   -1.333E+01   -1.366E+01   -1.400E+01   -1.435E+01   -1.472E+01   -1.509E+01   -1.547E+01
    -1.586E+01   -1.626E+01   -1.667E+01   -1.708E+01   -1.750E+01   -1.792E+01   -1.836E+01   -1.879E+01   -1.923E+01   -1.967E+01
    -2.012E+01   -2.057E+01   -2.102E+01   -2.148E+01   -2.193E+01   -2.239E+01   -2.285E+01   -2.330E+01   -2.376E+01   -2.421E+01
    -2.467E+01   -2.512E+01   -2.556E+01   -2.601E+01   -2.645E+01   -2.688E+01   -2.731E+01   -2.774E+01   -2.816E+01   -2.857E+01
    -2.898E+01   -2.937E+01   -2.976E+01   -3.015E+01   -3.052E+01   -3.088E+01   -3.123E+01   -3.158E+01   -3.191E+01   -3.223E+01
    -3.255E+01   -3.285E+01   -3.315E+01   -3.343E+01   -3.371E+01   -3.397E+01   -3.423E+01   -3.447E+01   -3.471E+01   -3.494E+01
    -3.516E+01   -3.537E+01   -3.557E+01   -3.576E+01   -3.594E+01   -3.612E+01   -3.628E+01   -3.644E+01   -3.658E+01   -3.672E+01
    -3.685E+01   -3.697E+01   -3.708E+01   -3.719E+01   -3.728E+01   -3.737E+01   -3.745E+01   -3.752E+01   -3.758E+01   -3.764E+01
    -3.768E+01   -3.772E+01   -3.775E+01   -3.777E+01   -3.779E+01   -3.780E+01   -3.779E+01   -3.779E+01   -3.777E+01   -3.774E+01
    -3.771E+01   -3.767E+01   -3.763E+01   -3.758E+01   -3.752E+01   -3.745E+01   -3.738E+01   -3.731E+01   -3.722E+01   -3.714E+01
    -3.705E+01   -3.695E+01   -3.685E+01   -3.674E+01   -3.663E+01   -3.652E+01   -3.641E+01   -3.629E+01   -3.616E+01   -3.604E+01
    -3.591E+01   -3.578E+01   -3.565E+01   -3.552E+01   -3.538E+01   -3.525E+01   -3.511E+01   -3.497E+01   -3.484E+01   -3.470E+01
    -3.456E+01   -3.442E+01   -3.429E+01   -3.415E+01   -3.402E+01   -3.388E+01   -3.375E+01   -3.362E+01   -3.349E+01   -3.337E+01
    -3.325E+01   -3.313E+01   -3.301E+01   -3.289E+01   -3.278E+01   -3.268E+01   -3.257E+01   -3.247E+01   -3.237E+01   -3.227E+01
    -3.217E+01   -3.208E+01   -3.199E+01   -3.189E+01   -3.180E+01   -3.172E+01   -3.163E+01   -3.154E+01   -3.145E+01   -3.136E+01
    -3.128E+01   -3.119E+01   -3.110E+01   -3.101E+01   -3.092E+01   -3.083E+01   -3.074E+01   -3.065E+01   -3.056E+01   -3.046E+01
    -3.036E+01   -3.026E+01   -3.016E+01   -3.006E+01   -2.995E+01   -2.984E+01   -2.973E+01   -2.961E+01   -2.949E+01   -2.937E+01
    -2.924E+01   -2.911E+01   -2.898E+01   -2.884E+01   -2.869E+01   -2.854E+01   -2.839E+01   -2.823E+01   -2.807E+01   -2.790E+01
    -2.773E+01   -2.755E+01   -2.737E+01   -2.718E+01   -2.700E+01   -2.680E+01   -2.661E+01   -2.641E+01   -2.620E+01   -2.600E+01
    -2.579E+01   -2.558E+01   -2.536E+01   -2.515E+01   -2.493E+01   -2.471E+01   -2.448E+01   -2.426E+01   -2.403E+01   -2.380E+01
    -2.357E+01   -2.334E+01   -2.311E+01   -2.288E+01   -2.265E+01   -2.241E+01   -2.218E+01   -2.195E+01   -2.171E+01   -2.148E+01
    -2.124E+01   -2.101E+01   -2.078E+01   -2.054E+01   -2.031E+01   -2.008E+01   -1.985E+01   -1.963E+01   -1.940E+01   -1.918E+01
 Mac      Conc. = 2.67E-04
   1.05908E+01  8.48458E+00  6.71841E+00  4.60703E+00  2.80064E+00  7.38699E-01 -1.07238E+00 -3.07294E+00 -4.81016E+00 -6.73799E+00
  -8.29566E+00 -1.00106E+01 -1.12977E+01 -1.26543E+01 -1.34774E+01 -1.43312E+01 -1.47557E+01 -1.52215E+01 -1.54449E+01 -1.56041E+01
  -1.56013E+01 -1.54287E+01 -1.50903E+01 -1.46449E+01 -1.42300E+01 -1.38144E+01 -1.37095E+01 -1.35225E+01 -1.36002E+01 -1.35096E+01
  -1.33587E+01 -1.31551E+01 -1.27644E+01 -1.26561E+01 -1.25569E+01 -1.25452E+01 -1.26065E+01 -1.28290E+01 -1.30023E+01 -1.32361E+01
  -1.33250E+01 -1.35765E+01 -1.36926E+01 -1.40902E+01 -1.44291E+01 -1.50893E+01 -1.55894E+01 -1.63783E+01 -1.69760E+01 -1.76979E+01
  -1.82639E+01 -1.88649E+01 -1.94907E+01 -2.00814E+01 -2.07554E+01 -2.11657E+01 -2.15235E+01 -2.16966E+01 -2.18851E+01 -2.20155E+01
  -2.22505E+01 -2.23836E+01 -2.26308E+01 -2.27069E+01 -2.29495E+01 -2.29687E+01 -2.31243E+01 -2.31321E+01 -2.31044E+01 -2.30323E+01
  -2.27845E+01 -2.26223E+01 -2.22077E+01 -2.20430E+01 -2.16299E+01 -2.14260E+01 -2.11652E+01 -2.11254E+01 -2.09806E+01 -2.10298E+01
  -2.09544E+01 -2.09181E+01 -2.08486E+01 -2.05961E+01 -2.03871E+01 -1.99651E+01 -1.97285E+01 -1.95520E+01 -1.94529E+01 -1.95419E+01
  -1.97451E+01 -2.01388E+01 -2.06565E+01 -2.13893E+01 -2.21500E+01 -2.32202E+01 -2.42677E+01 -2.56444E+01 -2.70546E+01 -2.87729E+01
  -3.05357E+01 -3.24438E+01 -3.43551E+01 -3.62904E+01 -3.80994E+01 -3.98042E+01 -4.13294E+01 -4.26559E+01 -4.37216E+01 -4.45352E+01
