 
 $NMID
 ID=''
 FMTDAT='(2E13.5)'
 TRAMP=   1.00000E+0
 VOLUME=   1.00000E+0
 $END
  -1.12198E+4   7.62083E+5
  -7.91650E+5   1.91398E+6
  -5.75196E+5   1.96041E+6
  -6.37423E+5   1.79815E+6
  -7.38727E+5   1.83173E+6
  -7.05706E+5   1.82947E+6
  -7.25609E+5   1.77490E+6
  -7.62048E+5   1.78162E+6
  -7.58409E+5   1.74138E+6
  -8.13892E+5   1.69892E+6
  -8.41045E+5   1.70230E+6
  -8.32590E+5   1.65261E+6
  -8.78680E+5   1.60473E+6
  -9.12010E+5   1.60480E+6
  -9.14883E+5   1.56303E+6
  -9.44476E+5   1.51760E+6
  -9.70349E+5   1.51095E+6
  -9.83802E+5   1.47691E+6
  -1.01357E+6   1.43723E+6
  -1.02613E+6   1.42276E+6
  -1.03638E+6   1.38815E+6
  -1.06436E+6   1.35699E+6
  -1.07716E+6   1.33900E+6
  -1.08613E+6   1.30123E+6
  -1.11100E+6   1.26533E+6
  -1.11836E+6   1.25045E+6
  -1.12685E+6   1.21924E+6
  -1.14659E+6   1.18377E+6
  -1.15643E+6   1.15579E+6
  -1.16217E+6   1.12835E+6
  -1.17908E+6   1.09898E+6
  -1.18544E+6   1.07008E+6
  -1.19158E+6   1.03872E+6
  -1.20306E+6   1.01425E+6
  -1.20721E+6   9.87886E+5
  -1.21116E+6   9.59293E+5
  -1.22224E+6   9.38457E+5
  -1.22901E+6   9.13729E+5
  -1.23150E+6   8.80775E+5
  -1.23734E+6   8.55024E+5
  -1.24058E+6   8.31010E+5
  -1.24330E+6   8.02065E+5
  -1.24397E+6   7.75286E+5
  -1.24494E+6   7.51759E+5
  -1.24782E+6   7.25601E+5
  -1.25225E+6   6.99951E+5
  -1.25352E+6   6.72552E+5
  -1.25373E+6   6.43845E+5
  -1.25272E+6   6.18445E+5
  -1.25190E+6   5.93997E+5
  -1.25187E+6   5.68000E+5
  -1.25150E+6   5.43523E+5
  -1.25009E+6   5.21166E+5
  -1.24925E+6   4.96305E+5
  -1.24737E+6   4.70328E+5
  -1.24501E+6   4.46350E+5
  -1.24197E+6   4.21480E+5
  -1.23696E+6   3.95752E+5
  -1.23092E+6   3.72648E+5
  -1.22697E+6   3.51788E+5
  -1.22347E+6   3.28419E+5
  -1.21895E+6   3.03848E+5
  -1.21328E+6   2.80850E+5
  -1.20765E+6   2.59278E+5
  -1.20064E+6   2.35797E+5
  -1.19227E+6   2.12880E+5
  -1.18349E+6   1.92150E+5
  -1.17573E+6   1.72745E+5
  -1.16944E+6   1.51462E+5
  -1.16265E+6   1.28826E+5
  -1.15295E+6   1.07798E+5
  -1.14293E+6   8.85211E+4
  -1.13526E+6   6.93200E+4
  -1.12681E+6   4.90237E+4
  -1.11635E+6   2.93461E+4
  -1.10552E+6   1.05845E+4
  -1.09630E+6  -8.11525E+3
  -1.08591E+6  -2.69042E+4
  -1.07507E+6  -4.54077E+4
  -1.06419E+6  -6.35841E+4
  -1.05250E+6  -8.20863E+4
  -1.04038E+6  -9.95629E+4
  -1.02909E+6  -1.16036E+5
  -1.01751E+6  -1.33715E+5
  -1.00454E+6  -1.51352E+5
  -9.91383E+5  -1.67474E+5
  -9.79388E+5  -1.82499E+5
  -9.67137E+5  -1.97687E+5
  -9.53795E+5  -2.13103E+5
  -9.40473E+5  -2.26359E+5
  -9.27456E+5  -2.38808E+5
  -9.15018E+5  -2.51778E+5
  -9.02178E+5  -2.65534E+5
  -8.88154E+5  -2.77788E+5
  -8.73599E+5  -2.89149E+5
  -8.59819E+5  -2.99927E+5
  -8.46905E+5  -3.10951E+5
  -8.33713E+5  -3.21710E+5
  -8.19819E+5  -3.32670E+5
  -8.06118E+5  -3.42384E+5
  -7.92699E+5  -3.52220E+5
  -7.79287E+5  -3.62372E+5
  -7.64472E+5  -3.72018E+5
  -7.49529E+5  -3.80588E+5
  -7.35569E+5  -3.87820E+5
  -7.22602E+5  -3.95203E+5
  -7.10091E+5  -4.03059E+5
  -6.95165E+5  -4.11317E+5
  -6.80356E+5  -4.17676E+5
  -6.66819E+5  -4.22734E+5
  -6.54012E+5  -4.28283E+5
  -6.41054E+5  -4.35493E+5
  -6.26933E+5  -4.42162E+5
  -6.12586E+5  -4.48004E+5
  -5.99216E+5  -4.53739E+5
  -5.85136E+5  -4.59694E+5
  -5.70921E+5  -4.65002E+5
  -5.56348E+5  -4.69819E+5
  -5.42231E+5  -4.72978E+5
  -5.29495E+5  -4.76080E+5
  -5.16885E+5  -4.80208E+5
  -5.04162E+5  -4.83834E+5
  -4.91231E+5  -4.87558E+5
  -4.78052E+5  -4.90584E+5
  -4.64767E+5  -4.94002E+5
  -4.51214E+5  -4.96332E+5
  -4.38094E+5  -4.98338E+5
  -4.24970E+5  -5.00428E+5
  -4.12297E+5  -5.02441E+5
  -3.99351E+5  -5.04730E+5
  -3.86037E+5  -5.07255E+5
  -3.71969E+5  -5.09285E+5
  -3.58696E+5  -5.10385E+5
  -3.46501E+5  -5.11189E+5
  -3.33916E+5  -5.12453E+5
  -3.20714E+5  -5.12846E+5
  -3.08277E+5  -5.12808E+5
  -2.96700E+5  -5.12865E+5
  -2.84868E+5  -5.13353E+5
  -2.72120E+5  -5.13215E+5
  -2.59810E+5  -5.12242E+5
  -2.48576E+5  -5.10851E+5
  -2.37489E+5  -5.09282E+5
  -2.26360E+5  -5.08775E+5
  -2.14718E+5  -5.08066E+5
  -2.03239E+5  -5.06193E+5
  -1.91807E+5  -5.04050E+5
  -1.80745E+5  -5.01820E+5
  -1.69844E+5  -4.99552E+5
  -1.59445E+5  -4.96628E+5
  -1.49131E+5  -4.93545E+5
  -1.39323E+5  -4.90230E+5
  -1.29850E+5  -4.87835E+5
  -1.20720E+5  -4.85144E+5
  -1.10915E+5  -4.81592E+5
  -1.01580E+5  -4.77870E+5
  -9.29573E+4  -4.74328E+5
  -8.44536E+4  -4.70715E+5
  -7.55418E+4  -4.66983E+5
  -6.70367E+4  -4.63149E+5
  -5.88255E+4  -4.58810E+5
  -5.09711E+4  -4.54638E+5
  -4.26595E+4  -4.50236E+5
  -3.46319E+4  -4.45597E+5
  -2.71443E+4  -4.40796E+5
  -2.03843E+4  -4.36344E+5
  -1.34959E+4  -4.32047E+5
  -6.02285E+3  -4.27657E+5
   9.71645E+2  -4.22966E+5
   7.33111E+3  -4.18119E+5
   1.34046E+4  -4.13237E+5
   1.97068E+4  -4.08714E+5
   2.59733E+4  -4.03907E+5
   3.21131E+4  -3.98612E+5
   3.77099E+4  -3.93821E+5
   4.36075E+4  -3.88764E+5
   4.94621E+4  -3.84073E+5
   5.53739E+4  -3.78973E+5
   6.10861E+4  -3.73218E+5
   6.59647E+4  -3.68021E+5
   7.07797E+4  -3.63323E+5
   7.60327E+4  -3.58338E+5
   8.14902E+4  -3.53180E+5
   8.61180E+4  -3.47599E+5
   9.06403E+4  -3.42512E+5
   9.46806E+4  -3.37221E+5
   9.89180E+4  -3.31836E+5
   1.03106E+5  -3.26522E+5
   1.06512E+5  -3.20994E+5
   1.09747E+5  -3.16039E+5
   1.14047E+5  -3.11814E+5
   1.18186E+5  -3.06232E+5
   1.21999E+5  -3.00267E+5
   1.25126E+5  -2.94486E+5
   1.28151E+5  -2.89168E+5
   1.31378E+5  -2.84071E+5
   1.34789E+5  -2.78808E+5
   1.37817E+5  -2.73013E+5
   1.40644E+5  -2.67476E+5
   1.43779E+5  -2.62199E+5
   1.46851E+5  -2.56515E+5
   1.49378E+5  -2.50975E+5
   1.51329E+5  -2.45005E+5
   1.53360E+5  -2.39929E+5
   1.55477E+5  -2.34489E+5
   1.57573E+5  -2.29028E+5
   1.59752E+5  -2.23380E+5
   1.61262E+5  -2.17868E+5
   1.62967E+5  -2.12624E+5
   1.64933E+5  -2.07290E+5
   1.66413E+5  -2.01592E+5
   1.67503E+5  -1.96070E+5
   1.68483E+5  -1.91069E+5
   1.70007E+5  -1.86341E+5
   1.71467E+5  -1.80648E+5
   1.72427E+5  -1.75081E+5
   1.72999E+5  -1.69563E+5
   1.73369E+5  -1.64809E+5
   1.73841E+5  -1.60042E+5
   1.74446E+5  -1.54820E+5
   1.74486E+5  -1.49946E+5
   1.74614E+5  -1.45283E+5
   1.74972E+5  -1.40661E+5
   1.75057E+5  -1.35953E+5
   1.75245E+5  -1.30959E+5
   1.74632E+5  -1.25988E+5
   1.74055E+5  -1.21792E+5
   1.73537E+5  -1.17579E+5
   1.73597E+5  -1.13232E+5
   1.73321E+5  -1.08834E+5
   1.72623E+5  -1.04072E+5
   1.71707E+5  -1.00053E+5
   1.70947E+5  -9.62721E+4
   1.70413E+5  -9.24403E+4
   1.69577E+5  -8.81361E+4
   1.68281E+5  -8.44506E+4
   1.67734E+5  -8.07516E+4
   1.66692E+5  -7.74494E+4
   1.65773E+5  -7.36634E+4
   1.64493E+5  -7.00708E+4
   1.63194E+5  -6.70298E+4
   1.61926E+5  -6.37670E+4
   1.60932E+5  -6.05185E+4
   1.59712E+5  -5.70532E+4
   1.58265E+5  -5.38479E+4
   1.57002E+5  -5.09321E+4
   1.55726E+5  -4.79653E+4
   1.54574E+5  -4.50197E+4
   1.52900E+5  -4.19192E+4
   1.51152E+5  -3.91045E+4
   1.49973E+5  -3.68517E+4
   1.48806E+5  -3.44390E+4
   1.47362E+5  -3.13088E+4
   1.45553E+5  -2.89050E+4
   1.44027E+5  -2.64749E+4
   1.42692E+5  -2.41536E+4
   1.41078E+5  -2.18131E+4
   1.39718E+5  -1.93790E+4
   1.38207E+5  -1.70145E+4
   1.36445E+5  -1.50411E+4
   1.35136E+5  -1.26454E+4
   1.33747E+5  -1.01055E+4
   1.31626E+5  -7.95625E+3
   1.29846E+5  -5.98562E+3
   1.28032E+5  -4.18539E+3
   1.26486E+5  -2.69094E+3
   1.25218E+5  -5.53718E+2
   1.23475E+5   1.71461E+3
   1.21742E+5   3.50108E+3
   1.20067E+5   4.87473E+3
   1.18105E+5   6.45979E+3
   1.16598E+5   8.31542E+3
   1.14554E+5   9.48054E+3
   1.12910E+5   1.08175E+4
   1.11797E+5   1.23882E+4
   1.10007E+5   1.43026E+4
   1.08244E+5   1.56832E+4
   1.06151E+5   1.70966E+4
   1.04430E+5   1.83097E+4
   1.02915E+5   1.94440E+4
   1.01193E+5   2.08299E+4
   9.96256E+4   2.19498E+4
   9.76301E+4   2.29426E+4
   9.61924E+4   2.38669E+4
   9.42592E+4   2.48375E+4
   9.27278E+4   2.61262E+4
   9.06742E+4   2.70521E+4
   8.89827E+4   2.74102E+4
   8.75205E+4   2.81181E+4
   8.58315E+4   2.90765E+4
   8.42166E+4   2.98849E+4
   8.26665E+4   3.05563E+4
   8.09008E+4   3.14547E+4
   7.90927E+4   3.18875E+4
   7.76364E+4   3.23514E+4
   7.57676E+4   3.30885E+4
   7.43770E+4   3.33324E+4
   7.29166E+4   3.39575E+4
   7.14610E+4   3.47434E+4
   6.97171E+4   3.49706E+4
   6.81870E+4   3.54915E+4
   6.66757E+4   3.55629E+4
   6.52545E+4   3.56137E+4
   6.38368E+4   3.60520E+4
   6.23392E+4   3.64228E+4
   6.07847E+4   3.65249E+4
   5.92512E+4   3.66967E+4
   5.78599E+4   3.68027E+4
   5.65258E+4   3.70787E+4
   5.50872E+4   3.72821E+4
   5.38096E+4   3.72166E+4
   5.25340E+4   3.69701E+4
   5.14858E+4   3.73129E+4
   4.97381E+4   3.75702E+4
   4.86336E+4   3.76017E+4
   4.69952E+4   3.73145E+4
   4.61024E+4   3.74979E+4
   4.45764E+4   3.72554E+4
   4.36140E+4   3.71267E+4
   4.24208E+4   3.71082E+4
   4.08741E+4   3.70911E+4
   3.97180E+4   3.70578E+4
   3.86432E+4   3.68047E+4
   3.75458E+4   3.67218E+4
   3.63477E+4   3.63329E+4
   3.53348E+4   3.61531E+4
   3.43901E+4   3.61716E+4
   3.35286E+4   3.61000E+4
   3.18612E+4   3.59248E+4
   3.09539E+4   3.58028E+4
   2.98776E+4   3.54700E+4
   2.90336E+4   3.53437E+4
   2.80241E+4   3.51630E+4
   2.70413E+4   3.48361E+4
   2.62169E+4   3.43521E+4
   2.53235E+4   3.42140E+4
   2.44694E+4   3.41791E+4
   2.33345E+4   3.41298E+4
   2.22921E+4   3.36751E+4
   2.14968E+4   3.30635E+4
   2.08080E+4   3.26689E+4
   1.99223E+4   3.27655E+4
   1.90130E+4   3.21923E+4
   1.81763E+4   3.19905E+4
   1.74381E+4   3.15604E+4
   1.65772E+4   3.13721E+4
   1.59923E+4   3.09931E+4
   1.50425E+4   3.07453E+4
   1.43671E+4   3.02671E+4
   1.39053E+4   2.99815E+4
   1.34156E+4   2.97806E+4
   1.22376E+4   2.95832E+4
   1.16934E+4   2.91515E+4
   1.11130E+4   2.86875E+4
   1.02976E+4   2.84205E+4
   9.91894E+3   2.79952E+4
   9.48955E+3   2.76080E+4
   8.79228E+3   2.73325E+4
   8.20160E+3   2.66793E+4
   7.77854E+3   2.68471E+4
   7.11310E+3   2.65880E+4
   6.52299E+3   2.59571E+4
   6.14859E+3   2.55021E+4
   5.66823E+3   2.50426E+4
   5.25419E+3   2.48079E+4
   5.00573E+3   2.44760E+4
   4.46616E+3   2.42522E+4
