 LCModel (Version 6.3-1N) Copyright: S.W. Provencher.          Ref.: Magn. Reson. Med. 30:672-679 (1993).                
 Slice_N1@9_10  28-Feb-2025 11:44:24
 27 lines in following concentration table = NCONC+1
    Conc.  %SD /Cr+PCr  Metabolite                                         
 3.19E-04   5% 5.7E-04 Mac                                                 
    0.948 111%   1.685 Cr                                                  
    3.550  30%   6.315 PCr                                                 
    1.766  47%   3.141 Ins                                                 
    7.313  11%  13.007 NAA                                                 
    1.622  51%   2.886 Tau                                                 
    0.000 999%   0.000 PCho                                                
    0.147 180%   0.262 GPC                                                 
    8.524  14%  15.161 Glu                                                 
    2.381  33%   4.235 Gln                                                 
    0.000 999%   0.000 Ala                                                 
 4.02E-02 999% 7.2E-02 Asc                                                 
    1.195  60%   2.125 Asp                                                 
 2.23E-02 999% 4.0E-02 GABA                                                
    0.274 167%   0.487 Glc                                                 
    0.975  43%   1.733 GSH                                                 
    0.607 112%   1.079 Lac                                                 
    2.551  21%   4.537 NAAG                                                
    2.647  41%   4.708 PE                                                  
    0.147 180%   0.262 GPC+PCho                                            
    9.864  10%  17.545 NAA+NAAG                                            
   10.905  13%  19.396 Glu+Gln                                             
    4.498  15%   8.000 Cr+PCr                                              
    9.864  10%  17.545 NAA+NAAG                                            
    4.498  15%   8.000 Cr+PCr                                              
   10.905  13%  19.396 Glu+Gln                                             
   6 lines in following misc. output table
  FWHM = 0.024 ppm    S/N =   3                                            
  Data shift = 0.049 ppm                                                   
  Ph: 142 deg       0.0 deg/ppm                                            
  alphaB,S = 3.1E+01,   1.6E+00                                            
   19 spline knots.   Ns = 5(1)                                            
   1 inflections.     2 extrema                                            
  480 points on ppm-axis = NY
      4.100000     4.091866     4.083733     4.075600     4.067466     4.059333     4.051199     4.043066     4.034933     4.026799
      4.018666     4.010532     4.002399     3.994265     3.986132     3.977998     3.969864     3.961731     3.953597     3.945463
      3.937330     3.929196     3.921062     3.912929     3.904795     3.896662     3.888528     3.880394     3.872261     3.864127
      3.855993     3.847860     3.839726     3.831592     3.823459     3.815325     3.807191     3.799058     3.790924     3.782790
      3.774657     3.766523     3.758389     3.750256     3.742122     3.733989     3.725855     3.717721     3.709588     3.701454
      3.693320     3.685187     3.677053     3.668919     3.660786     3.652652     3.644518     3.636385     3.628251     3.620117
      3.611984     3.603850     3.595716     3.587583     3.579449     3.571316     3.563182     3.555048     3.546915     3.538781
      3.530647     3.522514     3.514380     3.506246     3.498113     3.489979     3.481845     3.473712     3.465578     3.457444
      3.449311     3.441177     3.433043     3.424910     3.416776     3.408643     3.400509     3.392375     3.384242     3.376108
      3.367974     3.359841     3.351707     3.343573     3.335440     3.327306     3.319172     3.311039     3.302905     3.294771
      3.286638     3.278504     3.270370     3.262237     3.254103     3.245970     3.237836     3.229702     3.221569     3.213435
      3.205301     3.197168     3.189034     3.180900     3.172767     3.164633     3.156499     3.148366     3.140232     3.132098
      3.123965     3.115831     3.107697     3.099564     3.091430     3.083297     3.075163     3.067029     3.058896     3.050762
      3.042628     3.034495     3.026361     3.018227     3.010094     3.001960     2.993826     2.985693     2.977559     2.969425
      2.961292     2.953158     2.945024     2.936891     2.928757     2.920624     2.912490     2.904356     2.896223     2.888089
      2.879955     2.871822     2.863688     2.855554     2.847421     2.839287     2.831153     2.823020     2.814886     2.806752
      2.798619     2.790485     2.782351     2.774218     2.766084     2.757951     2.749817     2.741683     2.733550     2.725416
      2.717282     2.709149     2.701015     2.692881     2.684748     2.676614     2.668480     2.660347     2.652213     2.644079
      2.635946     2.627812     2.619678     2.611545     2.603411     2.595278     2.587144     2.579010     2.570877     2.562743
      2.554609     2.546476     2.538342     2.530208     2.522075     2.513941     2.505807     2.497674     2.489540     2.481406
      2.473273     2.465139     2.457006     2.448872     2.440738     2.432605     2.424471     2.416337     2.408204     2.400070
      2.391936     2.383803     2.375669     2.367535     2.359402     2.351268     2.343134     2.335001     2.326867     2.318733
      2.310600     2.302466     2.294333     2.286199     2.278065     2.269932     2.261798     2.253664     2.245531     2.237397
      2.229263     2.221130     2.212996     2.204862     2.196729     2.188595     2.180461     2.172328     2.164194     2.156060
      2.147927     2.139793     2.131660     2.123526     2.115392     2.107259     2.099125     2.090991     2.082858     2.074724
      2.066590     2.058457     2.050323     2.042189     2.034056     2.025922     2.017788     2.009655     2.001521     1.993387
      1.985254     1.977120     1.968987     1.960853     1.952719     1.944586     1.936452     1.928318     1.920185     1.912051
      1.903917     1.895784     1.887650     1.879516     1.871383     1.863249     1.855115     1.846982     1.838848     1.830714
      1.822581     1.814447     1.806314     1.798180     1.790046     1.781913     1.773779     1.765645     1.757512     1.749378
      1.741244     1.733111     1.724977     1.716843     1.708710     1.700576     1.692442     1.684309     1.676175     1.668041
      1.659908     1.651774     1.643641     1.635507     1.627373     1.619240     1.611106     1.602972     1.594839     1.586705
      1.578571     1.570438     1.562304     1.554170     1.546037     1.537903     1.529769     1.521636     1.513502     1.505368
      1.497235     1.489101     1.480968     1.472834     1.464700     1.456567     1.448433     1.440299     1.432166     1.424032
      1.415898     1.407765     1.399631     1.391497     1.383364     1.375230     1.367096     1.358963     1.350829     1.342695
      1.334562     1.326428     1.318295     1.310161     1.302027     1.293894     1.285760     1.277626     1.269493     1.261359
      1.253225     1.245092     1.236958     1.228824     1.220691     1.212557     1.204423     1.196290     1.188156     1.180022
      1.171889     1.163755     1.155622     1.147488     1.139354     1.131221     1.123087     1.114953     1.106820     1.098686
      1.090552     1.082419     1.074285     1.066151     1.058018     1.049884     1.041750     1.033617     1.025483     1.017349
      1.009216     1.001082     0.992949     0.984815     0.976681     0.968548     0.960414     0.952280     0.944147     0.936013
      0.927879     0.919746     0.911612     0.903478     0.895345     0.887211     0.879077     0.870944     0.862810     0.854676
      0.846543     0.838409     0.830276     0.822142     0.814008     0.805875     0.797741     0.789607     0.781474     0.773340
      0.765206     0.757073     0.748939     0.740805     0.732672     0.724538     0.716404     0.708271     0.700137     0.692003
      0.683870     0.675736     0.667603     0.659469     0.651335     0.643202     0.635068     0.626934     0.618801     0.610667
      0.602533     0.594400     0.586266     0.578132     0.569999     0.561865     0.553731     0.545598     0.537464     0.529330
      0.521197     0.513063     0.504930     0.496796     0.488662     0.480529     0.472395     0.464261     0.456128     0.447994
      0.439861     0.431727     0.423593     0.415460     0.407326     0.399192     0.391059     0.382925     0.374792     0.366658
      0.358524     0.350391     0.342257     0.334124     0.325990     0.317856     0.309723     0.301589     0.293455     0.285322
      0.277188     0.269055     0.260921     0.252787     0.244654     0.236520     0.228386     0.220253     0.212119     0.203986
 NY phased data points follow
  -6.10060E+01 -8.64663E+01 -6.54084E+01 -6.05501E+01 -1.06183E+02 -8.60894E+01 -7.15631E+01 -6.48337E+01 -7.13904E+01 -8.26502E+01
  -1.01266E+02 -1.01414E+02 -9.67278E+01 -1.36871E+02 -1.04213E+02 -9.44986E+01 -9.82438E+01 -1.09157E+02 -1.46006E+02 -1.44163E+02
  -1.48584E+02 -1.32805E+02 -1.14425E+02 -7.53515E+01 -8.34207E+01 -8.07496E+01 -3.61153E+01 -5.29701E+01 -4.55097E+01 -2.06885E+01
  -1.83136E+01 -5.62764E+01 -4.70895E+01 -3.38025E+01 -5.84649E+01 -3.76503E+01 -5.11138E+01 -4.37941E+01 -5.94060E+01 -1.10149E+02
  -1.10073E+02 -1.13582E+02 -9.99849E+01 -9.80531E+01 -1.03288E+02 -6.23126E+01 -2.71975E+01 -1.12739E+01 -2.71005E+00 -6.84177E+00
   1.89006E+01 -1.17108E+00 -4.12391E+01 -1.70891E+01 -1.05376E+01 -8.99194E+00 -4.35014E+01 -5.66984E+01 -3.94529E+01 -4.68707E+01
  -4.56696E+01 -6.34129E+01 -4.72523E+01 -5.75119E+01 -3.94918E+01  1.21369E+00 -2.15288E+01 -2.97959E+01 -3.82299E+01 -3.04373E+01
  -5.39120E+01 -4.14896E+01 -1.73730E+01 -5.13846E+01 -2.82545E+01  5.85829E-01 -1.31462E+01 -3.91891E+01 -1.15476E+01 -7.78627E+00
  -1.33215E+01  2.63417E+00 -3.96711E+01 -3.00724E+01 -3.82560E+01 -4.73443E+01 -2.68996E+01 -4.41556E+01 -3.21155E+01 -4.13190E+01
  -2.66988E+01 -1.56166E+00 -1.20095E+01 -9.12403E+00 -1.18046E+01 -2.12495E+01 -1.59588E+01  1.01004E+01 -2.78944E+00 -1.46175E+01
  -2.30955E+01 -1.38946E+01 -6.45835E-01 -5.99626E+01 -5.92699E+01 -4.05242E+01 -5.61288E+01 -7.23784E+01 -1.02852E+02 -1.16936E+02
  -1.42696E+02 -1.48689E+02 -1.33577E+02 -1.34966E+02 -1.29185E+02 -1.10341E+02 -1.21404E+02 -1.32002E+02 -1.31777E+02 -1.15250E+02
  -7.00249E+01 -7.22808E+01 -7.17128E+01 -6.54326E+01 -5.70682E+01 -4.40407E+01 -6.02791E+01 -3.35559E+01  1.43867E+01  4.06563E+01
   4.22913E+01  5.20291E+01  1.40613E+01 -8.53530E+01 -1.20184E+02 -1.41667E+02 -1.26893E+02 -1.16721E+02 -1.42539E+02 -1.18625E+02
  -1.39101E+02 -1.31970E+02 -1.34013E+02 -1.54345E+02 -1.50536E+02 -1.47278E+02 -1.17041E+02 -1.71676E+02 -1.31730E+02 -1.05114E+02
  -1.39936E+02 -1.16814E+02 -1.38637E+02 -1.09353E+02 -1.20674E+02 -1.02797E+02 -9.06917E+01 -9.44699E+01 -8.55268E+01 -1.04993E+02
  -7.94154E+01 -1.09669E+02 -9.78086E+01 -1.16809E+02 -1.03228E+02 -8.61205E+01 -1.22231E+02 -9.22143E+01 -1.10243E+02 -7.87023E+01
  -8.79694E+01 -9.61121E+01 -6.73004E+01 -8.16128E+01 -6.61175E+01 -8.02803E+01 -8.30264E+01 -5.45328E+01 -3.36890E+01 -5.48851E+01
  -9.12488E+01 -1.11523E+02 -1.07652E+02 -1.32769E+02 -1.43567E+02 -1.14035E+02 -1.37716E+02 -1.32985E+02 -1.28326E+02 -1.41343E+02
  -1.36592E+02 -1.07288E+02 -9.10402E+01 -1.17233E+02 -9.30175E+01 -8.02501E+01 -9.69689E+01 -8.59601E+01 -8.11889E+01 -7.81468E+01
  -6.98602E+01 -7.91230E+01 -9.86958E+01 -9.88155E+01 -9.59179E+01 -1.11054E+02 -1.34833E+02 -1.46909E+02 -1.08967E+02 -1.09651E+02
  -1.49640E+02 -1.39291E+02 -1.41909E+02 -1.29697E+02 -9.01548E+01 -7.28148E+01 -5.76067E+01 -3.00718E+01 -2.08780E+01 -2.38482E+01
  -6.00641E+01 -8.29939E+01 -7.21613E+01 -9.37895E+01 -6.64381E+01 -8.85741E+01 -8.28933E+01 -4.79951E+01 -8.03786E+01 -5.74701E+01
  -7.68285E+01 -9.49110E+01 -1.08481E+02 -1.09330E+02 -1.17389E+02 -1.54629E+02 -1.51191E+02 -1.66834E+02 -1.71467E+02 -1.87652E+02
  -1.89062E+02 -1.79759E+02 -1.75176E+02 -1.73879E+02 -1.49580E+02 -1.22661E+02 -1.49557E+02 -1.41394E+02 -1.55658E+02 -1.75826E+02
  -1.61058E+02 -1.68457E+02 -1.54367E+02 -1.41982E+02 -2.05294E+02 -2.29940E+02 -2.16042E+02 -1.71502E+02 -2.92730E+01  6.84639E+01
   1.03057E+02  7.76682E+01  6.36846E+01  5.97406E+01  2.48731E+01  1.69492E+01  1.14461E+01  2.95301E+00 -1.13791E+01  1.27080E+01
  -2.66447E+01 -2.59219E+01  2.12318E+01 -2.45900E+01 -1.29302E+01 -6.80572E+00 -2.35960E+01 -2.07601E+01 -1.52487E+01 -4.51429E+00
  -2.64259E+01 -3.03138E+01 -1.00862E+01 -2.39782E+01 -3.31633E+01 -3.17601E+01 -5.89159E+01 -6.52862E+01 -6.99873E+01 -4.58636E+01
  -1.61025E+01 -4.81488E+01 -5.58977E+01 -6.39657E+01 -7.80157E+01 -7.98746E+01 -1.12821E+02 -9.80471E+01 -7.47513E+01 -1.01398E+02
  -1.03849E+02 -1.00005E+02 -9.14041E+01 -7.72631E+01 -1.09087E+02 -1.19350E+02 -8.26383E+01 -1.02114E+02 -1.19921E+02 -1.17155E+02
  -1.16885E+02 -1.11058E+02 -1.37850E+02 -1.41825E+02 -1.45980E+02 -1.08050E+02 -6.38835E+01 -4.35744E+01 -1.04546E+01 -1.01421E+01
   1.04337E+01  2.14020E+01  4.20798E+01  4.68419E+01  4.08454E+01  4.66094E+01  7.48409E+00 -9.92712E+00 -1.51049E+00 -3.22451E+01
  -7.26402E+01 -8.41808E+01 -1.26982E+02 -1.63060E+02 -1.95936E+02 -1.96367E+02 -1.59898E+02 -1.69696E+02 -1.77874E+02 -1.59962E+02
  -1.45168E+02 -1.41759E+02 -1.15945E+02 -1.51348E+02 -1.78139E+02 -1.58309E+02 -1.61302E+02 -1.36530E+02 -1.12371E+02 -1.01489E+02
  -8.82397E+01 -8.64121E+01 -1.26974E+02 -1.07243E+02 -9.94925E+01 -1.22968E+02 -1.07054E+02 -1.19714E+02 -1.14410E+02 -1.24590E+02
  -1.36285E+02 -1.19220E+02 -1.05747E+02 -1.24250E+02 -9.44118E+01 -7.44659E+01 -8.60666E+01 -6.86002E+01 -1.01796E+02 -9.57502E+01
  -9.10392E+01 -8.24077E+01 -6.65206E+01 -7.15065E+01 -8.19835E+01 -9.77966E+01 -6.69526E+01 -5.90152E+01 -7.06092E+01 -5.22116E+01
  -5.07241E+01 -7.53490E+01 -1.77523E+01 -1.33828E+01 -4.24587E+01 -8.85046E+00 -1.34995E+01 -6.00307E+00  7.10981E+00  1.43557E+01
   6.75856E+00 -1.50753E+00 -3.04590E+01 -2.18886E+01 -5.15351E+01 -7.69375E+01 -3.89925E+01 -7.21390E+01 -6.11626E+01 -9.21523E+01
  -9.23919E+01 -7.72656E+01 -1.17078E+02 -1.22232E+02 -1.32280E+02 -1.18883E+02 -1.35051E+02 -1.53535E+02 -1.48883E+02 -1.31143E+02
  -1.47030E+02 -1.34008E+02 -1.34187E+02 -1.62493E+02 -1.29892E+02 -1.18308E+02 -1.17291E+02 -1.47113E+02 -1.38853E+02 -1.28183E+02
  -1.45392E+02 -1.44470E+02 -1.31670E+02 -1.38299E+02 -1.62968E+02 -1.38796E+02 -1.27610E+02 -1.36914E+02 -1.52962E+02 -1.27621E+02
  -1.42116E+02 -1.54428E+02 -1.34299E+02 -1.49939E+02 -1.40565E+02 -1.52297E+02 -1.43879E+02 -1.53641E+02 -1.42516E+02 -1.35431E+02
  -1.59990E+02 -1.40241E+02 -1.44931E+02 -1.48951E+02 -1.57746E+02 -1.52486E+02 -1.40120E+02 -1.44226E+02 -1.34173E+02 -1.41629E+02
  -1.47750E+02 -1.41017E+02 -1.57453E+02 -1.35840E+02 -1.34891E+02 -1.64520E+02 -1.34837E+02 -1.24258E+02 -1.26072E+02 -1.31365E+02
  -1.37587E+02 -1.46164E+02 -1.46815E+02 -1.42147E+02 -1.32377E+02 -1.19254E+02 -1.34934E+02 -1.58714E+02 -1.61645E+02 -1.14736E+02
  -1.31937E+02 -1.48715E+02 -1.45103E+02 -1.46241E+02 -1.46400E+02 -1.67223E+02 -1.39590E+02 -1.42981E+02 -1.35780E+02 -1.34824E+02
 NY points of the fit to the data follow
  -5.77077E+01 -6.04665E+01 -6.54358E+01 -6.98800E+01 -7.18218E+01 -7.10304E+01 -6.72161E+01 -6.30227E+01 -6.29199E+01 -6.70045E+01
  -7.34044E+01 -8.08400E+01 -9.11916E+01 -1.01851E+02 -1.06614E+02 -1.01262E+02 -1.00230E+02 -1.04242E+02 -1.17616E+02 -1.30411E+02
  -1.35833E+02 -1.27849E+02 -9.71292E+01 -6.95011E+01 -5.82911E+01 -5.24794E+01 -4.46202E+01 -4.09737E+01 -3.78176E+01 -3.32985E+01
  -3.01322E+01 -2.90734E+01 -2.92373E+01 -2.95688E+01 -2.80196E+01 -2.03634E+01 -1.55202E+01 -1.74406E+01 -3.72675E+01 -6.81890E+01
  -1.04474E+02 -1.28998E+02 -1.27880E+02 -1.07788E+02 -8.04113E+01 -5.60944E+01 -3.55550E+01 -2.55089E+01 -2.24425E+01 -2.25416E+01
  -2.34472E+01 -2.49682E+01 -2.79335E+01 -3.13387E+01 -3.34167E+01 -3.61124E+01 -3.88377E+01 -4.19014E+01 -4.41328E+01 -4.62568E+01
  -5.00458E+01 -4.79438E+01 -4.44704E+01 -4.30181E+01 -3.67976E+01 -2.85350E+01 -2.64864E+01 -3.10454E+01 -3.88248E+01 -4.83499E+01
  -5.63231E+01 -5.80488E+01 -5.27688E+01 -4.84428E+01 -4.49134E+01 -3.88321E+01 -3.24813E+01 -2.93097E+01 -2.61162E+01 -2.43081E+01
  -2.43449E+01 -2.85751E+01 -3.67877E+01 -4.50069E+01 -5.27317E+01 -5.58186E+01 -5.51364E+01 -5.15063E+01 -4.69002E+01 -4.25316E+01
  -3.90109E+01 -3.55304E+01 -3.20668E+01 -2.97449E+01 -2.77999E+01 -2.77053E+01 -2.92110E+01 -3.02967E+01 -2.95272E+01 -2.80979E+01
  -2.39265E+01 -2.15962E+01 -1.90673E+01 -2.29268E+01 -2.74189E+01 -3.26459E+01 -4.39891E+01 -6.25354E+01 -8.74551E+01 -1.12836E+02
  -1.34456E+02 -1.43451E+02 -1.39967E+02 -1.29738E+02 -1.20936E+02 -1.13931E+02 -1.07399E+02 -1.01580E+02 -9.72212E+01 -9.42499E+01
  -9.23179E+01 -9.02748E+01 -8.73190E+01 -7.97018E+01 -6.74108E+01 -5.62386E+01 -5.32957E+01 -2.82569E+01  6.40205E+00  4.94654E+01
   6.69942E+01  5.50733E+01  1.10452E+01 -6.86060E+01 -1.20955E+02 -1.30323E+02 -1.25881E+02 -1.31291E+02 -1.31259E+02 -1.29194E+02
  -1.29065E+02 -1.29681E+02 -1.32032E+02 -1.35142E+02 -1.37347E+02 -1.38072E+02 -1.36795E+02 -1.33940E+02 -1.30033E+02 -1.26789E+02
  -1.24631E+02 -1.23138E+02 -1.21869E+02 -1.19707E+02 -1.16554E+02 -1.13323E+02 -1.11128E+02 -1.10362E+02 -1.09696E+02 -1.08891E+02
  -1.07554E+02 -1.07198E+02 -1.06965E+02 -1.05975E+02 -1.03984E+02 -1.02161E+02 -1.04429E+02 -1.11437E+02 -1.17719E+02 -1.15235E+02
  -1.02594E+02 -8.81612E+01 -8.08491E+01 -8.25558E+01 -8.74750E+01 -8.72322E+01 -7.66140E+01 -6.62209E+01 -6.56739E+01 -7.60976E+01
  -9.02284E+01 -9.99272E+01 -1.06716E+02 -1.12966E+02 -1.17205E+02 -1.19571E+02 -1.21284E+02 -1.20160E+02 -1.18704E+02 -1.19503E+02
  -1.20499E+02 -1.19073E+02 -1.15893E+02 -1.13434E+02 -1.10331E+02 -1.01529E+02 -9.87066E+01 -9.78975E+01 -9.19388E+01 -8.71889E+01
  -8.58249E+01 -8.74783E+01 -8.65154E+01 -8.32740E+01 -8.42172E+01 -8.93353E+01 -9.36202E+01 -9.95179E+01 -1.10873E+02 -1.25192E+02
  -1.48445E+02 -1.61914E+02 -1.71921E+02 -1.60072E+02 -1.33712E+02 -1.00373E+02 -6.24008E+01 -4.51213E+01 -4.13460E+01 -4.65793E+01
  -5.54441E+01 -6.51023E+01 -6.46036E+01 -6.02202E+01 -5.55438E+01 -5.15034E+01 -4.97806E+01 -5.18694E+01 -5.91246E+01 -6.88883E+01
  -8.34446E+01 -1.00672E+02 -1.18551E+02 -1.36983E+02 -1.51396E+02 -1.62848E+02 -1.66534E+02 -1.65112E+02 -1.62657E+02 -1.60038E+02
  -1.56700E+02 -1.55404E+02 -1.50927E+02 -1.38824E+02 -1.30149E+02 -1.19957E+02 -1.14962E+02 -1.07490E+02 -1.14675E+02 -1.34785E+02
  -1.50951E+02 -1.42557E+02 -1.49493E+02 -1.70773E+02 -2.04926E+02 -2.24322E+02 -2.23579E+02 -1.81288E+02 -6.64224E+01  2.43044E+01
   4.19097E+01  2.85573E+01  2.89244E+01  2.50374E+01  1.73348E+01  9.88813E+00  2.60675E+00 -4.46980E+00 -1.04678E+01 -1.49152E+01
  -1.79591E+01 -1.95723E+01 -2.06280E+01 -2.14612E+01 -2.19900E+01 -2.26110E+01 -2.28249E+01 -2.28626E+01 -2.30205E+01 -2.37839E+01
  -2.51699E+01 -2.68913E+01 -2.88809E+01 -3.06404E+01 -3.22319E+01 -3.39815E+01 -3.56538E+01 -3.71429E+01 -3.95435E+01 -4.30006E+01
  -4.83321E+01 -5.53163E+01 -6.34268E+01 -7.19019E+01 -7.89502E+01 -8.34638E+01 -8.53060E+01 -8.54211E+01 -8.40216E+01 -8.18054E+01
  -7.89420E+01 -7.53029E+01 -7.16265E+01 -6.87156E+01 -6.64624E+01 -6.44886E+01 -6.19600E+01 -5.90291E+01 -5.55640E+01 -5.20906E+01
  -4.89884E+01 -4.61233E+01 -4.31039E+01 -3.97661E+01 -3.62440E+01 -3.36743E+01 -3.19124E+01 -3.07271E+01 -3.04828E+01 -3.14766E+01
  -3.29324E+01 -3.38207E+01 -3.47845E+01 -3.51265E+01 -3.61386E+01 -3.97422E+01 -4.71720E+01 -5.90069E+01 -7.40992E+01 -9.10113E+01
  -1.07936E+02 -1.23570E+02 -1.35764E+02 -1.42143E+02 -1.42939E+02 -1.39226E+02 -1.33395E+02 -1.26700E+02 -1.21388E+02 -1.16083E+02
  -1.12805E+02 -1.09955E+02 -1.08449E+02 -1.07652E+02 -1.05181E+02 -1.01968E+02 -9.73997E+01 -9.23568E+01 -8.72473E+01 -8.34412E+01
  -8.19199E+01 -8.37005E+01 -8.89975E+01 -9.69454E+01 -1.06296E+02 -1.15173E+02 -1.21472E+02 -1.25719E+02 -1.27929E+02 -1.27768E+02
  -1.25956E+02 -1.22632E+02 -1.18355E+02 -1.13899E+02 -1.09490E+02 -1.05655E+02 -1.02267E+02 -9.90229E+01 -9.59006E+01 -9.28884E+01
  -9.05783E+01 -8.85622E+01 -8.67852E+01 -8.48408E+01 -8.27501E+01 -7.98298E+01 -7.60036E+01 -7.22555E+01 -6.73789E+01 -6.10554E+01
  -5.32238E+01 -4.31236E+01 -2.89703E+01 -1.08018E+01  8.60055E+00  2.65539E+01  3.85084E+01  4.17864E+01  3.56728E+01  2.26393E+01
   6.86107E+00 -7.23922E+00 -1.78691E+01 -2.59123E+01 -3.21046E+01 -3.88657E+01 -4.78705E+01 -6.07118E+01 -7.48509E+01 -8.93966E+01
  -1.03158E+02 -1.14860E+02 -1.23930E+02 -1.30708E+02 -1.35755E+02 -1.38830E+02 -1.40989E+02 -1.43058E+02 -1.45202E+02 -1.47074E+02
  -1.48503E+02 -1.49483E+02 -1.49769E+02 -1.49557E+02 -1.49679E+02 -1.49906E+02 -1.50086E+02 -1.50072E+02 -1.50294E+02 -1.50293E+02
  -1.49595E+02 -1.49125E+02 -1.49219E+02 -1.49431E+02 -1.49327E+02 -1.49522E+02 -1.49758E+02 -1.49581E+02 -1.48855E+02 -1.47851E+02
  -1.47747E+02 -1.47911E+02 -1.48528E+02 -1.48866E+02 -1.49102E+02 -1.48880E+02 -1.48406E+02 -1.48052E+02 -1.47419E+02 -1.46936E+02
  -1.46384E+02 -1.46294E+02 -1.46290E+02 -1.46647E+02 -1.47299E+02 -1.47467E+02 -1.47183E+02 -1.46751E+02 -1.46510E+02 -1.46590E+02
  -1.46695E+02 -1.46898E+02 -1.46942E+02 -1.46578E+02 -1.46084E+02 -1.45899E+02 -1.45630E+02 -1.45243E+02 -1.44918E+02 -1.44573E+02
  -1.44390E+02 -1.44560E+02 -1.45028E+02 -1.45802E+02 -1.45991E+02 -1.45820E+02 -1.45000E+02 -1.43926E+02 -1.42993E+02 -1.42667E+02
  -1.43007E+02 -1.43536E+02 -1.44038E+02 -1.44018E+02 -1.43682E+02 -1.43528E+02 -1.43512E+02 -1.43840E+02 -1.44413E+02 -1.45556E+02
 NY background values follow
    -4.061E+01   -4.082E+01   -4.102E+01   -4.123E+01   -4.143E+01   -4.164E+01   -4.185E+01   -4.205E+01   -4.226E+01   -4.247E+01
    -4.267E+01   -4.288E+01   -4.308E+01   -4.329E+01   -4.350E+01   -4.370E+01   -4.391E+01   -4.412E+01   -4.432E+01   -4.453E+01
    -4.473E+01   -4.494E+01   -4.515E+01   -4.535E+01   -4.556E+01   -4.577E+01   -4.597E+01   -4.618E+01   -4.638E+01   -4.659E+01
    -4.680E+01   -4.700E+01   -4.721E+01   -4.742E+01   -4.762E+01   -4.783E+01   -4.803E+01   -4.824E+01   -4.845E+01   -4.865E+01
    -4.886E+01   -4.907E+01   -4.927E+01   -4.948E+01   -4.968E+01   -4.989E+01   -5.010E+01   -5.030E+01   -5.051E+01   -5.072E+01
    -5.092E+01   -5.113E+01   -5.133E+01   -5.154E+01   -5.175E+01   -5.195E+01   -5.216E+01   -5.237E+01   -5.257E+01   -5.278E+01
    -5.298E+01   -5.319E+01   -5.340E+01   -5.360E+01   -5.381E+01   -5.402E+01   -5.422E+01   -5.443E+01   -5.463E+01   -5.484E+01
    -5.505E+01   -5.525E+01   -5.546E+01   -5.567E+01   -5.587E+01   -5.608E+01   -5.628E+01   -5.649E+01   -5.670E+01   -5.690E+01
    -5.711E+01   -5.732E+01   -5.752E+01   -5.773E+01   -5.793E+01   -5.814E+01   -5.835E+01   -5.855E+01   -5.876E+01   -5.897E+01
    -5.917E+01   -5.938E+01   -5.958E+01   -5.979E+01   -6.000E+01   -6.020E+01   -6.041E+01   -6.062E+01   -6.082E+01   -6.103E+01
    -6.123E+01   -6.144E+01   -6.165E+01   -6.185E+01   -6.206E+01   -6.227E+01   -6.247E+01   -6.268E+01   -6.288E+01   -6.309E+01
    -6.330E+01   -6.350E+01   -6.371E+01   -6.392E+01   -6.412E+01   -6.433E+01   -6.453E+01   -6.474E+01   -6.495E+01   -6.515E+01
    -6.536E+01   -6.557E+01   -6.577E+01   -6.598E+01   -6.619E+01   -6.639E+01   -6.660E+01   -6.680E+01   -6.701E+01   -6.722E+01
    -6.742E+01   -6.763E+01   -6.784E+01   -6.804E+01   -6.825E+01   -6.845E+01   -6.866E+01   -6.887E+01   -6.907E+01   -6.928E+01
    -6.949E+01   -6.969E+01   -6.990E+01   -7.010E+01   -7.031E+01   -7.052E+01   -7.072E+01   -7.093E+01   -7.114E+01   -7.134E+01
    -7.155E+01   -7.176E+01   -7.196E+01   -7.217E+01   -7.237E+01   -7.258E+01   -7.279E+01   -7.299E+01   -7.320E+01   -7.341E+01
    -7.361E+01   -7.382E+01   -7.402E+01   -7.423E+01   -7.444E+01   -7.464E+01   -7.485E+01   -7.506E+01   -7.526E+01   -7.547E+01
    -7.568E+01   -7.588E+01   -7.609E+01   -7.629E+01   -7.650E+01   -7.671E+01   -7.691E+01   -7.712E+01   -7.733E+01   -7.753E+01
    -7.774E+01   -7.794E+01   -7.815E+01   -7.836E+01   -7.856E+01   -7.877E+01   -7.898E+01   -7.918E+01   -7.939E+01   -7.960E+01
    -7.980E+01   -8.001E+01   -8.021E+01   -8.042E+01   -8.063E+01   -8.083E+01   -8.104E+01   -8.125E+01   -8.145E+01   -8.166E+01
    -8.187E+01   -8.207E+01   -8.228E+01   -8.248E+01   -8.269E+01   -8.290E+01   -8.310E+01   -8.331E+01   -8.352E+01   -8.372E+01
    -8.393E+01   -8.413E+01   -8.434E+01   -8.455E+01   -8.475E+01   -8.496E+01   -8.517E+01   -8.537E+01   -8.558E+01   -8.579E+01
    -8.599E+01   -8.620E+01   -8.640E+01   -8.661E+01   -8.682E+01   -8.702E+01   -8.723E+01   -8.744E+01   -8.764E+01   -8.785E+01
    -8.806E+01   -8.826E+01   -8.847E+01   -8.867E+01   -8.888E+01   -8.909E+01   -8.929E+01   -8.950E+01   -8.971E+01   -8.991E+01
    -9.012E+01   -9.033E+01   -9.053E+01   -9.074E+01   -9.094E+01   -9.115E+01   -9.136E+01   -9.156E+01   -9.177E+01   -9.198E+01
    -9.218E+01   -9.239E+01   -9.260E+01   -9.280E+01   -9.301E+01   -9.321E+01   -9.342E+01   -9.363E+01   -9.383E+01   -9.404E+01
    -9.425E+01   -9.445E+01   -9.466E+01   -9.487E+01   -9.507E+01   -9.528E+01   -9.548E+01   -9.569E+01   -9.590E+01   -9.610E+01
    -9.631E+01   -9.652E+01   -9.672E+01   -9.693E+01   -9.714E+01   -9.734E+01   -9.755E+01   -9.775E+01   -9.796E+01   -9.817E+01
    -9.837E+01   -9.858E+01   -9.879E+01   -9.899E+01   -9.920E+01   -9.941E+01   -9.961E+01   -9.982E+01   -1.000E+02   -1.002E+02
    -1.004E+02   -1.006E+02   -1.008E+02   -1.011E+02   -1.013E+02   -1.015E+02   -1.017E+02   -1.019E+02   -1.021E+02   -1.023E+02
    -1.025E+02   -1.027E+02   -1.029E+02   -1.031E+02   -1.033E+02   -1.035E+02   -1.037E+02   -1.039E+02   -1.042E+02   -1.044E+02
    -1.046E+02   -1.048E+02   -1.050E+02   -1.052E+02   -1.054E+02   -1.056E+02   -1.058E+02   -1.060E+02   -1.062E+02   -1.064E+02
    -1.066E+02   -1.068E+02   -1.070E+02   -1.072E+02   -1.075E+02   -1.077E+02   -1.079E+02   -1.081E+02   -1.083E+02   -1.085E+02
    -1.087E+02   -1.089E+02   -1.091E+02   -1.093E+02   -1.095E+02   -1.097E+02   -1.099E+02   -1.101E+02   -1.103E+02   -1.105E+02
    -1.108E+02   -1.110E+02   -1.112E+02   -1.114E+02   -1.116E+02   -1.118E+02   -1.120E+02   -1.122E+02   -1.124E+02   -1.126E+02
    -1.128E+02   -1.130E+02   -1.132E+02   -1.134E+02   -1.136E+02   -1.138E+02   -1.141E+02   -1.143E+02   -1.145E+02   -1.147E+02
    -1.149E+02   -1.151E+02   -1.153E+02   -1.155E+02   -1.157E+02   -1.159E+02   -1.161E+02   -1.163E+02   -1.165E+02   -1.167E+02
    -1.169E+02   -1.171E+02   -1.174E+02   -1.176E+02   -1.178E+02   -1.180E+02   -1.182E+02   -1.184E+02   -1.186E+02   -1.188E+02
    -1.190E+02   -1.192E+02   -1.194E+02   -1.196E+02   -1.198E+02   -1.200E+02   -1.202E+02   -1.204E+02   -1.207E+02   -1.209E+02
    -1.211E+02   -1.213E+02   -1.215E+02   -1.217E+02   -1.219E+02   -1.221E+02   -1.223E+02   -1.225E+02   -1.227E+02   -1.229E+02
    -1.231E+02   -1.233E+02   -1.235E+02   -1.237E+02   -1.240E+02   -1.242E+02   -1.244E+02   -1.246E+02   -1.248E+02   -1.250E+02
    -1.252E+02   -1.254E+02   -1.256E+02   -1.258E+02   -1.260E+02   -1.262E+02   -1.264E+02   -1.266E+02   -1.268E+02   -1.271E+02
    -1.273E+02   -1.275E+02   -1.277E+02   -1.279E+02   -1.281E+02   -1.283E+02   -1.285E+02   -1.287E+02   -1.289E+02   -1.291E+02
    -1.293E+02   -1.295E+02   -1.297E+02   -1.299E+02   -1.301E+02   -1.304E+02   -1.306E+02   -1.308E+02   -1.310E+02   -1.312E+02
    -1.314E+02   -1.316E+02   -1.318E+02   -1.320E+02   -1.322E+02   -1.324E+02   -1.326E+02   -1.328E+02   -1.330E+02   -1.332E+02
    -1.334E+02   -1.336E+02   -1.339E+02   -1.341E+02   -1.343E+02   -1.345E+02   -1.347E+02   -1.349E+02   -1.351E+02   -1.353E+02
    -1.355E+02   -1.357E+02   -1.359E+02   -1.361E+02   -1.363E+02   -1.365E+02   -1.367E+02   -1.370E+02   -1.372E+02   -1.374E+02
    -1.376E+02   -1.378E+02   -1.380E+02   -1.382E+02   -1.384E+02   -1.386E+02   -1.388E+02   -1.390E+02   -1.392E+02   -1.394E+02
 Mac      Conc. = 3.19E-04
  -6.29393E+01 -6.27947E+01 -6.20098E+01 -6.12354E+01 -6.12915E+01 -6.27387E+01 -6.52765E+01 -6.88590E+01 -7.21289E+01 -7.42620E+01
  -7.44134E+01 -7.30939E+01 -7.36022E+01 -7.71690E+01 -8.34157E+01 -9.02116E+01 -9.47652E+01 -9.47915E+01 -8.96944E+01 -8.21883E+01
  -7.63296E+01 -7.10810E+01 -6.66722E+01 -6.44462E+01 -6.39982E+01 -6.31191E+01 -6.10250E+01 -5.87029E+01 -5.56868E+01 -5.25162E+01
  -4.93484E+01 -4.74707E+01 -4.72402E+01 -4.88353E+01 -5.14486E+01 -5.27036E+01 -5.14593E+01 -4.78765E+01 -4.42859E+01 -4.26953E+01
  -4.32650E+01 -4.45028E+01 -4.37287E+01 -4.14415E+01 -3.82416E+01 -3.55637E+01 -3.44148E+01 -3.46338E+01 -3.61144E+01 -3.80251E+01
  -4.05913E+01 -4.30469E+01 -4.55621E+01 -4.81787E+01 -5.04757E+01 -5.19007E+01 -5.23234E+01 -5.14118E+01 -4.92714E+01 -4.65063E+01
  -4.38447E+01 -4.09566E+01 -3.97013E+01 -4.01691E+01 -4.14797E+01 -4.36003E+01 -4.65850E+01 -4.98850E+01 -5.24265E+01 -5.37902E+01
  -5.23069E+01 -4.85862E+01 -4.37559E+01 -4.02355E+01 -3.80359E+01 -3.68306E+01 -3.70156E+01 -3.80463E+01 -3.99254E+01 -4.19138E+01
  -4.41219E+01 -4.56207E+01 -4.70131E+01 -4.70514E+01 -4.63565E+01 -4.54342E+01 -4.45035E+01 -4.36454E+01 -4.26555E+01 -4.17281E+01
  -4.03313E+01 -3.85028E+01 -3.64284E+01 -3.50692E+01 -3.46903E+01 -3.63761E+01 -3.93213E+01 -4.24648E+01 -4.50125E+01 -4.64820E+01
  -4.66202E+01 -4.55813E+01 -4.56865E+01 -4.80398E+01 -5.43086E+01 -6.53330E+01 -7.90219E+01 -9.28472E+01 -1.02599E+02 -1.07467E+02
