 
 $NMID
 ID=''
 FMTDAT='(2E13.5)'
 TRAMP=   1.00000E+0
 VOLUME=   1.00000E+0
 $END
   3.75734E+5   3.54392E+5
   6.16301E+5   1.26769E+6
   7.59248E+5   1.18572E+6
   6.62025E+5   1.14095E+6
   6.11679E+5   1.18027E+6
   5.52488E+5   1.14484E+6
   4.55633E+5   1.16936E+6
   4.52891E+5   1.23942E+6
   4.70656E+5   1.20775E+6
   4.16023E+5   1.17375E+6
   3.65261E+5   1.17701E+6
   3.19758E+5   1.16607E+6
   2.76082E+5   1.18385E+6
   2.76344E+5   1.19782E+6
   2.63129E+5   1.15955E+6
   2.15339E+5   1.13265E+6
   1.77451E+5   1.14002E+6
   1.38206E+5   1.13663E+6
   1.01767E+5   1.13542E+6
   8.85440E+4   1.12445E+6
   5.70581E+4   1.09275E+6
   8.98985E+3   1.07796E+6
  -1.98470E+4   1.07467E+6
  -4.27491E+4   1.06321E+6
  -6.55615E+4   1.04844E+6
  -7.49352E+4   1.02651E+6
  -9.92369E+4   1.00034E+6
  -1.30343E+5   9.87425E+5
  -1.46968E+5   9.75831E+5
  -1.56825E+5   9.58841E+5
  -1.74366E+5   9.40629E+5
  -1.91706E+5   9.14987E+5
  -2.16626E+5   8.88727E+5
  -2.40567E+5   8.73195E+5
  -2.54621E+5   8.57398E+5
  -2.66768E+5   8.35643E+5
  -2.82082E+5   8.13548E+5
  -2.99247E+5   7.87558E+5
  -3.16768E+5   7.62608E+5
  -3.29844E+5   7.46024E+5
  -3.37286E+5   7.27660E+5
  -3.43759E+5   7.03937E+5
  -3.49661E+5   6.80704E+5
  -3.57902E+5   6.58930E+5
  -3.67659E+5   6.38084E+5
  -3.75135E+5   6.20773E+5
  -3.80589E+5   6.00519E+5
  -3.86857E+5   5.76035E+5
  -3.92455E+5   5.51108E+5
  -3.98725E+5   5.28961E+5
  -4.05968E+5   5.08013E+5
  -4.11120E+5   4.87005E+5
  -4.13562E+5   4.66028E+5
  -4.16666E+5   4.44536E+5
  -4.19476E+5   4.22783E+5
  -4.22355E+5   4.01441E+5
  -4.24003E+5   3.81694E+5
  -4.23455E+5   3.62970E+5
  -4.21843E+5   3.44261E+5
  -4.20860E+5   3.25536E+5
  -4.20316E+5   3.06035E+5
  -4.19928E+5   2.87620E+5
  -4.18872E+5   2.70053E+5
  -4.16927E+5   2.52426E+5
  -4.12992E+5   2.33753E+5
  -4.09035E+5   2.15118E+5
  -4.05647E+5   1.97251E+5
  -4.02771E+5   1.80808E+5
  -3.99627E+5   1.65891E+5
  -3.94858E+5   1.50183E+5
  -3.88742E+5   1.34532E+5
  -3.82302E+5   1.18801E+5
  -3.77915E+5   1.04873E+5
  -3.73572E+5   9.16663E+4
  -3.67477E+5   7.89361E+4
  -3.59445E+5   6.59442E+4
  -3.52044E+5   5.27788E+4
  -3.45943E+5   3.94559E+4
  -3.40051E+5   2.69936E+4
  -3.33327E+5   1.59167E+4
  -3.25261E+5   6.06261E+3
  -3.16501E+5  -4.91345E+3
  -3.08620E+5  -1.58966E+4
  -3.01425E+5  -2.64055E+4
  -2.94203E+5  -3.52522E+4
  -2.86375E+5  -4.25869E+4
  -2.77255E+5  -4.99104E+4
  -2.68504E+5  -5.82799E+4
  -2.60369E+5  -6.63750E+4
  -2.52916E+5  -7.27760E+4
  -2.45464E+5  -7.76716E+4
  -2.36561E+5  -8.25823E+4
  -2.27544E+5  -8.83137E+4
  -2.18402E+5  -9.46121E+4
  -2.10353E+5  -9.98057E+4
  -2.02795E+5  -1.03839E+5
  -1.95004E+5  -1.06118E+5
  -1.85718E+5  -1.09870E+5
  -1.76187E+5  -1.14081E+5
  -1.68007E+5  -1.17610E+5
  -1.61310E+5  -1.19963E+5
  -1.53886E+5  -1.21776E+5
  -1.45097E+5  -1.23017E+5
  -1.35737E+5  -1.24315E+5
  -1.28030E+5  -1.25971E+5
  -1.21448E+5  -1.27714E+5
  -1.14403E+5  -1.28576E+5
  -1.07064E+5  -1.28603E+5
  -9.85888E+4  -1.28327E+5
  -9.08840E+4  -1.28417E+5
  -8.37151E+4  -1.29485E+5
  -7.75770E+4  -1.29298E+5
  -7.11918E+4  -1.28843E+5
  -6.42429E+4  -1.27504E+5
  -5.64942E+4  -1.27150E+5
  -4.95907E+4  -1.26389E+5
  -4.38833E+4  -1.26248E+5
  -3.80838E+4  -1.25202E+5
  -3.20990E+4  -1.22842E+5
  -2.58589E+4  -1.20898E+5
  -1.98576E+4  -1.20055E+5
  -1.42476E+4  -1.19322E+5
  -9.37371E+3  -1.17858E+5
  -4.60170E+3  -1.15481E+5
   7.21956E+2  -1.13581E+5
   5.95272E+3  -1.11762E+5
   1.09705E+4  -1.09990E+5
   1.53615E+4  -1.07868E+5
   1.90370E+4  -1.06252E+5
   2.31897E+4  -1.03484E+5
   2.77561E+4  -1.01090E+5
   3.17814E+4  -9.86983E+4
   3.52437E+4  -9.68018E+4
   3.80593E+4  -9.44880E+4
   4.13329E+4  -9.18050E+4
   4.45468E+4  -8.89856E+4
   4.77398E+4  -8.66084E+4
   5.04892E+4  -8.42693E+4
   5.31380E+4  -8.17384E+4
   5.49286E+4  -7.92968E+4
   5.71397E+4  -7.63811E+4
   5.93560E+4  -7.33144E+4
   6.12951E+4  -7.08478E+4
   6.31577E+4  -6.84734E+4
   6.44401E+4  -6.60364E+4
   6.57060E+4  -6.30556E+4
   6.67632E+4  -6.00905E+4
   6.78589E+4  -5.70013E+4
   6.90787E+4  -5.44971E+4
   6.98525E+4  -5.19328E+4
   7.02739E+4  -4.93675E+4
   7.07819E+4  -4.66521E+4
   7.08227E+4  -4.38139E+4
   7.15595E+4  -4.11112E+4
   7.20035E+4  -3.88092E+4
   7.19240E+4  -3.61912E+4
   7.14714E+4  -3.38763E+4
   7.13223E+4  -3.13598E+4
   7.13062E+4  -2.87753E+4
   7.10775E+4  -2.63027E+4
   7.10459E+4  -2.43495E+4
   7.01580E+4  -2.22638E+4
   6.95896E+4  -1.98879E+4
   6.88111E+4  -1.73064E+4
   6.81725E+4  -1.50543E+4
   6.74008E+4  -1.29815E+4
   6.69812E+4  -1.13456E+4
   6.58728E+4  -9.30632E+3
   6.49541E+4  -7.48553E+3
   6.40944E+4  -5.18864E+3
   6.33046E+4  -3.54189E+3
   6.23613E+4  -1.79087E+3
   6.11203E+4  -1.14136E+2
   5.98450E+4   1.47542E+3
   5.87128E+4   3.04097E+3
   5.81790E+4   4.80963E+3
   5.67682E+4   6.34987E+3
   5.59848E+4   7.65867E+3
   5.43071E+4   8.88790E+3
   5.31268E+4   1.02463E+4
   5.20996E+4   1.15770E+4
   5.12617E+4   1.29548E+4
   4.97389E+4   1.38119E+4
   4.88199E+4   1.48198E+4
   4.74428E+4   1.59254E+4
   4.62314E+4   1.68864E+4
   4.47782E+4   1.79706E+4
   4.38323E+4   1.86641E+4
   4.24033E+4   1.94808E+4
   4.13902E+4   2.00123E+4
   4.01937E+4   2.11266E+4
   3.90362E+4   2.19665E+4
   3.78549E+4   2.24572E+4
   3.66601E+4   2.29656E+4
   3.53328E+4   2.36473E+4
   3.40841E+4   2.39656E+4
   3.29261E+4   2.46904E+4
   3.18703E+4   2.49833E+4
   3.09825E+4   2.52920E+4
   2.95212E+4   2.57594E+4
   2.84442E+4   2.59139E+4
   2.71437E+4   2.62858E+4
   2.62103E+4   2.63981E+4
   2.52304E+4   2.66675E+4
   2.39816E+4   2.66616E+4
   2.29671E+4   2.69750E+4
   2.18666E+4   2.69838E+4
   2.08474E+4   2.70141E+4
   1.99959E+4   2.68426E+4
   1.90544E+4   2.69048E+4
   1.83477E+4   2.67847E+4
   1.71291E+4   2.66221E+4
   1.61855E+4   2.62815E+4
   1.52089E+4   2.61361E+4
   1.42155E+4   2.61889E+4
   1.34168E+4   2.58673E+4
   1.28773E+4   2.55359E+4
   1.22661E+4   2.51753E+4
   1.11819E+4   2.48055E+4
   1.06020E+4   2.44972E+4
   9.84841E+3   2.43517E+4
   9.15223E+3   2.39890E+4
   8.46050E+3   2.34740E+4
   8.00503E+3   2.31616E+4
   7.34220E+3   2.27604E+4
   6.46643E+3   2.23016E+4
   5.91705E+3   2.17310E+4
   5.70881E+3   2.14151E+4
   5.18986E+3   2.09537E+4
   4.44391E+3   2.05286E+4
   3.85040E+3   2.01956E+4
   3.55986E+3   1.94118E+4
   3.08809E+3   1.92062E+4
   2.71256E+3   1.86063E+4
   2.38477E+3   1.83120E+4
   1.97843E+3   1.77374E+4
   1.33608E+3   1.75513E+4
   1.21132E+3   1.72829E+4
   9.98373E+2   1.66942E+4
   4.08527E+2   1.61247E+4
   4.74454E+2   1.55202E+4
   5.45425E+1   1.54153E+4
  -2.85957E+2   1.50156E+4
  -6.07362E+2   1.44256E+4
  -9.08892E+2   1.42714E+4
  -1.28894E+3   1.39853E+4
  -1.41631E+3   1.33214E+4
  -1.68987E+3   1.31385E+4
  -1.69058E+3   1.28839E+4
  -2.11427E+3   1.24545E+4
  -1.87909E+3   1.19598E+4
  -2.36567E+3   1.17651E+4
  -2.16710E+3   1.15038E+4
  -2.69493E+3   1.12793E+4
  -2.61931E+3   1.09010E+4
  -2.89257E+3   1.06032E+4
  -2.95310E+3   1.05486E+4
  -2.89846E+3   1.03320E+4
  -3.26539E+3   1.01449E+4
  -3.30675E+3   9.85588E+3
  -3.14081E+3   9.64008E+3
  -3.24182E+3   9.46932E+3
  -3.57546E+3   9.24735E+3
  -3.34157E+3   9.06884E+3
  -3.19214E+3   8.84578E+3
  -3.34390E+3   8.66017E+3
  -3.41505E+3   8.66032E+3
  -3.65486E+3   8.42987E+3
  -3.42108E+3   8.07844E+3
  -3.26330E+3   8.22613E+3
  -3.40058E+3   7.96248E+3
  -3.36864E+3   8.05286E+3
  -3.35655E+3   7.78503E+3
  -3.51216E+3   7.66586E+3
  -3.42454E+3   7.35277E+3
  -3.42011E+3   7.28936E+3
  -3.25535E+3   7.27021E+3
  -3.32355E+3   7.38406E+3
  -3.12763E+3   7.25035E+3
  -3.37549E+3   7.17909E+3
  -3.03566E+3   7.23485E+3
  -3.07704E+3   7.04860E+3
  -3.10546E+3   7.17058E+3
  -3.24975E+3   6.81015E+3
  -2.99092E+3   7.00854E+3
  -2.94101E+3   7.11754E+3
  -2.90357E+3   7.08237E+3
  -2.87786E+3   6.85918E+3
  -2.88656E+3   7.08107E+3
  -2.69711E+3   6.95595E+3
  -2.85898E+3   6.85166E+3
  -3.07047E+3   7.18796E+3
  -2.70755E+3   7.05657E+3
  -2.85301E+3   7.41122E+3
  -3.12973E+3   7.10378E+3
  -2.90339E+3   7.17760E+3
  -3.03662E+3   6.89486E+3
  -3.06155E+3   7.16648E+3
  -3.08565E+3   7.13760E+3
  -2.95189E+3   7.23862E+3
  -3.06624E+3   7.48170E+3
  -2.97185E+3   7.22612E+3
  -3.39028E+3   7.12516E+3
  -3.30809E+3   7.45161E+3
  -3.30942E+3   7.36348E+3
  -3.27744E+3   7.32872E+3
  -3.23247E+3   7.37595E+3
  -3.22518E+3   7.24006E+3
  -3.52962E+3   7.48836E+3
  -3.60088E+3   7.54133E+3
  -4.05124E+3   7.36476E+3
  -3.38333E+3   7.17095E+3
  -3.68347E+3   7.74806E+3
  -3.93461E+3   7.74279E+3
  -4.02867E+3   7.65298E+3
  -4.04426E+3   7.63852E+3
  -4.11341E+3   7.78360E+3
  -4.09084E+3   7.62857E+3
  -4.20189E+3   7.60405E+3
  -4.41571E+3   7.93418E+3
  -4.39392E+3   8.10925E+3
  -4.55339E+3   7.71617E+3
  -4.70714E+3   7.81084E+3
  -4.60182E+3   7.85345E+3
  -4.86509E+3   7.97848E+3
  -5.01998E+3   7.98083E+3
  -5.04670E+3   7.72798E+3
  -5.02604E+3   7.72400E+3
  -5.16830E+3   7.95815E+3
  -5.27387E+3   7.78065E+3
  -5.32851E+3   7.66103E+3
  -5.29932E+3   7.78618E+3
  -5.40895E+3   7.61571E+3
  -5.45900E+3   7.82805E+3
  -5.69540E+3   7.66438E+3
  -5.29742E+3   7.30391E+3
  -5.63033E+3   7.40326E+3
  -5.62427E+3   7.35216E+3
  -5.46496E+3   7.30228E+3
  -5.69308E+3   7.14053E+3
  -5.64642E+3   7.03711E+3
  -6.16739E+3   7.05144E+3
  -6.03829E+3   6.83549E+3
  -5.96365E+3   6.68482E+3
  -5.96272E+3   6.61630E+3
  -6.01419E+3   6.31768E+3
  -6.25302E+3   6.34134E+3
  -6.05068E+3   6.30286E+3
  -6.31087E+3   6.00090E+3
  -6.10856E+3   5.94549E+3
  -6.20510E+3   5.59630E+3
  -6.26465E+3   5.62411E+3
  -6.27826E+3   5.50341E+3
  -6.38264E+3   5.37262E+3
  -6.47515E+3   5.37575E+3
  -6.32983E+3   4.91425E+3
  -6.13256E+3   5.13722E+3
  -6.19642E+3   4.53186E+3
  -6.02906E+3   4.50918E+3
  -6.38138E+3   4.18314E+3
  -6.20272E+3   4.22638E+3
  -6.02097E+3   4.10512E+3
  -6.08616E+3   3.81603E+3
  -5.98641E+3   3.52714E+3
  -6.32328E+3   3.81962E+3
  -6.09330E+3   3.50511E+3
  -6.28034E+3   3.25602E+3
