 
 $NMID
 ID=''
 FMTDAT='(2E13.5)'
 TRAMP=   1.00000E+0
 VOLUME=   1.00000E+0
 $END
  -4.94481E+5   4.92431E+5
  -1.70599E+6   7.21866E+5
  -1.61158E+6   8.94375E+5
  -1.57123E+6   8.13450E+5
  -1.60593E+6   8.30158E+5
  -1.53389E+6   8.33659E+5
  -1.53945E+6   7.80327E+5
  -1.58090E+6   8.25910E+5
  -1.50414E+6   8.50781E+5
  -1.48604E+6   7.90213E+5
  -1.52146E+6   7.96665E+5
  -1.48193E+6   8.15660E+5
  -1.45609E+6   7.90017E+5
  -1.46178E+6   7.95715E+5
  -1.43203E+6   7.95621E+5
  -1.41568E+6   7.74475E+5
  -1.41888E+6   7.84396E+5
  -1.39707E+6   7.82892E+5
  -1.38684E+6   7.60958E+5
  -1.38066E+6   7.65693E+5
  -1.35869E+6   7.61570E+5
  -1.35179E+6   7.47048E+5
  -1.34577E+6   7.50289E+5
  -1.32569E+6   7.43693E+5
  -1.31684E+6   7.26717E+5
  -1.30571E+6   7.33790E+5
  -1.28840E+6   7.30778E+5
  -1.27942E+6   7.18759E+5
  -1.26707E+6   7.16224E+5
  -1.24914E+6   7.13861E+5
  -1.24461E+6   7.04707E+5
  -1.23233E+6   7.02035E+5
  -1.21561E+6   6.94653E+5
  -1.20832E+6   6.87438E+5
  -1.19726E+6   6.85357E+5
  -1.18197E+6   6.81259E+5
  -1.17571E+6   6.76550E+5
  -1.16790E+6   6.72009E+5
  -1.15265E+6   6.63920E+5
  -1.14251E+6   6.60023E+5
  -1.13242E+6   6.56523E+5
  -1.11992E+6   6.49512E+5
  -1.10686E+6   6.44726E+5
  -1.09559E+6   6.43186E+5
  -1.08517E+6   6.36780E+5
  -1.07661E+6   6.30948E+5
  -1.06604E+6   6.25380E+5
  -1.05610E+6   6.16740E+5
  -1.04596E+6   6.08846E+5
  -1.03572E+6   6.02787E+5
  -1.02637E+6   5.96698E+5
  -1.01816E+6   5.90127E+5
  -1.00957E+6   5.83537E+5
  -1.00078E+6   5.76673E+5
  -9.91832E+5   5.69604E+5
  -9.83540E+5   5.62824E+5
  -9.74716E+5   5.54421E+5
  -9.63889E+5   5.46723E+5
  -9.53417E+5   5.41109E+5
  -9.45307E+5   5.34861E+5
  -9.37599E+5   5.26933E+5
  -9.28130E+5   5.19192E+5
  -9.19781E+5   5.12509E+5
  -9.11860E+5   5.04185E+5
  -9.02987E+5   4.94466E+5
  -8.92406E+5   4.86697E+5
  -8.83000E+5   4.80384E+5
  -8.75111E+5   4.73121E+5
  -8.67865E+5   4.64970E+5
  -8.60383E+5   4.57351E+5
  -8.51969E+5   4.48892E+5
  -8.43239E+5   4.41088E+5
  -8.34969E+5   4.33813E+5
  -8.27239E+5   4.26709E+5
  -8.19422E+5   4.18535E+5
  -8.11054E+5   4.10153E+5
  -8.02729E+5   4.02381E+5
  -7.95249E+5   3.94805E+5
  -7.87735E+5   3.86183E+5
  -7.79846E+5   3.77218E+5
  -7.71868E+5   3.68905E+5
  -7.64087E+5   3.61354E+5
  -7.56901E+5   3.53169E+5
  -7.50023E+5   3.43812E+5
  -7.42061E+5   3.34767E+5
  -7.34097E+5   3.27171E+5
  -7.27198E+5   3.19838E+5
  -7.19827E+5   3.11357E+5
  -7.12041E+5   3.03770E+5
  -7.03889E+5   2.96235E+5
  -6.96484E+5   2.89658E+5
  -6.89397E+5   2.82586E+5
  -6.82141E+5   2.75037E+5
  -6.74761E+5   2.67427E+5
  -6.66775E+5   2.60039E+5
  -6.59106E+5   2.53573E+5
  -6.52205E+5   2.47314E+5
  -6.45609E+5   2.40773E+5
  -6.38296E+5   2.33128E+5
  -6.30729E+5   2.26595E+5
  -6.23714E+5   2.20855E+5
  -6.17773E+5   2.14097E+5
  -6.10532E+5   2.06615E+5
  -6.01780E+5   2.00418E+5
  -5.94202E+5   1.95437E+5
  -5.87960E+5   1.90321E+5
  -5.81744E+5   1.84307E+5
  -5.74733E+5   1.78023E+5
  -5.66630E+5   1.72513E+5
  -5.59228E+5   1.67692E+5
  -5.52691E+5   1.62765E+5
  -5.46707E+5   1.57480E+5
  -5.40315E+5   1.51624E+5
  -5.33649E+5   1.45993E+5
  -5.26959E+5   1.40228E+5
  -5.20360E+5   1.34873E+5
  -5.14013E+5   1.29582E+5
  -5.06918E+5   1.24102E+5
  -4.99668E+5   1.19624E+5
  -4.92906E+5   1.15534E+5
  -4.87091E+5   1.11264E+5
  -4.81259E+5   1.06632E+5
  -4.74849E+5   1.02283E+5
  -4.68665E+5   9.78470E+4
  -4.62529E+5   9.31930E+4
  -4.56118E+5   8.86093E+4
  -4.49316E+5   8.44158E+4
  -4.43152E+5   8.01552E+4
  -4.37226E+5   7.60414E+4
  -4.31775E+5   7.13585E+4
  -4.25720E+5   6.65517E+4
  -4.19551E+5   6.15505E+4
  -4.13125E+5   5.70769E+4
  -4.07386E+5   5.31830E+4
  -4.01720E+5   4.88837E+4
  -3.95668E+5   4.46654E+4
  -3.89829E+5   4.06940E+4
  -3.84226E+5   3.71775E+4
  -3.78931E+5   3.32411E+4
  -3.73295E+5   2.89062E+4
  -3.67415E+5   2.50247E+4
  -3.61463E+5   2.19730E+4
  -3.55755E+5   1.88889E+4
  -3.50981E+5   1.51952E+4
  -3.45650E+5   1.15942E+4
  -3.39792E+5   7.90784E+3
  -3.34191E+5   4.57767E+3
  -3.28739E+5   1.65012E+3
  -3.23590E+5  -1.71988E+3
  -3.17920E+5  -4.71856E+3
  -3.12569E+5  -7.20816E+3
  -3.07169E+5  -1.00606E+4
  -3.02509E+5  -1.23902E+4
  -2.97739E+5  -1.49266E+4
  -2.92480E+5  -1.75758E+4
  -2.87403E+5  -2.00014E+4
  -2.82767E+5  -2.19376E+4
  -2.77911E+5  -2.41820E+4
  -2.73143E+5  -2.67490E+4
  -2.68204E+5  -2.82797E+4
  -2.63584E+5  -3.03485E+4
  -2.58888E+5  -3.22254E+4
  -2.54187E+5  -3.43050E+4
  -2.49644E+5  -3.59436E+4
  -2.44836E+5  -3.72997E+4
  -2.40647E+5  -3.84368E+4
  -2.36438E+5  -4.01818E+4
  -2.32424E+5  -4.21552E+4
  -2.27748E+5  -4.33182E+4
  -2.23180E+5  -4.45390E+4
  -2.19508E+5  -4.52098E+4
  -2.15570E+5  -4.65188E+4
  -2.11526E+5  -4.78094E+4
  -2.07316E+5  -4.87805E+4
  -2.03543E+5  -4.98372E+4
  -1.99535E+5  -5.07491E+4
  -1.96066E+5  -5.19500E+4
  -1.91878E+5  -5.31702E+4
  -1.87922E+5  -5.38033E+4
  -1.84582E+5  -5.44946E+4
  -1.81262E+5  -5.53405E+4
  -1.77444E+5  -5.62646E+4
  -1.73524E+5  -5.73867E+4
  -1.69926E+5  -5.78541E+4
  -1.66567E+5  -5.82481E+4
  -1.62686E+5  -5.88616E+4
  -1.59481E+5  -5.92837E+4
  -1.55930E+5  -5.93117E+4
  -1.52788E+5  -5.95537E+4
  -1.49780E+5  -6.02692E+4
  -1.46485E+5  -6.06911E+4
  -1.43129E+5  -6.12119E+4
  -1.39192E+5  -6.16896E+4
  -1.36018E+5  -6.17998E+4
  -1.32933E+5  -6.18919E+4
  -1.29845E+5  -6.20947E+4
  -1.26428E+5  -6.24751E+4
  -1.23460E+5  -6.25189E+4
  -1.20319E+5  -6.28231E+4
  -1.17019E+5  -6.31378E+4
  -1.13841E+5  -6.31839E+4
  -1.10988E+5  -6.30748E+4
  -1.07767E+5  -6.27863E+4
  -1.04889E+5  -6.31705E+4
  -1.02044E+5  -6.28103E+4
  -9.92045E+4  -6.29431E+4
  -9.60627E+4  -6.27836E+4
  -9.34110E+4  -6.24976E+4
  -9.05985E+4  -6.24336E+4
  -8.79137E+4  -6.21518E+4
  -8.48356E+4  -6.21335E+4
  -8.23010E+4  -6.14905E+4
  -7.97551E+4  -6.12265E+4
  -7.71946E+4  -6.08082E+4
  -7.42531E+4  -6.07693E+4
  -7.18737E+4  -6.02242E+4
  -6.94806E+4  -5.97045E+4
  -6.70244E+4  -5.91951E+4
  -6.46195E+4  -5.87040E+4
  -6.23810E+4  -5.80300E+4
  -6.00102E+4  -5.79104E+4
  -5.76922E+4  -5.69491E+4
  -5.54433E+4  -5.65777E+4
  -5.32751E+4  -5.58221E+4
  -5.10013E+4  -5.53028E+4
  -4.88849E+4  -5.45522E+4
  -4.69680E+4  -5.39985E+4
  -4.47754E+4  -5.34772E+4
  -4.29256E+4  -5.30908E+4
  -4.09873E+4  -5.24819E+4
  -3.89071E+4  -5.15879E+4
  -3.73182E+4  -5.11069E+4
  -3.55745E+4  -5.03327E+4
  -3.37626E+4  -4.96973E+4
  -3.19509E+4  -4.87218E+4
  -3.03866E+4  -4.81593E+4
  -2.89860E+4  -4.74113E+4
  -2.73510E+4  -4.67437E+4
  -2.56175E+4  -4.58854E+4
  -2.41314E+4  -4.52514E+4
  -2.26271E+4  -4.43943E+4
  -2.15047E+4  -4.38069E+4
  -2.00725E+4  -4.28913E+4
  -1.86789E+4  -4.22180E+4
  -1.74186E+4  -4.15694E+4
  -1.60756E+4  -4.08548E+4
  -1.52169E+4  -3.98281E+4
  -1.37454E+4  -3.93398E+4
  -1.27014E+4  -3.85270E+4
  -1.15936E+4  -3.76847E+4
  -1.06309E+4  -3.68885E+4
  -9.40554E+3  -3.64935E+4
  -8.41284E+3  -3.53568E+4
  -7.50673E+3  -3.45675E+4
  -6.42465E+3  -3.37625E+4
  -5.67541E+3  -3.28768E+4
  -4.58733E+3  -3.25028E+4
  -3.58356E+3  -3.15690E+4
  -2.89363E+3  -3.08478E+4
  -1.78279E+3  -3.01240E+4
  -1.07461E+3  -2.94368E+4
   4.77305E+1  -2.86795E+4
   6.86569E+2  -2.77951E+4
   1.39846E+3  -2.70340E+4
   2.20812E+3  -2.64511E+4
   2.80250E+3  -2.59331E+4
   3.61669E+3  -2.51525E+4
   4.44734E+3  -2.41937E+4
   4.95496E+3  -2.34642E+4
   5.57771E+3  -2.26254E+4
   6.08688E+3  -2.22337E+4
   6.70341E+3  -2.13457E+4
   7.33975E+3  -2.05233E+4
   7.69535E+3  -2.00962E+4
   8.30860E+3  -1.92852E+4
   9.15187E+3  -1.83800E+4
   9.60596E+3  -1.75194E+4
   9.64465E+3  -1.68267E+4
   1.02751E+4  -1.63326E+4
   1.07224E+4  -1.57567E+4
   1.11682E+4  -1.49648E+4
   1.16398E+4  -1.41650E+4
   1.18345E+4  -1.35396E+4
   1.24923E+4  -1.28876E+4
   1.26802E+4  -1.21143E+4
   1.30121E+4  -1.14019E+4
   1.32893E+4  -1.08409E+4
   1.32419E+4  -1.01614E+4
   1.37504E+4  -9.79374E+3
   1.42127E+4  -9.26454E+3
   1.45088E+4  -8.10867E+3
   1.47180E+4  -7.61629E+3
   1.46645E+4  -6.84170E+3
   1.51352E+4  -6.41961E+3
   1.50438E+4  -5.98900E+3
   1.52693E+4  -5.27444E+3
   1.55357E+4  -4.79172E+3
   1.56179E+4  -4.06868E+3
   1.59051E+4  -3.68731E+3
   1.58485E+4  -2.91715E+3
   1.59436E+4  -2.22879E+3
   1.59781E+4  -1.72171E+3
   1.61902E+4  -1.21504E+3
   1.63350E+4  -5.01450E+2
   1.63765E+4  -3.29788E+0
   1.64519E+4   6.30992E+2
   1.64841E+4   9.33429E+2
   1.63183E+4   1.44952E+3
   1.62194E+4   1.89623E+3
   1.62074E+4   2.43442E+3
   1.64770E+4   2.75653E+3
   1.64084E+4   3.29715E+3
   1.62506E+4   3.69116E+3
   1.63324E+4   4.07344E+3
   1.63306E+4   4.69721E+3
   1.62545E+4   4.89294E+3
   1.63780E+4   5.35522E+3
   1.58929E+4   5.60746E+3
   1.58781E+4   6.17318E+3
   1.59008E+4   6.53795E+3
   1.61417E+4   6.58307E+3
   1.56220E+4   7.29696E+3
   1.56663E+4   7.46350E+3
   1.55605E+4   7.81251E+3
   1.54351E+4   8.04342E+3
   1.52017E+4   8.56744E+3
   1.52584E+4   8.77639E+3
   1.51232E+4   9.28854E+3
   1.49999E+4   9.51253E+3
   1.44465E+4   9.99386E+3
   1.44844E+4   9.94480E+3
   1.45457E+4   1.04071E+4
   1.43176E+4   1.05827E+4
   1.41528E+4   1.09552E+4
   1.38249E+4   1.07817E+4
   1.40934E+4   1.14032E+4
   1.34708E+4   1.17479E+4
   1.31794E+4   1.17972E+4
   1.32989E+4   1.19460E+4
   1.28337E+4   1.22609E+4
   1.27846E+4   1.26111E+4
   1.25701E+4   1.26382E+4
   1.21715E+4   1.27182E+4
   1.21547E+4   1.31667E+4
   1.17706E+4   1.32423E+4
   1.15889E+4   1.34726E+4
   1.11021E+4   1.35079E+4
   1.10232E+4   1.39282E+4
   1.07077E+4   1.38464E+4
   1.06682E+4   1.40237E+4
   1.06440E+4   1.40524E+4
   1.02648E+4   1.42461E+4
   9.81650E+3   1.44349E+4
   9.72558E+3   1.45822E+4
   9.77680E+3   1.45575E+4
   9.23187E+3   1.46623E+4
   9.05941E+3   1.47995E+4
   8.78441E+3   1.48884E+4
   8.70308E+3   1.50664E+4
   8.35939E+3   1.49424E+4
   8.23853E+3   1.48333E+4
   7.88884E+3   1.49713E+4
   7.78525E+3   1.48858E+4
   7.58292E+3   1.51015E+4
   7.39104E+3   1.50362E+4
   6.97826E+3   1.53540E+4
   6.83575E+3   1.52197E+4
