 LCModel (Version 6.3-1N) Copyright: S.W. Provencher.          Ref.: Magn. Reson. Med. 30:672-679 (1993).                
 Slice_N1@12_11  28-Feb-2025 11:37:41
 27 lines in following concentration table = NCONC+1
    Conc.  %SD /Cr+PCr  Metabolite                                         
 3.45E-04   3% 3.4E-04 Mac                                                 
    4.061  32%   4.063 Cr                                                  
    3.934  33%   3.937 PCr                                                 
    5.843  14%   5.846 Ins                                                 
   11.146   6%  11.152 NAA                                                 
    6.993  12%   6.997 Tau                                                 
    1.373  20%   1.374 PCho                                                
    0.000 999%   0.000 GPC                                                 
    9.923   9%   9.929 Glu                                                 
    5.157  14%   5.160 Gln                                                 
    3.808  17%   3.810 Ala                                                 
    1.349  79%   1.350 Asc                                                 
    2.570  35%   2.571 Asp                                                 
 6.36E-02 752% 6.4E-02 GABA                                                
    0.800  78%   0.800 Glc                                                 
    0.531  87%   0.531 GSH                                                 
    0.000 999%   0.000 Lac                                                 
    2.354  25%   2.355 NAAG                                                
    0.895 118%   0.896 PE                                                  
    1.373  20%   1.374 GPC+PCho                                            
   13.500   6%  13.507 NAA+NAAG                                            
   15.080   8%  15.088 Glu+Gln                                             
    7.995   8%   8.000 Cr+PCr                                              
   13.500   6%  13.507 NAA+NAAG                                            
    7.995   8%   8.000 Cr+PCr                                              
   15.080   8%  15.088 Glu+Gln                                             
   6 lines in following misc. output table
  FWHM = 0.024 ppm    S/N =   5                                            
  Data shift = 0.024 ppm                                                   
  Ph: 156 deg       0.0 deg/ppm                                            
  alphaB,S = 1.6E-01,   2.1E+01                                            
   19 spline knots.   Ns = 5(1)                                            
  ( 3) 2 infls.   ( 2) 1 extrs.                                            
  480 points on ppm-axis = NY
      4.100000     4.091866     4.083733     4.075600     4.067466     4.059333     4.051199     4.043066     4.034933     4.026799
      4.018666     4.010532     4.002399     3.994265     3.986132     3.977998     3.969864     3.961731     3.953597     3.945463
      3.937330     3.929196     3.921062     3.912929     3.904795     3.896662     3.888528     3.880394     3.872261     3.864127
      3.855993     3.847860     3.839726     3.831592     3.823459     3.815325     3.807191     3.799058     3.790924     3.782790
      3.774657     3.766523     3.758389     3.750256     3.742122     3.733989     3.725855     3.717721     3.709588     3.701454
      3.693320     3.685187     3.677053     3.668919     3.660786     3.652652     3.644518     3.636385     3.628251     3.620117
      3.611984     3.603850     3.595716     3.587583     3.579449     3.571316     3.563182     3.555048     3.546915     3.538781
      3.530647     3.522514     3.514380     3.506246     3.498113     3.489979     3.481845     3.473712     3.465578     3.457444
      3.449311     3.441177     3.433043     3.424910     3.416776     3.408643     3.400509     3.392375     3.384242     3.376108
      3.367974     3.359841     3.351707     3.343573     3.335440     3.327306     3.319172     3.311039     3.302905     3.294771
      3.286638     3.278504     3.270370     3.262237     3.254103     3.245970     3.237836     3.229702     3.221569     3.213435
      3.205301     3.197168     3.189034     3.180900     3.172767     3.164633     3.156499     3.148366     3.140232     3.132098
      3.123965     3.115831     3.107697     3.099564     3.091430     3.083297     3.075163     3.067029     3.058896     3.050762
      3.042628     3.034495     3.026361     3.018227     3.010094     3.001960     2.993826     2.985693     2.977559     2.969425
      2.961292     2.953158     2.945024     2.936891     2.928757     2.920624     2.912490     2.904356     2.896223     2.888089
      2.879955     2.871822     2.863688     2.855554     2.847421     2.839287     2.831153     2.823020     2.814886     2.806752
      2.798619     2.790485     2.782351     2.774218     2.766084     2.757951     2.749817     2.741683     2.733550     2.725416
      2.717282     2.709149     2.701015     2.692881     2.684748     2.676614     2.668480     2.660347     2.652213     2.644079
      2.635946     2.627812     2.619678     2.611545     2.603411     2.595278     2.587144     2.579010     2.570877     2.562743
      2.554609     2.546476     2.538342     2.530208     2.522075     2.513941     2.505807     2.497674     2.489540     2.481406
      2.473273     2.465139     2.457006     2.448872     2.440738     2.432605     2.424471     2.416337     2.408204     2.400070
      2.391936     2.383803     2.375669     2.367535     2.359402     2.351268     2.343134     2.335001     2.326867     2.318733
      2.310600     2.302466     2.294333     2.286199     2.278065     2.269932     2.261798     2.253664     2.245531     2.237397
      2.229263     2.221130     2.212996     2.204862     2.196729     2.188595     2.180461     2.172328     2.164194     2.156060
      2.147927     2.139793     2.131660     2.123526     2.115392     2.107259     2.099125     2.090991     2.082858     2.074724
      2.066590     2.058457     2.050323     2.042189     2.034056     2.025922     2.017788     2.009655     2.001521     1.993387
      1.985254     1.977120     1.968987     1.960853     1.952719     1.944586     1.936452     1.928318     1.920185     1.912051
      1.903917     1.895784     1.887650     1.879516     1.871383     1.863249     1.855115     1.846982     1.838848     1.830714
      1.822581     1.814447     1.806314     1.798180     1.790046     1.781913     1.773779     1.765645     1.757512     1.749378
      1.741244     1.733111     1.724977     1.716843     1.708710     1.700576     1.692442     1.684309     1.676175     1.668041
      1.659908     1.651774     1.643641     1.635507     1.627373     1.619240     1.611106     1.602972     1.594839     1.586705
      1.578571     1.570438     1.562304     1.554170     1.546037     1.537903     1.529769     1.521636     1.513502     1.505368
      1.497235     1.489101     1.480968     1.472834     1.464700     1.456567     1.448433     1.440299     1.432166     1.424032
      1.415898     1.407765     1.399631     1.391497     1.383364     1.375230     1.367096     1.358963     1.350829     1.342695
      1.334562     1.326428     1.318295     1.310161     1.302027     1.293894     1.285760     1.277626     1.269493     1.261359
      1.253225     1.245092     1.236958     1.228824     1.220691     1.212557     1.204423     1.196290     1.188156     1.180022
      1.171889     1.163755     1.155622     1.147488     1.139354     1.131221     1.123087     1.114953     1.106820     1.098686
      1.090552     1.082419     1.074285     1.066151     1.058018     1.049884     1.041750     1.033617     1.025483     1.017349
      1.009216     1.001082     0.992949     0.984815     0.976681     0.968548     0.960414     0.952280     0.944147     0.936013
      0.927879     0.919746     0.911612     0.903478     0.895345     0.887211     0.879077     0.870944     0.862810     0.854676
      0.846543     0.838409     0.830276     0.822142     0.814008     0.805875     0.797741     0.789607     0.781474     0.773340
      0.765206     0.757073     0.748939     0.740805     0.732672     0.724538     0.716404     0.708271     0.700137     0.692003
      0.683870     0.675736     0.667603     0.659469     0.651335     0.643202     0.635068     0.626934     0.618801     0.610667
      0.602533     0.594400     0.586266     0.578132     0.569999     0.561865     0.553731     0.545598     0.537464     0.529330
      0.521197     0.513063     0.504930     0.496796     0.488662     0.480529     0.472395     0.464261     0.456128     0.447994
      0.439861     0.431727     0.423593     0.415460     0.407326     0.399192     0.391059     0.382925     0.374792     0.366658
      0.358524     0.350391     0.342257     0.334124     0.325990     0.317856     0.309723     0.301589     0.293455     0.285322
      0.277188     0.269055     0.260921     0.252787     0.244654     0.236520     0.228386     0.220253     0.212119     0.203986
 NY phased data points follow
  -8.23462E+01 -9.41694E+01 -1.00611E+02 -8.90183E+01 -9.34260E+01 -9.05626E+01 -7.71570E+01 -9.20827E+01 -9.52762E+01 -9.90468E+01
  -1.09013E+02 -8.69147E+01 -9.80373E+01 -1.04443E+02 -1.09084E+02 -1.19217E+02 -1.14518E+02 -1.28022E+02 -1.17520E+02 -1.36604E+02
  -1.38469E+02 -1.18532E+02 -1.18175E+02 -7.45907E+01 -5.53584E+01 -5.26665E+01 -4.33894E+01 -4.33643E+01 -2.90769E+01 -3.80308E+01
  -5.90423E+01 -5.17657E+01 -5.15268E+01 -5.06166E+01 -4.20421E+01 -5.16375E+01 -5.58439E+01 -6.76640E+01 -7.90571E+01 -8.12233E+01
  -1.00229E+02 -1.01194E+02 -8.13914E+01 -9.11101E+01 -5.72980E+01 -2.63497E+01 -4.08322E+01 -3.32108E+00 -4.83543E+00 -1.08477E+01
  -7.82594E+00 -1.99334E+01 -4.37074E+00 -2.77211E+01 -2.81154E+01 -3.66643E+01 -5.75126E+01 -4.43092E+01 -6.72310E+01 -6.50691E+01
  -3.22324E+01 -4.35905E+01 -4.71403E+01 -2.04181E+01 -1.11499E+00 -9.59950E+00 -2.98737E+01 -3.57417E+01 -4.89249E+01 -6.43598E+01
  -7.32913E+01 -4.32453E+01 -3.08300E+01 -4.57229E+01 -1.82689E+01 -1.90314E+01 -1.72417E+01 -8.03389E+00 -8.93704E+00 -3.18161E+00
  -1.43041E+01 -2.31221E+01 -2.64154E+01 -4.68471E+01 -6.41030E+01 -5.59940E+01 -6.35024E+01 -4.99832E+01 -2.55292E+01 -6.56677E+00
  -4.67029E+00 -1.21972E+01  1.07408E+01 -1.75693E+00  2.79197E+00  1.29583E+01  8.61013E+00  2.88044E+01  2.36379E+01  6.91329E+00
   4.74711E+00 -5.86653E+00 -2.12176E+01 -3.15324E+01 -5.44860E+01 -6.92209E+01 -8.90623E+01 -9.67495E+01 -9.76166E+01 -1.32054E+02
  -1.76746E+02 -1.80718E+02 -1.37488E+02 -1.20605E+02 -1.00494E+02 -8.31161E+01 -6.73501E+01 -5.38047E+01 -6.52951E+01 -5.43066E+01
  -5.11657E+01 -4.46319E+01 -3.30960E+01 -2.27069E+01 -1.06182E+01 -1.72789E+01  5.37127E-01  2.57113E+01  2.37453E+01  4.73504E+01
   7.42621E+01  4.75884E+01 -4.26026E+01 -1.40074E+02 -1.43479E+02 -1.32299E+02 -1.42245E+02 -1.31920E+02 -1.23335E+02 -1.26606E+02
  -1.19887E+02 -1.06831E+02 -1.14239E+02 -9.28168E+01 -9.81141E+01 -1.09201E+02 -1.02363E+02 -1.06046E+02 -8.91904E+01 -1.00300E+02
  -9.30590E+01 -7.75780E+01 -7.50104E+01 -7.05444E+01 -7.14335E+01 -7.14436E+01 -7.58469E+01 -7.01573E+01 -7.71855E+01 -7.55790E+01
  -6.30671E+01 -5.70008E+01 -5.51609E+01 -4.87255E+01 -5.99674E+01 -7.83534E+01 -7.03888E+01 -7.84016E+01 -6.33210E+01 -4.22669E+01
  -4.70354E+01 -3.69729E+01 -1.62701E+01 -1.56097E+01 -3.74637E+01 -3.87791E+01 -1.81673E+01 -6.00644E+00 -3.96169E+01 -6.13759E+01
  -5.49420E+01 -8.08584E+01 -8.10340E+01 -7.60934E+01 -9.45143E+01 -9.40668E+01 -8.03585E+01 -7.07285E+01 -7.32324E+01 -5.73873E+01
  -6.17199E+01 -7.84581E+01 -7.10948E+01 -6.74707E+01 -3.87979E+01 -3.39964E+01 -4.72583E+01 -3.92637E+01 -3.62445E+01 -4.80662E+01
  -4.64122E+01 -3.04135E+01 -3.77521E+01 -2.75491E+01 -4.37616E+01 -3.01623E+01 -1.50878E+01 -6.08325E+01 -6.91898E+01 -8.60864E+01
  -6.93523E+01 -6.74140E+01 -6.99126E+01 -3.66711E+01 -2.44273E+01  1.66062E+01  3.18036E+01  2.27034E+01  1.17964E+01  4.89151E+00
  -1.75358E+01 -3.69598E+01 -3.31260E+01 -5.10138E+01 -5.41157E+01 -4.40372E+01 -4.51754E+01 -4.74596E+01 -3.50638E+01 -4.91126E+01
  -5.33980E+01 -5.43697E+01 -6.73220E+01 -6.80564E+01 -8.95885E+01 -9.26755E+01 -9.65360E+01 -1.07026E+02 -1.11263E+02 -9.80553E+01
  -1.08017E+02 -9.60490E+01 -7.10916E+01 -7.80762E+01 -4.42692E+01 -5.39359E+01 -4.83106E+01 -4.91864E+01 -5.14458E+01 -5.18365E+01
  -7.82475E+01 -5.38705E+01 -6.65630E+01 -6.50232E+01 -8.97132E+01 -1.03795E+02 -7.72190E+01 -5.92853E+00  1.10352E+02  1.40602E+02
   1.78609E+02  1.60472E+02  1.18656E+02  1.11503E+02  8.37755E+01  7.13645E+01  6.13056E+01  6.35708E+01  6.48210E+01  5.96261E+01
   4.86373E+01  5.61205E+01  4.80098E+01  5.63353E+01  6.91735E+01  5.28645E+01  5.09486E+01  4.04798E+01  5.60465E+01  5.52159E+01
   5.15935E+01  5.01754E+01  4.55104E+01  5.59629E+01  3.84967E+01  3.27027E+01  4.11186E+01  3.89514E+01  2.02946E+01  3.71496E+01
   4.52107E+01  1.77336E+01  3.43882E+01  2.98961E+01  1.92056E+01  3.05091E+01  2.12421E+01  2.98966E+01  2.62046E+01  1.75409E+01
   2.58496E+01  2.35806E+01  4.36425E+01  4.60117E+01  3.81805E+01  4.15327E+01  4.89441E+01  5.01501E+01  4.79471E+01  7.24300E+01
   5.98031E+01  4.88059E+01  5.93377E+01  6.70319E+01  5.94639E+01  4.91002E+01  6.28457E+01  4.76134E+01  4.24506E+01  3.12873E+01
   1.41370E+01  1.51990E+01  9.92015E+00  4.41290E+00 -1.51121E+01 -2.91868E+01 -3.23243E+01 -4.43627E+01 -5.21116E+01 -5.04311E+01
  -6.49318E+01 -7.16897E+01 -8.08144E+01 -8.33319E+01 -8.49118E+01 -1.07180E+02 -1.06800E+02 -1.07160E+02 -9.65926E+01 -8.87514E+01
  -7.33854E+01 -5.94462E+01 -6.84618E+01 -4.59361E+01 -4.99831E+01 -6.25953E+01 -3.51592E+01 -3.61715E+01 -4.66233E+01 -4.23127E+01
  -4.35720E+01 -3.24974E+01 -3.61710E+01 -3.56458E+01 -3.70682E+01 -4.19944E+01 -4.00670E+01 -6.19445E+01 -5.74795E+01 -5.97984E+01
  -3.98150E+01 -2.95858E+01 -6.58730E+01 -5.39903E+01 -4.19595E+01 -3.34978E+01 -2.17815E+01 -1.84280E+01 -1.26720E+01 -9.71460E+00
  -1.42117E+01 -2.18829E+01 -8.84340E+00  4.47712E-01  6.84058E+00  1.44910E+01  9.19499E+00  2.12904E+01  3.13439E+01  2.50315E+01
   4.82957E+01  5.10041E+01  5.51144E+01  7.80280E+01  7.35707E+01  8.33080E+01  9.39331E+01  9.74844E+01  9.42654E+01  8.89678E+01
   7.75676E+01  6.58496E+01  4.66237E+01  2.08228E+01  2.46086E+01  1.47042E+01  9.17536E+00  9.83936E+00 -3.77677E+00 -1.23093E+01
  -9.67494E+00 -2.14720E+01 -3.80931E+01 -3.14571E+01 -3.70319E+01 -5.23278E+01 -6.45414E+01 -4.86218E+01 -5.68554E+01 -6.58047E+01
  -3.65843E+01 -5.20092E+01 -5.29301E+01 -3.16814E+01 -3.74819E+01 -5.16730E+01 -5.39196E+01 -3.97990E+01 -3.47226E+01 -5.31408E+01
  -5.58834E+01 -4.61710E+01 -6.43088E+01 -6.60012E+01 -5.84076E+01 -5.33851E+01 -5.44276E+01 -5.69694E+01 -4.69341E+01 -6.01232E+01
  -5.28039E+01 -5.36913E+01 -6.44026E+01 -4.57742E+01 -5.84235E+01 -5.19650E+01 -3.83305E+01 -4.66658E+01 -4.69176E+01 -5.77364E+01
  -4.70965E+01 -4.43747E+01 -4.25644E+01 -4.41031E+01 -4.48324E+01 -2.13420E+01 -3.30132E+01 -3.57598E+01 -4.78104E+01 -5.50503E+01
  -3.89371E+01 -5.63389E+01 -5.37643E+01 -3.87297E+01 -3.26065E+01 -3.71716E+01 -4.80981E+01 -4.68948E+01 -3.35410E+01 -3.00574E+01
  -4.69948E+01 -4.25359E+01 -3.37039E+01 -3.19515E+01 -1.51841E+01 -2.30028E+01 -4.29045E+01 -3.19441E+01 -4.24481E+01 -4.95054E+01
  -3.54845E+01 -4.55526E+01 -4.55289E+01 -3.82813E+01 -2.71199E+01 -3.32105E+01 -4.39020E+01 -4.53563E+01 -5.34783E+01 -3.26857E+01
 NY points of the fit to the data follow
  -9.17234E+01 -9.70013E+01 -1.02781E+02 -1.05753E+02 -1.02519E+02 -9.34036E+01 -8.40322E+01 -8.02271E+01 -8.30357E+01 -8.96072E+01
  -9.63498E+01 -1.00788E+02 -1.02930E+02 -1.04300E+02 -1.06293E+02 -1.09587E+02 -1.13477E+02 -1.18877E+02 -1.26445E+02 -1.34503E+02
  -1.37377E+02 -1.28155E+02 -1.06414E+02 -7.85057E+01 -5.33757E+01 -3.89401E+01 -3.51606E+01 -3.50427E+01 -3.56633E+01 -3.52366E+01
  -3.46726E+01 -3.55733E+01 -3.78357E+01 -4.14921E+01 -4.63714E+01 -5.23573E+01 -5.95115E+01 -6.87114E+01 -8.13850E+01 -9.62260E+01
  -1.07652E+02 -1.08905E+02 -9.71679E+01 -7.60862E+01 -5.27300E+01 -3.30575E+01 -2.09157E+01 -1.56756E+01 -1.43890E+01 -1.54873E+01
  -1.76325E+01 -2.00855E+01 -2.36199E+01 -2.96494E+01 -3.81118E+01 -4.65629E+01 -5.32925E+01 -5.77862E+01 -5.94896E+01 -5.74665E+01
  -5.18171E+01 -4.49225E+01 -3.72063E+01 -2.76068E+01 -1.95312E+01 -1.56468E+01 -1.71605E+01 -2.75084E+01 -4.35829E+01 -5.64008E+01
  -6.01167E+01 -5.54813E+01 -4.64682E+01 -3.48060E+01 -2.25733E+01 -1.29685E+01 -6.28161E+00 -2.37696E+00 -1.91854E+00 -4.28786E+00
  -1.09036E+01 -2.31089E+01 -3.94819E+01 -5.58678E+01 -6.63179E+01 -6.67863E+01 -5.79254E+01 -4.36846E+01 -2.90075E+01 -1.82765E+01
  -1.08198E+01 -5.83504E+00 -1.88633E+00  1.95505E+00  5.32959E+00  8.33162E+00  1.05396E+01  1.11786E+01  1.05956E+01  1.02414E+01
   9.28784E+00  5.22509E+00 -5.15431E+00 -2.16491E+01 -4.26572E+01 -6.36874E+01 -7.79074E+01 -8.86237E+01 -1.06342E+02 -1.32115E+02
  -1.52944E+02 -1.56649E+02 -1.42156E+02 -1.20764E+02 -1.00529E+02 -8.70532E+01 -7.91193E+01 -7.17884E+01 -6.46962E+01 -5.77612E+01
  -5.07801E+01 -4.33658E+01 -3.51565E+01 -2.57236E+01 -1.47513E+01 -1.93875E+00  1.23939E+01  2.53883E+01  4.05549E+01  5.67492E+01
   5.89988E+01  2.69410E+01 -3.84745E+01 -1.04468E+02 -1.40660E+02 -1.47147E+02 -1.36250E+02 -1.21068E+02 -1.15869E+02 -1.14837E+02
  -1.14133E+02 -1.13278E+02 -1.12297E+02 -1.11171E+02 -1.09711E+02 -1.07661E+02 -1.04822E+02 -1.01292E+02 -9.74366E+01 -9.36939E+01
  -9.03932E+01 -8.76476E+01 -8.52045E+01 -8.25801E+01 -7.95012E+01 -7.64831E+01 -7.42049E+01 -7.29368E+01 -7.20266E+01 -7.04080E+01
  -6.79941E+01 -6.60008E+01 -6.57629E+01 -6.69159E+01 -6.75963E+01 -6.67720E+01 -6.51552E+01 -6.40597E+01 -6.32407E+01 -5.95643E+01
  -5.02973E+01 -3.81682E+01 -3.03532E+01 -3.09435E+01 -3.55696E+01 -3.63910E+01 -3.24847E+01 -3.00208E+01 -3.47070E+01 -4.61881E+01
  -5.88293E+01 -6.78623E+01 -7.27832E+01 -7.48573E+01 -7.55990E+01 -7.60019E+01 -7.55238E+01 -7.46131E+01 -7.33874E+01 -7.16195E+01
  -7.01052E+01 -6.86824E+01 -6.55982E+01 -5.99323E+01 -5.33851E+01 -4.92914E+01 -4.69353E+01 -4.34929E+01 -4.03177E+01 -3.87287E+01
  -3.71210E+01 -3.43920E+01 -3.01891E+01 -2.70989E+01 -2.80900E+01 -3.24903E+01 -3.97807E+01 -4.85574E+01 -5.74268E+01 -6.50782E+01
  -6.87553E+01 -6.75267E+01 -5.91145E+01 -4.32019E+01 -2.18152E+01  4.25391E-01  1.60772E+01  2.12477E+01  1.72477E+01  6.53610E+00
  -4.72293E+00 -1.07219E+01 -1.33552E+01 -1.27114E+01 -1.17649E+01 -1.29236E+01 -1.67087E+01 -2.33946E+01 -3.25934E+01 -4.37726E+01
  -5.60342E+01 -6.82682E+01 -7.96672E+01 -8.95309E+01 -9.73764E+01 -1.02710E+02 -1.05491E+02 -1.06087E+02 -1.04933E+02 -1.02051E+02
  -9.79772E+01 -9.13308E+01 -8.16415E+01 -7.07409E+01 -6.02444E+01 -5.32003E+01 -5.16074E+01 -5.47608E+01 -6.01951E+01 -6.69139E+01
  -7.50047E+01 -8.32009E+01 -8.43887E+01 -8.47138E+01 -9.40542E+01 -1.02027E+02 -7.76177E+01 -5.89808E+00  7.84366E+01  1.31934E+02
   1.46058E+02  1.31748E+02  1.06540E+02  9.27015E+01  8.64660E+01  8.18096E+01  7.76169E+01  7.36715E+01  7.01762E+01  6.74703E+01
   6.57565E+01  6.47969E+01  6.42538E+01  6.37553E+01  6.30557E+01  6.19731E+01  6.06890E+01  5.93288E+01  5.79080E+01  5.62360E+01
   5.41198E+01  5.17002E+01  4.91268E+01  4.65485E+01  4.38823E+01  4.10662E+01  3.81313E+01  3.49830E+01  3.14304E+01  2.73945E+01
   2.28925E+01  1.81021E+01  1.33152E+01  8.87101E+00  5.50048E+00  3.82894E+00  4.02298E+00  5.76543E+00  8.37400E+00  1.12595E+01
   1.42452E+01  1.73180E+01  2.03959E+01  2.33582E+01  2.60743E+01  2.85116E+01  3.08545E+01  3.34116E+01  3.62293E+01  3.90656E+01
   4.15941E+01  4.37500E+01  4.56641E+01  4.74269E+01  4.90233E+01  5.02692E+01  5.10263E+01  5.10199E+01  5.03699E+01  4.85850E+01
   4.26330E+01  2.97988E+01  9.73043E+00 -1.32407E+01 -3.32960E+01 -4.64524E+01 -5.13696E+01 -5.14792E+01 -5.30691E+01 -5.73804E+01
  -6.32141E+01 -6.98236E+01 -7.38199E+01 -7.47764E+01 -7.27194E+01 -6.82696E+01 -6.26768E+01 -5.73548E+01 -5.31956E+01 -5.01807E+01
  -4.76141E+01 -4.45755E+01 -4.05969E+01 -3.59778E+01 -3.13703E+01 -2.76922E+01 -2.54991E+01 -2.46392E+01 -2.47496E+01 -2.57413E+01
  -2.77209E+01 -3.08723E+01 -3.52715E+01 -4.06142E+01 -4.60220E+01 -5.04227E+01 -5.30982E+01 -5.38089E+01 -5.27295E+01 -5.02510E+01
  -4.67692E+01 -4.26167E+01 -3.80701E+01 -3.34986E+01 -2.90898E+01 -2.49391E+01 -2.10648E+01 -1.73195E+01 -1.35952E+01 -9.81814E+00
  -5.97433E+00 -2.03563E+00  2.06541E+00  6.47282E+00  1.13899E+01  1.69536E+01  2.31709E+01  3.00594E+01  3.77161E+01  4.59569E+01
   5.45760E+01  6.36660E+01  7.31665E+01  8.24641E+01  9.06434E+01  9.65129E+01  9.85904E+01  9.56955E+01  8.76220E+01  7.56459E+01
   6.20477E+01  4.91371E+01  3.81533E+01  2.92749E+01  2.17054E+01  1.41631E+01  5.57039E+00 -4.27983E+00 -1.49054E+01 -2.54699E+01
  -3.48934E+01 -4.24193E+01 -4.79966E+01 -5.20118E+01 -5.46671E+01 -5.63068E+01 -5.73130E+01 -5.79920E+01 -5.86247E+01 -5.92757E+01
  -5.97719E+01 -5.99431E+01 -5.97915E+01 -5.95073E+01 -5.91073E+01 -5.85873E+01 -5.81209E+01 -5.78497E+01 -5.76402E+01 -5.71920E+01
  -5.65461E+01 -5.59450E+01 -5.55021E+01 -5.50746E+01 -5.46564E+01 -5.42774E+01 -5.38892E+01 -5.34428E+01 -5.27967E+01 -5.20556E+01
  -5.14383E+01 -5.10819E+01 -5.09269E+01 -5.07957E+01 -5.05032E+01 -4.99694E+01 -4.93334E+01 -4.86585E+01 -4.80073E+01 -4.74229E+01
  -4.69156E+01 -4.64204E+01 -4.60258E+01 -4.58546E+01 -4.58016E+01 -4.56836E+01 -4.53416E+01 -4.48128E+01 -4.42175E+01 -4.37166E+01
  -4.33936E+01 -4.31906E+01 -4.28893E+01 -4.23701E+01 -4.17742E+01 -4.11845E+01 -4.06554E+01 -4.02288E+01 -3.98290E+01 -3.94034E+01
  -3.90491E+01 -3.88342E+01 -3.86920E+01 -3.85770E+01 -3.83511E+01 -3.79338E+01 -3.72434E+01 -3.63753E+01 -3.55362E+01 -3.50373E+01
  -3.49353E+01 -3.50413E+01 -3.50563E+01 -3.48147E+01 -3.44064E+01 -3.39521E+01 -3.35352E+01 -3.31838E+01 -3.29257E+01 -3.26349E+01
 NY background values follow
    -6.142E+01   -6.122E+01   -6.102E+01   -6.082E+01   -6.061E+01   -6.041E+01   -6.021E+01   -6.001E+01   -5.981E+01   -5.960E+01
    -5.940E+01   -5.920E+01   -5.899E+01   -5.879E+01   -5.858E+01   -5.838E+01   -5.817E+01   -5.796E+01   -5.776E+01   -5.755E+01
    -5.734E+01   -5.713E+01   -5.692E+01   -5.671E+01   -5.650E+01   -5.629E+01   -5.608E+01   -5.587E+01   -5.566E+01   -5.545E+01
    -5.523E+01   -5.502E+01   -5.481E+01   -5.459E+01   -5.438E+01   -5.416E+01   -5.395E+01   -5.373E+01   -5.352E+01   -5.330E+01
    -5.309E+01   -5.287E+01   -5.266E+01   -5.244E+01   -5.223E+01   -5.202E+01   -5.181E+01   -5.160E+01   -5.139E+01   -5.118E+01
    -5.097E+01   -5.076E+01   -5.055E+01   -5.035E+01   -5.015E+01   -4.994E+01   -4.974E+01   -4.954E+01   -4.935E+01   -4.915E+01
    -4.896E+01   -4.876E+01   -4.857E+01   -4.838E+01   -4.820E+01   -4.801E+01   -4.783E+01   -4.765E+01   -4.746E+01   -4.728E+01
    -4.711E+01   -4.693E+01   -4.675E+01   -4.658E+01   -4.640E+01   -4.623E+01   -4.606E+01   -4.588E+01   -4.571E+01   -4.554E+01
    -4.537E+01   -4.520E+01   -4.503E+01   -4.486E+01   -4.469E+01   -4.453E+01   -4.436E+01   -4.419E+01   -4.402E+01   -4.385E+01
    -4.368E+01   -4.351E+01   -4.334E+01   -4.317E+01   -4.300E+01   -4.283E+01   -4.266E+01   -4.249E+01   -4.232E+01   -4.215E+01
    -4.197E+01   -4.180E+01   -4.162E+01   -4.145E+01   -4.127E+01   -4.110E+01   -4.092E+01   -4.074E+01   -4.056E+01   -4.038E+01
    -4.020E+01   -4.001E+01   -3.983E+01   -3.965E+01   -3.946E+01   -3.927E+01   -3.908E+01   -3.889E+01   -3.870E+01   -3.851E+01
    -3.832E+01   -3.812E+01   -3.792E+01   -3.773E+01   -3.753E+01   -3.733E+01   -3.713E+01   -3.693E+01   -3.672E+01   -3.652E+01
    -3.632E+01   -3.611E+01   -3.591E+01   -3.571E+01   -3.550E+01   -3.530E+01   -3.510E+01   -3.489E+01   -3.469E+01   -3.449E+01
    -3.429E+01   -3.409E+01   -3.389E+01   -3.369E+01   -3.349E+01   -3.330E+01   -3.310E+01   -3.291E+01   -3.272E+01   -3.253E+01
    -3.234E+01   -3.216E+01   -3.197E+01   -3.179E+01   -3.161E+01   -3.143E+01   -3.125E+01   -3.108E+01   -3.091E+01   -3.074E+01
    -3.057E+01   -3.040E+01   -3.023E+01   -3.007E+01   -2.991E+01   -2.975E+01   -2.959E+01   -2.943E+01   -2.928E+01   -2.912E+01
    -2.897E+01   -2.882E+01   -2.867E+01   -2.852E+01   -2.838E+01   -2.823E+01   -2.809E+01   -2.795E+01   -2.781E+01   -2.768E+01
    -2.754E+01   -2.741E+01   -2.727E+01   -2.714E+01   -2.701E+01   -2.688E+01   -2.675E+01   -2.663E+01   -2.650E+01   -2.637E+01
    -2.625E+01   -2.612E+01   -2.600E+01   -2.587E+01   -2.575E+01   -2.562E+01   -2.549E+01   -2.537E+01   -2.524E+01   -2.511E+01
    -2.499E+01   -2.486E+01   -2.473E+01   -2.459E+01   -2.446E+01   -2.433E+01   -2.419E+01   -2.406E+01   -2.392E+01   -2.378E+01
    -2.363E+01   -2.349E+01   -2.334E+01   -2.319E+01   -2.305E+01   -2.290E+01   -2.274E+01   -2.259E+01   -2.244E+01   -2.229E+01
    -2.214E+01   -2.199E+01   -2.184E+01   -2.169E+01   -2.155E+01   -2.140E+01   -2.126E+01   -2.112E+01   -2.098E+01   -2.084E+01
    -2.071E+01   -2.058E+01   -2.045E+01   -2.032E+01   -2.020E+01   -2.009E+01   -1.998E+01   -1.987E+01   -1.977E+01   -1.967E+01
    -1.958E+01   -1.950E+01   -1.942E+01   -1.934E+01   -1.927E+01   -1.921E+01   -1.916E+01   -1.911E+01   -1.906E+01   -1.902E+01
    -1.899E+01   -1.897E+01   -1.895E+01   -1.894E+01   -1.894E+01   -1.894E+01   -1.895E+01   -1.897E+01   -1.900E+01   -1.903E+01
    -1.907E+01   -1.912E+01   -1.918E+01   -1.924E+01   -1.932E+01   -1.940E+01   -1.949E+01   -1.958E+01   -1.969E+01   -1.981E+01
    -1.993E+01   -2.006E+01   -2.020E+01   -2.035E+01   -2.051E+01   -2.068E+01   -2.086E+01   -2.104E+01   -2.124E+01   -2.144E+01
    -2.166E+01   -2.188E+01   -2.212E+01   -2.236E+01   -2.261E+01   -2.287E+01   -2.314E+01   -2.342E+01   -2.371E+01   -2.401E+01
    -2.432E+01   -2.464E+01   -2.497E+01   -2.531E+01   -2.566E+01   -2.602E+01   -2.639E+01   -2.677E+01   -2.716E+01   -2.756E+01
    -2.797E+01   -2.839E+01   -2.882E+01   -2.926E+01   -2.971E+01   -3.016E+01   -3.062E+01   -3.109E+01   -3.156E+01   -3.203E+01
    -3.251E+01   -3.299E+01   -3.348E+01   -3.397E+01   -3.446E+01   -3.494E+01   -3.543E+01   -3.592E+01   -3.641E+01   -3.689E+01
    -3.738E+01   -3.786E+01   -3.833E+01   -3.880E+01   -3.926E+01   -3.972E+01   -4.017E+01   -4.062E+01   -4.106E+01   -4.148E+01
    -4.190E+01   -4.231E+01   -4.271E+01   -4.310E+01   -4.347E+01   -4.384E+01   -4.420E+01   -4.454E+01   -4.488E+01   -4.520E+01
    -4.551E+01   -4.581E+01   -4.609E+01   -4.636E+01   -4.662E+01   -4.687E+01   -4.710E+01   -4.732E+01   -4.753E+01   -4.772E+01
    -4.790E+01   -4.806E+01   -4.821E+01   -4.835E+01   -4.846E+01   -4.857E+01   -4.865E+01   -4.872E+01   -4.878E+01   -4.882E+01
    -4.884E+01   -4.884E+01   -4.883E+01   -4.880E+01   -4.876E+01   -4.871E+01   -4.864E+01   -4.855E+01   -4.846E+01   -4.835E+01
    -4.822E+01   -4.809E+01   -4.794E+01   -4.779E+01   -4.762E+01   -4.745E+01   -4.726E+01   -4.706E+01   -4.686E+01   -4.665E+01
    -4.643E+01   -4.620E+01   -4.597E+01   -4.573E+01   -4.548E+01   -4.523E+01   -4.498E+01   -4.472E+01   -4.445E+01   -4.419E+01
    -4.391E+01   -4.364E+01   -4.337E+01   -4.309E+01   -4.281E+01   -4.253E+01   -4.224E+01   -4.196E+01   -4.167E+01   -4.139E+01
    -4.110E+01   -4.082E+01   -4.053E+01   -4.025E+01   -3.996E+01   -3.968E+01   -3.940E+01   -3.912E+01   -3.884E+01   -3.857E+01
    -3.829E+01   -3.802E+01   -3.776E+01   -3.749E+01   -3.723E+01   -3.698E+01   -3.672E+01   -3.648E+01   -3.623E+01   -3.600E+01
    -3.576E+01   -3.554E+01   -3.531E+01   -3.510E+01   -3.489E+01   -3.468E+01   -3.448E+01   -3.428E+01   -3.409E+01   -3.390E+01
    -3.371E+01   -3.353E+01   -3.336E+01   -3.319E+01   -3.302E+01   -3.286E+01   -3.270E+01   -3.254E+01   -3.239E+01   -3.224E+01
    -3.209E+01   -3.195E+01   -3.181E+01   -3.168E+01   -3.154E+01   -3.142E+01   -3.129E+01   -3.116E+01   -3.104E+01   -3.092E+01
    -3.081E+01   -3.069E+01   -3.058E+01   -3.047E+01   -3.037E+01   -3.026E+01   -3.016E+01   -3.006E+01   -2.996E+01   -2.986E+01
    -2.976E+01   -2.967E+01   -2.958E+01   -2.949E+01   -2.940E+01   -2.931E+01   -2.922E+01   -2.913E+01   -2.905E+01   -2.896E+01
    -2.888E+01   -2.880E+01   -2.872E+01   -2.863E+01   -2.855E+01   -2.847E+01   -2.839E+01   -2.831E+01   -2.823E+01   -2.815E+01
 Mac      Conc. = 3.45E-04
  -8.63187E+01 -8.67179E+01 -8.69221E+01 -8.70640E+01 -8.74970E+01 -8.85262E+01 -9.01483E+01 -9.21030E+01 -9.39541E+01 -9.53158E+01
  -9.60133E+01 -9.61483E+01 -9.60502E+01 -9.61991E+01 -9.71504E+01 -9.86693E+01 -9.93106E+01 -9.75024E+01 -9.31310E+01 -8.74258E+01
  -8.18050E+01 -7.69251E+01 -7.32797E+01 -7.09645E+01 -6.93431E+01 -6.79047E+01 -6.61999E+01 -6.39380E+01 -6.13380E+01 -5.88850E+01
  -5.68571E+01 -5.52988E+01 -5.42170E+01 -5.37422E+01 -5.37650E+01 -5.37696E+01 -5.29130E+01 -5.07583E+01 -4.78810E+01 -4.54621E+01
  -4.43036E+01 -4.40761E+01 -4.38034E+01 -4.28149E+01 -4.12028E+01 -3.96933E+01 -3.89792E+01 -3.92316E+01 -4.02377E+01 -4.17121E+01
  -4.32732E+01 -4.45800E+01 -4.54602E+01 -4.59503E+01 -4.61835E+01 -4.60242E+01 -4.52686E+01 -4.38318E+01 -4.19901E+01 -4.00758E+01
  -3.82304E+01 -3.66912E+01 -3.59094E+01 -3.60231E+01 -3.68042E+01 -3.78654E+01 -3.87009E+01 -3.91724E+01 -3.93735E+01 -3.89242E+01
  -3.72766E+01 -3.45282E+01 -3.14417E+01 -2.89425E+01 -2.74313E+01 -2.69912E+01 -2.73390E+01 -2.80956E+01 -2.89396E+01 -2.96571E+01
  -3.01873E+01 -3.04745E+01 -3.04067E+01 -2.98429E+01 -2.88617E+01 -2.76469E+01 -2.63772E+01 -2.52207E+01 -2.43075E+01 -2.35648E+01
  -2.29608E+01 -2.25265E+01 -2.22839E+01 -2.24800E+01 -2.33315E+01 -2.50679E+01 -2.75740E+01 -3.05417E+01 -3.35144E+01 -3.61113E+01
  -3.83260E+01 -4.07066E+01 -4.36918E+01 -4.75766E+01 -5.27415E+01 -5.93996E+01 -6.69068E+01 -7.37981E+01 -7.84107E+01 -7.98768E+01
