 
 $NMID
 ID=''
 FMTDAT='(2E13.5)'
 TRAMP=   1.00000E+0
 VOLUME=   1.00000E+0
 $END
  -2.76903E+5   6.96597E+5
  -1.32120E+6   1.51773E+6
  -1.10344E+6   1.58472E+6
  -1.15222E+6   1.39849E+6
  -1.25716E+6   1.47022E+6
  -1.14451E+6   1.50503E+6
  -1.13922E+6   1.41080E+6
  -1.21823E+6   1.43147E+6
  -1.17668E+6   1.43773E+6
  -1.18922E+6   1.36127E+6
  -1.23970E+6   1.35580E+6
  -1.21687E+6   1.34496E+6
  -1.22904E+6   1.28991E+6
  -1.26841E+6   1.27657E+6
  -1.25932E+6   1.25005E+6
  -1.26924E+6   1.20262E+6
  -1.29504E+6   1.19580E+6
  -1.29018E+6   1.17646E+6
  -1.29751E+6   1.14111E+6
  -1.30447E+6   1.13996E+6
  -1.29705E+6   1.12174E+6
  -1.30762E+6   1.08947E+6
  -1.31813E+6   1.07897E+6
  -1.31376E+6   1.05839E+6
  -1.32342E+6   1.02544E+6
  -1.32702E+6   1.01315E+6
  -1.32958E+6   9.87734E+5
  -1.34349E+6   9.53979E+5
  -1.34948E+6   9.29713E+5
  -1.34516E+6   9.06871E+5
  -1.35394E+6   8.82444E+5
  -1.35447E+6   8.66804E+5
  -1.35017E+6   8.45046E+5
  -1.35287E+6   8.25636E+5
  -1.34749E+6   8.13711E+5
  -1.33985E+6   8.01945E+5
  -1.34284E+6   7.89240E+5
  -1.34282E+6   7.74093E+5
  -1.33621E+6   7.53102E+5
  -1.33650E+6   7.34920E+5
  -1.33531E+6   7.16221E+5
  -1.33062E+6   6.92702E+5
  -1.32810E+6   6.72869E+5
  -1.32683E+6   6.54671E+5
  -1.32468E+6   6.31328E+5
  -1.32385E+6   6.09401E+5
  -1.32179E+6   5.90946E+5
  -1.31778E+6   5.69136E+5
  -1.31186E+6   5.49264E+5
  -1.30619E+6   5.33687E+5
  -1.30138E+6   5.17870E+5
  -1.29795E+6   5.01026E+5
  -1.29305E+6   4.85209E+5
  -1.28811E+6   4.68595E+5
  -1.28363E+6   4.50444E+5
  -1.27883E+6   4.31483E+5
  -1.27323E+6   4.11301E+5
  -1.26617E+6   3.91745E+5
  -1.25955E+6   3.74091E+5
  -1.25450E+6   3.56941E+5
  -1.24950E+6   3.37853E+5
  -1.24338E+6   3.19409E+5
  -1.23781E+6   3.01715E+5
  -1.23140E+6   2.83546E+5
  -1.22281E+6   2.66130E+5
  -1.21402E+6   2.50590E+5
  -1.20586E+6   2.35218E+5
  -1.19817E+6   2.19975E+5
  -1.19207E+6   2.04580E+5
  -1.18609E+6   1.87624E+5
  -1.17767E+6   1.70332E+5
  -1.16884E+6   1.54130E+5
  -1.16154E+6   1.39387E+5
  -1.15524E+6   1.23212E+5
  -1.14666E+6   1.06598E+5
  -1.13734E+6   9.15691E+4
  -1.12924E+6   7.71400E+4
  -1.12140E+6   6.27555E+4
  -1.11274E+6   4.77125E+4
  -1.10322E+6   3.35575E+4
  -1.09402E+6   1.98132E+4
  -1.08484E+6   6.39383E+3
  -1.07604E+6  -7.19471E+3
  -1.06671E+6  -2.23920E+4
  -1.05669E+6  -3.72814E+4
  -1.04704E+6  -5.09931E+4
  -1.03733E+6  -6.44179E+4
  -1.02791E+6  -7.84130E+4
  -1.01803E+6  -9.24081E+4
  -1.00768E+6  -1.04310E+5
  -9.97517E+5  -1.15374E+5
  -9.88146E+5  -1.26854E+5
  -9.78725E+5  -1.38594E+5
  -9.68123E+5  -1.49172E+5
  -9.57273E+5  -1.58156E+5
  -9.47377E+5  -1.66894E+5
  -9.38443E+5  -1.75864E+5
  -9.29236E+5  -1.85292E+5
  -9.19079E+5  -1.94485E+5
  -9.09108E+5  -2.03143E+5
  -9.00244E+5  -2.12037E+5
  -8.90460E+5  -2.22219E+5
  -8.78702E+5  -2.31698E+5
  -8.67478E+5  -2.39817E+5
  -8.57710E+5  -2.46973E+5
  -8.48259E+5  -2.54282E+5
  -8.38690E+5  -2.62200E+5
  -8.28024E+5  -2.70184E+5
  -8.17084E+5  -2.76597E+5
  -8.06799E+5  -2.82244E+5
  -7.98022E+5  -2.87694E+5
  -7.88845E+5  -2.94810E+5
  -7.78724E+5  -3.02345E+5
  -7.68195E+5  -3.08637E+5
  -7.57797E+5  -3.15072E+5
  -7.47875E+5  -3.21726E+5
  -7.37250E+5  -3.28400E+5
  -7.25949E+5  -3.34064E+5
  -7.15220E+5  -3.38206E+5
  -7.05526E+5  -3.42367E+5
  -6.96843E+5  -3.47470E+5
  -6.87370E+5  -3.52770E+5
  -6.77653E+5  -3.57311E+5
  -6.67813E+5  -3.62431E+5
  -6.57977E+5  -3.67224E+5
  -6.47103E+5  -3.71350E+5
  -6.36904E+5  -3.74958E+5
  -6.27184E+5  -3.79314E+5
  -6.17360E+5  -3.83658E+5
  -6.07483E+5  -3.88364E+5
  -5.96898E+5  -3.93576E+5
  -5.85593E+5  -3.98335E+5
  -5.75063E+5  -4.02001E+5
  -5.65316E+5  -4.05622E+5
  -5.55059E+5  -4.09725E+5
  -5.44580E+5  -4.13202E+5
  -5.34715E+5  -4.16049E+5
  -5.25449E+5  -4.18804E+5
  -5.15923E+5  -4.22257E+5
  -5.05584E+5  -4.25563E+5
  -4.95255E+5  -4.28205E+5
  -4.85543E+5  -4.29813E+5
  -4.76327E+5  -4.31784E+5
  -4.67282E+5  -4.34302E+5
  -4.57719E+5  -4.37517E+5
  -4.47420E+5  -4.39671E+5
  -4.37266E+5  -4.41101E+5
  -4.27545E+5  -4.42803E+5
  -4.17825E+5  -4.44360E+5
  -4.08891E+5  -4.45660E+5
  -3.99532E+5  -4.46448E+5
  -3.90522E+5  -4.47511E+5
  -3.82399E+5  -4.48186E+5
  -3.73921E+5  -4.49393E+5
  -3.64727E+5  -4.50336E+5
  -3.56226E+5  -4.50402E+5
  -3.48086E+5  -4.50164E+5
  -3.39847E+5  -4.50585E+5
  -3.31736E+5  -4.50618E+5
  -3.23704E+5  -4.50259E+5
  -3.15508E+5  -4.50123E+5
  -3.07301E+5  -4.49720E+5
  -2.99341E+5  -4.49528E+5
  -2.91255E+5  -4.48326E+5
  -2.83665E+5  -4.47418E+5
  -2.76682E+5  -4.46197E+5
  -2.69362E+5  -4.45836E+5
  -2.61977E+5  -4.45161E+5
  -2.54439E+5  -4.43963E+5
  -2.47292E+5  -4.42619E+5
  -2.40274E+5  -4.41416E+5
  -2.33676E+5  -4.40222E+5
  -2.26644E+5  -4.38596E+5
  -2.19823E+5  -4.37081E+5
  -2.12534E+5  -4.35697E+5
  -2.06199E+5  -4.34307E+5
  -1.99435E+5  -4.33003E+5
  -1.92156E+5  -4.31418E+5
  -1.85215E+5  -4.29488E+5
  -1.78955E+5  -4.27478E+5
  -1.72963E+5  -4.25994E+5
  -1.66123E+5  -4.24772E+5
  -1.59419E+5  -4.22612E+5
  -1.52930E+5  -4.20696E+5
  -1.46853E+5  -4.18703E+5
  -1.40945E+5  -4.16327E+5
  -1.34706E+5  -4.14178E+5
  -1.28807E+5  -4.11665E+5
  -1.23512E+5  -4.09157E+5
  -1.18379E+5  -4.07523E+5
  -1.12271E+5  -4.06037E+5
  -1.05636E+5  -4.03987E+5
  -9.93188E+4  -4.01487E+5
  -9.35832E+4  -3.98912E+5
  -8.80277E+4  -3.96497E+5
  -8.25033E+4  -3.94075E+5
  -7.66517E+4  -3.91838E+5
  -7.10875E+4  -3.89105E+5
  -6.52631E+4  -3.86812E+5
  -5.98194E+4  -3.84422E+5
  -5.37436E+4  -3.81826E+5
  -4.84486E+4  -3.78605E+5
  -4.35172E+4  -3.75402E+5
  -3.85273E+4  -3.72950E+5
  -3.34766E+4  -3.70588E+5
  -2.81046E+4  -3.67888E+5
  -2.29547E+4  -3.64595E+5
  -1.79744E+4  -3.61656E+5
  -1.35176E+4  -3.58803E+5
  -8.34131E+3  -3.55440E+5
  -3.46375E+3  -3.52247E+5
   1.21389E+3  -3.48965E+5
   5.37478E+3  -3.46097E+5
   9.66249E+3  -3.43342E+5
   1.47926E+4  -3.40001E+5
   1.94438E+4  -3.36234E+5
   2.33406E+4  -3.32330E+5
   2.67231E+4  -3.28898E+5
   3.06229E+4  -3.25844E+5
   3.44720E+4  -3.22731E+5
   3.79101E+4  -3.19102E+5
   4.14205E+4  -3.15392E+5
   4.47843E+4  -3.12355E+5
   4.88105E+4  -3.08821E+5
   5.19559E+4  -3.04967E+5
   5.47184E+4  -3.01169E+5
   5.74286E+4  -2.97805E+5
   6.01191E+4  -2.94822E+5
   6.34684E+4  -2.91552E+5
   6.67403E+4  -2.87884E+5
   6.94027E+4  -2.83762E+5
   7.17268E+4  -2.80442E+5
   7.37390E+4  -2.77062E+5
   7.63958E+4  -2.73724E+5
   7.83758E+4  -2.70334E+5
   8.03277E+4  -2.67099E+5
   8.21004E+4  -2.63819E+5
   8.43112E+4  -2.60376E+5
   8.63632E+4  -2.56880E+5
   8.78774E+4  -2.53493E+5
   8.96868E+4  -2.50115E+5
   9.10577E+4  -2.47156E+5
   9.28995E+4  -2.43824E+5
   9.45025E+4  -2.40520E+5
   9.57437E+4  -2.37033E+5
   9.72410E+4  -2.33960E+5
   9.83769E+4  -2.30846E+5
   9.99288E+4  -2.27486E+5
   1.01014E+5  -2.24033E+5
   1.02198E+5  -2.21061E+5
   1.02961E+5  -2.18430E+5
   1.04364E+5  -2.15326E+5
   1.05585E+5  -2.11889E+5
   1.06479E+5  -2.08572E+5
   1.07345E+5  -2.05472E+5
   1.08244E+5  -2.02969E+5
   1.09401E+5  -1.99795E+5
   1.10349E+5  -1.96881E+5
   1.11159E+5  -1.93430E+5
   1.12177E+5  -1.90461E+5
   1.13250E+5  -1.87319E+5
   1.14470E+5  -1.84001E+5
   1.15179E+5  -1.80734E+5
   1.15536E+5  -1.77755E+5
   1.16022E+5  -1.75087E+5
   1.17028E+5  -1.72466E+5
   1.17785E+5  -1.69310E+5
   1.18499E+5  -1.66128E+5
   1.18800E+5  -1.63090E+5
   1.19221E+5  -1.60302E+5
   1.19784E+5  -1.57536E+5
   1.20381E+5  -1.54621E+5
   1.20774E+5  -1.51764E+5
   1.21212E+5  -1.48941E+5
   1.21702E+5  -1.46252E+5
   1.22405E+5  -1.43248E+5
   1.22606E+5  -1.39987E+5
   1.22813E+5  -1.37254E+5
   1.23107E+5  -1.35030E+5
   1.23414E+5  -1.32328E+5
   1.23786E+5  -1.29386E+5
   1.24015E+5  -1.26750E+5
   1.23863E+5  -1.24235E+5
   1.24302E+5  -1.21502E+5
   1.24028E+5  -1.18814E+5
   1.24252E+5  -1.15804E+5
   1.24110E+5  -1.13263E+5
   1.23541E+5  -1.11315E+5
   1.23598E+5  -1.09239E+5
   1.23907E+5  -1.06622E+5
   1.23829E+5  -1.04026E+5
   1.23525E+5  -1.01453E+5
   1.23189E+5  -9.94095E+4
   1.22923E+5  -9.70380E+4
   1.23039E+5  -9.47705E+4
   1.22516E+5  -9.24172E+4
   1.22122E+5  -9.05536E+4
   1.21764E+5  -8.83538E+4
   1.21814E+5  -8.61541E+4
   1.21483E+5  -8.38451E+4
   1.20412E+5  -8.16922E+4
   1.20234E+5  -7.99391E+4
   1.20103E+5  -7.81952E+4
   1.19662E+5  -7.59468E+4
   1.19253E+5  -7.38347E+4
   1.18154E+5  -7.17918E+4
   1.17927E+5  -7.00039E+4
   1.17517E+5  -6.82160E+4
   1.17010E+5  -6.61614E+4
   1.16248E+5  -6.41739E+4
   1.15533E+5  -6.25474E+4
   1.14934E+5  -6.08620E+4
   1.14599E+5  -5.91411E+4
   1.13872E+5  -5.70632E+4
   1.13247E+5  -5.54790E+4
   1.12611E+5  -5.38656E+4
   1.11940E+5  -5.22084E+4
   1.11578E+5  -5.05857E+4
   1.10636E+5  -4.90587E+4
   1.09765E+5  -4.72261E+4
   1.09168E+5  -4.58991E+4
   1.08695E+5  -4.42226E+4
   1.07853E+5  -4.27137E+4
   1.07141E+5  -4.10325E+4
   1.06361E+5  -3.96908E+4
   1.05819E+5  -3.84802E+4
   1.05438E+5  -3.69447E+4
   1.04358E+5  -3.51510E+4
   1.03524E+5  -3.35461E+4
   1.02814E+5  -3.25735E+4
   1.02026E+5  -3.10914E+4
   1.01324E+5  -2.98050E+4
   1.00472E+5  -2.85011E+4
   9.97168E+4  -2.71929E+4
   9.91000E+4  -2.62469E+4
   9.81579E+4  -2.46740E+4
   9.78501E+4  -2.30733E+4
   9.68490E+4  -2.18182E+4
   9.56090E+4  -2.07497E+4
   9.48301E+4  -1.97399E+4
   9.45254E+4  -1.87792E+4
   9.37208E+4  -1.70774E+4
   9.28539E+4  -1.59869E+4
   9.19047E+4  -1.49291E+4
   9.11717E+4  -1.37041E+4
   9.03731E+4  -1.28444E+4
   8.94091E+4  -1.16348E+4
   8.87801E+4  -1.06583E+4
   8.79462E+4  -9.82650E+3
   8.75185E+4  -8.84179E+3
   8.67916E+4  -7.45665E+3
   8.57936E+4  -6.61991E+3
   8.48036E+4  -5.72039E+3
   8.39046E+4  -4.99899E+3
   8.34539E+4  -3.82801E+3
   8.26662E+4  -3.13548E+3
   8.15564E+4  -2.20428E+3
   8.09738E+4  -1.32169E+3
   8.01271E+4  -5.67002E+2
   7.96884E+4   4.24118E+2
   7.87871E+4   1.42110E+3
   7.75812E+4   2.22237E+3
   7.66383E+4   2.55327E+3
   7.59874E+4   3.21378E+3
   7.54205E+4   4.09513E+3
   7.47685E+4   5.12552E+3
   7.39846E+4   5.52278E+3
