 
 $NMID
 ID=''
 FMTDAT='(2E13.5)'
 TRAMP=   1.00000E+0
 VOLUME=   1.00000E+0
 $END
  -1.23760E+4   7.51622E+3
  -1.02275E+4  -9.85025E+3
  -1.45581E+4   3.43257E+3
   1.93892E+3   1.49175E+4
   1.34324E+4   4.59991E+3
   8.27111E+3  -1.06226E+4
  -2.66420E+3  -1.16198E+4
  -1.01860E+4  -8.63913E+2
  -4.59765E+3   1.05117E+4
   7.98662E+3   9.80337E+3
   7.64978E+3  -1.57602E+3
  -1.76622E+3  -9.11390E+3
  -5.30497E+3  -3.69572E+3
  -4.74428E+3   5.76154E+3
  -1.16296E+3   6.33245E+3
   5.91383E+3  -6.47955E+2
   5.87613E+3  -5.04055E+3
  -2.21402E+3  -3.10786E+3
  -6.52376E+3  -1.06066E+2
  -2.54478E+3   2.89235E+3
   3.00969E+3   3.58266E+3
   5.13004E+3  -6.55781E+2
   2.21968E+3  -4.05517E+3
  -3.10728E+3  -2.01643E+3
  -3.48906E+3   1.16566E+3
   4.27629E+2   2.66200E+3
   3.00107E+3   2.94658E+3
   9.17659E+2  -7.40191E+2
  -1.47473E+3  -3.67368E+3
  -1.88490E+3  -1.27858E+3
  -1.00009E+3   2.31328E+3
   2.94623E+2   2.26190E+3
   1.56633E+3   9.29995E+1
   4.10759E+2  -2.69131E+3
  -9.75716E+2  -3.02878E+3
  -4.68943E+2  -1.20034E+2
  -1.22040E+2   2.94721E+3
  -5.14318E+1   1.47885E+3
   1.24840E+3  -1.25330E+3
   5.45341E+2  -1.67699E+3
  -2.01732E+3  -8.34019E+2
  -2.06008E+3  -2.53535E+2
   6.25987E+2   5.75274E+2
   1.91133E+3   1.23777E+3
   9.64293E+2   9.75214E+1
  -2.80447E+2  -7.04238E+2
  -1.63245E+3   1.36523E+2
  -2.13678E+3   5.03771E+2
  -5.93087E+2   1.02042E+2
   1.23424E+3  -3.88555E+2
   1.33454E+3  -3.23231E+2
   9.82671E+1  -6.68122E+2
  -5.78775E+2  -4.32830E+2
  -5.75455E+2   9.64653E+2
   5.46872E+2   1.28729E+3
   3.17748E+2   4.71623E+2
  -4.58455E+2  -8.98726E+2
  -5.09487E+2  -8.41675E+2
   1.11129E+2   2.60564E+2
   3.95920E+2   1.45565E+3
   2.93881E+2   1.05618E+3
  -1.36041E+2   1.76595E+2
  -5.59185E+2  -1.52066E+2
  -1.36041E+3  -2.23312E+2
  -1.18434E+3  -2.09105E+2
   3.78515E+2  -2.80222E+2
   1.48358E+3  -3.35924E+2
   1.13128E+3  -2.83073E+2
  -2.29584E+2   5.38673E+2
  -7.73851E+2   6.32332E+2
  -2.02985E+2   4.19216E+2
   1.14254E+3   2.96776E+2
   8.53685E+2   5.75343E+2
  -5.31062E+2  -7.46335E+1
  -9.61667E+2  -3.72971E+2
  -1.87196E+2   2.54125E+2
   1.57920E+2   8.20682E+2
   4.45173E+2   5.14146E+2
   4.88072E+2  -5.14316E+2
  -8.18398E+1  -5.42787E+2
  -8.84292E+1  -4.28712E+2
   3.51793E+1   2.10592E+2
   5.27924E+2   4.52639E+2
   6.07541E+2   2.99726E+2
   3.47864E+2  -5.86882E+2
   4.00236E+2  -1.61663E+2
   9.78035E+1   3.79089E+2
  -2.20231E+2   5.03562E+2
   2.17961E+2  -1.30026E+2
   4.07271E+2  -1.19472E+2
   1.82880E+2   1.25497E+2
  -6.51894E+2   3.66053E+2
  -4.65943E+2  -1.97370E+2
  -3.67403E+1  -3.81187E+2
   9.03473E+2  -2.92919E+2
   5.06382E+2  -7.36970E-1
  -1.88847E+2  -2.52371E+1
  -4.83179E+2   2.52407E+1
   3.63469E+2   3.11070E+2
   2.14528E+2   6.45666E+2
  -2.02013E+2  -2.22467E+2
  -5.54945E+2  -6.76718E+2
  -2.21967E+2  -3.25217E+2
   1.48393E+2   1.69303E+1
   3.75294E+2   5.78054E+2
   1.19161E+2   1.12866E+2
  -1.01914E+2  -1.34489E+2
  -4.42166E+2  -1.10113E+3
   1.57905E+2  -9.19062E+2
   3.36764E+2   8.40664E+2
   2.32693E+1   1.20462E+3
  -3.62571E+2   8.30174E+1
  -1.49247E+2  -7.06311E+2
  -1.34316E+2  -1.21897E+2
  -3.27373E+2  -1.95092E+2
  -4.30638E+2  -1.50263E+2
  -1.00004E+2  -2.73281E+2
   5.54150E+2  -2.82754E+2
   7.29206E+2  -8.68227E+1
   2.36127E+1   1.83288E+2
  -3.42982E+2   2.39561E+2
  -1.27195E+2   1.33046E+2
  -2.89331E+2   1.80456E+2
   8.36203E+1  -1.75770E+1
  -1.43618E+2  -3.92508E+2
  -9.85015E+1  -1.64073E+2
   1.49720E+2   6.43503E+1
   1.50584E+2   3.78225E+2
   5.66196E+1   6.17383E+1
  -3.47310E+2  -1.91096E+2
  -8.48904E+1  -1.77687E+2
   3.04188E+2  -2.16073E+2
   3.82823E+2   1.96524E+2
  -2.71813E-1   1.54131E+2
   1.24425E+2  -8.00171E+1
   4.28500E+2  -2.65589E+2
   1.34195E+2   1.60800E+2
  -2.63226E+2   7.83418E+1
  -2.73482E+2  -2.63523E+2
  -1.81867E+2  -3.81743E+2
   3.88462E+2  -2.96689E+2
   2.93188E+2   2.16282E+2
  -9.12567E+1   5.26698E+2
  -2.46356E+2   4.11475E+2
  -4.14325E+1  -1.00125E+2
   2.25295E+2  -4.98512E+2
   2.66448E+1  -1.09167E+2
  -1.38572E+1   5.76936E+1
  -1.54109E+1  -9.33092E+1
   2.13855E+2  -1.62416E+2
   4.52049E+2   2.28576E+2
   1.79279E+2   2.42436E+2
  -1.87567E+2   1.47149E+2
  -2.43426E+2  -2.55939E+2
   1.56342E+2  -2.11671E+1
   4.19470E+2   1.15946E+2
  -3.50754E+1   1.62493E+2
  -7.49931E+1  -1.24771E+2
   1.44699E+2  -2.96047E+2
  -5.14771E+1  -1.06745E+2
  -4.21244E+2  -2.32575E+2
   1.03952E+2  -2.81177E+1
   2.37075E+2  -1.31040E+2
   2.62936E+2   4.94881E+1
   2.00645E+2  -1.65688E+2
  -4.14866E+0   3.18756E+2
  -4.19693E+2   9.84808E+1
   1.92321E+1  -5.37499E+1
   2.73225E+2  -1.34113E+2
   2.84448E+2  -5.01649E+1
   1.60370E+1   9.01770E+1
  -1.31463E+2  -1.63380E+2
  -1.45495E+2  -5.41396E+1
   1.81814E+2   8.18106E+1
   6.77976E+1   2.19961E+2
  -3.90468E+1  -1.27388E+1
  -1.58484E+2  -4.06791E+2
   7.52125E+1  -1.97295E+2
  -8.92098E+1   2.76855E+2
  -6.71964E+1   3.17835E+2
  -2.00348E+2  -1.81995E+2
   4.83323E+1  -2.76033E+1
   3.45369E+2  -1.32236E+2
  -1.39974E+1  -1.16308E+2
  -1.58751E+1  -8.75456E+1
  -5.64014E+1  -6.70062E+1
   9.27850E+1   1.13780E+2
   2.37137E+2   2.33094E+2
  -2.00004E+2   1.93799E+2
  -2.02925E+2   1.75056E+2
  -2.09613E+2  -1.73842E+2
   8.00344E+1  -3.48502E+2
  -1.20552E+1  -9.36855E+1
  -1.89605E+1   2.37253E+2
  -1.23300E+2   1.91934E+2
  -4.36380E+1  -8.66462E+1
   6.89348E+1  -9.44555E+1
  -1.32544E+2  -7.93945E+1
  -2.02314E+2  -1.16135E+2
   1.49691E+2  -1.04593E+2
   9.32709E+1   8.49106E+1
   1.82642E+2   2.03881E+2
   1.40627E+2   1.38561E+2
  -1.87312E+2   4.30307E+2
  -5.38786E+0  -2.72917E+2
   1.35492E+2  -1.50545E+2
  -1.61311E+2   7.84577E+0
   5.37610E+1   1.32925E+2
   7.30109E+1  -8.08937E+1
   5.01721E+1   2.66604E+1
  -8.85255E+1   1.87670E+2
  -3.67260E+1   4.97855E+1
  -8.97691E+1   3.06769E+1
   1.30285E+2  -2.14536E+2
   1.29984E+2  -1.94826E+2
   7.71920E+1   8.07875E+1
  -8.01090E+1  -3.14766E+1
  -1.62231E+2  -1.37350E+2
   6.85209E+1   3.09075E+1
  -4.17574E+1   9.46222E+1
   6.28025E+1   9.27417E+1
   1.54846E+2  -7.70805E+1
  -1.42225E+2   6.98177E+0
   2.31186E+2  -6.66307E+1
   2.64138E+2   8.14828E+1
  -1.44564E+1   1.52392E+2
   1.84310E+2  -6.70818E+0
  -1.13395E+2  -3.35990E+1
   1.11579E+2  -1.59551E+1
  -7.78089E+1  -2.49313E+2
   1.08284E+2   5.85045E+1
  -1.47556E+2  -9.31110E+1
  -1.38652E+2  -9.24378E+1
   1.57485E+2  -9.87334E+1
  -7.36420E+0   1.09598E+0
   1.46926E+2  -1.35925E+2
   1.71651E+2  -9.55951E+1
  -2.46383E+2   1.80537E+1
  -6.89046E+0   1.08923E+2
  -1.10251E+2  -1.46166E+2
  -2.00996E+2  -2.28502E+1
   5.38193E-1   1.32911E+2
  -1.80719E+2  -5.41979E+1
  -2.72882E+1  -1.23457E+2
   6.75132E+1   5.44842E+1
  -6.63794E+1   1.63142E+2
  -9.23537E+1  -2.59429E+1
  -7.45231E+1   6.29190E+1
   5.16128E+0  -9.57232E+1
   1.47676E+2  -5.04735E+1
   6.68058E+1  -2.41371E+1
  -2.87727E+1   1.77188E+2
  -1.82407E+2   1.73431E+0
  -1.86273E+2   9.77534E+1
   2.17690E+2   5.64470E+1
  -8.98855E+1   4.22762E+1
   1.04865E+2  -1.33022E+0
   4.13782E+1   4.53999E+1
   2.02830E+1  -1.01652E+2
  -1.64382E+2   1.61943E+2
   1.74164E+2   2.01822E+2
  -1.17909E+2   4.07617E+1
   1.20249E+2   7.59044E+1
   2.41227E+2  -1.92814E+2
   3.02163E+1  -6.70951E+1
   1.17637E+2  -5.14135E+1
   1.00382E+2   1.26937E+2
  -2.41539E+1   1.70271E+1
  -1.12727E+2  -3.19160E+2
   6.05117E+1  -2.21697E+2
   1.60524E+1   1.58154E+2
  -1.48164E+2   1.01121E+2
   2.15912E+2  -1.75127E+2
   1.17451E+1   9.77069E+1
  -2.31265E+1   4.31028E+1
   2.14224E+2   3.82808E+1
   4.66521E+1   1.45114E+1
   8.91326E+1  -2.33929E+1
  -1.24899E+2  -7.91220E+1
  -5.89371E+1   1.46805E+2
  -3.41678E+1  -2.66503E+2
  -5.16366E+1  -1.87329E+2
   6.08867E+1  -1.90543E+2
  -8.41168E+1  -3.04248E+2
  -1.08209E+2  -6.04256E+1
   7.82435E+1  -1.68831E+2
   2.97006E+1   1.06625E+1
   1.04015E+2  -9.71620E+0
  -2.43656E+0  -7.37575E+1
  -9.28545E+1  -1.95351E+2
   6.72330E+1  -9.84714E+1
   9.32540E+1  -9.44087E+1
   1.00177E+2   1.13856E+2
  -1.72809E+2   1.07918E+1
   4.72691E+0  -3.74954E+1
  -5.12816E+1  -1.09450E+2
   7.45324E+1   2.08021E+2
  -1.58730E+1  -2.13399E+2
   6.34334E+1  -4.64939E+1
  -2.28952E+1   1.87653E+0
   8.37942E+1  -2.19578E+2
   1.21434E+2  -1.00168E+2
  -1.05997E+2   1.55515E+2
   1.38040E+2  -1.80522E+2
   2.20288E+2  -1.88945E+2
   3.01258E+2  -4.38163E+2
  -2.99248E+1  -2.42921E+1
  -1.15618E+2  -1.17841E+2
  -1.30033E+2  -3.32314E+2
   6.18906E+1  -2.28321E+2
  -2.57723E+2  -2.04879E+2
   4.82472E+1  -1.06227E+2
  -2.44798E+2   1.07957E+2
  -1.21091E+2  -3.14268E+2
   9.82726E+1  -2.87090E+2
   2.02565E+1  -1.54790E+2
  -1.94616E+2  -1.14138E+2
  -1.48695E+1  -4.33410E+1
  -1.88907E+2  -1.84752E+2
   2.77542E+2  -1.50958E+2
   4.88315E+1  -2.02082E+2
   6.22329E+0   2.15138E+2
   6.84683E+1  -1.09768E+2
   4.26134E+1  -2.46514E+2
  -9.74815E+1  -2.83251E+2
  -1.01221E+2  -2.16798E+2
  -1.36870E+2  -1.30043E+2
  -1.17818E+2  -1.12029E+2
  -1.60321E+1   8.86095E+1
  -4.28577E+1  -8.90508E+1
  -1.17825E+2  -9.65585E+1
  -1.36597E+2   8.77531E+1
  -1.09513E+2   1.26709E+2
  -2.11261E+1   4.09663E+1
   6.04699E+1  -1.59561E+2
  -4.25272E+1  -1.00832E+2
  -2.19556E+2  -1.77851E+2
   2.82443E+2  -2.11563E+2
   2.27836E+1  -5.46869E+1
   1.39178E+1   1.11074E+2
  -6.26075E+1   8.39002E+1
  -9.84594E+0  -1.18886E+2
   1.78509E+2  -1.19268E+2
   6.07663E+0   4.45862E+1
   6.57470E+1   1.14706E+2
  -1.07548E+2  -1.10889E+2
   2.87834E+1   1.28972E+2
   1.55240E+2   2.04714E+2
   5.15773E+1  -7.21076E+1
   4.59816E+1  -1.35037E+1
   8.23301E+1  -3.85886E+2
  -6.46822E+1   1.30843E+2
   1.67809E+2  -1.94710E+2
   2.22873E+2  -8.73991E+1
  -1.55203E+2   1.47048E+2
   1.15530E+1  -5.21744E+1
   7.94526E+1  -2.07820E+2
  -1.76879E+2  -2.70908E+2
  -1.22740E+1  -1.60312E+2
   6.58108E+1  -1.67628E+2
   9.14557E+1  -2.66700E+2
   1.13013E+2   5.62845E+1
   7.83713E+0  -1.49106E+1
  -1.58528E+2   4.66143E+1
  -5.37568E+0  -1.55541E+2
   2.74462E+1  -1.72452E+2
   1.88784E+2  -1.78422E+1
