 LCModel (Version 6.3-1N) Copyright: S.W. Provencher.          Ref.: Magn. Reson. Med. 30:672-679 (1993).                
 Slice_N1@17_21  28-Feb-2025 11:39:32
 27 lines in following concentration table = NCONC+1
    Conc.  %SD /Cr+PCr  Metabolite                                         
 3.06E-04   3% 2.8E-04 Mac                                                 
    3.644  22%   3.318 Cr                                                  
    5.142  15%   4.682 PCr                                                 
    7.458  11%   6.791 Ins                                                 
   11.166   6%  10.166 NAA                                                 
    6.584  11%   5.995 Tau                                                 
    0.000 999%   0.000 PCho                                                
    1.458  16%   1.327 GPC                                                 
   11.171   9%  10.171 Glu                                                 
    3.720  20%   3.387 Gln                                                 
    0.000 999%   0.000 Ala                                                 
    4.392  24%   3.999 Asc                                                 
    3.815  25%   3.473 Asp                                                 
    1.038  50%   0.945 GABA                                                
    0.868  85%   0.791 Glc                                                 
    1.794  25%   1.633 GSH                                                 
    4.119  15%   3.750 Lac                                                 
    1.797  27%   1.637 NAAG                                                
    1.741  54%   1.585 PE                                                  
    1.458  16%   1.327 GPC+PCho                                            
   12.963   6%  11.803 NAA+NAAG                                            
   14.891   8%  13.558 Glu+Gln                                             
    8.786   7%   8.000 Cr+PCr                                              
   12.963   6%  11.803 NAA+NAAG                                            
    8.786   7%   8.000 Cr+PCr                                              
   14.891   8%  13.558 Glu+Gln                                             
   6 lines in following misc. output table
  FWHM = 0.024 ppm    S/N =   6                                            
  Data shift = 0.024 ppm                                                   
  Ph: -74 deg       0.0 deg/ppm                                            
  alphaB,S = 3.6E+00,   3.4E-01                                            
   19 spline knots.   Ns = 5(1)                                            
   3 inflections.     2 extrema                                            
  480 points on ppm-axis = NY
      4.100000     4.091866     4.083733     4.075600     4.067466     4.059333     4.051199     4.043066     4.034933     4.026799
      4.018666     4.010532     4.002399     3.994265     3.986132     3.977998     3.969864     3.961731     3.953597     3.945463
      3.937330     3.929196     3.921062     3.912929     3.904795     3.896662     3.888528     3.880394     3.872261     3.864127
      3.855993     3.847860     3.839726     3.831592     3.823459     3.815325     3.807191     3.799058     3.790924     3.782790
      3.774657     3.766523     3.758389     3.750256     3.742122     3.733989     3.725855     3.717721     3.709588     3.701454
      3.693320     3.685187     3.677053     3.668919     3.660786     3.652652     3.644518     3.636385     3.628251     3.620117
      3.611984     3.603850     3.595716     3.587583     3.579449     3.571316     3.563182     3.555048     3.546915     3.538781
      3.530647     3.522514     3.514380     3.506246     3.498113     3.489979     3.481845     3.473712     3.465578     3.457444
      3.449311     3.441177     3.433043     3.424910     3.416776     3.408643     3.400509     3.392375     3.384242     3.376108
      3.367974     3.359841     3.351707     3.343573     3.335440     3.327306     3.319172     3.311039     3.302905     3.294771
      3.286638     3.278504     3.270370     3.262237     3.254103     3.245970     3.237836     3.229702     3.221569     3.213435
      3.205301     3.197168     3.189034     3.180900     3.172767     3.164633     3.156499     3.148366     3.140232     3.132098
      3.123965     3.115831     3.107697     3.099564     3.091430     3.083297     3.075163     3.067029     3.058896     3.050762
      3.042628     3.034495     3.026361     3.018227     3.010094     3.001960     2.993826     2.985693     2.977559     2.969425
      2.961292     2.953158     2.945024     2.936891     2.928757     2.920624     2.912490     2.904356     2.896223     2.888089
      2.879955     2.871822     2.863688     2.855554     2.847421     2.839287     2.831153     2.823020     2.814886     2.806752
      2.798619     2.790485     2.782351     2.774218     2.766084     2.757951     2.749817     2.741683     2.733550     2.725416
      2.717282     2.709149     2.701015     2.692881     2.684748     2.676614     2.668480     2.660347     2.652213     2.644079
      2.635946     2.627812     2.619678     2.611545     2.603411     2.595278     2.587144     2.579010     2.570877     2.562743
      2.554609     2.546476     2.538342     2.530208     2.522075     2.513941     2.505807     2.497674     2.489540     2.481406
      2.473273     2.465139     2.457006     2.448872     2.440738     2.432605     2.424471     2.416337     2.408204     2.400070
      2.391936     2.383803     2.375669     2.367535     2.359402     2.351268     2.343134     2.335001     2.326867     2.318733
      2.310600     2.302466     2.294333     2.286199     2.278065     2.269932     2.261798     2.253664     2.245531     2.237397
      2.229263     2.221130     2.212996     2.204862     2.196729     2.188595     2.180461     2.172328     2.164194     2.156060
      2.147927     2.139793     2.131660     2.123526     2.115392     2.107259     2.099125     2.090991     2.082858     2.074724
      2.066590     2.058457     2.050323     2.042189     2.034056     2.025922     2.017788     2.009655     2.001521     1.993387
      1.985254     1.977120     1.968987     1.960853     1.952719     1.944586     1.936452     1.928318     1.920185     1.912051
      1.903917     1.895784     1.887650     1.879516     1.871383     1.863249     1.855115     1.846982     1.838848     1.830714
      1.822581     1.814447     1.806314     1.798180     1.790046     1.781913     1.773779     1.765645     1.757512     1.749378
      1.741244     1.733111     1.724977     1.716843     1.708710     1.700576     1.692442     1.684309     1.676175     1.668041
      1.659908     1.651774     1.643641     1.635507     1.627373     1.619240     1.611106     1.602972     1.594839     1.586705
      1.578571     1.570438     1.562304     1.554170     1.546037     1.537903     1.529769     1.521636     1.513502     1.505368
      1.497235     1.489101     1.480968     1.472834     1.464700     1.456567     1.448433     1.440299     1.432166     1.424032
      1.415898     1.407765     1.399631     1.391497     1.383364     1.375230     1.367096     1.358963     1.350829     1.342695
      1.334562     1.326428     1.318295     1.310161     1.302027     1.293894     1.285760     1.277626     1.269493     1.261359
      1.253225     1.245092     1.236958     1.228824     1.220691     1.212557     1.204423     1.196290     1.188156     1.180022
      1.171889     1.163755     1.155622     1.147488     1.139354     1.131221     1.123087     1.114953     1.106820     1.098686
      1.090552     1.082419     1.074285     1.066151     1.058018     1.049884     1.041750     1.033617     1.025483     1.017349
      1.009216     1.001082     0.992949     0.984815     0.976681     0.968548     0.960414     0.952280     0.944147     0.936013
      0.927879     0.919746     0.911612     0.903478     0.895345     0.887211     0.879077     0.870944     0.862810     0.854676
      0.846543     0.838409     0.830276     0.822142     0.814008     0.805875     0.797741     0.789607     0.781474     0.773340
      0.765206     0.757073     0.748939     0.740805     0.732672     0.724538     0.716404     0.708271     0.700137     0.692003
      0.683870     0.675736     0.667603     0.659469     0.651335     0.643202     0.635068     0.626934     0.618801     0.610667
      0.602533     0.594400     0.586266     0.578132     0.569999     0.561865     0.553731     0.545598     0.537464     0.529330
      0.521197     0.513063     0.504930     0.496796     0.488662     0.480529     0.472395     0.464261     0.456128     0.447994
      0.439861     0.431727     0.423593     0.415460     0.407326     0.399192     0.391059     0.382925     0.374792     0.366658
      0.358524     0.350391     0.342257     0.334124     0.325990     0.317856     0.309723     0.301589     0.293455     0.285322
      0.277188     0.269055     0.260921     0.252787     0.244654     0.236520     0.228386     0.220253     0.212119     0.203986
 NY phased data points follow
  -9.62578E+01 -1.07622E+02 -1.10782E+02 -9.86608E+01 -1.10025E+02 -9.96111E+01 -1.04473E+02 -1.01414E+02 -9.65546E+01 -1.15281E+02
  -1.17642E+02 -1.21978E+02 -1.19667E+02 -1.31564E+02 -1.30944E+02 -1.33705E+02 -1.44748E+02 -1.41321E+02 -1.59428E+02 -1.77764E+02
  -1.79326E+02 -1.28244E+02 -1.00041E+02 -9.66341E+01 -5.63228E+01 -4.89310E+01 -5.78665E+01 -7.24671E+01 -6.06039E+01 -4.59509E+01
  -5.73370E+01 -4.99453E+01 -5.99971E+01 -5.50058E+01 -5.26398E+01 -6.93761E+01 -7.54720E+01 -9.45637E+01 -1.10348E+02 -1.37126E+02
  -1.47894E+02 -1.35396E+02 -1.23976E+02 -1.02896E+02 -8.68225E+01 -5.32171E+01 -2.81780E+01 -3.20215E+01 -2.52481E+01 -2.71492E+01
  -3.94976E+01 -3.37943E+01 -4.44395E+01 -6.00690E+01 -5.85367E+01 -7.81166E+01 -7.32261E+01 -6.02313E+01 -9.82499E+01 -1.13342E+02
  -6.68084E+01 -6.53398E+01 -8.34514E+01 -3.29275E+01 -2.42883E+01 -2.01462E+01 -2.31984E+01 -6.42848E+01 -7.29388E+01 -1.20238E+02
  -1.05821E+02 -5.41098E+01 -7.20287E+01 -6.43781E+01 -3.32499E+01 -1.23200E+01 -2.00185E+01 -2.12077E+01 -1.43482E+01 -2.36714E+01
  -2.09421E+01 -3.28775E+01 -4.93188E+01 -6.74065E+01 -9.30923E+01 -8.65285E+01 -7.20958E+01 -4.01057E+01 -2.10044E+01 -2.74155E+01
   5.09784E+00  2.29755E+00 -2.79364E+00  5.88683E+00  4.41206E-01  1.17463E+01  4.62698E+00  2.41235E+01  2.27800E+01  4.39233E+00
   1.02522E+01 -1.23651E+01 -4.31931E+01 -6.05898E+01 -7.46390E+01 -1.01697E+02 -1.01314E+02 -9.90713E+01 -1.14313E+02 -1.61656E+02
  -2.28923E+02 -2.08500E+02 -1.63399E+02 -1.40693E+02 -1.16787E+02 -1.13338E+02 -1.03980E+02 -8.22015E+01 -7.67004E+01 -7.72800E+01
  -5.80679E+01 -5.18695E+01 -5.29638E+01 -3.32341E+01 -2.88382E+01 -2.20949E+01 -8.71437E+00  1.19212E+01  4.92471E+01  6.33360E+01
   9.94023E+01  6.94933E+01 -9.70787E+01 -2.01896E+02 -1.84156E+02 -1.53653E+02 -1.51869E+02 -1.51977E+02 -1.36643E+02 -1.27414E+02
  -1.32375E+02 -1.25041E+02 -1.29287E+02 -1.34706E+02 -1.29024E+02 -1.30958E+02 -1.17525E+02 -1.27749E+02 -1.19164E+02 -9.78722E+01
  -1.16091E+02 -1.10798E+02 -9.50852E+01 -8.62138E+01 -8.63172E+01 -9.34343E+01 -8.61229E+01 -8.99810E+01 -9.35281E+01 -7.87155E+01
  -9.10605E+01 -9.67732E+01 -7.94873E+01 -8.29556E+01 -8.81415E+01 -8.95692E+01 -8.49187E+01 -7.58687E+01 -7.07074E+01 -7.16416E+01
  -5.36825E+01 -4.40265E+01 -4.84680E+01 -3.77955E+01 -5.46960E+01 -5.27440E+01 -3.10117E+01 -3.04480E+01 -5.37648E+01 -9.17326E+01
  -1.07132E+02 -1.08934E+02 -1.07988E+02 -1.05463E+02 -9.76562E+01 -9.94037E+01 -9.98536E+01 -1.04571E+02 -1.00966E+02 -8.32497E+01
  -1.01597E+02 -8.62491E+01 -6.69169E+01 -7.20229E+01 -4.61848E+01 -7.62756E+01 -8.56829E+01 -5.30553E+01 -6.85214E+01 -5.87049E+01
  -6.77059E+01 -7.50917E+01 -5.04987E+01 -5.13055E+01 -5.96489E+01 -8.77707E+01 -9.72915E+01 -9.38739E+01 -1.06145E+02 -1.16333E+02
  -1.12147E+02 -1.07164E+02 -9.36897E+01 -5.73416E+01 -4.12029E+01 -1.27609E+01  1.26398E+01  4.79602E-01 -1.60499E+01 -3.00050E+01
  -5.23647E+01 -8.08168E+01 -7.77288E+01 -5.57156E+01 -5.86136E+01 -5.93434E+01 -4.59452E+01 -4.34073E+01 -4.40434E+01 -5.39804E+01
  -5.17498E+01 -5.78448E+01 -8.11658E+01 -9.71302E+01 -1.11107E+02 -1.05409E+02 -1.20509E+02 -1.42173E+02 -1.35102E+02 -1.22582E+02
  -1.17853E+02 -1.14613E+02 -1.15178E+02 -9.15016E+01 -6.89195E+01 -7.48929E+01 -6.25091E+01 -7.65828E+01 -9.55459E+01 -1.12794E+02
  -1.14248E+02 -1.06966E+02 -1.15482E+02 -1.24915E+02 -1.44546E+02 -1.51094E+02 -1.78302E+02 -2.16461E+01  2.01585E+02  1.78878E+02
   1.03294E+02  8.80503E+01  7.06794E+01  5.80003E+01  6.26720E+01  4.23164E+01  3.68666E+01  2.72029E+01  1.25429E+01  2.31824E+01
   1.54238E+01  1.11792E+01  1.22454E+01  2.73674E+01  1.72366E+01  2.21532E+01  3.70769E+01  2.72525E+01  2.44096E+01  3.16639E+01
   3.41214E+01  1.41541E+01  2.16617E+01  1.58951E+01  1.35539E+01  7.55127E+00  8.24116E+00  1.98610E+01  3.33886E+00  1.14593E+01
   6.82526E+00 -1.47856E+00 -1.39503E+01 -1.06022E+01 -4.62467E-01 -3.22534E+00 -2.17351E+00 -5.52906E+00 -7.52956E-01 -1.72973E+00
   6.19772E+00 -2.42467E+00  9.79303E+00  2.25367E+01  1.01968E+01  7.26451E+00  2.27109E+00  3.68530E+00  8.61781E-01  1.33552E+01
   4.80590E+00  1.79874E+00  1.71376E+01  8.41309E+00 -4.88891E+00 -2.10049E+01 -1.77818E+01 -2.06402E+01 -2.41448E+01  5.12748E+00
   2.65520E+01  4.35122E+01  6.08589E+01  5.07784E+01  4.79040E+01  4.23967E+01  3.10407E+01  2.49070E+01 -3.54541E+00 -2.67960E+01
  -2.73844E+01 -3.60047E+01 -4.90986E+01 -3.78576E+01 -5.36446E+01 -5.63235E+01 -3.53513E+01 -3.95042E+01 -2.76198E+01 -9.39641E+00
   5.52311E+00 -8.06173E+00 -2.06317E+01 -2.89032E+01 -4.45286E+01 -4.53333E+01 -4.64564E+01 -3.73432E+01 -4.17237E+01 -4.00333E+01
  -3.57045E+01 -4.65646E+01 -4.31403E+01 -3.99762E+01 -5.11124E+01 -6.22921E+01 -6.80413E+01 -6.82253E+01 -7.69491E+01 -9.03581E+01
  -7.56664E+01 -5.85601E+01 -6.41347E+01 -6.78388E+01 -4.53713E+01 -4.15159E+01 -4.46454E+01 -3.27459E+01 -2.48084E+01 -1.50523E+01
  -2.23839E+01 -9.04555E+00 -1.16030E+01 -2.22089E+01 -1.13696E+01 -5.93301E+00 -1.66412E+00 -6.76040E+00  8.96607E+00  8.92207E+00
   1.23104E+01  2.75801E+01  3.18485E+01  3.49731E+01  4.88556E+01  8.04160E+01  7.02584E+01  7.09886E+01  8.38112E+01  7.59850E+01
   7.11613E+01  5.47797E+01  3.70777E+01  2.24585E+01  2.18301E+01  2.21004E+01  1.41851E+00 -1.26756E+01 -4.50203E+00 -2.19201E+01
  -4.53491E+01 -3.98507E+01 -4.74792E+01 -7.01490E+01 -7.49760E+01 -6.87157E+01 -7.85696E+01 -8.29418E+01 -7.93325E+01 -7.98218E+01
  -8.02707E+01 -7.39629E+01 -8.23061E+01 -8.54521E+01 -6.61627E+01 -6.86915E+01 -6.46763E+01 -7.38280E+01 -6.97181E+01 -6.30173E+01
  -7.73600E+01 -6.45874E+01 -7.51216E+01 -7.17397E+01 -6.65347E+01 -6.41518E+01 -6.92556E+01 -8.12766E+01 -5.67761E+01 -6.94956E+01
  -7.66322E+01 -6.29783E+01 -6.07783E+01 -6.89112E+01 -6.51181E+01 -6.76786E+01 -6.45547E+01 -5.09828E+01 -8.21466E+01 -5.44654E+01
  -6.53272E+01 -8.57435E+01 -5.25890E+01 -5.61210E+01 -4.94553E+01 -7.23590E+01 -6.28279E+01 -5.55424E+01 -5.70745E+01 -5.46286E+01
  -6.64810E+01 -5.09331E+01 -6.31308E+01 -5.53732E+01 -6.41321E+01 -6.68322E+01 -5.39059E+01 -5.36876E+01 -4.36528E+01 -5.39740E+01
  -5.02724E+01 -5.63205E+01 -5.66216E+01 -4.58898E+01 -6.11846E+01 -7.15942E+01 -5.25388E+01 -5.12054E+01 -5.65963E+01 -5.28140E+01
  -5.21381E+01 -5.10525E+01 -6.24330E+01 -5.66153E+01 -6.68891E+01 -5.91082E+01 -6.27468E+01 -5.56607E+01 -3.55328E+01 -6.37709E+01
 NY points of the fit to the data follow
  -1.09095E+02 -1.12897E+02 -1.18054E+02 -1.19593E+02 -1.14301E+02 -9.09370E+01 -6.83836E+01 -7.53190E+01 -9.60608E+01 -1.09396E+02
  -1.15118E+02 -1.18296E+02 -1.16462E+02 -1.13191E+02 -1.13177E+02 -1.14832E+02 -1.21004E+02 -1.34607E+02 -1.48647E+02 -1.63338E+02
  -1.75380E+02 -1.30056E+02 -8.69990E+01 -8.36710E+01 -5.58898E+01 -3.65675E+01 -4.57649E+01 -4.39025E+01 -3.62073E+01 -3.34661E+01
  -3.52008E+01 -3.89193E+01 -4.10157E+01 -4.33440E+01 -4.81708E+01 -5.45465E+01 -6.21541E+01 -7.53979E+01 -9.59886E+01 -1.22201E+02
  -1.52003E+02 -1.45989E+02 -1.17155E+02 -9.99344E+01 -8.33164E+01 -5.88846E+01 -3.71263E+01 -3.02545E+01 -2.76109E+01 -2.47473E+01
  -2.93487E+01 -3.51924E+01 -4.21980E+01 -5.45854E+01 -6.55683E+01 -7.21378E+01 -7.29517E+01 -6.86919E+01 -8.42818E+01 -9.90773E+01
  -7.50563E+01 -6.03265E+01 -6.26914E+01 -4.02273E+01 -1.98229E+01 -2.10827E+01 -2.88411E+01 -4.35294E+01 -7.39867E+01 -1.06806E+02
  -1.00189E+02 -7.34031E+01 -7.01817E+01 -6.10892E+01 -3.43779E+01 -1.95224E+01 -1.73776E+01 -1.61124E+01 -1.54828E+01 -1.69338E+01
  -2.50904E+01 -4.43880E+01 -6.10501E+01 -8.53618E+01 -9.33730E+01 -8.20380E+01 -6.93293E+01 -4.80061E+01 -3.24329E+01 -2.76920E+01
  -2.25768E+01 -1.83117E+01 -1.41319E+01 -9.72585E+00 -5.21957E+00 -5.72131E-01  2.04933E+00  3.44047E+00  2.43717E+00 -4.97627E+00
  -3.87234E+00 -4.67979E-01 -2.17724E+01 -4.84094E+01 -5.73899E+01 -8.25964E+01 -9.21323E+01 -8.59214E+01 -1.02108E+02 -1.59081E+02
  -2.19481E+02 -2.03127E+02 -1.50337E+02 -1.26503E+02 -1.13050E+02 -1.01825E+02 -9.47739E+01 -8.78879E+01 -8.08925E+01 -7.40011E+01
  -6.76604E+01 -6.07270E+01 -5.28118E+01 -4.34919E+01 -3.23978E+01 -1.89334E+01 -2.04817E+00  1.91132E+01  4.98346E+01  7.59233E+01
   8.69223E+01  5.94856E+01 -8.76944E+01 -2.08997E+02 -1.83097E+02 -1.44957E+02 -1.41941E+02 -1.32727E+02 -1.27132E+02 -1.28882E+02
  -1.30606E+02 -1.31095E+02 -1.33080E+02 -1.32449E+02 -1.32291E+02 -1.33056E+02 -1.29703E+02 -1.25360E+02 -1.21986E+02 -1.18509E+02
  -1.15174E+02 -1.11968E+02 -1.09193E+02 -1.06514E+02 -1.02540E+02 -9.72474E+01 -9.46087E+01 -9.63909E+01 -9.81505E+01 -9.48344E+01
  -8.82011E+01 -8.28507E+01 -8.55409E+01 -9.52508E+01 -9.93869E+01 -9.62488E+01 -9.25059E+01 -9.11495E+01 -9.19744E+01 -8.92065E+01
  -7.75414E+01 -5.67247E+01 -4.12008E+01 -5.09550E+01 -7.07048E+01 -6.66772E+01 -4.61936E+01 -4.05306E+01 -5.81090E+01 -8.46270E+01
  -9.65545E+01 -9.66803E+01 -9.99954E+01 -1.03491E+02 -1.04367E+02 -1.04577E+02 -1.03611E+02 -1.02302E+02 -9.97277E+01 -9.74446E+01
  -9.51080E+01 -8.90712E+01 -8.60414E+01 -8.19163E+01 -6.39327E+01 -6.36767E+01 -7.70933E+01 -6.76558E+01 -6.12373E+01 -6.39515E+01
  -6.67575E+01 -6.88775E+01 -5.73627E+01 -5.28693E+01 -6.39079E+01 -7.53508E+01 -8.30128E+01 -9.07509E+01 -1.02494E+02 -1.11736E+02
  -1.14231E+02 -1.14329E+02 -9.90871E+01 -7.47859E+01 -5.56726E+01 -1.07135E+01  9.95475E+00 -1.46671E+00 -4.55955E+00 -2.56766E+01
  -4.88520E+01 -4.98389E+01 -4.78706E+01 -4.33749E+01 -3.75771E+01 -3.76792E+01 -4.02384E+01 -4.64512E+01 -5.77906E+01 -6.99601E+01
  -8.21206E+01 -9.53757E+01 -1.08308E+02 -1.17652E+02 -1.28213E+02 -1.38433E+02 -1.39890E+02 -1.41446E+02 -1.40432E+02 -1.29926E+02
  -1.24870E+02 -1.16622E+02 -1.02110E+02 -9.45866E+01 -8.37021E+01 -7.83922E+01 -8.26766E+01 -8.67232E+01 -9.69598E+01 -1.01652E+02
  -1.08396E+02 -1.17484E+02 -1.23139E+02 -1.38521E+02 -1.41967E+02 -1.64292E+02 -1.99144E+02 -2.67492E+01  1.69970E+02  1.49153E+02
   9.21419E+01  7.89853E+01  5.96503E+01  4.85006E+01  4.33912E+01  3.97221E+01  3.50610E+01  2.96466E+01  2.57193E+01  2.23436E+01
   2.11813E+01  2.13554E+01  2.25554E+01  2.48976E+01  2.56602E+01  2.67497E+01  2.65234E+01  2.48789E+01  2.40545E+01  2.29071E+01
   2.09644E+01  1.85313E+01  1.58734E+01  1.38666E+01  1.22939E+01  9.94939E+00  7.11360E+00  5.01174E+00  2.38667E+00 -8.09312E-01
  -4.37429E+00 -9.06709E+00 -1.32408E+01 -1.71557E+01 -2.11492E+01 -2.34776E+01 -2.34805E+01 -2.16337E+01 -1.83799E+01 -1.49649E+01
  -1.22030E+01 -9.37267E+00 -5.85745E+00 -2.66188E+00 -1.59848E-01  2.18004E+00  4.47831E+00  6.65612E+00  9.28821E+00  1.27823E+01
   1.57290E+01  1.76628E+01  1.92056E+01  2.06532E+01  2.24115E+01  2.37074E+01  2.37515E+01  2.34668E+01  2.27983E+01  2.04003E+01
   1.71996E+01  1.47930E+01  1.17801E+01  7.46217E+00  3.28303E+00 -1.49195E+00 -7.16901E+00 -1.50092E+01 -2.59108E+01 -3.69296E+01
  -4.57218E+01 -5.26159E+01 -5.75095E+01 -5.89160E+01 -5.67276E+01 -5.09408E+01 -4.25266E+01 -3.34059E+01 -2.37743E+01 -1.54134E+01
  -9.67316E+00 -9.38225E+00 -3.19986E+01 -5.82824E+01 -6.84473E+01 -7.87420E+01 -7.19397E+01 -5.09485E+01 -4.28282E+01 -4.05690E+01
  -3.81193E+01 -3.94042E+01 -4.22693E+01 -4.59195E+01 -5.11747E+01 -5.63097E+01 -5.86269E+01 -5.88802E+01 -5.78719E+01 -5.52299E+01
  -5.17352E+01 -4.77389E+01 -4.31999E+01 -3.87447E+01 -3.40034E+01 -3.01215E+01 -2.69062E+01 -2.34277E+01 -2.03365E+01 -1.68816E+01
  -1.31031E+01 -9.84037E+00 -6.63267E+00 -2.98013E+00  1.30049E+00  5.88506E+00  1.14745E+01  1.71341E+01  2.31131E+01  3.07352E+01
   3.88607E+01  4.62110E+01  5.41829E+01  6.35894E+01  7.25331E+01  7.94364E+01  8.35536E+01  8.29803E+01  7.70894E+01  6.53303E+01
   5.04868E+01  3.66644E+01  2.60930E+01  1.81937E+01  1.12261E+01  5.50379E+00 -6.61897E-01 -9.76206E+00 -2.07044E+01 -3.08286E+01
  -4.03061E+01 -4.87088E+01 -5.41889E+01 -5.72952E+01 -6.03020E+01 -6.24272E+01 -6.32785E+01 -6.37210E+01 -6.45001E+01 -6.55607E+01
  -6.64006E+01 -6.69282E+01 -6.68743E+01 -6.64049E+01 -6.62860E+01 -6.65923E+01 -6.62574E+01 -6.55067E+01 -6.55982E+01 -6.63012E+01
  -6.58913E+01 -6.44707E+01 -6.44760E+01 -6.50462E+01 -6.46220E+01 -6.40312E+01 -6.40213E+01 -6.41914E+01 -6.38944E+01 -6.30479E+01
  -6.21719E+01 -6.19483E+01 -6.22173E+01 -6.24406E+01 -6.23246E+01 -6.22809E+01 -6.15884E+01 -6.07733E+01 -6.05437E+01 -6.01105E+01
  -5.97767E+01 -5.96544E+01 -5.92710E+01 -5.88645E+01 -5.90515E+01 -5.91855E+01 -5.91979E+01 -5.89100E+01 -5.79768E+01 -5.76964E+01
  -5.75797E+01 -5.70901E+01 -5.73655E+01 -5.73458E+01 -5.64801E+01 -5.58387E+01 -5.56294E+01 -5.51946E+01 -5.50000E+01 -5.47363E+01
  -5.43454E+01 -5.38609E+01 -5.39419E+01 -5.42729E+01 -5.40720E+01 -5.38341E+01 -5.35851E+01 -5.28851E+01 -5.18342E+01 -5.07604E+01
  -5.05948E+01 -5.10688E+01 -5.15966E+01 -5.16387E+01 -5.10582E+01 -5.03444E+01 -5.00300E+01 -4.97505E+01 -4.91808E+01 -4.91812E+01
 NY background values follow
    -6.868E+01   -6.861E+01   -6.854E+01   -6.846E+01   -6.839E+01   -6.832E+01   -6.825E+01   -6.818E+01   -6.810E+01   -6.803E+01
    -6.796E+01   -6.789E+01   -6.781E+01   -6.774E+01   -6.767E+01   -6.760E+01   -6.753E+01   -6.745E+01   -6.738E+01   -6.731E+01
    -6.724E+01   -6.717E+01   -6.709E+01   -6.702E+01   -6.695E+01   -6.688E+01   -6.681E+01   -6.673E+01   -6.666E+01   -6.659E+01
    -6.652E+01   -6.645E+01   -6.637E+01   -6.630E+01   -6.623E+01   -6.616E+01   -6.609E+01   -6.602E+01   -6.594E+01   -6.587E+01
    -6.580E+01   -6.573E+01   -6.566E+01   -6.558E+01   -6.551E+01   -6.544E+01   -6.537E+01   -6.530E+01   -6.523E+01   -6.515E+01
    -6.508E+01   -6.501E+01   -6.494E+01   -6.487E+01   -6.480E+01   -6.472E+01   -6.465E+01   -6.458E+01   -6.451E+01   -6.444E+01
    -6.437E+01   -6.430E+01   -6.423E+01   -6.416E+01   -6.408E+01   -6.401E+01   -6.394E+01   -6.387E+01   -6.380E+01   -6.373E+01
    -6.366E+01   -6.359E+01   -6.352E+01   -6.345E+01   -6.338E+01   -6.331E+01   -6.324E+01   -6.317E+01   -6.310E+01   -6.303E+01
    -6.296E+01   -6.289E+01   -6.282E+01   -6.275E+01   -6.268E+01   -6.261E+01   -6.254E+01   -6.247E+01   -6.240E+01   -6.233E+01
    -6.226E+01   -6.219E+01   -6.212E+01   -6.205E+01   -6.198E+01   -6.192E+01   -6.185E+01   -6.178E+01   -6.171E+01   -6.164E+01
    -6.157E+01   -6.151E+01   -6.144E+01   -6.137E+01   -6.130E+01   -6.123E+01   -6.117E+01   -6.110E+01   -6.103E+01   -6.096E+01
    -6.090E+01   -6.083E+01   -6.076E+01   -6.070E+01   -6.063E+01   -6.056E+01   -6.050E+01   -6.043E+01   -6.036E+01   -6.030E+01
    -6.023E+01   -6.017E+01   -6.010E+01   -6.003E+01   -5.997E+01   -5.990E+01   -5.984E+01   -5.977E+01   -5.971E+01   -5.964E+01
    -5.958E+01   -5.951E+01   -5.945E+01   -5.939E+01   -5.932E+01   -5.926E+01   -5.919E+01   -5.913E+01   -5.907E+01   -5.900E+01
    -5.894E+01   -5.888E+01   -5.881E+01   -5.875E+01   -5.869E+01   -5.863E+01   -5.856E+01   -5.850E+01   -5.844E+01   -5.838E+01
    -5.832E+01   -5.825E+01   -5.819E+01   -5.813E+01   -5.807E+01   -5.801E+01   -5.795E+01   -5.789E+01   -5.783E+01   -5.777E+01
    -5.771E+01   -5.765E+01   -5.759E+01   -5.753E+01   -5.747E+01   -5.741E+01   -5.735E+01   -5.729E+01   -5.724E+01   -5.718E+01
    -5.712E+01   -5.706E+01   -5.700E+01   -5.695E+01   -5.689E+01   -5.683E+01   -5.677E+01   -5.672E+01   -5.666E+01   -5.660E+01
    -5.655E+01   -5.649E+01   -5.644E+01   -5.638E+01   -5.632E+01   -5.627E+01   -5.621E+01   -5.616E+01   -5.610E+01   -5.605E+01
    -5.600E+01   -5.594E+01   -5.589E+01   -5.583E+01   -5.578E+01   -5.573E+01   -5.567E+01   -5.562E+01   -5.557E+01   -5.552E+01
    -5.546E+01   -5.541E+01   -5.536E+01   -5.531E+01   -5.526E+01   -5.521E+01   -5.515E+01   -5.510E+01   -5.505E+01   -5.500E+01
    -5.495E+01   -5.490E+01   -5.485E+01   -5.480E+01   -5.475E+01   -5.470E+01   -5.466E+01   -5.461E+01   -5.456E+01   -5.451E+01
    -5.446E+01   -5.441E+01   -5.437E+01   -5.432E+01   -5.427E+01   -5.422E+01   -5.418E+01   -5.413E+01   -5.408E+01   -5.404E+01
    -5.399E+01   -5.395E+01   -5.390E+01   -5.385E+01   -5.381E+01   -5.376E+01   -5.372E+01   -5.368E+01   -5.363E+01   -5.359E+01
    -5.354E+01   -5.350E+01   -5.346E+01   -5.341E+01   -5.337E+01   -5.333E+01   -5.329E+01   -5.324E+01   -5.320E+01   -5.316E+01
    -5.312E+01   -5.308E+01   -5.303E+01   -5.299E+01   -5.295E+01   -5.291E+01   -5.287E+01   -5.283E+01   -5.279E+01   -5.275E+01
    -5.271E+01   -5.267E+01   -5.263E+01   -5.260E+01   -5.256E+01   -5.252E+01   -5.248E+01   -5.244E+01   -5.240E+01   -5.237E+01
    -5.233E+01   -5.229E+01   -5.226E+01   -5.222E+01   -5.218E+01   -5.215E+01   -5.211E+01   -5.207E+01   -5.204E+01   -5.200E+01
    -5.197E+01   -5.193E+01   -5.190E+01   -5.186E+01   -5.183E+01   -5.179E+01   -5.176E+01   -5.173E+01   -5.169E+01   -5.166E+01
    -5.163E+01   -5.159E+01   -5.156E+01   -5.153E+01   -5.150E+01   -5.146E+01   -5.143E+01   -5.140E+01   -5.137E+01   -5.134E+01
    -5.130E+01   -5.127E+01   -5.124E+01   -5.121E+01   -5.118E+01   -5.115E+01   -5.112E+01   -5.109E+01   -5.106E+01   -5.103E+01
    -5.100E+01   -5.097E+01   -5.094E+01   -5.091E+01   -5.089E+01   -5.086E+01   -5.083E+01   -5.080E+01   -5.077E+01   -5.074E+01
    -5.072E+01   -5.069E+01   -5.066E+01   -5.063E+01   -5.061E+01   -5.058E+01   -5.055E+01   -5.053E+01   -5.050E+01   -5.047E+01
    -5.045E+01   -5.042E+01   -5.039E+01   -5.037E+01   -5.034E+01   -5.032E+01   -5.029E+01   -5.027E+01   -5.024E+01   -5.022E+01
    -5.019E+01   -5.017E+01   -5.014E+01   -5.012E+01   -5.009E+01   -5.007E+01   -5.005E+01   -5.002E+01   -5.000E+01   -4.998E+01
    -4.995E+01   -4.993E+01   -4.991E+01   -4.988E+01   -4.986E+01   -4.984E+01   -4.981E+01   -4.979E+01   -4.977E+01   -4.974E+01
    -4.972E+01   -4.970E+01   -4.968E+01   -4.965E+01   -4.963E+01   -4.961E+01   -4.959E+01   -4.957E+01   -4.954E+01   -4.952E+01
    -4.950E+01   -4.948E+01   -4.946E+01   -4.944E+01   -4.941E+01   -4.939E+01   -4.937E+01   -4.935E+01   -4.933E+01   -4.931E+01
    -4.929E+01   -4.927E+01   -4.925E+01   -4.922E+01   -4.920E+01   -4.918E+01   -4.916E+01   -4.914E+01   -4.912E+01   -4.910E+01
    -4.908E+01   -4.906E+01   -4.904E+01   -4.902E+01   -4.900E+01   -4.898E+01   -4.896E+01   -4.894E+01   -4.892E+01   -4.890E+01
    -4.888E+01   -4.886E+01   -4.884E+01   -4.882E+01   -4.880E+01   -4.878E+01   -4.876E+01   -4.874E+01   -4.872E+01   -4.870E+01
    -4.868E+01   -4.866E+01   -4.864E+01   -4.862E+01   -4.860E+01   -4.858E+01   -4.856E+01   -4.854E+01   -4.852E+01   -4.850E+01
    -4.848E+01   -4.846E+01   -4.844E+01   -4.842E+01   -4.840E+01   -4.838E+01   -4.836E+01   -4.834E+01   -4.832E+01   -4.830E+01
    -4.828E+01   -4.826E+01   -4.824E+01   -4.823E+01   -4.821E+01   -4.819E+01   -4.817E+01   -4.815E+01   -4.813E+01   -4.811E+01
    -4.809E+01   -4.807E+01   -4.805E+01   -4.803E+01   -4.801E+01   -4.799E+01   -4.797E+01   -4.796E+01   -4.794E+01   -4.792E+01
    -4.790E+01   -4.788E+01   -4.786E+01   -4.784E+01   -4.782E+01   -4.780E+01   -4.778E+01   -4.776E+01   -4.774E+01   -4.772E+01
    -4.770E+01   -4.769E+01   -4.767E+01   -4.765E+01   -4.763E+01   -4.761E+01   -4.759E+01   -4.757E+01   -4.755E+01   -4.753E+01
    -4.751E+01   -4.749E+01   -4.747E+01   -4.746E+01   -4.744E+01   -4.742E+01   -4.740E+01   -4.738E+01   -4.736E+01   -4.734E+01
 Mac      Conc. = 3.06E-04
  -9.06830E+01 -9.14349E+01 -9.13597E+01 -9.13473E+01 -9.16818E+01 -9.23178E+01 -9.36374E+01 -9.58956E+01 -9.82909E+01 -1.00118E+02
  -1.01053E+02 -1.00926E+02 -1.00521E+02 -1.00473E+02 -1.01023E+02 -1.02898E+02 -1.05531E+02 -1.06684E+02 -1.03203E+02 -9.48006E+01
  -8.87901E+01 -8.62991E+01 -8.21458E+01 -7.86767E+01 -7.81444E+01 -7.80945E+01 -7.67804E+01 -7.48339E+01 -7.27732E+01 -7.01062E+01
  -6.78197E+01 -6.68513E+01 -6.61036E+01 -6.51438E+01 -6.51571E+01 -6.61026E+01 -6.66893E+01 -6.54382E+01 -6.19535E+01 -5.81253E+01
  -5.65474E+01 -5.78157E+01 -5.90309E+01 -5.81758E+01 -5.63514E+01 -5.41727E+01 -5.30763E+01 -5.35684E+01 -5.46503E+01 -5.60613E+01
  -5.78141E+01 -5.95458E+01 -6.04202E+01 -6.10520E+01 -6.16386E+01 -6.15345E+01 -6.13479E+01 -6.06586E+01 -5.86122E+01 -5.64252E+01
  -5.54823E+01 -5.41191E+01 -5.19878E+01 -5.19703E+01 -5.33636E+01 -5.46427E+01 -5.59866E+01 -5.64583E+01 -5.64255E+01 -5.67629E+01
  -5.68762E+01 -5.48354E+01 -5.02915E+01 -4.68333E+01 -4.58365E+01 -4.52555E+01 -4.57171E+01 -4.66965E+01 -4.77710E+01 -4.91703E+01
  -4.96120E+01 -4.96520E+01 -5.00211E+01 -5.00184E+01 -4.90259E+01 -4.74989E+01 -4.66121E+01 -4.59087E+01 -4.47453E+01 -4.40199E+01
  -4.38082E+01 -4.32366E+01 -4.28163E+01 -4.28641E+01 -4.31333E+01 -4.40822E+01 -4.66985E+01 -4.99437E+01 -5.28814E+01 -5.56525E+01
  -5.77834E+01 -5.90273E+01 -6.11083E+01 -6.46086E+01 -6.85886E+01 -7.38761E+01 -8.11408E+01 -8.97971E+01 -9.67785E+01 -9.89439E+01
