 
 $NMID
 ID=''
 FMTDAT='(2E13.5)'
 TRAMP=   1.00000E+0
 VOLUME=   1.00000E+0
 $END
  -2.17317E+5   7.18426E+5
  -1.24016E+6   1.64767E+6
  -1.00899E+6   1.73776E+6
  -1.04075E+6   1.53552E+6
  -1.16786E+6   1.57494E+6
  -1.08774E+6   1.62024E+6
  -1.06731E+6   1.53616E+6
  -1.14172E+6   1.52726E+6
  -1.12895E+6   1.52936E+6
  -1.13929E+6   1.47476E+6
  -1.17898E+6   1.45476E+6
  -1.17634E+6   1.42894E+6
  -1.19359E+6   1.38719E+6
  -1.22231E+6   1.37202E+6
  -1.22482E+6   1.33512E+6
  -1.24181E+6   1.29214E+6
  -1.26285E+6   1.28292E+6
  -1.26608E+6   1.25486E+6
  -1.28315E+6   1.21733E+6
  -1.29223E+6   1.20899E+6
  -1.29063E+6   1.18407E+6
  -1.30604E+6   1.15057E+6
  -1.31922E+6   1.13360E+6
  -1.32220E+6   1.10680E+6
  -1.33500E+6   1.07317E+6
  -1.33939E+6   1.05781E+6
  -1.34597E+6   1.02917E+6
  -1.36176E+6   9.94451E+5
  -1.36840E+6   9.67586E+5
  -1.36856E+6   9.42958E+5
  -1.38082E+6   9.15875E+5
  -1.38355E+6   8.94489E+5
  -1.38318E+6   8.69315E+5
  -1.38923E+6   8.47190E+5
  -1.38867E+6   8.28739E+5
  -1.38570E+6   8.11849E+5
  -1.39113E+6   7.95933E+5
  -1.39478E+6   7.75686E+5
  -1.39231E+6   7.50477E+5
  -1.39335E+6   7.29886E+5
  -1.39406E+6   7.07929E+5
  -1.39289E+6   6.82561E+5
  -1.39055E+6   6.61376E+5
  -1.38954E+6   6.40994E+5
  -1.38940E+6   6.15786E+5
  -1.39067E+6   5.92966E+5
  -1.38917E+6   5.71540E+5
  -1.38680E+6   5.46818E+5
  -1.38247E+6   5.24665E+5
  -1.37835E+6   5.06382E+5
  -1.37546E+6   4.87144E+5
  -1.37326E+6   4.67545E+5
  -1.36965E+6   4.49444E+5
  -1.36625E+6   4.30098E+5
  -1.36229E+6   4.09249E+5
  -1.35812E+6   3.88258E+5
  -1.35298E+6   3.66739E+5
  -1.34604E+6   3.45196E+5
  -1.33868E+6   3.26063E+5
  -1.33382E+6   3.07342E+5
  -1.32885E+6   2.86639E+5
  -1.32243E+6   2.66773E+5
  -1.31627E+6   2.47395E+5
  -1.30957E+6   2.27542E+5
  -1.30060E+6   2.07857E+5
  -1.29093E+6   1.90278E+5
  -1.28214E+6   1.73242E+5
  -1.27372E+6   1.56276E+5
  -1.26648E+6   1.38965E+5
  -1.25944E+6   1.20208E+5
  -1.25020E+6   1.01250E+5
  -1.23989E+6   8.39263E+4
  -1.23118E+6   6.77686E+4
  -1.22337E+6   4.99787E+4
  -1.21313E+6   3.22008E+4
  -1.20223E+6   1.55560E+4
  -1.19274E+6  -4.82893E+2
  -1.18329E+6  -1.62156E+4
  -1.17263E+6  -3.28438E+4
  -1.16135E+6  -4.91663E+4
  -1.15071E+6  -6.46963E+4
  -1.13958E+6  -7.92667E+4
  -1.12882E+6  -9.44516E+4
  -1.11764E+6  -1.10802E+5
  -1.10564E+6  -1.26855E+5
  -1.09356E+6  -1.41726E+5
  -1.08218E+6  -1.55718E+5
  -1.07085E+6  -1.70683E+5
  -1.05866E+6  -1.85159E+5
  -1.04609E+6  -1.97920E+5
  -1.03423E+6  -2.09834E+5
  -1.02303E+6  -2.21953E+5
  -1.01140E+6  -2.34976E+5
  -9.98532E+5  -2.46503E+5
  -9.85246E+5  -2.56693E+5
  -9.73837E+5  -2.65931E+5
  -9.62469E+5  -2.76284E+5
  -9.51265E+5  -2.86910E+5
  -9.39207E+5  -2.96941E+5
  -9.27249E+5  -3.06114E+5
  -9.16430E+5  -3.15794E+5
  -9.04284E+5  -3.26272E+5
  -8.90535E+5  -3.35834E+5
  -8.77534E+5  -3.44363E+5
  -8.65436E+5  -3.51682E+5
  -8.54532E+5  -3.59307E+5
  -8.43179E+5  -3.67252E+5
  -8.30468E+5  -3.75604E+5
  -8.17233E+5  -3.82293E+5
  -8.05368E+5  -3.87347E+5
  -7.94799E+5  -3.93027E+5
  -7.83752E+5  -4.00642E+5
  -7.71469E+5  -4.08242E+5
  -7.58823E+5  -4.14382E+5
  -7.46670E+5  -4.20458E+5
  -7.34946E+5  -4.26924E+5
  -7.22331E+5  -4.33422E+5
  -7.08879E+5  -4.38470E+5
  -6.96446E+5  -4.42357E+5
  -6.85378E+5  -4.46193E+5
  -6.74671E+5  -4.50885E+5
  -6.62836E+5  -4.55618E+5
  -6.51595E+5  -4.59725E+5
  -6.40110E+5  -4.64211E+5
  -6.28065E+5  -4.68165E+5
  -6.15665E+5  -4.71341E+5
  -6.03350E+5  -4.74260E+5
  -5.91762E+5  -4.77655E+5
  -5.80138E+5  -4.81170E+5
  -5.68118E+5  -4.85121E+5
  -5.55588E+5  -4.89435E+5
  -5.42280E+5  -4.93048E+5
  -5.29798E+5  -4.95500E+5
  -5.18111E+5  -4.97919E+5
  -5.06064E+5  -5.00976E+5
  -4.93487E+5  -5.03271E+5
  -4.81571E+5  -5.04838E+5
  -4.70514E+5  -5.06615E+5
  -4.58978E+5  -5.09067E+5
  -4.46836E+5  -5.11469E+5
  -4.34385E+5  -5.12285E+5
  -4.22957E+5  -5.12666E+5
  -4.12112E+5  -5.13424E+5
  -4.01469E+5  -5.14873E+5
  -3.89811E+5  -5.16611E+5
  -3.77754E+5  -5.17123E+5
  -3.65932E+5  -5.17177E+5
  -3.54412E+5  -5.17698E+5
  -3.43148E+5  -5.17631E+5
  -3.32424E+5  -5.17517E+5
  -3.21689E+5  -5.16780E+5
  -3.11365E+5  -5.16523E+5
  -3.01533E+5  -5.16134E+5
  -2.91611E+5  -5.15956E+5
  -2.81268E+5  -5.15125E+5
  -2.71143E+5  -5.13804E+5
  -2.61879E+5  -5.12385E+5
  -2.52603E+5  -5.11730E+5
  -2.42985E+5  -5.10063E+5
  -2.33622E+5  -5.08555E+5
  -2.24699E+5  -5.07264E+5
  -2.15222E+5  -5.05692E+5
  -2.06241E+5  -5.03711E+5
  -1.96884E+5  -5.01473E+5
  -1.88511E+5  -4.98945E+5
  -1.80823E+5  -4.96875E+5
  -1.72412E+5  -4.95380E+5
  -1.64238E+5  -4.93817E+5
  -1.55740E+5  -4.91066E+5
  -1.48009E+5  -4.88490E+5
  -1.40882E+5  -4.86061E+5
  -1.33275E+5  -4.83860E+5
  -1.25965E+5  -4.81276E+5
  -1.18224E+5  -4.78233E+5
  -1.10982E+5  -4.75496E+5
  -1.04107E+5  -4.72830E+5
  -9.68075E+4  -4.70276E+5
  -8.92204E+4  -4.67240E+5
  -8.19149E+4  -4.63773E+5
  -7.58370E+4  -4.60657E+5
  -6.89975E+4  -4.57916E+5
  -6.24787E+4  -4.55273E+5
  -5.55152E+4  -4.51745E+5
  -4.91223E+4  -4.48201E+5
  -4.28041E+4  -4.44999E+5
  -3.69703E+4  -4.41399E+5
  -3.09689E+4  -4.37704E+5
  -2.50459E+4  -4.33689E+5
  -1.98943E+4  -4.30081E+5
  -1.48541E+4  -4.26905E+5
  -8.78259E+3  -4.23991E+5
  -2.34876E+3  -4.20131E+5
   4.00627E+3  -4.16134E+5
   9.11938E+3  -4.11875E+5
   1.47400E+4  -4.08012E+5
   1.98403E+4  -4.04215E+5
   2.56357E+4  -4.00239E+5
   3.08923E+4  -3.96020E+5
   3.65820E+4  -3.92089E+5
   4.19682E+4  -3.87849E+5
   4.74873E+4  -3.83582E+5
   5.23639E+4  -3.78942E+5
   5.70975E+4  -3.74044E+5
   6.16589E+4  -3.70221E+5
   6.64932E+4  -3.66047E+5
   7.14789E+4  -3.61812E+5
   7.60841E+4  -3.57107E+5
   8.05691E+4  -3.52281E+5
   8.46682E+4  -3.48066E+5
   8.92748E+4  -3.43277E+5
   9.38527E+4  -3.38309E+5
   9.79261E+4  -3.33234E+5
   1.01678E+5  -3.29546E+5
   1.05712E+5  -3.25323E+5
   1.10315E+5  -3.20129E+5
   1.14265E+5  -3.14873E+5
   1.17485E+5  -3.09804E+5
   1.20373E+5  -3.05173E+5
   1.23695E+5  -3.00754E+5
   1.27158E+5  -2.96164E+5
   1.30261E+5  -2.91550E+5
   1.32992E+5  -2.86723E+5
   1.36021E+5  -2.82343E+5
   1.38964E+5  -2.77710E+5
   1.41625E+5  -2.72637E+5
   1.43946E+5  -2.67989E+5
   1.45759E+5  -2.63499E+5
   1.48118E+5  -2.59540E+5
   1.50877E+5  -2.55212E+5
   1.53177E+5  -2.50518E+5
   1.55218E+5  -2.45575E+5
   1.56494E+5  -2.41341E+5
   1.58217E+5  -2.37128E+5
   1.60311E+5  -2.33095E+5
   1.61454E+5  -2.28809E+5
   1.62740E+5  -2.24785E+5
   1.64230E+5  -2.21001E+5
   1.65628E+5  -2.16966E+5
   1.66930E+5  -2.12538E+5
   1.67663E+5  -2.08761E+5
   1.68601E+5  -2.04690E+5
   1.69293E+5  -2.01189E+5
   1.70480E+5  -1.97442E+5
   1.71224E+5  -1.93417E+5
   1.71884E+5  -1.89433E+5
   1.72669E+5  -1.86025E+5
   1.73264E+5  -1.82393E+5
   1.74169E+5  -1.78659E+5
   1.74328E+5  -1.74533E+5
   1.74421E+5  -1.71324E+5
   1.74752E+5  -1.68475E+5
   1.75572E+5  -1.65059E+5
   1.76030E+5  -1.60811E+5
   1.76103E+5  -1.57288E+5
   1.75930E+5  -1.54194E+5
   1.76064E+5  -1.51168E+5
   1.76340E+5  -1.47802E+5
   1.76588E+5  -1.44359E+5
   1.76742E+5  -1.40526E+5
   1.76900E+5  -1.37651E+5
   1.77152E+5  -1.33910E+5
   1.77533E+5  -1.30331E+5
   1.77143E+5  -1.26723E+5
   1.76648E+5  -1.23535E+5
   1.76366E+5  -1.20864E+5
   1.76811E+5  -1.17761E+5
   1.76645E+5  -1.14393E+5
   1.76236E+5  -1.11045E+5
   1.75801E+5  -1.07926E+5
   1.75188E+5  -1.04774E+5
   1.75142E+5  -1.01906E+5
   1.74761E+5  -9.88569E+4
   1.74070E+5  -9.58081E+4
   1.73761E+5  -9.29794E+4
   1.73737E+5  -9.02609E+4
   1.73173E+5  -8.68447E+4
   1.72419E+5  -8.34462E+4
   1.71637E+5  -8.03106E+4
   1.71059E+5  -7.80202E+4
   1.70729E+5  -7.52893E+4
   1.70165E+5  -7.23533E+4
   1.69290E+5  -6.94954E+4
   1.68622E+5  -6.69867E+4
   1.67766E+5  -6.44747E+4
   1.67000E+5  -6.14485E+4
   1.66181E+5  -5.85456E+4
   1.65079E+5  -5.61815E+4
   1.63882E+5  -5.42120E+4
   1.63219E+5  -5.22637E+4
   1.62785E+5  -4.95627E+4
   1.61686E+5  -4.70972E+4
   1.60436E+5  -4.45364E+4
   1.59090E+5  -4.25572E+4
   1.58339E+5  -4.01114E+4
   1.57396E+5  -3.79133E+4
   1.56148E+5  -3.56944E+4
   1.55044E+5  -3.38880E+4
   1.54054E+5  -3.18926E+4
   1.52981E+5  -2.94143E+4
   1.51871E+5  -2.73618E+4
   1.50477E+5  -2.54759E+4
   1.49201E+5  -2.39093E+4
   1.48418E+5  -2.21921E+4
   1.47464E+5  -2.04002E+4
   1.46241E+5  -1.81275E+4
   1.44453E+5  -1.64699E+4
   1.43271E+5  -1.48888E+4
   1.42233E+5  -1.32542E+4
   1.40860E+5  -1.14560E+4
   1.39610E+5  -9.88479E+3
   1.38321E+5  -8.43472E+3
   1.36805E+5  -7.01000E+3
   1.35888E+5  -5.50093E+3
   1.34569E+5  -3.58705E+3
   1.33084E+5  -2.56515E+3
   1.31939E+5  -1.03164E+3
   1.30416E+5   4.37259E+2
   1.29236E+5   1.53844E+3
   1.28000E+5   3.09013E+3
   1.26376E+5   4.35705E+3
   1.24971E+5   5.45742E+3
   1.23955E+5   6.48982E+3
   1.22581E+5   7.93006E+3
   1.21070E+5   9.30027E+3
   1.19448E+5   1.01320E+4
   1.18521E+5   1.10299E+4
   1.17343E+5   1.22884E+4
   1.16042E+5   1.35319E+4
   1.14261E+5   1.47830E+4
   1.12828E+5   1.55591E+4
   1.11504E+5   1.66859E+4
   1.10174E+5   1.72864E+4
   1.08663E+5   1.85030E+4
   1.07128E+5   1.92223E+4
   1.06070E+5   2.00487E+4
   1.04848E+5   2.10716E+4
   1.03651E+5   2.21842E+4
   1.02025E+5   2.31020E+4
   1.00233E+5   2.35963E+4
   9.88795E+4   2.41090E+4
   9.78222E+4   2.47955E+4
   9.64157E+4   2.59518E+4
   9.49425E+4   2.68905E+4
   9.33461E+4   2.73018E+4
   9.22187E+4   2.81911E+4
   9.08766E+4   2.88325E+4
   8.93598E+4   2.92696E+4
   8.79772E+4   2.98086E+4
   8.66615E+4   3.04292E+4
   8.57582E+4   3.08450E+4
   8.43928E+4   3.17440E+4
   8.28484E+4   3.21658E+4
   8.13485E+4   3.28252E+4
   8.01835E+4   3.30217E+4
   7.89563E+4   3.35852E+4
   7.74695E+4   3.42244E+4
   7.61254E+4   3.43999E+4
   7.51148E+4   3.47607E+4
   7.39486E+4   3.52076E+4
   7.25622E+4   3.57749E+4
   7.12108E+4   3.62754E+4
   6.99630E+4   3.65123E+4
   6.86651E+4   3.61354E+4
   6.75295E+4   3.69656E+4
   6.64411E+4   3.71016E+4
   6.55246E+4   3.76401E+4
   6.41190E+4   3.79599E+4
