 
 $NMID
 ID=''
 FMTDAT='(2E13.5)'
 TRAMP=   1.00000E+0
 VOLUME=   1.00000E+0
 $END
  -5.88095E+5   1.21786E+5
  -1.55793E+6  -1.89697E+5
  -1.48580E+6   2.05590E+4
  -1.33009E+6  -1.15350E+5
  -1.39265E+6  -2.63230E+5
  -1.40950E+6  -2.74542E+5
  -1.38460E+6  -3.03790E+5
  -1.40172E+6  -3.08308E+5
  -1.33703E+6  -2.95765E+5
  -1.27432E+6  -3.76605E+5
  -1.29595E+6  -4.40297E+5
  -1.29710E+6  -4.42675E+5
  -1.27541E+6  -4.59224E+5
  -1.25749E+6  -4.63798E+5
  -1.20709E+6  -4.73257E+5
  -1.17875E+6  -5.22403E+5
  -1.19040E+6  -5.57237E+5
  -1.16810E+6  -5.69640E+5
  -1.13436E+6  -5.96308E+5
  -1.11420E+6  -6.18992E+5
  -1.07716E+6  -6.46066E+5
  -1.05104E+6  -6.84071E+5
  -1.04219E+6  -7.01750E+5
  -1.01492E+6  -7.14935E+5
  -9.81811E+5  -7.39193E+5
  -9.62997E+5  -7.48984E+5
  -9.40137E+5  -7.62179E+5
  -9.20750E+5  -7.81752E+5
  -9.00338E+5  -7.89325E+5
  -8.74983E+5  -7.94943E+5
  -8.51778E+5  -8.15454E+5
  -8.28891E+5  -8.29107E+5
  -7.99613E+5  -8.42034E+5
  -7.75321E+5  -8.55850E+5
  -7.52010E+5  -8.65077E+5
  -7.24744E+5  -8.77320E+5
  -6.99821E+5  -8.93759E+5
  -6.74232E+5  -9.03101E+5
  -6.47447E+5  -9.08439E+5
  -6.25589E+5  -9.16292E+5
  -6.02576E+5  -9.20892E+5
  -5.79031E+5  -9.24448E+5
  -5.59526E+5  -9.26430E+5
  -5.38982E+5  -9.28280E+5
  -5.15904E+5  -9.29856E+5
  -4.95333E+5  -9.33511E+5
  -4.72849E+5  -9.36622E+5
  -4.47023E+5  -9.38696E+5
  -4.22261E+5  -9.37660E+5
  -3.98665E+5  -9.37062E+5
  -3.73612E+5  -9.38802E+5
  -3.49183E+5  -9.39772E+5
  -3.26347E+5  -9.39350E+5
  -3.04263E+5  -9.37835E+5
  -2.81497E+5  -9.34585E+5
  -2.57583E+5  -9.30380E+5
  -2.34459E+5  -9.26988E+5
  -2.13887E+5  -9.22678E+5
  -1.95403E+5  -9.16947E+5
  -1.75378E+5  -9.11283E+5
  -1.54114E+5  -9.04978E+5
  -1.32507E+5  -8.98816E+5
  -1.11294E+5  -8.92993E+5
  -9.01927E+4  -8.86618E+5
  -6.97312E+4  -8.77437E+5
  -5.02160E+4  -8.67692E+5
  -2.96419E+4  -8.57973E+5
  -9.44820E+3  -8.48625E+5
   9.56360E+3  -8.40753E+5
   2.88039E+4  -8.31313E+5
   4.73954E+4  -8.20013E+5
   6.42229E+4  -8.08214E+5
   8.06201E+4  -7.97802E+5
   9.88346E+4  -7.87662E+5
   1.16388E+5  -7.75237E+5
   1.32433E+5  -7.62646E+5
   1.48405E+5  -7.50689E+5
   1.65196E+5  -7.37996E+5
   1.82141E+5  -7.23791E+5
   1.97989E+5  -7.09598E+5
   2.13699E+5  -6.95487E+5
   2.28507E+5  -6.81420E+5
   2.42922E+5  -6.67217E+5
   2.57630E+5  -6.52508E+5
   2.70935E+5  -6.37074E+5
   2.83394E+5  -6.21741E+5
   2.95592E+5  -6.07066E+5
   3.07250E+5  -5.92511E+5
   3.18164E+5  -5.77312E+5
   3.27375E+5  -5.62053E+5
   3.37076E+5  -5.47296E+5
   3.47482E+5  -5.32021E+5
   3.57496E+5  -5.15997E+5
   3.66642E+5  -4.99507E+5
   3.74680E+5  -4.83603E+5
   3.82650E+5  -4.67683E+5
   3.91279E+5  -4.51964E+5
   3.99401E+5  -4.35812E+5
   4.06896E+5  -4.19616E+5
   4.13258E+5  -4.03963E+5
   4.19431E+5  -3.88670E+5
   4.25795E+5  -3.72673E+5
   4.30516E+5  -3.56121E+5
   4.34596E+5  -3.40520E+5
   4.38678E+5  -3.26273E+5
   4.42760E+5  -3.12439E+5
   4.47266E+5  -2.97361E+5
   4.50784E+5  -2.81172E+5
   4.52639E+5  -2.65978E+5
   4.54785E+5  -2.52177E+5
   4.57680E+5  -2.38600E+5
   4.60526E+5  -2.23646E+5
   4.62392E+5  -2.08069E+5
   4.63679E+5  -1.93457E+5
   4.64513E+5  -1.79231E+5
   4.66089E+5  -1.64799E+5
   4.66767E+5  -1.50434E+5
   4.66196E+5  -1.36256E+5
   4.64807E+5  -1.23338E+5
   4.63987E+5  -1.10319E+5
   4.63453E+5  -9.72131E+4
   4.62910E+5  -8.42965E+4
   4.61566E+5  -7.15788E+4
   4.59853E+5  -5.89346E+4
   4.57516E+5  -4.60285E+4
   4.54602E+5  -3.37080E+4
   4.51566E+5  -2.16759E+4
   4.48642E+5  -9.42977E+3
   4.45462E+5   1.90965E+3
   4.42203E+5   1.42178E+4
   4.38211E+5   2.64572E+4
   4.33774E+5   3.86619E+4
   4.29025E+5   4.97894E+4
   4.24762E+5   6.00690E+4
   4.19559E+5   7.12113E+4
   4.13989E+5   8.20513E+4
   4.08538E+5   9.20094E+4
   4.03492E+5   1.01921E+5
   3.97960E+5   1.12065E+5
   3.91682E+5   1.22429E+5
   3.84828E+5   1.31718E+5
   3.78307E+5   1.40260E+5
   3.72283E+5   1.48339E+5
   3.66171E+5   1.57518E+5
   3.59186E+5   1.66190E+5
   3.51518E+5   1.74056E+5
   3.44111E+5   1.81277E+5
   3.36754E+5   1.88565E+5
   3.29427E+5   1.96007E+5
   3.21670E+5   2.02275E+5
   3.14278E+5   2.08406E+5
   3.07085E+5   2.14403E+5
   2.99528E+5   2.20269E+5
   2.91810E+5   2.26319E+5
   2.84056E+5   2.31731E+5
   2.76050E+5   2.36274E+5
   2.68708E+5   2.41023E+5
   2.60999E+5   2.45620E+5
   2.53227E+5   2.50067E+5
   2.45143E+5   2.53769E+5
   2.37551E+5   2.57711E+5
   2.29682E+5   2.61122E+5
   2.21722E+5   2.64157E+5
   2.13874E+5   2.67159E+5
   2.06381E+5   2.69306E+5
   1.98972E+5   2.71875E+5
   1.91909E+5   2.74385E+5
   1.84117E+5   2.76843E+5
   1.76405E+5   2.78516E+5
   1.69316E+5   2.79525E+5
   1.62021E+5   2.81085E+5
   1.54480E+5   2.82369E+5
   1.47574E+5   2.83526E+5
   1.40271E+5   2.84076E+5
   1.33116E+5   2.84803E+5
   1.26052E+5   2.85292E+5
   1.18841E+5   2.86178E+5
   1.11462E+5   2.86206E+5
   1.04588E+5   2.85647E+5
   9.78033E+4   2.85306E+5
   9.12303E+4   2.85086E+5
   8.40590E+4   2.85086E+5
   7.74287E+4   2.84385E+5
   7.06078E+4   2.83559E+5
   6.43922E+4   2.82184E+5
   5.79088E+4   2.81099E+5
   5.15457E+4   2.79518E+5
   4.56549E+4   2.78029E+5
   4.03020E+4   2.76325E+5
   3.44483E+4   2.75139E+5
   2.79891E+4   2.73927E+5
   2.16125E+4   2.71900E+5
   1.55544E+4   2.69104E+5
   1.02100E+4   2.66614E+5
   4.71021E+3   2.64672E+5
  -8.85236E+2   2.62498E+5
  -6.66056E+3   2.60038E+5
  -1.18459E+4   2.57257E+5
  -1.73481E+4   2.54593E+5
  -2.26123E+4   2.51888E+5
  -2.81365E+4   2.48650E+5
  -3.29794E+4   2.45017E+5
  -3.75578E+4   2.41740E+5
  -4.19930E+4   2.38813E+5
  -4.67007E+4   2.35642E+5
  -5.14073E+4   2.32315E+5
  -5.58536E+4   2.28421E+5
  -6.00917E+4   2.24819E+5
  -6.41638E+4   2.21275E+5
  -6.86875E+4   2.17326E+5
  -7.25978E+4   2.13534E+5
  -7.61528E+4   2.09291E+5
  -7.95662E+4   2.06037E+5
  -8.34039E+4   2.02179E+5
  -8.73216E+4   1.97693E+5
  -9.03769E+4   1.92970E+5
  -9.29627E+4   1.89144E+5
  -9.58404E+4   1.85025E+5
  -9.86104E+4   1.81275E+5
  -1.01248E+5   1.76889E+5
  -1.03582E+5   1.72577E+5
  -1.05687E+5   1.68890E+5
  -1.08210E+5   1.64660E+5
  -1.10689E+5   1.60375E+5
  -1.12117E+5   1.55635E+5
  -1.13843E+5   1.51363E+5
  -1.15336E+5   1.47403E+5
  -1.16875E+5   1.43612E+5
  -1.18681E+5   1.39276E+5
  -1.19712E+5   1.34805E+5
  -1.20866E+5   1.30446E+5
  -1.21713E+5   1.26647E+5
  -1.22306E+5   1.22852E+5
  -1.23589E+5   1.18592E+5
  -1.24181E+5   1.14852E+5
  -1.24762E+5   1.10903E+5
  -1.24993E+5   1.07136E+5
  -1.25581E+5   1.03216E+5
  -1.25616E+5   9.91146E+4
  -1.25430E+5   9.52827E+4
  -1.25281E+5   9.18852E+4
  -1.25775E+5   8.83116E+4
  -1.25677E+5   8.44592E+4
  -1.25496E+5   8.07919E+4
  -1.24898E+5   7.69854E+4
  -1.24235E+5   7.38065E+4
  -1.24369E+5   7.04136E+4
  -1.23623E+5   6.64821E+4
  -1.22517E+5   6.32112E+4
  -1.21978E+5   6.02265E+4
  -1.21277E+5   5.69119E+4
  -1.20756E+5   5.34740E+4
  -1.19788E+5   4.99962E+4
  -1.18450E+5   4.68299E+4
  -1.17322E+5   4.38783E+4
  -1.16601E+5   4.09864E+4
  -1.15551E+5   3.79036E+4
  -1.14135E+5   3.48877E+4
  -1.13067E+5   3.17832E+4
  -1.12280E+5   2.89142E+4
  -1.11060E+5   2.57625E+4
  -1.09342E+5   2.27294E+4
  -1.07733E+5   1.97863E+4
  -1.06226E+5   1.72893E+4
  -1.04966E+5   1.50055E+4
  -1.03754E+5   1.20888E+4
  -1.02070E+5   9.18774E+3
  -1.00388E+5   6.85079E+3
  -9.85898E+4   4.44788E+3
  -9.70223E+4   2.06021E+3
  -9.53344E+4  -4.61280E+2
  -9.38442E+4  -2.87112E+3
  -9.17496E+4  -5.06520E+3
  -9.00716E+4  -7.18994E+3
  -8.86349E+4  -9.28128E+3
  -8.65239E+4  -1.16591E+4
  -8.45331E+4  -1.37402E+4
  -8.24996E+4  -1.53870E+4
  -8.09155E+4  -1.75158E+4
  -7.89924E+4  -1.89211E+4
  -7.71917E+4  -2.10697E+4
  -7.49683E+4  -2.26786E+4
  -7.31606E+4  -2.42382E+4
  -7.12925E+4  -2.59022E+4
  -6.95092E+4  -2.78721E+4
  -6.71493E+4  -2.90616E+4
  -6.50819E+4  -3.05297E+4
  -6.33159E+4  -3.14454E+4
  -6.18285E+4  -3.27510E+4
  -5.97844E+4  -3.42762E+4
  -5.75410E+4  -3.50254E+4
  -5.57246E+4  -3.64028E+4
  -5.40395E+4  -3.71898E+4
  -5.19158E+4  -3.84099E+4
  -5.01282E+4  -3.92686E+4
  -4.81078E+4  -4.01383E+4
  -4.62509E+4  -4.08067E+4
  -4.48349E+4  -4.18389E+4
  -4.27681E+4  -4.29072E+4
  -4.07719E+4  -4.33614E+4
  -3.88295E+4  -4.38374E+4
  -3.75302E+4  -4.44427E+4
  -3.58456E+4  -4.49292E+4
  -3.38529E+4  -4.57959E+4
  -3.20638E+4  -4.60854E+4
  -3.04331E+4  -4.62276E+4
  -2.85394E+4  -4.64778E+4
  -2.69651E+4  -4.69331E+4
  -2.52180E+4  -4.73191E+4
  -2.39501E+4  -4.72295E+4
  -2.22935E+4  -4.73108E+4
  -2.08905E+4  -4.74441E+4
  -1.93116E+4  -4.79294E+4
  -1.75491E+4  -4.75328E+4
  -1.59659E+4  -4.77618E+4
  -1.48525E+4  -4.78658E+4
  -1.33990E+4  -4.78440E+4
  -1.18756E+4  -4.76457E+4
  -1.02016E+4  -4.75046E+4
  -9.07045E+3  -4.72309E+4
  -7.83967E+3  -4.72156E+4
  -6.53586E+3  -4.67555E+4
  -5.31400E+3  -4.65695E+4
  -4.01927E+3  -4.60333E+4
  -2.85660E+3  -4.57407E+4
  -1.68716E+3  -4.56549E+4
  -7.15918E+2  -4.53919E+4
   6.88372E+2  -4.50776E+4
   2.07132E+3  -4.44842E+4
   2.95360E+3  -4.39253E+4
   3.74528E+3  -4.33687E+4
   4.88318E+3  -4.30915E+4
   5.77626E+3  -4.23700E+4
   6.60355E+3  -4.19084E+4
   7.35983E+3  -4.12865E+4
   8.53946E+3  -4.08933E+4
   9.52507E+3  -4.02188E+4
   1.03581E+4  -3.94415E+4
   1.10504E+4  -3.86938E+4
   1.19951E+4  -3.81830E+4
   1.25572E+4  -3.72831E+4
   1.34600E+4  -3.66681E+4
   1.38167E+4  -3.58123E+4
   1.47223E+4  -3.52784E+4
   1.51230E+4  -3.46805E+4
   1.60404E+4  -3.37649E+4
   1.67082E+4  -3.27974E+4
   1.71222E+4  -3.21246E+4
   1.75706E+4  -3.14758E+4
   1.80804E+4  -3.08699E+4
   1.86534E+4  -3.01549E+4
   1.92687E+4  -2.91865E+4
   1.97810E+4  -2.83039E+4
   1.99083E+4  -2.75137E+4
   2.04146E+4  -2.68202E+4
   2.09466E+4  -2.61057E+4
   2.10306E+4  -2.51545E+4
   2.12198E+4  -2.43870E+4
   2.15658E+4  -2.37569E+4
   2.21955E+4  -2.29177E+4
   2.25448E+4  -2.21806E+4
   2.26659E+4  -2.10916E+4
   2.25993E+4  -2.04907E+4
   2.27003E+4  -1.97460E+4
   2.28925E+4  -1.89281E+4
   2.30911E+4  -1.80303E+4
   2.34526E+4  -1.74164E+4
