 
 $NMID
 ID=''
 FMTDAT='(2E13.5)'
 TRAMP=   1.00000E+0
 VOLUME=   1.00000E+0
 $END
   9.66568E+3  -2.10741E+4
  -1.16059E+4  -2.56638E+4
  -1.84957E+4   1.58558E+4
   1.51068E+4   2.54145E+4
   1.19402E+4  -1.74140E+4
  -1.59393E+4  -1.50464E+4
  -2.25110E+3   1.86807E+4
   1.37310E+4   6.24141E+3
  -2.78766E+3  -1.07687E+4
  -7.86076E+3   3.23574E+3
   2.77067E+3   5.46876E+3
  -5.18056E+1  -4.36839E+3
  -2.68877E+3  -1.15733E+3
   7.66712E+2   4.40641E+2
  -5.20225E+1  -3.07549E+3
   1.00505E+3  -8.33958E+2
   2.41911E+3   7.24800E+2
  -9.38670E+2   1.66891E+2
  -7.52878E+2   1.09827E+3
   1.41852E+3  -9.80051E+1
  -6.08031E+2  -1.16333E+3
   7.13628E+2   3.22409E+2
   2.19989E+3   1.49232E+3
  -1.69722E+3  -2.07494E+2
  -1.39194E+3  -1.43821E+3
   3.19751E+3  -1.95079E+2
   7.75630E+2   2.31710E+3
  -3.21818E+3   5.53297E+2
  -4.68671E+2  -2.89598E+3
   2.06792E+3  -1.04065E+3
  -1.78073E+2   1.76056E+3
  -2.09585E+3   6.33119E+2
  -1.05103E+3  -1.68017E+3
   1.88928E+2  -2.16856E+3
   4.90484E+2  -1.60801E+3
   1.70790E+3   5.16061E+2
   4.21944E+2   1.79707E+3
  -1.49080E+3   2.90402E+2
  -9.89816E+2  -1.95565E+2
   5.23907E+2   2.00890E+2
  -1.06919E+3  -4.15074E+2
  -9.89881E+2  -7.26986E+2
   1.47884E+3  -1.33038E+2
   1.40783E+3  -2.91664E+1
   6.49439E+2   4.46496E+2
   1.40352E+2   1.57100E+3
  -1.14314E+3   2.29726E+3
  -2.31721E+3   1.53436E+2
  -8.74821E+2  -1.83499E+3
   4.82438E+2  -1.15827E+3
   2.90384E+2   2.62081E+2
   4.56190E+2  -1.69727E+2
   1.01927E+3  -3.05937E+2
   5.12544E+2   7.90226E+2
   2.51867E+2   9.87544E+2
  -1.23983E+2   3.59443E+2
  -9.92415E+2  -1.75757E+0
  -1.01506E+2  -3.48580E+2
   1.38696E+3  -9.22563E+2
   1.38185E+3   5.34283E+1
   3.70519E+2   1.23621E+3
   4.66043E+2   1.28644E+3
   2.78869E+1   8.94780E+2
  -1.04850E+3   8.94279E+2
  -1.84521E+3  -3.42853E+2
  -9.22032E+2  -1.42603E+3
   8.04491E+2  -1.71007E+3
   1.50163E+3  -8.62158E+2
   1.60088E+3   1.34606E+2
   3.34262E+1   2.29686E+2
  -3.37517E+2  -4.10477E+2
   6.22926E+2  -4.91678E+2
   1.04912E+3   2.84711E+2
   9.31059E+1   7.90544E+2
  -2.89552E+2   2.52768E+2
  -3.60821E+1  -5.20389E+2
   9.89365E+1  -5.42860E+1
  -3.63827E+2   5.56235E+2
  -5.42346E+1   6.88225E+1
  -4.67557E+2  -2.34383E+2
  -6.38623E+2  -6.94202E+2
  -4.27323E+1  -5.08169E+2
   4.15109E+2  -1.71942E+2
   1.36135E+1   1.00184E+2
  -3.51023E+2  -1.84455E+2
   3.32790E+2  -8.45811E+2
   9.75130E+2  -1.98588E+2
   3.13830E+2   5.07318E+2
  -3.40961E+2   4.93395E+2
   2.27835E+2  -2.65202E+2
   6.60140E+2   2.74729E+2
   1.60630E+2   8.83648E+2
  -5.00957E+2   9.10421E+2
  -8.50950E+2   2.73792E+2
  -5.69043E+2  -3.06173E+2
   1.07914E+2  -6.70271E+2
   5.24615E+2  -1.76080E+2
   1.63474E+2   2.63939E+2
  -4.73552E+1  -2.06394E+2
   3.62826E+2  -7.71684E+1
   6.73178E+2   3.52171E+2
   1.59345E+2   9.46445E+2
  -6.12776E+2   5.41495E+2
  -4.34070E+2  -3.73979E+2
   4.51934E+2  -5.35531E+2
   7.18501E+2   5.61427E+2
   6.23877E+1   9.26620E+2
  -5.68631E+2   4.06494E+2
  -6.46608E+2  -9.18091E+2
   4.41287E+2  -7.65870E+2
   8.62839E+2  -3.42826E+1
   6.07253E+2   4.92250E+2
   2.77480E+2   9.67562E+2
   5.43042E+1   5.88502E+2
   3.15344E+2   4.73546E+2
  -4.92712E+1   4.13838E+2
  -4.75217E+2   3.99183E+2
  -4.41614E+2  -3.07509E+2
  -5.87265E+1  -9.22879E+2
   7.25734E+2  -6.88417E+2
   8.87169E+2  -1.29074E+1
   5.17445E+2   3.83231E+2
   2.54633E+2   2.63638E+2
   1.04057E+2   2.11133E+2
  -1.97237E+2   4.08583E+2
  -1.52308E+2   9.80285E+1
   1.73620E+2  -3.98435E+2
   1.72312E+2  -2.92067E+2
   6.09962E+2   8.98752E+0
   4.02917E+2   2.89298E+2
  -5.72219E+1   5.06817E+2
  -4.14725E+2   6.22141E-1
  -2.14023E+2  -2.45256E+2
  -1.00689E+2  -2.07988E+2
   2.21834E+1  -2.26974E+1
  -1.52649E+2  -3.61448E+2
   2.10823E+2  -4.41405E+2
   6.82936E+2  -1.89464E+2
   3.03398E+2   3.25559E+2
  -9.08986E+1   3.06131E+2
  -8.29378E+2  -4.38558E+1
  -8.50669E+1  -5.18327E+2
   6.00251E+2  -6.03247E+2
   4.97522E+2   4.77896E+1
   1.61093E+2   5.02834E+2
  -2.81807E+2   1.88489E+2
  -8.45268E+1  -8.96841E+1
  -1.88209E+2  -2.28589E+2
  -4.79696E+1  -1.46370E+2
  -1.58674E+2  -2.12923E+2
  -1.25901E+1  -4.38348E+2
  -4.11457E+1  -4.28801E+2
   5.06731E+2  -1.43202E+2
   1.33582E+2   3.27673E+2
  -3.21826E+2   4.98301E+1
  -2.97291E+2  -7.23582E+1
  -1.06885E+2   2.26017E+1
   1.15273E+2  -2.01318E+1
  -2.72720E+2  -1.40428E+1
  -2.18412E+2  -1.52780E+1
  -9.23996E+1  -3.38526E+1
  -2.01652E+2   1.84073E+2
  -3.41802E+2   1.23648E+2
  -6.22322E+2  -7.40953E+0
  -1.89641E+2  -3.87495E+2
   9.25217E+1  -6.11983E+2
   6.94515E+1  -3.17679E+2
  -5.41595E+1   2.17407E+2
  -1.90801E+2   4.97746E+1
  -3.41257E+2   3.03727E+1
  -9.37504E+1   1.37544E+2
  -1.09215E+2   2.73031E+1
   8.70332E+1   2.51337E+2
  -2.61742E+2   9.41878E+1
  -1.16347E+2   4.18270E+1
   3.92497E+1  -3.36688E+1
   3.58191E+1   2.47695E+2
  -3.84416E+2   1.90352E+2
  -3.91238E+2  -1.66148E+2
   9.91267E+0  -1.28476E+2
   2.17674E+2   6.27802E+1
  -1.97093E+1   2.41871E+2
  -3.80021E+2   1.37850E+2
  -2.52750E+2   2.94535E+2
  -4.44542E+1   1.38029E+2
  -2.04098E+2   1.15093E+2
   8.69663E+1  -2.41490E+1
  -1.74548E+2  -1.00760E+2
  -1.24006E+2  -3.62004E+2
   1.39197E+2   1.26205E+2
   1.08362E+1   1.09293E+2
  -9.92958E+1   2.73879E+2
  -2.29180E+2   1.14578E+2
  -1.28231E+2   1.84649E+2
  -7.72321E+1  -2.90481E+2
   1.85824E+2   1.15606E+1
  -6.28254E+1   2.51500E+2
   8.58852E+1  -6.46063E+1
  -1.02232E+2   1.26009E+2
  -1.12617E+2   1.75968E+2
  -3.65695E+2   1.80530E+2
  -2.54404E+2  -2.14223E+2
  -7.77553E+1  -1.16104E+2
  -1.94205E+2   1.69234E+2
   2.53384E+2   3.14815E+2
  -2.06605E+2   2.15302E+2
  -2.80544E+2   3.73882E+2
  -2.12778E+2  -8.78124E+1
  -8.74698E+1   1.89457E+2
   5.16660E+1   2.94454E+2
  -2.81319E+2   3.21266E+2
  -3.40697E+2   1.16509E+2
   1.49895E+1  -4.27674E+1
   1.53999E+2   2.67325E+2
  -9.15089E+1   4.04875E+2
  -2.06289E+2   2.57032E+2
  -1.38893E+2  -1.12579E+2
   8.37651E+1   1.37148E+2
  -9.81169E+1  -1.09592E+2
  -8.25135E+1   2.00600E+2
  -1.89690E+2  -2.41804E+2
   6.66409E+1   8.97144E+1
   1.44407E+2   3.89360E+2
  -2.03033E+1   2.58796E+2
  -4.50734E+1   1.79195E+2
  -1.11427E+2   1.85814E+2
  -3.21370E+1   2.85446E+1
   2.52457E+1  -1.20050E+2
   6.44159E+1   2.54941E+2
  -1.78073E+2   1.21901E+2
  -3.77071E+2   1.99102E+1
  -9.24148E+1  -1.67765E+2
  -8.49680E+1   1.02259E+2
  -5.86267E+1   5.07423E+1
  -9.33206E+1   2.77169E+1
   8.07492E+1  -8.83038E+1
   7.18078E+1  -2.40846E+1
   1.98202E+1   1.99930E+2
  -1.27278E+2   1.22109E+2
  -2.59461E+2   1.86577E+2
  -9.08030E+1  -1.67026E+2
  -5.88208E+1   4.25092E+2
   9.10495E+1   2.38128E+2
   1.06727E+2   2.37014E+2
  -3.02195E+2   1.17516E+2
   5.74102E+1   3.80798E+1
   1.37473E+2  -1.29188E+2
   1.78360E+2   8.11604E+0
  -1.14256E+2   9.09006E+0
  -2.04622E+2  -2.66028E+1
   1.09259E+1   1.73132E+2
   4.32949E+1   8.05792E+1
  -2.38957E+2   6.07388E+1
  -1.70323E+2  -1.43102E+2
  -9.78887E+1   1.52916E+2
   6.21385E+1  -6.01671E+0
  -1.18346E+2   1.54123E+2
  -8.94581E+1   2.40118E+2
  -1.96734E+2  -3.47432E+1
   6.67302E+1   6.97691E+1
  -2.44303E+2   2.87467E+2
   2.17645E+1   1.24672E+2
  -1.29530E+2  -5.53809E+1
   2.62739E+1  -1.44617E+2
   6.71010E+1  -1.82713E+2
  -3.00270E+1   7.90492E+1
  -2.62569E+1   3.46028E+2
  -1.80645E+2   8.46052E+1
  -1.03414E+1   6.40705E+1
   1.29790E+2  -5.46817E+1
  -8.47284E+1  -2.68488E+1
  -9.21557E+1   1.36521E+2
  -9.62855E+1  -1.94300E+2
   7.96147E+1   1.28338E+2
   2.93573E+2   1.92699E+2
   9.57757E+1   3.10978E+2
  -8.27265E+1   2.19966E+2
   8.47060E+1  -6.82493E+1
  -1.28748E+1   1.01138E+2
  -6.69448E+1   3.09203E+2
   2.09287E+1  -3.54306E+1
  -3.69199E+0   1.36969E+2
  -5.56643E+1   1.44899E+2
  -1.41490E+2   1.25899E+2
   5.88119E+1   9.60437E+0
   3.75337E+1  -7.55362E+1
  -3.15878E+1   1.38835E+2
   2.09605E+2  -1.77969E+2
   2.64014E+2  -1.05774E+2
   1.75349E+2   3.48132E+2
  -2.00943E+2  -8.35707E+1
  -1.53865E+2   3.27308E+2
   1.02989E+2   1.27981E+2
   2.11623E+1  -5.64671E+1
  -3.50191E+2   4.54390E+1
  -1.49790E+2   3.63154E+1
  -5.06968E+1   1.57549E+2
   1.79434E+1   3.39138E+2
  -1.72660E+1   2.01136E+2
  -1.58170E+2   8.69421E+1
   1.66625E+1   1.12910E+2
   4.23628E+1  -7.66041E+1
   5.72324E+0   8.87325E+1
  -1.90405E+2   8.01889E+1
  -5.63879E+1   7.53299E+1
   2.92569E+1   3.00110E+1
   1.76235E+2  -2.49319E+1
  -8.34938E+1   9.95981E+1
  -1.19816E+2   1.57654E+2
   1.72074E+1   2.38308E+2
   1.96467E+2  -6.26882E+1
   2.13839E+2   1.54036E+2
   2.50186E+2   4.93198E+1
   1.17625E+2  -3.29094E+1
  -2.36718E+2  -1.95692E+1
   1.12598E+2  -5.18938E+1
  -6.32958E+1  -3.95149E+1
  -3.99407E+1   1.18581E+2
  -1.74281E+1  -3.53336E+1
   1.11143E+2   3.21065E+2
  -5.13752E+1  -1.92391E+2
  -1.84050E+1  -9.94223E+1
  -5.13968E+1   2.56512E+2
  -5.14010E+1   8.82990E+1
  -7.88530E+1   1.28438E+2
   3.06500E+2   4.64852E+1
  -3.62165E+2   3.55338E+2
   1.33873E+2   1.20873E+2
  -1.86051E+2   1.43379E+2
   4.25193E+1  -1.06759E+1
   4.38648E+1   9.59169E+1
   8.02305E+1   7.01436E+1
  -4.06794E+0   5.35289E+1
  -9.63654E+0   9.07998E+1
   1.44658E+2  -1.93684E+2
   2.59418E+2  -2.50069E+1
   3.73651E+1   2.73425E+1
  -2.20091E+2  -1.42339E+2
   4.52736E+1  -1.84191E+2
   5.46947E+0   5.53224E+1
   2.28020E+2   4.35795E+1
   4.60046E+1   6.83059E+1
   3.81545E+1  -1.74056E+1
   7.67947E+1   7.88686E+1
   1.09506E+2   2.57405E+1
   2.55440E+2  -9.38973E+0
   1.84013E+2   4.55946E+1
   1.51507E+2  -7.89487E+1
  -4.74225E+1   7.89557E-1
   8.74064E+1   1.04008E+2
  -4.36200E+1   2.97983E+2
  -1.49574E+2  -3.24524E+1
   1.29423E+1  -1.81044E+0
  -7.50337E+1  -3.89804E+1
   9.83072E+1   1.15851E+2
   9.64164E+1   3.34217E+1
   1.36689E+2   1.13715E+2
   7.02668E+1  -1.15944E+2
   1.79606E+2   1.22621E+2
  -3.95785E+2   1.77638E+2
  -7.61139E+1   1.49236E+2
  -1.38830E+1   3.27013E+1
   1.13407E+2   6.87114E+1
  -4.13646E+1  -2.18107E+2
   6.81470E+1   6.28856E+1
   1.34237E+2   1.56508E+2
   1.41620E+1   4.49531E+1
