 LCModel (Version 6.3-1N) Copyright: S.W. Provencher.          Ref.: Magn. Reson. Med. 30:672-679 (1993).                
 Slice_N1@9_13  28-Feb-2025 11:44:47
 27 lines in following concentration table = NCONC+1
    Conc.  %SD /Cr+PCr  Metabolite                                         
 2.92E-04   5% 3.5E-04 Mac                                                 
    2.673  57%   3.171 Cr                                                  
    4.070  37%   4.829 PCr                                                 
    4.326  23%   5.133 Ins                                                 
    8.265  10%   9.807 NAA                                                 
    6.212  16%   7.371 Tau                                                 
    0.490 195%   0.581 PCho                                                
    0.467 199%   0.554 GPC                                                 
    9.535  12%  11.313 Glu                                                 
    3.629  24%   4.306 Gln                                                 
    0.000 999%   0.000 Ala                                                 
    1.490  94%   1.767 Asc                                                 
    1.745  49%   2.070 Asp                                                 
    0.000 999%   0.000 GABA                                                
    0.423 132%   0.502 Glc                                                 
    0.885  59%   1.051 GSH                                                 
    1.669  46%   1.981 Lac                                                 
    1.430  44%   1.696 NAAG                                                
    3.075  40%   3.648 PE                                                  
    0.957  34%   1.136 GPC+PCho                                            
    9.695   9%  11.503 NAA+NAAG                                            
   13.164  11%  15.619 Glu+Gln                                             
    6.743  12%   8.000 Cr+PCr                                              
    9.695   9%  11.503 NAA+NAAG                                            
    6.743  12%   8.000 Cr+PCr                                              
   13.164  11%  15.619 Glu+Gln                                             
   6 lines in following misc. output table
  FWHM = 0.033 ppm    S/N =   3                                            
  Data shift = 0.024 ppm                                                   
  Ph: 166 deg       0.0 deg/ppm                                            
  alphaB,S = 3.4E-01,   7.4E+00                                            
   19 spline knots.   Ns = 5(1)                                            
  ( 6) 3 infls.   ( 4) 2 extrs.                                            
  480 points on ppm-axis = NY
      4.100000     4.091866     4.083733     4.075600     4.067466     4.059333     4.051199     4.043066     4.034933     4.026799
      4.018666     4.010532     4.002399     3.994265     3.986132     3.977998     3.969864     3.961731     3.953597     3.945463
      3.937330     3.929196     3.921062     3.912929     3.904795     3.896662     3.888528     3.880394     3.872261     3.864127
      3.855993     3.847860     3.839726     3.831592     3.823459     3.815325     3.807191     3.799058     3.790924     3.782790
      3.774657     3.766523     3.758389     3.750256     3.742122     3.733989     3.725855     3.717721     3.709588     3.701454
      3.693320     3.685187     3.677053     3.668919     3.660786     3.652652     3.644518     3.636385     3.628251     3.620117
      3.611984     3.603850     3.595716     3.587583     3.579449     3.571316     3.563182     3.555048     3.546915     3.538781
      3.530647     3.522514     3.514380     3.506246     3.498113     3.489979     3.481845     3.473712     3.465578     3.457444
      3.449311     3.441177     3.433043     3.424910     3.416776     3.408643     3.400509     3.392375     3.384242     3.376108
      3.367974     3.359841     3.351707     3.343573     3.335440     3.327306     3.319172     3.311039     3.302905     3.294771
      3.286638     3.278504     3.270370     3.262237     3.254103     3.245970     3.237836     3.229702     3.221569     3.213435
      3.205301     3.197168     3.189034     3.180900     3.172767     3.164633     3.156499     3.148366     3.140232     3.132098
      3.123965     3.115831     3.107697     3.099564     3.091430     3.083297     3.075163     3.067029     3.058896     3.050762
      3.042628     3.034495     3.026361     3.018227     3.010094     3.001960     2.993826     2.985693     2.977559     2.969425
      2.961292     2.953158     2.945024     2.936891     2.928757     2.920624     2.912490     2.904356     2.896223     2.888089
      2.879955     2.871822     2.863688     2.855554     2.847421     2.839287     2.831153     2.823020     2.814886     2.806752
      2.798619     2.790485     2.782351     2.774218     2.766084     2.757951     2.749817     2.741683     2.733550     2.725416
      2.717282     2.709149     2.701015     2.692881     2.684748     2.676614     2.668480     2.660347     2.652213     2.644079
      2.635946     2.627812     2.619678     2.611545     2.603411     2.595278     2.587144     2.579010     2.570877     2.562743
      2.554609     2.546476     2.538342     2.530208     2.522075     2.513941     2.505807     2.497674     2.489540     2.481406
      2.473273     2.465139     2.457006     2.448872     2.440738     2.432605     2.424471     2.416337     2.408204     2.400070
      2.391936     2.383803     2.375669     2.367535     2.359402     2.351268     2.343134     2.335001     2.326867     2.318733
      2.310600     2.302466     2.294333     2.286199     2.278065     2.269932     2.261798     2.253664     2.245531     2.237397
      2.229263     2.221130     2.212996     2.204862     2.196729     2.188595     2.180461     2.172328     2.164194     2.156060
      2.147927     2.139793     2.131660     2.123526     2.115392     2.107259     2.099125     2.090991     2.082858     2.074724
      2.066590     2.058457     2.050323     2.042189     2.034056     2.025922     2.017788     2.009655     2.001521     1.993387
      1.985254     1.977120     1.968987     1.960853     1.952719     1.944586     1.936452     1.928318     1.920185     1.912051
      1.903917     1.895784     1.887650     1.879516     1.871383     1.863249     1.855115     1.846982     1.838848     1.830714
      1.822581     1.814447     1.806314     1.798180     1.790046     1.781913     1.773779     1.765645     1.757512     1.749378
      1.741244     1.733111     1.724977     1.716843     1.708710     1.700576     1.692442     1.684309     1.676175     1.668041
      1.659908     1.651774     1.643641     1.635507     1.627373     1.619240     1.611106     1.602972     1.594839     1.586705
      1.578571     1.570438     1.562304     1.554170     1.546037     1.537903     1.529769     1.521636     1.513502     1.505368
      1.497235     1.489101     1.480968     1.472834     1.464700     1.456567     1.448433     1.440299     1.432166     1.424032
      1.415898     1.407765     1.399631     1.391497     1.383364     1.375230     1.367096     1.358963     1.350829     1.342695
      1.334562     1.326428     1.318295     1.310161     1.302027     1.293894     1.285760     1.277626     1.269493     1.261359
      1.253225     1.245092     1.236958     1.228824     1.220691     1.212557     1.204423     1.196290     1.188156     1.180022
      1.171889     1.163755     1.155622     1.147488     1.139354     1.131221     1.123087     1.114953     1.106820     1.098686
      1.090552     1.082419     1.074285     1.066151     1.058018     1.049884     1.041750     1.033617     1.025483     1.017349
      1.009216     1.001082     0.992949     0.984815     0.976681     0.968548     0.960414     0.952280     0.944147     0.936013
      0.927879     0.919746     0.911612     0.903478     0.895345     0.887211     0.879077     0.870944     0.862810     0.854676
      0.846543     0.838409     0.830276     0.822142     0.814008     0.805875     0.797741     0.789607     0.781474     0.773340
      0.765206     0.757073     0.748939     0.740805     0.732672     0.724538     0.716404     0.708271     0.700137     0.692003
      0.683870     0.675736     0.667603     0.659469     0.651335     0.643202     0.635068     0.626934     0.618801     0.610667
      0.602533     0.594400     0.586266     0.578132     0.569999     0.561865     0.553731     0.545598     0.537464     0.529330
      0.521197     0.513063     0.504930     0.496796     0.488662     0.480529     0.472395     0.464261     0.456128     0.447994
      0.439861     0.431727     0.423593     0.415460     0.407326     0.399192     0.391059     0.382925     0.374792     0.366658
      0.358524     0.350391     0.342257     0.334124     0.325990     0.317856     0.309723     0.301589     0.293455     0.285322
      0.277188     0.269055     0.260921     0.252787     0.244654     0.236520     0.228386     0.220253     0.212119     0.203986
 NY phased data points follow
  -1.00210E+02 -9.72499E+01 -9.24534E+01 -9.18177E+01 -9.82005E+01 -1.03267E+02 -9.83277E+01 -9.81213E+01 -8.67768E+01 -8.54890E+01
  -1.05404E+02 -1.18127E+02 -1.15918E+02 -1.05347E+02 -1.21783E+02 -1.10050E+02 -1.11403E+02 -1.32574E+02 -1.17416E+02 -1.37929E+02
  -1.56084E+02 -1.48440E+02 -1.31054E+02 -9.86321E+01 -9.66567E+01 -8.91863E+01 -6.99140E+01 -5.85734E+01 -5.16075E+01 -5.79436E+01
  -3.37365E+01 -3.20243E+01 -3.99296E+01 -3.82338E+01 -5.95856E+01 -5.38718E+01 -3.94882E+01 -3.25161E+01 -7.09746E+01 -1.11593E+02
  -1.16456E+02 -1.04515E+02 -1.00103E+02 -1.22629E+02 -1.09101E+02 -8.06155E+01 -5.83746E+01 -3.92412E+01 -1.22329E+01 -2.16254E+01
  -3.41102E+01 -1.32501E+01 -2.60382E+01 -2.17807E+01 -1.72836E+01 -3.64263E+01 -3.49689E+01 -4.60301E+01 -8.48426E+01 -5.96687E+01
  -5.35132E+01 -6.26155E+01 -2.96978E+01 -5.07032E+01 -3.30608E+01 -2.57358E+01 -5.87716E+00  8.90422E+00 -3.97532E+01 -4.29078E+01
  -6.83562E+01 -5.14231E+01 -5.89119E+01 -9.13226E+01 -3.17999E+01 -3.32723E+01 -3.52275E+01 -1.26810E+01 -2.32432E+01 -3.02843E+00
  -9.70239E+00 -1.22100E+01 -2.01945E+01 -6.07436E+01 -5.42434E+01 -6.63923E+01 -6.55546E+01 -4.51076E+01 -4.69252E+01 -2.55598E+01
  -3.68095E+01 -3.81814E+01 -7.49642E+00 -4.12685E+00  3.08590E+00  2.37275E+00  1.28772E+01  1.86793E+01 -8.71743E+00  8.02502E+00
   7.39083E+00 -5.97452E+00 -1.03178E+01 -2.11754E+01 -2.50742E+01 -7.29338E+01 -6.09652E+01 -6.26456E+01 -9.33037E+01 -9.63165E+01
  -1.65013E+02 -1.88738E+02 -1.66284E+02 -1.55859E+02 -1.58217E+02 -1.32914E+02 -9.43587E+01 -1.05874E+02 -9.57362E+01 -9.83916E+01
  -9.86266E+01 -6.66712E+01 -7.34631E+01 -6.13062E+01 -4.16957E+01 -6.14796E+01 -4.81688E+01 -2.80712E+01 -5.64023E+00  1.97926E+01
   4.43231E+01  7.81482E+01  4.77780E+00 -8.63561E+01 -1.05935E+02 -1.16837E+02 -1.32595E+02 -1.49491E+02 -1.36347E+02 -1.37871E+02
  -1.44431E+02 -1.38038E+02 -1.41615E+02 -1.34998E+02 -1.21099E+02 -1.29543E+02 -1.35284E+02 -1.22665E+02 -1.31931E+02 -1.07450E+02
  -1.12637E+02 -1.26141E+02 -1.03792E+02 -1.22268E+02 -1.00052E+02 -1.04081E+02 -9.82310E+01 -7.96714E+01 -1.02034E+02 -7.98127E+01
  -9.25237E+01 -9.16910E+01 -8.82977E+01 -8.49866E+01 -8.34551E+01 -1.08409E+02 -7.79876E+01 -9.74414E+01 -9.54447E+01 -5.83261E+01
  -7.30728E+01 -6.40680E+01 -5.81188E+01 -5.97005E+01 -5.80439E+01 -4.56478E+01 -4.30010E+01 -4.92016E+01 -3.58433E+01 -5.83066E+01
  -6.13722E+01 -6.79369E+01 -1.12550E+02 -9.45932E+01 -8.37402E+01 -1.03968E+02 -1.11898E+02 -9.51886E+01 -8.90152E+01 -1.06040E+02
  -9.52782E+01 -9.75026E+01 -7.76147E+01 -6.81718E+01 -6.98884E+01 -8.57715E+01 -1.04070E+02 -6.86485E+01 -7.19243E+01 -8.02128E+01
  -8.98583E+01 -6.89453E+01 -5.79749E+01 -7.28946E+01 -4.69935E+01 -4.76171E+01 -5.18149E+01 -7.42338E+01 -8.69694E+01 -8.78945E+01
  -9.99072E+01 -1.06993E+02 -1.04094E+02 -1.11148E+02 -9.69270E+01 -3.86787E+01 -2.40670E+01 -1.17489E+01 -8.65293E+00 -2.59264E+00
  -1.87229E+01 -3.99254E+01 -4.29254E+01 -6.65677E+01 -4.66325E+01 -5.88897E+01 -6.82486E+01 -6.05168E+01 -4.75463E+01 -4.19692E+01
  -7.53648E+01 -6.50649E+01 -5.39473E+01 -6.34927E+01 -7.49159E+01 -7.43254E+01 -8.79845E+01 -1.12180E+02 -1.20349E+02 -1.44986E+02
  -1.47687E+02 -1.30861E+02 -1.26768E+02 -1.16509E+02 -1.11020E+02 -9.67798E+01 -8.58535E+01 -8.45910E+01 -7.43682E+01 -1.02777E+02
  -1.06551E+02 -1.03099E+02 -1.07187E+02 -1.03683E+02 -1.22476E+02 -1.37086E+02 -1.71091E+02 -1.24235E+02 -3.76431E+01  9.29425E+00
   3.55794E+01  7.72941E+01  1.09866E+02  4.62595E+01  3.13683E+01  4.90316E+01  3.11635E+01  3.23781E+01  1.91276E+01  8.52069E-02
   1.94452E+01  3.09893E+01  6.28739E+00  1.80795E+00  6.07115E+00 -5.49580E+00  4.48218E-01  4.16241E+00 -6.52012E+00  8.78483E+00
   1.41132E+00  8.26323E+00 -1.34235E+01 -2.60000E+01  4.30165E+00 -3.06687E+01 -1.95469E+01 -3.04391E+01 -2.99554E+01 -3.09222E+01
  -6.91296E+01 -4.74742E+01 -6.23260E+01 -7.87745E+01 -7.96244E+01 -7.41305E+01 -8.21696E+01 -8.58885E+01 -8.31612E+01 -7.09546E+01
  -6.13007E+01 -7.68235E+01 -5.90535E+01 -5.45896E+01 -5.43828E+01 -3.76906E+01 -2.15442E+01 -5.00091E+01 -3.77528E+01 -3.54499E+01
  -4.85305E+01 -1.28347E+01 -3.86433E+01 -6.07692E+00  1.02758E+01  5.28793E+00  3.13699E+01  2.60319E+01  2.79975E+01  2.85272E+01
   3.04437E+01  1.99469E+01  2.66264E+01  2.59234E+01  2.32391E+01  2.49770E+01  4.54599E+01  4.24366E+01  4.59323E+01  6.22867E+01
   2.75009E+01  3.39175E+01  1.42143E+00 -2.04097E+01 -4.48945E+01 -7.94524E+01 -5.52605E+01 -6.68488E+01 -6.94053E+01 -7.57355E+01
  -7.49609E+01 -7.45956E+01 -8.06136E+01 -6.63457E+01 -6.63949E+01 -4.17107E+01 -2.60060E+01 -5.82787E+01 -5.21263E+01 -5.15904E+01
  -7.62122E+01 -4.77622E+01 -6.12013E+01 -7.41977E+01 -4.44862E+01 -4.65096E+01 -5.88318E+01 -7.50508E+01 -7.86699E+01 -6.88623E+01
  -6.87199E+01 -6.86657E+01 -7.20151E+01 -8.09074E+01 -7.81841E+01 -6.55902E+01 -4.22266E+01 -5.02843E+01 -5.62315E+01 -4.87913E+01
  -4.58328E+01 -2.72318E+01 -2.73183E+01 -1.93797E+01 -2.67143E+01 -2.56475E+01 -1.09085E+01 -1.38700E+01 -2.92980E+01 -3.23776E+01
  -1.48313E+01 -1.63147E+01  1.18670E+00  5.20865E+00  3.94046E+00  5.98566E+00  2.07686E+01  3.92373E+01  5.19789E+01  6.97324E+01
   6.38379E+01  5.02570E+01  1.25510E+01  3.68089E+01  1.42734E+01 -3.30867E+01 -2.70941E+00 -1.39697E+01 -2.44715E+01 -5.33473E+01
  -4.79978E+01 -3.84587E+01 -6.53503E+01 -5.99762E+01 -7.28428E+01 -9.17622E+01 -9.40271E+01 -8.92119E+01 -9.81831E+01 -9.25159E+01
  -8.41195E+01 -8.71780E+01 -8.49453E+01 -1.07355E+02 -1.00788E+02 -7.72803E+01 -1.00793E+02 -1.06800E+02 -9.55765E+01 -8.81039E+01
  -8.57023E+01 -9.32855E+01 -8.22524E+01 -1.00366E+02 -9.79389E+01 -9.11420E+01 -1.06207E+02 -9.33854E+01 -9.61869E+01 -9.29433E+01
  -1.00987E+02 -9.39617E+01 -8.34742E+01 -1.04177E+02 -9.72387E+01 -9.02959E+01 -8.24817E+01 -8.35365E+01 -1.04968E+02 -9.18631E+01
  -8.70766E+01 -1.10125E+02 -9.77237E+01 -8.76180E+01 -8.68508E+01 -9.12583E+01 -1.09266E+02 -1.01006E+02 -8.92274E+01 -7.72665E+01
  -7.25002E+01 -7.27514E+01 -6.30352E+01 -8.41335E+01 -1.03141E+02 -9.06295E+01 -8.24405E+01 -7.80443E+01 -8.76414E+01 -8.93380E+01
  -7.76901E+01 -7.86249E+01 -9.57258E+01 -9.66895E+01 -6.80836E+01 -8.82162E+01 -8.33632E+01 -6.91680E+01 -1.01758E+02 -8.18686E+01
  -5.62935E+01 -6.99843E+01 -9.42268E+01 -8.89737E+01 -7.95593E+01 -8.16559E+01 -8.16830E+01 -8.05595E+01 -6.58798E+01 -8.26627E+01
 NY points of the fit to the data follow
  -9.19029E+01 -9.43772E+01 -9.90098E+01 -1.04463E+02 -1.07184E+02 -1.03147E+02 -9.47503E+01 -8.86930E+01 -8.79098E+01 -9.09127E+01
  -9.70656E+01 -1.05323E+02 -1.12508E+02 -1.16827E+02 -1.17499E+02 -1.13749E+02 -1.11046E+02 -1.11527E+02 -1.18382E+02 -1.32436E+02
  -1.44483E+02 -1.41371E+02 -1.25795E+02 -1.06144E+02 -8.39469E+01 -6.53797E+01 -5.59265E+01 -4.95281E+01 -4.50942E+01 -4.28256E+01
  -4.12976E+01 -4.02979E+01 -3.96980E+01 -3.96040E+01 -3.99551E+01 -3.95413E+01 -4.02317E+01 -4.39653E+01 -5.44864E+01 -7.27054E+01
  -9.47174E+01 -1.10064E+02 -1.14310E+02 -1.09110E+02 -9.57291E+01 -7.65690E+01 -5.86971E+01 -4.54144E+01 -3.62475E+01 -3.02921E+01
  -2.79897E+01 -2.73471E+01 -2.88139E+01 -3.24251E+01 -3.67732E+01 -4.28400E+01 -4.84677E+01 -5.24558E+01 -5.88253E+01 -6.54506E+01
  -6.56239E+01 -6.29311E+01 -6.15948E+01 -5.42919E+01 -4.10189E+01 -3.10863E+01 -2.50768E+01 -2.39445E+01 -3.29124E+01 -4.83448E+01
  -5.96494E+01 -6.34141E+01 -6.47938E+01 -6.23186E+01 -5.24427E+01 -4.06108E+01 -3.06447E+01 -2.07548E+01 -1.10034E+01 -6.75392E+00
  -9.16856E+00 -2.06741E+01 -3.94729E+01 -6.06221E+01 -7.55980E+01 -8.15956E+01 -7.86278E+01 -6.87597E+01 -5.72286E+01 -4.78328E+01
  -3.91238E+01 -3.29374E+01 -2.80938E+01 -2.39025E+01 -1.95140E+01 -1.57172E+01 -1.28943E+01 -8.88531E+00 -4.91775E+00 -1.49198E-02
   7.60802E+00  1.08703E+01  4.37418E+00 -9.64342E+00 -2.45598E+01 -3.79463E+01 -4.70256E+01 -5.40051E+01 -7.12546E+01 -1.03735E+02
  -1.39995E+02 -1.59956E+02 -1.60972E+02 -1.55124E+02 -1.43197E+02 -1.27716E+02 -1.15382E+02 -1.05689E+02 -9.77536E+01 -9.10678E+01
  -8.52644E+01 -7.99905E+01 -7.49857E+01 -6.98159E+01 -6.35624E+01 -5.64819E+01 -4.95955E+01 -3.02696E+01 -1.16141E+00  3.48139E+01
   6.67157E+01  6.63367E+01  1.47016E+01 -5.04696E+01 -9.12570E+01 -1.17042E+02 -1.34167E+02 -1.33112E+02 -1.27746E+02 -1.24404E+02
  -1.22830E+02 -1.22256E+02 -1.22300E+02 -1.22778E+02 -1.23309E+02 -1.23538E+02 -1.22777E+02 -1.20998E+02 -1.18538E+02 -1.15570E+02
  -1.12564E+02 -1.09864E+02 -1.07534E+02 -1.05244E+02 -1.02477E+02 -9.96534E+01 -9.76051E+01 -9.62887E+01 -9.49629E+01 -9.30178E+01
  -9.05632E+01 -8.86471E+01 -8.83604E+01 -8.90737E+01 -8.93062E+01 -8.87267E+01 -8.85806E+01 -9.01657E+01 -9.25613E+01 -9.25839E+01
  -8.75044E+01 -7.79906E+01 -6.95586E+01 -6.76608E+01 -6.93967E+01 -6.77505E+01 -6.12704E+01 -5.55698E+01 -5.55909E+01 -6.14656E+01
  -6.90706E+01 -7.63559E+01 -8.36872E+01 -8.96491E+01 -9.31025E+01 -9.53785E+01 -9.67919E+01 -9.70154E+01 -9.63558E+01 -9.60803E+01
  -9.54674E+01 -9.43546E+01 -9.34093E+01 -9.04763E+01 -8.52761E+01 -8.20738E+01 -8.13673E+01 -7.89487E+01 -7.56271E+01 -7.47603E+01
  -7.41975E+01 -7.13552E+01 -6.54966E+01 -5.99100E+01 -5.81827E+01 -5.93000E+01 -6.21188E+01 -6.88253E+01 -7.91961E+01 -8.99866E+01
  -1.02588E+02 -1.12186E+02 -1.15691E+02 -1.10787E+02 -9.44649E+01 -6.72704E+01 -4.12074E+01 -2.35268E+01 -1.32960E+01 -1.40997E+01
  -2.40538E+01 -3.22210E+01 -3.85673E+01 -4.22670E+01 -4.24892E+01 -4.13242E+01 -4.04424E+01 -4.13318E+01 -4.48507E+01 -5.05940E+01
  -5.87514E+01 -6.88120E+01 -7.94923E+01 -9.05029E+01 -1.02256E+02 -1.12824E+02 -1.21815E+02 -1.29474E+02 -1.34281E+02 -1.36451E+02
  -1.36521E+02 -1.33315E+02 -1.25933E+02 -1.15757E+02 -1.04495E+02 -9.38452E+01 -8.71882E+01 -8.37924E+01 -8.39231E+01 -8.76906E+01
  -9.13678E+01 -9.10916E+01 -9.40296E+01 -1.01855E+02 -1.19413E+02 -1.50045E+02 -1.65574E+02 -1.25356E+02 -5.31042E+01 -4.61611E-01
   3.12753E+01  5.32231E+01  5.58299E+01  4.73084E+01  3.95766E+01  3.34969E+01  2.83307E+01  2.37973E+01  1.99133E+01  1.66349E+01
   1.40836E+01  1.24878E+01  1.15503E+01  1.09418E+01  1.05108E+01  9.94491E+00  9.02063E+00  8.07851E+00  7.22592E+00  6.22358E+00
   4.89576E+00  3.25359E+00  1.41496E+00 -3.14717E-01 -2.12487E+00 -4.06328E+00 -5.92632E+00 -7.71498E+00 -9.67562E+00 -1.20213E+01
  -1.49183E+01 -1.85303E+01 -2.27899E+01 -2.77264E+01 -3.27774E+01 -3.69578E+01 -3.97686E+01 -4.10131E+01 -4.07035E+01 -3.93755E+01
  -3.73824E+01 -3.47858E+01 -3.17607E+01 -2.87548E+01 -2.59861E+01 -2.34674E+01 -2.12588E+01 -1.90308E+01 -1.64784E+01 -1.36745E+01
  -1.09419E+01 -8.39030E+00 -6.07453E+00 -3.81747E+00 -1.57632E+00  3.40971E-01  1.75583E+00  2.90596E+00  3.27469E+00  2.67358E+00
   1.58148E+00  1.15824E-02 -2.18497E+00 -4.55663E+00 -6.87852E+00 -9.67551E+00 -1.36779E+01 -1.96408E+01 -2.79357E+01 -3.77472E+01
  -4.83298E+01 -5.90800E+01 -6.88241E+01 -7.63263E+01 -8.07061E+01 -8.16027E+01 -7.84389E+01 -7.23360E+01 -6.45801E+01 -5.64565E+01
  -5.19514E+01 -5.29629E+01 -5.74933E+01 -6.28022E+01 -6.72366E+01 -6.77057E+01 -6.40815E+01 -5.99302E+01 -5.57264E+01 -5.13898E+01
  -4.87311E+01 -4.78178E+01 -4.85636E+01 -5.12639E+01 -5.58469E+01 -6.11971E+01 -6.60873E+01 -7.00224E+01 -7.25665E+01 -7.34495E+01
  -7.28043E+01 -7.09997E+01 -6.81769E+01 -6.47028E+01 -6.08823E+01 -5.70816E+01 -5.35486E+01 -5.02697E+01 -4.71668E+01 -4.40980E+01
  -4.10415E+01 -3.82891E+01 -3.55715E+01 -3.28832E+01 -3.01150E+01 -2.68820E+01 -2.31736E+01 -1.92405E+01 -1.46506E+01 -9.15280E+00
  -3.26394E+00  3.14148E+00  1.09340E+01  2.00894E+01  3.03011E+01  4.09496E+01  5.06538E+01  5.71791E+01  5.88440E+01  5.49323E+01
   4.64043E+01  3.55165E+01  2.43734E+01  1.41784E+01  5.72543E+00 -1.15475E+00 -7.90338E+00 -1.57141E+01 -2.47333E+01 -3.47160E+01
  -4.53114E+01 -5.53229E+01 -6.39035E+01 -7.09954E+01 -7.66337E+01 -8.06533E+01 -8.33951E+01 -8.53610E+01 -8.70345E+01 -8.84902E+01
  -8.98288E+01 -9.08909E+01 -9.15850E+01 -9.19336E+01 -9.21403E+01 -9.22437E+01 -9.21569E+01 -9.21192E+01 -9.23623E+01 -9.24801E+01
  -9.21722E+01 -9.18411E+01 -9.18148E+01 -9.17285E+01 -9.14868E+01 -9.13836E+01 -9.15176E+01 -9.16216E+01 -9.14180E+01 -9.09705E+01
  -9.05247E+01 -9.02661E+01 -9.01468E+01 -9.02448E+01 -9.04065E+01 -9.04568E+01 -9.02979E+01 -9.00067E+01 -8.96338E+01 -8.92165E+01
  -8.88677E+01 -8.85618E+01 -8.82476E+01 -8.81492E+01 -8.82694E+01 -8.84411E+01 -8.84662E+01 -8.83325E+01 -8.81062E+01 -8.78349E+01
  -8.76186E+01 -8.75314E+01 -8.75585E+01 -8.74093E+01 -8.71297E+01 -8.68484E+01 -8.65409E+01 -8.62162E+01 -8.59536E+01 -8.56654E+01
  -8.53582E+01 -8.51030E+01 -8.50629E+01 -8.51568E+01 -8.52775E+01 -8.53173E+01 -8.52766E+01 -8.48408E+01 -8.41336E+01 -8.34607E+01
  -8.30684E+01 -8.29808E+01 -8.31415E+01 -8.32597E+01 -8.32320E+01 -8.31100E+01 -8.29449E+01 -8.25867E+01 -8.24680E+01 -8.26249E+01
 NY background values follow
    -6.747E+01   -6.733E+01   -6.720E+01   -6.707E+01   -6.693E+01   -6.680E+01   -6.666E+01   -6.653E+01   -6.639E+01   -6.626E+01
    -6.613E+01   -6.599E+01   -6.586E+01   -6.572E+01   -6.559E+01   -6.545E+01   -6.532E+01   -6.519E+01   -6.505E+01   -6.492E+01
    -6.478E+01   -6.465E+01   -6.452E+01   -6.438E+01   -6.425E+01   -6.412E+01   -6.398E+01   -6.385E+01   -6.372E+01   -6.358E+01
    -6.345E+01   -6.332E+01   -6.318E+01   -6.305E+01   -6.292E+01   -6.279E+01   -6.265E+01   -6.252E+01   -6.239E+01   -6.226E+01
    -6.213E+01   -6.200E+01   -6.188E+01   -6.175E+01   -6.162E+01   -6.150E+01   -6.137E+01   -6.125E+01   -6.112E+01   -6.100E+01
    -6.088E+01   -6.076E+01   -6.064E+01   -6.053E+01   -6.041E+01   -6.030E+01   -6.018E+01   -6.007E+01   -5.996E+01   -5.985E+01
    -5.975E+01   -5.964E+01   -5.954E+01   -5.943E+01   -5.933E+01   -5.924E+01   -5.914E+01   -5.904E+01   -5.895E+01   -5.886E+01
    -5.877E+01   -5.868E+01   -5.859E+01   -5.851E+01   -5.842E+01   -5.834E+01   -5.826E+01   -5.818E+01   -5.811E+01   -5.803E+01
    -5.796E+01   -5.789E+01   -5.782E+01   -5.775E+01   -5.768E+01   -5.762E+01   -5.756E+01   -5.750E+01   -5.744E+01   -5.738E+01
    -5.733E+01   -5.727E+01   -5.722E+01   -5.717E+01   -5.712E+01   -5.707E+01   -5.703E+01   -5.698E+01   -5.694E+01   -5.690E+01
    -5.686E+01   -5.682E+01   -5.678E+01   -5.675E+01   -5.671E+01   -5.668E+01   -5.664E+01   -5.661E+01   -5.658E+01   -5.655E+01
    -5.652E+01   -5.649E+01   -5.646E+01   -5.643E+01   -5.641E+01   -5.638E+01   -5.635E+01   -5.633E+01   -5.630E+01   -5.628E+01
    -5.625E+01   -5.623E+01   -5.620E+01   -5.618E+01   -5.616E+01   -5.613E+01   -5.611E+01   -5.609E+01   -5.607E+01   -5.604E+01
    -5.602E+01   -5.600E+01   -5.598E+01   -5.596E+01   -5.594E+01   -5.592E+01   -5.590E+01   -5.588E+01   -5.586E+01   -5.584E+01
    -5.582E+01   -5.581E+01   -5.579E+01   -5.577E+01   -5.575E+01   -5.574E+01   -5.572E+01   -5.571E+01   -5.569E+01   -5.568E+01
    -5.566E+01   -5.565E+01   -5.563E+01   -5.562E+01   -5.561E+01   -5.559E+01   -5.558E+01   -5.557E+01   -5.556E+01   -5.555E+01
    -5.554E+01   -5.553E+01   -5.553E+01   -5.552E+01   -5.551E+01   -5.551E+01   -5.551E+01   -5.550E+01   -5.550E+01   -5.550E+01
    -5.550E+01   -5.550E+01   -5.550E+01   -5.551E+01   -5.551E+01   -5.552E+01   -5.552E+01   -5.553E+01   -5.554E+01   -5.555E+01
    -5.556E+01   -5.558E+01   -5.559E+01   -5.561E+01   -5.563E+01   -5.565E+01   -5.567E+01   -5.569E+01   -5.571E+01   -5.574E+01
    -5.576E+01   -5.579E+01   -5.582E+01   -5.585E+01   -5.588E+01   -5.591E+01   -5.595E+01   -5.598E+01   -5.602E+01   -5.606E+01
    -5.610E+01   -5.614E+01   -5.618E+01   -5.622E+01   -5.627E+01   -5.631E+01   -5.636E+01   -5.641E+01   -5.645E+01   -5.650E+01
    -5.656E+01   -5.661E+01   -5.666E+01   -5.672E+01   -5.677E+01   -5.683E+01   -5.689E+01   -5.695E+01   -5.701E+01   -5.707E+01
    -5.713E+01   -5.720E+01   -5.726E+01   -5.733E+01   -5.739E+01   -5.746E+01   -5.753E+01   -5.760E+01   -5.767E+01   -5.774E+01
    -5.781E+01   -5.788E+01   -5.796E+01   -5.803E+01   -5.811E+01   -5.818E+01   -5.826E+01   -5.834E+01   -5.842E+01   -5.850E+01
    -5.858E+01   -5.866E+01   -5.874E+01   -5.882E+01   -5.890E+01   -5.898E+01   -5.907E+01   -5.915E+01   -5.923E+01   -5.932E+01
    -5.940E+01   -5.949E+01   -5.957E+01   -5.966E+01   -5.974E+01   -5.982E+01   -5.991E+01   -5.999E+01   -6.008E+01   -6.016E+01
    -6.024E+01   -6.032E+01   -6.041E+01   -6.049E+01   -6.057E+01   -6.065E+01   -6.073E+01   -6.081E+01   -6.088E+01   -6.096E+01
    -6.104E+01   -6.111E+01   -6.118E+01   -6.126E+01   -6.133E+01   -6.140E+01   -6.147E+01   -6.154E+01   -6.161E+01   -6.167E+01
    -6.174E+01   -6.180E+01   -6.186E+01   -6.193E+01   -6.199E+01   -6.204E+01   -6.210E+01   -6.216E+01   -6.221E+01   -6.227E+01
    -6.232E+01   -6.237E+01   -6.242E+01   -6.246E+01   -6.251E+01   -6.255E+01   -6.259E+01   -6.263E+01   -6.267E+01   -6.271E+01
    -6.275E+01   -6.278E+01   -6.281E+01   -6.284E+01   -6.287E+01   -6.290E+01   -6.293E+01   -6.296E+01   -6.298E+01   -6.301E+01
    -6.304E+01   -6.306E+01   -6.309E+01   -6.312E+01   -6.314E+01   -6.317E+01   -6.320E+01   -6.323E+01   -6.326E+01   -6.329E+01
    -6.332E+01   -6.336E+01   -6.339E+01   -6.343E+01   -6.347E+01   -6.352E+01   -6.356E+01   -6.361E+01   -6.366E+01   -6.371E+01
    -6.377E+01   -6.382E+01   -6.389E+01   -6.395E+01   -6.402E+01   -6.409E+01   -6.416E+01   -6.424E+01   -6.432E+01   -6.440E+01
    -6.448E+01   -6.456E+01   -6.465E+01   -6.474E+01   -6.483E+01   -6.493E+01   -6.502E+01   -6.512E+01   -6.522E+01   -6.532E+01
    -6.542E+01   -6.553E+01   -6.563E+01   -6.574E+01   -6.585E+01   -6.596E+01   -6.607E+01   -6.618E+01   -6.630E+01   -6.641E+01
    -6.653E+01   -6.664E+01   -6.676E+01   -6.688E+01   -6.700E+01   -6.712E+01   -6.724E+01   -6.736E+01   -6.748E+01   -6.760E+01
    -6.773E+01   -6.785E+01   -6.797E+01   -6.810E+01   -6.822E+01   -6.835E+01   -6.847E+01   -6.860E+01   -6.873E+01   -6.885E+01
    -6.898E+01   -6.910E+01   -6.923E+01   -6.935E+01   -6.948E+01   -6.961E+01   -6.973E+01   -6.986E+01   -6.998E+01   -7.011E+01
    -7.023E+01   -7.035E+01   -7.048E+01   -7.060E+01   -7.072E+01   -7.085E+01   -7.097E+01   -7.109E+01   -7.121E+01   -7.133E+01
    -7.145E+01   -7.157E+01   -7.169E+01   -7.181E+01   -7.192E+01   -7.204E+01   -7.216E+01   -7.227E+01   -7.239E+01   -7.250E+01
    -7.262E+01   -7.273E+01   -7.285E+01   -7.296E+01   -7.307E+01   -7.318E+01   -7.329E+01   -7.340E+01   -7.351E+01   -7.362E+01
    -7.373E+01   -7.384E+01   -7.394E+01   -7.405E+01   -7.415E+01   -7.426E+01   -7.436E+01   -7.446E+01   -7.457E+01   -7.467E+01
    -7.477E+01   -7.487E+01   -7.497E+01   -7.507E+01   -7.517E+01   -7.527E+01   -7.537E+01   -7.546E+01   -7.556E+01   -7.566E+01
    -7.575E+01   -7.585E+01   -7.594E+01   -7.604E+01   -7.613E+01   -7.622E+01   -7.632E+01   -7.641E+01   -7.650E+01   -7.659E+01
    -7.669E+01   -7.678E+01   -7.687E+01   -7.696E+01   -7.705E+01   -7.714E+01   -7.723E+01   -7.732E+01   -7.740E+01   -7.749E+01
    -7.758E+01   -7.767E+01   -7.776E+01   -7.784E+01   -7.793E+01   -7.802E+01   -7.811E+01   -7.819E+01   -7.828E+01   -7.837E+01
    -7.845E+01   -7.854E+01   -7.863E+01   -7.871E+01   -7.880E+01   -7.889E+01   -7.897E+01   -7.906E+01   -7.915E+01   -7.923E+01
 Mac      Conc. = 2.92E-04
  -8.73164E+01 -8.77578E+01 -8.78762E+01 -8.77553E+01 -8.76044E+01 -8.76549E+01 -8.83194E+01 -8.96428E+01 -9.15479E+01 -9.35116E+01
  -9.50128E+01 -9.56575E+01 -9.55678E+01 -9.54857E+01 -9.63347E+01 -9.85396E+01 -1.01625E+02 -1.03688E+02 -1.02959E+02 -9.98547E+01
  -9.58708E+01 -9.12449E+01 -8.62353E+01 -8.24472E+01 -8.01380E+01 -7.83904E+01 -7.68106E+01 -7.52284E+01 -7.33195E+01 -7.09744E+01
  -6.85771E+01 -6.64433E+01 -6.45835E+01 -6.33706E+01 -6.32265E+01 -6.38561E+01 -6.42258E+01 -6.34485E+01 -6.13266E+01 -5.87503E+01
  -5.70467E+01 -5.63703E+01 -5.60493E+01 -5.53841E+01 -5.41841E+01 -5.24825E+01 -5.08669E+01 -4.98578E+01 -4.94940E+01 -4.99505E+01
  -5.11470E+01 -5.25026E+01 -5.37539E+01 -5.50557E+01 -5.63139E+01 -5.72338E+01 -5.77845E+01 -5.76419E+01 -5.66700E+01 -5.54379E+01
  -5.38236E+01 -5.17121E+01 -4.97833E+01 -4.87821E+01 -4.85147E+01 -4.88825E+01 -4.97506E+01 -5.08223E+01 -5.20376E+01 -5.33009E+01
  -5.37843E+01 -5.26998E+01 -5.04059E+01 -4.77747E+01 -4.52468E+01 -4.31530E+01 -4.19777E+01 -4.17315E+01 -4.21052E+01 -4.29201E+01
  -4.38369E+01 -4.47779E+01 -4.56432E+01 -4.60719E+01 -4.58491E+01 -4.52826E+01 -4.45071E+01 -4.35823E+01 -4.26005E+01 -4.17952E+01
  -4.10219E+01 -4.01594E+01 -3.92744E+01 -3.84460E+01 -3.77487E+01 -3.77783E+01 -3.88399E+01 -4.06653E+01 -4.30141E+01 -4.54123E+01
  -4.72545E+01 -4.86690E+01 -4.99591E+01 -5.14010E+01 -5.36112E+01 -5.76101E+01 -6.40036E+01 -7.20488E+01 -8.00501E+01 -8.62302E+01
