 LCModel (Version 6.3-1N) Copyright: S.W. Provencher.          Ref.: Magn. Reson. Med. 30:672-679 (1993).                
 Slice_N1@21_20  28-Feb-2025 11:41:11
 27 lines in following concentration table = NCONC+1
    Conc.  %SD /Cr+PCr  Metabolite                                         
 2.90E-04   4% 3.1E-04 Mac                                                 
    7.377  10%   8.000 Cr                                                  
    0.000 999%   0.000 PCr                                                 
    6.136  15%   6.654 Ins                                                 
    7.430  11%   8.058 NAA                                                 
    3.833  24%   4.157 Tau                                                 
    1.983  12%   2.151 PCho                                                
    0.000 999%   0.000 GPC                                                 
    9.618  11%  10.431 Glu                                                 
    5.020  17%   5.444 Gln                                                 
    1.710  42%   1.854 Ala                                                 
    0.166 739%   0.180 Asc                                                 
    2.051  42%   2.224 Asp                                                 
    0.271 175%   0.294 GABA                                                
    1.200  47%   1.302 Glc                                                 
    1.585  34%   1.719 GSH                                                 
    0.000 999%   0.000 Lac                                                 
    2.523  27%   2.736 NAAG                                                
    0.000 999%   0.000 PE                                                  
    1.983  12%   2.151 GPC+PCho                                            
    9.953   8%  10.794 NAA+NAAG                                            
   14.638   9%  15.875 Glu+Gln                                             
    7.377  10%   8.000 Cr+PCr                                              
    9.953   8%  10.794 NAA+NAAG                                            
    7.377  10%   8.000 Cr+PCr                                              
   14.638   9%  15.875 Glu+Gln                                             
   6 lines in following misc. output table
  FWHM = 0.033 ppm    S/N =   3                                            
  Data shift = 0.024 ppm                                                   
  Ph: -62 deg       0.0 deg/ppm                                            
  alphaB,S = 1.3E-01,   1.3E+01                                            
   19 spline knots.   Ns = 6(1)                                            
  ( 5) 2 infls.   ( 1) 1 extrs.                                            
  480 points on ppm-axis = NY
      4.100000     4.091866     4.083733     4.075600     4.067466     4.059333     4.051199     4.043066     4.034933     4.026799
      4.018666     4.010532     4.002399     3.994265     3.986132     3.977998     3.969864     3.961731     3.953597     3.945463
      3.937330     3.929196     3.921062     3.912929     3.904795     3.896662     3.888528     3.880394     3.872261     3.864127
      3.855993     3.847860     3.839726     3.831592     3.823459     3.815325     3.807191     3.799058     3.790924     3.782790
      3.774657     3.766523     3.758389     3.750256     3.742122     3.733989     3.725855     3.717721     3.709588     3.701454
      3.693320     3.685187     3.677053     3.668919     3.660786     3.652652     3.644518     3.636385     3.628251     3.620117
      3.611984     3.603850     3.595716     3.587583     3.579449     3.571316     3.563182     3.555048     3.546915     3.538781
      3.530647     3.522514     3.514380     3.506246     3.498113     3.489979     3.481845     3.473712     3.465578     3.457444
      3.449311     3.441177     3.433043     3.424910     3.416776     3.408643     3.400509     3.392375     3.384242     3.376108
      3.367974     3.359841     3.351707     3.343573     3.335440     3.327306     3.319172     3.311039     3.302905     3.294771
      3.286638     3.278504     3.270370     3.262237     3.254103     3.245970     3.237836     3.229702     3.221569     3.213435
      3.205301     3.197168     3.189034     3.180900     3.172767     3.164633     3.156499     3.148366     3.140232     3.132098
      3.123965     3.115831     3.107697     3.099564     3.091430     3.083297     3.075163     3.067029     3.058896     3.050762
      3.042628     3.034495     3.026361     3.018227     3.010094     3.001960     2.993826     2.985693     2.977559     2.969425
      2.961292     2.953158     2.945024     2.936891     2.928757     2.920624     2.912490     2.904356     2.896223     2.888089
      2.879955     2.871822     2.863688     2.855554     2.847421     2.839287     2.831153     2.823020     2.814886     2.806752
      2.798619     2.790485     2.782351     2.774218     2.766084     2.757951     2.749817     2.741683     2.733550     2.725416
      2.717282     2.709149     2.701015     2.692881     2.684748     2.676614     2.668480     2.660347     2.652213     2.644079
      2.635946     2.627812     2.619678     2.611545     2.603411     2.595278     2.587144     2.579010     2.570877     2.562743
      2.554609     2.546476     2.538342     2.530208     2.522075     2.513941     2.505807     2.497674     2.489540     2.481406
      2.473273     2.465139     2.457006     2.448872     2.440738     2.432605     2.424471     2.416337     2.408204     2.400070
      2.391936     2.383803     2.375669     2.367535     2.359402     2.351268     2.343134     2.335001     2.326867     2.318733
      2.310600     2.302466     2.294333     2.286199     2.278065     2.269932     2.261798     2.253664     2.245531     2.237397
      2.229263     2.221130     2.212996     2.204862     2.196729     2.188595     2.180461     2.172328     2.164194     2.156060
      2.147927     2.139793     2.131660     2.123526     2.115392     2.107259     2.099125     2.090991     2.082858     2.074724
      2.066590     2.058457     2.050323     2.042189     2.034056     2.025922     2.017788     2.009655     2.001521     1.993387
      1.985254     1.977120     1.968987     1.960853     1.952719     1.944586     1.936452     1.928318     1.920185     1.912051
      1.903917     1.895784     1.887650     1.879516     1.871383     1.863249     1.855115     1.846982     1.838848     1.830714
      1.822581     1.814447     1.806314     1.798180     1.790046     1.781913     1.773779     1.765645     1.757512     1.749378
      1.741244     1.733111     1.724977     1.716843     1.708710     1.700576     1.692442     1.684309     1.676175     1.668041
      1.659908     1.651774     1.643641     1.635507     1.627373     1.619240     1.611106     1.602972     1.594839     1.586705
      1.578571     1.570438     1.562304     1.554170     1.546037     1.537903     1.529769     1.521636     1.513502     1.505368
      1.497235     1.489101     1.480968     1.472834     1.464700     1.456567     1.448433     1.440299     1.432166     1.424032
      1.415898     1.407765     1.399631     1.391497     1.383364     1.375230     1.367096     1.358963     1.350829     1.342695
      1.334562     1.326428     1.318295     1.310161     1.302027     1.293894     1.285760     1.277626     1.269493     1.261359
      1.253225     1.245092     1.236958     1.228824     1.220691     1.212557     1.204423     1.196290     1.188156     1.180022
      1.171889     1.163755     1.155622     1.147488     1.139354     1.131221     1.123087     1.114953     1.106820     1.098686
      1.090552     1.082419     1.074285     1.066151     1.058018     1.049884     1.041750     1.033617     1.025483     1.017349
      1.009216     1.001082     0.992949     0.984815     0.976681     0.968548     0.960414     0.952280     0.944147     0.936013
      0.927879     0.919746     0.911612     0.903478     0.895345     0.887211     0.879077     0.870944     0.862810     0.854676
      0.846543     0.838409     0.830276     0.822142     0.814008     0.805875     0.797741     0.789607     0.781474     0.773340
      0.765206     0.757073     0.748939     0.740805     0.732672     0.724538     0.716404     0.708271     0.700137     0.692003
      0.683870     0.675736     0.667603     0.659469     0.651335     0.643202     0.635068     0.626934     0.618801     0.610667
      0.602533     0.594400     0.586266     0.578132     0.569999     0.561865     0.553731     0.545598     0.537464     0.529330
      0.521197     0.513063     0.504930     0.496796     0.488662     0.480529     0.472395     0.464261     0.456128     0.447994
      0.439861     0.431727     0.423593     0.415460     0.407326     0.399192     0.391059     0.382925     0.374792     0.366658
      0.358524     0.350391     0.342257     0.334124     0.325990     0.317856     0.309723     0.301589     0.293455     0.285322
      0.277188     0.269055     0.260921     0.252787     0.244654     0.236520     0.228386     0.220253     0.212119     0.203986
 NY phased data points follow
   3.63500E+01  1.92369E+01  3.66999E+01  3.45216E+01  3.73846E+01  2.49652E+01  3.76733E+01  4.77348E+01  2.26927E+01  2.75416E+01
   2.79734E+01  1.59030E+01  1.51429E+01  2.97240E+01  1.18497E+01 -1.62250E+00 -1.02771E+01 -4.52868E+01 -5.11813E+01 -6.39812E+01
  -7.54486E+01 -7.61752E+01 -7.20862E+01 -4.47438E+01 -1.91493E+01 -1.00981E+01 -1.04809E+01 -6.69998E+00 -4.69089E+00  3.90238E+00
   3.07869E+00 -7.60167E+00 -9.04960E+00 -1.15453E+01 -1.82482E+00 -4.00863E+00 -1.61433E+01 -1.88120E+01 -3.43209E+01 -4.12013E+01
  -4.03402E+01 -3.33048E+01 -3.25392E+01 -3.81354E+01 -1.23414E+01  4.09978E+00  1.13708E+01  2.70689E+01  3.27275E+01  3.10660E+01
   3.06176E+01  3.19878E+01  2.02818E+01  1.93567E+01  1.78857E+01  3.39896E+00  7.80437E-01  1.24638E+00  2.87352E+00 -2.41692E+00
  -1.11803E+01 -9.32490E-01  1.21683E+01  2.30220E+01  3.27362E+01  2.56194E+01  2.46077E+01  1.51080E+01 -8.33019E+00 -8.04616E+00
  -9.38076E+00 -5.63573E+00  1.29269E+01  2.11132E+01  3.98508E+01  4.32203E+01  3.86190E+01  4.78874E+01  2.32873E+01  3.30663E+01
   4.91944E+01  2.77205E+01  4.04306E+01  2.93518E+01  1.34739E+01  1.24451E+01  1.38408E+01  3.77603E+01  4.83351E+01  5.63668E+01
   4.86448E+01  5.69881E+01  8.32777E+01  7.97926E+01  8.38702E+01  8.23948E+01  7.70944E+01  8.92599E+01  7.65732E+01  5.77260E+01
   5.94852E+01  5.28953E+01  3.30807E+01  2.59414E+01  3.67039E+01  1.07721E+01 -1.57935E+01 -2.06084E+01 -5.32055E+01 -7.75998E+01
  -9.44081E+01 -9.13490E+01 -7.50480E+01 -5.36176E+01 -3.76857E+01 -4.21378E+01 -1.38199E+01 -1.93203E+00  5.69828E+00  1.05825E+01
  -3.27356E-01  2.73987E+01  3.56761E+01  3.51037E+01  4.46666E+01  4.83648E+01  5.93608E+01  7.78778E+01  9.57815E+01  9.26473E+01
   8.75867E+01  5.98420E+01  1.01943E+01 -2.91109E+01 -5.57645E+01 -5.86006E+01 -6.36472E+01 -6.47624E+01 -6.26819E+01 -6.30783E+01
  -5.66179E+01 -6.63705E+01 -5.41469E+01 -3.54554E+01 -3.82227E+01 -4.55350E+01 -5.36384E+01 -4.09234E+01 -4.16853E+01 -3.45322E+01
  -2.49488E+01 -3.56691E+01 -2.47192E+01 -2.34849E+01 -2.18900E+01 -1.34327E+01 -1.77849E+01 -1.64811E+01 -1.11647E+01 -1.62679E+01
  -2.06665E+01 -4.51162E+00  2.85198E+00 -1.30918E+01 -1.64454E+01 -4.52872E+00 -1.32186E+01 -7.41565E+00  8.79868E+00  5.34233E+00
   1.38276E+01  1.45980E+01  2.48279E+01  2.90724E+01  1.12030E+01  1.83598E+01  1.08314E+01  4.28820E+00  2.94124E+00 -1.23461E+01
  -3.53084E+00 -1.76444E+01 -2.96558E+01 -3.06120E+01 -3.81227E+01 -2.23050E+01 -3.35820E+01 -2.70992E+01 -1.63841E+01 -3.04891E+01
  -2.66856E+01 -2.50481E+01 -1.41506E+01 -1.82000E+01 -8.10156E+00  1.34992E+01 -7.22130E+00 -6.09508E+00  3.69031E+00 -8.95836E+00
   5.51799E+00  3.36574E+00 -6.55234E+00  7.67794E+00  1.71432E+00  6.59769E+00  6.94612E-01 -1.38719E+01 -1.50431E+01 -2.36651E+01
  -2.26902E+01 -1.10363E+00 -2.80651E+00 -1.41352E+01  2.62754E+01  2.94036E+01  4.28312E+01  5.38075E+01  2.91769E+01  3.75310E+01
   1.77792E+01  1.72478E+01  1.97986E-01 -1.09857E+01  1.36064E+01  1.71788E+01  1.30936E+01  9.42319E+00  1.10242E+01 -1.33483E+01
  -7.13621E+00 -1.32241E+01 -1.98397E+01 -1.25977E+01 -3.50958E+01 -4.43740E+01 -5.46587E+01 -5.01296E+01 -5.84532E+01 -4.85678E+01
  -4.86054E+01 -4.99603E+01 -2.76667E+01 -3.64813E+01 -2.49617E+01 -2.02186E+01 -1.32981E+01 -2.17552E+01 -2.51137E+01 -1.26596E+01
  -2.55823E+01 -2.04719E+01 -1.99301E+01 -1.62579E+01 -2.64932E+01 -1.82909E+01  2.36332E+01  6.32447E+01  1.21842E+02  1.49527E+02
   1.43147E+02  1.43400E+02  1.37155E+02  1.12403E+02  1.01692E+02  9.74840E+01  8.90757E+01  8.38253E+01  7.17539E+01  7.52334E+01
   8.22350E+01  8.97832E+01  8.28105E+01  7.12355E+01  8.67961E+01  8.70353E+01  6.88210E+01  5.90092E+01  6.92486E+01  7.04412E+01
   5.74019E+01  5.58963E+01  5.57633E+01  5.56710E+01  4.64340E+01  5.11434E+01  4.49028E+01  2.51021E+01  3.41151E+01  3.11613E+01
   3.01516E+01  3.19439E+01  2.46827E+01  1.51014E+01  4.90841E+00  8.77914E+00  2.89476E+00  6.89854E+00  8.10477E+00 -4.61390E+00
   2.67086E+00  1.26891E+01  1.55398E+01  1.79596E+01  2.10974E+01  3.69176E+01  4.75469E+01  3.21407E+01  5.20637E+01  6.90209E+01
   5.29437E+01  7.19319E+01  7.61972E+01  7.36541E+01  8.51380E+01  8.94039E+01  8.80886E+01  6.44312E+01  5.69652E+01  6.00139E+01
   4.64342E+01  4.42273E+01  4.67464E+01  3.35852E+01  3.67130E+01  3.77298E+01  1.89180E+01  1.06531E+01 -6.16241E+00 -1.67668E+01
  -2.84548E+01 -4.35614E+01 -4.73062E+01 -4.39031E+01 -3.98130E+01 -4.80402E+01 -3.02677E+01 -2.16200E+01 -2.51742E+01 -1.36238E+01
  -1.51206E+01 -1.00548E+01  4.57130E+00  5.85777E+00 -1.92010E+00  6.16928E+00  1.00081E+01  2.39978E+01  3.18091E+01  2.49543E+01
   3.10711E+01  2.27113E+01  3.83624E+01  3.00246E+01  1.63331E+01  3.03261E+01  4.46932E+00  8.11112E+00  1.78252E+01  1.08190E+01
   1.87964E+01  2.62716E+01  3.18605E+01  2.52093E+01  3.86043E+01  3.82518E+01  3.41973E+01  4.06507E+01  3.26457E+01  5.19605E+01
   5.18151E+01  5.57643E+01  6.32086E+01  4.95770E+01  6.49713E+01  6.57707E+01  6.76005E+01  8.22883E+01  8.41339E+01  8.11503E+01
   9.14946E+01  9.33987E+01  9.61200E+01  1.16671E+02  1.01135E+02  1.07660E+02  1.18206E+02  1.22448E+02  1.33879E+02  1.10353E+02
   1.15046E+02  1.13522E+02  7.97886E+01  7.00243E+01  7.41038E+01  5.74014E+01  5.95579E+01  6.47803E+01  4.06032E+01  3.61000E+01
   1.84385E+01  7.65705E+00  5.94895E+00 -1.24412E+01 -8.86794E+00 -5.35465E+00 -2.17286E+00  8.11878E+00  1.50104E+00 -8.74188E+00
  -7.05598E+00  9.73214E-02  6.02181E-01 -2.78626E+00 -2.58862E-02 -4.36561E+00 -3.65129E+00  5.66211E+00  8.57286E+00 -4.08512E+00
  -6.82116E+00  3.70023E+00 -8.29762E+00 -2.24973E+00 -5.89334E-01 -7.22497E+00 -6.14028E+00 -1.26842E+01 -3.60273E-01  1.90954E+00
   9.69114E-01  1.72347E+00  9.43267E-01  2.73745E+00 -8.40405E+00 -4.91527E+00  8.39574E+00  1.58984E+00 -7.94832E-01  7.21734E+00
  -3.43541E+00 -3.27530E+00  3.63632E+00 -4.16555E+00 -3.90399E+00 -6.79476E+00 -1.25936E+01  2.36278E+00  7.08599E+00  2.93008E+00
   9.61307E+00  4.10545E+00  1.37199E+01  1.00814E+01 -1.21442E+01  2.79685E+00 -4.61970E-01 -1.03306E+01  1.11630E+01 -2.47589E+00
  -7.18319E+00  5.27084E+00 -7.19963E+00  4.01797E+00 -2.71669E-01 -3.38757E+00 -3.21386E+00 -1.45418E+01  1.20470E+01  1.55369E+01
  -8.33974E+00  1.82793E+00  1.70274E+01  3.47458E-01  3.57760E+00  9.48621E+00  5.43391E+00  1.27264E+01  1.08503E+01  8.31929E+00
 NY points of the fit to the data follow
  -2.74253E+00 -7.40013E+00 -1.00789E+01 -9.16804E+00 -4.34598E+00  2.38294E+00  7.57872E+00  8.87572E+00  6.91410E+00  3.67291E+00
   2.10195E-03 -3.91164E+00 -7.76509E+00 -1.15031E+01 -1.52582E+01 -1.87315E+01 -2.13357E+01 -2.52672E+01 -3.33642E+01 -4.36908E+01
  -5.29282E+01 -5.65581E+01 -4.89319E+01 -2.95059E+01 -4.88484E+00  1.52480E+01  2.60632E+01  3.13988E+01  3.40326E+01  3.34509E+01
   3.14483E+01  2.94324E+01  2.67980E+01  2.36453E+01  1.99026E+01  1.45436E+01  6.17572E+00 -5.57914E+00 -1.98769E+01 -3.35371E+01
  -4.11887E+01 -3.90067E+01 -2.72855E+01 -9.92233E+00  8.23400E+00  2.38560E+01  3.46474E+01  3.99019E+01  4.13786E+01  4.06793E+01
   3.79072E+01  3.30942E+01  2.68450E+01  1.91720E+01  1.04346E+01  3.21331E+00 -1.38050E+00 -4.05007E+00 -4.32971E+00 -1.65796E+00
   3.76700E+00  1.08749E+01  1.87587E+01  2.72033E+01  3.27283E+01  3.19546E+01  2.59544E+01  1.61182E+01  4.85916E+00 -2.68800E+00
  -3.75064E+00  5.10207E-01  7.48944E+00  1.62276E+01  2.59641E+01  3.38852E+01  3.85068E+01  4.13366E+01  4.19434E+01  3.97589E+01
   3.51179E+01  2.86017E+01  2.17581E+01  1.66266E+01  1.44100E+01  1.61047E+01  2.08483E+01  2.71217E+01  3.36813E+01  3.95653E+01
   4.44832E+01  4.88271E+01  5.25242E+01  5.59462E+01  5.86077E+01  6.04342E+01  6.17516E+01  6.20937E+01  6.11460E+01  5.97134E+01
   5.66242E+01  5.10411E+01  4.34457E+01  3.80693E+01  3.25469E+01  2.29184E+01  7.71719E+00 -1.48732E+01 -4.48121E+01 -7.24352E+01
  -8.64444E+01 -8.25050E+01 -6.97642E+01 -5.61954E+01 -4.22530E+01 -2.94376E+01 -2.06981E+01 -1.34367E+01 -6.72813E+00 -2.56724E-01
   6.32030E+00  1.33653E+01  2.12991E+01  3.02430E+01  3.95626E+01  4.83513E+01  6.00853E+01  7.49817E+01  8.73004E+01  9.27205E+01
   8.56726E+01  6.00396E+01  1.97496E+01 -2.11984E+01 -4.76038E+01 -5.74427E+01 -5.96030E+01 -5.77495E+01 -5.27090E+01 -4.92776E+01
  -4.84071E+01 -4.82876E+01 -4.84298E+01 -4.83384E+01 -4.76089E+01 -4.61289E+01 -4.39208E+01 -4.12213E+01 -3.84809E+01 -3.59583E+01
  -3.36464E+01 -3.14170E+01 -2.90852E+01 -2.66230E+01 -2.41709E+01 -2.20580E+01 -2.04500E+01 -1.91459E+01 -1.79125E+01 -1.65818E+01
  -1.52589E+01 -1.42454E+01 -1.37239E+01 -1.35360E+01 -1.33334E+01 -1.31204E+01 -1.30507E+01 -1.24093E+01 -1.00946E+01 -5.82651E+00
  -3.23463E-01  4.60962E+00  7.17927E+00  7.43673E+00  6.78849E+00  6.80167E+00  7.04143E+00  5.24022E+00  6.65602E-01 -5.37739E+00
  -1.14707E+01 -1.65142E+01 -2.02955E+01 -2.27515E+01 -2.37329E+01 -2.38500E+01 -2.32406E+01 -2.20008E+01 -2.07475E+01 -1.88547E+01
  -1.62206E+01 -1.35686E+01 -1.06582E+01 -7.56999E+00 -4.54666E+00 -2.45657E+00 -1.79558E+00 -1.00099E+00  2.58241E-01  7.85711E-01
   1.56451E+00  3.42862E+00  5.94230E+00  7.88139E+00  8.02271E+00  6.34385E+00  2.81809E+00 -3.33405E+00 -1.04698E+01 -1.73672E+01
  -2.21969E+01 -2.20313E+01 -1.64960E+01 -5.10742E+00  1.10433E+01  2.73019E+01  4.03007E+01  4.75136E+01  4.82218E+01  4.50073E+01
   3.96140E+01  3.43716E+01  3.13794E+01  2.91098E+01  2.62639E+01  2.25670E+01  1.68511E+01  9.01288E+00 -4.52394E-01 -1.10274E+01
  -2.23026E+01 -3.32386E+01 -4.31908E+01 -5.17433E+01 -5.81506E+01 -6.20254E+01 -6.38573E+01 -6.35588E+01 -6.17646E+01 -5.84658E+01
  -5.34393E+01 -4.69711E+01 -3.88838E+01 -3.00614E+01 -2.27923E+01 -1.73679E+01 -1.46935E+01 -1.59054E+01 -2.07265E+01 -2.59249E+01
  -2.85764E+01 -3.16624E+01 -3.39863E+01 -3.09842E+01 -2.34293E+01 -9.60849E+00  1.64100E+01  5.36910E+01  9.05878E+01  1.11733E+02
   1.17041E+02  1.16192E+02  1.11055E+02  1.02729E+02  9.60897E+01  9.11522E+01  8.68127E+01  8.29779E+01  7.98000E+01  7.73857E+01
   7.57152E+01  7.46881E+01  7.40405E+01  7.35651E+01  7.31095E+01  7.25266E+01  7.17908E+01  7.08640E+01  6.96473E+01  6.81125E+01
   6.62756E+01  6.42578E+01  6.21288E+01  5.98914E+01  5.75494E+01  5.50528E+01  5.23965E+01  4.94812E+01  4.61655E+01  4.24916E+01
   3.85797E+01  3.46322E+01  3.10342E+01  2.81854E+01  2.64445E+01  2.59732E+01  2.66593E+01  2.82327E+01  3.03936E+01  3.28713E+01
   3.55274E+01  3.82146E+01  4.07742E+01  4.31713E+01  4.54821E+01  4.78041E+01  5.02070E+01  5.26898E+01  5.51872E+01  5.75658E+01
   5.96927E+01  6.16065E+01  6.33430E+01  6.48091E+01  6.58759E+01  6.65097E+01  6.68230E+01  6.68055E+01  6.56811E+01  6.32185E+01
   5.85571E+01  5.09992E+01  4.11881E+01  3.05495E+01  2.05224E+01  1.21482E+01  5.11691E+00 -7.92898E-01 -6.29776E+00 -1.18325E+01
  -1.66260E+01 -1.98765E+01 -2.13666E+01 -2.06121E+01 -1.79973E+01 -1.43038E+01 -1.03616E+01 -6.71996E+00 -3.55001E+00 -5.82604E-01
   2.58867E+00  6.17770E+00  1.00813E+01  1.39236E+01  1.72736E+01  1.98269E+01  2.14391E+01  2.22078E+01  2.21839E+01  2.11603E+01
   1.90787E+01  1.60598E+01  1.23478E+01  8.46223E+00  5.05958E+00  2.71782E+00  1.71766E+00  1.98993E+00  3.47508E+00  5.95774E+00
   9.10943E+00  1.27039E+01  1.64997E+01  2.02557E+01  2.38884E+01  2.73326E+01  3.06581E+01  3.39461E+01  3.72128E+01  4.04694E+01
   4.37989E+01  4.72497E+01  5.09449E+01  5.50112E+01  5.95547E+01  6.45811E+01  7.01063E+01  7.61778E+01  8.28239E+01  8.99512E+01
   9.74990E+01  1.05370E+02  1.13245E+02  1.20300E+02  1.25521E+02  1.27905E+02  1.26741E+02  1.21893E+02  1.14043E+02  1.04482E+02
   9.46702E+01  8.55516E+01  7.73853E+01  6.99849E+01  6.28182E+01  5.52640E+01  4.70247E+01  3.83458E+01  2.97524E+01  2.17724E+01
   1.48534E+01  9.30786E+00  5.08266E+00  1.96207E+00 -2.70977E-01 -1.83552E+00 -3.04048E+00 -4.03644E+00 -4.85059E+00 -5.46026E+00
  -5.85624E+00 -6.00800E+00 -5.98787E+00 -5.91101E+00 -5.81804E+00 -5.66050E+00 -5.49503E+00 -5.36417E+00 -5.18807E+00 -4.90228E+00
  -4.59832E+00 -4.38849E+00 -4.23685E+00 -4.04844E+00 -3.86446E+00 -3.70568E+00 -3.46818E+00 -3.11612E+00 -2.71883E+00 -2.40962E+00
  -2.23132E+00 -2.14132E+00 -2.07485E+00 -1.95154E+00 -1.71403E+00 -1.38598E+00 -1.00765E+00 -6.33124E-01 -3.05632E-01 -2.58972E-02
   1.92689E-01  3.30954E-01  4.20736E-01  4.57969E-01  5.13157E-01  6.80333E-01  9.15056E-01  1.16632E+00  1.40660E+00  1.60051E+00
   1.76264E+00  1.95615E+00  2.19247E+00  2.50711E+00  2.82275E+00  3.11544E+00  3.40283E+00  3.66231E+00  3.87994E+00  4.07464E+00
   4.18645E+00  4.22500E+00  4.23349E+00  4.32198E+00  4.53155E+00  4.88064E+00  5.32950E+00  5.79128E+00  6.10937E+00  6.23624E+00
   6.19953E+00  6.13572E+00  6.16034E+00  6.29878E+00  6.47360E+00  6.66671E+00  6.82234E+00  6.93922E+00  7.06400E+00  7.33236E+00
 NY background values follow
     2.601E+01    2.559E+01    2.517E+01    2.474E+01    2.432E+01    2.390E+01    2.347E+01    2.305E+01    2.263E+01    2.221E+01
     2.180E+01    2.138E+01    2.097E+01    2.056E+01    2.016E+01    1.976E+01    1.937E+01    1.898E+01    1.860E+01    1.822E+01
     1.785E+01    1.749E+01    1.714E+01    1.679E+01    1.645E+01    1.612E+01    1.580E+01    1.549E+01    1.519E+01    1.490E+01
     1.462E+01    1.435E+01    1.409E+01    1.384E+01    1.361E+01    1.338E+01    1.317E+01    1.297E+01    1.277E+01    1.259E+01
     1.242E+01    1.226E+01    1.211E+01    1.197E+01    1.183E+01    1.171E+01    1.160E+01    1.150E+01    1.140E+01    1.132E+01
     1.124E+01    1.118E+01    1.112E+01    1.107E+01    1.103E+01    1.100E+01    1.098E+01    1.096E+01    1.096E+01    1.096E+01
     1.097E+01    1.099E+01    1.101E+01    1.104E+01    1.108E+01    1.113E+01    1.118E+01    1.124E+01    1.131E+01    1.138E+01
     1.145E+01    1.154E+01    1.162E+01    1.171E+01    1.181E+01    1.191E+01    1.201E+01    1.212E+01    1.223E+01    1.234E+01
     1.246E+01    1.258E+01    1.270E+01    1.282E+01    1.295E+01    1.307E+01    1.320E+01    1.333E+01    1.346E+01    1.359E+01
     1.372E+01    1.385E+01    1.398E+01    1.411E+01    1.424E+01    1.437E+01    1.450E+01    1.462E+01    1.475E+01    1.488E+01
     1.501E+01    1.513E+01    1.526E+01    1.539E+01    1.551E+01    1.564E+01    1.576E+01    1.589E+01    1.601E+01    1.613E+01
     1.625E+01    1.638E+01    1.650E+01    1.662E+01    1.673E+01    1.685E+01    1.697E+01    1.708E+01    1.720E+01    1.731E+01
     1.743E+01    1.754E+01    1.765E+01    1.776E+01    1.786E+01    1.797E+01    1.807E+01    1.818E+01    1.828E+01    1.838E+01
     1.848E+01    1.857E+01    1.867E+01    1.876E+01    1.885E+01    1.894E+01    1.903E+01    1.911E+01    1.920E+01    1.928E+01
     1.935E+01    1.943E+01    1.950E+01    1.957E+01    1.964E+01    1.971E+01    1.977E+01    1.983E+01    1.988E+01    1.994E+01
     1.999E+01    2.004E+01    2.008E+01    2.012E+01    2.016E+01    2.019E+01    2.023E+01    2.026E+01    2.028E+01    2.030E+01
     2.032E+01    2.034E+01    2.035E+01    2.037E+01    2.037E+01    2.038E+01    2.038E+01    2.037E+01    2.037E+01    2.036E+01
     2.035E+01    2.033E+01    2.031E+01    2.029E+01    2.027E+01    2.024E+01    2.021E+01    2.017E+01    2.014E+01    2.010E+01
     2.005E+01    2.000E+01    1.995E+01    1.990E+01    1.984E+01    1.978E+01    1.972E+01    1.965E+01    1.958E+01    1.951E+01
     1.944E+01    1.936E+01    1.928E+01    1.920E+01    1.911E+01    1.903E+01    1.894E+01    1.884E+01    1.875E+01    1.865E+01
     1.856E+01    1.846E+01    1.835E+01    1.825E+01    1.814E+01    1.803E+01    1.792E+01    1.781E+01    1.770E+01    1.758E+01
     1.747E+01    1.735E+01    1.723E+01    1.711E+01    1.699E+01    1.686E+01    1.673E+01    1.661E+01    1.647E+01    1.634E+01
     1.621E+01    1.607E+01    1.593E+01    1.578E+01    1.564E+01    1.549E+01    1.533E+01    1.518E+01    1.502E+01    1.486E+01
     1.470E+01    1.453E+01    1.436E+01    1.418E+01    1.400E+01    1.382E+01    1.363E+01    1.344E+01    1.325E+01    1.305E+01
     1.285E+01    1.264E+01    1.243E+01    1.222E+01    1.200E+01    1.178E+01    1.155E+01    1.132E+01    1.109E+01    1.085E+01
     1.062E+01    1.038E+01    1.013E+01    9.890E+00    9.643E+00    9.394E+00    9.143E+00    8.891E+00    8.636E+00    8.381E+00
     8.124E+00    7.867E+00    7.608E+00    7.348E+00    7.088E+00    6.828E+00    6.567E+00    6.306E+00    6.046E+00    5.785E+00
     5.525E+00    5.265E+00    5.006E+00    4.748E+00    4.492E+00    4.237E+00    3.984E+00    3.734E+00    3.486E+00    3.241E+00
     2.999E+00    2.760E+00    2.525E+00    2.294E+00    2.067E+00    1.845E+00    1.627E+00    1.415E+00    1.208E+00    1.006E+00
     8.106E-01    6.212E-01    4.382E-01    2.620E-01    9.281E-02   -6.906E-02   -2.233E-01   -3.697E-01   -5.080E-01   -6.378E-01
    -7.590E-01   -8.714E-01   -9.750E-01   -1.070E+00   -1.157E+00   -1.235E+00   -1.305E+00   -1.366E+00   -1.419E+00   -1.465E+00
    -1.502E+00   -1.531E+00   -1.553E+00   -1.567E+00   -1.573E+00   -1.571E+00   -1.562E+00   -1.546E+00   -1.523E+00   -1.492E+00
    -1.454E+00   -1.409E+00   -1.357E+00   -1.298E+00   -1.232E+00   -1.159E+00   -1.080E+00   -9.948E-01   -9.027E-01   -8.043E-01
    -6.996E-01   -5.888E-01   -4.721E-01   -3.497E-01   -2.218E-01   -8.871E-02    4.940E-02    1.923E-01    3.398E-01    4.917E-01
     6.477E-01    8.077E-01    9.713E-01    1.138E+00    1.309E+00    1.482E+00    1.659E+00    1.838E+00    2.019E+00    2.203E+00
     2.388E+00    2.575E+00    2.764E+00    2.954E+00    3.146E+00    3.338E+00    3.530E+00    3.724E+00    3.917E+00    4.110E+00
     4.304E+00    4.497E+00    4.689E+00    4.881E+00    5.072E+00    5.263E+00    5.452E+00    5.641E+00    5.829E+00    6.015E+00
     6.200E+00    6.384E+00    6.566E+00    6.747E+00    6.926E+00    7.104E+00    7.279E+00    7.453E+00    7.624E+00    7.794E+00
     7.961E+00    8.125E+00    8.287E+00    8.447E+00    8.604E+00    8.758E+00    8.909E+00    9.057E+00    9.202E+00    9.344E+00
     9.482E+00    9.618E+00    9.749E+00    9.878E+00    1.000E+01    1.013E+01    1.024E+01    1.036E+01    1.047E+01    1.058E+01
     1.068E+01    1.079E+01    1.088E+01    1.098E+01    1.107E+01    1.116E+01    1.125E+01    1.133E+01    1.141E+01    1.148E+01
     1.155E+01    1.162E+01    1.169E+01    1.175E+01    1.181E+01    1.186E+01    1.191E+01    1.196E+01    1.200E+01    1.205E+01
     1.208E+01    1.212E+01    1.215E+01    1.218E+01    1.220E+01    1.223E+01    1.225E+01    1.226E+01    1.228E+01    1.229E+01
     1.230E+01    1.230E+01    1.231E+01    1.231E+01    1.231E+01    1.231E+01    1.230E+01    1.230E+01    1.229E+01    1.228E+01
     1.227E+01    1.226E+01    1.224E+01    1.223E+01    1.221E+01    1.219E+01    1.217E+01    1.215E+01    1.213E+01    1.211E+01
     1.209E+01    1.206E+01    1.204E+01    1.201E+01    1.199E+01    1.196E+01    1.194E+01    1.191E+01    1.188E+01    1.186E+01
     1.183E+01    1.180E+01    1.177E+01    1.174E+01    1.171E+01    1.168E+01    1.165E+01    1.162E+01    1.159E+01    1.156E+01
     1.153E+01    1.150E+01    1.147E+01    1.144E+01    1.142E+01    1.139E+01    1.136E+01    1.133E+01    1.130E+01    1.127E+01
 Mac      Conc. = 2.90E-04
   5.11146E+00  4.33116E+00  3.48249E+00  2.41280E+00  1.00054E+00 -7.57163E-01 -2.76088E+00 -4.75630E+00 -6.45669E+00 -7.70985E+00
  -8.61808E+00 -9.52198E+00 -1.07540E+01 -1.22024E+01 -1.35518E+01 -1.42611E+01 -1.35904E+01 -1.13391E+01 -8.06162E+00 -4.56811E+00
  -1.38521E+00  1.31587E+00  3.32829E+00  4.63979E+00  5.72430E+00  6.92525E+00  8.24620E+00  9.68242E+00  1.11518E+01  1.24486E+01
   1.33803E+01  1.38697E+01  1.39791E+01  1.38773E+01  1.39136E+01  1.44351E+01  1.55283E+01  1.69215E+01  1.81191E+01  1.88437E+01
   1.92056E+01  1.95666E+01  2.01640E+01  2.09280E+01  2.15810E+01  2.18493E+01  2.15864E+01  2.08190E+01  1.96828E+01  1.83890E+01
   1.71375E+01  1.60543E+01  1.52230E+01  1.47184E+01  1.45897E+01  1.48951E+01  1.56520E+01  1.67512E+01  1.80177E+01  1.92486E+01
   2.02727E+01  2.08928E+01  2.09609E+01  2.05541E+01  1.99089E+01  1.91849E+01  1.86056E+01  1.83984E+01  1.87008E+01  1.97209E+01
   2.14433E+01  2.34951E+01  2.53763E+01  2.67059E+01  2.74103E+01  2.75425E+01  2.71768E+01  2.65602E+01  2.59316E+01  2.54307E+01
   2.51713E+01  2.51841E+01  2.55258E+01  2.61990E+01  2.70325E+01  2.79074E+01  2.87799E+01  2.95836E+01  3.02923E+01  3.09029E+01
   3.13935E+01  3.16850E+01  3.16203E+01  3.10372E+01  2.98395E+01  2.80793E+01  2.59748E+01  2.37778E+01  2.16572E+01  1.96342E+01
   1.75621E+01  1.50765E+01  1.17938E+01  7.55147E+00  2.37228E+00 -3.31834E+00 -8.64558E+00 -1.26304E+01 -1.46440E+01 -1.46960E+01
