 
 $NMID
 ID=''
 FMTDAT='(2E13.5)'
 TRAMP=   1.00000E+0
 VOLUME=   1.00000E+0
 $END
  -3.67317E+5   6.14705E+5
  -1.46416E+6   1.13811E+6
  -1.31662E+6   1.22388E+6
  -1.36478E+6   1.08322E+6
  -1.45384E+6   1.13067E+6
  -1.35617E+6   1.10807E+6
  -1.36259E+6   9.68027E+5
  -1.45870E+6   9.72569E+5
  -1.42265E+6   1.00493E+6
  -1.39520E+6   9.44649E+5
  -1.41313E+6   9.07080E+5
  -1.40337E+6   8.76949E+5
  -1.41689E+6   8.41881E+5
  -1.41802E+6   8.45922E+5
  -1.38011E+6   8.17965E+5
  -1.38329E+6   7.69532E+5
  -1.40569E+6   7.60335E+5
  -1.39044E+6   7.32890E+5
  -1.38742E+6   6.85442E+5
  -1.39157E+6   6.63413E+5
  -1.38192E+6   6.27549E+5
  -1.38476E+6   5.88312E+5
  -1.38191E+6   5.72161E+5
  -1.36824E+6   5.42278E+5
  -1.36656E+6   5.02714E+5
  -1.35821E+6   4.89707E+5
  -1.34514E+6   4.69086E+5
  -1.34220E+6   4.44906E+5
  -1.33253E+6   4.26487E+5
  -1.31580E+6   4.03839E+5
  -1.31409E+6   3.75475E+5
  -1.30706E+6   3.54210E+5
  -1.29445E+6   3.25680E+5
  -1.28686E+6   2.98992E+5
  -1.27566E+6   2.76297E+5
  -1.26557E+6   2.48995E+5
  -1.26155E+6   2.21589E+5
  -1.25076E+6   1.98297E+5
  -1.23581E+6   1.73588E+5
  -1.22775E+6   1.52283E+5
  -1.21615E+6   1.33984E+5
  -1.20162E+6   1.14055E+5
  -1.18968E+6   9.77207E+4
  -1.17915E+6   8.20600E+4
  -1.16595E+6   6.41201E+4
  -1.15527E+6   4.74075E+4
  -1.14352E+6   2.81548E+4
  -1.13121E+6   5.15534E+3
  -1.11720E+6  -1.50984E+4
  -1.10330E+6  -3.31102E+4
  -1.09067E+6  -5.34982E+4
  -1.07875E+6  -7.43056E+4
  -1.06595E+6  -9.30407E+4
  -1.05349E+6  -1.11095E+5
  -1.04016E+6  -1.29001E+5
  -1.02624E+6  -1.46576E+5
  -1.01261E+6  -1.62462E+5
  -9.98819E+5  -1.76690E+5
  -9.84473E+5  -1.90096E+5
  -9.71728E+5  -2.04242E+5
  -9.57960E+5  -2.18384E+5
  -9.44505E+5  -2.32127E+5
  -9.31320E+5  -2.46363E+5
  -9.16900E+5  -2.61162E+5
  -9.01007E+5  -2.74788E+5
  -8.85363E+5  -2.87202E+5
  -8.71041E+5  -2.99866E+5
  -8.56341E+5  -3.12057E+5
  -8.42658E+5  -3.23379E+5
  -8.28856E+5  -3.35048E+5
  -8.13934E+5  -3.46241E+5
  -7.99078E+5  -3.55909E+5
  -7.85457E+5  -3.64175E+5
  -7.72122E+5  -3.73910E+5
  -7.57045E+5  -3.83505E+5
  -7.42220E+5  -3.91851E+5
  -7.27945E+5  -3.99568E+5
  -7.13874E+5  -4.08557E+5
  -6.98672E+5  -4.17634E+5
  -6.82941E+5  -4.25813E+5
  -6.67847E+5  -4.32835E+5
  -6.53271E+5  -4.40405E+5
  -6.38537E+5  -4.47370E+5
  -6.23358E+5  -4.53219E+5
  -6.08576E+5  -4.59262E+5
  -5.94294E+5  -4.64311E+5
  -5.80293E+5  -4.69050E+5
  -5.66604E+5  -4.73036E+5
  -5.53173E+5  -4.76346E+5
  -5.39809E+5  -4.79616E+5
  -5.26556E+5  -4.82906E+5
  -5.13480E+5  -4.85993E+5
  -4.99918E+5  -4.89180E+5
  -4.85433E+5  -4.92459E+5
  -4.71454E+5  -4.94530E+5
  -4.58733E+5  -4.96963E+5
  -4.45844E+5  -4.99452E+5
  -4.32150E+5  -5.02254E+5
  -4.18787E+5  -5.04215E+5
  -4.06668E+5  -5.05325E+5
  -3.94778E+5  -5.06743E+5
  -3.82309E+5  -5.08231E+5
  -3.69102E+5  -5.08703E+5
  -3.57504E+5  -5.08341E+5
  -3.46581E+5  -5.08095E+5
  -3.35663E+5  -5.08374E+5
  -3.24457E+5  -5.08350E+5
  -3.13078E+5  -5.08130E+5
  -3.01772E+5  -5.07060E+5
  -2.91380E+5  -5.05668E+5
  -2.81194E+5  -5.05095E+5
  -2.70700E+5  -5.05421E+5
  -2.59682E+5  -5.05381E+5
  -2.48837E+5  -5.04199E+5
  -2.38195E+5  -5.03129E+5
  -2.28074E+5  -5.02574E+5
  -2.17715E+5  -5.01192E+5
  -2.07781E+5  -4.99255E+5
  -1.98414E+5  -4.96672E+5
  -1.89645E+5  -4.94802E+5
  -1.80993E+5  -4.93379E+5
  -1.72185E+5  -4.91619E+5
  -1.63264E+5  -4.89605E+5
  -1.54740E+5  -4.87867E+5
  -1.46025E+5  -4.85749E+5
  -1.37519E+5  -4.82976E+5
  -1.29524E+5  -4.79986E+5
  -1.21521E+5  -4.77382E+5
  -1.13833E+5  -4.74896E+5
  -1.05972E+5  -4.72491E+5
  -9.75424E+4  -4.69700E+5
  -8.92651E+4  -4.66534E+5
  -8.16453E+4  -4.63121E+5
  -7.42685E+4  -4.60074E+5
  -6.69243E+4  -4.56976E+5
  -5.95616E+4  -4.53218E+5
  -5.28459E+4  -4.50116E+5
  -4.62872E+4  -4.46834E+5
  -3.94560E+4  -4.43448E+5
  -3.23065E+4  -4.39835E+5
  -2.57350E+4  -4.35982E+5
  -1.99504E+4  -4.31617E+5
  -1.40742E+4  -4.27497E+5
  -8.25359E+3  -4.24022E+5
  -2.18314E+3  -4.20250E+5
   3.54307E+3  -4.15843E+5
   9.05026E+3  -4.11196E+5
   1.45483E+4  -4.07034E+5
   1.95805E+4  -4.02247E+5
   2.47923E+4  -3.97537E+5
   2.93482E+4  -3.93205E+5
   3.36620E+4  -3.88660E+5
   3.81079E+4  -3.84100E+5
   4.23098E+4  -3.79853E+5
   4.69196E+4  -3.75071E+5
   5.07392E+4  -3.70541E+5
   5.49395E+4  -3.66279E+5
   5.89681E+4  -3.61722E+5
   6.28290E+4  -3.56784E+5
   6.63645E+4  -3.52035E+5
   7.02139E+4  -3.47392E+5
   7.36437E+4  -3.42604E+5
   7.73520E+4  -3.37927E+5
   8.05905E+4  -3.33045E+5
   8.38729E+4  -3.28383E+5
   8.68506E+4  -3.23889E+5
   8.96976E+4  -3.19751E+5
   9.29122E+4  -3.15141E+5
   9.59731E+4  -3.10508E+5
   9.83629E+4  -3.06110E+5
   1.01000E+5  -3.01732E+5
   1.03533E+5  -2.97559E+5
   1.06163E+5  -2.92842E+5
   1.08344E+5  -2.88881E+5
   1.10623E+5  -2.84460E+5
   1.13286E+5  -2.80242E+5
   1.15518E+5  -2.76380E+5
   1.18119E+5  -2.71803E+5
   1.20331E+5  -2.67011E+5
   1.22110E+5  -2.62729E+5
   1.24084E+5  -2.59107E+5
   1.26606E+5  -2.55108E+5
   1.28559E+5  -2.51218E+5
   1.30640E+5  -2.46694E+5
   1.32350E+5  -2.42920E+5
   1.34358E+5  -2.38889E+5
   1.35495E+5  -2.35029E+5
   1.36890E+5  -2.31266E+5
   1.38210E+5  -2.27759E+5
   1.39616E+5  -2.24145E+5
   1.41678E+5  -2.20627E+5
   1.43127E+5  -2.16865E+5
   1.44602E+5  -2.12802E+5
   1.45502E+5  -2.08762E+5
   1.47003E+5  -2.05078E+5
   1.47994E+5  -2.01325E+5
   1.49307E+5  -1.97713E+5
   1.50587E+5  -1.94022E+5
   1.51764E+5  -1.90314E+5
   1.53086E+5  -1.86625E+5
   1.53827E+5  -1.82944E+5
   1.54583E+5  -1.78947E+5
   1.55274E+5  -1.74874E+5
   1.56073E+5  -1.72006E+5
   1.56750E+5  -1.68377E+5
   1.57437E+5  -1.64709E+5
   1.58107E+5  -1.61049E+5
   1.58845E+5  -1.57320E+5
   1.59156E+5  -1.53886E+5
   1.59581E+5  -1.50274E+5
   1.59824E+5  -1.46447E+5
   1.60137E+5  -1.43354E+5
   1.60244E+5  -1.40001E+5
   1.60577E+5  -1.36652E+5
   1.61042E+5  -1.32844E+5
   1.61048E+5  -1.29461E+5
   1.60889E+5  -1.26100E+5
   1.60547E+5  -1.23046E+5
   1.60376E+5  -1.19936E+5
   1.60529E+5  -1.16725E+5
   1.60031E+5  -1.13618E+5
   1.59664E+5  -1.10410E+5
   1.59472E+5  -1.07710E+5
   1.59180E+5  -1.04669E+5
   1.58856E+5  -1.01216E+5
   1.58257E+5  -9.83293E+4
   1.57833E+5  -9.54361E+4
   1.57020E+5  -9.26448E+4
   1.56845E+5  -9.01815E+4
   1.56185E+5  -8.71334E+4
   1.55537E+5  -8.43696E+4
   1.54526E+5  -8.17348E+4
   1.53816E+5  -7.89677E+4
   1.53408E+5  -7.67262E+4
   1.52625E+5  -7.42183E+4
   1.51604E+5  -7.19421E+4
   1.50943E+5  -6.95198E+4
   1.49728E+5  -6.75231E+4
   1.48929E+5  -6.48928E+4
   1.47972E+5  -6.29135E+4
   1.47122E+5  -6.07295E+4
   1.46395E+5  -5.87612E+4
   1.45298E+5  -5.68309E+4
   1.44255E+5  -5.46116E+4
   1.43313E+5  -5.23356E+4
   1.42455E+5  -5.03491E+4
   1.41301E+5  -4.86072E+4
   1.40424E+5  -4.65898E+4
   1.39159E+5  -4.50151E+4
   1.38276E+5  -4.28253E+4
   1.37233E+5  -4.12437E+4
   1.36289E+5  -3.95516E+4
   1.35245E+5  -3.75693E+4
   1.34163E+5  -3.59346E+4
   1.33053E+5  -3.41971E+4
   1.31881E+5  -3.28528E+4
   1.30918E+5  -3.14793E+4
   1.30052E+5  -2.92556E+4
   1.28911E+5  -2.75697E+4
   1.27930E+5  -2.60477E+4
   1.26701E+5  -2.44790E+4
   1.25794E+5  -2.28581E+4
   1.24645E+5  -2.10035E+4
   1.23408E+5  -1.98863E+4
   1.22170E+5  -1.83222E+4
   1.21195E+5  -1.71199E+4
   1.20234E+5  -1.57864E+4
   1.19027E+5  -1.40468E+4
   1.17786E+5  -1.24333E+4
   1.16587E+5  -1.16851E+4
   1.15712E+5  -1.01383E+4
   1.14170E+5  -9.00815E+3
   1.13049E+5  -7.42013E+3
   1.11885E+5  -6.43431E+3
   1.10865E+5  -5.32599E+3
   1.09689E+5  -3.94038E+3
   1.08445E+5  -2.62843E+3
   1.07109E+5  -1.23802E+3
   1.05787E+5   1.73849E+2
   1.04723E+5   7.89132E+2
   1.03546E+5   1.90225E+3
   1.02301E+5   3.02373E+3
   1.01177E+5   4.21018E+3
   1.00038E+5   5.13699E+3
   9.89540E+4   5.93058E+3
   9.75128E+4   7.24284E+3
   9.62895E+4   8.16232E+3
   9.48167E+4   8.93726E+3
   9.37929E+4   9.58183E+3
   9.26115E+4   1.06391E+4
   9.16360E+4   1.12089E+4
   9.03009E+4   1.20513E+4
   8.90481E+4   1.31942E+4
   8.80768E+4   1.38282E+4
   8.66811E+4   1.47799E+4
   8.56055E+4   1.52516E+4
   8.44817E+4   1.59463E+4
   8.32143E+4   1.67993E+4
   8.22418E+4   1.73755E+4
   8.12064E+4   1.78246E+4
   8.00970E+4   1.86889E+4
   7.86954E+4   1.91435E+4
   7.75116E+4   1.97301E+4
   7.65283E+4   2.01474E+4
   7.52824E+4   2.11097E+4
   7.41658E+4   2.12830E+4
   7.29270E+4   2.20019E+4
   7.19806E+4   2.21715E+4
   7.08798E+4   2.26800E+4
   6.96920E+4   2.30997E+4
   6.87779E+4   2.38620E+4
   6.77330E+4   2.42791E+4
   6.63782E+4   2.46582E+4
   6.56473E+4   2.52901E+4
   6.43469E+4   2.56824E+4
   6.32323E+4   2.58255E+4
   6.23992E+4   2.61609E+4
   6.14097E+4   2.64473E+4
   6.03706E+4   2.69384E+4
   5.92938E+4   2.70182E+4
   5.84526E+4   2.72400E+4
   5.75198E+4   2.75407E+4
   5.62847E+4   2.77820E+4
   5.52898E+4   2.80977E+4
   5.43255E+4   2.85264E+4
   5.33407E+4   2.83938E+4
   5.26221E+4   2.85953E+4
   5.18053E+4   2.90772E+4
   5.03353E+4   2.91632E+4
   4.95067E+4   2.92895E+4
   4.85287E+4   2.93261E+4
   4.76429E+4   2.93751E+4
   4.68135E+4   2.96753E+4
   4.61710E+4   2.97839E+4
   4.52681E+4   2.99858E+4
   4.44238E+4   2.97838E+4
   4.34600E+4   3.01390E+4
   4.24715E+4   3.02691E+4
   4.15613E+4   3.05196E+4
   4.08119E+4   3.00944E+4
   4.00864E+4   3.03399E+4
   3.93317E+4   3.05239E+4
   3.82629E+4   3.05347E+4
   3.74528E+4   3.06322E+4
   3.68427E+4   3.06325E+4
   3.58710E+4   3.04181E+4
   3.51249E+4   3.05778E+4
   3.43951E+4   3.06772E+4
   3.39593E+4   3.03787E+4
   3.32164E+4   3.06570E+4
   3.24744E+4   3.04141E+4
   3.16601E+4   3.04534E+4
   3.10073E+4   3.04033E+4
   3.03233E+4   3.03182E+4
   2.94292E+4   3.03897E+4
   2.90520E+4   3.01773E+4
   2.83055E+4   3.01033E+4
   2.75510E+4   2.98582E+4
   2.69909E+4   3.02366E+4
   2.64789E+4   3.01954E+4
   2.58077E+4   2.99695E+4
   2.48318E+4   2.99576E+4
   2.44136E+4   2.99054E+4
   2.41069E+4   2.94589E+4
   2.32466E+4   2.94387E+4
   2.27462E+4   2.93707E+4
   2.21184E+4   2.95020E+4
