 
 $NMID
 ID=''
 FMTDAT='(2E13.5)'
 TRAMP=   1.00000E+0
 VOLUME=   1.00000E+0
 $END
  -2.45723E+4   1.23571E+4
  -2.80131E+4   4.31155E+4
   3.57238E+4   4.70016E+4
   5.03506E+4  -2.09313E+4
  -9.21603E+3  -5.81529E+4
  -4.79026E+4  -8.93840E+3
  -1.98277E+4   4.47663E+4
   2.73210E+4   3.35477E+4
   3.65274E+4  -1.63988E+4
  -2.90677E+3  -3.89394E+4
  -3.81646E+4  -8.80737E+3
  -1.97688E+4   2.85568E+4
   2.02630E+4   2.30123E+4
   2.57485E+4  -1.12629E+4
  -4.15506E+2  -2.64249E+4
  -2.06241E+4  -7.62475E+3
  -1.32109E+4   1.71182E+4
   1.04061E+4   1.73504E+4
   1.76004E+4  -3.79213E+3
   8.57958E+2  -1.58013E+4
  -1.25665E+4  -6.85946E+3
  -8.13640E+3   8.91939E+3
   2.90212E+3   1.21702E+4
   8.74331E+3  -3.57603E+2
   4.43661E+3  -1.00984E+4
  -4.45303E+3  -4.23372E+3
  -8.36516E+3   5.30846E+3
  -1.74599E+3   4.60271E+3
   6.77447E+3  -1.30891E+1
   5.66254E+3  -1.69752E+3
  -2.67789E+3  -2.68897E+3
  -6.20815E+3  -1.93768E+3
  -1.56127E+3   1.35089E+3
   3.61333E+3   2.85294E+3
   4.09432E+3   7.74287E+2
   1.56218E+3  -2.58595E+3
  -2.31875E+3  -2.55491E+3
  -3.40704E+3   1.07224E+3
  -7.48195E+2   3.57919E+3
   2.44887E+3   1.20404E+3
   2.72250E+3  -2.23140E+3
  -3.00323E+2  -2.87240E+3
  -2.82516E+3  -6.96845E+2
  -1.31975E+3   2.40504E+3
   2.46999E+3   2.78967E+3
   2.44950E+3   5.21696E+2
  -9.23489E+2  -2.80795E+3
  -2.90682E+3  -3.39748E+3
  -1.18000E+3   3.65488E+2
   1.22467E+3   2.93445E+3
   2.23982E+3   5.99202E+2
   1.34541E+3  -3.15956E+3
  -7.96480E+2  -1.65339E+3
  -2.52449E+3   1.38884E+3
  -7.95211E+2   2.33136E+3
   1.58561E+3   4.18086E+2
   1.86124E+3  -1.71121E+3
  -6.92718E+2  -1.62879E+3
  -1.93821E+3  -2.33633E+1
  -3.21864E+2   1.57154E+3
   1.63449E+3   1.74140E+3
   1.27097E+3   2.90457E+1
  -8.32040E+2  -1.32190E+3
  -1.77472E+3  -1.12674E+3
  -1.08497E+3   5.93414E+2
   4.77884E+2   9.80694E+2
   1.41513E+3  -1.47541E+2
   1.09182E+3  -1.32122E+3
  -2.91670E+2  -3.98869E+1
  -1.57150E+3   1.26092E+3
  -2.13884E+2   9.21489E+2
   1.73092E+3  -1.53338E+2
   1.41942E+3  -3.30475E+1
  -8.65295E+2  -7.85324E+1
  -1.33390E+3  -1.21370E+2
   1.57735E+2   3.59408E+2
   1.05775E+3   7.80719E+2
   4.37945E+2   2.37241E+1
  -4.65648E+2  -1.16397E+3
  -5.76576E+2  -4.28501E+2
  -1.95526E+2   8.41950E+2
   5.80257E+2   5.57579E+2
   6.27327E+2  -4.80447E+2
   3.76712E+2  -9.27294E+2
  -3.42593E+2  -7.23663E+1
  -2.02497E+2   5.49913E+2
   4.37778E+2   2.56200E+2
   5.36838E+2  -2.54719E+2
   1.77710E+2  -2.42247E+2
  -5.29481E+2  -1.16043E+2
  -4.29095E+2   2.09694E+2
   2.16587E+1   6.12833E+2
   6.46307E+1   6.12607E+1
  -2.74865E+2  -4.66595E+2
  -3.22989E+2  -7.50224E+2
  -1.10125E+2   2.44428E+2
   1.01580E+2   8.53798E+2
  -5.94871E+1   2.23089E+2
  -1.57200E+2  -6.63573E+2
   3.59106E+2  -1.88970E+2
  -1.94954E+2   5.94455E+2
  -4.69955E+2   2.84069E+2
   5.81374E+1  -2.59466E+2
   2.11707E+2  -3.18936E+2
   4.53667E+1   1.32481E+2
  -3.49360E+2   2.91690E+2
  -3.11386E+2   1.66273E+2
   1.19402E+2  -1.43259E+2
  -8.19380E+1  -8.56530E+1
  -2.33626E+1   2.12119E+1
   9.93635E+1   5.87178E+1
  -3.40652E+1   1.13122E+2
  -2.37482E+2   3.83775E+2
  -2.34957E+2   2.96075E+2
  -6.23729E+1  -5.73120E+1
  -6.95552E+1   2.14039E+2
  -2.68075E+2   7.01886E+1
   2.71040E+1   5.09849E+1
  -2.84354E+1  -1.97997E+1
   1.43875E+2   1.72272E+2
  -1.33632E+2   3.51545E+2
  -1.01302E+2   1.17092E+2
   1.73429E+2   2.19206E+2
  -1.51013E+0   2.80850E+2
  -1.35424E+2   2.43481E+2
  -3.42209E+1   1.82405E+2
   3.50820E+2   1.10007E+2
   7.55633E+1  -2.86881E+1
  -1.10954E+2   1.45081E+2
  -1.95357E+2   1.80199E+2
  -1.50528E+2   2.39801E+2
  -1.07998E+2   3.98815E+1
  -1.45194E+2   4.30590E+1
  -1.08083E+2  -1.10672E+2
   4.80847E+1  -5.73317E+1
   4.72376E+1   9.14221E+1
   1.19133E+2   4.69146E+1
   9.53937E+1   4.60584E+0
   1.07027E+2   6.37577E+1
  -2.05429E+2  -1.35396E+2
  -6.92133E+1  -6.56135E+1
  -6.60489E+1  -5.20249E+1
   1.81419E+2  -2.07959E+1
   5.79566E+1   8.57528E+1
   4.89966E+1  -2.33372E+1
  -1.67928E+2   9.05690E-1
   1.29086E+2   3.50573E+2
   2.18798E+2  -2.66372E+1
   7.66337E+1  -1.53973E+2
  -4.07611E+1   1.72022E+1
  -3.57115E+1   1.11124E+2
   1.60385E+2  -1.00557E+2
   1.08594E+2  -1.03260E+1
   1.82199E+2  -2.74589E+2
  -3.37123E+1  -1.31206E+2
  -1.15065E+2   2.13918E+2
   1.55682E+2   1.10311E+2
   2.48458E+2   1.06153E+2
  -4.26262E+1   4.93509E+1
  -1.25938E+2   1.32756E+2
   1.50715E+2  -1.79626E+2
  -1.95409E+2  -5.49955E+1
   6.91676E+1  -2.19902E+0
  -4.24588E+0  -1.55474E+2
  -2.54638E+1  -2.37013E+2
  -3.69161E+1   5.80009E+1
   3.07880E+0   3.41822E+2
   2.67549E+1   1.84014E+1
   2.93442E+0   6.87297E+1
  -1.30785E+1  -4.18255E+1
  -2.72326E+2   2.03892E+1
  -8.20076E+1   1.44059E+2
   1.05483E+2   1.48626E+1
   1.05321E+1  -8.95944E+1
   2.04133E+2   3.71643E+0
  -1.11158E+2  -1.82174E+0
   2.15148E+2   8.74872E+1
  -3.14934E+1   6.63101E+1
   1.90458E+2  -4.53050E+1
  -9.73001E+0  -1.02199E+2
   6.43990E-1   9.08860E+1
  -1.06785E+2   1.14648E+1
   3.84963E+1  -1.31569E+1
   7.83560E+1   1.26145E+2
   2.25961E+1  -3.57925E+1
  -3.32135E+1  -1.23973E+2
  -1.13075E+2  -4.45445E+1
   2.85119E+1  -1.50447E+2
   1.63919E+2  -2.33419E+2
  -8.61411E+1  -1.79324E+1
  -2.09186E+1   1.51067E+2
  -8.34761E-1  -1.13178E+2
   9.14747E+1   2.74534E+1
   2.88297E+1  -1.27556E+2
  -2.73122E+2  -9.17054E+1
  -2.08899E+1  -1.83582E+1
  -1.43881E+1  -1.60742E+2
   1.80238E+1  -3.26443E+1
   1.08481E+2   1.93586E+2
   6.25515E+1  -3.42632E+1
  -1.55176E+1  -5.98386E+1
   8.17481E+1   1.30849E+1
  -2.41484E+2  -7.41952E+1
  -3.93930E+1   1.25041E+0
   2.63348E+1   4.70713E+1
   1.52738E+2  -2.45899E+1
  -6.10941E+1  -5.62476E+0
  -1.11919E+2   1.06205E+2
  -1.43412E+2   9.39041E+1
  -1.13174E+2  -2.63920E+2
  -2.08237E+0   1.42248E+2
  -1.05571E+2  -1.00550E+2
   1.43479E+2  -1.55244E+2
   9.96296E+1   1.74729E+2
  -1.13450E+2   5.38996E+1
  -1.11202E+2   1.66874E+2
  -5.66791E+1   7.97082E+1
  -9.73445E+1   1.56687E+2
   4.88801E+1   1.20171E+2
   3.11523E+1   1.17160E+2
  -9.29368E+1   1.74566E+2
  -2.72076E+2  -2.71057E+0
   2.55853E+2   1.19900E+1
   1.38724E+2  -9.32700E+1
  -1.28354E+2  -1.06243E+1
  -1.05664E+2   1.12042E+1
  -7.72905E+1   2.06693E+2
  -1.35050E+1  -1.01256E+2
  -8.51767E+1  -7.56218E+1
  -2.47011E+1   1.02842E+1
  -1.70368E+2   1.13862E+2
  -2.00227E+2   8.36950E+1
   2.30094E+1  -1.46147E+1
   4.63341E+1  -2.04746E+2
  -7.14785E+1   1.18568E+2
  -1.25320E+2   1.59122E+2
   1.16174E+2   8.47713E+1
   4.69131E+1  -2.88778E+1
  -1.06000E+2  -2.30092E+2
   3.05342E+1  -5.90233E+1
   9.43208E+1   2.65945E+1
   7.80502E+1  -1.94428E+2
   8.41886E+1   2.00191E+1
   6.03426E+1  -6.98417E+1
  -4.86135E+0  -3.17351E+2
  -2.16041E+2   1.61476E+2
  -2.81935E+2  -1.53573E+1
  -3.21128E+1   5.43419E+1
   2.49359E+2  -3.44017E+1
   2.41043E+1  -3.41505E+1
  -2.91482E+1   5.27897E+1
  -1.10341E+2   4.17955E+1
  -4.75587E+1   5.63512E+1
  -1.91540E+2  -1.87370E+2
  -1.29232E+2   1.23824E+2
  -9.21568E+1  -2.42615E+2
  -2.67467E+2  -1.39504E+2
   1.84605E+2  -8.47303E+1
  -6.17840E+1   5.25630E+1
   1.09850E+2   7.79143E+1
   4.55760E+0  -1.63218E+2
   3.07463E+1  -2.33412E+2
  -3.38053E+1   9.26405E+1
  -1.44733E+2   1.91531E+2
  -8.79660E+1   1.48364E+2
   2.26634E+2   2.25917E+1
   1.21580E+1  -1.86800E+2
  -1.70940E+2  -1.13483E+2
  -1.09895E+2  -1.86556E+2
  -1.63149E+2  -8.62723E+1
   6.30047E+1  -1.96954E+1
   1.95525E+2   2.39152E+1
  -3.59007E+1  -2.24563E+2
  -2.24362E+2  -1.06628E+2
  -1.53230E+2   9.57086E+1
  -3.17485E+1   9.03241E+1
  -1.14430E+2   9.90151E+1
  -1.10688E+2   8.35515E+1
   1.15195E+2   8.70867E+1
  -1.28121E+2   1.93275E+2
   6.46287E+1  -7.28588E+1
  -3.55185E+1   2.49509E+2
  -1.60806E+2   6.36358E+1
  -7.20293E+1   1.13371E+2
  -8.45517E+1  -1.12418E+1
   2.86180E+1  -1.19945E+2
  -1.73351E+2   1.87347E+2
   5.07357E+1  -5.12791E+0
   7.63519E+0  -2.43429E+2
   3.10453E+1   2.01237E+2
  -1.07093E+2   1.37196E+2
  -3.00869E+2  -1.47543E+1
  -1.22640E+1  -2.19422E+2
  -9.79082E+1   1.52503E+2
  -2.92971E+2   1.19354E+2
  -1.71712E+2   9.20213E+0
  -1.31627E+2  -1.07557E+2
   2.23873E+1   1.20824E+1
   4.30363E+1   2.45573E+2
  -3.88574E+1  -1.48076E+2
  -7.46324E+1   1.28050E+2
  -3.51740E+1  -3.31134E+2
  -7.38785E+1   7.34682E+1
  -1.31256E+2  -1.09089E+2
  -1.34226E+2  -5.41719E+1
  -5.76082E+1  -1.64773E+1
   3.44885E+1  -7.03229E+1
   1.02988E+2  -1.33558E+2
   1.68082E+2   5.10265E+1
   6.04647E+1  -4.10188E+1
   4.31400E+1  -7.70004E+1
   2.56290E+1   1.20343E+1
   2.85149E+2   2.02567E+2
   1.29564E+2   8.22598E+1
  -2.21558E+2   1.73152E+2
   5.99722E+1  -6.17193E+1
   7.14125E+1   1.06371E+2
   1.71740E+2  -9.04507E+1
   9.04042E+1  -9.81292E+0
  -1.94936E+2   2.04578E+2
   1.24841E+2  -3.49739E+1
  -5.30571E+1  -1.68838E+1
  -5.05254E+0  -5.43143E+1
   2.50715E+1   1.36033E+2
   9.57502E+1  -1.44443E+2
   3.01928E+1  -1.48950E+0
   4.12803E+1  -1.17090E+2
   1.04894E+2   6.06844E+0
   1.63972E+2  -1.25909E+2
  -5.89419E+1  -9.22152E+0
   1.12652E+2  -1.00743E+2
  -5.36837E+1  -2.84716E+2
   1.17628E+2   1.66547E+1
  -6.72140E+1   9.29719E+1
  -1.67475E+2   1.27226E+2
  -3.77604E+2  -1.98629E+2
  -6.42387E+0   1.97298E+2
  -9.06284E+0   2.41256E+1
  -6.07699E+1  -5.89766E+1
   1.36396E+1  -3.10165E+1
  -8.85823E+1  -1.21579E+2
   8.58111E+0   3.21599E+1
  -3.44697E+1   6.37981E+1
  -4.24213E+1  -6.73677E+1
  -1.32404E+1  -6.14140E+1
   1.76559E+1  -6.03708E+1
  -3.35775E+2  -1.33966E+2
   7.16004E+0  -1.14596E+2
   5.91778E+0   5.00131E+1
   3.73466E+1  -1.43201E+2
   7.64906E+1  -2.77327E+2
   1.63228E+2  -5.18238E+1
   1.42069E+2  -2.56386E+2
  -1.43769E+2  -6.18278E+1
  -8.38813E+1  -1.34781E+2
  -1.29087E+2   1.86915E+1
   1.51603E+2  -1.30688E+2
  -6.93077E+0  -1.31677E+2
  -1.24837E+2  -3.79854E+1
  -4.53095E+1   5.68771E+1
  -1.13751E+2   3.26840E+1
  -1.17906E+1  -7.79048E+1
  -8.73133E+1   1.03178E+2
  -1.40368E+1  -1.21156E+2
  -1.58094E+2   7.92797E+1
   1.62529E+2  -1.20897E+2
  -5.99078E+1  -3.21921E+0
