 
 $NMID
 ID=''
 FMTDAT='(2E13.5)'
 TRAMP=   1.00000E+0
 VOLUME=   1.00000E+0
 $END
  -2.44939E+5   5.02673E+5
  -1.04105E+6   1.05929E+6
  -8.60234E+5   1.18248E+6
  -8.46372E+5   1.05669E+6
  -9.25929E+5   1.04022E+6
  -9.04897E+5   1.01955E+6
  -9.28106E+5   9.64217E+5
  -9.69215E+5   9.98241E+5
  -9.17592E+5   1.01308E+6
  -9.04572E+5   9.72096E+5
  -9.20542E+5   9.68942E+5
  -8.98570E+5   9.55612E+5
  -9.00953E+5   9.27650E+5
  -9.06127E+5   9.43293E+5
  -8.78880E+5   9.46295E+5
  -8.67213E+5   9.27824E+5
  -8.68140E+5   9.29377E+5
  -8.58731E+5   9.12472E+5
  -8.69406E+5   8.85334E+5
  -8.77815E+5   8.82683E+5
  -8.68918E+5   8.68919E+5
  -8.69931E+5   8.49902E+5
  -8.69021E+5   8.47585E+5
  -8.60789E+5   8.34765E+5
  -8.60249E+5   8.15253E+5
  -8.50446E+5   8.17330E+5
  -8.37083E+5   8.14785E+5
  -8.31433E+5   8.08108E+5
  -8.20627E+5   8.04759E+5
  -8.06458E+5   7.98892E+5
  -8.06529E+5   7.89439E+5
  -8.02327E+5   7.82792E+5
  -7.95898E+5   7.69562E+5
  -7.94222E+5   7.57181E+5
  -7.90561E+5   7.48774E+5
  -7.86964E+5   7.37146E+5
  -7.89443E+5   7.25392E+5
  -7.87245E+5   7.14262E+5
  -7.79048E+5   7.03277E+5
  -7.73677E+5   6.96474E+5
  -7.66692E+5   6.90451E+5
  -7.57296E+5   6.82665E+5
  -7.47858E+5   6.77666E+5
  -7.39614E+5   6.74302E+5
  -7.31137E+5   6.66944E+5
  -7.24324E+5   6.61648E+5
  -7.18812E+5   6.55486E+5
  -7.14893E+5   6.44417E+5
  -7.09875E+5   6.32074E+5
  -7.04486E+5   6.22333E+5
  -7.00666E+5   6.13103E+5
  -6.98443E+5   6.02840E+5
  -6.94804E+5   5.92901E+5
  -6.91446E+5   5.83132E+5
  -6.87053E+5   5.73700E+5
  -6.82297E+5   5.64349E+5
  -6.76635E+5   5.55725E+5
  -6.70486E+5   5.47544E+5
  -6.63967E+5   5.40472E+5
  -6.59208E+5   5.33161E+5
  -6.54718E+5   5.25361E+5
  -6.50017E+5   5.17372E+5
  -6.46716E+5   5.08749E+5
  -6.43095E+5   4.98801E+5
  -6.38390E+5   4.88085E+5
  -6.33414E+5   4.78129E+5
  -6.29493E+5   4.68707E+5
  -6.24852E+5   4.59153E+5
  -6.21081E+5   4.50936E+5
  -6.17837E+5   4.42848E+5
  -6.13999E+5   4.33615E+5
  -6.08273E+5   4.25408E+5
  -6.03633E+5   4.18684E+5
  -6.00131E+5   4.11108E+5
  -5.96078E+5   4.01885E+5
  -5.91321E+5   3.93774E+5
  -5.87381E+5   3.85937E+5
  -5.84121E+5   3.77734E+5
  -5.80493E+5   3.68602E+5
  -5.76209E+5   3.59320E+5
  -5.72279E+5   3.50567E+5
  -5.68635E+5   3.42421E+5
  -5.64894E+5   3.34030E+5
  -5.60865E+5   3.25918E+5
  -5.56277E+5   3.18418E+5
  -5.51484E+5   3.11523E+5
  -5.46872E+5   3.04786E+5
  -5.42461E+5   2.98240E+5
  -5.37741E+5   2.92179E+5
  -5.32497E+5   2.86590E+5
  -5.27456E+5   2.80644E+5
  -5.23048E+5   2.74547E+5
  -5.18519E+5   2.67845E+5
  -5.13377E+5   2.60411E+5
  -5.08189E+5   2.53632E+5
  -5.03277E+5   2.47123E+5
  -4.98806E+5   2.41024E+5
  -4.94434E+5   2.34108E+5
  -4.89395E+5   2.27766E+5
  -4.84077E+5   2.21831E+5
  -4.79178E+5   2.16713E+5
  -4.74459E+5   2.10448E+5
  -4.68876E+5   2.04308E+5
  -4.63097E+5   1.99169E+5
  -4.57498E+5   1.94583E+5
  -4.51926E+5   1.90057E+5
  -4.47071E+5   1.85292E+5
  -4.41717E+5   1.79721E+5
  -4.35658E+5   1.74144E+5
  -4.28951E+5   1.69642E+5
  -4.24001E+5   1.65433E+5
  -4.19201E+5   1.60394E+5
  -4.14514E+5   1.54824E+5
  -4.09131E+5   1.49698E+5
  -4.03812E+5   1.44585E+5
  -3.98998E+5   1.39312E+5
  -3.93743E+5   1.34289E+5
  -3.88574E+5   1.29218E+5
  -3.82417E+5   1.24568E+5
  -3.77220E+5   1.20797E+5
  -3.72501E+5   1.16424E+5
  -3.67515E+5   1.12175E+5
  -3.62573E+5   1.07964E+5
  -3.58265E+5   1.03826E+5
  -3.52916E+5   9.92493E+4
  -3.47602E+5   9.46873E+4
  -3.42523E+5   9.08998E+4
  -3.38019E+5   8.66266E+4
  -3.33402E+5   8.25326E+4
  -3.29066E+5   7.86411E+4
  -3.24864E+5   7.43262E+4
  -3.20150E+5   6.98175E+4
  -3.15265E+5   6.61189E+4
  -3.11017E+5   6.19679E+4
  -3.06765E+5   5.85121E+4
  -3.02052E+5   5.46904E+4
  -2.97722E+5   5.13105E+4
  -2.93826E+5   4.79185E+4
  -2.89762E+5   4.45284E+4
  -2.85995E+5   4.08819E+4
  -2.81562E+5   3.72727E+4
  -2.77338E+5   3.39996E+4
  -2.73038E+5   3.14379E+4
  -2.69195E+5   2.86677E+4
  -2.65934E+5   2.54572E+4
  -2.61940E+5   2.25049E+4
  -2.57510E+5   1.99159E+4
  -2.53783E+5   1.74509E+4
  -2.49802E+5   1.46535E+4
  -2.46095E+5   1.25499E+4
  -2.42267E+5   1.00627E+4
  -2.38423E+5   8.07262E+3
  -2.34642E+5   6.23614E+3
  -2.31208E+5   4.36725E+3
  -2.27505E+5   2.21803E+3
  -2.23597E+5   4.55913E+2
  -2.19988E+5  -9.53729E+2
  -2.16810E+5  -3.13268E+3
  -2.13210E+5  -4.51530E+3
  -2.09710E+5  -6.03358E+3
  -2.06415E+5  -7.34828E+3
  -2.02883E+5  -9.37398E+3
  -1.99443E+5  -1.05798E+4
  -1.95964E+5  -1.18852E+4
  -1.92541E+5  -1.31861E+4
  -1.89186E+5  -1.43112E+4
  -1.85737E+5  -1.53960E+4
  -1.82635E+5  -1.63905E+4
  -1.79618E+5  -1.77068E+4
  -1.76052E+5  -1.83517E+4
  -1.73002E+5  -1.95020E+4
  -1.70212E+5  -2.02283E+4
  -1.66910E+5  -2.08731E+4
  -1.64006E+5  -2.19497E+4
  -1.60890E+5  -2.26982E+4
  -1.58047E+5  -2.33390E+4
  -1.55299E+5  -2.41089E+4
  -1.52362E+5  -2.50239E+4
  -1.49263E+5  -2.57106E+4
  -1.46494E+5  -2.63618E+4
  -1.44135E+5  -2.69863E+4
  -1.41270E+5  -2.78552E+4
  -1.38639E+5  -2.85135E+4
  -1.36306E+5  -2.91642E+4
  -1.33611E+5  -3.00750E+4
  -1.31079E+5  -3.01939E+4
  -1.28598E+5  -3.10381E+4
  -1.26085E+5  -3.15255E+4
  -1.23759E+5  -3.17410E+4
  -1.21546E+5  -3.20502E+4
  -1.19161E+5  -3.27791E+4
  -1.17118E+5  -3.33069E+4
  -1.14450E+5  -3.39210E+4
  -1.12157E+5  -3.42078E+4
  -1.09872E+5  -3.48926E+4
  -1.07994E+5  -3.52350E+4
  -1.05890E+5  -3.58121E+4
  -1.03539E+5  -3.59382E+4
  -1.01527E+5  -3.67809E+4
  -9.93605E+4  -3.71544E+4
  -9.74832E+4  -3.75703E+4
  -9.55248E+4  -3.81121E+4
  -9.32259E+4  -3.83474E+4
  -9.14282E+4  -3.84242E+4
  -8.96173E+4  -3.88220E+4
  -8.77834E+4  -3.93368E+4
  -8.56590E+4  -3.97493E+4
  -8.43414E+4  -3.99696E+4
  -8.22368E+4  -4.01153E+4
  -8.05561E+4  -4.04136E+4
  -7.90345E+4  -4.06793E+4
  -7.71894E+4  -4.08023E+4
  -7.53285E+4  -4.10909E+4
  -7.40757E+4  -4.13627E+4
  -7.25329E+4  -4.16614E+4
  -7.06087E+4  -4.16185E+4
  -6.92694E+4  -4.16847E+4
  -6.77755E+4  -4.19399E+4
  -6.62345E+4  -4.18847E+4
  -6.49381E+4  -4.20302E+4
  -6.35463E+4  -4.18552E+4
  -6.21327E+4  -4.19626E+4
  -6.06166E+4  -4.20903E+4
  -5.95294E+4  -4.19744E+4
  -5.81045E+4  -4.20334E+4
  -5.71370E+4  -4.21122E+4
  -5.57706E+4  -4.17969E+4
  -5.46355E+4  -4.15423E+4
  -5.35477E+4  -4.18103E+4
  -5.24250E+4  -4.18876E+4
  -5.13569E+4  -4.15926E+4
  -5.00163E+4  -4.15090E+4
  -4.88801E+4  -4.10664E+4
  -4.81923E+4  -4.09927E+4
  -4.72715E+4  -4.08884E+4
  -4.63698E+4  -4.04727E+4
  -4.53395E+4  -4.02082E+4
  -4.43854E+4  -4.01564E+4
  -4.36064E+4  -4.01359E+4
  -4.24609E+4  -3.97299E+4
  -4.17968E+4  -3.93435E+4
  -4.10130E+4  -3.92878E+4
  -4.02766E+4  -3.87548E+4
  -3.94372E+4  -3.88379E+4
  -3.86946E+4  -3.86086E+4
  -3.78282E+4  -3.84676E+4
  -3.72455E+4  -3.80781E+4
  -3.63904E+4  -3.79084E+4
  -3.56415E+4  -3.76519E+4
  -3.50902E+4  -3.70677E+4
  -3.43323E+4  -3.68716E+4
  -3.38434E+4  -3.64210E+4
  -3.30220E+4  -3.65286E+4
  -3.20570E+4  -3.62452E+4
  -3.15487E+4  -3.57437E+4
  -3.11258E+4  -3.55333E+4
  -3.04262E+4  -3.53232E+4
  -3.00581E+4  -3.50926E+4
  -2.94243E+4  -3.49226E+4
  -2.88680E+4  -3.47264E+4
  -2.80401E+4  -3.45995E+4
  -2.74824E+4  -3.44969E+4
  -2.68816E+4  -3.42145E+4
  -2.63438E+4  -3.38600E+4
  -2.59384E+4  -3.35041E+4
  -2.53158E+4  -3.32176E+4
  -2.47924E+4  -3.30790E+4
  -2.41222E+4  -3.29861E+4
  -2.35960E+4  -3.29139E+4
  -2.28928E+4  -3.26706E+4
  -2.27527E+4  -3.25098E+4
  -2.23328E+4  -3.21284E+4
  -2.17396E+4  -3.23097E+4
  -2.12394E+4  -3.16769E+4
  -2.09898E+4  -3.18082E+4
  -2.02513E+4  -3.18203E+4
  -1.98449E+4  -3.14294E+4
  -1.95422E+4  -3.13800E+4
  -1.89617E+4  -3.11969E+4
  -1.85916E+4  -3.10361E+4
  -1.79732E+4  -3.08677E+4
  -1.80586E+4  -3.10499E+4
  -1.73438E+4  -3.05685E+4
  -1.74291E+4  -3.04015E+4
  -1.66294E+4  -3.04751E+4
  -1.61507E+4  -3.02872E+4
  -1.60652E+4  -3.01277E+4
  -1.57714E+4  -2.98795E+4
  -1.56192E+4  -2.97566E+4
  -1.51052E+4  -2.96293E+4
  -1.46995E+4  -2.94739E+4
  -1.42323E+4  -2.95782E+4
  -1.41630E+4  -2.93244E+4
  -1.38588E+4  -2.91987E+4
  -1.36748E+4  -2.90339E+4
  -1.34938E+4  -2.87665E+4
  -1.31649E+4  -2.87579E+4
  -1.28481E+4  -2.85130E+4
  -1.24434E+4  -2.85509E+4
  -1.23788E+4  -2.85189E+4
  -1.21439E+4  -2.82561E+4
  -1.18512E+4  -2.80798E+4
  -1.20026E+4  -2.79250E+4
  -1.18524E+4  -2.77286E+4
  -1.17349E+4  -2.76910E+4
  -1.10775E+4  -2.74160E+4
  -1.10830E+4  -2.74613E+4
  -1.10040E+4  -2.73739E+4
  -1.05922E+4  -2.72788E+4
  -1.05093E+4  -2.73344E+4
  -9.97822E+3  -2.66437E+4
  -1.01233E+4  -2.68587E+4
  -9.79772E+3  -2.65970E+4
  -9.80429E+3  -2.67207E+4
  -9.31935E+3  -2.64943E+4
  -9.16919E+3  -2.65303E+4
  -9.19109E+3  -2.61330E+4
  -8.88458E+3  -2.62274E+4
  -8.49388E+3  -2.59503E+4
  -8.52140E+3  -2.58664E+4
  -8.53127E+3  -2.57105E+4
  -8.33875E+3  -2.57885E+4
  -8.20139E+3  -2.55178E+4
  -7.87369E+3  -2.54471E+4
  -7.78308E+3  -2.51952E+4
  -7.63157E+3  -2.49015E+4
  -7.14573E+3  -2.49320E+4
  -7.15757E+3  -2.49682E+4
  -6.92494E+3  -2.47165E+4
  -6.75001E+3  -2.47060E+4
  -6.57481E+3  -2.45555E+4
  -6.50936E+3  -2.45631E+4
  -6.16442E+3  -2.42561E+4
  -6.05873E+3  -2.39966E+4
  -5.86018E+3  -2.41293E+4
  -5.62569E+3  -2.37718E+4
  -5.50729E+3  -2.36535E+4
  -5.56708E+3  -2.35737E+4
  -5.30808E+3  -2.34991E+4
  -5.10826E+3  -2.34778E+4
  -4.80030E+3  -2.32547E+4
  -4.44364E+3  -2.30729E+4
  -4.41854E+3  -2.30194E+4
  -4.39607E+3  -2.30324E+4
  -4.02014E+3  -2.26835E+4
  -3.98206E+3  -2.26268E+4
  -3.96209E+3  -2.25052E+4
  -3.72164E+3  -2.24536E+4
  -3.46594E+3  -2.21225E+4
  -3.16881E+3  -2.22863E+4
  -3.22587E+3  -2.21337E+4
  -3.09041E+3  -2.17482E+4
  -2.76469E+3  -2.18064E+4
  -2.71795E+3  -2.17909E+4
  -2.45629E+3  -2.16087E+4
  -2.44716E+3  -2.18178E+4
  -2.23242E+3  -2.16740E+4
  -2.00766E+3  -2.14328E+4
  -2.07650E+3  -2.12491E+4
  -1.77102E+3  -2.11984E+4
  -1.66920E+3  -2.09853E+4
  -1.40623E+3  -2.08789E+4
  -1.40566E+3  -2.07999E+4
  -1.23936E+3  -2.05635E+4
  -8.75024E+2  -2.04809E+4
  -8.97487E+2  -2.03229E+4
  -6.14475E+2  -2.03077E+4
