 LCModel (Version 6.3-1N) Copyright: S.W. Provencher.          Ref.: Magn. Reson. Med. 30:672-679 (1993).                
 Slice_N1@9_22  28-Feb-2025 11:44:24
 27 lines in following concentration table = NCONC+1
    Conc.  %SD /Cr+PCr  Metabolite                                         
 3.57E-04   5% 2.9E-04 Mac                                                 
    3.491 114%   2.797 Cr                                                  
    6.495  61%   5.203 PCr                                                 
    8.862  18%   7.099 Ins                                                 
   14.638  10%  11.726 NAA                                                 
    8.147  21%   6.526 Tau                                                 
    0.000 999%   0.000 PCho                                                
    2.075  20%   1.662 GPC                                                 
    8.651  21%   6.930 Glu                                                 
    8.039  18%   6.440 Gln                                                 
   20.406   7%  16.347 Ala                                                 
    6.065  38%   4.859 Asc                                                 
    4.277  40%   3.426 Asp                                                 
    0.269 352%   0.216 GABA                                                
    1.858  62%   1.488 Glc                                                 
    1.153  80%   0.924 GSH                                                 
    0.000 999%   0.000 Lac                                                 
    4.773  28%   3.824 NAAG                                                
    0.000 999%   0.000 PE                                                  
    2.075  20%   1.662 GPC+PCho                                            
   19.411   7%  15.550 NAA+NAAG                                            
   16.690  14%  13.370 Glu+Gln                                             
    9.986  11%   8.000 Cr+PCr                                              
   19.411   7%  15.550 NAA+NAAG                                            
    9.986  11%   8.000 Cr+PCr                                              
   16.690  14%  13.370 Glu+Gln                                             
   6 lines in following misc. output table
  FWHM = 0.049 ppm    S/N =   3                                            
  Data shift = 0.073 ppm                                                   
  Ph:-109 deg       0.0 deg/ppm                                            
  alphaB,S = 2.9E-01,   4.8E+01                                            
   19 spline knots.   Ns = 5(1)                                            
  ( 6) 4 infls.   ( 5) 1 extrs.                                            
  480 points on ppm-axis = NY
      4.100000     4.091866     4.083733     4.075600     4.067466     4.059333     4.051199     4.043066     4.034933     4.026799
      4.018666     4.010532     4.002399     3.994265     3.986132     3.977998     3.969864     3.961731     3.953597     3.945463
      3.937330     3.929196     3.921062     3.912929     3.904795     3.896662     3.888528     3.880394     3.872261     3.864127
      3.855993     3.847860     3.839726     3.831592     3.823459     3.815325     3.807191     3.799058     3.790924     3.782790
      3.774657     3.766523     3.758389     3.750256     3.742122     3.733989     3.725855     3.717721     3.709588     3.701454
      3.693320     3.685187     3.677053     3.668919     3.660786     3.652652     3.644518     3.636385     3.628251     3.620117
      3.611984     3.603850     3.595716     3.587583     3.579449     3.571316     3.563182     3.555048     3.546915     3.538781
      3.530647     3.522514     3.514380     3.506246     3.498113     3.489979     3.481845     3.473712     3.465578     3.457444
      3.449311     3.441177     3.433043     3.424910     3.416776     3.408643     3.400509     3.392375     3.384242     3.376108
      3.367974     3.359841     3.351707     3.343573     3.335440     3.327306     3.319172     3.311039     3.302905     3.294771
      3.286638     3.278504     3.270370     3.262237     3.254103     3.245970     3.237836     3.229702     3.221569     3.213435
      3.205301     3.197168     3.189034     3.180900     3.172767     3.164633     3.156499     3.148366     3.140232     3.132098
      3.123965     3.115831     3.107697     3.099564     3.091430     3.083297     3.075163     3.067029     3.058896     3.050762
      3.042628     3.034495     3.026361     3.018227     3.010094     3.001960     2.993826     2.985693     2.977559     2.969425
      2.961292     2.953158     2.945024     2.936891     2.928757     2.920624     2.912490     2.904356     2.896223     2.888089
      2.879955     2.871822     2.863688     2.855554     2.847421     2.839287     2.831153     2.823020     2.814886     2.806752
      2.798619     2.790485     2.782351     2.774218     2.766084     2.757951     2.749817     2.741683     2.733550     2.725416
      2.717282     2.709149     2.701015     2.692881     2.684748     2.676614     2.668480     2.660347     2.652213     2.644079
      2.635946     2.627812     2.619678     2.611545     2.603411     2.595278     2.587144     2.579010     2.570877     2.562743
      2.554609     2.546476     2.538342     2.530208     2.522075     2.513941     2.505807     2.497674     2.489540     2.481406
      2.473273     2.465139     2.457006     2.448872     2.440738     2.432605     2.424471     2.416337     2.408204     2.400070
      2.391936     2.383803     2.375669     2.367535     2.359402     2.351268     2.343134     2.335001     2.326867     2.318733
      2.310600     2.302466     2.294333     2.286199     2.278065     2.269932     2.261798     2.253664     2.245531     2.237397
      2.229263     2.221130     2.212996     2.204862     2.196729     2.188595     2.180461     2.172328     2.164194     2.156060
      2.147927     2.139793     2.131660     2.123526     2.115392     2.107259     2.099125     2.090991     2.082858     2.074724
      2.066590     2.058457     2.050323     2.042189     2.034056     2.025922     2.017788     2.009655     2.001521     1.993387
      1.985254     1.977120     1.968987     1.960853     1.952719     1.944586     1.936452     1.928318     1.920185     1.912051
      1.903917     1.895784     1.887650     1.879516     1.871383     1.863249     1.855115     1.846982     1.838848     1.830714
      1.822581     1.814447     1.806314     1.798180     1.790046     1.781913     1.773779     1.765645     1.757512     1.749378
      1.741244     1.733111     1.724977     1.716843     1.708710     1.700576     1.692442     1.684309     1.676175     1.668041
      1.659908     1.651774     1.643641     1.635507     1.627373     1.619240     1.611106     1.602972     1.594839     1.586705
      1.578571     1.570438     1.562304     1.554170     1.546037     1.537903     1.529769     1.521636     1.513502     1.505368
      1.497235     1.489101     1.480968     1.472834     1.464700     1.456567     1.448433     1.440299     1.432166     1.424032
      1.415898     1.407765     1.399631     1.391497     1.383364     1.375230     1.367096     1.358963     1.350829     1.342695
      1.334562     1.326428     1.318295     1.310161     1.302027     1.293894     1.285760     1.277626     1.269493     1.261359
      1.253225     1.245092     1.236958     1.228824     1.220691     1.212557     1.204423     1.196290     1.188156     1.180022
      1.171889     1.163755     1.155622     1.147488     1.139354     1.131221     1.123087     1.114953     1.106820     1.098686
      1.090552     1.082419     1.074285     1.066151     1.058018     1.049884     1.041750     1.033617     1.025483     1.017349
      1.009216     1.001082     0.992949     0.984815     0.976681     0.968548     0.960414     0.952280     0.944147     0.936013
      0.927879     0.919746     0.911612     0.903478     0.895345     0.887211     0.879077     0.870944     0.862810     0.854676
      0.846543     0.838409     0.830276     0.822142     0.814008     0.805875     0.797741     0.789607     0.781474     0.773340
      0.765206     0.757073     0.748939     0.740805     0.732672     0.724538     0.716404     0.708271     0.700137     0.692003
      0.683870     0.675736     0.667603     0.659469     0.651335     0.643202     0.635068     0.626934     0.618801     0.610667
      0.602533     0.594400     0.586266     0.578132     0.569999     0.561865     0.553731     0.545598     0.537464     0.529330
      0.521197     0.513063     0.504930     0.496796     0.488662     0.480529     0.472395     0.464261     0.456128     0.447994
      0.439861     0.431727     0.423593     0.415460     0.407326     0.399192     0.391059     0.382925     0.374792     0.366658
      0.358524     0.350391     0.342257     0.334124     0.325990     0.317856     0.309723     0.301589     0.293455     0.285322
      0.277188     0.269055     0.260921     0.252787     0.244654     0.236520     0.228386     0.220253     0.212119     0.203986
 NY phased data points follow
   2.60906E+01  2.72416E+01  2.08502E+01  1.10991E+01  3.32323E+01  3.73688E+01  3.47650E+01  2.28362E+01  1.39304E+01  8.90905E+00
   2.40183E-01  1.84761E+01  3.92530E+01  4.45934E+01  1.16596E+01 -1.32239E+01 -2.09916E+01 -2.10805E+01 -2.79846E+01 -3.40307E+01
  -2.23014E+01 -6.62888E+00  1.75133E+01  3.20042E+01  5.20561E+01  6.25956E+01  4.44077E+01  5.36002E+01  6.05396E+01  4.80471E+01
   6.84187E+01  4.34884E+01  6.11722E+01  7.51991E+01  3.26273E+01  5.67354E+01  4.15451E+01  3.29820E+01  1.10565E+01 -6.45856E+00
  -2.96350E+00 -2.65165E+01 -4.89522E+00  6.69233E-01  1.24167E+01  6.33087E+01  8.44116E+01  6.53591E+01  8.65207E+01  8.51349E+01
   9.55742E+01  8.85275E+01  6.48196E+01  9.61323E+01  4.77667E+01  7.31197E+01  8.47965E+01  3.52482E+01  4.98998E+01  6.52425E+01
   6.22291E+01  5.09851E+01  9.72276E+01  1.03821E+02  8.00844E+01  7.44377E+01  8.29865E+01  5.83944E+01  4.38471E+01  6.57139E+01
   3.32694E+01  4.15307E+01  6.92857E+01  7.57553E+01  7.20653E+01  8.97563E+01  7.39935E+01  8.52206E+01  1.04253E+02  6.25275E+01
   1.00857E+02  6.67183E+01  5.11285E+01  5.86023E+01  2.52220E+01  5.27810E+01  3.88987E+01  6.18796E+01  6.83783E+01  7.26378E+01
   1.11322E+02  9.18625E+01  9.50295E+01  1.14569E+02  1.15844E+02  1.15115E+02  1.17395E+02  9.69360E+01  9.42787E+01  1.13068E+02
   1.06018E+02  1.02529E+02  6.46306E+01  5.19825E+01  6.91595E+01  4.53923E+01  2.05002E+01 -5.25502E+00 -1.65844E+01 -4.44535E+01
  -3.81081E+01 -2.41972E+01 -5.00081E+01 -2.28512E+01 -7.99890E+00  1.03064E+00  1.39068E+01  8.12399E+00  1.53939E+01  4.28951E+01
   4.29946E+01  2.53931E+01  6.35089E+01  7.85495E+01  4.48450E+01  2.89363E+01  1.12608E+02  1.58863E+02  1.30608E+02  1.69651E+02
   1.39955E+02  7.16277E+01  3.52838E+01 -3.58739E+01 -5.23740E+01 -1.50330E+01 -2.13851E+01 -1.98248E+01 -1.68667E+01 -1.41103E+01
  -1.53401E+01 -3.90165E+01 -2.66493E+01 -2.62192E+01 -1.03906E+01 -1.80537E+01 -2.39157E+01  7.00859E-01 -3.38170E+00  3.07740E+00
  -2.80325E+00 -1.61653E+01 -2.84492E+01  9.25898E+00  2.20118E+00  1.40839E+00  2.16755E+01 -2.17285E+00  3.95852E+01  2.95580E+01
   2.80867E+01  2.82185E+01  2.42294E+01  2.23127E+01  3.35646E+00  2.45704E+01 -8.08873E+00  2.22563E+01  3.62459E+01  3.62682E+01
   7.45814E+01  5.50942E+01  6.35299E+01  7.92073E+01  7.47499E+01  5.16519E+01  5.89179E+01  6.33063E+01  4.35626E+01  2.84159E+01
   7.81463E+00  5.20356E-02 -4.35257E+00 -7.03520E+00 -1.80429E+01 -2.25034E+01 -1.60468E+01  4.02946E+00 -2.28134E+01 -1.74696E+01
   1.72179E+01  3.91983E-01  1.16344E+01  1.01116E+01  2.84964E+01  3.98732E+01  4.73421E+01  3.73077E+01  2.87413E+01  5.57346E+01
   2.63090E+01  6.42140E+01  8.03656E+01  5.42047E+01  7.28823E+01  4.97697E+01  2.13006E+01  2.79747E+01  4.42145E+01  7.33693E+00
  -6.32104E+00  1.98529E+01  2.11658E+01  5.15631E+01  9.82369E+01  9.48568E+01  8.32569E+01  8.97863E+01  8.02648E+01  5.57419E+01
   1.84722E+01  1.60916E+01  2.15369E+01  2.00364E+01  2.14375E+01  5.35798E+00 -4.55670E+00 -1.86222E+01 -8.76891E+00 -5.88682E-01
  -1.57003E+01 -7.73044E+00 -2.53750E+01 -4.13049E+01 -2.79438E+01 -5.50555E+01 -4.68132E+01 -4.70874E+01 -5.42755E+01 -2.43411E+01
  -4.89462E+01 -3.93667E+01 -2.89413E+01 -1.35134E+01  6.88052E+00 -1.09698E+01 -5.51308E+00  7.58619E+00 -1.53668E+00 -1.37157E+01
   3.79157E+01 -2.80401E+01 -9.92735E+01 -4.93709E+01 -5.97377E+01 -5.95791E+01  3.07192E+01  1.76974E+02  2.27451E+02  2.39433E+02
   2.20267E+02  1.86342E+02  1.96251E+02  1.45626E+02  1.41002E+02  1.37124E+02  1.29237E+02  1.44318E+02  1.16073E+02  1.02009E+02
   1.21853E+02  1.18305E+02  9.57390E+01  1.08629E+02  1.09519E+02  1.08958E+02  1.06022E+02  1.13902E+02  1.15593E+02  1.17469E+02
   1.25438E+02  1.01152E+02  1.09516E+02  1.12059E+02  1.20188E+02  1.07234E+02  1.02327E+02  1.13774E+02  9.09963E+01  1.05330E+02
   8.95020E+01  8.19441E+01  8.08348E+01  8.64704E+01  1.07249E+02  7.84473E+01  8.68463E+01  9.86051E+01  9.84590E+01  1.08051E+02
   1.15432E+02  1.18471E+02  1.24859E+02  1.43012E+02  1.43264E+02  1.59702E+02  1.59626E+02  1.66783E+02  1.85866E+02  1.73892E+02
   1.73160E+02  1.51367E+02  1.22686E+02  1.15930E+02  1.09350E+02  8.81994E+01  6.21680E+01  3.27548E+01  1.56064E+01  9.91010E+00
  -2.57256E+01 -4.99620E+01 -5.79255E+01 -8.21053E+01 -1.08328E+02 -1.09842E+02 -1.08105E+02 -1.05254E+02 -1.08604E+02 -1.20212E+02
  -1.12422E+02 -1.10773E+02 -9.86466E+01 -1.02845E+02 -9.02725E+01 -7.84788E+01 -8.00071E+01 -5.10182E+01 -5.05908E+01 -5.21349E+01
  -5.45895E+01 -3.95431E+01 -3.59890E+01 -1.39957E+00  3.44170E+01  4.10329E+00  1.78251E+01  1.51902E+01  2.85568E+01  4.33194E+01
   3.64421E+01  2.75683E+01  9.35723E+00  2.76391E+01  1.24167E+01  9.97454E+00  7.10701E+00  1.25926E+01  1.91518E+01 -2.75289E+01
  -6.60363E+00  4.47046E+00 -2.44145E+01 -7.72007E+00 -1.16499E+01 -3.67672E+00  1.52819E+01  1.42479E+01  4.34143E+01  3.83152E+01
   3.01593E+01  5.48044E+01  3.96242E+01  3.85093E+01  6.25888E+01  4.49455E+01  5.62335E+01  9.49633E+01  9.46347E+01  1.03391E+02
   9.69433E+01  1.08362E+02  1.36411E+02  1.43725E+02  1.48652E+02  1.49024E+02  1.78591E+02  1.88267E+02  1.88893E+02  1.61272E+02
   1.25524E+02  1.40511E+02  1.23917E+02  9.78565E+01  9.64406E+01  8.72906E+01  7.86173E+01  6.89274E+01  5.41120E+01  6.73963E+01
   7.06165E+01  5.27337E+01  1.87381E+01 -1.50828E+01 -6.20473E+00 -1.19208E+01 -5.09292E+00  9.81776E+00 -5.55869E+00 -2.15202E+00
  -3.85375E+00 -1.78468E+01 -1.26465E+01 -2.02359E+01 -2.18116E+00  1.47290E+01 -1.72795E+01 -1.02031E+01  5.58951E-01 -1.68309E+01
  -6.54526E+00  1.39279E+01 -2.62850E+01 -1.51786E+01  1.67809E+01 -2.05982E+01  1.07213E+01 -4.31046E+00 -2.05991E+01  2.34951E+00
  -1.12166E+01  3.24570E+00 -2.05554E+01 -1.37148E+01  9.86371E+00 -1.54553E+01 -6.75785E+00  7.79202E+00 -4.40940E+00  5.04700E+00
   1.37638E+01 -5.67341E+00 -7.80711E+00 -2.84751E-01  6.75474E+00  1.93974E+01 -3.58271E-01 -1.68388E+01  2.35228E+00 -4.81745E+00
  -1.44598E+01 -1.88535E+00  1.05911E+01  1.05133E+01  2.77667E+01  1.63880E+01 -1.59010E+01 -3.77568E+00 -2.20050E+01 -6.60903E+00
  -1.82531E+01 -2.09755E+01  1.74251E+01 -8.88367E+00  4.22754E+00 -3.37050E+00 -1.19883E+01 -5.95654E+00 -3.33730E+00 -2.72196E-02
  -4.54961E+00  1.44028E+01 -9.54752E+00 -1.54515E+01  1.08623E+00  1.11710E+01  4.11276E+00 -4.39920E-01  2.16033E+01  9.12754E+00
 NY points of the fit to the data follow
   2.18007E+01  1.69698E+01  1.46974E+01  1.51909E+01  1.77703E+01  2.09447E+01  2.29159E+01  2.27609E+01  2.12919E+01  1.97442E+01
   1.87222E+01  1.76193E+01  1.60070E+01  1.40242E+01  1.11290E+01  5.55634E+00 -3.75854E+00 -1.29856E+01 -2.00030E+01 -2.11920E+01
  -1.45447E+01 -1.30265E+00  1.53141E+01  3.18132E+01  4.64183E+01  5.87353E+01  6.89546E+01  7.60841E+01  7.88612E+01  7.82311E+01
   7.34223E+01  6.59819E+01  5.55502E+01  4.36509E+01  2.99561E+01  1.58537E+01  2.14814E+00 -8.89972E+00 -1.57113E+01 -1.73047E+01
  -1.33138E+01 -4.20969E+00  8.34677E+00  2.28460E+01  3.75709E+01  5.26244E+01  6.58491E+01  7.65927E+01  8.33602E+01  8.65199E+01
   8.63791E+01  8.32906E+01  7.89411E+01  7.45962E+01  6.87985E+01  6.30864E+01  5.86897E+01  5.44002E+01  5.14386E+01  5.19614E+01
   5.61651E+01  6.28782E+01  7.08556E+01  7.84585E+01  8.30492E+01  8.25061E+01  7.70880E+01  6.93923E+01  6.16858E+01  5.60606E+01
   5.48619E+01  5.77273E+01  6.30796E+01  7.02567E+01  7.88337E+01  8.76895E+01  9.41622E+01  9.72342E+01  9.73397E+01  9.30551E+01
   8.47853E+01  7.40310E+01  6.37107E+01  5.63270E+01  5.32857E+01  5.48379E+01  6.00017E+01  6.73593E+01  7.54719E+01  8.36209E+01
   9.13077E+01  9.78909E+01  1.03683E+02  1.08445E+02  1.12246E+02  1.15099E+02  1.17712E+02  1.19335E+02  1.18529E+02  1.15237E+02
   1.07747E+02  9.52647E+01  7.96547E+01  6.41115E+01  5.03219E+01  3.38230E+01  1.48109E+01 -5.04734E+00 -2.37571E+01 -3.84176E+01
  -4.50880E+01 -4.19880E+01 -3.32573E+01 -2.33831E+01 -1.35928E+01 -2.45955E+00  1.04661E+01  2.14782E+01  3.14445E+01  4.11633E+01
   5.11375E+01  6.15207E+01  7.17497E+01  8.10385E+01  8.94081E+01  9.83383E+01  1.11622E+02  1.25840E+02  1.30941E+02  1.23304E+02
   1.02226E+02  6.97429E+01  3.32248E+01  2.63342E+00 -1.70442E+01 -2.83585E+01 -3.61597E+01 -4.18103E+01 -4.20807E+01 -3.82525E+01
  -3.52108E+01 -3.27472E+01 -3.03909E+01 -2.78100E+01 -2.49954E+01 -2.20695E+01 -1.90897E+01 -1.61580E+01 -1.33292E+01 -1.05854E+01
  -7.67528E+00 -4.36985E+00 -9.68782E-01  2.10722E+00  4.55997E+00  6.47004E+00  8.38617E+00  1.05498E+01  1.26731E+01  1.44603E+01
   1.55889E+01  1.59227E+01  1.56872E+01  1.54189E+01  1.53956E+01  1.57550E+01  1.75193E+01  2.20123E+01  2.91386E+01  3.69516E+01
   4.36418E+01  4.84091E+01  5.14616E+01  5.36220E+01  5.49306E+01  5.50664E+01  5.24179E+01  4.57091E+01  3.62438E+01  2.68392E+01
   1.89918E+01  1.24568E+01  6.90334E+00  2.44496E+00 -4.81234E-01 -1.91214E+00 -2.42027E+00 -2.49692E+00 -2.24438E+00 -7.53810E-02
   3.69954E+00  8.16856E+00  1.36884E+01  1.98693E+01  2.60856E+01  3.10207E+01  3.45715E+01  3.78914E+01  4.13195E+01  4.43765E+01
   4.71760E+01  5.09218E+01  5.43737E+01  5.55929E+01  5.43424E+01  5.08796E+01  4.57890E+01  3.89234E+01  3.16332E+01  2.54289E+01
   2.16724E+01  2.22024E+01  2.60666E+01  3.32786E+01  4.23912E+01  5.10820E+01  5.79309E+01  6.22883E+01  6.41764E+01  6.40282E+01
   6.27110E+01  6.00558E+01  5.60570E+01  5.08920E+01  4.35570E+01  3.48181E+01  2.45883E+01  1.27520E+01  1.33707E-01 -1.28686E+01
  -2.54953E+01 -3.60967E+01 -4.43187E+01 -4.98265E+01 -5.25102E+01 -5.30404E+01 -5.26649E+01 -5.08320E+01 -4.80625E+01 -4.38263E+01
  -3.76119E+01 -3.02007E+01 -2.24096E+01 -1.52694E+01 -1.04076E+01 -8.20615E+00 -9.55770E+00 -1.54466E+01 -2.51745E+01 -3.32295E+01
  -4.10287E+01 -5.50219E+01 -6.43988E+01 -5.92396E+01 -3.86709E+01 -3.64739E+00  4.33627E+01  9.31675E+01  1.32487E+02  1.54981E+02
   1.64997E+02  1.71972E+02  1.76005E+02  1.70557E+02  1.61799E+02  1.53907E+02  1.47139E+02  1.41422E+02  1.36745E+02  1.32956E+02
   1.30016E+02  1.27806E+02  1.26217E+02  1.25103E+02  1.24235E+02  1.23423E+02  1.22497E+02  1.21359E+02  1.19850E+02  1.18007E+02
   1.15902E+02  1.13469E+02  1.10785E+02  1.07798E+02  1.04528E+02  1.00975E+02  9.70718E+01  9.28271E+01  8.84101E+01  8.41037E+01
   8.02132E+01  7.71108E+01  7.50825E+01  7.42267E+01  7.45317E+01  7.58408E+01  7.79613E+01  8.07405E+01  8.39784E+01  8.74948E+01
   9.11093E+01  9.47521E+01  9.84624E+01  1.02296E+02  1.06317E+02  1.10482E+02  1.14770E+02  1.19190E+02  1.23739E+02  1.28424E+02
   1.33369E+02  1.38641E+02  1.44285E+02  1.50525E+02  1.57708E+02  1.64500E+02  1.60540E+02  1.43432E+02  1.09216E+02  5.80789E+01
   2.34382E-01 -5.20272E+01 -9.00017E+01 -1.10994E+02 -1.17506E+02 -1.14917E+02 -1.07272E+02 -9.66097E+01 -8.73957E+01 -7.67566E+01
  -6.70297E+01 -5.94383E+01 -5.23420E+01 -4.53743E+01 -3.86726E+01 -3.23331E+01 -2.63362E+01 -2.05748E+01 -1.48251E+01 -9.08629E+00
  -3.52160E+00  1.65416E+00  6.22228E+00  1.00216E+01  1.29086E+01  1.48251E+01  1.56788E+01  1.53575E+01  1.37691E+01  1.11191E+01
   7.81038E+00  4.30868E+00  1.13929E+00 -1.25950E+00 -2.55980E+00 -2.64376E+00 -1.56461E+00  6.22946E-01  3.73522E+00  7.51894E+00
   1.16870E+01  1.60379E+01  2.04159E+01  2.47513E+01  2.90167E+01  3.32203E+01  3.73985E+01  4.15619E+01  4.57615E+01  5.01755E+01
   5.48389E+01  5.98682E+01  6.54281E+01  7.15515E+01  7.82306E+01  8.55061E+01  9.34322E+01  1.01955E+02  1.10938E+02  1.20124E+02
   1.29040E+02  1.36983E+02  1.42904E+02  1.45902E+02  1.45483E+02  1.41680E+02  1.34959E+02  1.26241E+02  1.16582E+02  1.06725E+02
   9.69605E+01  8.73157E+01  7.76896E+01  6.78837E+01  5.78405E+01  4.77092E+01  3.78342E+01  2.85821E+01  2.02486E+01  1.30667E+01
   7.14737E+00  2.45847E+00 -1.17258E+00 -3.92891E+00 -6.00646E+00 -7.63305E+00 -8.87105E+00 -9.79392E+00 -1.04195E+01 -1.08005E+01
  -1.09612E+01 -1.10045E+01 -1.10112E+01 -1.09296E+01 -1.07474E+01 -1.05285E+01 -1.02930E+01 -1.00142E+01 -9.67990E+00 -9.37401E+00
  -9.13280E+00 -8.90988E+00 -8.61731E+00 -8.29778E+00 -7.98065E+00 -7.61270E+00 -7.21975E+00 -6.87171E+00 -6.62743E+00 -6.42480E+00
  -6.21622E+00 -5.94447E+00 -5.61338E+00 -5.23935E+00 -4.83074E+00 -4.40827E+00 -3.97897E+00 -3.59936E+00 -3.29413E+00 -3.06231E+00
  -2.89360E+00 -2.73508E+00 -2.57921E+00 -2.35011E+00 -2.07112E+00 -1.80174E+00 -1.55220E+00 -1.30013E+00 -1.02542E+00 -7.19853E-01
  -3.69689E-01 -2.88164E-04  3.75890E-01  7.39661E-01  1.08921E+00  1.43778E+00  1.74230E+00  1.98451E+00  2.18487E+00  2.33321E+00
   2.48460E+00  2.70013E+00  3.03371E+00  3.44674E+00  3.90255E+00  4.31048E+00  4.63190E+00  4.86549E+00  5.01746E+00  5.13451E+00
   5.29659E+00  5.50033E+00  5.70531E+00  5.88612E+00  6.10237E+00  6.32888E+00  6.65646E+00  7.12181E+00  7.79672E+00  8.69388E+00
 NY background values follow
     6.451E+01    6.440E+01    6.429E+01    6.417E+01    6.406E+01    6.394E+01    6.383E+01    6.372E+01    6.360E+01    6.349E+01
     6.338E+01    6.326E+01    6.315E+01    6.304E+01    6.292E+01    6.281E+01    6.270E+01    6.259E+01    6.248E+01    6.236E+01
     6.225E+01    6.214E+01    6.203E+01    6.192E+01    6.181E+01    6.170E+01    6.159E+01    6.148E+01    6.137E+01    6.126E+01
     6.115E+01    6.104E+01    6.093E+01    6.082E+01    6.071E+01    6.060E+01    6.049E+01    6.039E+01    6.028E+01    6.017E+01
     6.006E+01    5.996E+01    5.985E+01    5.975E+01    5.964E+01    5.953E+01    5.943E+01    5.933E+01    5.922E+01    5.912E+01
     5.902E+01    5.891E+01    5.881E+01    5.871E+01    5.861E+01    5.851E+01    5.841E+01    5.831E+01    5.821E+01    5.812E+01
     5.802E+01    5.792E+01    5.783E+01    5.773E+01    5.764E+01    5.755E+01    5.745E+01    5.736E+01    5.727E+01    5.718E+01
     5.709E+01    5.700E+01    5.691E+01    5.683E+01    5.674E+01    5.666E+01    5.657E+01    5.649E+01    5.641E+01    5.633E+01
     5.625E+01    5.617E+01    5.609E+01    5.602E+01    5.594E+01    5.587E+01    5.579E+01    5.572E+01    5.565E+01    5.558E+01
     5.552E+01    5.545E+01    5.539E+01    5.532E+01    5.526E+01    5.520E+01    5.514E+01    5.508E+01    5.502E+01    5.496E+01
     5.491E+01    5.485E+01    5.479E+01    5.474E+01    5.469E+01    5.463E+01    5.458E+01    5.453E+01    5.448E+01    5.443E+01
     5.438E+01    5.433E+01    5.428E+01    5.423E+01    5.418E+01    5.413E+01    5.408E+01    5.403E+01    5.398E+01    5.393E+01
     5.388E+01    5.383E+01    5.378E+01    5.373E+01    5.368E+01    5.363E+01    5.358E+01    5.353E+01    5.348E+01    5.342E+01
     5.337E+01    5.332E+01    5.326E+01    5.320E+01    5.315E+01    5.309E+01    5.303E+01    5.296E+01    5.290E+01    5.284E+01
     5.277E+01    5.270E+01    5.263E+01    5.256E+01    5.249E+01    5.241E+01    5.234E+01    5.226E+01    5.218E+01    5.209E+01
     5.201E+01    5.192E+01    5.183E+01    5.174E+01    5.164E+01    5.154E+01    5.144E+01    5.134E+01    5.124E+01    5.113E+01
     5.102E+01    5.091E+01    5.079E+01    5.068E+01    5.056E+01    5.044E+01    5.032E+01    5.019E+01    5.006E+01    4.993E+01
     4.980E+01    4.967E+01    4.953E+01    4.939E+01    4.925E+01    4.910E+01    4.896E+01    4.881E+01    4.866E+01    4.850E+01
     4.835E+01    4.819E+01    4.803E+01    4.787E+01    4.770E+01    4.753E+01    4.736E+01    4.719E+01    4.702E+01    4.684E+01
     4.666E+01    4.648E+01    4.630E+01    4.612E+01    4.593E+01    4.574E+01    4.555E+01    4.535E+01    4.516E+01    4.496E+01
     4.476E+01    4.456E+01    4.436E+01    4.415E+01    4.394E+01    4.373E+01    4.352E+01    4.331E+01    4.309E+01    4.287E+01
     4.265E+01    4.243E+01    4.221E+01    4.198E+01    4.176E+01    4.153E+01    4.130E+01    4.106E+01    4.083E+01    4.059E+01
     4.035E+01    4.011E+01    3.986E+01    3.961E+01    3.936E+01    3.911E+01    3.886E+01    3.860E+01    3.834E+01    3.808E+01
     3.782E+01    3.755E+01    3.729E+01    3.701E+01    3.674E+01    3.646E+01    3.619E+01    3.590E+01    3.562E+01    3.533E+01
     3.504E+01    3.475E+01    3.446E+01    3.416E+01    3.386E+01    3.356E+01    3.325E+01    3.294E+01    3.263E+01    3.232E+01
     3.201E+01    3.169E+01    3.137E+01    3.105E+01    3.073E+01    3.040E+01    3.008E+01    2.975E+01    2.942E+01    2.909E+01
     2.876E+01    2.842E+01    2.808E+01    2.775E+01    2.741E+01    2.707E+01    2.672E+01    2.638E+01    2.604E+01    2.569E+01
     2.535E+01    2.500E+01    2.465E+01    2.430E+01    2.395E+01    2.360E+01    2.325E+01    2.290E+01    2.255E+01    2.220E+01
     2.184E+01    2.149E+01    2.114E+01    2.079E+01    2.044E+01    2.009E+01    1.974E+01    1.939E+01    1.904E+01    1.869E+01
     1.834E+01    1.800E+01    1.765E+01    1.731E+01    1.697E+01    1.663E+01    1.629E+01    1.595E+01    1.561E+01    1.528E+01
     1.495E+01    1.462E+01    1.429E+01    1.397E+01    1.364E+01    1.333E+01    1.301E+01    1.270E+01    1.239E+01    1.208E+01
     1.178E+01    1.149E+01    1.120E+01    1.091E+01    1.063E+01    1.035E+01    1.008E+01    9.818E+00    9.559E+00    9.306E+00
     9.060E+00    8.821E+00    8.588E+00    8.363E+00    8.145E+00    7.934E+00    7.732E+00    7.537E+00    7.351E+00    7.173E+00
     7.004E+00    6.843E+00    6.691E+00    6.548E+00    6.413E+00    6.287E+00    6.169E+00    6.059E+00    5.957E+00    5.864E+00
     5.778E+00    5.700E+00    5.630E+00    5.567E+00    5.513E+00    5.465E+00    5.425E+00    5.393E+00    5.367E+00    5.349E+00
     5.338E+00    5.334E+00    5.337E+00    5.347E+00    5.363E+00    5.386E+00    5.416E+00    5.452E+00    5.494E+00    5.543E+00
     5.597E+00    5.658E+00    5.725E+00    5.797E+00    5.874E+00    5.956E+00    6.043E+00    6.134E+00    6.230E+00    6.329E+00
     6.432E+00    6.538E+00    6.648E+00    6.760E+00    6.875E+00    6.992E+00    7.111E+00    7.232E+00    7.354E+00    7.478E+00
     7.602E+00    7.728E+00    7.854E+00    7.980E+00    8.106E+00    8.231E+00    8.357E+00    8.481E+00    8.604E+00    8.726E+00
     8.846E+00    8.964E+00    9.081E+00    9.196E+00    9.309E+00    9.420E+00    9.529E+00    9.636E+00    9.741E+00    9.845E+00
     9.946E+00    1.004E+01    1.014E+01    1.024E+01    1.033E+01    1.042E+01    1.050E+01    1.059E+01    1.067E+01    1.075E+01
     1.083E+01    1.090E+01    1.098E+01    1.105E+01    1.111E+01    1.118E+01    1.124E+01    1.130E+01    1.135E+01    1.141E+01
     1.146E+01    1.150E+01    1.155E+01    1.159E+01    1.162E+01    1.166E+01    1.169E+01    1.172E+01    1.175E+01    1.178E+01
     1.180E+01    1.182E+01    1.184E+01    1.186E+01    1.187E+01    1.189E+01    1.190E+01    1.191E+01    1.192E+01    1.192E+01
     1.193E+01    1.193E+01    1.193E+01    1.193E+01    1.193E+01    1.193E+01    1.192E+01    1.192E+01    1.191E+01    1.191E+01
     1.190E+01    1.189E+01    1.188E+01    1.187E+01    1.186E+01    1.185E+01    1.184E+01    1.183E+01    1.181E+01    1.180E+01
     1.179E+01    1.177E+01    1.176E+01    1.174E+01    1.173E+01    1.171E+01    1.169E+01    1.168E+01    1.166E+01    1.164E+01
     1.163E+01    1.161E+01    1.159E+01    1.157E+01    1.156E+01    1.154E+01    1.152E+01    1.151E+01    1.149E+01    1.147E+01
 Mac      Conc. = 3.57E-04
   3.80310E+01  3.70144E+01  3.56980E+01  3.41065E+01  3.24027E+01  3.06984E+01  2.91854E+01  2.79404E+01  2.68958E+01  2.58306E+01
   2.45549E+01  2.33105E+01  2.25664E+01  2.26236E+01  2.37681E+01  2.61147E+01  2.93450E+01  3.28817E+01  3.63281E+01  3.95623E+01
   4.24966E+01  4.50660E+01  4.72788E+01  4.93629E+01  5.14593E+01  5.34556E+01  5.53208E+01  5.69999E+01  5.83684E+01  5.93442E+01
   5.99651E+01  6.04849E+01  6.11570E+01  6.21476E+01  6.33996E+01  6.47457E+01  6.59516E+01  6.68994E+01  6.77438E+01  6.86214E+01
   6.95991E+01  7.05149E+01  7.11616E+01  7.13620E+01  7.10934E+01  7.04630E+01  6.95166E+01  6.83685E+01  6.71357E+01  6.59293E+01
   6.49085E+01  6.42207E+01  6.39355E+01  6.40536E+01  6.46421E+01  6.56054E+01  6.67154E+01  6.78282E+01  6.87204E+01  6.92695E+01
   6.94027E+01  6.91532E+01  6.86050E+01  6.79474E+01  6.73927E+01  6.71676E+01  6.74507E+01  6.83014E+01  6.96694E+01  7.13099E+01
   7.28579E+01  7.40489E+01  7.47719E+01  7.50851E+01  7.50057E+01  7.45736E+01  7.39338E+01  7.33257E+01  7.28518E+01  7.26193E+01
   7.26757E+01  7.30292E+01  7.36011E+01  7.42775E+01  7.49849E+01  7.56880E+01  7.63269E+01  7.68719E+01  7.72336E+01  7.73101E+01
   7.69726E+01  7.61160E+01  7.46539E+01  7.27032E+01  7.04188E+01  6.79234E+01  6.53006E+01  6.25569E+01  5.95293E+01  5.60163E+01
   5.16999E+01  4.64972E+01  4.06523E+01  3.45859E+01  2.89674E+01  2.44739E+01  2.16038E+01  2.03927E+01  2.06041E+01  2.18983E+01
