 
 $NMID
 ID=''
 FMTDAT='(2E13.5)'
 TRAMP=   1.00000E+0
 VOLUME=   1.00000E+0
 $END
   1.26083E+5   7.06481E+5
  -2.99673E+5   1.84570E+6
  -8.29136E+4   1.78137E+6
  -2.52148E+5   1.64053E+6
  -3.79076E+5   1.74573E+6
  -3.35376E+5   1.73101E+6
  -3.83904E+5   1.63359E+6
  -4.57066E+5   1.63843E+6
  -4.70625E+5   1.61786E+6
  -5.22629E+5   1.59273E+6
  -5.42002E+5   1.59986E+6
  -5.41523E+5   1.54271E+6
  -6.01563E+5   1.49574E+6
  -6.33073E+5   1.50851E+6
  -6.28802E+5   1.48252E+6
  -6.55246E+5   1.44044E+6
  -6.86125E+5   1.42658E+6
  -7.14754E+5   1.38766E+6
  -7.62935E+5   1.35299E+6
  -7.86726E+5   1.33716E+6
  -8.04485E+5   1.29375E+6
  -8.42774E+5   1.25511E+6
  -8.66072E+5   1.23401E+6
  -8.84007E+5   1.19844E+6
  -9.11968E+5   1.16281E+6
  -9.20790E+5   1.14233E+6
  -9.31273E+5   1.11061E+6
  -9.50606E+5   1.08479E+6
  -9.59677E+5   1.06149E+6
  -9.68011E+5   1.02931E+6
  -9.90348E+5   9.98303E+5
  -1.00247E+6   9.68441E+5
  -1.01558E+6   9.31365E+5
  -1.03277E+6   8.99851E+5
  -1.04411E+6   8.67135E+5
  -1.05651E+6   8.29192E+5
  -1.07371E+6   7.96100E+5
  -1.08476E+6   7.62658E+5
  -1.09065E+6   7.26547E+5
  -1.09829E+6   6.97386E+5
  -1.10216E+6   6.68811E+5
  -1.10608E+6   6.37413E+5
  -1.10739E+6   6.10119E+5
  -1.10802E+6   5.85019E+5
  -1.10995E+6   5.56805E+5
  -1.11376E+6   5.29270E+5
  -1.11444E+6   4.99010E+5
  -1.11654E+6   4.65784E+5
  -1.11694E+6   4.33185E+5
  -1.11635E+6   4.01132E+5
  -1.11644E+6   3.68697E+5
  -1.11628E+6   3.37133E+5
  -1.11495E+6   3.05741E+5
  -1.11325E+6   2.74279E+5
  -1.10946E+6   2.44106E+5
  -1.10505E+6   2.14759E+5
  -1.10023E+6   1.86010E+5
  -1.09367E+6   1.58584E+5
  -1.08579E+6   1.33006E+5
  -1.07952E+6   1.07250E+5
  -1.07295E+6   8.01842E+4
  -1.06473E+6   5.32343E+4
  -1.05645E+6   2.66840E+4
  -1.04772E+6  -3.98020E+2
  -1.03749E+6  -2.88108E+4
  -1.02546E+6  -5.53121E+4
  -1.01343E+6  -8.06220E+4
  -1.00223E+6  -1.06127E+5
  -9.91344E+5  -1.31007E+5
  -9.79028E+5  -1.55260E+5
  -9.65591E+5  -1.78583E+5
  -9.51982E+5  -2.00982E+5
  -9.39269E+5  -2.21813E+5
  -9.26101E+5  -2.43371E+5
  -9.11120E+5  -2.64350E+5
  -8.95930E+5  -2.84815E+5
  -8.80943E+5  -3.05020E+5
  -8.65886E+5  -3.25514E+5
  -8.49585E+5  -3.45382E+5
  -8.32231E+5  -3.65457E+5
  -8.14525E+5  -3.84452E+5
  -7.97480E+5  -4.02563E+5
  -7.80118E+5  -4.19394E+5
  -7.62146E+5  -4.36237E+5
  -7.43396E+5  -4.52442E+5
  -7.25489E+5  -4.66817E+5
  -7.08070E+5  -4.80302E+5
  -6.90155E+5  -4.93021E+5
  -6.71833E+5  -5.05296E+5
  -6.54045E+5  -5.16254E+5
  -6.36247E+5  -5.27054E+5
  -6.18052E+5  -5.37664E+5
  -5.99560E+5  -5.48475E+5
  -5.80095E+5  -5.58091E+5
  -5.60681E+5  -5.66536E+5
  -5.41289E+5  -5.75372E+5
  -5.22739E+5  -5.83670E+5
  -5.03339E+5  -5.91780E+5
  -4.83778E+5  -5.98645E+5
  -4.64883E+5  -6.04250E+5
  -4.46519E+5  -6.09978E+5
  -4.27609E+5  -6.15287E+5
  -4.08247E+5  -6.19799E+5
  -3.89514E+5  -6.22536E+5
  -3.71933E+5  -6.25033E+5
  -3.54718E+5  -6.27581E+5
  -3.36648E+5  -6.29746E+5
  -3.17925E+5  -6.31265E+5
  -2.99480E+5  -6.32446E+5
  -2.82051E+5  -6.32407E+5
  -2.64781E+5  -6.32679E+5
  -2.46751E+5  -6.33049E+5
  -2.28564E+5  -6.33323E+5
  -2.10066E+5  -6.32445E+5
  -1.92761E+5  -6.31103E+5
  -1.75062E+5  -6.29651E+5
  -1.57533E+5  -6.27630E+5
  -1.40008E+5  -6.24784E+5
  -1.23701E+5  -6.21008E+5
  -1.07917E+5  -6.17463E+5
  -9.25672E+4  -6.13884E+5
  -7.67776E+4  -6.10504E+5
  -6.07710E+4  -6.06022E+5
  -4.51768E+4  -6.01501E+5
  -2.99228E+4  -5.96546E+5
  -1.43957E+4  -5.90865E+5
  -1.49979E+2  -5.84463E+5
   1.44652E+4  -5.78500E+5
   2.88841E+4  -5.72094E+5
   4.31206E+4  -5.65590E+5
   5.75320E+4  -5.58664E+5
   7.19044E+4  -5.51183E+5
   8.51670E+4  -5.43128E+5
   9.83392E+4  -5.35301E+5
   1.11107E+5  -5.27478E+5
   1.23748E+5  -5.18847E+5
   1.35506E+5  -5.09916E+5
   1.47029E+5  -5.01363E+5
   1.58880E+5  -4.92451E+5
   1.70594E+5  -4.82923E+5
   1.81124E+5  -4.72702E+5
   1.91118E+5  -4.62832E+5
   2.00826E+5  -4.52875E+5
   2.10242E+5  -4.43120E+5
   2.19437E+5  -4.33220E+5
   2.28341E+5  -4.22662E+5
   2.36528E+5  -4.12056E+5
   2.44290E+5  -4.01067E+5
   2.52051E+5  -3.90485E+5
   2.58592E+5  -3.79712E+5
   2.64993E+5  -3.68765E+5
   2.71011E+5  -3.58106E+5
   2.76833E+5  -3.47360E+5
   2.82499E+5  -3.36876E+5
   2.87966E+5  -3.26043E+5
   2.92625E+5  -3.14976E+5
   2.96841E+5  -3.04075E+5
   3.01128E+5  -2.93518E+5
   3.04949E+5  -2.82595E+5
   3.08264E+5  -2.71811E+5
   3.11471E+5  -2.61193E+5
   3.14253E+5  -2.50453E+5
   3.16931E+5  -2.39832E+5
   3.19107E+5  -2.28955E+5
   3.20906E+5  -2.18631E+5
   3.22554E+5  -2.08416E+5
   3.23827E+5  -1.98338E+5
   3.25126E+5  -1.88312E+5
   3.25798E+5  -1.77846E+5
   3.26171E+5  -1.68392E+5
   3.26515E+5  -1.58665E+5
   3.26427E+5  -1.48887E+5
   3.26365E+5  -1.39577E+5
   3.25680E+5  -1.29956E+5
   3.24976E+5  -1.20368E+5
   3.24416E+5  -1.11293E+5
   3.23325E+5  -1.01989E+5
   3.21909E+5  -9.22391E+4
   3.20383E+5  -8.31115E+4
   3.18377E+5  -7.43637E+4
   3.16692E+5  -6.58484E+4
   3.14736E+5  -5.69494E+4
   3.12646E+5  -4.81887E+4
   3.10193E+5  -3.97972E+4
   3.07276E+5  -3.11990E+4
   3.04444E+5  -2.32702E+4
   3.01212E+5  -1.51013E+4
   2.98340E+5  -7.48002E+3
   2.94933E+5   5.92822E+1
   2.91748E+5   7.10458E+3
   2.88391E+5   1.47068E+4
   2.84992E+5   2.23236E+4
   2.80950E+5   2.99255E+4
   2.76784E+5   3.69814E+4
   2.72665E+5   4.38313E+4
   2.68434E+5   5.06327E+4
   2.64247E+5   5.74582E+4
   2.59786E+5   6.38570E+4
   2.55161E+5   7.05366E+4
   2.50669E+5   7.72017E+4
   2.45529E+5   8.31985E+4
   2.40536E+5   8.92591E+4
   2.35689E+5   9.47707E+4
   2.30611E+5   1.00337E+5
   2.25737E+5   1.05641E+5
   2.20419E+5   1.11251E+5
   2.14922E+5   1.16043E+5
   2.09621E+5   1.20933E+5
   2.03960E+5   1.25567E+5
   1.98436E+5   1.30433E+5
   1.92762E+5   1.34800E+5
   1.87155E+5   1.38624E+5
   1.81802E+5   1.42890E+5
   1.75916E+5   1.46562E+5
   1.70098E+5   1.50158E+5
   1.64346E+5   1.53746E+5
   1.58522E+5   1.56674E+5
   1.52636E+5   1.59647E+5
   1.47180E+5   1.62287E+5
   1.41167E+5   1.64815E+5
   1.35686E+5   1.67222E+5
   1.29948E+5   1.69221E+5
   1.24356E+5   1.71326E+5
   1.18591E+5   1.73275E+5
   1.12805E+5   1.74869E+5
   1.07198E+5   1.76385E+5
   1.01875E+5   1.77478E+5
   9.63526E+4   1.78904E+5
   9.08172E+4   1.80081E+5
   8.54830E+4   1.80759E+5
   8.00449E+4   1.81369E+5
   7.46503E+4   1.81686E+5
   6.96803E+4   1.82169E+5
   6.45848E+4   1.82237E+5
   5.97048E+4   1.82245E+5
   5.46741E+4   1.82303E+5
   4.95513E+4   1.82602E+5
   4.47273E+4   1.82060E+5
   4.00654E+4   1.81350E+5
   3.52546E+4   1.81017E+5
   3.07812E+4   1.80032E+5
   2.65157E+4   1.79478E+5
   2.19781E+4   1.78750E+5
   1.73508E+4   1.77766E+5
   1.31124E+4   1.76744E+5
   9.04834E+3   1.75443E+5
   4.75681E+3   1.74351E+5
   7.74265E+2   1.72945E+5
  -3.26049E+3   1.71881E+5
  -6.78413E+3   1.70375E+5
  -1.09764E+4   1.68848E+5
  -1.49352E+4   1.67349E+5
  -1.83940E+4   1.65436E+5
  -2.15868E+4   1.63943E+5
  -2.50846E+4   1.61826E+5
  -2.86034E+4   1.59965E+5
  -3.19091E+4   1.58159E+5
  -3.51760E+4   1.56109E+5
  -3.86089E+4   1.54131E+5
  -4.18825E+4   1.51907E+5
  -4.50135E+4   1.50016E+5
  -4.82275E+4   1.47591E+5
  -5.10244E+4   1.45204E+5
  -5.36792E+4   1.42797E+5
  -5.63106E+4   1.40766E+5
  -5.92106E+4   1.38169E+5
  -6.17294E+4   1.35685E+5
  -6.45470E+4   1.33149E+5
  -6.66060E+4   1.30510E+5
  -6.87697E+4   1.27820E+5
  -7.10849E+4   1.25333E+5
  -7.30629E+4   1.22671E+5
  -7.51600E+4   1.19935E+5
  -7.71656E+4   1.17344E+5
  -7.93804E+4   1.14577E+5
  -8.11286E+4   1.11729E+5
  -8.31525E+4   1.08979E+5
  -8.46285E+4   1.06307E+5
  -8.59556E+4   1.03397E+5
  -8.76648E+4   1.00603E+5
  -8.88000E+4   9.77785E+4
  -9.03765E+4   9.47168E+4
  -9.16546E+4   9.21433E+4
  -9.24282E+4   8.93818E+4
  -9.38222E+4   8.64033E+4
  -9.46653E+4   8.34648E+4
  -9.55981E+4   8.07753E+4
  -9.63864E+4   7.80977E+4
  -9.73568E+4   7.53060E+4
  -9.82541E+4   7.23246E+4
  -9.85700E+4   6.96245E+4
  -9.88851E+4   6.69564E+4
  -9.96781E+4   6.39679E+4
  -1.00167E+5   6.12959E+4
  -1.00379E+5   5.86637E+4
  -1.00728E+5   5.59110E+4
  -1.00790E+5   5.33986E+4
  -1.01023E+5   5.09357E+4
  -1.01227E+5   4.80150E+4
  -1.01292E+5   4.56883E+4
  -1.01233E+5   4.31716E+4
  -1.01273E+5   4.04653E+4
  -1.01124E+5   3.80833E+4
  -1.00818E+5   3.55192E+4
  -1.00702E+5   3.31953E+4
  -1.00427E+5   3.05451E+4
  -1.00174E+5   2.84092E+4
  -9.97411E+4   2.59179E+4
  -9.92284E+4   2.35896E+4
  -9.87109E+4   2.13373E+4
  -9.83389E+4   1.92945E+4
  -9.74477E+4   1.68263E+4
  -9.70678E+4   1.44467E+4
  -9.62909E+4   1.23720E+4
  -9.54752E+4   1.01664E+4
  -9.45804E+4   8.21203E+3
  -9.39649E+4   6.14852E+3
  -9.32155E+4   4.18146E+3
  -9.22231E+4   2.24897E+3
  -9.12174E+4   2.65330E+2
  -9.06158E+4  -1.96719E+3
  -8.95380E+4  -3.67810E+3
  -8.86791E+4  -5.31908E+3
  -8.72251E+4  -7.12041E+3
  -8.64219E+4  -8.99693E+3
  -8.52520E+4  -1.08074E+4
  -8.42769E+4  -1.24838E+4
  -8.32692E+4  -1.41424E+4
  -8.22723E+4  -1.55965E+4
  -8.08901E+4  -1.72647E+4
  -7.96532E+4  -1.89452E+4
  -7.85866E+4  -2.02551E+4
  -7.73065E+4  -2.17249E+4
  -7.60279E+4  -2.30315E+4
  -7.49458E+4  -2.45720E+4
  -7.37383E+4  -2.56396E+4
  -7.20873E+4  -2.71486E+4
  -7.09514E+4  -2.83898E+4
  -6.94212E+4  -2.94646E+4
  -6.82296E+4  -3.07814E+4
  -6.67431E+4  -3.16265E+4
  -6.55659E+4  -3.26512E+4
  -6.44310E+4  -3.36784E+4
  -6.28244E+4  -3.49479E+4
  -6.15119E+4  -3.56964E+4
  -5.98983E+4  -3.66557E+4
  -5.86830E+4  -3.73199E+4
  -5.73071E+4  -3.83006E+4
  -5.60535E+4  -3.90750E+4
  -5.46722E+4  -3.97915E+4
  -5.30872E+4  -4.03531E+4
  -5.17525E+4  -4.08721E+4
  -5.05458E+4  -4.15907E+4
  -4.92114E+4  -4.21916E+4
  -4.79105E+4  -4.21730E+4
  -4.67078E+4  -4.29618E+4
  -4.50323E+4  -4.35036E+4
  -4.37581E+4  -4.37567E+4
  -4.24719E+4  -4.40014E+4
  -4.11070E+4  -4.44049E+4
  -3.98544E+4  -4.46162E+4
  -3.87166E+4  -4.51515E+4
  -3.70301E+4  -4.52096E+4
  -3.60846E+4  -4.50747E+4
  -3.47332E+4  -4.54508E+4
  -3.36007E+4  -4.55908E+4
  -3.19190E+4  -4.57779E+4
