 
 $NMID
 ID=''
 FMTDAT='(2E13.5)'
 TRAMP=   1.00000E+0
 VOLUME=   1.00000E+0
 $END
   4.32931E+5   6.27897E+5
   4.99832E+5   2.04531E+6
   7.20216E+5   1.93254E+6
   5.47562E+5   1.81874E+6
   4.88015E+5   1.93357E+6
   5.65799E+5   1.90753E+6
   5.17321E+5   1.83906E+6
   4.58773E+5   1.88290E+6
   4.60577E+5   1.87665E+6
   4.13502E+5   1.85086E+6
   3.69460E+5   1.86341E+6
   3.43555E+5   1.84600E+6
   3.00154E+5   1.83311E+6
   2.67992E+5   1.83854E+6
   2.29984E+5   1.81739E+6
   1.83663E+5   1.80564E+6
   1.60408E+5   1.80989E+6
   1.31456E+5   1.79068E+6
   9.00656E+4   1.78023E+6
   7.50735E+4   1.77825E+6
   4.96042E+4   1.75775E+6
   1.31665E+4   1.74760E+6
  -7.96863E+3   1.74252E+6
  -3.59004E+4   1.72442E+6
  -7.37808E+4   1.71164E+6
  -9.00360E+4   1.70106E+6
  -1.18600E+5   1.68508E+6
  -1.57641E+5   1.67451E+6
  -1.84024E+5   1.65819E+6
  -2.06097E+5   1.63847E+6
  -2.36353E+5   1.63031E+6
  -2.57112E+5   1.61738E+6
  -2.80372E+5   1.59611E+6
  -3.03195E+5   1.58325E+6
  -3.17337E+5   1.57044E+6
  -3.32961E+5   1.55507E+6
  -3.53874E+5   1.54506E+6
  -3.72147E+5   1.53140E+6
  -3.90832E+5   1.51149E+6
  -4.11190E+5   1.49754E+6
  -4.30783E+5   1.48109E+6
  -4.49634E+5   1.46124E+6
  -4.66397E+5   1.44410E+6
  -4.84067E+5   1.42869E+6
  -5.03997E+5   1.40971E+6
  -5.22486E+5   1.39336E+6
  -5.40108E+5   1.37669E+6
  -5.59742E+5   1.35679E+6
  -5.74765E+5   1.33615E+6
  -5.87486E+5   1.31842E+6
  -6.02351E+5   1.30184E+6
  -6.17396E+5   1.28459E+6
  -6.30481E+5   1.26674E+6
  -6.44241E+5   1.24882E+6
  -6.58674E+5   1.23040E+6
  -6.73190E+5   1.21110E+6
  -6.86861E+5   1.19013E+6
  -6.99671E+5   1.16933E+6
  -7.10479E+5   1.14988E+6
  -7.22353E+5   1.13170E+6
  -7.35291E+5   1.11118E+6
  -7.46921E+5   1.09181E+6
  -7.57853E+5   1.07304E+6
  -7.69351E+5   1.05210E+6
  -7.79524E+5   1.03019E+6
  -7.87021E+5   1.00981E+6
  -7.94516E+5   9.89818E+5
  -8.03186E+5   9.69324E+5
  -8.12432E+5   9.50626E+5
  -8.21694E+5   9.30491E+5
  -8.30103E+5   9.08742E+5
  -8.37302E+5   8.87668E+5
  -8.44164E+5   8.68656E+5
  -8.52000E+5   8.48532E+5
  -8.59490E+5   8.26985E+5
  -8.65184E+5   8.05944E+5
  -8.70860E+5   7.86226E+5
  -8.76847E+5   7.66260E+5
  -8.82649E+5   7.45480E+5
  -8.87373E+5   7.24539E+5
  -8.91620E+5   7.03799E+5
  -8.95567E+5   6.83292E+5
  -9.00039E+5   6.63367E+5
  -9.04028E+5   6.42314E+5
  -9.07622E+5   6.20455E+5
  -9.10342E+5   6.00000E+5
  -9.12990E+5   5.80660E+5
  -9.16159E+5   5.60730E+5
  -9.17921E+5   5.40223E+5
  -9.19042E+5   5.21590E+5
  -9.19617E+5   5.02889E+5
  -9.20552E+5   4.84780E+5
  -9.21684E+5   4.66230E+5
  -9.20861E+5   4.47915E+5
  -9.19422E+5   4.29462E+5
  -9.18141E+5   4.12713E+5
  -9.17504E+5   3.96423E+5
  -9.16811E+5   3.79430E+5
  -9.15265E+5   3.61932E+5
  -9.13176E+5   3.45411E+5
  -9.11653E+5   3.29435E+5
  -9.10426E+5   3.12319E+5
  -9.07902E+5   2.95006E+5
  -9.03841E+5   2.78347E+5
  -9.00244E+5   2.63564E+5
  -8.97513E+5   2.49024E+5
  -8.94848E+5   2.33705E+5
  -8.91156E+5   2.17786E+5
  -8.85781E+5   2.02459E+5
  -8.80766E+5   1.89224E+5
  -8.76865E+5   1.76194E+5
  -8.73299E+5   1.61818E+5
  -8.69099E+5   1.46353E+5
  -8.64071E+5   1.32133E+5
  -8.58837E+5   1.18434E+5
  -8.54117E+5   1.03864E+5
  -8.48978E+5   8.92130E+4
  -8.42518E+5   7.52428E+4
  -8.35291E+5   6.27378E+4
  -8.29179E+5   5.07265E+4
  -8.24206E+5   3.85515E+4
  -8.18367E+5   2.61263E+4
  -8.11993E+5   1.38071E+4
  -8.06164E+5   1.44191E+3
  -7.99667E+5  -1.07182E+4
  -7.91769E+5  -2.29577E+4
  -7.84520E+5  -3.45295E+4
  -7.77887E+5  -4.62194E+4
  -7.70706E+5  -5.77451E+4
  -7.63701E+5  -6.98289E+4
  -7.56810E+5  -8.24559E+4
  -7.48317E+5  -9.51296E+4
  -7.39576E+5  -1.06144E+5
  -7.31602E+5  -1.16878E+5
  -7.24074E+5  -1.27642E+5
  -7.15957E+5  -1.38835E+5
  -7.07217E+5  -1.48780E+5
  -6.99559E+5  -1.58232E+5
  -6.91668E+5  -1.68505E+5
  -6.83186E+5  -1.78996E+5
  -6.74198E+5  -1.88601E+5
  -6.64867E+5  -1.96945E+5
  -6.56161E+5  -2.04997E+5
  -6.48037E+5  -2.13931E+5
  -6.39790E+5  -2.23151E+5
  -6.30374E+5  -2.31656E+5
  -6.20563E+5  -2.39640E+5
  -6.11067E+5  -2.47732E+5
  -6.01786E+5  -2.55054E+5
  -5.92641E+5  -2.62193E+5
  -5.83217E+5  -2.69077E+5
  -5.73984E+5  -2.75068E+5
  -5.65648E+5  -2.80941E+5
  -5.56918E+5  -2.87031E+5
  -5.47700E+5  -2.93664E+5
  -5.38147E+5  -2.98825E+5
  -5.29395E+5  -3.03264E+5
  -5.20652E+5  -3.08695E+5
  -5.11894E+5  -3.13192E+5
  -5.02520E+5  -3.17800E+5
  -4.93684E+5  -3.22096E+5
  -4.84671E+5  -3.26257E+5
  -4.75366E+5  -3.30463E+5
  -4.65966E+5  -3.33899E+5
  -4.56725E+5  -3.37366E+5
  -4.48196E+5  -3.39794E+5
  -4.39905E+5  -3.43117E+5
  -4.31009E+5  -3.46423E+5
  -4.22098E+5  -3.49041E+5
  -4.13570E+5  -3.51365E+5
  -4.04746E+5  -3.53304E+5
  -3.96544E+5  -3.55511E+5
  -3.87907E+5  -3.57762E+5
  -3.79166E+5  -3.59805E+5
  -3.70586E+5  -3.61204E+5
  -3.62327E+5  -3.62885E+5
  -3.53902E+5  -3.65186E+5
  -3.44590E+5  -3.66867E+5
  -3.35799E+5  -3.67457E+5
  -3.27156E+5  -3.68262E+5
  -3.19223E+5  -3.69537E+5
  -3.11000E+5  -3.71062E+5
  -3.02057E+5  -3.71915E+5
  -2.93588E+5  -3.72710E+5
  -2.85095E+5  -3.73043E+5
  -2.77399E+5  -3.73222E+5
  -2.68970E+5  -3.73403E+5
  -2.60912E+5  -3.73028E+5
  -2.53081E+5  -3.73112E+5
  -2.46005E+5  -3.72834E+5
  -2.38171E+5  -3.73478E+5
  -2.29569E+5  -3.73999E+5
  -2.21001E+5  -3.73692E+5
  -2.13020E+5  -3.72780E+5
  -2.04924E+5  -3.72037E+5
  -1.97378E+5  -3.71671E+5
  -1.89485E+5  -3.71361E+5
  -1.81517E+5  -3.70481E+5
  -1.73810E+5  -3.69535E+5
  -1.65824E+5  -3.69290E+5
  -1.57834E+5  -3.68400E+5
  -1.49563E+5  -3.66549E+5
  -1.42198E+5  -3.64848E+5
  -1.35058E+5  -3.63689E+5
  -1.28082E+5  -3.62222E+5
  -1.20599E+5  -3.60660E+5
  -1.12912E+5  -3.59212E+5
  -1.05813E+5  -3.57500E+5
  -9.86043E+4  -3.55544E+5
  -9.16988E+4  -3.53415E+5
  -8.42879E+4  -3.51369E+5
  -7.77450E+4  -3.49161E+5
  -7.12646E+4  -3.46666E+5
  -6.48842E+4  -3.44994E+5
  -5.78699E+4  -3.43150E+5
  -5.11165E+4  -3.40360E+5
  -4.51492E+4  -3.37323E+5
  -3.91411E+4  -3.34122E+5
  -3.34513E+4  -3.31998E+5
  -2.76384E+4  -3.29186E+5
  -2.18521E+4  -3.26220E+5
  -1.69280E+4  -3.23051E+5
  -1.14307E+4  -3.20335E+5
  -5.82342E+3  -3.17370E+5
  -4.64292E+2  -3.14243E+5
   4.57355E+3  -3.10786E+5
   9.33564E+3  -3.07228E+5
   1.37799E+4  -3.04286E+5
   1.86541E+4  -3.01345E+5
   2.36122E+4  -2.97688E+5
   2.80674E+4  -2.94127E+5
   3.19230E+4  -2.90738E+5
   3.59676E+4  -2.87273E+5
   4.02179E+4  -2.83747E+5
   4.36434E+4  -2.80434E+5
   4.72908E+4  -2.76665E+5
   5.07649E+4  -2.73282E+5
   5.44516E+4  -2.69738E+5
   5.79065E+4  -2.66310E+5
   6.11974E+4  -2.62477E+5
   6.40071E+4  -2.58671E+5
   6.69111E+4  -2.55543E+5
   7.02284E+4  -2.52067E+5
   7.32978E+4  -2.48252E+5
   7.61714E+4  -2.44223E+5
   7.85918E+4  -2.40801E+5
   8.12208E+4  -2.37290E+5
   8.41056E+4  -2.33532E+5
   8.63500E+4  -2.29575E+5
   8.86582E+4  -2.25869E+5
   9.06812E+4  -2.22445E+5
   9.30233E+4  -2.18917E+5
   9.57013E+4  -2.15156E+5
   9.76549E+4  -2.11206E+5
   9.94658E+4  -2.07393E+5
   1.01148E+5  -2.03701E+5
   1.03358E+5  -2.00345E+5
   1.05509E+5  -1.96809E+5
   1.07483E+5  -1.92987E+5
   1.09298E+5  -1.89163E+5
   1.11243E+5  -1.85600E+5
   1.13105E+5  -1.81700E+5
   1.14767E+5  -1.77584E+5
   1.16169E+5  -1.73525E+5
   1.17370E+5  -1.70357E+5
   1.18951E+5  -1.67256E+5
   1.20850E+5  -1.63062E+5
   1.22076E+5  -1.59184E+5
   1.23359E+5  -1.55742E+5
   1.24276E+5  -1.52424E+5
   1.25542E+5  -1.48762E+5
   1.26576E+5  -1.45089E+5
   1.27227E+5  -1.41691E+5
   1.28544E+5  -1.38169E+5
   1.29722E+5  -1.34973E+5
   1.30736E+5  -1.31293E+5
   1.31596E+5  -1.27579E+5
   1.32217E+5  -1.24242E+5
   1.32470E+5  -1.20840E+5
   1.33191E+5  -1.17446E+5
   1.33966E+5  -1.13943E+5
   1.34392E+5  -1.10688E+5
   1.34577E+5  -1.07721E+5
   1.35224E+5  -1.04370E+5
   1.35564E+5  -1.00998E+5
   1.35885E+5  -9.73846E+4
   1.35535E+5  -9.43012E+4
   1.35535E+5  -9.13525E+4
   1.35656E+5  -8.85106E+4
   1.35681E+5  -8.55820E+4
   1.35804E+5  -8.24737E+4
   1.35813E+5  -7.93729E+4
   1.35670E+5  -7.63645E+4
   1.35173E+5  -7.36495E+4
   1.34994E+5  -7.06785E+4
   1.34564E+5  -6.77923E+4
   1.34018E+5  -6.51881E+4
   1.33805E+5  -6.27463E+4
   1.33331E+5  -5.98858E+4
   1.32971E+5  -5.67172E+4
   1.32309E+5  -5.44729E+4
   1.31719E+5  -5.20263E+4
   1.31109E+5  -4.94719E+4
   1.30813E+5  -4.67314E+4
   1.29979E+5  -4.41783E+4
   1.29155E+5  -4.17865E+4
   1.28090E+5  -3.92514E+4
   1.27278E+5  -3.70799E+4
   1.26777E+5  -3.47225E+4
   1.25723E+5  -3.21669E+4
   1.24859E+5  -3.00244E+4
   1.24135E+5  -2.78679E+4
   1.23057E+5  -2.58998E+4
   1.22422E+5  -2.36964E+4
   1.21310E+5  -2.13641E+4
   1.19911E+5  -1.89208E+4
   1.18950E+5  -1.72910E+4
   1.18347E+5  -1.52670E+4
   1.17193E+5  -1.30312E+4
   1.15996E+5  -1.13160E+4
   1.14854E+5  -9.38018E+3
   1.13770E+5  -7.53777E+3
   1.12824E+5  -5.82160E+3
   1.11731E+5  -3.71952E+3
   1.10165E+5  -2.22565E+3
   1.09135E+5  -7.69095E+2
   1.08155E+5   1.42539E+3
   1.07034E+5   3.03028E+3
   1.05914E+5   4.78106E+3
   1.04337E+5   6.68379E+3
   1.03105E+5   8.09407E+3
   1.01896E+5   9.42352E+3
   1.00559E+5   1.07764E+4
   9.93877E+4   1.22149E+4
   9.83866E+4   1.36317E+4
   9.68430E+4   1.51421E+4
   9.58775E+4   1.66782E+4
   9.44434E+4   1.80276E+4
   9.28726E+4   1.91842E+4
   9.17614E+4   2.04297E+4
   9.03514E+4   2.15143E+4
   8.93080E+4   2.24818E+4
   8.81265E+4   2.40342E+4
   8.64562E+4   2.51586E+4
   8.56115E+4   2.60672E+4
   8.39919E+4   2.71665E+4
   8.30027E+4   2.82832E+4
   8.13224E+4   2.90125E+4
   8.01639E+4   3.01129E+4
   7.88855E+4   3.06732E+4
   7.75815E+4   3.16622E+4
   7.62789E+4   3.25387E+4
   7.49985E+4   3.33547E+4
   7.36275E+4   3.40050E+4
   7.23853E+4   3.45722E+4
   7.12161E+4   3.55775E+4
   6.97483E+4   3.63118E+4
   6.85462E+4   3.65777E+4
   6.71888E+4   3.72424E+4
   6.62013E+4   3.78295E+4
   6.49968E+4   3.85543E+4
   6.33442E+4   3.92833E+4
   6.21683E+4   3.92865E+4
   6.11167E+4   3.95646E+4
   6.01240E+4   3.99885E+4
   5.86573E+4   4.07984E+4
   5.77453E+4   4.08394E+4
