 LCModel (Version 6.3-1N) Copyright: S.W. Provencher.          Ref.: Magn. Reson. Med. 30:672-679 (1993).                
 Slice_N1@11_11  28-Feb-2025 11:36:38
 27 lines in following concentration table = NCONC+1
    Conc.  %SD /Cr+PCr  Metabolite                                         
 3.14E-04   4% 3.0E-04 Mac                                                 
    3.309  33%   3.197 Cr                                                  
    4.972  22%   4.803 PCr                                                 
    5.901  14%   5.701 Ins                                                 
   12.284   6%  11.867 NAA                                                 
    7.127  11%   6.885 Tau                                                 
    1.539  18%   1.487 PCho                                                
    0.000 999%   0.000 GPC                                                 
    9.639  10%   9.312 Glu                                                 
    4.392  17%   4.243 Gln                                                 
    3.261  19%   3.151 Ala                                                 
    1.266  85%   1.223 Asc                                                 
    2.611  37%   2.523 Asp                                                 
    0.481 104%   0.465 GABA                                                
    0.652 104%   0.630 Glc                                                 
    1.540  31%   1.488 GSH                                                 
    0.605 104%   0.584 Lac                                                 
    2.424  24%   2.342 NAAG                                                
    1.026 103%   0.991 PE                                                  
    1.539  18%   1.487 GPC+PCho                                            
   14.708   5%  14.209 NAA+NAAG                                            
   14.032   9%  13.556 Glu+Gln                                             
    8.281   8%   8.000 Cr+PCr                                              
   14.708   5%  14.209 NAA+NAAG                                            
    8.281   8%   8.000 Cr+PCr                                              
   14.032   9%  13.556 Glu+Gln                                             
   6 lines in following misc. output table
  FWHM = 0.024 ppm    S/N =   5                                            
  Data shift = 0.033 ppm                                                   
  Ph: 163 deg       0.0 deg/ppm                                            
  alphaB,S = 1.5E-01,   4.0E-01                                            
   19 spline knots.   Ns = 5(1)                                            
   2 inflections.     1 extrema                                            
  480 points on ppm-axis = NY
      4.100000     4.091866     4.083733     4.075600     4.067466     4.059333     4.051199     4.043066     4.034933     4.026799
      4.018666     4.010532     4.002399     3.994265     3.986132     3.977998     3.969864     3.961731     3.953597     3.945463
      3.937330     3.929196     3.921062     3.912929     3.904795     3.896662     3.888528     3.880394     3.872261     3.864127
      3.855993     3.847860     3.839726     3.831592     3.823459     3.815325     3.807191     3.799058     3.790924     3.782790
      3.774657     3.766523     3.758389     3.750256     3.742122     3.733989     3.725855     3.717721     3.709588     3.701454
      3.693320     3.685187     3.677053     3.668919     3.660786     3.652652     3.644518     3.636385     3.628251     3.620117
      3.611984     3.603850     3.595716     3.587583     3.579449     3.571316     3.563182     3.555048     3.546915     3.538781
      3.530647     3.522514     3.514380     3.506246     3.498113     3.489979     3.481845     3.473712     3.465578     3.457444
      3.449311     3.441177     3.433043     3.424910     3.416776     3.408643     3.400509     3.392375     3.384242     3.376108
      3.367974     3.359841     3.351707     3.343573     3.335440     3.327306     3.319172     3.311039     3.302905     3.294771
      3.286638     3.278504     3.270370     3.262237     3.254103     3.245970     3.237836     3.229702     3.221569     3.213435
      3.205301     3.197168     3.189034     3.180900     3.172767     3.164633     3.156499     3.148366     3.140232     3.132098
      3.123965     3.115831     3.107697     3.099564     3.091430     3.083297     3.075163     3.067029     3.058896     3.050762
      3.042628     3.034495     3.026361     3.018227     3.010094     3.001960     2.993826     2.985693     2.977559     2.969425
      2.961292     2.953158     2.945024     2.936891     2.928757     2.920624     2.912490     2.904356     2.896223     2.888089
      2.879955     2.871822     2.863688     2.855554     2.847421     2.839287     2.831153     2.823020     2.814886     2.806752
      2.798619     2.790485     2.782351     2.774218     2.766084     2.757951     2.749817     2.741683     2.733550     2.725416
      2.717282     2.709149     2.701015     2.692881     2.684748     2.676614     2.668480     2.660347     2.652213     2.644079
      2.635946     2.627812     2.619678     2.611545     2.603411     2.595278     2.587144     2.579010     2.570877     2.562743
      2.554609     2.546476     2.538342     2.530208     2.522075     2.513941     2.505807     2.497674     2.489540     2.481406
      2.473273     2.465139     2.457006     2.448872     2.440738     2.432605     2.424471     2.416337     2.408204     2.400070
      2.391936     2.383803     2.375669     2.367535     2.359402     2.351268     2.343134     2.335001     2.326867     2.318733
      2.310600     2.302466     2.294333     2.286199     2.278065     2.269932     2.261798     2.253664     2.245531     2.237397
      2.229263     2.221130     2.212996     2.204862     2.196729     2.188595     2.180461     2.172328     2.164194     2.156060
      2.147927     2.139793     2.131660     2.123526     2.115392     2.107259     2.099125     2.090991     2.082858     2.074724
      2.066590     2.058457     2.050323     2.042189     2.034056     2.025922     2.017788     2.009655     2.001521     1.993387
      1.985254     1.977120     1.968987     1.960853     1.952719     1.944586     1.936452     1.928318     1.920185     1.912051
      1.903917     1.895784     1.887650     1.879516     1.871383     1.863249     1.855115     1.846982     1.838848     1.830714
      1.822581     1.814447     1.806314     1.798180     1.790046     1.781913     1.773779     1.765645     1.757512     1.749378
      1.741244     1.733111     1.724977     1.716843     1.708710     1.700576     1.692442     1.684309     1.676175     1.668041
      1.659908     1.651774     1.643641     1.635507     1.627373     1.619240     1.611106     1.602972     1.594839     1.586705
      1.578571     1.570438     1.562304     1.554170     1.546037     1.537903     1.529769     1.521636     1.513502     1.505368
      1.497235     1.489101     1.480968     1.472834     1.464700     1.456567     1.448433     1.440299     1.432166     1.424032
      1.415898     1.407765     1.399631     1.391497     1.383364     1.375230     1.367096     1.358963     1.350829     1.342695
      1.334562     1.326428     1.318295     1.310161     1.302027     1.293894     1.285760     1.277626     1.269493     1.261359
      1.253225     1.245092     1.236958     1.228824     1.220691     1.212557     1.204423     1.196290     1.188156     1.180022
      1.171889     1.163755     1.155622     1.147488     1.139354     1.131221     1.123087     1.114953     1.106820     1.098686
      1.090552     1.082419     1.074285     1.066151     1.058018     1.049884     1.041750     1.033617     1.025483     1.017349
      1.009216     1.001082     0.992949     0.984815     0.976681     0.968548     0.960414     0.952280     0.944147     0.936013
      0.927879     0.919746     0.911612     0.903478     0.895345     0.887211     0.879077     0.870944     0.862810     0.854676
      0.846543     0.838409     0.830276     0.822142     0.814008     0.805875     0.797741     0.789607     0.781474     0.773340
      0.765206     0.757073     0.748939     0.740805     0.732672     0.724538     0.716404     0.708271     0.700137     0.692003
      0.683870     0.675736     0.667603     0.659469     0.651335     0.643202     0.635068     0.626934     0.618801     0.610667
      0.602533     0.594400     0.586266     0.578132     0.569999     0.561865     0.553731     0.545598     0.537464     0.529330
      0.521197     0.513063     0.504930     0.496796     0.488662     0.480529     0.472395     0.464261     0.456128     0.447994
      0.439861     0.431727     0.423593     0.415460     0.407326     0.399192     0.391059     0.382925     0.374792     0.366658
      0.358524     0.350391     0.342257     0.334124     0.325990     0.317856     0.309723     0.301589     0.293455     0.285322
      0.277188     0.269055     0.260921     0.252787     0.244654     0.236520     0.228386     0.220253     0.212119     0.203986
 NY phased data points follow
  -2.99487E+01 -4.28840E+01 -2.72249E+01 -3.29657E+01 -3.90392E+01 -2.81743E+01 -2.91129E+01 -2.27252E+01 -3.20598E+01 -3.86616E+01
  -2.63311E+01 -4.20303E+01 -4.18181E+01 -4.93865E+01 -5.41875E+01 -5.19048E+01 -6.15160E+01 -4.76349E+01 -7.48343E+01 -9.82026E+01
  -8.88988E+01 -9.19319E+01 -5.87329E+01 -3.90850E+01 -2.30728E+01  1.52662E+01  5.81251E+00  1.63976E+01  2.81500E+01  6.10639E+00
   1.00843E+01  8.10246E+00  1.12691E+01  5.54436E+00  6.65196E-01  1.17976E+01 -3.02571E+00 -6.78852E+00 -6.97945E+00 -3.39191E+01
  -5.40465E+01 -5.27118E+01 -6.23775E+01 -4.95394E+01 -2.09474E+01 -1.13811E+01  1.92311E+01  3.36191E+01  3.24847E+01  4.02072E+01
   4.70900E+01  4.95939E+01  4.43384E+01  4.14530E+01  2.16768E+01  5.35450E+00  1.88196E+01  1.47014E+01 -1.41818E+01 -1.46289E+01
  -5.57671E+00 -8.53196E-01  6.77188E+00  2.76121E+01  4.02411E+01  2.15596E+01  2.80308E+01  3.37459E+01  1.74421E+01 -1.91328E+01
  -1.46707E+01  1.30734E+01 -1.76176E+01 -7.27800E+00  1.25049E+01  1.28300E+01  3.24107E+01  3.73970E+01  3.49700E+01  3.71917E+01
   4.60418E+01  4.03276E+01  2.09168E+01 -3.02629E+00 -2.15595E+01 -1.99599E+01 -1.86077E+01 -9.74708E+00  2.72580E+01  2.89900E+01
   2.28198E+01  4.52948E+01  4.12958E+01  4.58728E+01  4.85499E+01  4.82687E+01  7.18671E+01  7.73111E+01  6.20422E+01  6.29512E+01
   6.49595E+01  5.60223E+01  4.77620E+01  3.88004E+01  2.09232E+01 -1.65881E+01 -1.21590E+01 -1.69350E+01 -3.17527E+01 -4.36575E+01
  -1.20154E+02 -1.36377E+02 -1.04146E+02 -8.41921E+01 -6.39978E+01 -6.56349E+01 -3.91658E+01 -2.24674E+01 -3.83436E+01 -2.74832E+01
  -2.11105E+01 -7.59219E+00  3.75560E+00 -6.82165E-01  1.06622E+01  6.98864E+00  3.72425E+01  4.61029E+01  5.31158E+01  9.46010E+01
   1.24123E+02  1.34258E+02  3.77430E+01 -3.71111E+01 -6.43768E+01 -8.69620E+01 -8.76908E+01 -7.79368E+01 -6.89817E+01 -8.29248E+01
  -5.72759E+01 -6.82668E+01 -6.50475E+01 -5.96426E+01 -7.54282E+01 -6.17793E+01 -7.84916E+01 -6.04252E+01 -6.88260E+01 -7.91023E+01
  -4.39633E+01 -5.14844E+01 -5.42791E+01 -4.07325E+01 -5.49039E+01 -4.79054E+01 -3.20152E+01 -3.77635E+01 -3.86360E+01 -4.29785E+01
  -3.16915E+01 -3.50884E+01 -2.81299E+01 -2.48832E+01 -4.45764E+01 -3.92789E+01 -4.85351E+01 -5.11923E+01 -3.29754E+01 -2.47583E+01
  -3.03888E+01 -1.58367E+01  1.47321E+00 -2.64543E+00 -8.39811E+00  9.59804E+00  2.06429E+01  2.69754E+00  9.61585E+00  3.64192E+00
  -1.80238E+01 -3.45830E+01 -4.71916E+01 -6.19010E+01 -6.03794E+01 -5.23487E+01 -5.71306E+01 -4.57447E+01 -4.15383E+01 -4.11397E+01
  -5.06760E+01 -4.31233E+01 -4.27431E+01 -3.06968E+01 -1.06754E+01 -2.09414E+01 -1.03648E+01 -1.63414E+01 -1.45250E+01 -6.15572E+00
  -1.22067E+01 -1.69521E+01 -1.92114E+00 -7.74109E+00  4.14396E+00  2.13099E+01 -2.26453E+01 -2.96148E+01 -4.61972E+01 -3.45719E+01
  -4.52023E+01 -6.63287E+01 -3.73557E+01 -4.33987E+01 -2.37593E+01  5.09626E+00  3.01479E+01  1.98087E+01  3.30714E+01  3.42209E+01
   1.18148E+01  9.68427E+00 -2.72117E+01 -2.59059E+01 -1.76521E+01 -8.57371E+00 -1.66537E+01 -4.92271E+00 -6.63427E-01 -2.30143E+01
  -1.75979E+01 -2.90412E+01 -2.05379E+01 -3.47261E+01 -5.36101E+01 -5.36302E+01 -5.32554E+01 -6.64933E+01 -7.28477E+01 -8.50912E+01
  -9.12648E+01 -6.52968E+01 -7.23826E+01 -5.12909E+01 -4.92282E+01 -4.12712E+01 -3.30460E+01 -3.98595E+01 -2.70456E+01 -4.35241E+01
  -3.60797E+01 -4.88436E+01 -5.45967E+01 -6.27924E+01 -7.69838E+01 -9.93523E+01 -1.31151E+02 -7.20086E+01  3.92108E+01  1.41774E+02
   1.70622E+02  1.62238E+02  1.51027E+02  1.35201E+02  1.19496E+02  9.67253E+01  8.69950E+01  9.42166E+01  1.05463E+02  8.88040E+01
   9.03725E+01  7.87887E+01  7.45525E+01  9.87354E+01  8.41079E+01  7.35321E+01  8.31707E+01  8.24660E+01  7.21976E+01  8.71423E+01
   9.22591E+01  8.18974E+01  7.98042E+01  7.61301E+01  7.33957E+01  6.84317E+01  7.35799E+01  7.00227E+01  7.69062E+01  7.61330E+01
   6.34175E+01  7.43825E+01  6.47172E+01  5.58476E+01  5.44777E+01  5.24160E+01  6.31060E+01  4.42802E+01  3.44824E+01  3.28152E+01
   2.24245E+01  4.58197E+01  5.62928E+01  4.63226E+01  4.07185E+01  5.03733E+01  4.83159E+01  3.71803E+01  5.66974E+01  5.05698E+01
   3.17360E+01  2.90238E+01  3.52861E+01  4.34707E+01  4.87511E+01  5.84157E+01  4.16702E+01  2.88215E+01  2.63658E+01  1.11682E+01
   1.39457E+01  1.99784E+01  6.67299E+00 -8.47048E+00 -1.24233E+01 -1.79597E+01 -2.58980E+01 -2.54193E+01 -2.63676E+01 -8.23805E+00
   6.15644E-01 -1.76268E+01 -8.70821E+00 -2.11411E+01 -5.74665E+01 -5.74917E+01 -5.44858E+01 -5.62143E+01 -4.51871E+01 -4.90966E+01
  -4.67477E+01 -2.79979E+01 -2.28022E+01 -3.09884E+01 -5.24572E+01 -2.96830E+01 -7.03956E+00 -3.07128E+01 -2.34744E+01 -1.21910E+01
  -1.51177E+01 -1.06630E+01 -1.30945E+01 -6.77885E+00  7.71098E+00 -6.44653E+00 -2.43312E+01 -4.27860E+01 -4.37721E+01 -1.12126E+01
  -1.25259E+01 -2.50130E+01 -2.89878E+01 -1.30307E+01 -6.90558E-01 -1.67531E+01  2.65638E-01  1.52348E+01  1.31328E+01  1.89548E+01
   4.59945E+00  2.88022E+00  1.73242E+01  2.66792E+01  4.75093E+01  4.49904E+01  5.67325E+01  5.76564E+01  3.64992E+01  6.05113E+01
   6.42659E+01  6.97463E+01  8.73009E+01  9.11655E+01  9.38580E+01  1.04220E+02  1.17418E+02  1.15584E+02  1.18471E+02  1.17786E+02
   1.22307E+02  1.08573E+02  9.68357E+01  8.58323E+01  7.40147E+01  7.53371E+01  5.46157E+01  5.13626E+01  4.45441E+01  4.57845E+01
   3.75028E+01  1.80398E+01  2.38285E+01  5.60783E+00 -6.12139E+00 -5.15384E+00 -2.70831E+00 -1.73804E+01 -3.27201E+01 -1.66790E+01
  -2.18078E+01 -2.37824E+01 -9.94233E+00 -1.27387E+01 -1.17302E+01 -2.02164E+01 -2.15582E+01 -6.59614E+00 -2.03076E+01 -2.73941E+01
  -1.83454E+01 -2.66968E+01 -3.52832E+01 -3.08140E+01 -2.40948E+01 -1.83361E+01 -1.48724E+01 -2.33704E+01 -3.69430E+01 -2.49726E+01
  -2.16800E+01 -3.48103E+01 -1.88599E+01 -2.74226E+01 -2.96597E+01 -2.37705E+01 -1.97032E+01 -7.75027E+00 -3.46617E+01 -3.91756E+01
  -3.53533E+01 -2.24238E+01 -2.70410E+01 -2.66609E+01 -2.05044E+00 -2.47512E+01 -2.23124E+01 -2.55724E+01 -2.85039E+01 -2.04440E+01
  -3.09231E+01 -2.76612E+01 -1.91498E+01 -1.47989E+01 -2.88505E+01 -3.60046E+01 -3.47907E+01 -2.31519E+01 -1.62539E+01 -2.11237E+01
  -2.01649E+01 -9.03091E+00 -5.69745E+00 -9.75582E+00 -1.13411E+01 -1.63003E+01 -6.95275E+00 -2.89449E+01 -3.21755E+01 -2.21083E+01
  -2.37812E+01 -1.59252E+01 -1.77906E+01 -3.66456E+00 -2.09045E+01 -2.64122E+01 -3.23220E+01 -3.44939E+01 -1.62501E+01 -2.19345E+01
 NY points of the fit to the data follow
  -3.02454E+01 -3.28646E+01 -3.85556E+01 -4.63023E+01 -4.99917E+01 -4.33593E+01 -3.03069E+01 -2.20627E+01 -2.20353E+01 -2.71584E+01
  -3.37729E+01 -3.94045E+01 -4.33837E+01 -4.56324E+01 -4.74929E+01 -5.04393E+01 -5.25408E+01 -5.61639E+01 -6.77601E+01 -8.12095E+01
  -9.37211E+01 -8.18443E+01 -5.89956E+01 -3.47312E+01 -8.03255E+00  6.71875E+00  1.17418E+01  1.34697E+01  1.48321E+01  1.69445E+01
   1.81329E+01  1.76919E+01  1.63475E+01  1.40629E+01  1.04203E+01  5.02229E+00 -1.20290E+00 -6.78919E+00 -1.63179E+01 -3.20400E+01
  -5.25803E+01 -6.55752E+01 -6.07686E+01 -4.39152E+01 -2.23533E+01  5.83493E-01  1.82803E+01  2.85383E+01  3.41273E+01  3.58661E+01
   3.52935E+01  3.38888E+01  3.24250E+01  2.89669E+01  2.02763E+01  1.07072E+01  2.83423E+00 -2.80611E+00 -6.92866E+00 -1.10159E+01
  -6.32917E+00 -5.05539E-01  1.81290E+00  1.14714E+01  2.21376E+01  3.00983E+01  3.65841E+01  3.42772E+01  2.05715E+01  1.10106E+00
  -9.48104E+00 -8.16905E+00 -5.36582E+00  1.23185E+00  1.37849E+01  2.61823E+01  3.49691E+01  4.09805E+01  4.44913E+01  4.56229E+01
   4.46662E+01  3.40272E+01  2.03959E+01 -1.66344E+00 -1.66150E+01 -2.20333E+01 -1.80134E+01 -3.93330E+00  9.82663E+00  2.09141E+01
   2.90682E+01  3.49214E+01  3.98480E+01  4.44059E+01  4.83871E+01  5.24825E+01  5.70226E+01  5.93904E+01  5.91655E+01  5.85478E+01
   6.02780E+01  6.18592E+01  5.65064E+01  4.10029E+01  2.36429E+01 -4.60084E+00 -1.61328E+01 -1.57089E+01 -2.43057E+01 -5.77739E+01
  -1.02364E+02 -1.18319E+02 -1.09701E+02 -9.17301E+01 -7.24149E+01 -5.82546E+01 -4.79268E+01 -3.91744E+01 -3.12177E+01 -2.37961E+01
  -1.69369E+01 -1.00398E+01 -2.86573E+00  5.09172E+00  1.41678E+01  2.50930E+01  3.86465E+01  4.78638E+01  6.04112E+01  9.30359E+01
   1.23734E+02  1.24639E+02  5.12333E+01 -3.26791E+01 -7.37948E+01 -8.86725E+01 -8.56002E+01 -7.81142E+01 -7.37483E+01 -7.11084E+01
  -7.02966E+01 -7.03527E+01 -7.04905E+01 -7.10432E+01 -7.12462E+01 -7.17440E+01 -7.10437E+01 -6.90806E+01 -6.63286E+01 -6.31511E+01
  -5.99798E+01 -5.70271E+01 -5.47313E+01 -5.25707E+01 -4.96311E+01 -4.59019E+01 -4.30623E+01 -4.21848E+01 -4.22854E+01 -4.10050E+01
  -3.77653E+01 -3.43184E+01 -3.36356E+01 -3.60792E+01 -3.81463E+01 -3.77362E+01 -3.47777E+01 -3.21829E+01 -3.32786E+01 -3.53523E+01
  -3.06354E+01 -1.54773E+01  7.52733E-01  3.98545E+00 -5.18651E+00 -1.02028E+01 -3.16272E+00  6.30656E+00  6.59647E+00 -5.94586E+00
  -2.04549E+01 -3.09926E+01 -3.81926E+01 -4.25698E+01 -4.54091E+01 -4.73595E+01 -4.79985E+01 -4.79282E+01 -4.77473E+01 -4.54445E+01
  -4.29125E+01 -4.13901E+01 -3.87142E+01 -3.35862E+01 -2.22565E+01 -1.61177E+01 -1.72504E+01 -1.29629E+01 -8.52283E+00 -6.46762E+00
  -7.74129E+00 -8.92899E+00 -3.28116E+00  1.31428E+00  7.74850E-01 -3.48153E+00 -9.37528E+00 -1.61921E+01 -2.46053E+01 -3.38653E+01
  -4.08105E+01 -4.45453E+01 -4.59892E+01 -3.85088E+01 -2.64337E+01 -3.06365E+00  2.02025E+01  3.22004E+01  3.98707E+01  3.52507E+01
   2.36320E+01  1.49749E+01  9.42707E+00  8.32738E+00  9.54858E+00  1.03843E+01  9.92683E+00  6.69408E+00  7.20093E-01 -7.61646E+00
  -1.82655E+01 -2.97505E+01 -4.15342E+01 -5.23832E+01 -6.24542E+01 -7.13498E+01 -7.69890E+01 -8.05603E+01 -8.23172E+01 -7.99477E+01
  -7.64164E+01 -7.21509E+01 -6.24243E+01 -5.36944E+01 -4.31295E+01 -3.45591E+01 -3.18494E+01 -3.17427E+01 -3.66341E+01 -4.11194E+01
  -4.89639E+01 -6.67909E+01 -7.31525E+01 -6.55696E+01 -7.20332E+01 -1.05174E+02 -1.39029E+02 -7.66891E+01  4.06565E+01  1.17960E+02
   1.50890E+02  1.50913E+02  1.36196E+02  1.23551E+02  1.14997E+02  1.08462E+02  1.02781E+02  9.71549E+01  9.21293E+01  8.76019E+01
   8.43429E+01  8.22067E+01  8.11309E+01  8.09888E+01  8.09153E+01  8.10282E+01  8.03154E+01  7.93070E+01  7.82603E+01  7.70521E+01
   7.54166E+01  7.31651E+01  7.05873E+01  6.80942E+01  6.56922E+01  6.30378E+01  6.01664E+01  5.74199E+01  5.44768E+01  5.12388E+01
   4.76000E+01  4.33596E+01  3.90626E+01  3.44777E+01  2.99582E+01  2.61756E+01  2.37914E+01  2.31691E+01  2.41307E+01  2.59292E+01
   2.80032E+01  3.03655E+01  3.30537E+01  3.57811E+01  3.83963E+01  4.07443E+01  4.27703E+01  4.46985E+01  4.69086E+01  4.96742E+01
   5.23848E+01  5.47311E+01  5.67072E+01  5.85637E+01  6.04693E+01  6.21384E+01  6.32858E+01  6.34000E+01  6.42450E+01  6.59187E+01
   6.35947E+01  5.60501E+01  3.62592E+01  1.69940E+01 -1.13127E+00 -1.28256E+01 -1.29042E+01 -1.18884E+01 -1.36452E+01 -1.84667E+01
  -2.54758E+01 -3.26882E+01 -3.90731E+01 -4.35363E+01 -4.55105E+01 -4.44031E+01 -4.06875E+01 -3.56546E+01 -3.00598E+01 -2.51186E+01
  -2.15829E+01 -1.96684E+01 -1.94958E+01 -1.84597E+01 -1.71878E+01 -1.40594E+01 -9.81692E+00 -6.64540E+00 -4.26848E+00 -2.88880E+00
  -2.41737E+00 -2.97847E+00 -4.59176E+00 -7.54055E+00 -1.18704E+01 -1.66919E+01 -2.05810E+01 -2.30882E+01 -2.40354E+01 -2.33023E+01
  -2.13789E+01 -1.85037E+01 -1.47801E+01 -1.06844E+01 -6.13978E+00 -1.79185E+00  2.22409E+00  6.03758E+00  9.58632E+00  1.33331E+01
   1.71907E+01  2.09555E+01  2.46741E+01  2.83679E+01  3.25270E+01  3.71354E+01  4.23320E+01  4.77013E+01  5.37635E+01  6.07800E+01
   6.81852E+01  7.57001E+01  8.36480E+01  9.22407E+01  1.00929E+02  1.09033E+02  1.15786E+02  1.19593E+02  1.19265E+02  1.13600E+02
   1.03816E+02  9.21443E+01  8.06791E+01  7.05399E+01  6.20320E+01  5.50730E+01  4.82969E+01  4.05626E+01  3.16017E+01  2.19829E+01
   1.20276E+01  2.97320E+00 -4.44222E+00 -1.00897E+01 -1.45770E+01 -1.78009E+01 -1.99489E+01 -2.13274E+01 -2.23674E+01 -2.34119E+01
  -2.44461E+01 -2.52465E+01 -2.55346E+01 -2.55283E+01 -2.55698E+01 -2.56056E+01 -2.52947E+01 -2.49755E+01 -2.50350E+01 -2.52065E+01
  -2.49347E+01 -2.43645E+01 -2.42178E+01 -2.41882E+01 -2.39919E+01 -2.37234E+01 -2.36603E+01 -2.37585E+01 -2.37012E+01 -2.33023E+01
  -2.27699E+01 -2.24221E+01 -2.23042E+01 -2.24876E+01 -2.26128E+01 -2.27394E+01 -2.25203E+01 -2.21792E+01 -2.18450E+01 -2.15266E+01
  -2.13858E+01 -2.12458E+01 -2.10773E+01 -2.08781E+01 -2.09973E+01 -2.11894E+01 -2.13531E+01 -2.13887E+01 -2.11320E+01 -2.09146E+01
  -2.07022E+01 -2.05923E+01 -2.07674E+01 -2.07772E+01 -2.05938E+01 -2.03062E+01 -2.00578E+01 -1.98152E+01 -1.97898E+01 -1.96462E+01
  -1.94783E+01 -1.92759E+01 -1.92970E+01 -1.94710E+01 -1.95631E+01 -1.96764E+01 -1.97572E+01 -1.95434E+01 -1.90376E+01 -1.83201E+01
  -1.79553E+01 -1.80299E+01 -1.84357E+01 -1.87362E+01 -1.87816E+01 -1.86903E+01 -1.85040E+01 -1.82190E+01 -1.80064E+01 -1.80288E+01
 NY background values follow
    -6.520E+00   -6.406E+00   -6.291E+00   -6.175E+00   -6.060E+00   -5.943E+00   -5.826E+00   -5.709E+00   -5.592E+00   -5.473E+00
    -5.355E+00   -5.236E+00   -5.116E+00   -4.996E+00   -4.876E+00   -4.755E+00   -4.634E+00   -4.513E+00   -4.391E+00   -4.268E+00
    -4.145E+00   -4.022E+00   -3.899E+00   -3.775E+00   -3.651E+00   -3.526E+00   -3.401E+00   -3.276E+00   -3.150E+00   -3.024E+00
    -2.898E+00   -2.772E+00   -2.645E+00   -2.518E+00   -2.391E+00   -2.264E+00   -2.138E+00   -2.011E+00   -1.885E+00   -1.760E+00
    -1.635E+00   -1.511E+00   -1.387E+00   -1.265E+00   -1.143E+00   -1.022E+00   -9.031E-01   -7.850E-01   -6.682E-01   -5.529E-01
    -4.392E-01   -3.271E-01   -2.168E-01   -1.083E-01   -1.839E-03    1.026E-01    2.049E-01    3.049E-01    4.026E-01    4.979E-01
     5.906E-01    6.807E-01    7.682E-01    8.531E-01    9.355E-01    1.015E+00    1.093E+00    1.168E+00    1.240E+00    1.311E+00
     1.378E+00    1.444E+00    1.507E+00    1.568E+00    1.627E+00    1.684E+00    1.739E+00    1.791E+00    1.841E+00    1.890E+00
     1.936E+00    1.980E+00    2.023E+00    2.063E+00    2.102E+00    2.139E+00    2.174E+00    2.207E+00    2.238E+00    2.268E+00
     2.296E+00    2.322E+00    2.347E+00    2.370E+00    2.391E+00    2.411E+00    2.430E+00    2.447E+00    2.462E+00    2.476E+00
     2.489E+00    2.500E+00    2.510E+00    2.518E+00    2.525E+00    2.531E+00    2.535E+00    2.539E+00    2.540E+00    2.541E+00
     2.541E+00    2.539E+00    2.536E+00    2.532E+00    2.527E+00    2.521E+00    2.514E+00    2.506E+00    2.497E+00    2.487E+00
     2.476E+00    2.464E+00    2.451E+00    2.437E+00    2.422E+00    2.406E+00    2.389E+00    2.371E+00    2.352E+00    2.332E+00
     2.311E+00    2.289E+00    2.266E+00    2.241E+00    2.216E+00    2.189E+00    2.161E+00    2.132E+00    2.101E+00    2.070E+00
     2.037E+00    2.003E+00    1.967E+00    1.931E+00    1.893E+00    1.853E+00    1.812E+00    1.770E+00    1.727E+00    1.682E+00
     1.636E+00    1.588E+00    1.540E+00    1.489E+00    1.438E+00    1.386E+00    1.333E+00    1.280E+00    1.225E+00    1.171E+00
     1.115E+00    1.060E+00    1.004E+00    9.484E-01    8.926E-01    8.370E-01    7.815E-01    7.264E-01    6.718E-01    6.177E-01
     5.643E-01    5.117E-01    4.600E-01    4.092E-01    3.595E-01    3.111E-01    2.640E-01    2.183E-01    1.741E-01    1.316E-01
     9.079E-02    5.187E-02    1.493E-02   -1.992E-02   -5.254E-02   -8.283E-02   -1.107E-01   -1.359E-01   -1.585E-01   -1.783E-01
    -1.951E-01   -2.089E-01   -2.195E-01   -2.268E-01   -2.308E-01   -2.312E-01   -2.279E-01   -2.210E-01   -2.101E-01   -1.952E-01
    -1.763E-01   -1.530E-01   -1.255E-01   -9.344E-02   -5.682E-02   -1.549E-02    3.067E-02    8.177E-02    1.379E-01    1.993E-01
     2.659E-01    3.378E-01    4.145E-01    4.958E-01    5.814E-01    6.708E-01    7.639E-01    8.601E-01    9.593E-01    1.061E+00
     1.165E+00    1.271E+00    1.379E+00    1.488E+00    1.597E+00    1.708E+00    1.818E+00    1.929E+00    2.039E+00    2.149E+00
     2.257E+00    2.365E+00    2.470E+00    2.573E+00    2.674E+00    2.773E+00    2.868E+00    2.960E+00    3.049E+00    3.133E+00
     3.213E+00    3.289E+00    3.359E+00    3.424E+00    3.483E+00    3.537E+00    3.584E+00    3.624E+00    3.658E+00    3.684E+00
     3.703E+00    3.713E+00    3.715E+00    3.709E+00    3.693E+00    3.669E+00    3.634E+00    3.590E+00    3.535E+00    3.470E+00
     3.393E+00    3.306E+00    3.206E+00    3.095E+00    2.972E+00    2.835E+00    2.686E+00    2.524E+00    2.347E+00    2.157E+00
     1.953E+00    1.734E+00    1.502E+00    1.256E+00    9.963E-01    7.241E-01    4.395E-01    1.427E-01   -1.659E-01   -4.859E-01
    -8.170E-01   -1.159E+00   -1.511E+00   -1.873E+00   -2.245E+00   -2.627E+00   -3.017E+00   -3.416E+00   -3.823E+00   -4.238E+00
    -4.661E+00   -5.091E+00   -5.527E+00   -5.971E+00   -6.420E+00   -6.875E+00   -7.336E+00   -7.802E+00   -8.273E+00   -8.748E+00
    -9.227E+00   -9.709E+00   -1.019E+01   -1.068E+01   -1.117E+01   -1.166E+01   -1.214E+01   -1.263E+01   -1.311E+01   -1.359E+01
    -1.407E+01   -1.454E+01   -1.501E+01   -1.547E+01   -1.592E+01   -1.637E+01   -1.680E+01   -1.723E+01   -1.764E+01   -1.805E+01
    -1.844E+01   -1.882E+01   -1.919E+01   -1.954E+01   -1.987E+01   -2.019E+01   -2.050E+01   -2.078E+01   -2.105E+01   -2.130E+01
    -2.152E+01   -2.173E+01   -2.192E+01   -2.208E+01   -2.223E+01   -2.236E+01   -2.247E+01   -2.256E+01   -2.263E+01   -2.269E+01
    -2.273E+01   -2.275E+01   -2.275E+01   -2.274E+01   -2.271E+01   -2.267E+01   -2.261E+01   -2.253E+01   -2.244E+01   -2.234E+01
    -2.222E+01   -2.208E+01   -2.193E+01   -2.177E+01   -2.160E+01   -2.141E+01   -2.121E+01   -2.100E+01   -2.077E+01   -2.054E+01
    -2.029E+01   -2.003E+01   -1.977E+01   -1.949E+01   -1.920E+01   -1.891E+01   -1.861E+01   -1.830E+01   -1.798E+01   -1.766E+01
    -1.734E+01   -1.701E+01   -1.668E+01   -1.634E+01   -1.601E+01   -1.567E+01   -1.533E+01   -1.499E+01   -1.465E+01   -1.432E+01
    -1.398E+01   -1.365E+01   -1.332E+01   -1.300E+01   -1.268E+01   -1.236E+01   -1.205E+01   -1.175E+01   -1.145E+01   -1.117E+01
    -1.089E+01   -1.062E+01   -1.036E+01   -1.011E+01   -9.864E+00   -9.630E+00   -9.406E+00   -9.190E+00   -8.984E+00   -8.787E+00
    -8.599E+00   -8.420E+00   -8.251E+00   -8.091E+00   -7.940E+00   -7.799E+00   -7.668E+00   -7.546E+00   -7.434E+00   -7.331E+00
    -7.238E+00   -7.155E+00   -7.082E+00   -7.018E+00   -6.964E+00   -6.921E+00   -6.887E+00   -6.863E+00   -6.850E+00   -6.846E+00
    -6.852E+00   -6.869E+00   -6.895E+00   -6.931E+00   -6.975E+00   -7.028E+00   -7.090E+00   -7.159E+00   -7.237E+00   -7.322E+00
    -7.414E+00   -7.513E+00   -7.619E+00   -7.731E+00   -7.849E+00   -7.973E+00   -8.102E+00   -8.236E+00   -8.375E+00   -8.519E+00
    -8.667E+00   -8.819E+00   -8.974E+00   -9.133E+00   -9.295E+00   -9.459E+00   -9.626E+00   -9.795E+00   -9.966E+00   -1.014E+01
    -1.031E+01   -1.049E+01   -1.066E+01   -1.084E+01   -1.102E+01   -1.120E+01   -1.138E+01   -1.156E+01   -1.174E+01   -1.193E+01
    -1.211E+01   -1.230E+01   -1.248E+01   -1.267E+01   -1.286E+01   -1.305E+01   -1.323E+01   -1.343E+01   -1.362E+01   -1.381E+01
    -1.400E+01   -1.419E+01   -1.439E+01   -1.458E+01   -1.478E+01   -1.497E+01   -1.517E+01   -1.536E+01   -1.556E+01   -1.576E+01
 Mac      Conc. = 3.14E-04
  -2.81885E+01 -2.88570E+01 -2.92932E+01 -2.95099E+01 -2.96717E+01 -2.99989E+01 -3.07355E+01 -3.21314E+01 -3.40043E+01 -3.59095E+01
  -3.74495E+01 -3.82738E+01 -3.85345E+01 -3.82771E+01 -3.79923E+01 -3.89541E+01 -4.12205E+01 -4.28657E+01 -4.17327E+01 -3.75893E+01
  -3.29375E+01 -2.84922E+01 -2.39053E+01 -2.03191E+01 -1.79117E+01 -1.63689E+01 -1.50208E+01 -1.35200E+01 -1.15780E+01 -9.20121E+00
  -6.99739E+00 -5.25681E+00 -3.78365E+00 -2.40740E+00 -1.67770E+00 -1.80369E+00 -2.32773E+00 -2.01394E+00  2.62334E-02  2.99695E+00
   5.32888E+00  6.03233E+00  5.86321E+00  6.05758E+00  6.99375E+00  8.64926E+00  9.99363E+00  1.06756E+01  1.06214E+01  9.85465E+00
   8.62192E+00  7.17911E+00  6.05856E+00  5.15638E+00  4.47158E+00  3.99708E+00  3.74774E+00  4.20556E+00  5.36626E+00  6.70886E+00
   7.97878E+00  9.53887E+00  1.12611E+01  1.21690E+01  1.22178E+01  1.14723E+01  1.05074E+01  1.00085E+01  9.62734E+00  8.98955E+00
   8.62162E+00  9.53131E+00  1.19336E+01  1.47309E+01  1.69030E+01  1.85198E+01  1.90959E+01  1.89790E+01  1.83209E+01  1.73713E+01
   1.67162E+01  1.61285E+01  1.55931E+01  1.53777E+01  1.57553E+01  1.64886E+01  1.73612E+01  1.82276E+01  1.91333E+01  1.98739E+01
   2.04212E+01  2.09210E+01  2.12380E+01  2.14649E+01  2.15185E+01  2.10598E+01  1.96405E+01  1.74195E+01  1.45755E+01  1.16871E+01
   9.22400E+00  7.16123E+00  4.84830E+00  2.08634E+00 -9.20777E-01 -4.94759E+00 -1.05607E+01 -1.78345E+01 -2.50514E+01 -3.00740E+01
