 
 $NMID
 ID=''
 FMTDAT='(2E13.5)'
 TRAMP=   1.00000E+0
 VOLUME=   1.00000E+0
 $END
  -1.09443E+4  -1.99818E+4
  -2.45948E+4  -1.96515E+3
   5.73862E+3   2.33327E+4
   2.49936E+4  -7.99653E+2
  -1.09787E+4  -1.77381E+4
  -1.53614E+4   5.89377E+3
   1.57995E+4   8.05229E+3
   5.69404E+3  -9.12200E+3
  -1.27833E+4   1.07434E+3
   2.16852E+3   9.61636E+3
   4.96704E+3  -2.07803E+3
  -6.78018E+3  -3.45233E+3
  -2.52468E+3   2.36150E+3
   1.69242E+3  -8.04918E+1
  -1.82155E+3  -1.94988E+3
   6.71508E+2  -1.84507E+3
   9.83591E+2  -8.54731E+2
  -1.07093E+3   1.90848E+3
   9.13350E+2   1.21344E+3
  -5.09286E+0  -1.08847E+3
  -1.64521E+3  -3.80084E+2
   1.86305E+3  -7.25668E+2
   1.33229E+3   2.69173E+2
  -2.03068E+3   1.87513E+3
  -1.23132E+2  -1.42581E+3
   2.49377E+3  -2.17841E+3
   1.17265E+3   3.33210E+3
  -1.79644E+3   1.84430E+3
  -1.80485E+3  -3.29513E+3
   1.55331E+3  -3.69635E+2
   1.56806E+3   3.04997E+3
  -1.90150E+3   4.19934E+2
  -1.86616E+3  -1.97386E+3
   5.86936E+2  -1.60471E+3
   1.40710E+3  -1.13441E+3
   1.51162E+3   1.59042E+2
   1.24180E+3   1.31603E+3
  -2.95066E+2   1.08313E+3
  -4.48447E+2  -2.24240E+2
  -7.23253E+1  -3.07927E+2
  -6.84873E+2  -8.02782E+1
  -2.24608E+1  -1.07459E+3
   1.56041E+3  -1.16425E+3
   1.63183E+3  -3.51298E+2
   1.32733E+3   3.19031E+2
   7.50922E+2   1.02813E+3
  -9.84510E+2   2.13988E+3
  -2.12581E+3   1.27187E+2
  -7.06640E+2  -2.70376E+3
   4.30562E+2  -1.75334E+3
   5.69844E+2   2.43650E+2
   5.05312E+2  -7.33309E+2
   5.80965E+2  -7.61871E+2
   4.64355E+2   8.32861E+2
   5.40459E+2   4.87320E+2
  -4.13542E+2  -3.52921E+2
  -1.23814E+3  -7.45553E+2
  -3.02593E+2  -1.16600E+3
   1.08424E+3  -1.03523E+3
   1.16282E+3  -6.68753E+1
   5.07566E+2   5.69003E+2
   4.71390E+2   8.09470E+2
  -2.00584E+2   1.43777E+3
  -1.65286E+3   8.86251E+2
  -2.10885E+3  -5.14442E+2
  -7.25103E+2  -1.19770E+3
   5.23070E+2  -1.63231E+3
   1.12159E+3  -1.01591E+3
   8.73053E+2   2.43105E+2
   2.23019E+1   9.19015E+2
  -2.41109E+2   8.97856E+1
   4.82816E+2  -9.04498E+2
   1.01873E+3   6.89885E+1
   2.28921E+2   9.52394E+2
  -7.86755E+2   4.01414E+2
  -9.59602E+1  -4.25137E+1
   5.66012E+2   8.48203E+1
  -1.00389E+2   7.65833E+2
  -4.31549E+2   3.66955E+2
  -4.31771E+2  -2.78622E+2
  -3.17455E+2  -3.35275E+2
  -1.49783E+2  -4.15776E+2
   2.08886E+2  -5.88750E+1
   6.73554E+1  -4.22661E+1
   8.17394E+0  -4.11765E+2
   6.36018E+2  -3.96945E+2
   9.79666E+2   8.76256E+1
   4.30415E+2   4.91280E+2
  -1.05482E+2   2.36326E+2
   3.22907E+2   1.29452E+2
   7.43098E+2   3.57873E+2
  -2.01912E+2   6.53915E+2
  -9.74540E+2   8.29708E+2
  -1.10477E+3   1.03959E+2
  -4.61939E+2  -1.14269E+3
   6.13925E+2  -8.11875E+2
   6.93499E+2   1.29791E+2
  -3.19269E+2   3.42598E+2
   1.33846E+2  -1.96949E+2
   8.41293E+2   7.73576E+0
   7.18262E+2   8.11834E+2
  -4.18724E+2   9.95147E+2
  -9.24084E+2  -4.76270E+1
  -1.44816E+2  -8.89465E+2
   5.79291E+2  -3.66801E+2
   6.07439E+2   4.81269E+2
  -1.14917E+2   3.45684E+2
  -9.94547E+2  -1.04780E+2
  -2.21547E+2  -9.34172E+2
   8.05986E+2  -8.03692E+2
   1.44172E+3   2.99812E+2
   4.75669E+2   1.00194E+3
  -2.29167E+2   7.01940E+2
  -3.61909E+1   8.13640E+1
  -1.94411E+2   4.60734E+2
  -4.21321E+2   4.77565E+2
  -7.76966E+2   6.98968E+1
  -7.69791E+2  -9.48286E+2
  -1.09944E+1  -1.18535E+3
   1.22873E+3  -5.21410E+2
   8.07658E+2   3.73972E+2
   3.10244E+2   4.41277E+2
   2.99583E+2   6.17704E+2
  -2.06187E+1   2.95948E+2
  -4.81397E+2   2.11715E+2
  -5.32849E+2  -2.24529E+2
   1.35037E+2  -1.62092E+2
   5.02629E+2  -2.34903E+2
   1.75205E+2   7.21886E+1
  -1.54584E+2   3.81317E+2
  -4.23279E+2   3.46552E+2
  -6.62224E+2  -2.81525E+2
  -1.35579E+2  -6.49194E+2
   4.12780E+2  -1.66564E+2
  -5.18849E+1   8.55318E+1
  -2.23114E+2  -3.17470E+2
   2.36128E+2  -1.61475E+1
   4.12168E+2   3.27429E+2
   2.58054E+2   5.03589E+2
  -5.51373E+2   8.45618E+1
  -4.21662E+2  -4.86812E+2
   1.77622E+2  -4.32775E+2
   7.33480E+2   3.40507E+1
  -3.69899E+1   7.14799E+2
  -5.28330E+2   6.54965E+2
  -6.62267E+2  -7.96760E+0
  -2.54688E+2  -1.55361E+2
  -9.51268E+1  -1.11513E+2
  -2.13546E+2  -5.79334E+1
  -1.48146E+2  -3.80844E+2
   2.54801E+2  -5.04982E+2
   7.04414E+2  -2.02347E+2
   4.71398E+2   2.54625E+2
   2.24553E+2   5.64356E+2
  -5.51887E+2   2.54422E+2
  -5.97797E+1  -1.40890E+2
   2.89453E+2   2.00767E+2
   1.10798E+2   2.14907E+2
  -2.85259E+2   9.88902E+1
  -7.60082E+1  -1.10902E+2
  -3.44989E-1   4.76938E+2
  -4.00432E+2   4.46493E+2
  -3.23533E+2  -1.34485E+2
  -2.11421E+1  -4.50347E+2
   1.81575E+2  -3.04527E+2
   3.16232E+2  -1.50386E+2
   5.14505E+2   2.68036E+2
  -1.65525E+2   2.77634E+2
  -1.73080E+2  -3.12320E+1
   1.57187E+2  -1.67105E+2
   3.01260E+2   1.48761E+2
   2.09198E+2   1.14250E+2
  -3.29763E+2   2.51433E+2
  -1.89924E+2   1.00100E+2
   1.30069E+2  -1.21245E+2
   2.52579E+2   4.60299E+0
  -3.01704E+2   3.00588E+2
  -4.68102E+2  -1.83271E+1
   1.02614E+2  -4.32003E+2
   6.10970E+2  -2.19269E+0
   1.86725E+2   1.57540E+2
  -1.96725E+2   4.11669E+2
  -1.70172E+2  -8.78628E+1
  -5.59302E+1  -2.79305E+2
   4.98239E+0  -2.94162E+2
  -5.86274E+0  -1.60910E+2
   5.60685E+1  -4.19241E+2
   1.02052E+2  -1.83756E+2
   3.66934E+2   2.33011E+2
   5.00647E+2   4.36375E+2
  -2.10420E+2   3.91805E+2
  -5.02950E+2  -2.23777E+0
  -5.75912E+2  -2.90073E+2
   2.04081E+1  -5.28291E+2
   2.76525E+2  -4.09194E+2
   2.54431E+2   6.95223E+1
  -1.42586E+2  -7.84358E+1
  -1.56954E+2   1.56975E+2
  -1.04443E+2   7.14539E+1
  -2.89565E+2   6.35585E+1
  -3.28145E+2  -3.82036E+2
  -5.53784E+1  -5.49047E+2
   1.86465E+2  -3.99543E+2
   2.68553E+2   2.91737E+1
  -2.30976E+2  -4.04710E+1
  -1.81908E+2  -7.81737E+1
  -1.12234E+1  -1.93522E+2
  -2.27522E+1  -9.40687E+1
   8.76521E+1  -1.17056E+2
  -1.08147E+2   9.69113E+1
  -2.71393E+2  -2.39242E+2
   2.06232E+2  -1.64209E+2
   1.51311E+2   1.29836E+2
  -3.59383E+2   2.96861E+2
  -7.11359E+2   1.00070E+2
  -5.64358E+2  -2.20815E+2
   5.58952E+1  -2.86167E+2
   2.92120E+2  -6.95983E+1
   2.46798E+2   8.78502E+0
   4.21892E-1  -2.55113E+2
  -3.25320E+1  -6.71957E+1
   4.97990E+1   7.75111E+1
  -1.56240E+2   3.27892E+2
  -4.79368E+2   1.67977E+2
  -5.61989E+2  -1.46443E+2
  -8.22959E+1  -3.53460E+2
   2.01780E+2  -7.61271E+1
  -1.38672E+2   3.24630E+2
  -2.51684E+2   5.99351E+1
  -2.89500E+2  -3.22286E+1
  -1.91848E+2  -2.45822E+2
  -9.41166E+1  -1.83696E+1
  -1.39545E+2  -1.36784E+2
  -4.76992E+1  -1.02692E+1
  -4.28805E+1  -1.90068E+2
   5.17531E+1  -1.75539E+2
   1.43687E+2   1.55106E+2
   6.08751E+1   3.77877E+2
  -1.23195E+2  -9.49673E+1
  -3.87323E+1  -4.04363E+1
   3.06859E+2  -1.91745E+1
  -6.35308E+1   2.84006E+2
  -4.20168E+1   2.75968E+2
  -3.40647E+2  -2.18469E+2
   9.80351E+1  -1.42536E+2
   1.98169E+0   5.68609E+1
  -7.04575E+1   1.18926E+2
  -2.13844E+2  -1.03026E+2
   1.14526E+2  -3.11800E+2
   1.61630E+2  -8.24133E+1
   7.90047E+1   2.12778E+1
  -2.68845E+2   1.99127E+2
  -1.81219E+2  -9.86095E+1
  -9.48113E+1  -3.10029E+2
   4.32395E+2  -1.36845E+2
   7.65769E+1   2.95955E+2
  -9.46516E+0   2.44159E+2
  -2.35406E+1  -1.86776E+2
  -1.72505E+2  -1.45035E+2
  -1.86240E+2   1.10313E+2
  -1.95048E+2   6.62610E+1
  -3.21068E+2  -3.35386E+2
   2.08557E+1  -3.78696E+2
   2.60793E+2  -2.66672E+2
   2.81851E+2   4.49029E+1
   4.16961E+1   1.40171E+2
  -3.48841E+2   1.07963E+2
  -2.04489E+2  -4.04235E+2
   1.70655E+2  -3.75286E+2
  -5.21828E+1  -4.15896E+1
   7.80499E+1   1.00126E+2
  -2.29599E+1  -2.51335E+1
  -6.72718E+1  -7.91596E+1
   1.96394E+1   1.25365E+2
  -2.75673E+2   1.62065E+2
  -2.50303E+2   1.43183E+2
  -1.05274E+2  -3.47689E+2
   4.86863E+1  -3.75075E+2
   1.72221E+2  -1.34118E+2
  -2.14260E+1   3.21716E+1
  -2.21301E+2  -6.62881E+1
  -2.35491E+2  -3.17341E+1
  -2.37385E+2  -6.48664E+1
  -1.74228E+2   1.17418E+2
  -3.45709E+2   7.67497E+1
  -2.27917E+2  -2.33670E+2
   2.49952E+2  -3.26861E+2
   1.17064E+2   2.14370E+2
  -5.28243E-1   1.86316E+2
  -2.13616E+2   1.72666E+2
  -1.99396E+2  -8.98410E+1
  -1.28239E+2  -1.62479E+2
  -3.80666E+2  -6.77546E+1
  -1.59077E+1   5.09951E+1
  -7.49709E+1  -2.14992E+2
  -4.83846E+1  -2.60731E+2
  -1.19160E+1  -1.83381E+2
  -1.53312E+2   1.83036E+2
  -3.78045E+2   1.87084E+1
  -1.71713E+2   8.42216E+1
   3.09191E+1  -2.05598E+2
   1.46895E+2   1.09836E+2
   7.94253E+1   1.88479E+2
  -2.85964E+2   1.78746E+2
  -7.63135E+1  -9.23715E+1
   1.65502E+2   1.97898E+1
   1.35710E+2  -7.71608E+1
   9.52608E+1   4.85669E+1
  -9.37568E+1  -4.10167E+1
   8.69130E+1  -7.12599E+1
   1.35237E+2   1.43056E+2
  -5.55224E+1   4.14684E+1
   7.50050E+1   3.95757E+1
  -3.54324E+2   3.94028E+2
  -2.12389E+2  -1.91941E+2
   2.84205E+2   3.09572E+1
   1.64354E+2   1.35716E+2
  -9.06368E+1   2.97146E+2
   7.86325E+1  -6.58323E+1
   5.11562E+1  -7.82883E+1
  -7.39020E+0  -5.08178E+1
  -9.25972E+1   4.85359E+1
  -1.75884E+2  -1.03372E+2
   3.70926E+1  -3.94039E+2
   2.29859E+1  -2.41850E+2
   1.97698E+2   2.99214E+2
  -2.88844E+2   3.32823E+2
  -2.78061E+2  -1.24332E+2
   8.15700E-1  -3.65676E+2
   5.64673E+1  -1.45514E+2
  -1.01145E+2   8.53018E+1
   8.23976E+1   1.26570E+2
  -1.62455E+1   8.47488E+1
   8.82120E+0   1.63563E+2
   3.55209E+1   1.40732E+2
  -5.84684E+1   1.47321E+1
  -1.95395E+2  -1.48137E+1
  -1.19595E+2  -2.68404E+2
   6.39559E+1  -1.89366E+2
   1.45146E+2  -1.01220E+1
  -3.40913E+1   9.70949E+1
  -3.20168E+2   2.56708E+1
  -5.88814E+1  -7.83851E+0
  -2.32654E+2  -2.09380E+1
   1.17853E+2   9.15507E+1
   1.77916E+2  -5.97481E+1
  -2.77283E+1  -2.56043E+2
   1.17075E+2  -1.07237E+2
  -1.31729E+1   3.12671E+2
   2.60276E+1   1.56453E+2
  -4.28553E+2  -1.91723E+2
  -1.02032E+2  -8.09199E+1
  -1.32238E+1   8.17264E+1
   2.93231E+1  -6.71438E+1
  -6.06550E+1  -3.54752E+2
  -2.02435E+2  -1.29781E+2
   1.10197E+2  -4.66789E+1
   7.43645E+1   2.38840E+2
  -2.28253E+2   5.37217E+1
  -1.92240E+2  -1.46593E+1
  -3.09803E+2  -2.10827E+2
  -1.51062E+2  -3.43277E+2
   2.33595E+2  -2.58603E+1
   1.01593E+1   3.09637E+2
  -3.19146E+2   6.71047E+1
   4.49419E+1   1.53986E+0
  -6.01411E+1  -2.09401E+2
