 
 $NMID
 ID=''
 FMTDAT='(2E13.5)'
 TRAMP=   1.00000E+0
 VOLUME=   1.00000E+0
 $END
  -7.73330E+3   1.95639E+4
   5.51156E+3   3.93929E+4
   3.67213E+4   3.99440E+3
   1.28942E+4  -3.67299E+4
  -3.23013E+4  -1.67477E+4
  -2.71787E+4   2.19654E+4
   1.03190E+4   2.07826E+4
   2.42834E+4  -5.41738E+3
   7.04156E+3  -2.04575E+4
  -1.35402E+4  -1.05970E+4
  -1.38158E+4   9.69759E+3
   3.26868E+3   1.39911E+4
   1.36185E+4   1.12628E+3
   5.52268E+3  -7.02044E+3
  -7.18897E+3  -5.37678E+3
  -8.70113E+3  -3.01351E+2
   2.58260E-1   6.86376E+3
   6.93926E+3   6.68687E+3
   5.13705E+3  -2.56830E+3
  -1.24672E+3  -7.06476E+3
  -6.60801E+3  -6.78441E+2
  -5.15142E+3   5.45142E+3
   3.52063E+3   4.04347E+3
   6.61031E+3  -1.53963E+3
  -1.15101E+3  -5.04622E+3
  -6.23721E+3  -3.38384E+3
  -8.81918E+2   2.55688E+3
   4.33071E+3   5.21304E+3
   2.05427E+3  -2.47854E+2
  -1.31705E+3  -5.04873E+3
  -1.83849E+3  -2.07329E+3
   2.10859E+2   3.86136E+3
   2.12883E+3   3.27034E+3
   5.42943E+1  -1.09481E+3
  -2.46320E+3  -2.59597E+3
  -1.78961E+3  -6.21023E+2
   1.67550E+3   1.23846E+3
   2.08128E+3   8.50453E+2
   9.92147E+1  -1.29114E+3
  -1.28691E+3  -8.72295E+2
  -1.03929E+3   1.89597E+3
   2.24862E+1   1.45232E+3
   2.15374E+2  -1.38821E+3
  -7.59580E+2  -1.96394E+3
  -1.30415E+3  -8.91623E+2
   4.61264E+2  -8.92786E+1
   2.32253E+3   7.44937E+2
   1.04154E+3   1.46651E+3
  -1.67306E+3  -1.03256E+2
  -1.71777E+3  -8.20148E+2
   4.66509E+1   1.26562E+2
   3.09356E+2   8.60054E+2
  -1.03661E+2  -6.76380E+2
   4.32022E+2  -1.34627E+3
   3.65480E+2  -5.41104E+2
  -4.56852E+2   6.95575E+2
  -3.76938E+2   1.24360E+3
   2.03999E+2   4.61615E+2
  -3.88575E+0  -1.05376E+3
  -7.26013E+2  -1.59458E+3
  -8.99093E+2  -6.20018E+2
   5.30695E+2   2.27189E+2
   1.56167E+3   5.04179E+2
   1.03088E+3   3.44345E+2
  -2.38498E+2   2.38122E+2
  -1.08136E+3   8.19110E+2
  -1.15732E+3   6.07162E+2
  -6.64114E+2  -1.04747E+2
   5.94494E+2  -1.30833E+3
   8.64163E+2  -7.53741E+2
  -5.54410E+2   6.34687E+2
  -1.45841E+3   1.79259E+2
   5.02912E+1  -9.51686E+2
   1.16605E+3  -7.31379E+2
   5.47675E+2   4.20870E+2
  -5.45284E+2   2.26936E+2
  -2.28992E+2  -1.34413E+2
   4.90896E+2   3.64175E+1
   3.87870E+2   2.32145E+2
  -5.40099E+1   5.38927E+2
  -1.04105E+2   1.53253E+2
  -9.75195E+1  -1.75510E+2
  -4.96766E+2  -2.29746E+1
  -1.43996E+2   4.15948E+2
   4.37581E+1   2.38976E+2
  -7.42935E+1  -4.67458E+2
  -3.09138E+2  -8.79975E+2
  -4.76137E+2  -1.22712E+2
   4.87527E+1   4.65916E+2
   1.09518E+2   3.20523E+2
   2.71107E+2  -5.18679E+2
   1.97398E+2  -7.12438E+2
   2.10481E+2   1.33865E+2
   4.58669E+2   1.03341E+3
  -1.78004E+2   9.10423E+2
  -4.17092E+2  -4.08300E+2
  -1.54211E+2  -7.96116E+2
  -2.43453E+1   1.37364E+2
  -4.18475E+2   6.83900E+2
  -3.19177E+2  -3.91752E+2
   6.25937E+2  -6.33652E+2
   7.82932E+2  -2.91971E+2
   2.86481E+1   5.05428E+2
  -6.17807E+2   5.90454E+2
  -5.72487E+2   1.97151E+2
   1.41102E+2  -4.62841E+2
   5.27917E+2  -1.69307E+2
   3.64144E+2   3.18730E+2
  -2.97904E+2   7.81242E+2
  -5.30354E+2   2.73183E+2
  -8.08473E+1  -4.49188E+2
   3.51860E+2  -4.57628E+2
   4.06302E+2  -1.79393E+2
  -5.97058E+0   1.75627E+2
   5.45000E+1   9.18036E+1
   2.26418E+2   1.14263E+2
   5.33063E+2   3.53973E+2
   5.18131E+1   6.38898E+2
  -6.74905E+2   3.89794E+2
  -6.91742E+2  -2.04582E+2
   2.60486E+2  -9.74563E+1
   1.12068E+2  -8.81667E+1
  -1.29527E+2  -1.08877E+2
  -4.70311E+1  -2.32406E+2
   2.68203E+2  -6.15711E+0
   1.75174E+2   3.00089E+2
   1.19267E+2   1.51985E+2
  -5.66229E+0   2.12674E+2
   6.92020E+1  -5.72714E+1
   4.02912E+2  -2.38037E+2
   3.25154E+2  -2.03647E+1
   1.55580E+2   2.71335E+2
   2.43989E+2   2.59547E+2
   4.20857E+1   1.12130E+2
   4.84725E+1   1.15395E+2
  -8.14674E+1   8.14626E+1
  -1.98726E+2   1.55022E+2
  -5.77123E+1  -1.98146E+2
   3.60207E+2  -2.69963E+2
   1.90416E+2   2.50271E+2
   1.01820E+2   2.61058E+2
  -2.87327E+2   6.73714E+2
  -2.89417E+2  -1.01783E+2
   3.44598E+2  -3.64990E+2
   5.94365E+2  -6.19230E+1
   3.44757E+2  -3.00456E+0
  -3.00524E+2   5.58896E+1
   2.30929E+2   6.53854E+1
   2.77612E+2  -3.84793E+1
   1.24396E+2   1.01174E+2
  -8.30990E+1   7.15813E+1
  -2.69995E+2  -1.53385E+2
   2.93521E+1  -2.39544E+2
   1.71691E+2  -1.04875E+2
   1.03456E+2  -2.11537E+2
  -5.74059E+0   1.60685E+2
   1.69246E+2  -8.30997E+1
   7.31891E+0  -2.09367E+2
   2.12684E+2  -2.16556E+2
  -7.34453E+1  -2.13272E+2
   2.22643E+2   5.54645E+1
  -3.78403E+0  -7.53661E+0
  -1.50902E+2  -7.41200E+1
   1.94123E+2   4.34907E+1
   3.11720E+2   1.56685E+2
  -9.00243E+1   1.17260E+2
  -2.81030E+2  -1.51623E+2
  -3.91032E+1  -2.05614E+2
   2.63804E+2   1.46438E+2
   1.16750E+2  -1.73074E+1
  -2.02512E+2  -1.46909E+2
   1.42955E+2  -9.14688E+1
   5.98105E+1   1.24150E+2
   9.06824E+1  -2.19095E+2
   1.71510E+2  -2.05399E+1
   1.89514E+1  -4.68876E+1
  -2.12498E+1  -1.25283E+2
   4.86044E+0  -1.14290E+2
   1.13726E+2   4.88301E+1
  -6.28227E+1   1.40396E+2
  -3.12799E+1  -3.67294E+2
  -1.33535E+2  -2.25886E+2
   5.94577E+1  -7.34616E+1
  -3.12939E+1   3.61845E+2
  -1.32625E+2  -2.17930E+2
   2.46451E+0  -7.13185E+1
   1.28682E+2  -2.08729E+2
  -8.64202E+1   1.96450E+2
  -3.15163E+1   1.51015E+2
  -1.22979E+2  -4.54655E+1
   1.65881E+2  -3.34211E+2
   1.35372E+2  -1.26717E+2
  -1.20538E+2  -1.84677E+2
  -9.90228E+0   7.30203E+1
   2.20722E+2  -8.78105E+1
   9.72643E+1  -2.86417E+1
   1.78805E+2   1.65016E+2
   2.76174E+1  -1.45920E+2
  -1.57168E+2  -5.41086E+1
   1.23185E+1  -4.68285E+1
  -3.39292E+1   2.18049E+2
   1.75998E+2  -8.61762E+1
  -1.29717E+2   2.83584E+1
   1.19609E+2  -7.50029E+1
  -5.97796E+1  -1.11501E+2
  -1.89634E+2   6.40159E+1
   7.73312E+1  -1.08039E+2
  -9.48745E+1   2.33758E+2
   1.75871E+2  -1.02933E+2
   1.83102E+1   6.22565E+1
   9.99475E+0  -9.20423E+1
  -1.20712E+1  -8.49284E+1
   1.12728E+2  -1.29642E+2
   1.88456E+2  -1.10242E+2
   8.74188E+1  -9.76294E+1
  -1.20618E+2  -6.45118E+1
   1.30078E+2  -8.85859E+0
   7.03790E+1   1.30320E+2
  -6.33419E+1  -5.47861E+1
   3.62623E+2   1.74552E+1
   7.42531E+1  -4.70196E+1
   9.25976E+1  -2.28600E+2
   5.13535E+1  -5.20978E+0
  -2.82161E+1  -3.87964E+1
   1.06694E+2  -3.45077E-2
   3.95025E+1  -1.76675E+2
   9.98258E+1   6.16118E+1
  -1.33268E+2  -1.78915E+2
  -1.29025E+2  -1.38880E+2
   1.88699E+1   2.88441E+1
   1.97595E+2   1.95275E+1
  -9.52724E+1  -9.92285E+1
   1.21926E+1   4.09261E+1
   8.42707E+1  -1.21285E+2
   5.52205E+1  -3.42644E+1
   6.17769E+1   1.64152E+2
  -3.37190E+2  -1.63544E+2
  -1.01426E+2   3.79399E+1
  -5.61269E+1  -6.89831E+1
  -1.07659E+2  -9.86295E+0
   1.62993E+1  -1.01145E+2
   1.67931E+1  -8.68811E+1
  -1.65669E+2  -8.79295E+0
   1.44427E+2  -1.13519E+2
  -2.03730E+2  -5.18840E+1
  -2.90247E+1   1.27969E+2
  -5.08112E+1   4.63825E+0
  -9.89341E+1  -1.13548E+2
  -1.50105E+2  -1.34503E+2
  -4.83033E+0   1.00112E+1
  -1.42666E+2  -1.05599E+2
  -1.57567E+2  -1.07730E+2
  -2.38282E+2  -2.46922E+2
   5.96404E+1  -1.07440E+2
   1.48251E+2  -3.88326E+1
  -2.29957E+2   1.04456E+2
  -2.85311E+2  -1.95771E+2
  -1.73165E+2  -2.83679E+1
  -3.76353E+1   1.57773E+1
  -1.84234E+2   8.57136E+1
  -1.96348E+2  -4.99565E+1
  -3.07973E+1  -7.14315E+1
  -6.76901E+1   1.44979E+1
  -3.62767E+1   5.39697E+1
  -1.53935E+2  -1.05775E+2
  -2.13711E+2   7.31722E+1
  -5.00548E+0   8.93251E+1
  -1.48043E+2   2.72672E+2
  -9.22305E+1  -1.54473E+2
   5.07916E+1  -1.71146E+2
  -1.41085E+2  -1.76299E+2
  -1.05167E+2   8.79090E+1
  -2.03927E+2  -1.45907E+2
  -2.07285E+2  -4.12933E+1
   8.26354E+1   9.65322E+1
  -2.72859E+2  -4.65957E+1
  -3.81513E+1   4.15375E+1
   2.08694E-1  -7.89919E+1
  -1.52626E+1   6.42508E+1
  -1.53499E+1   7.06360E+1
  -1.45851E+2   6.82058E+1
  -8.85052E+1  -8.23151E+1
   1.82644E+2   3.36921E+1
  -1.44704E+2   1.56975E+2
  -1.21334E+2   1.32900E+2
  -1.80063E+2  -1.76651E+2
  -3.08939E+2   2.07690E+2
   2.28931E+2   2.79319E+2
   7.55452E+1   2.42275E+2
   3.16346E+2   1.03090E+2
  -1.32076E+2   1.78045E+2
   4.89751E+1  -4.13067E+1
  -6.75410E+1  -2.05155E+2
  -4.84883E+1  -1.16511E+1
  -8.02633E+1   8.40457E+0
  -6.44558E+0   6.14405E+1
  -2.45094E+1   1.84982E+2
  -1.82109E+2   6.42265E+1
  -5.52397E+1   6.22324E+1
  -1.73314E+2  -7.61489E+1
  -1.42076E+2  -2.83874E+2
   2.41684E+2   2.85734E+2
   2.64239E+2   3.62499E+1
  -1.26280E+2   2.51173E+2
  -2.22437E+1  -5.75887E+1
   2.56201E+2  -1.13144E+2
   5.10957E+1   2.80111E+2
   9.55155E+1   1.07529E+2
   1.82993E+2   6.70249E+1
  -1.46922E+2  -2.17727E+1
  -7.57923E+1   3.33051E+1
  -1.22038E+2   7.71019E+1
  -1.51212E+2  -1.08598E+1
  -2.79361E+2  -4.30268E+1
   1.24465E+2  -2.11703E+2
   9.63502E+0   4.00221E+1
  -2.40031E+1   1.54907E+1
  -9.16956E+1  -1.07338E+1
  -7.58197E+1  -1.12309E+2
   8.16495E+0   1.64067E+1
  -5.00252E+1   3.36409E+1
  -4.71913E+1   1.62983E+2
  -1.55852E+2  -2.80344E+2
  -1.59679E+2  -3.41400E+1
   7.56981E+1  -2.80994E+1
   3.55626E+1   2.55638E+2
  -2.40948E+2   2.99570E+2
  -1.51898E+2   6.26078E+1
  -1.97475E+2   8.08414E+1
  -1.19320E+2  -1.41579E+2
   7.11954E+1   7.60863E+1
  -2.26847E+2   2.62592E+1
  -9.51412E+1  -4.34377E+1
  -1.17432E+1  -2.79760E+2
   1.61175E+2   1.44096E+2
  -1.47760E+2   1.28398E+2
  -2.03587E+2   6.35856E+1
  -1.81177E+2  -6.23865E+1
  -9.34867E+0   7.89059E+0
   1.69611E+2   2.09853E+2
  -1.52741E+2  -1.95928E+2
   1.24129E+2  -1.25790E+2
  -1.15509E+2  -1.46446E+2
   1.46548E+2   1.00006E+1
   1.42116E+2   6.10211E+1
  -1.68681E+2   5.92245E+1
   1.90111E+2  -8.47425E+1
   3.01284E+2  -1.33409E+2
  -2.37418E+1  -2.65124E+1
   2.32657E+2   2.00165E+2
  -1.51971E+2   3.01619E+2
  -5.87311E+1   1.55145E+2
  -5.68189E+1  -4.98574E+1
   1.25136E+2   6.12748E+1
   1.12249E+2  -8.01513E+1
   2.12687E+2   7.17344E+1
   1.50348E+2  -4.55775E+1
   6.12291E+1   2.90940E+2
   1.30722E+1   4.14561E+1
   3.68410E+1   8.23882E+1
  -3.28079E+1   2.06566E+2
   6.82838E+1  -2.51210E+2
   7.65263E+1  -1.06662E+2
   1.48333E+2  -1.56578E+2
   5.91014E+0   5.13404E+1
   1.13174E+2  -2.43313E+2
   2.46891E+1  -1.52304E+2
