 
 $NMID
 ID=''
 FMTDAT='(2E13.5)'
 TRAMP=   1.00000E+0
 VOLUME=   1.00000E+0
 $END
  -1.94974E+2   2.20959E+4
   1.60020E+4   7.68453E+3
   4.75446E+3  -1.85304E+4
  -8.17334E+3   6.65179E+2
   6.24508E+3   1.28072E+4
   2.21054E+3  -8.63060E+3
  -9.98671E+3  -4.56414E+3
   4.49991E+3   7.63375E+3
   7.23688E+3  -3.84589E+3
  -6.04274E+3  -1.46511E+3
   2.70998E+2   8.13632E+3
   3.79940E+3  -2.40616E+3
  -4.97568E+3  -3.10252E+3
  -1.14045E+3   5.65478E+3
   1.77382E+2  -1.70242E+3
  -4.75819E+3  -4.65849E+3
   1.30336E+3   1.95173E+3
   3.09816E+3  -2.42339E+1
  -3.25407E+3  -1.11098E+3
   5.86705E+2   1.77762E+3
   2.90685E+3  -7.72965E+2
  -2.61993E+3  -1.19614E+3
   5.81316E+2   6.88271E+2
   2.90152E+3  -3.81030E+2
  -2.34396E+3   4.07326E+2
  -8.07161E+2   2.60302E+0
   3.66712E+3  -2.21272E+3
   6.60325E+2   1.31639E+3
  -1.79571E+3   2.66902E+3
  -3.43945E+2  -1.48387E+3
   9.55543E+2  -1.45591E+3
   1.26671E+3   1.91951E+3
  -3.49483E+2   9.79751E+2
  -2.72462E+3  -1.60697E+2
  -1.42061E+3  -1.45219E+3
   1.56226E+3  -2.74721E+3
   2.03741E+3  -5.54121E+2
   9.60253E+2   1.40330E+3
  -3.62894E+1  -5.62273E+2
   3.56870E+2  -1.12923E+2
   1.99479E+2   1.62774E+3
  -7.72094E+2   4.67039E+1
  -5.52533E+2  -1.96378E+3
   7.82297E+2  -1.08866E+3
   6.68006E+2  -4.73158E+2
   7.72158E+2  -3.29306E+2
   1.71324E+3   9.40660E+2
   2.84130E+2   2.06683E+3
  -1.97355E+3   9.43571E+2
  -1.23002E+3  -7.40564E+2
   5.00269E+1  -1.01853E+3
  -1.35126E+2  -4.26052E+2
  -1.10249E+2  -5.36338E+2
   7.43141E+2  -6.14808E+2
   9.89009E+2  -9.43727E+1
   1.08175E+2   3.57322E+2
  -5.14001E+2   1.16036E+3
  -9.58602E+2   1.15082E+2
  -5.04126E+2  -1.15274E+3
   4.01979E+2  -1.05881E+3
   7.18308E+2  -2.11445E+2
   7.64684E+2  -6.01113E+1
   1.11963E+3   4.55169E+2
   4.61723E+2   1.43252E+3
  -1.03454E+3   1.41640E+3
  -1.58256E+3   4.62776E+2
  -1.17101E+3  -7.65017E+2
  -5.48977E+2  -1.36780E+3
   2.95027E+2  -8.71060E+2
   5.66887E+2   1.17856E+2
  -3.92281E+2   2.77119E+2
  -4.79987E+2  -3.10304E+2
   6.34851E+2  -8.83551E+2
   8.96137E+2  -4.64140E+1
   2.64659E+2   6.29028E+2
  -1.25985E+1   1.58502E+2
   1.03070E+2   1.02108E+1
   3.41572E+2   2.01347E+2
   1.18395E+2   4.72138E+2
  -2.33509E+2   6.47308E+2
  -7.46566E+2   9.73203E+1
  -6.45918E+2  -9.75732E+1
  -1.76888E+2  -1.03016E+2
  -1.72223E+2   7.12167E+1
  -2.42951E+2  -2.60584E+1
  -4.45492E+2  -4.27820E+2
   4.51309E+1  -7.89697E+2
   4.15321E+2   1.09300E+2
   3.03786E+2   1.25433E+2
   4.43130E+0  -2.36274E+1
   4.73739E+2  -4.42877E+2
   8.26448E+2   1.10253E+2
   3.14008E+2   9.10908E+2
  -3.83892E+2   1.35165E+3
  -5.83182E+2   2.64923E+2
  -7.49676E+2  -7.21299E+2
  -6.06041E+1  -2.20444E+2
   3.49902E+2   1.30799E+2
  -4.34957E+2  -9.90543E+1
  -2.05672E+2  -2.28340E+2
   6.92893E+2  -2.89312E+2
   6.30645E+2   5.11942E+2
  -3.29827E+2   6.80729E+2
  -8.42037E+2   2.49684E+2
  -6.41510E+1  -6.06689E+2
   6.74624E+2  -2.68103E+2
   5.22038E+2   3.87639E+2
  -4.77477E+2   7.42666E+2
  -9.71972E+2  -1.92737E+1
  -5.44755E+2  -6.77248E+2
   4.44667E+2  -8.57630E+2
   5.57748E+2  -6.30779E+1
   4.51329E+2   5.04326E+2
  -2.66153E+1   3.36286E+2
   1.09889E+2   3.56200E+2
   2.01697E+2   7.54129E+2
  -3.09829E+2   9.12341E+2
  -9.08644E+2   4.26439E+2
  -7.90264E+2  -4.63959E+2
  -1.03072E+2  -8.60203E+2
   6.92228E+2  -3.29129E+2
   5.80673E+2  -4.85687E+1
   5.03578E+2   1.52131E+2
   4.08434E+2   1.90111E+2
  -1.09478E+2   6.47370E+2
  -3.51033E+2   2.36028E+2
  -5.05062E+2   4.42953E+1
   1.04079E+2  -6.71312E+1
   3.57738E+2  -7.13623E+1
   4.26224E+2   1.24777E+2
   2.22080E+2   5.91223E+2
  -2.94734E+2   6.48566E+2
  -7.55780E+2  -2.56229E+1
   1.66839E+1  -2.89387E+1
   2.90406E+1  -3.17679E+1
  -1.55951E+2   2.08925E+2
  -1.16685E+2  -7.04935E+1
   5.76204E+2  -4.50722E+2
   4.08339E+2   3.15897E+2
   4.74775E+2   9.01999E+2
  -4.37783E+2   5.55478E+2
  -3.91492E+2  -1.58185E+2
  -1.23079E+2  -4.83227E+2
   5.61863E+2   3.93689E+1
   5.74122E+2   5.53626E+2
   4.44456E+1   8.33252E+2
  -2.52966E+2   2.62131E+2
   7.89646E+1   4.70815E+2
  -4.43096E+2   5.35634E+2
  -2.91553E+2   1.99870E+2
  -4.21449E+2  -2.02088E+2
  -9.92590E+1  -1.14295E+2
   2.84553E+2  -3.40344E+2
   2.86842E+2  -9.05844E+1
   1.72171E+2   4.24378E+2
   6.40652E+1   1.51166E+2
   3.07583E+2  -1.03685E+2
   3.60227E+2   2.37176E+2
   1.10162E+2   4.39950E+2
   8.78643E+1   2.35713E+2
  -6.72338E+1   3.09519E+2
   1.56299E+2   3.51734E+2
   8.68765E+1   3.67911E+2
  -2.40952E+2   2.95619E+2
  -4.76781E+2   4.13762E+1
   6.39917E+1  -2.71216E+2
   7.70992E+2  -2.21012E+1
   2.52003E+2   5.52410E+2
  -5.58053E+1   2.45658E+2
  -1.64167E+2  -1.06123E+2
   3.33821E+2   5.22654E+1
   4.98063E+2   1.38676E+2
   1.98138E+2   4.16065E+2
   1.96005E+2   3.00370E+1
  -1.88534E+2   3.26799E+2
   1.95125E+2  -1.28496E+2
   5.15474E+2   2.65524E+2
  -9.31334E+0   3.56948E+2
  -1.47644E+2   9.97409E+1
   2.73819E+2  -3.35844E+2
   6.31018E+2   5.34219E+1
   6.00312E+2   1.32544E+2
   7.08161E+1   2.90649E+2
   5.78737E+0   3.45690E+2
  -7.95961E+1   5.79015E+1
  -9.31295E+0   1.05412E+2
   3.01595E+1  -4.23083E+1
  -2.34033E+2  -1.43910E+2
   1.79420E+2  -6.74338E+2
   7.87595E+2  -3.03402E+2
   6.64842E+2   2.12363E+2
   1.05196E+2   5.07775E+2
  -3.61068E+2   5.32036E+2
  -2.22460E+2  -4.90167E+1
   9.04526E+0  -2.97887E+2
  -3.54340E+1  -8.87973E+1
   1.41313E+2  -2.25949E+1
   2.26409E+2  -4.43867E-1
   3.12745E+2  -4.24787E+1
   1.87009E+2   2.48522E+2
   1.12174E+2   3.63861E+2
  -2.20891E+2   1.92758E+2
  -2.75550E+2  -9.04464E+1
   1.30185E+2  -3.90347E+2
   2.44194E+2  -1.10678E+2
  -5.68185E+0   7.67231E+1
  -2.16549E+2  -9.65774E+1
  -1.35192E+2   2.31935E+1
   1.82397E+2   1.89214E+1
   1.61975E+1   1.24419E+2
  -1.73733E+2  -3.20310E+1
  -1.57374E+2  -4.07832E+2
   2.18701E+2  -3.55308E+2
   4.54544E+2   2.27047E+2
   3.26112E+1   4.82797E+2
  -1.88621E+2   4.88400E+2
  -4.18113E+2  -2.61329E+2
   5.27714E+1  -8.96218E+1
   1.45041E+1  -6.98017E+1
  -7.21419E+1  -1.34508E+2
  -1.28589E+2   2.97766E+1
  -3.39010E+1  -1.13436E+2
   7.99566E+1   1.04153E+2
   3.51827E+1   2.25680E+2
  -1.64865E+2   6.42137E+2
  -4.18324E+2  -1.69451E+2
  -7.07762E+1  -3.05655E+2
   3.62826E+1   3.83437E+1
   4.46985E+1   1.86669E+2
  -1.09055E+2   3.61343E+2
  -2.58540E+2  -1.07239E+1
   1.24007E+2  -8.71943E+1
   1.70995E+2   2.41262E+2
  -5.34944E+1   7.35585E+0
  -5.66124E+2   1.70079E+2
  -3.16646E+1  -1.64517E+2
   2.14126E+2   2.29432E+1
   1.59786E+2   1.58642E+2
  -9.88768E+1   8.47397E+1
  -2.24973E+2   1.43490E+2
   4.38980E+1  -9.53086E+1
   3.16940E+2   4.77464E+1
   8.10156E+1   2.60561E+2
  -6.69668E+1   3.59231E+2
  -6.77540E+1   6.92090E+1
  -2.61367E+2   2.16144E+1
   8.61493E+1   1.81211E+2
  -1.43110E+2   2.66600E+2
   1.20595E+2   1.17310E+2
   2.02899E+2  -1.04346E+2
   2.62363E+2  -1.54466E+2
  -1.60569E+1   2.96024E+2
  -2.22267E+2   1.31827E+2
  -1.09340E+2   2.07770E+2
   1.53476E+2  -2.54126E+2
   1.41958E+2  -1.05672E+2
   1.68944E+2   4.13776E+1
   2.44545E+2   8.03701E+1
   1.05989E+2  -4.96591E+0
   1.91467E+2   1.36467E+1
   6.44518E+1   1.71548E+2
  -1.33564E+2   2.94079E+2
  -5.88097E+2  -3.05445E+2
   9.11296E+1  -9.75424E+1
   3.06176E+2  -1.34907E+2
   2.16347E+2  -8.91776E+1
   1.07992E+0   1.93975E+2
  -2.04717E+2   2.54034E+2
  -5.59824E+1   1.27174E+2
   2.33867E+1  -2.58360E+2
   3.83251E+1   3.89972E+1
   2.50693E+2  -7.10838E+1
   9.97823E+1   1.21037E+2
   1.20342E+2  -1.05560E+2
   1.64577E+2  -9.43630E+1
  -2.11675E+2   2.03663E+2
  -4.15805E+1   2.59476E+2
  -1.19181E+2  -2.04912E+2
   2.12824E+2  -3.95723E+2
   2.35117E+2  -2.35641E+2
  -1.46613E+2  -7.58642E+1
  -4.85247E+1   3.27706E+1
   1.67606E+2  -3.63939E+2
  -1.01987E+1   4.52391E+1
  -1.66794E+2   2.26406E+1
  -5.19170E+1   1.28694E+2
  -2.81648E+2  -3.88714E+2
  -2.72551E+2  -9.78262E+1
   3.19864E+2  -5.49295E+1
   1.52299E+2   4.11579E+2
  -1.20738E+2   7.45917E+1
  -6.58014E+1   1.74022E+2
   8.38379E+1  -1.49877E+1
  -2.50960E+1  -9.30445E+1
  -9.94420E+1  -6.04754E+1
  -3.83997E+2  -2.43902E+2
   7.70569E+1   8.94589E+1
  -1.70017E+2  -4.54098E+1
   2.56860E+2  -1.52749E+1
  -2.08902E+2  -8.92891E+1
  -2.01716E+2  -2.76861E+2
   8.88305E+1  -1.70746E+2
  -9.93665E+1   2.90075E+2
  -9.49715E+1   1.66162E+2
  -1.67249E+2  -2.51783E+2
  -9.49030E+1  -5.51802E+1
  -1.63702E+2  -2.89525E+2
  -3.01135E+1  -2.28046E+2
  -3.00322E+2   1.12398E+2
  -1.37024E+2  -3.10392E+1
   4.80096E+1  -5.93341E+1
  -3.38578E+1   1.01582E+1
  -1.79266E+2   1.47073E+2
  -2.35232E+2  -8.09575E+1
  -2.09131E+2   6.91463E+1
  -2.30292E+2   1.56488E+1
   2.62189E+1  -1.80517E+1
  -7.32779E+1  -1.04355E+1
  -2.19136E+2   1.46239E+1
  -4.68701E+1   1.35652E+2
   1.07514E+2   1.15880E+2
   2.27562E+0  -1.39124E+2
  -5.13308E+1   1.14810E+2
  -2.95757E+2  -7.97296E+1
  -2.47872E+2  -1.89854E+2
   8.59826E+1   2.07548E+1
   9.77664E+0   9.93934E+1
   1.12896E+2   7.72898E+1
  -2.46018E+2  -1.03197E+2
  -2.39452E+2  -1.66106E+2
  -6.55638E+1   3.90808E+1
  -1.30731E+2  -8.74147E+1
  -1.10173E+2   2.61653E+1
   1.20909E+2  -2.10690E+2
  -2.55947E+1   9.43827E+1
   3.93516E+1   3.89504E+1
  -1.77042E+2   4.23877E+2
   5.88168E+1  -1.16385E+2
  -4.62772E+2  -3.74589E+1
  -2.01535E+2  -3.06994E+2
   3.65429E+1   1.69778E+2
   1.55861E+2  -3.61579E+1
  -9.11124E+1   2.48545E+2
  -1.38796E+2  -5.07455E+1
   2.20739E+2  -2.27071E+2
  -2.56187E+2   8.06892E+1
  -2.00005E+2  -1.64789E+2
  -1.23891E+2   4.34384E+1
  -1.62845E+2  -1.36676E+2
   1.48276E+2   3.28728E+2
  -8.98900E+1   1.77933E+2
  -3.01471E+2   7.26510E+1
  -1.54278E+2   2.02595E+1
  -1.15027E+2   2.47884E+1
  -1.98128E+2  -6.48179E+1
   1.30140E+2  -6.07658E+1
  -3.46318E+2   1.30207E+2
   1.71758E+2  -5.40272E+1
  -1.10893E+2   1.78869E+2
  -1.59103E+2   2.66214E+2
  -3.75641E+2   2.88054E+2
  -2.50153E+2  -2.00659E+2
  -1.42185E+2  -1.88430E+2
   2.10146E+2  -2.76736E+2
   3.82676E+1   5.13145E+1
  -3.40019E+1   1.15419E+2
   5.88689E+1   2.09944E+2
