 LCModel (Version 6.3-1N) Copyright: S.W. Provencher.          Ref.: Magn. Reson. Med. 30:672-679 (1993).                
 Slice_N1@11_14  28-Feb-2025 11:37:04
 27 lines in following concentration table = NCONC+1
    Conc.  %SD /Cr+PCr  Metabolite                                         
 2.77E-04   4% 3.6E-04 Mac                                                 
    3.001  24%   3.954 Cr                                                  
    3.071  23%   4.046 PCr                                                 
    6.381  12%   8.408 Ins                                                 
    7.683   8%  10.124 NAA                                                 
    5.279  13%   6.956 Tau                                                 
    1.384  17%   1.823 PCho                                                
    0.869  28%   1.145 GPC                                                 
    8.042  11%  10.597 Glu                                                 
    5.509  13%   7.259 Gln                                                 
    3.727  15%   4.911 Ala                                                 
    5.403  18%   7.119 Asc                                                 
    0.778  99%   1.025 Asp                                                 
    0.355 116%   0.468 GABA                                                
    0.751  71%   0.989 Glc                                                 
    1.093  38%   1.440 GSH                                                 
    1.265  43%   1.667 Lac                                                 
    1.433  29%   1.888 NAAG                                                
    0.000 999%   0.000 PE                                                  
    2.253   9%   2.969 GPC+PCho                                            
    9.116   8%  12.011 NAA+NAAG                                            
   13.552   9%  17.856 Glu+Gln                                             
    6.071   9%   8.000 Cr+PCr                                              
    9.116   8%  12.011 NAA+NAAG                                            
    6.071   9%   8.000 Cr+PCr                                              
   13.552   9%  17.856 Glu+Gln                                             
   6 lines in following misc. output table
  FWHM = 0.016 ppm    S/N =   5                                            
  Data shift = 0.024 ppm                                                   
  Ph: 174 deg       0.0 deg/ppm                                            
  alphaB,S = 2.8E-01,   3.5E-01                                            
   19 spline knots.   Ns = 5(1)                                            
   2 inflections.     2 extrema                                            
  480 points on ppm-axis = NY
      4.100000     4.091866     4.083733     4.075600     4.067466     4.059333     4.051199     4.043066     4.034933     4.026799
      4.018666     4.010532     4.002399     3.994265     3.986132     3.977998     3.969864     3.961731     3.953597     3.945463
      3.937330     3.929196     3.921062     3.912929     3.904795     3.896662     3.888528     3.880394     3.872261     3.864127
      3.855993     3.847860     3.839726     3.831592     3.823459     3.815325     3.807191     3.799058     3.790924     3.782790
      3.774657     3.766523     3.758389     3.750256     3.742122     3.733989     3.725855     3.717721     3.709588     3.701454
      3.693320     3.685187     3.677053     3.668919     3.660786     3.652652     3.644518     3.636385     3.628251     3.620117
      3.611984     3.603850     3.595716     3.587583     3.579449     3.571316     3.563182     3.555048     3.546915     3.538781
      3.530647     3.522514     3.514380     3.506246     3.498113     3.489979     3.481845     3.473712     3.465578     3.457444
      3.449311     3.441177     3.433043     3.424910     3.416776     3.408643     3.400509     3.392375     3.384242     3.376108
      3.367974     3.359841     3.351707     3.343573     3.335440     3.327306     3.319172     3.311039     3.302905     3.294771
      3.286638     3.278504     3.270370     3.262237     3.254103     3.245970     3.237836     3.229702     3.221569     3.213435
      3.205301     3.197168     3.189034     3.180900     3.172767     3.164633     3.156499     3.148366     3.140232     3.132098
      3.123965     3.115831     3.107697     3.099564     3.091430     3.083297     3.075163     3.067029     3.058896     3.050762
      3.042628     3.034495     3.026361     3.018227     3.010094     3.001960     2.993826     2.985693     2.977559     2.969425
      2.961292     2.953158     2.945024     2.936891     2.928757     2.920624     2.912490     2.904356     2.896223     2.888089
      2.879955     2.871822     2.863688     2.855554     2.847421     2.839287     2.831153     2.823020     2.814886     2.806752
      2.798619     2.790485     2.782351     2.774218     2.766084     2.757951     2.749817     2.741683     2.733550     2.725416
      2.717282     2.709149     2.701015     2.692881     2.684748     2.676614     2.668480     2.660347     2.652213     2.644079
      2.635946     2.627812     2.619678     2.611545     2.603411     2.595278     2.587144     2.579010     2.570877     2.562743
      2.554609     2.546476     2.538342     2.530208     2.522075     2.513941     2.505807     2.497674     2.489540     2.481406
      2.473273     2.465139     2.457006     2.448872     2.440738     2.432605     2.424471     2.416337     2.408204     2.400070
      2.391936     2.383803     2.375669     2.367535     2.359402     2.351268     2.343134     2.335001     2.326867     2.318733
      2.310600     2.302466     2.294333     2.286199     2.278065     2.269932     2.261798     2.253664     2.245531     2.237397
      2.229263     2.221130     2.212996     2.204862     2.196729     2.188595     2.180461     2.172328     2.164194     2.156060
      2.147927     2.139793     2.131660     2.123526     2.115392     2.107259     2.099125     2.090991     2.082858     2.074724
      2.066590     2.058457     2.050323     2.042189     2.034056     2.025922     2.017788     2.009655     2.001521     1.993387
      1.985254     1.977120     1.968987     1.960853     1.952719     1.944586     1.936452     1.928318     1.920185     1.912051
      1.903917     1.895784     1.887650     1.879516     1.871383     1.863249     1.855115     1.846982     1.838848     1.830714
      1.822581     1.814447     1.806314     1.798180     1.790046     1.781913     1.773779     1.765645     1.757512     1.749378
      1.741244     1.733111     1.724977     1.716843     1.708710     1.700576     1.692442     1.684309     1.676175     1.668041
      1.659908     1.651774     1.643641     1.635507     1.627373     1.619240     1.611106     1.602972     1.594839     1.586705
      1.578571     1.570438     1.562304     1.554170     1.546037     1.537903     1.529769     1.521636     1.513502     1.505368
      1.497235     1.489101     1.480968     1.472834     1.464700     1.456567     1.448433     1.440299     1.432166     1.424032
      1.415898     1.407765     1.399631     1.391497     1.383364     1.375230     1.367096     1.358963     1.350829     1.342695
      1.334562     1.326428     1.318295     1.310161     1.302027     1.293894     1.285760     1.277626     1.269493     1.261359
      1.253225     1.245092     1.236958     1.228824     1.220691     1.212557     1.204423     1.196290     1.188156     1.180022
      1.171889     1.163755     1.155622     1.147488     1.139354     1.131221     1.123087     1.114953     1.106820     1.098686
      1.090552     1.082419     1.074285     1.066151     1.058018     1.049884     1.041750     1.033617     1.025483     1.017349
      1.009216     1.001082     0.992949     0.984815     0.976681     0.968548     0.960414     0.952280     0.944147     0.936013
      0.927879     0.919746     0.911612     0.903478     0.895345     0.887211     0.879077     0.870944     0.862810     0.854676
      0.846543     0.838409     0.830276     0.822142     0.814008     0.805875     0.797741     0.789607     0.781474     0.773340
      0.765206     0.757073     0.748939     0.740805     0.732672     0.724538     0.716404     0.708271     0.700137     0.692003
      0.683870     0.675736     0.667603     0.659469     0.651335     0.643202     0.635068     0.626934     0.618801     0.610667
      0.602533     0.594400     0.586266     0.578132     0.569999     0.561865     0.553731     0.545598     0.537464     0.529330
      0.521197     0.513063     0.504930     0.496796     0.488662     0.480529     0.472395     0.464261     0.456128     0.447994
      0.439861     0.431727     0.423593     0.415460     0.407326     0.399192     0.391059     0.382925     0.374792     0.366658
      0.358524     0.350391     0.342257     0.334124     0.325990     0.317856     0.309723     0.301589     0.293455     0.285322
      0.277188     0.269055     0.260921     0.252787     0.244654     0.236520     0.228386     0.220253     0.212119     0.203986
 NY phased data points follow
  -2.77015E+01 -3.96423E+01 -2.06067E+01 -3.84967E+01 -5.74838E+01 -7.59455E+00 -1.90650E+01 -3.16425E+01 -2.17692E+01 -2.70167E+01
  -4.33477E+01 -5.01145E+01 -4.24331E+01 -4.59856E+01 -5.02544E+01 -4.33726E+01 -4.80399E+01 -8.33360E+01 -6.93558E+01 -8.68849E+01
  -1.14402E+02 -6.71015E+01 -6.85938E+01 -4.50018E+01 -1.29458E+01 -9.97870E+00  2.12027E+00 -2.93118E+01 -2.92011E+01 -2.41660E+01
  -3.30298E+01 -3.52053E+01 -6.08486E+01 -4.86899E+01 -4.99357E+01 -6.31813E+01 -5.73734E+01 -6.79794E+01 -8.79029E+01 -1.14522E+02
  -1.19653E+02 -1.21964E+02 -1.13075E+02 -1.09489E+02 -8.79252E+01 -3.42217E+01 -2.24796E+01 -3.52818E+00 -7.22428E+00 -2.10697E+01
  -1.93193E+01 -2.74035E+01 -2.27441E+01 -3.38029E+01 -3.39514E+01 -4.98581E+01 -5.67008E+01 -4.23175E+01 -7.00258E+01 -5.91210E+01
  -3.95781E+01 -4.49561E+01 -2.68644E+01 -2.06536E+01 -6.72504E+00 -2.97293E+00 -8.42212E+00 -7.28976E+00 -4.58855E+01 -7.01406E+01
  -6.88520E+01 -3.67790E+01 -2.93659E+01 -2.99895E+01  1.98141E+01  7.04252E+00  8.05578E+00  2.87720E+01  1.12796E+01  1.55968E+01
   2.08444E+01  4.15625E+00 -8.53875E+00 -2.08681E+01 -5.26266E+01 -2.82692E+01 -2.92862E+01 -2.75439E+01  2.19585E+01  9.44668E+00
   1.17045E+01  1.90335E+01  2.56559E+01  3.77926E+01  4.69751E+01  5.66087E+01  3.62061E+01  3.73320E+01  4.02132E+01  1.83133E+01
   2.67184E+01  3.27828E+01 -1.74638E+01 -1.15391E+01 -2.59673E+01 -6.71860E+01 -3.80607E+01 -6.08480E+01 -8.33208E+01 -1.31009E+02
  -2.03940E+02 -2.02113E+02 -1.62239E+02 -1.15460E+02 -9.11608E+01 -6.13047E+01 -4.84929E+01 -5.04421E+01 -4.65635E+01 -3.76137E+01
  -2.15249E+01 -2.40947E+01 -1.31070E+01  4.69013E+00  1.21447E+01  1.43618E+01  8.64663E+00  1.70821E+01  3.24779E+01  5.62341E+01
   1.07461E+02  9.43471E+01 -4.11101E+01 -1.47630E+02 -1.49685E+02 -1.34389E+02 -1.14248E+02 -8.71441E+01 -9.30309E+01 -1.07087E+02
  -1.00920E+02 -9.18378E+01 -8.23065E+01 -8.00219E+01 -9.37163E+01 -7.29991E+01 -6.52156E+01 -8.07473E+01 -7.18228E+01 -8.34338E+01
  -6.91841E+01 -6.03381E+01 -6.31712E+01 -3.66901E+01 -4.86685E+01 -4.90793E+01 -3.80063E+01 -6.15348E+01 -5.35541E+01 -3.18569E+01
  -4.67743E+01 -4.18065E+01 -3.26963E+01 -4.57678E+01 -4.54778E+01 -3.15609E+01 -3.47650E+01 -4.17740E+01 -3.59017E+01 -4.92140E+01
  -2.51775E+01 -5.75780E+00 -9.33641E+00  5.01961E+00 -2.04209E+01 -3.44250E+01 -1.83075E+01 -7.33567E+00 -2.96344E+01 -4.96024E+01
  -3.75789E+01 -5.32860E+01 -7.21717E+01 -6.41816E+01 -5.51697E+01 -5.67898E+01 -5.38694E+01 -3.70380E+01 -4.24206E+01 -5.34003E+01
  -4.65216E+01 -4.51288E+01 -3.10963E+01 -3.73223E+01 -3.61404E+01 -3.02527E+01 -4.43427E+01 -3.72306E+01 -3.45657E+01 -1.76854E+01
  -3.59134E+01 -2.59536E+01 -1.91295E+00 -8.72344E+00  1.42291E+01 -5.04385E+00 -8.24157E+00 -2.12518E+01 -4.24347E+01 -4.35510E+01
  -4.62301E+01 -3.24434E+01 -3.24503E+01 -1.31575E+01  1.51485E+00  2.28121E+01  4.48189E+01  4.39558E+01  4.24793E+01  3.25695E+01
  -1.12531E+01 -2.84824E+01 -7.24293E+00 -1.29807E+01 -1.47105E+01 -2.33027E+01 -1.29585E+01 -9.91376E+00 -1.82765E+01 -1.79749E+01
  -2.32474E+01 -2.73997E+01 -4.20211E+01 -4.67822E+01 -6.57426E+01 -5.48108E+01 -6.05711E+01 -7.70918E+01 -7.17658E+01 -7.57617E+01
  -5.96730E+01 -5.76918E+01 -4.03812E+01 -2.36467E+01 -1.01126E+01  2.75146E+00 -2.96587E+00 -6.97173E+00 -2.14687E+01 -3.75620E+01
  -2.84637E+01 -2.67195E+01 -3.64711E+01 -2.18556E+01 -2.05579E+01 -4.15250E+01 -1.06006E+02 -6.43692E+00  1.70272E+02  1.57938E+02
   1.55401E+02  1.55370E+02  1.26695E+02  1.04255E+02  8.09925E+01  6.75935E+01  6.88577E+01  8.73905E+01  4.91516E+01  4.46991E+01
   6.65946E+01  5.92100E+01  4.46240E+01  4.83020E+01  6.56623E+01  5.01008E+01  4.86795E+01  4.66039E+01  4.05805E+01  4.74801E+01
   4.48544E+01  4.72984E+01  4.31891E+01  4.25134E+01  4.98232E+01  3.94230E+01  3.44168E+01  3.94183E+01  4.29507E+01  2.62160E+01
   2.13524E+01  4.12577E+01  2.85435E+01  3.02355E+01  1.62726E+01  5.20564E+00  1.89558E+01 -6.00548E+00  5.49559E+00  1.24376E+01
  -2.36144E+00  1.85735E+01  1.86163E+01  1.52294E+01  3.26198E+01  4.25738E+01  3.89508E+01  4.53678E+01  7.10273E+01  6.85472E+01
   7.76869E+01  8.91347E+01  7.82779E+01  1.07615E+02  1.20412E+02  1.06096E+02  1.06562E+02  1.20591E+02  9.36026E+01  7.58334E+01
   7.73483E+01  2.25909E+01  3.26893E+00 -2.20532E+00 -8.04511E+00 -5.61162E+00  6.98849E-01  1.56763E+00 -1.15798E+01 -6.34147E+00
  -2.30284E+01 -3.16602E+01 -4.14134E+01 -3.41182E+01 -3.03258E+01 -3.12940E+01 -1.30192E+01 -2.30368E+01 -2.77795E+01 -8.39067E+00
   5.10984E+00 -1.43343E+01  5.93729E+00 -4.70743E+00 -2.41335E+01  1.25725E+01  1.64668E+01  1.11554E+01  9.08281E+00  2.95875E+01
   4.66707E+00 -1.22557E+01 -4.04369E+00 -1.32794E+01  6.48248E+00  3.51130E+00  3.27021E+00 -3.44816E+00 -1.37242E+01 -5.84852E+00
   1.85221E+00 -1.68231E+01 -1.89631E+01 -5.08151E+00 -1.43629E+01 -2.84512E+00  2.72236E+00  8.74182E+00 -4.47856E+00 -5.63816E+00
   6.50495E+00  2.32784E+01  3.21540E+01  1.57428E+01  2.83112E+01  1.99613E+01  4.49776E+01  5.02528E+01  3.64228E+01  6.30895E+01
   6.08365E+01  6.85955E+01  6.95493E+01  7.59403E+01  8.52608E+01  9.22246E+01  9.62224E+01  1.09869E+02  1.16833E+02  1.00405E+02
   1.02046E+02  7.94072E+01  6.60245E+01  3.38467E+01  2.44878E+01  3.62349E+01  1.12426E+01  2.62240E+01  2.00476E+01  1.01602E+01
  -4.35931E+00 -2.16086E+01 -3.04358E+01 -4.36612E+01 -3.87684E+01 -5.43453E+01 -4.07594E+01 -5.01961E+01 -5.72941E+01 -3.73517E+01
  -5.45220E+01 -5.14548E+01 -4.76299E+01 -4.42756E+01 -5.27940E+01 -4.90222E+01 -3.95670E+01 -5.13693E+01 -3.31248E+01 -3.02552E+01
  -4.25607E+01 -3.94968E+01 -4.68607E+01 -5.29439E+01 -3.27141E+01 -3.39784E+01 -3.72494E+01 -2.32249E+01 -3.10633E+01 -3.37340E+01
  -4.26071E+01 -3.98906E+01 -3.66164E+01 -3.03488E+01 -3.15480E+01 -3.81253E+01 -2.07263E+01 -3.78195E+01 -1.74090E+01 -1.75456E+01
  -4.12971E+01 -1.42976E+01 -3.49185E+01 -2.54808E+01 -1.37646E+01 -2.92306E+01 -2.45796E+01 -3.14675E+01 -1.74404E+01 -2.23267E+01
  -2.85257E+01 -1.97239E+01 -2.02400E+01 -2.09068E+01 -2.36381E+01 -2.47582E+01 -2.77727E+01 -1.20082E+01 -3.04697E+01 -4.40960E+01
  -2.58048E+01 -3.56975E+01 -2.48408E+01 -1.45179E+01 -2.08440E+01 -1.66471E+01 -1.13857E+01 -1.49753E+01 -2.32026E+01 -1.79860E+01
  -1.94895E+01 -3.58599E+01 -3.15666E+01 -1.60197E+01 -2.38728E+01 -2.78045E+01 -2.07152E+01 -1.63242E+01 -2.84479E+01 -3.82141E+01
 NY points of the fit to the data follow
  -5.49213E+01 -6.08800E+01 -6.93922E+01 -7.92903E+01 -7.55355E+01 -4.87230E+01 -3.05072E+01 -3.53655E+01 -5.10770E+01 -5.83909E+01
  -6.73879E+01 -6.81120E+01 -5.89747E+01 -5.21274E+01 -4.96790E+01 -5.45643E+01 -5.99674E+01 -7.57809E+01 -7.86626E+01 -9.53468E+01
  -1.10579E+02 -7.79669E+01 -6.35276E+01 -4.34446E+01 -5.84486E+00  8.12172E+00  9.06752E-01 -3.28836E+00 -5.16470E+00 -1.20263E+01
  -1.31954E+01 -1.54974E+01 -1.85595E+01 -2.18515E+01 -3.15420E+01 -4.07670E+01 -4.50662E+01 -5.98781E+01 -7.15478E+01 -9.80683E+01
  -1.21161E+02 -1.10853E+02 -9.91891E+01 -8.88841E+01 -6.87367E+01 -3.13215E+01 -9.27808E+00 -4.39329E-01  1.04113E+01  1.16864E+01
   2.26434E+00 -6.59737E+00 -1.43970E+01 -2.49823E+01 -3.09895E+01 -4.37916E+01 -5.08779E+01 -4.63372E+01 -6.60992E+01 -6.26144E+01
  -2.94373E+01 -3.14792E+01 -3.12467E+01 -4.16053E+00  9.99625E+00  9.00947E+00  6.53017E+00 -3.39036E+00 -4.27163E+01 -7.54242E+01
  -5.87303E+01 -4.31921E+01 -4.54285E+01 -2.68259E+01  1.66693E+00  1.11235E+01  1.12944E+01  1.57999E+01  1.29452E+01  1.49981E+01
   4.55342E+00 -6.12203E+00 -2.12616E+01 -4.49068E+01 -5.15007E+01 -4.91279E+01 -3.66922E+01 -1.70161E+01 -6.47173E-03  7.67254E+00
   1.31232E+01  1.75791E+01  1.91645E+01  2.18535E+01  2.46399E+01  2.93106E+01  2.96731E+01  3.31758E+01  2.78922E+01  2.10996E+01
   2.70542E+01  3.25416E+01  5.36257E+00 -2.86390E+00 -9.29293E+00 -5.04783E+01 -2.89865E+01 -4.20079E+01 -6.74856E+01 -1.26138E+02
  -1.96991E+02 -1.91709E+02 -1.44875E+02 -1.08840E+02 -8.85823E+01 -5.97536E+01 -5.22156E+01 -4.88174E+01 -4.42668E+01 -3.94539E+01
  -3.42314E+01 -2.77983E+01 -2.12274E+01 -1.35934E+01 -4.13023E+00  8.49002E+00  2.27176E+01  2.20107E+01  4.53121E+01  4.58323E+01
   8.41096E+01  8.41860E+01 -4.63849E+01 -1.37475E+02 -1.33333E+02 -1.20468E+02 -1.20934E+02 -9.38919E+01 -7.79263E+01 -8.05643E+01
  -8.03515E+01 -8.16259E+01 -8.25307E+01 -8.21182E+01 -8.26023E+01 -8.09525E+01 -7.79316E+01 -7.40840E+01 -7.04319E+01 -6.71663E+01
  -6.40374E+01 -6.18346E+01 -6.09735E+01 -5.96062E+01 -5.73921E+01 -5.51815E+01 -5.37627E+01 -5.25341E+01 -5.13245E+01 -5.09048E+01
  -4.95301E+01 -4.81530E+01 -4.83742E+01 -4.88028E+01 -4.79351E+01 -4.50821E+01 -4.14311E+01 -4.11703E+01 -4.55027E+01 -4.62212E+01
  -3.90105E+01 -2.33457E+01 -9.29076E+00 -1.72186E+01 -3.36478E+01 -3.42342E+01 -2.36982E+01 -1.10376E+01 -1.70469E+01 -3.61557E+01
  -4.55923E+01 -4.96402E+01 -5.48626E+01 -5.64683E+01 -5.39553E+01 -5.20494E+01 -5.09692E+01 -4.97044E+01 -4.61875E+01 -4.51180E+01
  -4.21402E+01 -3.93178E+01 -4.23526E+01 -4.03167E+01 -2.66896E+01 -2.41098E+01 -3.41447E+01 -2.93579E+01 -1.97369E+01 -2.08208E+01
  -2.41040E+01 -1.87695E+01 -5.84089E+00  4.44491E+00  2.62458E+00 -4.67991E+00 -7.24523E+00 -1.74105E+01 -3.35974E+01 -4.43351E+01
  -4.21108E+01 -5.22593E+01 -4.25559E+01 -2.68574E+01 -1.68444E+01  2.68393E+01  3.92723E+01  3.90450E+01  4.38248E+01  2.75931E+01
   6.32163E+00 -2.94903E-01  1.72621E+00  1.63173E+00  5.97863E+00  6.51052E+00  4.20946E+00 -3.30385E+00 -1.33432E+01 -2.46482E+01
  -3.59565E+01 -4.83941E+01 -5.92805E+01 -6.58803E+01 -7.74316E+01 -8.18319E+01 -8.30525E+01 -8.47125E+01 -8.64968E+01 -7.27156E+01
  -7.44488E+01 -6.09049E+01 -4.33437E+01 -3.30250E+01 -1.44916E+01 -9.58460E+00 -7.46328E+00 -1.11637E+01 -2.15337E+01 -2.37794E+01
  -3.55419E+01 -4.33098E+01 -4.15101E+01 -2.93061E+01 -1.30643E+01 -4.73818E+01 -1.10209E+02 -8.70117E+00  1.41336E+02  1.58537E+02
   1.38008E+02  1.35376E+02  1.12329E+02  7.90743E+01  7.38908E+01  7.22032E+01  6.94237E+01  6.73831E+01  6.46310E+01  6.26319E+01
   6.26846E+01  6.24804E+01  6.37517E+01  6.41236E+01  6.48297E+01  6.41963E+01  6.28943E+01  6.19770E+01  6.13203E+01  5.99823E+01
   5.79310E+01  5.58818E+01  5.34494E+01  5.22365E+01  5.00248E+01  4.74468E+01  4.56981E+01  4.34115E+01  4.08081E+01  3.77261E+01
   3.36369E+01  3.00854E+01  2.64603E+01  2.20343E+01  1.91402E+01  1.86837E+01  2.02931E+01  2.31121E+01  2.70466E+01  3.01977E+01
   3.32498E+01  3.67950E+01  4.00160E+01  4.29289E+01  4.54775E+01  4.77887E+01  4.95756E+01  5.16209E+01  5.51855E+01  5.81955E+01
   6.05558E+01  6.28031E+01  6.46130E+01  6.66196E+01  6.93195E+01  7.03996E+01  6.97913E+01  7.17044E+01  7.44552E+01  6.81081E+01
   7.02637E+01  2.87014E+01  2.62135E+00 -1.52161E+01 -3.84300E+01 -2.76244E+01 -9.42777E+00 -5.54422E+00 -1.30439E+01 -1.37489E+01
  -2.31597E+01 -3.02743E+01 -3.37275E+01 -3.28687E+01 -2.92029E+01 -2.18908E+01 -1.44090E+01 -6.87166E+00 -1.09099E+00  3.15659E+00
   6.16948E+00 -2.76308E+00 -6.28123E+00 -9.65272E+00 -1.28254E+01 -6.37446E+00  1.32224E+00  4.25876E+00  5.57838E+00  7.69288E+00
   4.97821E+00  1.94094E+00 -2.15074E+00 -7.27263E+00 -1.35278E+01 -1.78685E+01 -1.91144E+01 -1.94615E+01 -1.74860E+01 -1.42021E+01
  -1.04368E+01 -6.09579E+00 -1.73574E+00  2.32651E+00  6.11636E+00  9.40507E+00  1.23097E+01  1.49445E+01  1.73670E+01  2.04756E+01
   2.34260E+01  2.60681E+01  2.93515E+01  3.26838E+01  3.58806E+01  4.08878E+01  4.64899E+01  5.10092E+01  5.77466E+01  6.54896E+01
   7.19416E+01  7.83674E+01  8.71193E+01  9.51569E+01  1.01433E+02  1.06652E+02  1.08407E+02  1.04573E+02  9.43319E+01  7.99982E+01
   6.42204E+01  5.18662E+01  4.19701E+01  3.46478E+01  2.96817E+01  2.55229E+01  1.87227E+01  8.96677E+00  3.16377E-01 -9.72632E+00
  -1.89005E+01 -2.46118E+01 -2.80672E+01 -3.08239E+01 -3.26145E+01 -3.26586E+01 -3.25502E+01 -3.28650E+01 -3.32478E+01 -3.41248E+01
  -3.47516E+01 -3.52580E+01 -3.48199E+01 -3.47711E+01 -3.48815E+01 -3.44202E+01 -3.39199E+01 -3.37591E+01 -3.51732E+01 -3.47529E+01
  -3.33343E+01 -3.33151E+01 -3.39410E+01 -3.36885E+01 -3.29908E+01 -3.31500E+01 -3.32708E+01 -3.36675E+01 -3.28428E+01 -3.19133E+01
  -3.18859E+01 -3.18785E+01 -3.20680E+01 -3.21585E+01 -3.25956E+01 -3.18251E+01 -3.15759E+01 -3.11968E+01 -3.05756E+01 -3.02427E+01
  -3.01503E+01 -2.99845E+01 -2.94323E+01 -2.97177E+01 -3.02520E+01 -3.05258E+01 -3.01194E+01 -2.94917E+01 -2.93953E+01 -2.89365E+01
  -2.85126E+01 -2.90594E+01 -2.92246E+01 -2.82339E+01 -2.80328E+01 -2.77618E+01 -2.72964E+01 -2.70875E+01 -2.71268E+01 -2.66816E+01
  -2.65050E+01 -2.65490E+01 -2.64923E+01 -2.69376E+01 -2.65656E+01 -2.65950E+01 -2.60951E+01 -2.52653E+01 -2.41465E+01 -2.39119E+01
  -2.43317E+01 -2.46452E+01 -2.51402E+01 -2.48963E+01 -2.43101E+01 -2.43976E+01 -2.42087E+01 -2.33387E+01 -2.33873E+01 -2.40761E+01
 NY background values follow
    -2.509E+01   -2.525E+01   -2.540E+01   -2.556E+01   -2.571E+01   -2.587E+01   -2.603E+01   -2.618E+01   -2.634E+01   -2.649E+01
    -2.665E+01   -2.680E+01   -2.695E+01   -2.710E+01   -2.725E+01   -2.740E+01   -2.755E+01   -2.769E+01   -2.783E+01   -2.797E+01
    -2.811E+01   -2.825E+01   -2.838E+01   -2.851E+01   -2.863E+01   -2.875E+01   -2.887E+01   -2.899E+01   -2.910E+01   -2.921E+01
    -2.931E+01   -2.941E+01   -2.951E+01   -2.960E+01   -2.968E+01   -2.976E+01   -2.984E+01   -2.991E+01   -2.998E+01   -3.005E+01
    -3.011E+01   -3.016E+01   -3.022E+01   -3.026E+01   -3.031E+01   -3.034E+01   -3.038E+01   -3.041E+01   -3.043E+01   -3.045E+01
    -3.047E+01   -3.048E+01   -3.049E+01   -3.049E+01   -3.049E+01   -3.048E+01   -3.047E+01   -3.045E+01   -3.043E+01   -3.041E+01
    -3.038E+01   -3.034E+01   -3.030E+01   -3.026E+01   -3.021E+01   -3.016E+01   -3.011E+01   -3.005E+01   -2.998E+01   -2.992E+01
    -2.984E+01   -2.977E+01   -2.969E+01   -2.961E+01   -2.952E+01   -2.943E+01   -2.934E+01   -2.925E+01   -2.915E+01   -2.904E+01
    -2.894E+01   -2.883E+01   -2.872E+01   -2.861E+01   -2.849E+01   -2.838E+01   -2.825E+01   -2.813E+01   -2.801E+01   -2.788E+01
    -2.775E+01   -2.762E+01   -2.748E+01   -2.735E+01   -2.721E+01   -2.707E+01   -2.693E+01   -2.679E+01   -2.664E+01   -2.650E+01
    -2.635E+01   -2.620E+01   -2.604E+01   -2.589E+01   -2.573E+01   -2.557E+01   -2.541E+01   -2.525E+01   -2.509E+01   -2.492E+01
    -2.476E+01   -2.459E+01   -2.442E+01   -2.424E+01   -2.407E+01   -2.389E+01   -2.372E+01   -2.354E+01   -2.336E+01   -2.317E+01
    -2.299E+01   -2.281E+01   -2.262E+01   -2.243E+01   -2.224E+01   -2.205E+01   -2.186E+01   -2.166E+01   -2.147E+01   -2.127E+01
    -2.108E+01   -2.088E+01   -2.068E+01   -2.048E+01   -2.028E+01   -2.008E+01   -1.988E+01   -1.967E+01   -1.947E+01   -1.927E+01
    -1.906E+01   -1.886E+01   -1.866E+01   -1.845E+01   -1.825E+01   -1.804E+01   -1.784E+01   -1.763E+01   -1.743E+01   -1.722E+01
    -1.702E+01   -1.682E+01   -1.661E+01   -1.641E+01   -1.621E+01   -1.601E+01   -1.581E+01   -1.560E+01   -1.540E+01   -1.520E+01
    -1.500E+01   -1.481E+01   -1.461E+01   -1.441E+01   -1.421E+01   -1.402E+01   -1.382E+01   -1.363E+01   -1.343E+01   -1.324E+01
    -1.305E+01   -1.286E+01   -1.267E+01   -1.248E+01   -1.229E+01   -1.211E+01   -1.192E+01   -1.174E+01   -1.156E+01   -1.137E+01
    -1.119E+01   -1.101E+01   -1.084E+01   -1.066E+01   -1.048E+01   -1.031E+01   -1.014E+01   -9.966E+00   -9.796E+00   -9.628E+00
    -9.461E+00   -9.295E+00   -9.130E+00   -8.967E+00   -8.805E+00   -8.645E+00   -8.486E+00   -8.329E+00   -8.172E+00   -8.018E+00
    -7.865E+00   -7.713E+00   -7.563E+00   -7.414E+00   -7.267E+00   -7.121E+00   -6.977E+00   -6.834E+00   -6.693E+00   -6.553E+00
    -6.415E+00   -6.279E+00   -6.144E+00   -6.011E+00   -5.879E+00   -5.750E+00   -5.622E+00   -5.496E+00   -5.372E+00   -5.250E+00
    -5.130E+00   -5.012E+00   -4.897E+00   -4.783E+00   -4.672E+00   -4.564E+00   -4.458E+00   -4.354E+00   -4.252E+00   -4.154E+00
    -4.058E+00   -3.964E+00   -3.873E+00   -3.786E+00   -3.701E+00   -3.618E+00   -3.539E+00   -3.463E+00   -3.390E+00   -3.320E+00
    -3.253E+00   -3.189E+00   -3.129E+00   -3.071E+00   -3.017E+00   -2.965E+00   -2.917E+00   -2.871E+00   -2.828E+00   -2.788E+00
    -2.751E+00   -2.717E+00   -2.685E+00   -2.655E+00   -2.628E+00   -2.604E+00   -2.582E+00   -2.562E+00   -2.545E+00   -2.530E+00
    -2.517E+00   -2.507E+00   -2.498E+00   -2.492E+00   -2.487E+00   -2.485E+00   -2.485E+00   -2.486E+00   -2.489E+00   -2.495E+00
    -2.501E+00   -2.510E+00   -2.520E+00   -2.532E+00   -2.546E+00   -2.561E+00   -2.578E+00   -2.596E+00   -2.617E+00   -2.639E+00
    -2.662E+00   -2.687E+00   -2.714E+00   -2.743E+00   -2.773E+00   -2.804E+00   -2.837E+00   -2.872E+00   -2.909E+00   -2.947E+00
    -2.986E+00   -3.027E+00   -3.070E+00   -3.114E+00   -3.160E+00   -3.208E+00   -3.256E+00   -3.307E+00   -3.359E+00   -3.412E+00
    -3.467E+00   -3.523E+00   -3.581E+00   -3.641E+00   -3.702E+00   -3.765E+00   -3.829E+00   -3.895E+00   -3.964E+00   -4.033E+00
    -4.105E+00   -4.178E+00   -4.254E+00   -4.331E+00   -4.411E+00   -4.492E+00   -4.575E+00   -4.661E+00   -4.748E+00   -4.838E+00
    -4.930E+00   -5.024E+00   -5.121E+00   -5.219E+00   -5.321E+00   -5.424E+00   -5.530E+00   -5.638E+00   -5.749E+00   -5.862E+00
    -5.978E+00   -6.096E+00   -6.217E+00   -6.340E+00   -6.465E+00   -6.592E+00   -6.721E+00   -6.852E+00   -6.985E+00   -7.120E+00
    -7.256E+00   -7.394E+00   -7.533E+00   -7.673E+00   -7.815E+00   -7.958E+00   -8.102E+00   -8.246E+00   -8.392E+00   -8.538E+00
    -8.685E+00   -8.832E+00   -8.980E+00   -9.128E+00   -9.277E+00   -9.425E+00   -9.574E+00   -9.722E+00   -9.871E+00   -1.002E+01
    -1.017E+01   -1.031E+01   -1.046E+01   -1.061E+01   -1.075E+01   -1.090E+01   -1.104E+01   -1.119E+01   -1.133E+01   -1.147E+01
    -1.162E+01   -1.176E+01   -1.190E+01   -1.204E+01   -1.218E+01   -1.231E+01   -1.245E+01   -1.259E+01   -1.272E+01   -1.286E+01
    -1.299E+01   -1.312E+01   -1.325E+01   -1.338E+01   -1.351E+01   -1.364E+01   -1.376E+01   -1.389E+01   -1.401E+01   -1.413E+01
    -1.425E+01   -1.437E+01   -1.449E+01   -1.460E+01   -1.472E+01   -1.483E+01   -1.494E+01   -1.505E+01   -1.516E+01   -1.527E+01
    -1.537E+01   -1.547E+01   -1.558E+01   -1.568E+01   -1.577E+01   -1.587E+01   -1.597E+01   -1.606E+01   -1.615E+01   -1.624E+01
    -1.633E+01   -1.642E+01   -1.650E+01   -1.659E+01   -1.667E+01   -1.675E+01   -1.682E+01   -1.690E+01   -1.697E+01   -1.705E+01
    -1.712E+01   -1.718E+01   -1.725E+01   -1.732E+01   -1.738E+01   -1.744E+01   -1.750E+01   -1.756E+01   -1.762E+01   -1.767E+01
    -1.773E+01   -1.778E+01   -1.783E+01   -1.788E+01   -1.793E+01   -1.798E+01   -1.803E+01   -1.808E+01   -1.812E+01   -1.817E+01
    -1.822E+01   -1.826E+01   -1.830E+01   -1.835E+01   -1.839E+01   -1.843E+01   -1.847E+01   -1.851E+01   -1.855E+01   -1.859E+01
    -1.864E+01   -1.868E+01   -1.872E+01   -1.876E+01   -1.880E+01   -1.884E+01   -1.888E+01   -1.892E+01   -1.896E+01   -1.900E+01
    -1.904E+01   -1.908E+01   -1.912E+01   -1.916E+01   -1.920E+01   -1.924E+01   -1.928E+01   -1.932E+01   -1.935E+01   -1.939E+01
    -1.943E+01   -1.947E+01   -1.951E+01   -1.955E+01   -1.959E+01   -1.963E+01   -1.967E+01   -1.971E+01   -1.975E+01   -1.979E+01
 Mac      Conc. = 2.77E-04
  -4.58377E+01 -4.62582E+01 -4.66155E+01 -4.67072E+01 -4.71148E+01 -4.84436E+01 -5.03098E+01 -5.29490E+01 -5.49303E+01 -5.70333E+01
  -5.75767E+01 -5.75453E+01 -5.73447E+01 -5.62405E+01 -5.76936E+01 -6.03438E+01 -6.37949E+01 -6.28983E+01 -5.55609E+01 -4.94302E+01
  -4.62789E+01 -4.09493E+01 -3.69672E+01 -3.67813E+01 -3.76129E+01 -3.68878E+01 -3.58801E+01 -3.47678E+01 -3.23729E+01 -3.04507E+01
  -2.89894E+01 -2.84619E+01 -2.75370E+01 -2.73599E+01 -2.86594E+01 -3.01797E+01 -3.03795E+01 -2.78766E+01 -2.39943E+01 -2.09988E+01
  -2.14104E+01 -2.29576E+01 -2.31162E+01 -2.26684E+01 -2.07020E+01 -1.92963E+01 -1.88835E+01 -1.98207E+01 -2.11295E+01 -2.27806E+01
  -2.55418E+01 -2.68300E+01 -2.72759E+01 -2.77130E+01 -2.82338E+01 -2.81212E+01 -2.79221E+01 -2.59772E+01 -2.34169E+01 -2.27257E+01
  -2.13966E+01 -1.85754E+01 -1.86209E+01 -1.94714E+01 -2.08437E+01 -2.23610E+01 -2.34459E+01 -2.35359E+01 -2.38614E+01 -2.48545E+01
  -2.31444E+01 -1.91564E+01 -1.54086E+01 -1.38642E+01 -1.25351E+01 -1.21449E+01 -1.31990E+01 -1.46241E+01 -1.58870E+01 -1.66388E+01
  -1.71823E+01 -1.73350E+01 -1.81604E+01 -1.67341E+01 -1.56918E+01 -1.43813E+01 -1.32089E+01 -1.20172E+01 -1.11863E+01 -1.09622E+01
  -1.06010E+01 -9.99904E+00 -1.00903E+01 -1.02845E+01 -1.04082E+01 -1.25859E+01 -1.52336E+01 -1.81095E+01 -2.13487E+01 -2.39759E+01
  -2.47274E+01 -2.62668E+01 -2.94211E+01 -3.19042E+01 -3.57381E+01 -4.18448E+01 -4.97966E+01 -5.80165E+01 -6.14648E+01 -6.14480E+01
