 
 $NMID
 ID=''
 FMTDAT='(2E13.5)'
 TRAMP=   1.00000E+0
 VOLUME=   1.00000E+0
 $END
  -1.73288E+4   7.84740E+3
  -2.28155E+4   2.89606E+4
   2.35536E+4   3.67582E+4
   3.88966E+4  -4.21265E+3
   2.00090E+3  -3.84434E+4
  -2.80244E+4  -2.08946E+4
  -2.16624E+4   1.78607E+4
   4.16831E+3   2.95376E+4
   2.34418E+4   6.90122E+3
   1.37141E+4  -1.98007E+4
  -1.29596E+4  -1.93923E+4
  -2.05149E+4   2.43408E+3
  -4.39285E+3   1.65372E+4
   1.14121E+4   8.26879E+3
   1.26943E+4  -8.48195E+3
   1.37406E+3  -1.21759E+4
  -1.06899E+4  -1.91547E+3
  -7.13227E+3   7.24992E+3
   4.72071E+3   6.52078E+3
   7.39760E+3   2.50175E+2
   1.37870E+3  -5.67533E+3
  -3.15260E+3  -4.52058E+3
  -3.54680E+3   2.77787E+3
  -9.38268E+2   4.84439E+3
   2.62094E+3  -2.77933E+2
   3.89236E+3  -1.73891E+3
  -3.70639E+2   3.77082E+2
  -3.55446E+3  -3.97236E+2
  -1.15082E+3  -8.28084E+2
   2.10657E+3   9.70268E+2
   1.21476E+3   1.15153E+3
  -1.00075E+3  -6.83638E+2
  -1.15956E+3  -1.82911E+3
   4.57476E+2  -1.48249E+3
   1.94655E+3  -2.01591E+2
   1.36241E+3   1.63150E+3
  -6.91677E+2   1.02793E+3
  -8.14397E+2  -2.76434E+2
   4.96283E+2  -4.30048E+2
  -7.81460E+1  -1.44020E+1
  -4.41447E+2  -9.76576E+2
   1.06260E+3  -1.10663E+3
   1.36146E+3   7.76598E+2
   6.14723E+2   9.89597E+2
   1.71713E+1   2.32722E+2
  -1.15264E+2   5.46921E+2
  -1.53516E+3   8.15594E+2
  -1.52480E+3  -1.18054E+3
   8.04615E+1  -1.84073E+3
   1.67418E+3  -7.98381E+2
   8.70823E+2   1.20836E+1
   2.43006E+1  -1.38678E+2
   2.48363E+2   4.37558E+1
   1.57867E+1   6.92312E+2
  -5.61674E+2   4.68087E+2
  -6.41039E+2  -1.93915E+2
  -2.25052E+2  -7.30524E+2
   8.80380E+2  -8.73004E+2
   1.06345E+3   2.54317E+2
   3.60681E+2   8.63443E+2
  -3.42637E+2   8.28716E+2
  -4.13673E+2   7.32219E+2
  -1.04433E+3   7.70360E+2
  -1.67479E+3  -2.89956E+2
  -8.81208E+2  -1.51420E+3
   5.21013E+2  -1.03681E+3
   1.25251E+3   2.48452E+1
   1.09358E+3   2.56792E+2
   4.87429E+2   5.30594E+2
  -3.03072E+0   3.36609E+2
   2.08095E+1   2.03436E+2
   4.22389E+2   2.95551E+2
   2.37700E+2   5.55003E+2
  -3.63630E+2   2.88727E+2
  -4.45200E+2  -2.94149E+2
   2.27830E+2  -1.68336E+2
   6.41016E+1   2.51180E+2
  -4.10938E+2   4.54209E+2
  -3.31184E+2  -1.16057E+2
  -1.56655E+1  -2.80448E+2
   2.38692E+2  -5.12666E+2
   4.73385E+2  -2.33998E+2
   2.57284E+2   1.29307E+2
  -1.57809E+2  -2.46593E+2
   4.61483E+2  -1.60942E+2
   7.45663E+2   2.20581E+0
   2.88400E+2   5.95469E+2
  -2.38135E+2   3.06226E+2
  -2.26142E+2  -1.37879E+2
  -6.04912E+1   2.20000E+2
   2.77718E+1   6.51658E+2
  -6.00094E+2   2.71281E+2
  -6.83993E+2  -4.52505E+2
  -5.09929E+2  -5.73846E+2
   7.42825E+1  -6.53343E+2
   3.48560E+2   7.69986E+1
   6.77918E+1   1.74401E+2
   3.36027E+1  -6.67061E+1
   9.78464E+1  -2.80761E+2
   6.10989E+0   2.88331E+2
  -3.24725E+2   7.43107E+2
  -5.47007E+2   3.01059E+2
  -3.64224E+2  -2.37947E+2
   3.64021E+2  -5.58761E+2
   4.85203E+2   2.48014E+2
  -1.04730E+2   7.08066E+2
  -7.67517E+2   2.24862E+2
  -3.11832E+2  -8.28934E+2
   5.27581E+2  -8.76635E+2
   7.42074E+2   3.70166E+2
   2.73847E+2   1.11674E+3
  -2.90817E+2   7.33663E+2
  -3.87087E+2   7.40612E+1
  -1.30687E+2   1.90910E+2
  -3.88366E+2   3.55600E+2
  -3.48853E+2  -4.52697E+1
  -3.56529E+2  -5.30034E+2
   2.20936E+1  -4.37421E+2
   6.59770E+2  -2.49327E+2
   7.75646E+2   9.38248E+1
   1.05683E+2   6.74869E+2
  -1.44827E+2   6.00582E+2
  -1.76177E+2   2.27201E+2
  -4.53067E+2   1.31487E+2
  -2.11845E+2  -8.84939E+1
   2.39812E+2  -4.01118E+2
   4.21108E+2  -1.13706E+2
   4.06918E+2   1.09768E+2
   1.00300E+2   2.23151E+2
  -1.72667E+2   3.08162E+2
  -4.54598E+2  -2.35459E+2
   5.50682E+0  -6.10737E+2
   5.38242E+1  -3.22595E+2
   1.26148E+2   1.60414E+2
  -1.48839E+1   6.82912E+1
   4.19663E+2  -1.27347E+2
   2.39654E+2  -9.30439E+1
   3.84624E+1   5.71971E+2
  -3.35661E+2   4.24578E+2
  -4.31801E+2  -1.70814E+2
  -1.69748E+2  -5.89651E+2
   4.51779E+2  -1.51590E+2
   2.45268E+2   2.97397E+2
  -4.40142E+2   3.04462E+2
  -6.44421E+2  -3.27592E+1
  -2.08902E+2  -3.88504E+2
   1.00224E+2  -3.56573E+2
  -2.10639E+2  -4.40009E+2
  -4.93906E+1  -2.27904E+2
   9.96031E+1  -1.54408E+2
   2.72077E+2  -9.15390E+1
   2.50958E+2   3.86712E+1
   1.20010E+2   4.45624E+2
  -2.68186E+2   2.51339E+2
  -2.68986E+2   6.33451E+1
   1.96685E+1  -4.03294E+2
  -1.98087E+2   4.37039E+1
  -5.05710E+2   2.34906E+2
  -3.10348E+2  -4.65727E+1
  -1.83377E+1  -1.68259E+2
  -3.77661E+2  -4.10667E+1
  -3.22300E+2  -7.14077E+1
  -3.91205E+2  -2.44860E+2
   1.80590E+2  -3.36972E+2
   3.02566E+2   3.50356E+1
   2.35292E+2   3.34750E+2
  -3.83962E+2   2.80832E+2
  -2.80275E+2  -1.71491E+2
  -7.40112E+1   4.63453E+1
   2.77711E+1  -1.23802E+1
  -1.33189E+2   1.85229E+2
  -2.91271E+2  -4.37470E+1
  -3.16949E+2   3.21349E+1
  -4.86205E+0  -9.80050E+1
   1.48898E+2   9.07438E+1
  -1.70773E+2   5.23617E+1
  -4.91950E+2  -8.07090E+1
  -9.92022E+1  -4.48380E+2
   3.66071E+2  -2.94964E+2
   1.79083E+2   2.40525E+2
  -1.15148E+2   3.39777E+2
  -3.44673E+2  -4.29349E+1
  -2.34676E+2  -7.14170E+1
   5.29060E+1  -1.81586E+2
   1.54834E+2  -2.22729E+2
   1.82929E+2  -2.65591E+2
   2.40036E+2  -3.94583E+2
   1.55052E+2  -3.10445E+1
   2.63158E+2   3.29623E+2
  -2.58602E+2   8.27278E+2
  -5.36782E+2   1.28724E+2
  -3.45940E+2  -5.97982E+2
   1.04715E+2  -6.96079E+2
   2.32599E+2  -5.14645E+1
   1.77418E+2   3.78476E+1
   1.25418E+2  -4.01741E+1
  -2.25919E+1  -6.36456E+1
  -1.84539E+2   7.56331E+1
  -1.87954E+2  -3.20660E+1
  -3.60292E+2  -2.40706E+2
  -1.18644E+2  -4.43015E+2
   3.37253E+2  -5.79250E+2
   3.71852E+2   1.24844E+1
   1.66105E+2   1.87180E+2
  -4.92312E+2  -3.68905E+0
  -2.41175E+2  -1.47278E+2
  -1.36181E+2  -2.25831E+2
   1.71737E+2  -1.57961E+2
  -3.30656E+2  -3.76370E+1
  -1.14090E+2  -1.23002E+2
   8.96227E+1  -7.02902E+1
   2.52125E+2   1.70684E+2
  -6.87634E+1   4.29249E+2
  -6.53243E+2   7.30385E+1
  -5.52821E+2  -2.70907E+2
   5.07505E+0  -4.34771E+2
   1.66089E+2  -4.47068E+2
   4.50721E+2   2.30841E+2
   2.36853E+2  -1.41841E+2
  -8.66376E+0   8.35058E+1
  -1.31568E+2   5.86899E+1
   2.45324E+1   2.49864E+2
  -4.81275E+2   9.39345E+1
  -5.12654E+2  -1.63089E+2
  -1.32956E+2  -6.28497E+2
   4.01166E+2  -1.97755E+2
   1.34720E+2  -2.39176E+2
  -4.42237E+2   2.84156E+2
  -3.90988E+2  -5.16719E+1
   1.06856E+2  -1.55754E+2
  -1.78986E+1  -6.70728E+1
  -1.35893E+2   9.21581E+0
  -1.10188E+2   1.68434E+2
  -1.58872E+2  -1.37445E+2
   1.34209E+1  -2.17637E+1
  -1.18401E+2   1.32310E+1
  -1.19072E+2   1.73193E+1
  -8.97880E+0   2.58928E+1
  -1.04384E+2  -1.67766E+2
   8.57678E+1   4.81595E+0
   7.51474E+1   1.67846E+2
  -1.14729E+2   2.95153E+1
  -1.60680E+2  -1.66843E+2
  -9.50067E+1  -2.01243E+2
  -4.31129E+1  -1.78279E+2
  -6.10175E+1  -7.17889E+1
  -1.45029E+2  -1.76205E+2
  -4.37876E+1  -2.38644E+2
   1.29086E+1  -4.33085E+1
   3.26733E+1   3.53954E+2
  -1.33038E+2   1.67766E+2
  -1.93666E+2  -2.03908E+2
  -7.24883E+1  -3.01763E+2
   3.58261E+1  -1.20423E+1
   2.20081E+2   1.15506E+2
  -3.55365E+1   2.50417E+2
  -1.71492E+2   1.52301E+2
  -1.54426E+2   8.05437E+1
  -1.38083E+2  -7.04644E+1
  -2.01805E+2  -4.76525E+1
  -3.96157E+2  -2.28540E+2
  -6.76580E+1  -1.86428E+2
   3.80858E+2  -1.04288E+2
   1.54705E+2   1.35986E+1
   1.61555E+2   2.78042E+2
  -3.01526E+2   1.40814E+2
  -3.30416E+2   4.10220E+1
   4.47342E+0  -1.57069E+2
   1.83655E+2  -1.84227E+2
  -3.61105E+1   2.75160E+1
   9.00555E+1   1.80673E+2
   1.09785E+2   2.36255E+2
   1.12301E+2   1.31211E+2
  -8.81454E+1   2.78449E+2
  -2.78764E+2   2.85208E+2
  -2.41787E+2  -4.42610E+2
  -1.35882E+2  -5.06098E+2
   2.63918E+2   4.26922E+1
   2.27948E+2   3.19723E+1
  -1.55743E+2   2.77307E+2
  -9.10122E+1   9.59304E+1
   6.01425E+0   1.16324E+2
   5.52983E+1   2.31569E+1
  -3.63453E+2  -1.62881E+2
  -9.75990E+1  -4.92035E+0
   2.34764E+2  -3.63523E+2
   3.67309E+1   1.54304E+2
   1.54199E+2   7.35506E+1
  -3.12842E+2   3.59852E+2
   2.22970E+0   1.12897E+2
  -2.24088E+2  -1.39750E+2
  -1.50167E+1  -1.33699E+2
   1.62894E+2  -1.90944E+1
   1.75628E+2  -6.32863E+1
   3.22816E+1   1.27329E+2
  -1.18836E+2   1.02823E+2
   2.84691E+2   2.48067E+2
  -2.34069E+2  -2.05987E+1
  -3.29888E+2   1.94179E+2
  -7.58720E+1  -5.32583E+1
   2.84265E+2   1.71443E+2
   4.40717E+1   8.68018E+1
  -1.65670E+2   3.48873E+2
  -1.64812E+2  -2.09868E+2
   1.52327E+2  -7.95306E+1
   4.04848E+0  -6.93895E+1
  -1.19533E+1  -4.49262E+1
  -2.00439E+1   3.28081E+2
   9.50668E+1   1.90488E+1
   1.09488E+2   9.26200E+1
   7.26087E+1   2.63382E+2
  -1.25499E+2   1.44851E+2
   5.65766E+1  -8.21749E+1
  -1.03634E+2  -1.24186E+2
  -3.18364E+1   1.85708E+1
   1.04106E+2   7.89484E+1
  -1.42299E+2   9.38591E+1
  -4.13465E+1   1.19719E+2
  -7.87883E+1  -1.33755E+2
   8.82469E+1  -5.43821E+1
  -1.05173E+2  -7.82135E-1
   2.86306E+1  -5.11410E+1
   3.39414E+0  -5.98875E+1
   1.74585E+1  -4.73278E+1
   1.25909E+2   1.30594E+2
  -9.90743E+1   1.49678E+2
  -2.80442E+2   1.45120E+2
  -2.77822E+1  -2.01751E+2
   1.63256E+1  -1.49276E+2
   9.04104E+1  -4.95520E+0
   6.79810E+1   1.43399E+1
   7.51224E+1   4.52635E+1
  -8.64545E+1   1.12633E+2
   1.02452E+2   1.03942E+2
  -2.30889E+1   1.93297E+2
  -1.97572E+2   3.89830E+1
   2.01894E+1  -2.63210E+2
   1.13274E+2  -1.62676E+2
   3.31150E+2   9.51938E+1
  -1.57661E+1   2.02610E+2
  -1.50206E+2   1.39447E+1
  -1.85801E+2   2.15575E+2
  -9.30858E+1   1.61538E+1
   1.92734E+2   2.24648E+2
  -4.97418E+1  -8.57430E+1
  -5.97584E+1  -7.07204E+1
   2.17336E+2   1.72718E+2
   9.38494E+1   6.76334E+1
   2.08447E+2   2.36129E+2
  -1.01913E+2   2.88758E+2
  -1.13031E+2   7.49877E-1
  -1.28427E+2  -9.67740E+1
   7.33877E+1  -2.36957E+2
   5.74359E+1   2.46145E+2
  -1.74495E+1   1.51121E+2
   8.06027E+1  -2.67123E+1
   5.91334E+1  -2.06844E+2
  -5.46128E+1   1.77923E+2
  -2.69186E+2   5.51656E+1
  -2.63783E+2  -7.92217E+1
  -7.25203E+1  -1.40418E+2
   1.04124E+2  -1.06010E+2
   8.62575E+1   2.39012E+1
  -2.95483E+2   3.16829E+2
  -2.47165E+2  -8.11585E+1
  -4.79923E+1  -2.15617E+1
  -5.89835E+1   2.71260E+1
