 
 $NMID
 ID=''
 FMTDAT='(2E13.5)'
 TRAMP=   1.00000E+0
 VOLUME=   1.00000E+0
 $END
   5.42338E+5  -4.73821E+4
   1.38107E+6   3.10341E+5
   1.34954E+6   9.04098E+4
   1.23504E+6   1.59473E+5
   1.32681E+6   2.07003E+5
   1.33652E+6   1.01710E+5
   1.26455E+6   7.31820E+4
   1.27589E+6   9.10698E+4
   1.27981E+6   5.66935E+4
   1.26645E+6   4.06564E+4
   1.27261E+6   1.32318E+4
   1.24076E+6  -2.14195E+4
   1.22019E+6  -1.62955E+4
   1.23911E+6  -3.54214E+4
   1.22148E+6  -7.71717E+4
   1.19276E+6  -8.73930E+4
   1.19924E+6  -9.84422E+4
   1.18809E+6  -1.21183E+5
   1.17085E+6  -1.26105E+5
   1.16972E+6  -1.40682E+5
   1.15531E+6  -1.58575E+5
   1.14021E+6  -1.65209E+5
   1.13690E+6  -1.80451E+5
   1.12346E+6  -1.95434E+5
   1.10889E+6  -1.98833E+5
   1.10097E+6  -2.19289E+5
   1.08735E+6  -2.37860E+5
   1.07552E+6  -2.42330E+5
   1.06481E+6  -2.53859E+5
   1.04785E+6  -2.72573E+5
   1.03821E+6  -2.79032E+5
   1.03030E+6  -2.87003E+5
   1.01482E+6  -2.95440E+5
   1.00167E+6  -3.02123E+5
   9.91358E+5  -3.11216E+5
   9.77968E+5  -3.19784E+5
   9.68432E+5  -3.25531E+5
   9.57526E+5  -3.31723E+5
   9.41424E+5  -3.37002E+5
   9.30396E+5  -3.42611E+5
   9.18934E+5  -3.50470E+5
   9.03418E+5  -3.56503E+5
   8.88921E+5  -3.62008E+5
   8.77623E+5  -3.68436E+5
   8.64134E+5  -3.73176E+5
   8.51873E+5  -3.77898E+5
   8.40253E+5  -3.80832E+5
   8.28250E+5  -3.80173E+5
   8.14623E+5  -3.79618E+5
   8.01135E+5  -3.82303E+5
   7.89075E+5  -3.83223E+5
   7.77853E+5  -3.82062E+5
   7.65641E+5  -3.82033E+5
   7.53007E+5  -3.82705E+5
   7.40817E+5  -3.82365E+5
   7.28879E+5  -3.80602E+5
   7.16171E+5  -3.78739E+5
   7.02687E+5  -3.77200E+5
   6.89248E+5  -3.76971E+5
   6.77600E+5  -3.75666E+5
   6.65920E+5  -3.73266E+5
   6.53176E+5  -3.71035E+5
   6.41441E+5  -3.68557E+5
   6.30330E+5  -3.63864E+5
   6.18122E+5  -3.58643E+5
   6.04604E+5  -3.55110E+5
   5.92254E+5  -3.51611E+5
   5.80501E+5  -3.47064E+5
   5.69848E+5  -3.42536E+5
   5.59184E+5  -3.37884E+5
   5.47990E+5  -3.32410E+5
   5.36378E+5  -3.26955E+5
   5.24942E+5  -3.22704E+5
   5.14638E+5  -3.18067E+5
   5.04159E+5  -3.11705E+5
   4.93325E+5  -3.05694E+5
   4.82574E+5  -3.00408E+5
   4.72707E+5  -2.94580E+5
   4.62783E+5  -2.88204E+5
   4.52582E+5  -2.81453E+5
   4.42801E+5  -2.75055E+5
   4.33140E+5  -2.69071E+5
   4.23370E+5  -2.62623E+5
   4.14306E+5  -2.56050E+5
   4.05133E+5  -2.49168E+5
   3.95963E+5  -2.42881E+5
   3.86799E+5  -2.37423E+5
   3.78079E+5  -2.31395E+5
   3.69441E+5  -2.25394E+5
   3.60585E+5  -2.19231E+5
   3.51831E+5  -2.13570E+5
   3.43720E+5  -2.08143E+5
   3.35864E+5  -2.02399E+5
   3.27496E+5  -1.96093E+5
   3.18720E+5  -1.90070E+5
   3.10907E+5  -1.84484E+5
   3.03482E+5  -1.79518E+5
   2.95952E+5  -1.74233E+5
   2.87718E+5  -1.68539E+5
   2.80400E+5  -1.63379E+5
   2.73804E+5  -1.58034E+5
   2.66355E+5  -1.52796E+5
   2.59006E+5  -1.47401E+5
   2.51974E+5  -1.42156E+5
   2.44820E+5  -1.37375E+5
   2.38185E+5  -1.33146E+5
   2.31787E+5  -1.29045E+5
   2.25347E+5  -1.23835E+5
   2.18581E+5  -1.18961E+5
   2.11538E+5  -1.14845E+5
   2.05419E+5  -1.11269E+5
   1.99756E+5  -1.06759E+5
   1.93601E+5  -1.02235E+5
   1.87379E+5  -9.80137E+4
   1.81632E+5  -9.39052E+4
   1.76513E+5  -8.96388E+4
   1.70397E+5  -8.53615E+4
   1.64492E+5  -8.14933E+4
   1.59192E+5  -7.79373E+4
   1.53689E+5  -7.45314E+4
   1.48531E+5  -7.10521E+4
   1.43467E+5  -6.78660E+4
   1.38541E+5  -6.43951E+4
   1.33666E+5  -6.09729E+4
   1.28734E+5  -5.77576E+4
   1.23170E+5  -5.45777E+4
   1.18567E+5  -5.16333E+4
   1.14199E+5  -4.85950E+4
   1.09405E+5  -4.55818E+4
   1.04657E+5  -4.26491E+4
   1.00701E+5  -3.96738E+4
   9.63666E+4  -3.65826E+4
   9.18650E+4  -3.39342E+4
   8.78514E+4  -3.14458E+4
   8.38983E+4  -2.87900E+4
   7.95597E+4  -2.63266E+4
   7.54058E+4  -2.40656E+4
   7.16001E+4  -2.19121E+4
   6.80311E+4  -1.97800E+4
   6.41196E+4  -1.76611E+4
   6.02292E+4  -1.55505E+4
   5.63622E+4  -1.39468E+4
   5.27318E+4  -1.21179E+4
   4.90439E+4  -1.05301E+4
   4.56007E+4  -8.81754E+3
   4.23014E+4  -6.90520E+3
   3.84010E+4  -5.32645E+3
   3.53052E+4  -3.92772E+3
   3.19452E+4  -2.69140E+3
   2.88069E+4  -1.42451E+3
   2.56445E+4  -3.44141E+2
   2.24185E+4   1.05947E+3
   1.94428E+4   1.98082E+3
   1.65935E+4   2.93368E+3
   1.33540E+4   3.82568E+3
   1.06869E+4   4.66560E+3
   7.71431E+3   5.64433E+3
   4.97163E+3   6.61766E+3
   2.33032E+3   7.36528E+3
  -4.90098E+2   8.12917E+3
  -2.97976E+3   8.83232E+3
  -5.42548E+3   9.31732E+3
  -8.10270E+3   9.93253E+3
  -1.03469E+4   1.03139E+4
  -1.24883E+4   1.07710E+4
  -1.48965E+4   1.11944E+4
  -1.71522E+4   1.17288E+4
  -1.90940E+4   1.20326E+4
  -2.13251E+4   1.25611E+4
  -2.31015E+4   1.29070E+4
  -2.50726E+4   1.27263E+4
  -2.67992E+4   1.31240E+4
  -2.86170E+4   1.35326E+4
  -3.05958E+4   1.36377E+4
  -3.21333E+4   1.38603E+4
  -3.35557E+4   1.38326E+4
  -3.51054E+4   1.42249E+4
  -3.66090E+4   1.37599E+4
  -3.79047E+4   1.35835E+4
  -3.92933E+4   1.39036E+4
  -4.06938E+4   1.37837E+4
  -4.21447E+4   1.36650E+4
  -4.31435E+4   1.30802E+4
  -4.43219E+4   1.29195E+4
  -4.53457E+4   1.26003E+4
  -4.64080E+4   1.23594E+4
  -4.74063E+4   1.19119E+4
  -4.85056E+4   1.15894E+4
  -4.93902E+4   1.13828E+4
  -5.02391E+4   1.09141E+4
  -5.11845E+4   1.05180E+4
  -5.17502E+4   9.76423E+3
  -5.28480E+4   9.35800E+3
  -5.32315E+4   8.65216E+3
  -5.38702E+4   8.23653E+3
  -5.47234E+4   7.51477E+3
  -5.52314E+4   6.82010E+3
  -5.58580E+4   6.32358E+3
  -5.65170E+4   5.56467E+3
  -5.72295E+4   4.62036E+3
  -5.76751E+4   3.82898E+3
  -5.79704E+4   3.23001E+3
  -5.85351E+4   2.21615E+3
  -5.87665E+4   1.67939E+3
  -5.92121E+4   8.84171E+2
  -5.96225E+4  -2.38138E+1
  -5.98788E+4  -9.87033E+2
  -5.99207E+4  -1.90777E+3
  -6.01197E+4  -2.70918E+3
  -6.06124E+4  -3.68035E+3
  -6.09286E+4  -4.67559E+3
  -6.07999E+4  -5.40820E+3
  -6.08166E+4  -6.33982E+3
  -6.10508E+4  -7.37806E+3
  -6.13197E+4  -8.30389E+3
  -6.10063E+4  -9.26790E+3
  -6.09234E+4  -9.99658E+3
  -6.07138E+4  -1.09356E+4
  -6.06671E+4  -1.18444E+4
  -6.07283E+4  -1.24799E+4
  -6.07133E+4  -1.34883E+4
  -6.03621E+4  -1.41552E+4
  -6.02156E+4  -1.51061E+4
  -5.98271E+4  -1.59732E+4
  -5.94771E+4  -1.68926E+4
  -5.91470E+4  -1.75495E+4
  -5.89244E+4  -1.83050E+4
  -5.85366E+4  -1.91134E+4
  -5.84800E+4  -1.97962E+4
  -5.79555E+4  -2.09231E+4
  -5.76540E+4  -2.16854E+4
  -5.71286E+4  -2.23278E+4
  -5.68431E+4  -2.28903E+4
  -5.62923E+4  -2.34847E+4
  -5.57750E+4  -2.42440E+4
  -5.51550E+4  -2.47771E+4
  -5.49594E+4  -2.54955E+4
  -5.43539E+4  -2.60897E+4
  -5.37418E+4  -2.68066E+4
  -5.32314E+4  -2.72765E+4
  -5.28509E+4  -2.78185E+4
  -5.23376E+4  -2.83174E+4
  -5.14504E+4  -2.91373E+4
  -5.09512E+4  -2.98156E+4
  -5.02815E+4  -3.02078E+4
  -4.95853E+4  -3.05453E+4
  -4.88496E+4  -3.12723E+4
  -4.82623E+4  -3.19078E+4
  -4.75320E+4  -3.20695E+4
  -4.67769E+4  -3.29399E+4
  -4.65430E+4  -3.31693E+4
  -4.55220E+4  -3.35800E+4
  -4.49470E+4  -3.40257E+4
  -4.40729E+4  -3.43629E+4
  -4.32121E+4  -3.45776E+4
  -4.24516E+4  -3.51098E+4
  -4.15831E+4  -3.53060E+4
  -4.06241E+4  -3.62781E+4
  -3.97042E+4  -3.63572E+4
  -3.89346E+4  -3.70348E+4
  -3.79685E+4  -3.74092E+4
  -3.72873E+4  -3.76104E+4
  -3.63007E+4  -3.81527E+4
  -3.55080E+4  -3.82631E+4
  -3.46874E+4  -3.83623E+4
  -3.37217E+4  -3.88935E+4
  -3.28093E+4  -3.93322E+4
  -3.17705E+4  -3.95913E+4
  -3.06402E+4  -3.97099E+4
  -2.99680E+4  -4.00378E+4
  -2.87834E+4  -4.00828E+4
  -2.79089E+4  -4.01616E+4
  -2.69697E+4  -4.03906E+4
  -2.63445E+4  -4.05971E+4
  -2.52048E+4  -4.07326E+4
  -2.43191E+4  -4.10981E+4
  -2.32968E+4  -4.10343E+4
  -2.21486E+4  -4.13274E+4
  -2.15182E+4  -4.10920E+4
  -2.04313E+4  -4.11755E+4
  -1.94096E+4  -4.13896E+4
  -1.84932E+4  -4.12984E+4
  -1.75130E+4  -4.16537E+4
  -1.67089E+4  -4.15157E+4
  -1.58017E+4  -4.16831E+4
  -1.46568E+4  -4.14969E+4
  -1.37209E+4  -4.13444E+4
  -1.30080E+4  -4.14042E+4
  -1.24900E+4  -4.13263E+4
  -1.13502E+4  -4.13798E+4
  -1.01326E+4  -4.11058E+4
  -9.31602E+3  -4.08598E+4
  -8.60569E+3  -4.06506E+4
  -7.65662E+3  -4.03785E+4
  -6.91871E+3  -4.03330E+4
  -5.97168E+3  -4.04120E+4
  -5.19723E+3  -4.00824E+4
  -4.25681E+3  -3.98931E+4
  -3.55188E+3  -3.97577E+4
  -2.70475E+3  -3.95262E+4
  -1.81147E+3  -3.93095E+4
  -8.97735E+2  -3.89646E+4
  -2.51724E+2  -3.85062E+4
   4.04941E+2  -3.86406E+4
   1.38165E+3  -3.81105E+4
   1.96174E+3  -3.79223E+4
   2.86825E+3  -3.74575E+4
   3.47113E+3  -3.72180E+4
   4.25604E+3  -3.70874E+4
   5.10099E+3  -3.64732E+4
   5.69822E+3  -3.61383E+4
   6.34881E+3  -3.57692E+4
   7.20593E+3  -3.53894E+4
   7.79361E+3  -3.49241E+4
   8.54073E+3  -3.46164E+4
   9.33671E+3  -3.39439E+4
   9.82448E+3  -3.40280E+4
   1.04879E+4  -3.34755E+4
   1.12908E+4  -3.31339E+4
   1.17730E+4  -3.26868E+4
   1.23710E+4  -3.21544E+4
   1.28055E+4  -3.18146E+4
   1.36165E+4  -3.13016E+4
   1.40643E+4  -3.07188E+4
   1.48308E+4  -3.02591E+4
   1.52089E+4  -2.99176E+4
   1.59918E+4  -2.94814E+4
   1.67863E+4  -2.89728E+4
   1.71018E+4  -2.84111E+4
   1.75177E+4  -2.76451E+4
   1.80719E+4  -2.74551E+4
   1.82794E+4  -2.69939E+4
   1.91209E+4  -2.63425E+4
   1.94058E+4  -2.56019E+4
   1.98479E+4  -2.53715E+4
   2.02058E+4  -2.50058E+4
   2.07897E+4  -2.45430E+4
   2.13044E+4  -2.38960E+4
   2.18633E+4  -2.32836E+4
   2.22266E+4  -2.26932E+4
   2.23607E+4  -2.23217E+4
   2.28954E+4  -2.17847E+4
   2.32128E+4  -2.13419E+4
   2.36330E+4  -2.07604E+4
   2.37837E+4  -2.00757E+4
   2.41819E+4  -1.98629E+4
   2.44943E+4  -1.90966E+4
   2.48981E+4  -1.82812E+4
   2.49899E+4  -1.81499E+4
   2.52620E+4  -1.75016E+4
   2.56227E+4  -1.70096E+4
   2.58308E+4  -1.65317E+4
   2.62231E+4  -1.59142E+4
   2.63981E+4  -1.53742E+4
   2.65349E+4  -1.51418E+4
   2.67680E+4  -1.43494E+4
   2.67955E+4  -1.40175E+4
   2.68927E+4  -1.34475E+4
   2.72199E+4  -1.29537E+4
   2.75397E+4  -1.24765E+4
   2.73792E+4  -1.17164E+4
   2.73937E+4  -1.12252E+4
   2.76496E+4  -1.06873E+4
   2.77830E+4  -1.03109E+4
   2.77296E+4  -9.78450E+3
   2.76592E+4  -9.39101E+3
   2.75965E+4  -9.03079E+3
