 LCModel (Version 6.3-1N) Copyright: S.W. Provencher.          Ref.: Magn. Reson. Med. 30:672-679 (1993).                
 Slice_N1@23_20  28-Feb-2025 11:43:23
 27 lines in following concentration table = NCONC+1
    Conc.  %SD /Cr+PCr  Metabolite                                         
 2.82E-04   4% 3.7E-04 Mac                                                 
    6.131  13%   8.000 Cr                                                  
    0.000 999%   0.000 PCr                                                 
   10.251  11%  13.376 Ins                                                 
    5.679  19%   7.410 NAA                                                 
    5.476  25%   7.146 Tau                                                 
    1.831  16%   2.389 PCho                                                
    0.000 999%   0.000 GPC                                                 
   10.161  12%  13.257 Glu                                                 
    3.864  25%   5.042 Gln                                                 
    0.000 999%   0.000 Ala                                                 
    6.168  25%   8.047 Asc                                                 
    0.890 104%   1.162 Asp                                                 
    1.014  53%   1.324 GABA                                                
    0.760  80%   0.992 Glc                                                 
    2.378  26%   3.103 GSH                                                 
    0.000 999%   0.000 Lac                                                 
    5.109  17%   6.667 NAAG                                                
    0.000 999%   0.000 PE                                                  
    1.831  16%   2.389 GPC+PCho                                            
   10.788   8%  14.076 NAA+NAAG                                            
   14.025  11%  18.300 Glu+Gln                                             
    6.131  13%   8.000 Cr+PCr                                              
   10.788   8%  14.076 NAA+NAAG                                            
    6.131  13%   8.000 Cr+PCr                                              
   14.025  11%  18.300 Glu+Gln                                             
   6 lines in following misc. output table
  FWHM = 0.073 ppm    S/N =   3                                            
  Data shift =-0.016 ppm                                                   
  Ph: -35 deg       0.0 deg/ppm                                            
  alphaB,S = 2.2E-01,   1.8E+02                                            
   19 spline knots.   Ns =10(1)                                            
  (10) 2 infls.   ( 7) 1 extrs.                                            
  480 points on ppm-axis = NY
      4.100000     4.091866     4.083733     4.075600     4.067466     4.059333     4.051199     4.043066     4.034933     4.026799
      4.018666     4.010532     4.002399     3.994265     3.986132     3.977998     3.969864     3.961731     3.953597     3.945463
      3.937330     3.929196     3.921062     3.912929     3.904795     3.896662     3.888528     3.880394     3.872261     3.864127
      3.855993     3.847860     3.839726     3.831592     3.823459     3.815325     3.807191     3.799058     3.790924     3.782790
      3.774657     3.766523     3.758389     3.750256     3.742122     3.733989     3.725855     3.717721     3.709588     3.701454
      3.693320     3.685187     3.677053     3.668919     3.660786     3.652652     3.644518     3.636385     3.628251     3.620117
      3.611984     3.603850     3.595716     3.587583     3.579449     3.571316     3.563182     3.555048     3.546915     3.538781
      3.530647     3.522514     3.514380     3.506246     3.498113     3.489979     3.481845     3.473712     3.465578     3.457444
      3.449311     3.441177     3.433043     3.424910     3.416776     3.408643     3.400509     3.392375     3.384242     3.376108
      3.367974     3.359841     3.351707     3.343573     3.335440     3.327306     3.319172     3.311039     3.302905     3.294771
      3.286638     3.278504     3.270370     3.262237     3.254103     3.245970     3.237836     3.229702     3.221569     3.213435
      3.205301     3.197168     3.189034     3.180900     3.172767     3.164633     3.156499     3.148366     3.140232     3.132098
      3.123965     3.115831     3.107697     3.099564     3.091430     3.083297     3.075163     3.067029     3.058896     3.050762
      3.042628     3.034495     3.026361     3.018227     3.010094     3.001960     2.993826     2.985693     2.977559     2.969425
      2.961292     2.953158     2.945024     2.936891     2.928757     2.920624     2.912490     2.904356     2.896223     2.888089
      2.879955     2.871822     2.863688     2.855554     2.847421     2.839287     2.831153     2.823020     2.814886     2.806752
      2.798619     2.790485     2.782351     2.774218     2.766084     2.757951     2.749817     2.741683     2.733550     2.725416
      2.717282     2.709149     2.701015     2.692881     2.684748     2.676614     2.668480     2.660347     2.652213     2.644079
      2.635946     2.627812     2.619678     2.611545     2.603411     2.595278     2.587144     2.579010     2.570877     2.562743
      2.554609     2.546476     2.538342     2.530208     2.522075     2.513941     2.505807     2.497674     2.489540     2.481406
      2.473273     2.465139     2.457006     2.448872     2.440738     2.432605     2.424471     2.416337     2.408204     2.400070
      2.391936     2.383803     2.375669     2.367535     2.359402     2.351268     2.343134     2.335001     2.326867     2.318733
      2.310600     2.302466     2.294333     2.286199     2.278065     2.269932     2.261798     2.253664     2.245531     2.237397
      2.229263     2.221130     2.212996     2.204862     2.196729     2.188595     2.180461     2.172328     2.164194     2.156060
      2.147927     2.139793     2.131660     2.123526     2.115392     2.107259     2.099125     2.090991     2.082858     2.074724
      2.066590     2.058457     2.050323     2.042189     2.034056     2.025922     2.017788     2.009655     2.001521     1.993387
      1.985254     1.977120     1.968987     1.960853     1.952719     1.944586     1.936452     1.928318     1.920185     1.912051
      1.903917     1.895784     1.887650     1.879516     1.871383     1.863249     1.855115     1.846982     1.838848     1.830714
      1.822581     1.814447     1.806314     1.798180     1.790046     1.781913     1.773779     1.765645     1.757512     1.749378
      1.741244     1.733111     1.724977     1.716843     1.708710     1.700576     1.692442     1.684309     1.676175     1.668041
      1.659908     1.651774     1.643641     1.635507     1.627373     1.619240     1.611106     1.602972     1.594839     1.586705
      1.578571     1.570438     1.562304     1.554170     1.546037     1.537903     1.529769     1.521636     1.513502     1.505368
      1.497235     1.489101     1.480968     1.472834     1.464700     1.456567     1.448433     1.440299     1.432166     1.424032
      1.415898     1.407765     1.399631     1.391497     1.383364     1.375230     1.367096     1.358963     1.350829     1.342695
      1.334562     1.326428     1.318295     1.310161     1.302027     1.293894     1.285760     1.277626     1.269493     1.261359
      1.253225     1.245092     1.236958     1.228824     1.220691     1.212557     1.204423     1.196290     1.188156     1.180022
      1.171889     1.163755     1.155622     1.147488     1.139354     1.131221     1.123087     1.114953     1.106820     1.098686
      1.090552     1.082419     1.074285     1.066151     1.058018     1.049884     1.041750     1.033617     1.025483     1.017349
      1.009216     1.001082     0.992949     0.984815     0.976681     0.968548     0.960414     0.952280     0.944147     0.936013
      0.927879     0.919746     0.911612     0.903478     0.895345     0.887211     0.879077     0.870944     0.862810     0.854676
      0.846543     0.838409     0.830276     0.822142     0.814008     0.805875     0.797741     0.789607     0.781474     0.773340
      0.765206     0.757073     0.748939     0.740805     0.732672     0.724538     0.716404     0.708271     0.700137     0.692003
      0.683870     0.675736     0.667603     0.659469     0.651335     0.643202     0.635068     0.626934     0.618801     0.610667
      0.602533     0.594400     0.586266     0.578132     0.569999     0.561865     0.553731     0.545598     0.537464     0.529330
      0.521197     0.513063     0.504930     0.496796     0.488662     0.480529     0.472395     0.464261     0.456128     0.447994
      0.439861     0.431727     0.423593     0.415460     0.407326     0.399192     0.391059     0.382925     0.374792     0.366658
      0.358524     0.350391     0.342257     0.334124     0.325990     0.317856     0.309723     0.301589     0.293455     0.285322
      0.277188     0.269055     0.260921     0.252787     0.244654     0.236520     0.228386     0.220253     0.212119     0.203986
 NY phased data points follow
  -4.13889E+01 -4.56691E+01 -4.45956E+01 -3.81861E+01 -3.07125E+01 -3.36599E+01 -4.33707E+01 -5.30573E+01 -3.05175E+01 -2.65978E+01
  -4.63095E+01 -2.71977E+01 -4.47477E+01 -4.59326E+01 -3.20232E+01 -5.44650E+01 -5.60988E+01 -4.14725E+01 -4.39800E+01 -5.18410E+01
  -4.12996E+01 -4.13814E+01 -3.59733E+01 -4.09194E+01 -4.48886E+01 -3.65507E+01 -4.09620E+01 -3.31481E+01 -3.26032E+01 -3.53432E+01
  -3.65486E+01 -2.64808E+01 -2.74085E+01 -3.81054E+01 -3.11883E+01 -4.84383E+01 -5.33303E+01 -5.16224E+01 -7.11872E+01 -6.60818E+01
  -7.32753E+01 -8.32729E+01 -7.22453E+01 -6.87435E+01 -6.78469E+01 -6.82820E+01 -4.88454E+01 -4.21019E+01 -4.58386E+01 -4.04329E+01
  -3.53065E+01 -2.86201E+01 -4.27343E+01 -4.21235E+01 -3.65813E+01 -3.80818E+01 -4.83241E+01 -5.56165E+01 -4.96832E+01 -5.74492E+01
  -5.94298E+01 -4.91189E+01 -4.70705E+01 -5.91058E+01 -4.12589E+01 -3.32121E+01 -4.58158E+01 -4.13989E+01 -4.25323E+01 -4.57043E+01
  -4.77326E+01 -4.39297E+01 -4.30624E+01 -3.42875E+01 -3.20056E+01 -2.54597E+01 -2.23847E+01 -2.85739E+01 -2.59686E+01 -1.66431E+01
  -2.28921E+00 -2.83407E+01 -2.43979E+01 -2.14161E+01 -4.00190E+01 -2.25784E+01 -2.20377E+01 -1.58480E+01 -2.21883E+01 -3.09353E+01
  -7.13046E+00  4.63814E+00  3.21272E+00  9.80618E+00  1.63911E+01  1.79726E+01  1.25631E+01  1.28011E+01  8.21881E+00  1.41222E+00
   6.78179E+00 -6.12779E+00 -1.17997E+00 -5.78352E+00 -1.39504E+01 -1.63239E+01 -4.15414E+01 -5.11927E+01 -8.65511E+01 -1.07694E+02
  -1.09382E+02 -1.17316E+02 -1.09377E+02 -1.11971E+02 -1.17978E+02 -9.69213E+01 -6.42561E+01 -6.88565E+01 -5.99579E+01 -5.34141E+01
  -6.36733E+01 -4.79024E+01 -3.65150E+01 -2.34943E+01 -3.20338E+01 -2.74760E+01  8.01762E+00  1.67581E+01  2.06312E+01  9.85556E+00
   4.31437E+00  8.69020E+00 -2.09943E+01 -4.04376E+01 -5.03309E+01 -6.41673E+01 -8.06328E+01 -9.22169E+01 -8.35792E+01 -8.60332E+01
  -9.41857E+01 -9.96725E+01 -9.92654E+01 -9.63729E+01 -9.77924E+01 -1.05806E+02 -1.03497E+02 -9.87732E+01 -1.07669E+02 -9.51198E+01
  -1.01052E+02 -9.94972E+01 -7.72989E+01 -7.73754E+01 -7.98698E+01 -9.22266E+01 -8.03753E+01 -6.75368E+01 -8.04672E+01 -7.25640E+01
  -6.39556E+01 -6.42598E+01 -5.71629E+01 -6.04589E+01 -5.97621E+01 -6.72033E+01 -8.09847E+01 -6.25082E+01 -6.01760E+01 -5.72351E+01
  -5.01566E+01 -4.97745E+01 -4.28584E+01 -4.93465E+01 -3.92672E+01 -4.70225E+01 -4.11835E+01 -3.71310E+01 -5.49655E+01 -3.87348E+01
  -6.34308E+01 -7.65084E+01 -6.80327E+01 -7.71183E+01 -7.56924E+01 -8.66445E+01 -7.92874E+01 -7.50496E+01 -6.60444E+01 -5.93657E+01
  -7.80211E+01 -7.54130E+01 -7.23001E+01 -6.49538E+01 -5.46592E+01 -6.48220E+01 -5.98558E+01 -4.41720E+01 -4.86943E+01 -4.86732E+01
  -4.87408E+01 -5.32453E+01 -4.73376E+01 -4.55054E+01 -5.40549E+01 -5.98648E+01 -5.76862E+01 -7.39895E+01 -7.59631E+01 -6.79018E+01
  -6.86169E+01 -6.92279E+01 -7.27673E+01 -5.46401E+01 -5.64549E+01 -5.22754E+01 -3.50121E+01 -3.51138E+01 -3.38960E+01 -2.82480E+01
  -2.52889E+01 -4.24895E+01 -3.99643E+01 -4.47839E+01 -4.65196E+01 -3.42353E+01 -4.26996E+01 -4.98510E+01 -5.74906E+01 -4.55322E+01
  -4.90273E+01 -6.23797E+01 -7.03822E+01 -7.07100E+01 -6.64596E+01 -7.98884E+01 -8.25110E+01 -1.01894E+02 -9.32083E+01 -8.55735E+01
  -1.06769E+02 -9.40855E+01 -9.17166E+01 -9.49278E+01 -9.15974E+01 -8.44503E+01 -8.06923E+01 -7.71331E+01 -8.49525E+01 -8.64819E+01
  -7.00826E+01 -8.16909E+01 -7.70407E+01 -7.65717E+01 -6.91886E+01 -5.65181E+01 -4.32731E+01 -2.53381E-02  7.92769E+00  2.05757E+01
   2.64731E+01  4.39159E+01  7.73484E+01  6.15846E+01  4.90094E+01  4.03630E+01  4.49739E+01  5.03005E+01  3.59959E+01  3.38716E+01
   3.44565E+01  3.42963E+01  3.40497E+01  2.28710E+01  2.73691E+01  2.85576E+01  1.91664E+01  3.41765E+01  3.38100E+01  3.31096E+01
   2.67133E+01  1.93031E+01  3.41287E+01  3.79343E+01  3.46366E+01  2.89666E+01  2.58890E+01  2.58146E+01  2.80413E+01  2.28531E+01
   2.72720E+01  1.35458E+01  9.42574E+00  2.01687E+01  4.16086E+00  1.27219E+01  1.33947E+01  4.08792E+00 -9.79572E+00  4.72738E-01
  -5.03928E-01 -1.71092E+01 -1.24132E+01 -1.52199E+01 -3.02775E+00 -1.72799E+01 -5.78522E+00 -2.38409E+01 -3.25941E+01 -9.08230E+00
  -3.50639E+01 -1.16376E+01 -1.75680E+01 -2.82359E+01 -9.58320E+00 -5.32520E+00 -1.43948E+01 -2.69138E+01 -1.96107E+01 -1.35733E+01
  -4.22341E+00 -2.09546E+01 -2.23417E+01 -8.99392E+00  1.14036E+00 -8.04269E-02 -1.24426E+01 -9.41245E+00 -1.06022E+01 -2.25924E+00
   3.81778E+00 -1.05046E+01 -3.26897E+01 -3.38035E+01 -4.48540E+01 -5.79311E+01 -4.68484E+01 -3.92765E+01 -4.25234E+01 -4.54069E+01
  -4.16488E+01 -3.60794E+01 -3.50668E+01 -3.47107E+01 -1.82132E+01 -2.67127E+01 -2.10031E+01 -3.03722E+01 -3.95285E+01 -1.87843E+01
  -2.99801E+01 -9.64280E+00 -1.17121E+01 -1.93382E+01 -1.81245E+01 -2.26719E+01 -2.05982E+01 -2.04799E+01 -2.18529E+01 -4.57234E+01
  -3.88255E+01 -4.71350E+01 -3.78344E+01 -1.64252E+01 -2.32500E+01 -3.90253E+01 -2.71298E+01  4.53798E+00 -8.54271E+00  4.89118E+00
   6.26185E+00  3.72300E+00 -8.27588E-01  8.72533E-01  1.88757E+01  1.65764E+01  2.24465E+01  1.23338E+01  1.83635E+01  2.45863E+01
   4.96876E+01  6.01330E+01  6.86549E+01  7.24988E+01  4.89380E+01  8.09538E+01  8.43692E+01  8.75687E+01  9.49158E+01  8.82578E+01
   8.56664E+01  7.65951E+01  7.98697E+01  6.41084E+01  5.37657E+01  4.18659E+01  3.92788E+01  3.12433E+01  1.19466E+01  1.35514E+01
   8.02031E+00 -1.62459E+00 -3.84789E+00 -1.52807E+01 -1.57643E+01 -2.13784E+01 -4.92410E+01 -3.50065E+01 -4.37240E+01 -5.35827E+01
  -3.31241E+01 -4.29035E+01 -3.89567E+01 -4.36179E+01 -5.25832E+01 -5.90498E+01 -4.69473E+01 -3.45240E+01 -5.55354E+01 -4.12209E+01
  -3.92034E+01 -5.45296E+01 -3.72407E+01 -3.79456E+01 -5.67317E+01 -5.21906E+01 -3.44314E+01 -3.74792E+01 -4.78030E+01 -4.06263E+01
  -3.50794E+01 -4.76252E+01 -5.44722E+01 -3.76170E+01 -3.19104E+01 -4.33203E+01 -4.22509E+01 -3.50058E+01 -3.74437E+01 -4.85116E+01
  -4.45318E+01 -3.62158E+01 -4.00241E+01 -4.16931E+01 -4.30948E+01 -4.22727E+01 -4.24403E+01 -3.67164E+01 -3.88797E+01 -4.68563E+01
  -4.86265E+01 -5.47131E+01 -3.99802E+01 -4.32148E+01 -4.63172E+01 -4.02543E+01 -5.34886E+01 -4.32440E+01 -4.61795E+01 -4.02572E+01
  -3.32471E+01 -3.24031E+01 -2.85725E+01 -3.92776E+01 -2.89125E+01 -3.38710E+01 -2.59823E+01 -3.48652E+01 -3.60963E+01 -1.75090E+01
  -4.93094E+01 -3.85536E+01 -1.81218E+01 -3.11326E+01 -3.89013E+01 -4.05303E+01 -3.56809E+01 -3.44432E+01 -4.72614E+01 -3.89382E+01
 NY points of the fit to the data follow
  -5.30720E+01 -5.38555E+01 -5.40756E+01 -5.36898E+01 -5.28104E+01 -5.16313E+01 -5.03492E+01 -4.90937E+01 -4.79804E+01 -4.71003E+01
  -4.65180E+01 -4.62074E+01 -4.61619E+01 -4.64281E+01 -4.71942E+01 -4.86839E+01 -5.08373E+01 -5.32239E+01 -5.53625E+01 -5.68169E+01
  -5.71586E+01 -5.60922E+01 -5.35224E+01 -4.96000E+01 -4.45922E+01 -3.88713E+01 -3.28993E+01 -2.72148E+01 -2.23732E+01 -1.87137E+01
  -1.63166E+01 -1.52038E+01 -1.55573E+01 -1.77123E+01 -2.18723E+01 -2.75756E+01 -3.43973E+01 -4.20187E+01 -4.99447E+01 -5.75259E+01
  -6.40341E+01 -6.87838E+01 -7.12440E+01 -7.10986E+01 -6.83276E+01 -6.32721E+01 -5.65714E+01 -4.90062E+01 -4.13772E+01 -3.44489E+01
  -2.89569E+01 -2.55491E+01 -2.45951E+01 -2.58202E+01 -2.87637E+01 -3.29150E+01 -3.75489E+01 -4.18857E+01 -4.51399E+01 -4.68696E+01
  -4.69009E+01 -4.54928E+01 -4.32557E+01 -4.09397E+01 -3.92390E+01 -3.86729E+01 -3.94419E+01 -4.13522E+01 -4.38234E+01 -4.62211E+01
  -4.80265E+01 -4.85207E+01 -4.72880E+01 -4.45062E+01 -4.03998E+01 -3.54326E+01 -3.02375E+01 -2.53760E+01 -2.13513E+01 -1.86573E+01
  -1.76742E+01 -1.82231E+01 -1.96177E+01 -2.13623E+01 -2.29948E+01 -2.39237E+01 -2.37505E+01 -2.23283E+01 -1.97042E+01 -1.60741E+01
  -1.16848E+01 -6.82624E+00 -1.82145E+00  2.98018E+00  7.29179E+00  1.07232E+01  1.30531E+01  1.40682E+01  1.36642E+01  1.17428E+01
   8.24274E+00  3.17645E+00 -3.45781E+00 -1.17471E+01 -2.17562E+01 -3.33547E+01 -4.61112E+01 -5.92895E+01 -7.19724E+01 -8.32521E+01
  -9.24218E+01 -9.90017E+01 -1.02643E+02 -1.03333E+02 -1.01266E+02 -9.69403E+01 -9.10885E+01 -8.43767E+01 -7.68702E+01 -6.86258E+01
  -5.99416E+01 -5.15706E+01 -4.33918E+01 -3.51799E+01 -2.68733E+01 -1.86842E+01 -1.12087E+01 -5.31445E+00 -1.89442E+00 -1.62451E+00
  -4.77456E+00 -1.11454E+01 -2.01197E+01 -3.08335E+01 -4.23797E+01 -5.38863E+01 -6.45225E+01 -7.36277E+01 -8.09463E+01 -8.66511E+01
  -9.10264E+01 -9.41035E+01 -9.57198E+01 -9.59768E+01 -9.58576E+01 -9.56089E+01 -9.51238E+01 -9.43707E+01 -9.33397E+01 -9.20404E+01
  -9.05142E+01 -8.88290E+01 -8.70356E+01 -8.52022E+01 -8.33932E+01 -8.16338E+01 -7.99678E+01 -7.83955E+01 -7.69013E+01 -7.54526E+01
  -7.40056E+01 -7.25256E+01 -7.09903E+01 -6.94027E+01 -6.77673E+01 -6.60561E+01 -6.42302E+01 -6.22824E+01 -6.02707E+01 -5.83213E+01
  -5.65775E+01 -5.51516E+01 -5.41050E+01 -5.34816E+01 -5.33557E+01 -5.38210E+01 -5.49098E+01 -5.65369E+01 -5.85445E+01 -6.08378E+01
  -6.33696E+01 -6.60390E+01 -6.86202E+01 -7.08000E+01 -7.23505E+01 -7.32329E+01 -7.34766E+01 -7.30657E+01 -7.19631E+01 -7.01756E+01
  -6.78593E+01 -6.52649E+01 -6.25770E+01 -5.99526E+01 -5.75406E+01 -5.54404E+01 -5.36903E+01 -5.22771E+01 -5.11951E+01 -5.04652E+01
  -5.00977E+01 -5.01208E+01 -5.05729E+01 -5.15433E+01 -5.31846E+01 -5.54419E+01 -5.81537E+01 -6.11562E+01 -6.41669E+01 -6.67258E+01
  -6.82386E+01 -6.82608E+01 -6.65553E+01 -6.31032E+01 -5.81156E+01 -5.20204E+01 -4.54331E+01 -3.89720E+01 -3.31515E+01 -2.83906E+01
  -2.49670E+01 -2.29937E+01 -2.24989E+01 -2.34763E+01 -2.59388E+01 -2.98201E+01 -3.50707E+01 -4.15612E+01 -4.89489E+01 -5.71025E+01
  -6.55592E+01 -7.39741E+01 -8.19713E+01 -8.91031E+01 -9.49848E+01 -9.92981E+01 -1.01913E+02 -1.02836E+02 -1.02211E+02 -1.00301E+02
  -9.74415E+01 -9.40385E+01 -9.05643E+01 -8.74721E+01 -8.51357E+01 -8.38235E+01 -8.37268E+01 -8.46201E+01 -8.58511E+01 -8.67394E+01
  -8.64214E+01 -8.41995E+01 -7.95057E+01 -7.19634E+01 -6.14823E+01 -4.84006E+01 -3.33398E+01 -1.73357E+01 -1.59818E+00  1.28373E+01
   2.52960E+01  3.53717E+01  4.26488E+01  4.66858E+01  4.76615E+01  4.66316E+01  4.46183E+01  4.17389E+01  3.80385E+01  3.41602E+01
   3.09879E+01  2.86225E+01  2.70137E+01  2.60539E+01  2.56093E+01  2.55309E+01  2.56661E+01  2.58591E+01  2.59690E+01  2.58801E+01
   2.55113E+01  2.48068E+01  2.37614E+01  2.23670E+01  2.06532E+01  1.86468E+01  1.63668E+01  1.38487E+01  1.11197E+01  8.23910E+00
   5.28720E+00  2.36510E+00 -4.09915E-01 -2.91599E+00 -5.03193E+00 -6.65780E+00 -7.72984E+00 -8.22085E+00 -8.13340E+00 -7.50979E+00
  -6.41560E+00 -4.93763E+00 -3.16483E+00 -1.17173E+00  9.68038E-01  3.18663E+00  5.42582E+00  7.64355E+00  9.80760E+00  1.18914E+01
   1.38608E+01  1.56738E+01  1.72818E+01  1.86360E+01  1.96829E+01  2.03744E+01  2.06644E+01  2.05084E+01  1.98666E+01  1.87096E+01
   1.70129E+01  1.47406E+01  1.18512E+01  8.30910E+00  4.10197E+00 -7.39998E-01 -6.13226E+00 -1.19266E+01 -1.79096E+01 -2.38218E+01
  -2.93898E+01 -3.43429E+01 -3.84493E+01 -4.15595E+01 -4.36170E+01 -4.46354E+01 -4.46867E+01 -4.38766E+01 -4.23497E+01 -4.02696E+01
  -3.77981E+01 -3.50859E+01 -3.22769E+01 -2.95101E+01 -2.69168E+01 -2.46217E+01 -2.27317E+01 -2.13397E+01 -2.05130E+01 -2.02944E+01
  -2.06838E+01 -2.16341E+01 -2.30473E+01 -2.47672E+01 -2.66025E+01 -2.83500E+01 -2.98074E+01 -3.08158E+01 -3.12637E+01 -3.10924E+01
  -3.02915E+01 -2.88951E+01 -2.69744E+01 -2.46151E+01 -2.19161E+01 -1.89804E+01 -1.58945E+01 -1.27175E+01 -9.48157E+00 -6.19199E+00
  -2.83179E+00  6.32839E-01  4.24832E+00  8.07172E+00  1.21608E+01  1.65724E+01  2.13459E+01  2.65068E+01  3.20466E+01  3.79138E+01
   4.40020E+01  5.01329E+01  5.60527E+01  6.14454E+01  6.59728E+01  6.93181E+01  7.12285E+01  7.15574E+01  7.02710E+01  6.74556E+01
   6.32873E+01  5.79913E+01  5.18015E+01  4.49499E+01  3.76471E+01  3.00743E+01  2.23902E+01  1.47482E+01  7.29274E+00  1.56436E-01
  -6.55888E+00 -1.27641E+01 -1.83899E+01 -2.33807E+01 -2.77130E+01 -3.13895E+01 -3.44279E+01 -3.68752E+01 -3.88005E+01 -4.02851E+01
  -4.14035E+01 -4.22363E+01 -4.28493E+01 -4.32872E+01 -4.35842E+01 -4.37759E+01 -4.38850E+01 -4.39293E+01 -4.39175E+01 -4.38635E+01
  -4.37786E+01 -4.36747E+01 -4.35565E+01 -4.34218E+01 -4.32717E+01 -4.31094E+01 -4.29397E+01 -4.27596E+01 -4.25726E+01 -4.23877E+01
  -4.22121E+01 -4.20394E+01 -4.18600E+01 -4.16778E+01 -4.14905E+01 -4.12939E+01 -4.10837E+01 -4.08635E+01 -4.06415E+01 -4.04257E+01
  -4.02194E+01 -4.00224E+01 -3.98376E+01 -3.96638E+01 -3.95000E+01 -3.93445E+01 -3.91965E+01 -3.90484E+01 -3.88970E+01 -3.87384E+01
  -3.85681E+01 -3.83882E+01 -3.81984E+01 -3.79985E+01 -3.77882E+01 -3.75737E+01 -3.73623E+01 -3.71638E+01 -3.69817E+01 -3.68169E+01
  -3.66700E+01 -3.65325E+01 -3.63966E+01 -3.62601E+01 -3.61172E+01 -3.59658E+01 -3.58098E+01 -3.56574E+01 -3.55142E+01 -3.53906E+01
  -3.52868E+01 -3.52051E+01 -3.51424E+01 -3.51011E+01 -3.50738E+01 -3.50526E+01 -3.50271E+01 -3.49852E+01 -3.49113E+01 -3.47840E+01
 NY background values follow
    -2.030E+01   -2.053E+01   -2.075E+01   -2.097E+01   -2.119E+01   -2.141E+01   -2.164E+01   -2.186E+01   -2.208E+01   -2.230E+01
    -2.253E+01   -2.275E+01   -2.297E+01   -2.319E+01   -2.340E+01   -2.362E+01   -2.384E+01   -2.405E+01   -2.427E+01   -2.448E+01
    -2.469E+01   -2.490E+01   -2.511E+01   -2.531E+01   -2.551E+01   -2.572E+01   -2.591E+01   -2.611E+01   -2.630E+01   -2.649E+01
    -2.668E+01   -2.687E+01   -2.705E+01   -2.723E+01   -2.740E+01   -2.758E+01   -2.775E+01   -2.791E+01   -2.808E+01   -2.824E+01
    -2.840E+01   -2.855E+01   -2.870E+01   -2.885E+01   -2.900E+01   -2.914E+01   -2.928E+01   -2.941E+01   -2.954E+01   -2.967E+01
    -2.980E+01   -2.992E+01   -3.003E+01   -3.015E+01   -3.026E+01   -3.037E+01   -3.047E+01   -3.057E+01   -3.067E+01   -3.076E+01
    -3.085E+01   -3.094E+01   -3.102E+01   -3.110E+01   -3.117E+01   -3.125E+01   -3.131E+01   -3.138E+01   -3.144E+01   -3.150E+01
    -3.156E+01   -3.161E+01   -3.166E+01   -3.171E+01   -3.175E+01   -3.179E+01   -3.183E+01   -3.187E+01   -3.190E+01   -3.193E+01
    -3.196E+01   -3.199E+01   -3.201E+01   -3.204E+01   -3.206E+01   -3.207E+01   -3.209E+01   -3.210E+01   -3.212E+01   -3.213E+01
    -3.213E+01   -3.214E+01   -3.215E+01   -3.215E+01   -3.215E+01   -3.215E+01   -3.215E+01   -3.215E+01   -3.215E+01   -3.214E+01
    -3.214E+01   -3.213E+01   -3.212E+01   -3.211E+01   -3.210E+01   -3.209E+01   -3.208E+01   -3.206E+01   -3.205E+01   -3.203E+01
    -3.202E+01   -3.200E+01   -3.198E+01   -3.196E+01   -3.194E+01   -3.192E+01   -3.190E+01   -3.188E+01   -3.186E+01   -3.184E+01
    -3.182E+01   -3.180E+01   -3.178E+01   -3.175E+01   -3.173E+01   -3.171E+01   -3.169E+01   -3.166E+01   -3.164E+01   -3.161E+01
    -3.159E+01   -3.157E+01   -3.154E+01   -3.152E+01   -3.150E+01   -3.147E+01   -3.145E+01   -3.143E+01   -3.140E+01   -3.138E+01
    -3.136E+01   -3.133E+01   -3.131E+01   -3.129E+01   -3.126E+01   -3.124E+01   -3.122E+01   -3.120E+01   -3.118E+01   -3.116E+01
    -3.114E+01   -3.112E+01   -3.110E+01   -3.108E+01   -3.106E+01   -3.104E+01   -3.102E+01   -3.101E+01   -3.099E+01   -3.098E+01
    -3.096E+01   -3.095E+01   -3.093E+01   -3.092E+01   -3.091E+01   -3.090E+01   -3.089E+01   -3.088E+01   -3.087E+01   -3.086E+01
    -3.086E+01   -3.085E+01   -3.085E+01   -3.084E+01   -3.084E+01   -3.084E+01   -3.084E+01   -3.084E+01   -3.084E+01   -3.084E+01
    -3.085E+01   -3.086E+01   -3.086E+01   -3.087E+01   -3.088E+01   -3.089E+01   -3.090E+01   -3.092E+01   -3.093E+01   -3.095E+01
    -3.096E+01   -3.098E+01   -3.100E+01   -3.102E+01   -3.104E+01   -3.106E+01   -3.109E+01   -3.111E+01   -3.114E+01   -3.116E+01
    -3.119E+01   -3.122E+01   -3.125E+01   -3.128E+01   -3.131E+01   -3.134E+01   -3.138E+01   -3.141E+01   -3.145E+01   -3.148E+01
    -3.152E+01   -3.156E+01   -3.159E+01   -3.163E+01   -3.167E+01   -3.171E+01   -3.176E+01   -3.180E+01   -3.184E+01   -3.189E+01
    -3.194E+01   -3.198E+01   -3.203E+01   -3.208E+01   -3.213E+01   -3.219E+01   -3.224E+01   -3.230E+01   -3.235E+01   -3.241E+01
    -3.247E+01   -3.253E+01   -3.259E+01   -3.266E+01   -3.272E+01   -3.279E+01   -3.286E+01   -3.293E+01   -3.300E+01   -3.307E+01
    -3.315E+01   -3.323E+01   -3.331E+01   -3.339E+01   -3.347E+01   -3.355E+01   -3.364E+01   -3.372E+01   -3.381E+01   -3.390E+01
    -3.399E+01   -3.409E+01   -3.418E+01   -3.428E+01   -3.437E+01   -3.447E+01   -3.457E+01   -3.468E+01   -3.478E+01   -3.488E+01
    -3.499E+01   -3.510E+01   -3.521E+01   -3.532E+01   -3.543E+01   -3.554E+01   -3.565E+01   -3.577E+01   -3.589E+01   -3.600E+01
    -3.612E+01   -3.624E+01   -3.636E+01   -3.648E+01   -3.661E+01   -3.673E+01   -3.685E+01   -3.698E+01   -3.710E+01   -3.722E+01
    -3.734E+01   -3.746E+01   -3.758E+01   -3.770E+01   -3.782E+01   -3.794E+01   -3.805E+01   -3.817E+01   -3.828E+01   -3.839E+01
    -3.850E+01   -3.860E+01   -3.871E+01   -3.881E+01   -3.890E+01   -3.900E+01   -3.909E+01   -3.917E+01   -3.926E+01   -3.934E+01
    -3.941E+01   -3.948E+01   -3.955E+01   -3.962E+01   -3.968E+01   -3.973E+01   -3.978E+01   -3.983E+01   -3.987E+01   -3.991E+01
    -3.994E+01   -3.997E+01   -4.000E+01   -4.001E+01   -4.003E+01   -4.004E+01   -4.005E+01   -4.005E+01   -4.004E+01   -4.004E+01
    -4.002E+01   -4.000E+01   -3.998E+01   -3.995E+01   -3.992E+01   -3.988E+01   -3.984E+01   -3.979E+01   -3.973E+01   -3.967E+01
    -3.961E+01   -3.954E+01   -3.946E+01   -3.938E+01   -3.930E+01   -3.921E+01   -3.911E+01   -3.902E+01   -3.891E+01   -3.881E+01
    -3.870E+01   -3.858E+01   -3.846E+01   -3.834E+01   -3.822E+01   -3.809E+01   -3.796E+01   -3.782E+01   -3.769E+01   -3.755E+01
    -3.741E+01   -3.726E+01   -3.712E+01   -3.697E+01   -3.682E+01   -3.667E+01   -3.651E+01   -3.636E+01   -3.620E+01   -3.605E+01
    -3.589E+01   -3.573E+01   -3.557E+01   -3.541E+01   -3.525E+01   -3.509E+01   -3.493E+01   -3.477E+01   -3.461E+01   -3.445E+01
    -3.429E+01   -3.413E+01   -3.397E+01   -3.381E+01   -3.365E+01   -3.349E+01   -3.333E+01   -3.318E+01   -3.302E+01   -3.287E+01
    -3.272E+01   -3.257E+01   -3.242E+01   -3.227E+01   -3.213E+01   -3.199E+01   -3.185E+01   -3.171E+01   -3.157E+01   -3.144E+01
    -3.131E+01   -3.118E+01   -3.105E+01   -3.093E+01   -3.081E+01   -3.069E+01   -3.058E+01   -3.046E+01   -3.035E+01   -3.025E+01
    -3.014E+01   -3.004E+01   -2.993E+01   -2.983E+01   -2.974E+01   -2.964E+01   -2.955E+01   -2.946E+01   -2.937E+01   -2.928E+01
    -2.920E+01   -2.911E+01   -2.903E+01   -2.895E+01   -2.888E+01   -2.880E+01   -2.873E+01   -2.865E+01   -2.858E+01   -2.851E+01
    -2.844E+01   -2.838E+01   -2.831E+01   -2.825E+01   -2.819E+01   -2.813E+01   -2.807E+01   -2.801E+01   -2.795E+01   -2.790E+01
    -2.784E+01   -2.779E+01   -2.773E+01   -2.768E+01   -2.763E+01   -2.758E+01   -2.753E+01   -2.748E+01   -2.743E+01   -2.738E+01
    -2.734E+01   -2.729E+01   -2.724E+01   -2.720E+01   -2.715E+01   -2.711E+01   -2.706E+01   -2.702E+01   -2.697E+01   -2.693E+01
    -2.688E+01   -2.684E+01   -2.680E+01   -2.675E+01   -2.671E+01   -2.666E+01   -2.662E+01   -2.657E+01   -2.653E+01   -2.649E+01
    -2.644E+01   -2.640E+01   -2.635E+01   -2.631E+01   -2.627E+01   -2.622E+01   -2.618E+01   -2.614E+01   -2.609E+01   -2.605E+01
    -2.600E+01   -2.596E+01   -2.592E+01   -2.587E+01   -2.583E+01   -2.579E+01   -2.575E+01   -2.570E+01   -2.566E+01   -2.562E+01
 Mac      Conc. = 2.82E-04
  -3.91647E+01 -3.99655E+01 -4.08274E+01 -4.17653E+01 -4.27891E+01 -4.38895E+01 -4.50556E+01 -4.62683E+01 -4.75007E+01 -4.87259E+01
  -4.99218E+01 -5.10583E+01 -5.20794E+01 -5.29126E+01 -5.34749E+01 -5.36866E+01 -5.34870E+01 -5.28549E+01 -5.18105E+01 -5.04083E+01
  -4.87275E+01 -4.68602E+01 -4.49009E+01 -4.29263E+01 -4.09884E+01 -3.91165E+01 -3.73464E+01 -3.57207E+01 -3.42692E+01 -3.29894E+01
  -3.18558E+01 -3.08638E+01 -2.99913E+01 -2.91930E+01 -2.84335E+01 -2.76950E+01 -2.69703E+01 -2.62544E+01 -2.55443E+01 -2.48363E+01
  -2.41309E+01 -2.34468E+01 -2.28172E+01 -2.22742E+01 -2.18459E+01 -2.15613E+01 -2.14533E+01 -2.15464E+01 -2.18377E+01 -2.22897E+01
  -2.28431E+01 -2.34379E+01 -2.40227E+01 -2.45442E+01 -2.49476E+01 -2.51881E+01 -2.52378E+01 -2.51025E+01 -2.48153E+01 -2.44296E+01
  -2.40085E+01 -2.36139E+01 -2.32974E+01 -2.30838E+01 -2.29705E+01 -2.29259E+01 -2.28985E+01 -2.28306E+01 -2.26640E+01 -2.23576E+01
  -2.19053E+01 -2.13384E+01 -2.06977E+01 -2.00325E+01 -1.94055E+01 -1.88743E+01 -1.84795E+01 -1.82334E+01 -1.81119E+01 -1.80797E+01
  -1.80988E+01 -1.81329E+01 -1.81326E+01 -1.80516E+01 -1.78691E+01 -1.75857E+01 -1.72137E+01 -1.67841E+01 -1.63366E+01 -1.59270E+01
  -1.56114E+01 -1.54443E+01 -1.54801E+01 -1.57642E+01 -1.63245E+01 -1.71680E+01 -1.82916E+01 -1.96948E+01 -2.13737E+01 -2.33366E+01
  -2.56026E+01 -2.81945E+01 -3.11137E+01 -3.43274E+01 -3.77502E+01 -4.12464E+01 -4.46409E+01 -4.77535E+01 -5.04130E+01 -5.24858E+01
