 LCModel (Version 6.3-1N) Copyright: S.W. Provencher.          Ref.: Magn. Reson. Med. 30:672-679 (1993).                
 Slice_N1@18_9  28-Feb-2025 11:42:19
 27 lines in following concentration table = NCONC+1
    Conc.  %SD /Cr+PCr  Metabolite                                         
 2.80E-04   5% 3.0E-04 Mac                                                 
    3.198  62%   3.412 Cr                                                  
    4.301  45%   4.588 PCr                                                 
    4.699  21%   5.013 Ins                                                 
    9.321  12%   9.944 NAA                                                 
    6.411  17%   6.840 Tau                                                 
    1.501  26%   1.602 PCho                                                
    0.000 999%   0.000 GPC                                                 
   11.565  10%  12.338 Glu                                                 
    4.127  21%   4.403 Gln                                                 
    0.000 999%   0.000 Ala                                                 
    1.629  82%   1.738 Asc                                                 
    2.663  40%   2.841 Asp                                                 
    0.278 202%   0.297 GABA                                                
    0.468 151%   0.499 Glc                                                 
    1.096  50%   1.169 GSH                                                 
    3.490  21%   3.724 Lac                                                 
    3.728  23%   3.978 NAAG                                                
    0.193 748%   0.206 PE                                                  
    1.501  26%   1.602 GPC+PCho                                            
   13.049   7%  13.921 NAA+NAAG                                            
   15.692   9%  16.741 Glu+Gln                                             
    7.499  11%   8.000 Cr+PCr                                              
   13.049   7%  13.921 NAA+NAAG                                            
    7.499  11%   8.000 Cr+PCr                                              
   15.692   9%  16.741 Glu+Gln                                             
   6 lines in following misc. output table
  FWHM = 0.057 ppm    S/N =   4                                            
  Data shift =-0.016 ppm                                                   
  Ph:-166 deg       0.0 deg/ppm                                            
  alphaB,S = 1.1E-01,   2.4E+01                                            
   19 spline knots.   Ns = 8(1)                                            
  ( 4) 3 infls.   ( 2) 2 extrs.                                            
  480 points on ppm-axis = NY
      4.100000     4.091866     4.083733     4.075600     4.067466     4.059333     4.051199     4.043066     4.034933     4.026799
      4.018666     4.010532     4.002399     3.994265     3.986132     3.977998     3.969864     3.961731     3.953597     3.945463
      3.937330     3.929196     3.921062     3.912929     3.904795     3.896662     3.888528     3.880394     3.872261     3.864127
      3.855993     3.847860     3.839726     3.831592     3.823459     3.815325     3.807191     3.799058     3.790924     3.782790
      3.774657     3.766523     3.758389     3.750256     3.742122     3.733989     3.725855     3.717721     3.709588     3.701454
      3.693320     3.685187     3.677053     3.668919     3.660786     3.652652     3.644518     3.636385     3.628251     3.620117
      3.611984     3.603850     3.595716     3.587583     3.579449     3.571316     3.563182     3.555048     3.546915     3.538781
      3.530647     3.522514     3.514380     3.506246     3.498113     3.489979     3.481845     3.473712     3.465578     3.457444
      3.449311     3.441177     3.433043     3.424910     3.416776     3.408643     3.400509     3.392375     3.384242     3.376108
      3.367974     3.359841     3.351707     3.343573     3.335440     3.327306     3.319172     3.311039     3.302905     3.294771
      3.286638     3.278504     3.270370     3.262237     3.254103     3.245970     3.237836     3.229702     3.221569     3.213435
      3.205301     3.197168     3.189034     3.180900     3.172767     3.164633     3.156499     3.148366     3.140232     3.132098
      3.123965     3.115831     3.107697     3.099564     3.091430     3.083297     3.075163     3.067029     3.058896     3.050762
      3.042628     3.034495     3.026361     3.018227     3.010094     3.001960     2.993826     2.985693     2.977559     2.969425
      2.961292     2.953158     2.945024     2.936891     2.928757     2.920624     2.912490     2.904356     2.896223     2.888089
      2.879955     2.871822     2.863688     2.855554     2.847421     2.839287     2.831153     2.823020     2.814886     2.806752
      2.798619     2.790485     2.782351     2.774218     2.766084     2.757951     2.749817     2.741683     2.733550     2.725416
      2.717282     2.709149     2.701015     2.692881     2.684748     2.676614     2.668480     2.660347     2.652213     2.644079
      2.635946     2.627812     2.619678     2.611545     2.603411     2.595278     2.587144     2.579010     2.570877     2.562743
      2.554609     2.546476     2.538342     2.530208     2.522075     2.513941     2.505807     2.497674     2.489540     2.481406
      2.473273     2.465139     2.457006     2.448872     2.440738     2.432605     2.424471     2.416337     2.408204     2.400070
      2.391936     2.383803     2.375669     2.367535     2.359402     2.351268     2.343134     2.335001     2.326867     2.318733
      2.310600     2.302466     2.294333     2.286199     2.278065     2.269932     2.261798     2.253664     2.245531     2.237397
      2.229263     2.221130     2.212996     2.204862     2.196729     2.188595     2.180461     2.172328     2.164194     2.156060
      2.147927     2.139793     2.131660     2.123526     2.115392     2.107259     2.099125     2.090991     2.082858     2.074724
      2.066590     2.058457     2.050323     2.042189     2.034056     2.025922     2.017788     2.009655     2.001521     1.993387
      1.985254     1.977120     1.968987     1.960853     1.952719     1.944586     1.936452     1.928318     1.920185     1.912051
      1.903917     1.895784     1.887650     1.879516     1.871383     1.863249     1.855115     1.846982     1.838848     1.830714
      1.822581     1.814447     1.806314     1.798180     1.790046     1.781913     1.773779     1.765645     1.757512     1.749378
      1.741244     1.733111     1.724977     1.716843     1.708710     1.700576     1.692442     1.684309     1.676175     1.668041
      1.659908     1.651774     1.643641     1.635507     1.627373     1.619240     1.611106     1.602972     1.594839     1.586705
      1.578571     1.570438     1.562304     1.554170     1.546037     1.537903     1.529769     1.521636     1.513502     1.505368
      1.497235     1.489101     1.480968     1.472834     1.464700     1.456567     1.448433     1.440299     1.432166     1.424032
      1.415898     1.407765     1.399631     1.391497     1.383364     1.375230     1.367096     1.358963     1.350829     1.342695
      1.334562     1.326428     1.318295     1.310161     1.302027     1.293894     1.285760     1.277626     1.269493     1.261359
      1.253225     1.245092     1.236958     1.228824     1.220691     1.212557     1.204423     1.196290     1.188156     1.180022
      1.171889     1.163755     1.155622     1.147488     1.139354     1.131221     1.123087     1.114953     1.106820     1.098686
      1.090552     1.082419     1.074285     1.066151     1.058018     1.049884     1.041750     1.033617     1.025483     1.017349
      1.009216     1.001082     0.992949     0.984815     0.976681     0.968548     0.960414     0.952280     0.944147     0.936013
      0.927879     0.919746     0.911612     0.903478     0.895345     0.887211     0.879077     0.870944     0.862810     0.854676
      0.846543     0.838409     0.830276     0.822142     0.814008     0.805875     0.797741     0.789607     0.781474     0.773340
      0.765206     0.757073     0.748939     0.740805     0.732672     0.724538     0.716404     0.708271     0.700137     0.692003
      0.683870     0.675736     0.667603     0.659469     0.651335     0.643202     0.635068     0.626934     0.618801     0.610667
      0.602533     0.594400     0.586266     0.578132     0.569999     0.561865     0.553731     0.545598     0.537464     0.529330
      0.521197     0.513063     0.504930     0.496796     0.488662     0.480529     0.472395     0.464261     0.456128     0.447994
      0.439861     0.431727     0.423593     0.415460     0.407326     0.399192     0.391059     0.382925     0.374792     0.366658
      0.358524     0.350391     0.342257     0.334124     0.325990     0.317856     0.309723     0.301589     0.293455     0.285322
      0.277188     0.269055     0.260921     0.252787     0.244654     0.236520     0.228386     0.220253     0.212119     0.203986
 NY phased data points follow
  -5.04701E+01 -4.14609E+01 -4.84635E+01 -5.83362E+01 -6.56526E+01 -6.35500E+01 -6.03010E+01 -4.98375E+01 -5.75486E+01 -6.34888E+01
  -5.61492E+01 -6.75247E+01 -6.96441E+01 -7.60434E+01 -8.55012E+01 -8.44487E+01 -9.16964E+01 -9.83599E+01 -1.00703E+02 -1.15464E+02
  -1.19105E+02 -1.02534E+02 -9.86711E+01 -9.57006E+01 -8.90246E+01 -7.09057E+01 -5.42541E+01 -5.76787E+01 -4.73755E+01 -3.74840E+01
  -3.31665E+01 -2.36575E+01 -2.99142E+01 -3.22936E+01 -3.61939E+01 -4.25896E+01 -3.29769E+01 -5.23514E+01 -5.33843E+01 -5.13480E+01
  -8.95886E+01 -9.16616E+01 -9.79913E+01 -8.89819E+01 -7.12527E+01 -7.55675E+01 -6.67716E+01 -4.22279E+01 -4.53303E+00 -1.39594E+01
   5.46391E+00  1.66345E+00 -2.28025E+01  2.39021E+00 -8.97712E+00  6.05183E+00 -1.65187E+01 -3.22873E+01 -9.55379E+00 -2.68951E+01
  -2.82498E+01 -2.16884E+01 -9.49107E+00 -2.48573E+01 -1.53555E+01  5.47587E+00 -6.91577E+00 -3.29247E+00 -1.11266E+01 -3.08918E+01
  -2.47379E+01 -2.12726E+01 -3.92514E+01 -2.97905E+01 -2.67079E+01 -4.96190E+00  1.04339E+01 -3.80662E+00 -4.35488E+00 -5.15149E+00
   1.05213E+01  1.02403E+01  2.01465E+01  5.84491E+00 -1.83956E+01 -2.14810E+01 -3.01062E+01 -2.09217E+01 -2.15667E+01 -1.00032E+01
  -1.86875E+00  5.58500E+00  1.06758E+01  2.69249E+01  3.79980E+01  3.99132E+01  6.43756E+01  5.52841E+01  5.35658E+01  5.34140E+01
   5.22062E+01  4.72753E+01  2.79812E+01  1.82020E+01  1.22459E+01  2.40736E+00 -1.89412E+01 -2.83621E+01 -5.12266E+01 -6.28334E+01
  -8.42897E+01 -9.94984E+01 -9.88404E+01 -1.08455E+02 -9.26410E+01 -1.09200E+02 -9.38779E+01 -6.49494E+01 -7.41212E+01 -5.15765E+01
  -3.41776E+01 -2.62004E+01 -1.57981E+01 -1.35430E+01  1.99203E+00  4.49792E+00  1.29134E+01  3.19730E+01  1.60220E+01  4.37607E+01
   5.56667E+01  4.27702E+01  4.90494E+01  7.53041E+00 -1.79728E+01 -4.43637E+01 -6.39309E+01 -8.67181E+01 -1.08731E+02 -1.00095E+02
  -1.11504E+02 -1.01759E+02 -9.52525E+01 -9.83513E+01 -9.50014E+01 -8.90099E+01 -9.51114E+01 -9.99487E+01 -7.74235E+01 -8.08482E+01
  -8.50851E+01 -7.31362E+01 -6.99092E+01 -7.19369E+01 -6.48136E+01 -5.99360E+01 -6.25069E+01 -5.81364E+01 -4.79936E+01 -4.82171E+01
  -5.15278E+01 -3.90128E+01 -4.70951E+01 -5.41243E+01 -4.94914E+01 -4.35117E+01 -4.36051E+01 -4.64632E+01 -4.96265E+01 -5.01486E+01
  -2.84086E+01 -4.12792E+01 -3.08355E+01 -8.11982E+00 -1.44967E+01 -4.44018E+00 -5.01759E+00 -8.61588E+00 -1.48089E+01 -1.50634E+01
  -3.44229E+01 -5.43842E+01 -5.74538E+01 -6.51661E+01 -7.51305E+01 -8.02805E+01 -6.93456E+01 -7.20230E+01 -6.27955E+01 -6.51786E+01
  -7.20713E+01 -6.64458E+01 -6.37912E+01 -5.30494E+01 -4.65130E+01 -5.12280E+01 -5.66260E+01 -2.05543E+01 -2.12269E+01 -4.07927E+01
  -4.24509E+01 -5.25417E+01 -4.49033E+01 -4.33334E+01 -3.75172E+01 -4.75030E+01 -4.70396E+01 -4.94656E+01 -6.06245E+01 -5.70781E+01
  -7.02853E+01 -6.71199E+01 -5.79198E+01 -6.67523E+01 -6.32600E+01 -4.05945E+01 -2.99461E+01 -5.26521E+00  1.29175E+00 -2.65000E+00
   2.25409E+00 -1.28472E+01 -1.18391E+01 -1.86898E+01 -1.83337E+01 -3.09622E+01 -3.18335E+01 -1.49597E+01 -2.52483E+01 -2.78612E+01
  -2.90564E+01 -2.65044E+01 -4.07676E+01 -4.51212E+01 -4.78130E+01 -6.55665E+01 -8.45803E+01 -1.06913E+02 -1.04242E+02 -1.01849E+02
  -1.06418E+02 -1.06025E+02 -9.72526E+01 -8.57300E+01 -8.50669E+01 -9.09809E+01 -7.93662E+01 -8.19389E+01 -8.66637E+01 -8.54913E+01
  -1.09498E+02 -1.04113E+02 -1.07300E+02 -1.22209E+02 -1.17864E+02 -1.09450E+02 -1.02259E+02 -6.94325E+01 -1.39502E+01  1.46928E+01
   5.56312E+01  8.37248E+01  9.75334E+01  1.17248E+02  1.00386E+02  8.18342E+01  9.22320E+01  7.15333E+01  6.00323E+01  6.77117E+01
   4.00098E+01  5.58131E+01  5.62398E+01  4.98171E+01  5.04882E+01  2.97151E+01  4.50121E+01  3.66132E+01  3.20983E+01  3.94829E+01
   3.67461E+01  3.30961E+01  3.96510E+01  4.18860E+01  2.24806E+01  1.92939E+01  1.71215E+01  2.20108E+01  1.14061E+01  2.94641E+00
   1.46492E+01  5.11012E+00 -7.98465E+00  2.16335E+00 -3.20441E+00 -2.12869E+01 -9.92608E+00 -1.94353E+01 -3.38892E+01 -3.26375E+01
  -2.89465E+01 -3.83687E+01 -3.42852E+01 -1.55213E+01 -3.06392E+01 -2.20677E+01 -9.98964E+00 -7.79258E+00 -1.65904E+01 -6.45314E+00
   1.87181E+01 -1.19193E+00  1.22804E+01  2.67536E+01  3.37275E+01  5.54653E+01  4.26842E+01  3.31113E+01  4.45897E+01  5.81674E+01
   7.43115E+01  7.31954E+01  5.53982E+01  5.25045E+01  4.73372E+01  4.76208E+01  4.03860E+01  3.78876E+01  5.20121E+01  5.94165E+01
   5.73311E+01  3.93198E+01  5.60950E+01  4.91797E+01  3.92629E+01  5.08991E+01  4.46950E+01  4.42074E+01  1.63799E+01  3.09158E+01
   4.36641E+01  4.08378E+01  4.63687E+01  2.29431E+01  2.56912E+01  1.70566E+01  1.39663E+01  3.45248E+01  4.63043E+01  3.54415E+01
   3.68432E+01  4.32520E+01  2.20059E+01  2.92030E+01  3.48734E+01  1.87983E+01  2.07040E+00  9.70465E+00  1.56348E+01  1.45963E+00
  -4.30614E+00 -5.68035E+00  1.09549E+01  1.75298E+01  6.94850E+00  8.36411E+00  1.42631E+01  2.10897E+01  2.97747E+01  1.46816E+01
   2.33010E+01  3.58289E+01  2.74084E+01  3.43526E+01  3.28278E+01  5.09049E+01  3.99147E+01  4.50303E+01  5.78001E+01  4.45136E+01
   6.67859E+01  6.42466E+01  8.12984E+01  8.69360E+01  8.67150E+01  1.13629E+02  1.12324E+02  1.15952E+02  1.19549E+02  1.12993E+02
   1.19108E+02  1.29510E+02  1.02572E+02  1.01124E+02  1.09889E+02  9.14398E+01  9.00566E+01  6.64810E+01  5.10330E+01  5.16358E+01
   4.00579E+01  2.49888E+01  9.13352E+00  8.80196E+00  1.08792E+01  9.61087E-01 -1.22801E+01 -1.16322E+01 -1.02849E+01 -3.38035E+01
  -3.87845E+01 -2.96398E+01 -3.31837E+01 -3.00741E+01 -4.11245E+01 -4.55364E+01 -3.39930E+01 -2.61692E+01 -2.81102E+01 -3.87352E+01
  -3.63519E+01 -2.27881E+01 -3.61818E+01 -3.75387E+01 -1.05100E+01 -2.30873E+01 -2.34089E+01 -2.85056E+01 -3.00090E+01 -1.81396E+01
  -2.38429E+01 -2.36914E+01 -3.47337E+01 -2.39179E+01 -3.05601E+01 -1.85890E+01 -1.44316E+01 -2.82067E+01 -1.87084E+01 -2.94296E+01
  -2.86332E+01 -3.94741E+01 -1.50272E+01 -1.55409E+01 -3.11047E+01 -2.57064E+01 -3.39647E+01 -2.03596E+01 -3.58047E+01 -2.34162E+01
  -1.95036E+01 -3.21269E+01 -3.01084E+01 -3.52581E+01 -2.36729E+01 -2.08896E+01 -1.29949E+01 -1.51291E+01 -2.73015E+01 -1.73911E+01
  -9.00234E+00 -2.96730E+01 -3.58832E+01 -2.39293E+01 -1.53556E+01 -2.40048E+01 -2.85456E+01 -1.82854E+01 -3.00887E+01 -2.97683E+01
  -2.96595E+01 -2.51241E+01 -2.75721E+01 -2.22226E+01 -1.29318E+01 -1.96033E+01 -6.45119E+00 -1.48152E+01 -1.56520E+01 -1.94022E+01
 NY points of the fit to the data follow
  -7.21692E+01 -7.00000E+01 -6.88491E+01 -6.87231E+01 -6.90293E+01 -6.87622E+01 -6.73834E+01 -6.54650E+01 -6.37512E+01 -6.27057E+01
  -6.24442E+01 -6.29019E+01 -6.41734E+01 -6.99128E+01 -7.57566E+01 -7.98207E+01 -8.58404E+01 -9.30502E+01 -9.98135E+01 -1.05705E+02
  -1.09472E+02 -1.08978E+02 -1.03750E+02 -9.45592E+01 -8.17718E+01 -6.70218E+01 -5.30114E+01 -4.16046E+01 -3.33929E+01 -2.75114E+01
  -2.32297E+01 -2.07952E+01 -1.84658E+01 -1.75093E+01 -1.89516E+01 -2.30093E+01 -2.85286E+01 -3.61067E+01 -4.53942E+01 -5.59391E+01
  -6.71842E+01 -7.71005E+01 -8.31402E+01 -8.38798E+01 -7.89679E+01 -6.86141E+01 -5.40493E+01 -3.81917E+01 -2.37643E+01 -1.34236E+01
  -7.09996E+00 -3.06021E+00 -3.11035E+00 -6.25602E+00 -9.79999E+00 -1.49901E+01 -2.12437E+01 -2.66705E+01 -3.07116E+01 -3.33908E+01
  -3.35887E+01 -3.00713E+01 -2.52850E+01 -2.12318E+01 -1.63167E+01 -1.08286E+01 -6.98972E+00 -6.07238E+00 -7.89909E+00 -1.18086E+01
  -1.69460E+01 -2.13510E+01 -2.31265E+01 -2.19251E+01 -1.71734E+01 -8.72673E+00 -2.29864E-01  7.04197E+00  1.12155E+01  1.24359E+01
   1.06377E+01  5.25211E+00 -3.25474E+00 -1.32455E+01 -2.25462E+01 -2.91690E+01 -3.18589E+01 -3.01457E+01 -2.47164E+01 -1.69556E+01
  -8.29705E+00  2.10391E-01  7.15993E+00  1.21519E+01  1.78464E+01  2.35794E+01  2.87540E+01  3.39412E+01  3.72258E+01  3.84691E+01
   3.75984E+01  3.96943E+01  3.99928E+01  3.24251E+01  1.90328E+01  3.91649E+00 -1.08649E+01 -2.52223E+01 -4.07237E+01 -5.83241E+01
  -7.61382E+01 -9.00214E+01 -9.80384E+01 -1.01356E+02 -1.00096E+02 -9.35077E+01 -8.24449E+01 -7.04153E+01 -6.10796E+01 -5.39392E+01
  -4.79316E+01 -4.24207E+01 -3.76432E+01 -3.10674E+01 -1.66477E+01  1.17177E+00  1.55045E+01  2.72657E+01  3.92450E+01  5.09067E+01
   5.85993E+01  5.69525E+01  4.22558E+01  1.70299E+01 -1.18722E+01 -3.97656E+01 -6.40391E+01 -8.18977E+01 -9.09203E+01 -9.14866E+01
  -8.84375E+01 -8.63615E+01 -8.55971E+01 -8.53415E+01 -8.52905E+01 -8.51378E+01 -8.46559E+01 -8.37764E+01 -8.23527E+01 -8.02702E+01
  -7.76758E+01 -7.49762E+01 -7.24324E+01 -7.01376E+01 -6.75849E+01 -6.46030E+01 -6.18422E+01 -5.97950E+01 -5.84034E+01 -5.69882E+01
  -5.50431E+01 -5.31113E+01 -5.22155E+01 -5.29931E+01 -5.40814E+01 -5.32397E+01 -5.08319E+01 -4.92008E+01 -4.90192E+01 -4.80359E+01
  -4.39997E+01 -3.73450E+01 -3.10371E+01 -2.68419E+01 -2.43350E+01 -2.22829E+01 -2.07467E+01 -2.10583E+01 -2.41341E+01 -2.90544E+01
  -3.43912E+01 -3.99913E+01 -4.66359E+01 -5.38614E+01 -5.95501E+01 -6.33440E+01 -6.67605E+01 -6.82576E+01 -6.79733E+01 -6.74583E+01
  -6.60805E+01 -6.39420E+01 -6.03441E+01 -5.59967E+01 -5.20546E+01 -4.82423E+01 -4.48726E+01 -4.18757E+01 -3.92171E+01 -3.75031E+01
  -3.65749E+01 -3.58976E+01 -3.49250E+01 -3.39404E+01 -3.47028E+01 -3.73640E+01 -4.02931E+01 -4.70058E+01 -5.46399E+01 -6.18301E+01
  -6.86364E+01 -7.24575E+01 -7.23352E+01 -6.81445E+01 -5.93243E+01 -4.57838E+01 -2.93365E+01 -1.33574E+01 -2.91808E-01  7.94831E+00
   1.05635E+01  8.56233E+00  3.46992E+00 -2.41575E+00 -7.29350E+00 -1.18614E+01 -1.51220E+01 -1.84169E+01 -2.36548E+01 -3.02745E+01
  -3.90345E+01 -4.95088E+01 -6.05147E+01 -7.13769E+01 -8.19568E+01 -9.12483E+01 -9.86797E+01 -1.03842E+02 -1.06445E+02 -1.07021E+02
  -1.05475E+02 -1.02928E+02 -9.87607E+01 -9.29650E+01 -8.54511E+01 -8.03166E+01 -7.95813E+01 -7.68198E+01 -7.08184E+01 -8.04228E+01
  -9.76903E+01 -1.10257E+02 -1.16631E+02 -1.18611E+02 -1.16544E+02 -1.10875E+02 -9.76940E+01 -7.05936E+01 -3.19662E+01  6.99704E+00
   3.95654E+01  6.52120E+01  8.38761E+01  9.22685E+01  8.80593E+01  7.76194E+01  6.89228E+01  6.16884E+01  5.56170E+01  5.04816E+01
   4.62309E+01  4.28186E+01  4.03867E+01  3.89510E+01  3.83634E+01  3.82712E+01  3.83805E+01  3.85373E+01  3.85790E+01  3.83360E+01
   3.77742E+01  3.68504E+01  3.56217E+01  3.42371E+01  3.26509E+01  3.08916E+01  2.89954E+01  2.69619E+01  2.47232E+01  2.21941E+01
   1.92894E+01  1.60795E+01  1.27178E+01  9.28099E+00  5.86961E+00  2.81001E+00  4.49206E-01 -9.58316E-01 -1.28590E+00 -5.56865E-01
   1.07344E+00  3.38869E+00  6.23859E+00  9.41480E+00  1.27424E+01  1.60718E+01  1.93213E+01  2.25583E+01  2.58627E+01  2.91888E+01
   3.25319E+01  3.59273E+01  3.92917E+01  4.24821E+01  4.55019E+01  4.82783E+01  5.06659E+01  5.26741E+01  5.41944E+01  5.52583E+01
   5.59172E+01  5.60843E+01  5.56093E+01  5.44450E+01  5.25975E+01  4.99591E+01  4.64378E+01  4.17752E+01  3.59018E+01  2.90770E+01
   2.17468E+01  1.43614E+01  7.47954E+00  3.45782E+00  1.95649E+00  2.39344E+00  5.39693E+00  9.18655E+00  1.33339E+01  1.78229E+01
   2.13575E+01  2.21285E+01  1.96177E+01  1.47629E+01  8.94631E+00  3.98096E+00  1.40820E+00  1.63557E+00  4.34227E+00  8.59308E+00
   1.29874E+01  1.65071E+01  1.81897E+01  1.79223E+01  1.63975E+01  1.40375E+01  1.12683E+01  8.68794E+00  6.70119E+00  5.61696E+00
   5.62989E+00  6.71392E+00  8.72372E+00  1.14515E+01  1.46606E+01  1.81186E+01  2.15865E+01  2.49650E+01  2.81233E+01  3.11862E+01
   3.41160E+01  3.68597E+01  3.95164E+01  4.22847E+01  4.51728E+01  4.82082E+01  5.15123E+01  5.52315E+01  5.95219E+01  6.45966E+01
   7.04814E+01  7.72752E+01  8.48080E+01  9.27852E+01  1.00678E+02  1.08020E+02  1.14249E+02  1.18677E+02  1.20721E+02  1.20015E+02
   1.16474E+02  1.10370E+02  1.02462E+02  9.34918E+01  8.41501E+01  7.49447E+01  6.62231E+01  5.77735E+01  4.92956E+01  4.06089E+01
   3.17969E+01  2.30791E+01  1.47920E+01  7.29331E+00  8.18017E-01 -4.53951E+00 -8.75266E+00 -1.19307E+01 -1.43887E+01 -1.63922E+01
  -1.79957E+01 -1.92302E+01 -2.02678E+01 -2.11986E+01 -2.19027E+01 -2.24131E+01 -2.27896E+01 -2.31009E+01 -2.33576E+01 -2.35865E+01
  -2.37757E+01 -2.39394E+01 -2.41117E+01 -2.42857E+01 -2.44139E+01 -2.44730E+01 -2.45563E+01 -2.46624E+01 -2.48122E+01 -2.48749E+01
  -2.48739E+01 -2.48847E+01 -2.49142E+01 -2.49575E+01 -2.50300E+01 -2.51416E+01 -2.52030E+01 -2.52210E+01 -2.51630E+01 -2.50725E+01
  -2.49959E+01 -2.48965E+01 -2.48217E+01 -2.48005E+01 -2.47970E+01 -2.48468E+01 -2.49433E+01 -2.50301E+01 -2.50563E+01 -2.50662E+01
  -2.50180E+01 -2.49579E+01 -2.48853E+01 -2.48463E+01 -2.47439E+01 -2.46034E+01 -2.44515E+01 -2.42942E+01 -2.41185E+01 -2.39514E+01
  -2.38242E+01 -2.37722E+01 -2.37230E+01 -2.36822E+01 -2.36076E+01 -2.35438E+01 -2.34889E+01 -2.33987E+01 -2.31898E+01 -2.29129E+01
  -2.26393E+01 -2.24030E+01 -2.22155E+01 -2.21574E+01 -2.21399E+01 -2.21765E+01 -2.22139E+01 -2.21979E+01 -2.20949E+01 -2.19606E+01
 NY background values follow
    -4.774E+01   -4.764E+01   -4.754E+01   -4.745E+01   -4.735E+01   -4.725E+01   -4.715E+01   -4.704E+01   -4.694E+01   -4.683E+01
    -4.672E+01   -4.660E+01   -4.648E+01   -4.635E+01   -4.622E+01   -4.608E+01   -4.593E+01   -4.578E+01   -4.562E+01   -4.545E+01
    -4.528E+01   -4.509E+01   -4.490E+01   -4.470E+01   -4.448E+01   -4.426E+01   -4.402E+01   -4.378E+01   -4.352E+01   -4.325E+01
    -4.296E+01   -4.267E+01   -4.235E+01   -4.203E+01   -4.170E+01   -4.135E+01   -4.099E+01   -4.063E+01   -4.025E+01   -3.986E+01
    -3.947E+01   -3.906E+01   -3.865E+01   -3.823E+01   -3.781E+01   -3.737E+01   -3.693E+01   -3.649E+01   -3.604E+01   -3.558E+01
    -3.513E+01   -3.466E+01   -3.420E+01   -3.373E+01   -3.326E+01   -3.279E+01   -3.232E+01   -3.184E+01   -3.137E+01   -3.089E+01
    -3.042E+01   -2.995E+01   -2.948E+01   -2.901E+01   -2.855E+01   -2.809E+01   -2.763E+01   -2.717E+01   -2.672E+01   -2.628E+01
    -2.584E+01   -2.540E+01   -2.497E+01   -2.455E+01   -2.413E+01   -2.372E+01   -2.332E+01   -2.293E+01   -2.254E+01   -2.217E+01
    -2.180E+01   -2.145E+01   -2.110E+01   -2.076E+01   -2.044E+01   -2.013E+01   -1.983E+01   -1.954E+01   -1.926E+01   -1.900E+01
    -1.875E+01   -1.852E+01   -1.829E+01   -1.809E+01   -1.789E+01   -1.771E+01   -1.754E+01   -1.738E+01   -1.723E+01   -1.710E+01
    -1.697E+01   -1.685E+01   -1.675E+01   -1.665E+01   -1.657E+01   -1.649E+01   -1.642E+01   -1.636E+01   -1.631E+01   -1.626E+01
    -1.623E+01   -1.619E+01   -1.617E+01   -1.615E+01   -1.614E+01   -1.613E+01   -1.613E+01   -1.613E+01   -1.614E+01   -1.615E+01
    -1.616E+01   -1.618E+01   -1.620E+01   -1.622E+01   -1.625E+01   -1.628E+01   -1.631E+01   -1.634E+01   -1.638E+01   -1.642E+01
    -1.646E+01   -1.651E+01   -1.655E+01   -1.660E+01   -1.665E+01   -1.670E+01   -1.676E+01   -1.681E+01   -1.687E+01   -1.693E+01
    -1.699E+01   -1.705E+01   -1.711E+01   -1.717E+01   -1.723E+01   -1.730E+01   -1.736E+01   -1.742E+01   -1.749E+01   -1.755E+01
    -1.762E+01   -1.769E+01   -1.775E+01   -1.782E+01   -1.788E+01   -1.795E+01   -1.802E+01   -1.809E+01   -1.816E+01   -1.823E+01
    -1.831E+01   -1.838E+01   -1.846E+01   -1.854E+01   -1.862E+01   -1.870E+01   -1.879E+01   -1.888E+01   -1.897E+01   -1.906E+01
    -1.916E+01   -1.926E+01   -1.936E+01   -1.947E+01   -1.958E+01   -1.970E+01   -1.981E+01   -1.994E+01   -2.006E+01   -2.020E+01
    -2.033E+01   -2.047E+01   -2.062E+01   -2.077E+01   -2.092E+01   -2.107E+01   -2.123E+01   -2.140E+01   -2.156E+01   -2.173E+01
    -2.190E+01   -2.208E+01   -2.225E+01   -2.243E+01   -2.260E+01   -2.278E+01   -2.296E+01   -2.314E+01   -2.332E+01   -2.351E+01
    -2.369E+01   -2.387E+01   -2.405E+01   -2.423E+01   -2.441E+01   -2.458E+01   -2.476E+01   -2.493E+01   -2.510E+01   -2.527E+01
    -2.544E+01   -2.560E+01   -2.577E+01   -2.593E+01   -2.608E+01   -2.624E+01   -2.639E+01   -2.655E+01   -2.670E+01   -2.685E+01
    -2.700E+01   -2.715E+01   -2.730E+01   -2.745E+01   -2.760E+01   -2.775E+01   -2.790E+01   -2.805E+01   -2.820E+01   -2.835E+01
    -2.851E+01   -2.866E+01   -2.882E+01   -2.897E+01   -2.913E+01   -2.930E+01   -2.946E+01   -2.963E+01   -2.980E+01   -2.997E+01
    -3.015E+01   -3.033E+01   -3.051E+01   -3.070E+01   -3.088E+01   -3.107E+01   -3.126E+01   -3.145E+01   -3.165E+01   -3.184E+01
    -3.203E+01   -3.223E+01   -3.242E+01   -3.261E+01   -3.281E+01   -3.300E+01   -3.319E+01   -3.338E+01   -3.356E+01   -3.374E+01
    -3.392E+01   -3.410E+01   -3.428E+01   -3.445E+01   -3.461E+01   -3.478E+01   -3.493E+01   -3.509E+01   -3.523E+01   -3.538E+01
    -3.551E+01   -3.564E+01   -3.576E+01   -3.588E+01   -3.598E+01   -3.607E+01   -3.615E+01   -3.621E+01   -3.626E+01   -3.630E+01
    -3.631E+01   -3.631E+01   -3.629E+01   -3.625E+01   -3.618E+01   -3.609E+01   -3.598E+01   -3.584E+01   -3.567E+01   -3.548E+01
    -3.525E+01   -3.500E+01   -3.471E+01   -3.439E+01   -3.403E+01   -3.364E+01   -3.322E+01   -3.275E+01   -3.225E+01   -3.170E+01
    -3.112E+01   -3.049E+01   -2.982E+01   -2.912E+01   -2.839E+01   -2.762E+01   -2.682E+01   -2.600E+01   -2.515E+01   -2.428E+01
    -2.338E+01   -2.247E+01   -2.154E+01   -2.060E+01   -1.964E+01   -1.868E+01   -1.771E+01   -1.673E+01   -1.574E+01   -1.476E+01
    -1.378E+01   -1.280E+01   -1.183E+01   -1.086E+01   -9.905E+00   -8.961E+00   -8.031E+00   -7.118E+00   -6.223E+00   -5.349E+00
    -4.497E+00   -3.669E+00   -2.865E+00   -2.085E+00   -1.329E+00   -5.975E-01    1.101E-01    7.934E-01    1.452E+00    2.086E+00
     2.696E+00    3.281E+00    3.841E+00    4.376E+00    4.886E+00    5.370E+00    5.829E+00    6.263E+00    6.672E+00    7.055E+00
     7.412E+00    7.743E+00    8.048E+00    8.327E+00    8.580E+00    8.807E+00    9.007E+00    9.181E+00    9.329E+00    9.449E+00
     9.543E+00    9.611E+00    9.653E+00    9.670E+00    9.663E+00    9.633E+00    9.580E+00    9.505E+00    9.409E+00    9.292E+00
     9.156E+00    9.001E+00    8.827E+00    8.636E+00    8.428E+00    8.204E+00    7.964E+00    7.710E+00    7.442E+00    7.160E+00
     6.867E+00    6.561E+00    6.244E+00    5.918E+00    5.581E+00    5.236E+00    4.882E+00    4.522E+00    4.154E+00    3.781E+00
     3.402E+00    3.019E+00    2.631E+00    2.239E+00    1.843E+00    1.445E+00    1.043E+00    6.388E-01    2.326E-01   -1.755E-01
    -5.849E-01   -9.953E-01   -1.406E+00   -1.818E+00   -2.229E+00   -2.640E+00   -3.049E+00   -3.458E+00   -3.865E+00   -4.270E+00
    -4.672E+00   -5.072E+00   -5.468E+00   -5.861E+00   -6.251E+00   -6.636E+00   -7.016E+00   -7.391E+00   -7.761E+00   -8.125E+00
    -8.483E+00   -8.835E+00   -9.180E+00   -9.520E+00   -9.854E+00   -1.018E+01   -1.050E+01   -1.082E+01   -1.113E+01   -1.144E+01
    -1.174E+01   -1.203E+01   -1.232E+01   -1.260E+01   -1.288E+01   -1.316E+01   -1.343E+01   -1.369E+01   -1.395E+01   -1.420E+01
    -1.445E+01   -1.469E+01   -1.493E+01   -1.517E+01   -1.540E+01   -1.563E+01   -1.585E+01   -1.607E+01   -1.628E+01   -1.649E+01
    -1.670E+01   -1.690E+01   -1.710E+01   -1.729E+01   -1.748E+01   -1.767E+01   -1.786E+01   -1.804E+01   -1.822E+01   -1.839E+01
    -1.857E+01   -1.874E+01   -1.891E+01   -1.907E+01   -1.924E+01   -1.940E+01   -1.956E+01   -1.972E+01   -1.988E+01   -2.003E+01
    -2.019E+01   -2.034E+01   -2.050E+01   -2.065E+01   -2.080E+01   -2.095E+01   -2.110E+01   -2.125E+01   -2.140E+01   -2.156E+01
 Mac      Conc. = 2.80E-04
  -6.60329E+01 -6.63249E+01 -6.66316E+01 -6.69916E+01 -6.74225E+01 -6.79597E+01 -6.86194E+01 -6.93931E+01 -7.02630E+01 -7.12402E+01
  -7.24954E+01 -7.40727E+01 -7.54317E+01 -7.64184E+01 -7.72847E+01 -7.80792E+01 -7.87064E+01 -7.89572E+01 -7.85955E+01 -7.73526E+01
  -7.52835E+01 -7.25690E+01 -6.92934E+01 -6.57043E+01 -6.23044E+01 -5.94724E+01 -5.71206E+01 -5.49736E+01 -5.28940E+01 -5.09578E+01
  -4.91964E+01 -4.75724E+01 -4.59855E+01 -4.43781E+01 -4.29621E+01 -4.19095E+01 -4.11330E+01 -4.03878E+01 -3.93260E+01 -3.79173E+01
  -3.63327E+01 -3.47555E+01 -3.32032E+01 -3.16952E+01 -3.03393E+01 -2.91245E+01 -2.80545E+01 -2.71335E+01 -2.63700E+01 -2.59353E+01
  -2.60024E+01 -2.64657E+01 -2.70775E+01 -2.77590E+01 -2.84046E+01 -2.87609E+01 -2.87441E+01 -2.82895E+01 -2.74219E+01 -2.62816E+01
  -2.49507E+01 -2.34262E+01 -2.18190E+01 -2.04727E+01 -1.96688E+01 -1.92944E+01 -1.91353E+01 -1.91388E+01 -1.91622E+01 -1.91529E+01
  -1.88453E+01 -1.80340E+01 -1.67193E+01 -1.50226E+01 -1.31515E+01 -1.13012E+01 -9.72050E+00 -8.58444E+00 -7.97077E+00 -7.82640E+00
  -8.00111E+00 -8.25942E+00 -8.47942E+00 -8.57037E+00 -8.40254E+00 -7.95369E+00 -7.28065E+00 -6.44043E+00 -5.38891E+00 -4.23966E+00
  -3.10399E+00 -2.08018E+00 -1.24460E+00 -6.75695E-01 -3.33407E-01 -2.79011E-01 -6.45831E-01 -1.43181E+00 -2.57140E+00 -3.87510E+00
  -5.39135E+00 -7.28501E+00 -9.61279E+00 -1.23650E+01 -1.55180E+01 -1.92372E+01 -2.36164E+01 -2.85444E+01 -3.36794E+01 -3.84508E+01
