 
 $NMID
 ID=''
 FMTDAT='(2E13.5)'
 TRAMP=   1.00000E+0
 VOLUME=   1.00000E+0
 $END
  -2.29140E+3   1.61689E+4
   7.99375E+3  -3.58931E+3
  -4.01705E+3  -1.30328E+4
  -3.65304E+3   8.00436E+3
   4.30767E+3   5.48885E+3
  -2.52694E+3  -8.01417E+3
  -1.06097E+3  -8.39926E+2
   6.88998E+3   1.88075E+3
  -5.46822E+2  -1.81591E+3
  -3.75931E+3   4.56792E+3
   2.43121E+3   2.15391E+3
  -1.18658E+3  -4.50113E+3
  -2.96779E+3   1.66943E+3
   6.38617E+2   2.61940E+3
  -1.98922E+3  -4.07120E+3
  -1.35982E+3  -2.04675E+3
   3.88121E+3   1.96357E+3
   4.26068E+2   4.52412E+2
  -1.64159E+3  -1.18693E+2
   1.99583E+3  -3.52414E+1
  -2.35460E+2  -2.63268E+2
  -1.35536E+3   5.30915E+2
   2.31607E+3   1.51200E+2
   7.38461E+2   4.25350E+2
  -1.84396E+3   5.43273E+2
   1.11070E+3  -1.72204E+3
   1.99535E+3   9.84167E+0
  -8.46586E+2   3.03636E+3
  -1.45901E+3  -1.31781E+2
  -5.65330E+1  -2.14439E+3
   1.30259E+3   1.04197E+3
  -3.97595E+1   1.44191E+3
  -2.03973E+3   1.50538E+2
  -1.48054E+3  -4.57966E+2
   3.31272E+1  -1.80822E+3
   1.03280E+3  -1.97946E+3
   1.55340E+3   9.18354E+2
   2.60091E+2   1.45403E+3
  -6.50839E+2  -7.10338E+1
   6.33172E+2   2.15507E+2
  -3.39020E+2   7.89202E+2
  -1.56831E+3  -3.68900E+2
  -3.11478E+2  -1.41687E+3
   1.27136E+3  -7.59455E+2
   1.79461E+2  -8.25383E+1
   6.03477E+2   3.29722E+2
   1.04485E+3   1.24902E+3
  -1.09842E+3   1.77249E+3
  -1.98590E+3   3.58993E+2
  -6.20075E+2  -1.19446E+3
   3.96482E+2  -4.54325E+2
   1.38525E+2  -2.87221E+2
  -1.27025E+2  -5.89769E+2
   6.15317E+2   7.36221E+1
   7.82091E+2   4.01815E+2
   9.51009E+1   6.71206E+2
  -7.61416E+2   4.29457E+2
  -1.14324E+3  -3.21866E+2
  -2.64535E+2  -1.08952E+3
   7.07399E+2  -7.33690E+2
   5.78297E+2   2.36717E+2
   8.00283E+2   4.31050E+2
   8.70851E+2   7.78403E+2
  -2.79194E+2   1.49944E+3
  -1.42428E+3   1.05531E+3
  -1.52109E+3  -3.38769E+2
  -3.45830E+2  -8.39569E+2
  -1.06040E+2  -1.12887E+3
   1.96833E+2  -8.13211E+2
   6.69571E+2   8.24528E+1
   2.32435E+2   2.26938E+2
  -2.25069E+2  -2.20825E+2
   1.03695E+2  -9.69135E+2
   7.78566E+2  -6.45160E+1
   3.36121E+2   7.09932E+2
  -4.02083E+2   1.81998E+2
  -1.44619E+2  -2.67914E+2
   4.73211E+2  -3.58100E+0
   2.74663E+2   3.60132E+2
  -2.78380E+2   1.84095E+2
  -4.06445E+2   2.90684E+2
  -2.52240E+2  -1.62412E+2
   2.20928E+2  -2.55096E+2
  -2.94162E+2  -2.30409E+2
  -5.30755E+2  -2.36269E+2
  -1.57443E+2  -5.35329E+2
   4.11267E+2  -6.72698E+2
   1.88346E+2  -3.11608E+2
   5.75211E+1   4.08890E+1
   5.21794E+1  -3.38426E+1
   4.27313E+2  -2.58030E+2
   5.34920E+2  -1.02786E+2
   3.63520E+2   6.26449E+2
   8.08150E+1   6.60484E+2
  -6.69310E+2   3.53086E+2
  -4.07757E+2  -4.66973E+2
   1.95083E+2  -4.75840E+2
   5.35535E+2   1.24782E+2
  -4.72448E+1   1.70404E+2
  -2.09317E+2  -5.29793E+2
   4.65057E+2  -2.83359E+2
   3.99916E+2   2.11531E+2
  -1.30084E+2   5.88785E+2
  -5.04513E+2  -1.83883E+2
  -1.00404E+2  -7.02197E+2
   5.30985E+2   2.32453E+1
   4.98877E+2   2.21066E+2
   2.81176E+1   4.26622E+2
  -5.78810E+2   5.37063E+2
  -2.46500E+2  -3.04103E+2
   1.77665E+2  -4.61553E+2
   4.21620E+2  -8.27881E+1
   2.91434E+2   2.66020E+2
  -3.19864E+1   2.47136E+2
   4.06073E+2   1.92991E+2
   1.48196E+2   1.45952E+2
   2.38231E+2   4.28771E+2
  -5.10616E+2   3.95773E+2
  -4.65260E+2  -3.37013E+2
  -2.24194E+2  -6.56618E+2
   2.20241E+2  -4.17448E+2
   4.66246E+2   1.69913E+2
   1.36014E+2   7.80271E+1
   1.34109E+2   2.02991E+0
   2.84518E+1   3.78205E+2
  -3.65429E+2   3.05501E+2
  -2.20117E+1   3.33999E+1
  -9.51958E+1  -4.46142E+1
   2.00641E+2  -1.26007E+2
   2.55734E+2   3.42786E+1
   1.58962E+2   1.43917E+2
  -5.53504E+1   5.21708E+2
  -2.50069E+2   5.02146E+1
  -9.63969E+1  -1.75564E+1
  -1.37812E+2  -3.25427E+2
  -1.37932E+2  -1.78505E+2
   3.40269E+1  -3.31891E+1
   1.84552E+2  -2.36395E+2
  -1.13342E+1   4.73315E+1
   2.93699E+2   2.17437E+2
  -8.41632E+1   1.28059E+2
  -2.28239E+2   1.69475E+2
  -5.11445E+1  -2.99516E+2
   2.69055E+2  -3.68966E+2
   1.35371E+2   6.59693E+1
   1.60965E+2   2.55083E+2
   4.68004E+1   1.00889E+2
   6.55869E+1  -1.16467E+2
  -3.24102E+1   3.09797E+2
   5.49575E+0   1.07353E+1
  -1.49193E+2   6.35458E+1
   4.62645E+1  -1.84654E+2
  -1.89654E+2  -7.72576E+1
   1.73847E+2   1.80186E+1
  -1.43912E+2   3.66575E+1
   8.89307E+1  -6.08124E+1
   3.37447E+2  -8.26060E+1
   1.56128E+2  -1.00453E+2
   9.40662E+1   5.15146E+1
   1.10552E+2  -1.99183E+1
   7.22172E+1   3.04464E+2
   1.70338E+2  -2.77385E+1
   1.23729E+0   1.42214E+2
  -8.22947E+1  -6.81753E+1
  -2.62107E+2   1.47139E+2
  -6.62965E+1  -5.41948E+1
  -4.62986E+1  -1.30646E+2
  -1.11899E+2   1.38502E+2
   2.38757E+1   2.47728E+2
  -2.86017E+2  -7.32523E+1
  -2.35642E+2  -1.49765E+2
   1.52054E+2   2.16577E+2
  -9.97396E+1   1.33738E+2
  -2.38142E+2  -7.64174E+1
  -7.65115E+1  -7.32475E+1
   3.71880E+1  -1.66776E+2
   4.02679E+0  -4.54091E+1
  -5.12140E+1   1.19160E+1
  -4.03973E+2   1.87329E+2
  -1.30846E+2  -9.01814E+1
   6.86288E+1  -2.35192E+2
   2.21030E+2  -6.16215E+1
   1.06339E+2  -1.11399E+2
  -2.92357E+1  -1.35143E+2
  -2.58711E+2  -1.51127E+2
   8.52162E+1   6.82027E+1
   2.34974E+1   8.07569E+1
  -8.16001E+1   1.67403E+1
  -1.14536E+2  -2.72685E+1
   6.86757E+1  -4.49880E+2
   8.65094E+1   1.19543E+2
  -1.14933E+0  -4.11974E+1
  -1.58853E+2   1.62744E+1
  -5.79682E+1   1.93057E+2
  -1.47750E+2   9.42601E+1
  -5.31513E+0  -1.78944E+2
   1.16224E+2  -4.95079E+1
   1.91252E+2  -8.52242E+1
   7.12915E+1  -8.87845E+0
   1.46076E+2   1.23553E+2
  -9.12778E+1   2.71860E+1
  -1.15045E+2   3.73230E+0
  -2.63900E+2   1.93381E+2
  -1.56136E+2   4.87982E+1
   2.71223E+2  -2.53950E+2
   5.38295E+1   7.34654E+1
  -3.11231E+2   2.32456E+0
  -1.21276E+2  -5.27215E+1
   6.01296E+0   1.68984E+2
   1.68300E+2   1.70004E+2
  -9.18577E+1   1.52785E+2
   5.32061E+1  -7.64816E-1
  -4.43136E+1   3.56700E+2
   1.80826E+2   2.84987E+2
   3.36598E+0   2.28977E+2
   2.29751E+1   1.24840E+2
   7.76815E+1   3.06822E+2
  -8.60031E+1  -6.28098E+0
  -1.92034E+2   1.55540E+2
   1.81067E+2   1.91040E+1
  -9.93017E+1   1.12187E+1
  -1.68398E+2  -2.42290E+1
   1.15167E+2  -2.35654E+2
   2.33105E+1  -3.18894E+1
  -5.21055E+0   3.39241E+1
  -2.76639E+2  -7.83094E+0
  -1.59696E+1   2.17677E+2
  -5.65900E+1  -4.68099E+1
  -8.57421E+0   6.56030E+0
   1.67652E+2   1.21156E+1
   2.40198E+1   4.82601E+1
  -1.87337E+2  -5.80175E+1
  -1.78557E+1  -1.52247E+2
  -1.35886E+2   1.27186E+2
  -1.03847E+2   1.64092E+2
  -2.25008E+2   5.14828E+1
  -1.08492E+2   9.26024E+1
  -3.37122E+1   1.79627E+2
  -8.73932E+0   1.23280E+2
  -1.46188E+2   1.83046E+2
  -1.16033E+2  -4.52646E+1
   1.55529E+2  -4.82900E-1
  -5.72294E-1   1.80837E+2
   5.48437E+1   3.91640E+1
   6.20081E+1   9.93380E+1
   3.86383E+1   1.59789E+2
  -6.91971E+1   8.36322E+1
   1.73993E+2   1.07556E+2
  -7.17365E+0   1.96076E+2
  -2.18804E+2   8.49971E+1
   2.06259E+2  -4.42535E+1
   3.14860E+1   2.55442E+1
  -2.21850E+0   9.22685E+1
  -1.88196E+1  -8.08344E+1
   8.42948E+1  -1.04645E+2
  -1.94647E+2   5.89366E+1
  -1.83756E+2  -2.15805E+2
   8.93921E+0  -5.93549E+1
   1.17808E+2   5.14572E+1
   1.26053E+2  -1.12768E+2
   5.64438E+1   1.81677E+1
  -8.47736E+1   6.57257E+0
  -8.27336E+1   1.37497E+2
  -8.18633E+1  -1.04353E+2
  -1.85282E+2   8.21682E+1
  -1.12029E+2   3.86245E+1
   2.96459E+2  -1.51942E+2
   1.21472E+2   1.40212E+2
  -7.76957E+1  -1.28084E+2
   5.53573E+1  -3.24317E+1
  -9.76282E+1  -2.01429E+2
   9.00312E+1  -1.76950E+1
  -4.93538E+1   1.37514E+2
   2.56506E+2  -2.77328E+2
   6.64916E+1  -1.10193E+2
  -1.18501E+2   1.69021E+2
  -9.88927E+1  -4.77508E+1
  -3.86233E+1   7.05711E+1
  -3.17556E+1  -2.55499E+2
  -3.26614E+1  -1.03269E+2
  -3.00051E+1  -1.35095E+2
   1.58854E+2  -5.71503E+1
   1.58082E+2  -1.28047E+2
  -1.11372E+2  -3.95868E+1
  -3.50835E+1  -6.80344E+1
  -9.93730E+1  -8.46052E+1
   5.13222E+0   1.75270E+2
  -2.20700E+1   1.36011E+2
  -3.16248E+2  -3.43697E+0
  -1.62280E+2  -1.21316E+2
  -4.03848E+1   4.02226E+1
  -1.14246E+2  -7.82567E+1
  -2.07061E+2   5.10912E+1
   2.43289E+0  -1.76763E+2
  -2.24421E+1  -3.54151E+2
  -2.67481E+1  -5.46398E+1
  -1.37698E+2   2.10142E+2
  -1.56896E+2   1.25144E+2
  -1.42815E+2  -2.76400E+1
   4.81260E+1  -7.38084E+1
   2.08991E+2   8.20179E+1
   1.32235E+1   1.08601E+2
  -4.36766E+1   1.85560E+2
  -4.75775E+1  -1.69771E+2
  -4.70711E+1  -4.87332E+1
   4.81497E+0  -1.10155E+2
   1.75339E+1   2.00873E+2
  -4.49416E+1  -7.28964E+1
   7.65587E+1  -1.46082E+1
   2.07272E+1   1.27393E+2
  -1.03077E+2   1.58139E+0
  -2.82296E+1  -1.68878E+1
   6.14869E+1   2.10148E+2
   4.07973E+1   4.24707E+1
   1.12768E+2  -8.05862E+1
   4.72607E+1   1.05869E+2
   5.70217E+1   1.77347E+2
   2.13953E+1  -1.12062E+2
   1.38929E+1  -1.42824E+1
  -1.38158E+2  -7.25243E+1
  -3.38512E+1  -1.90595E+0
   3.15345E+1  -1.04216E+2
   4.13815E+1  -3.77454E+1
   2.21827E+2  -4.54714E+1
   1.84099E+1  -2.27655E+2
  -9.64915E+1  -9.45766E+1
  -3.79891E+1   4.01981E+1
   2.10333E+1   2.32257E+1
   1.38490E+2  -1.48272E+2
  -8.96389E+1  -4.69287E+1
  -1.06284E+2   1.77143E+1
   6.99712E+1  -2.48146E+2
  -4.95551E+1   1.69147E+1
   4.36664E+1  -4.30840E+0
  -3.27281E+2   1.36882E+2
   3.24006E+1  -1.03421E+2
   6.24731E+1  -5.54864E+0
   1.92228E+2   7.12173E+1
   2.80557E+2   8.52526E+1
  -1.54190E+2  -1.77601E+2
  -4.17575E+1  -1.38529E+1
  -2.90041E+2  -1.31630E+2
   1.26593E+2   9.22826E+1
  -1.73219E+2  -1.48887E+2
   1.04987E+2   2.49741E+2
  -5.57894E+1  -1.19576E+1
   1.03935E+2  -2.10085E+2
   1.16533E+2   2.35103E+2
  -3.19960E+2  -9.83535E+1
   1.50672E+2  -4.61142E+1
  -1.40633E+2   4.12390E+1
   1.33600E+2   5.07880E+1
   1.27579E+2  -6.77619E+1
  -1.88199E+1  -1.26979E+2
  -8.51290E+1  -1.23931E+2
  -4.04806E+1  -1.15242E+2
  -9.64462E+1  -1.43021E+2
   9.59446E+1  -1.74618E+2
  -1.54514E+2  -5.57592E+1
  -2.00464E+2   1.34373E+1
  -1.97600E+2  -2.60587E+2
   5.75175E+1  -3.79785E+0
   9.92029E+1  -2.43021E+2
  -3.78216E+2   3.18591E+1
   9.29320E+1   2.68476E+2
  -3.25648E+1   1.51803E+2
   8.09916E+1   1.06267E+2
