 
 $NMID
 ID=''
 FMTDAT='(2E13.5)'
 TRAMP=   1.00000E+0
 VOLUME=   1.00000E+0
 $END
  -4.63663E+5   4.47061E+5
  -1.62992E+6   7.05824E+5
  -1.50359E+6   9.18858E+5
  -1.40618E+6   8.17045E+5
  -1.47253E+6   8.06362E+5
  -1.43224E+6   8.83972E+5
  -1.37586E+6   8.81897E+5
  -1.38824E+6   8.84759E+5
  -1.35783E+6   9.03655E+5
  -1.34009E+6   8.91290E+5
  -1.33917E+6   9.03080E+5
  -1.30284E+6   9.10425E+5
  -1.28673E+6   8.96391E+5
  -1.28737E+6   9.06822E+5
  -1.25677E+6   9.08665E+5
  -1.23745E+6   8.96361E+5
  -1.23321E+6   9.09856E+5
  -1.21017E+6   9.15322E+5
  -1.19401E+6   9.08107E+5
  -1.17911E+6   9.23610E+5
  -1.15224E+6   9.29661E+5
  -1.13767E+6   9.24449E+5
  -1.12735E+6   9.32117E+5
  -1.10600E+6   9.33988E+5
  -1.09173E+6   9.27023E+5
  -1.07433E+6   9.35858E+5
  -1.05726E+6   9.35264E+5
  -1.04710E+6   9.26003E+5
  -1.03281E+6   9.24508E+5
  -1.01274E+6   9.26260E+5
  -1.00239E+6   9.23867E+5
  -9.85495E+5   9.25407E+5
  -9.66204E+5   9.23588E+5
  -9.52598E+5   9.23728E+5
  -9.34600E+5   9.27676E+5
  -9.12865E+5   9.30884E+5
  -8.99487E+5   9.34021E+5
  -8.85384E+5   9.35721E+5
  -8.65663E+5   9.31122E+5
  -8.51461E+5   9.30419E+5
  -8.37245E+5   9.30085E+5
  -8.20767E+5   9.25025E+5
  -8.04617E+5   9.20986E+5
  -7.90295E+5   9.19892E+5
  -7.76879E+5   9.14783E+5
  -7.65212E+5   9.10421E+5
  -7.51725E+5   9.06747E+5
  -7.38238E+5   9.00726E+5
  -7.23539E+5   8.95243E+5
  -7.08730E+5   8.92327E+5
  -6.94654E+5   8.88775E+5
  -6.82138E+5   8.84804E+5
  -6.68568E+5   8.81263E+5
  -6.55333E+5   8.76786E+5
  -6.43097E+5   8.70934E+5
  -6.31381E+5   8.65470E+5
  -6.19397E+5   8.57646E+5
  -6.07103E+5   8.50133E+5
  -5.94137E+5   8.43738E+5
  -5.82695E+5   8.37814E+5
  -5.72278E+5   8.30601E+5
  -5.61655E+5   8.23326E+5
  -5.50835E+5   8.16302E+5
  -5.40896E+5   8.08752E+5
  -5.29802E+5   8.00066E+5
  -5.17867E+5   7.91355E+5
  -5.06409E+5   7.84341E+5
  -4.96221E+5   7.77085E+5
  -4.87078E+5   7.69983E+5
  -4.78839E+5   7.62116E+5
  -4.69888E+5   7.52664E+5
  -4.60467E+5   7.43784E+5
  -4.50790E+5   7.35898E+5
  -4.43206E+5   7.27770E+5
  -4.35232E+5   7.18531E+5
  -4.26179E+5   7.08809E+5
  -4.17517E+5   7.00644E+5
  -4.09960E+5   6.92201E+5
  -4.02382E+5   6.82567E+5
  -3.94428E+5   6.73043E+5
  -3.86754E+5   6.63697E+5
  -3.79050E+5   6.54819E+5
  -3.72137E+5   6.45383E+5
  -3.66116E+5   6.35782E+5
  -3.59806E+5   6.25544E+5
  -3.53105E+5   6.15982E+5
  -3.46572E+5   6.06516E+5
  -3.40897E+5   5.96944E+5
  -3.34994E+5   5.87065E+5
  -3.28253E+5   5.77112E+5
  -3.21802E+5   5.68050E+5
  -3.16325E+5   5.59180E+5
  -3.10581E+5   5.50145E+5
  -3.04631E+5   5.40542E+5
  -2.98229E+5   5.30814E+5
  -2.91575E+5   5.21989E+5
  -2.86093E+5   5.13628E+5
  -2.81008E+5   5.05042E+5
  -2.75777E+5   4.96017E+5
  -2.70011E+5   4.86855E+5
  -2.65279E+5   4.78352E+5
  -2.61391E+5   4.70053E+5
  -2.56989E+5   4.60328E+5
  -2.51786E+5   4.51098E+5
  -2.46567E+5   4.42805E+5
  -2.41965E+5   4.34902E+5
  -2.37932E+5   4.26633E+5
  -2.34146E+5   4.17792E+5
  -2.29639E+5   4.08946E+5
  -2.24292E+5   4.01068E+5
  -2.20286E+5   3.93585E+5
  -2.16887E+5   3.85891E+5
  -2.13571E+5   3.77633E+5
  -2.10546E+5   3.68996E+5
  -2.07048E+5   3.61270E+5
  -2.04003E+5   3.53677E+5
  -2.01031E+5   3.45425E+5
  -1.97632E+5   3.37330E+5
  -1.93733E+5   3.29414E+5
  -1.90271E+5   3.22889E+5
  -1.87464E+5   3.16107E+5
  -1.84926E+5   3.08935E+5
  -1.82059E+5   3.01546E+5
  -1.79242E+5   2.94461E+5
  -1.77065E+5   2.87593E+5
  -1.74380E+5   2.80445E+5
  -1.71417E+5   2.73712E+5
  -1.68881E+5   2.66723E+5
  -1.66798E+5   2.60359E+5
  -1.64879E+5   2.53696E+5
  -1.63276E+5   2.46550E+5
  -1.61672E+5   2.39887E+5
  -1.59160E+5   2.33033E+5
  -1.57145E+5   2.27131E+5
  -1.55507E+5   2.20872E+5
  -1.53609E+5   2.14424E+5
  -1.51511E+5   2.08213E+5
  -1.49421E+5   2.02575E+5
  -1.47776E+5   1.96971E+5
  -1.46009E+5   1.90707E+5
  -1.44216E+5   1.84913E+5
  -1.41845E+5   1.79286E+5
  -1.39783E+5   1.73852E+5
  -1.37891E+5   1.68565E+5
  -1.36721E+5   1.63246E+5
  -1.35191E+5   1.57574E+5
  -1.33011E+5   1.52423E+5
  -1.31090E+5   1.47535E+5
  -1.29298E+5   1.42231E+5
  -1.27505E+5   1.37395E+5
  -1.25925E+5   1.32197E+5
  -1.23681E+5   1.27802E+5
  -1.21946E+5   1.23362E+5
  -1.20431E+5   1.18937E+5
  -1.18735E+5   1.14324E+5
  -1.16699E+5   1.09900E+5
  -1.14957E+5   1.05819E+5
  -1.13068E+5   1.01440E+5
  -1.11418E+5   9.74208E+4
  -1.09541E+5   9.34332E+4
  -1.07713E+5   8.96249E+4
  -1.06205E+5   8.58956E+4
  -1.04431E+5   8.19961E+4
  -1.02691E+5   7.84132E+4
  -1.00879E+5   7.46264E+4
  -9.88204E+4   7.14577E+4
  -9.74993E+4   6.80107E+4
  -9.59898E+4   6.46195E+4
  -9.43202E+4   6.13380E+4
  -9.24951E+4   5.80147E+4
  -9.08842E+4   5.53037E+4
  -8.94240E+4   5.23479E+4
  -8.76186E+4   4.92590E+4
  -8.61560E+4   4.61288E+4
  -8.46051E+4   4.33207E+4
  -8.33280E+4   4.08444E+4
  -8.17985E+4   3.78754E+4
  -8.03483E+4   3.52670E+4
  -7.87203E+4   3.24067E+4
  -7.74360E+4   2.98234E+4
  -7.60625E+4   2.74505E+4
  -7.46823E+4   2.51683E+4
  -7.29323E+4   2.24448E+4
  -7.19525E+4   2.01771E+4
  -7.05267E+4   1.78619E+4
  -6.91440E+4   1.58671E+4
  -6.77324E+4   1.37754E+4
  -6.64799E+4   1.17663E+4
  -6.49683E+4   9.63125E+3
  -6.40200E+4   7.76987E+3
  -6.28497E+4   5.66740E+3
  -6.16131E+4   3.85848E+3
  -6.00209E+4   1.83073E+3
  -5.85622E+4   4.18191E+1
  -5.74916E+4  -1.59333E+3
  -5.62691E+4  -3.26680E+3
  -5.53682E+4  -5.06911E+3
  -5.37919E+4  -6.52764E+3
  -5.27701E+4  -8.20879E+3
  -5.11434E+4  -9.84122E+3
  -5.02489E+4  -1.11192E+4
  -4.87628E+4  -1.26627E+4
  -4.75837E+4  -1.38051E+4
  -4.65755E+4  -1.49607E+4
  -4.52000E+4  -1.61101E+4
  -4.42985E+4  -1.76203E+4
  -4.28568E+4  -1.85573E+4
  -4.12423E+4  -1.97847E+4
  -4.03761E+4  -2.06587E+4
  -3.91869E+4  -2.19419E+4
  -3.81320E+4  -2.23808E+4
  -3.68312E+4  -2.32038E+4
  -3.56786E+4  -2.41215E+4
  -3.46639E+4  -2.48819E+4
  -3.34992E+4  -2.55120E+4
  -3.21490E+4  -2.63964E+4
  -3.09780E+4  -2.68788E+4
  -2.97501E+4  -2.75123E+4
  -2.87023E+4  -2.77846E+4
  -2.77273E+4  -2.84362E+4
  -2.65054E+4  -2.89585E+4
  -2.53905E+4  -2.92530E+4
  -2.43010E+4  -2.95400E+4
  -2.30259E+4  -2.99166E+4
  -2.21096E+4  -3.01088E+4
  -2.07181E+4  -3.05774E+4
  -1.96596E+4  -3.07121E+4
  -1.88057E+4  -3.10240E+4
  -1.75872E+4  -3.10643E+4
  -1.66635E+4  -3.13619E+4
  -1.54518E+4  -3.15422E+4
  -1.43897E+4  -3.15279E+4
  -1.32851E+4  -3.13130E+4
  -1.22972E+4  -3.14528E+4
  -1.11201E+4  -3.13694E+4
  -1.02620E+4  -3.15492E+4
  -9.25342E+3  -3.12167E+4
  -8.26931E+3  -3.14415E+4
  -7.02240E+3  -3.11851E+4
  -6.43023E+3  -3.11446E+4
  -5.27891E+3  -3.10760E+4
  -4.38964E+3  -3.07863E+4
  -3.49832E+3  -3.06936E+4
  -2.60237E+3  -3.08504E+4
  -1.76999E+3  -3.00780E+4
  -6.41487E+2  -3.01532E+4
  -1.40180E+1  -2.97700E+4
   1.28990E+3  -2.95256E+4
   2.02392E+3  -2.91156E+4
   2.92266E+3  -2.88852E+4
   3.54514E+3  -2.86646E+4
   4.46650E+3  -2.83766E+4
   5.22528E+3  -2.79608E+4
   6.28981E+3  -2.76869E+4
   6.67479E+3  -2.71899E+4
   7.52835E+3  -2.67388E+4
   8.38059E+3  -2.67116E+4
   9.12765E+3  -2.64853E+4
   9.85384E+3  -2.56962E+4
   1.05672E+4  -2.54076E+4
   1.14087E+4  -2.50384E+4
   1.18611E+4  -2.45335E+4
   1.26817E+4  -2.42489E+4
   1.31736E+4  -2.35302E+4
   1.40982E+4  -2.31150E+4
   1.44793E+4  -2.27707E+4
   1.49504E+4  -2.22408E+4
   1.57336E+4  -2.17286E+4
   1.62424E+4  -2.10334E+4
   1.66120E+4  -2.06812E+4
   1.70815E+4  -2.01509E+4
   1.78407E+4  -1.98922E+4
   1.83456E+4  -1.90799E+4
   1.86987E+4  -1.84544E+4
   1.91695E+4  -1.78929E+4
   1.96054E+4  -1.74721E+4
   1.98177E+4  -1.70671E+4
   2.03242E+4  -1.62283E+4
   2.09361E+4  -1.58068E+4
   2.10196E+4  -1.53200E+4
   2.11878E+4  -1.47369E+4
   2.18489E+4  -1.40413E+4
   2.19808E+4  -1.34295E+4
   2.25022E+4  -1.26895E+4
   2.26623E+4  -1.21947E+4
   2.28053E+4  -1.18271E+4
   2.28812E+4  -1.13158E+4
   2.31855E+4  -1.06427E+4
   2.34772E+4  -9.81410E+3
   2.34515E+4  -9.36527E+3
   2.37978E+4  -9.01095E+3
   2.37003E+4  -7.94546E+3
   2.38646E+4  -7.40216E+3
   2.38848E+4  -7.13315E+3
   2.41204E+4  -6.31355E+3
   2.44856E+4  -5.76148E+3
   2.43585E+4  -5.23087E+3
   2.42985E+4  -4.38692E+3
   2.42834E+4  -3.96117E+3
   2.43320E+4  -3.29255E+3
   2.43416E+4  -2.68896E+3
   2.43047E+4  -2.22552E+3
   2.42613E+4  -1.49516E+3
   2.42043E+4  -1.13522E+3
   2.42748E+4  -4.42617E+2
   2.44840E+4   4.17692E+2
   2.42834E+4   7.25325E+2
   2.39622E+4   1.20680E+3
   2.40696E+4   1.62987E+3
   2.36999E+4   2.38774E+3
   2.38954E+4   2.87250E+3
   2.35651E+4   3.58744E+3
   2.33920E+4   4.15510E+3
   2.31068E+4   4.76763E+3
   2.29421E+4   5.30030E+3
   2.28476E+4   5.87751E+3
   2.28547E+4   6.62123E+3
   2.24907E+4   6.82494E+3
   2.21959E+4   7.35913E+3
   2.20389E+4   7.77457E+3
   2.20389E+4   8.45314E+3
   2.18735E+4   8.79503E+3
   2.15795E+4   9.47698E+3
   2.10893E+4   9.81396E+3
   2.10468E+4   1.03252E+4
   2.07455E+4   1.09543E+4
   2.04443E+4   1.13252E+4
   2.04179E+4   1.15141E+4
   1.98587E+4   1.23264E+4
   1.96670E+4   1.25385E+4
   1.92361E+4   1.31763E+4
   1.89525E+4   1.32373E+4
   1.88422E+4   1.35301E+4
   1.83358E+4   1.42838E+4
   1.82552E+4   1.43591E+4
   1.77584E+4   1.47719E+4
   1.73728E+4   1.53558E+4
   1.69667E+4   1.55067E+4
   1.69007E+4   1.56450E+4
   1.64782E+4   1.63737E+4
   1.60175E+4   1.66441E+4
   1.56328E+4   1.68537E+4
   1.50657E+4   1.70783E+4
   1.48397E+4   1.76582E+4
   1.44369E+4   1.78775E+4
   1.39207E+4   1.79527E+4
   1.36886E+4   1.83874E+4
   1.32867E+4   1.85020E+4
   1.26554E+4   1.89330E+4
   1.20847E+4   1.90279E+4
   1.19352E+4   1.93456E+4
   1.13039E+4   1.96032E+4
   1.10053E+4   1.97900E+4
   1.04875E+4   2.00729E+4
   1.00235E+4   2.00521E+4
   9.65003E+3   2.02726E+4
   9.23285E+3   2.03609E+4
   8.81507E+3   2.08355E+4
   8.28008E+3   2.08790E+4
   8.03809E+3   2.11098E+4
   7.28951E+3   2.13412E+4
   6.73437E+3   2.12286E+4
   6.40594E+3   2.13557E+4
   5.94872E+3   2.13647E+4
   5.31905E+3   2.16910E+4
   4.88552E+3   2.18956E+4
   4.47121E+3   2.18637E+4
