 
 $NMID
 ID=''
 FMTDAT='(2E13.5)'
 TRAMP=   1.00000E+0
 VOLUME=   1.00000E+0
 $END
   6.02735E+5   2.58692E+5
   1.31417E+6   1.16454E+6
   1.44019E+6   9.26130E+5
   1.26361E+6   9.05422E+5
   1.24869E+6   1.02619E+6
   1.26968E+6   1.01353E+6
   1.24213E+6   1.00490E+6
   1.26597E+6   1.01155E+6
   1.24279E+6   9.60029E+5
   1.18226E+6   9.82084E+5
   1.20037E+6   1.02034E+6
   1.21222E+6   9.86417E+5
   1.18535E+6   9.71793E+5
   1.18202E+6   9.71960E+5
   1.16443E+6   9.52828E+5
   1.14317E+6   9.58215E+5
   1.15801E+6   9.69694E+5
   1.14828E+6   9.53475E+5
   1.11616E+6   9.53903E+5
   1.10635E+6   9.59749E+5
   1.08883E+6   9.59473E+5
   1.07402E+6   9.68603E+5
   1.07768E+6   9.62923E+5
   1.06201E+6   9.47112E+5
   1.03422E+6   9.50276E+5
   1.03347E+6   9.48702E+5
   1.03300E+6   9.39023E+5
   1.02629E+6   9.32020E+5
   1.01653E+6   9.19348E+5
   1.00401E+6   9.06871E+5
   9.94176E+5   9.13293E+5
   9.90480E+5   9.10254E+5
   9.77114E+5   8.99779E+5
   9.62276E+5   8.96583E+5
   9.51466E+5   8.94725E+5
   9.41071E+5   8.91582E+5
   9.32438E+5   8.92378E+5
   9.21437E+5   8.87749E+5
   9.05722E+5   8.80214E+5
   8.97031E+5   8.77832E+5
   8.91910E+5   8.71948E+5
   8.82072E+5   8.62282E+5
   8.72646E+5   8.52573E+5
   8.66106E+5   8.45843E+5
   8.58040E+5   8.39664E+5
   8.52245E+5   8.34749E+5
   8.42974E+5   8.28798E+5
   8.29053E+5   8.24306E+5
   8.15379E+5   8.19954E+5
   8.05222E+5   8.16007E+5
   7.94721E+5   8.13192E+5
   7.83145E+5   8.09758E+5
   7.71959E+5   8.05475E+5
   7.60182E+5   8.02437E+5
   7.49268E+5   7.99431E+5
   7.39209E+5   7.95621E+5
   7.29183E+5   7.90855E+5
   7.18720E+5   7.84343E+5
   7.08112E+5   7.77738E+5
   6.99545E+5   7.73745E+5
   6.90711E+5   7.70881E+5
   6.81363E+5   7.66615E+5
   6.70613E+5   7.61451E+5
   6.58713E+5   7.57863E+5
   6.46191E+5   7.54995E+5
   6.35115E+5   7.51130E+5
   6.24858E+5   7.45331E+5
   6.14744E+5   7.40400E+5
   6.04442E+5   7.37877E+5
   5.93288E+5   7.36434E+5
   5.82583E+5   7.32116E+5
   5.73611E+5   7.26658E+5
   5.65435E+5   7.22401E+5
   5.55807E+5   7.19208E+5
   5.44876E+5   7.15800E+5
   5.35248E+5   7.11360E+5
   5.26429E+5   7.07779E+5
   5.16398E+5   7.04407E+5
   5.05750E+5   7.00628E+5
   4.94929E+5   6.96886E+5
   4.84280E+5   6.93419E+5
   4.74579E+5   6.89624E+5
   4.65201E+5   6.86037E+5
   4.55383E+5   6.82363E+5
   4.45302E+5   6.78252E+5
   4.35455E+5   6.73839E+5
   4.27322E+5   6.69664E+5
   4.19407E+5   6.65982E+5
   4.11115E+5   6.61465E+5
   4.02678E+5   6.55419E+5
   3.94747E+5   6.50509E+5
   3.87454E+5   6.46908E+5
   3.79001E+5   6.42820E+5
   3.70378E+5   6.37640E+5
   3.61268E+5   6.31514E+5
   3.53309E+5   6.26862E+5
   3.45500E+5   6.22831E+5
   3.37787E+5   6.18364E+5
   3.29875E+5   6.12555E+5
   3.22550E+5   6.07353E+5
   3.15240E+5   6.03023E+5
   3.07621E+5   5.98761E+5
   2.99775E+5   5.92777E+5
   2.93103E+5   5.86467E+5
   2.87144E+5   5.80304E+5
   2.81332E+5   5.75084E+5
   2.74900E+5   5.69812E+5
   2.67554E+5   5.64559E+5
   2.60593E+5   5.57617E+5
   2.54920E+5   5.50357E+5
   2.49410E+5   5.44655E+5
   2.42523E+5   5.39988E+5
   2.35357E+5   5.34549E+5
   2.28703E+5   5.28159E+5
   2.22311E+5   5.22110E+5
   2.15679E+5   5.16667E+5
   2.08468E+5   5.11099E+5
   2.01830E+5   5.04319E+5
   1.96085E+5   4.97722E+5
   1.91055E+5   4.91296E+5
   1.85377E+5   4.85772E+5
   1.79208E+5   4.79862E+5
   1.73746E+5   4.73887E+5
   1.67865E+5   4.68368E+5
   1.61811E+5   4.62190E+5
   1.55636E+5   4.55529E+5
   1.50001E+5   4.49190E+5
   1.44523E+5   4.43267E+5
   1.38679E+5   4.37192E+5
   1.32997E+5   4.31643E+5
   1.26877E+5   4.26111E+5
   1.20564E+5   4.19995E+5
   1.14617E+5   4.13628E+5
   1.09408E+5   4.07911E+5
   1.04002E+5   4.02493E+5
   9.83363E+4   3.96476E+5
   9.29768E+4   3.90005E+5
   8.81012E+4   3.84832E+5
   8.27605E+4   3.79448E+5
   7.74091E+4   3.73974E+5
   7.16955E+4   3.67815E+5
   6.73533E+4   3.61438E+5
   6.31788E+4   3.55751E+5
   5.85012E+4   3.50545E+5
   5.37183E+4   3.45469E+5
   4.93233E+4   3.39727E+5
   4.47648E+4   3.34160E+5
   4.03550E+4   3.28384E+5
   3.65490E+4   3.23255E+5
   3.30748E+4   3.17618E+5
   2.94580E+4   3.12147E+5
   2.61641E+4   3.06999E+5
   2.32885E+4   3.01669E+5
   1.99336E+4   2.96920E+5
   1.67230E+4   2.91758E+5
   1.37985E+4   2.86520E+5
   1.11324E+4   2.81252E+5
   8.40463E+3   2.76466E+5
   5.72055E+3   2.71728E+5
   3.12941E+3   2.66345E+5
   8.17500E+2   2.61779E+5
  -1.36052E+3   2.57007E+5
  -3.60500E+3   2.52162E+5
  -5.95283E+3   2.47144E+5
  -7.62848E+3   2.42339E+5
  -8.95188E+3   2.37861E+5
  -1.06815E+4   2.33456E+5
  -1.26050E+4   2.29298E+5
  -1.41948E+4   2.24869E+5
  -1.50964E+4   2.20207E+5
  -1.65782E+4   2.15985E+5
  -1.75599E+4   2.11614E+5
  -1.88158E+4   2.07482E+5
  -1.99858E+4   2.03431E+5
  -2.09851E+4   1.99041E+5
  -2.17468E+4   1.95125E+5
  -2.27901E+4   1.91053E+5
  -2.38245E+4   1.87042E+5
  -2.46299E+4   1.82507E+5
  -2.50132E+4   1.78658E+5
  -2.58109E+4   1.74852E+5
  -2.67398E+4   1.71074E+5
  -2.75785E+4   1.67024E+5
  -2.81644E+4   1.63402E+5
  -2.83179E+4   1.59192E+5
  -2.87695E+4   1.55846E+5
  -2.93143E+4   1.52091E+5
  -2.97381E+4   1.48355E+5
  -2.97628E+4   1.44942E+5
  -3.01106E+4   1.41480E+5
  -3.05842E+4   1.38349E+5
  -3.09874E+4   1.34887E+5
  -3.15931E+4   1.31291E+5
  -3.15942E+4   1.27731E+5
  -3.16601E+4   1.24362E+5
  -3.19264E+4   1.21331E+5
  -3.23942E+4   1.18147E+5
  -3.27955E+4   1.15025E+5
  -3.30299E+4   1.11825E+5
  -3.32301E+4   1.08926E+5
  -3.37957E+4   1.05797E+5
  -3.37145E+4   1.02720E+5
  -3.40911E+4   9.95873E+4
  -3.35971E+4   9.70801E+4
  -3.40551E+4   9.44700E+4
  -3.42480E+4   9.14255E+4
  -3.45083E+4   8.91043E+4
  -3.44138E+4   8.62120E+4
  -3.42552E+4   8.34927E+4
  -3.46331E+4   8.11716E+4
  -3.46461E+4   7.86393E+4
  -3.46280E+4   7.60794E+4
  -3.45147E+4   7.38571E+4
  -3.47117E+4   7.15252E+4
  -3.44530E+4   6.94723E+4
  -3.46264E+4   6.68917E+4
  -3.43107E+4   6.44980E+4
  -3.40201E+4   6.26716E+4
  -3.39810E+4   6.06754E+4
  -3.36493E+4   5.88100E+4
  -3.36765E+4   5.69182E+4
  -3.35923E+4   5.50486E+4
  -3.31641E+4   5.31953E+4
  -3.29034E+4   5.16686E+4
  -3.27972E+4   4.96844E+4
  -3.27557E+4   4.78411E+4
  -3.24743E+4   4.62276E+4
  -3.18485E+4   4.51441E+4
  -3.19849E+4   4.36926E+4
  -3.18483E+4   4.19021E+4
  -3.12027E+4   4.03847E+4
  -3.08835E+4   3.93007E+4
  -3.08761E+4   3.78362E+4
  -3.04772E+4   3.65529E+4
  -3.01546E+4   3.53438E+4
  -2.95744E+4   3.43139E+4
  -2.94131E+4   3.29982E+4
  -2.89714E+4   3.16917E+4
  -2.86489E+4   3.07783E+4
  -2.84570E+4   2.96519E+4
  -2.79709E+4   2.84906E+4
  -2.77505E+4   2.74481E+4
  -2.72192E+4   2.66505E+4
  -2.65583E+4   2.57737E+4
  -2.65451E+4   2.47683E+4
  -2.61505E+4   2.37217E+4
  -2.55241E+4   2.28494E+4
  -2.52068E+4   2.21399E+4
  -2.49062E+4   2.12720E+4
  -2.42902E+4   2.04145E+4
  -2.39431E+4   1.97843E+4
  -2.37636E+4   1.91066E+4
  -2.33662E+4   1.85535E+4
  -2.31490E+4   1.74222E+4
  -2.23373E+4   1.68485E+4
  -2.22330E+4   1.60987E+4
  -2.16735E+4   1.56378E+4
  -2.15282E+4   1.48890E+4
  -2.09631E+4   1.43041E+4
  -2.06414E+4   1.35841E+4
  -2.01771E+4   1.29971E+4
  -1.97753E+4   1.20124E+4
  -1.96430E+4   1.16258E+4
  -1.89937E+4   1.10145E+4
  -1.85242E+4   1.05006E+4
  -1.80243E+4   1.00750E+4
  -1.77891E+4   9.38970E+3
  -1.74134E+4   8.88529E+3
  -1.71521E+4   8.28710E+3
  -1.67554E+4   7.80739E+3
  -1.62363E+4   7.32884E+3
  -1.61888E+4   6.72181E+3
  -1.55797E+4   6.12941E+3
  -1.53342E+4   5.79955E+3
  -1.50009E+4   5.21103E+3
  -1.46997E+4   4.66444E+3
  -1.42707E+4   4.20260E+3
  -1.39289E+4   3.74562E+3
  -1.36097E+4   3.03613E+3
  -1.34670E+4   3.12536E+3
  -1.30562E+4   2.58666E+3
  -1.26119E+4   1.93776E+3
  -1.26374E+4   1.67028E+3
  -1.23168E+4   1.17104E+3
  -1.20239E+4   9.25778E+2
  -1.15474E+4   2.30143E+2
  -1.10287E+4   5.15226E+1
  -1.10985E+4  -4.39200E+2
  -1.07435E+4  -6.34413E+2
  -1.06406E+4  -9.11891E+2
  -1.03963E+4  -1.40386E+3
  -9.70769E+3  -1.54968E+3
  -9.66111E+3  -1.87089E+3
  -9.28592E+3  -2.03254E+3
  -9.17066E+3  -2.43650E+3
  -8.81104E+3  -2.59358E+3
  -8.51191E+3  -2.83154E+3
  -8.09499E+3  -3.29232E+3
  -7.98745E+3  -3.48163E+3
  -7.64678E+3  -3.64040E+3
  -7.61037E+3  -4.11048E+3
  -7.12293E+3  -4.21713E+3
  -6.86558E+3  -4.12040E+3
  -6.85653E+3  -4.46550E+3
  -6.50828E+3  -4.66063E+3
  -6.38011E+3  -5.07384E+3
  -6.06241E+3  -4.95579E+3
  -5.53950E+3  -5.12152E+3
  -5.24068E+3  -5.29494E+3
  -5.30292E+3  -5.55212E+3
  -4.90299E+3  -5.62697E+3
  -4.67972E+3  -5.77789E+3
  -4.36488E+3  -5.71607E+3
  -4.05755E+3  -5.67932E+3
  -3.88297E+3  -5.88827E+3
  -3.73725E+3  -5.86181E+3
  -3.42781E+3  -6.13493E+3
  -2.99954E+3  -6.06805E+3
  -3.03451E+3  -6.28058E+3
  -2.52389E+3  -6.29150E+3
  -2.27339E+3  -6.29727E+3
  -2.05360E+3  -6.32254E+3
  -1.85055E+3  -6.57748E+3
  -1.46753E+3  -6.62387E+3
  -1.45475E+3  -6.60214E+3
  -1.15119E+3  -6.54420E+3
  -1.09617E+3  -6.75196E+3
  -7.30659E+2  -6.89195E+3
  -4.55872E+2  -6.68860E+3
  -1.06179E+2  -6.93215E+3
   3.03431E+2  -6.92716E+3
   3.40566E+2  -6.89946E+3
   6.24658E+2  -6.90159E+3
   8.63184E+2  -6.90958E+3
   1.13297E+3  -6.96016E+3
   1.35164E+3  -7.13772E+3
   1.42688E+3  -6.96674E+3
   1.77050E+3  -6.91780E+3
   2.04119E+3  -7.14589E+3
   2.27877E+3  -7.21660E+3
   2.51914E+3  -7.15350E+3
   2.55516E+3  -7.30115E+3
   2.69420E+3  -7.25795E+3
   3.03132E+3  -7.46828E+3
   3.10513E+3  -7.19899E+3
   3.42058E+3  -7.28930E+3
   3.46871E+3  -7.41676E+3
   3.79650E+3  -7.32314E+3
   3.96054E+3  -7.45956E+3
   3.95013E+3  -7.31648E+3
   4.23644E+3  -7.29365E+3
   4.50265E+3  -7.36323E+3
   4.66511E+3  -7.19457E+3
   4.52879E+3  -7.37726E+3
   4.86298E+3  -7.55385E+3
   5.00674E+3  -7.04112E+3
   5.28499E+3  -7.24488E+3
   5.31313E+3  -7.31344E+3
   5.67076E+3  -7.15814E+3
   5.70449E+3  -7.17782E+3
   5.82631E+3  -7.18824E+3
   6.10961E+3  -7.00226E+3
   6.16318E+3  -7.01348E+3
   6.30289E+3  -6.97782E+3
   6.49753E+3  -6.92149E+3
   6.52315E+3  -6.94984E+3
   6.62656E+3  -6.89595E+3
