 
 $NMID
 ID=''
 FMTDAT='(2E13.5)'
 TRAMP=   1.00000E+0
 VOLUME=   1.00000E+0
 $END
  -1.09280E+4  -9.18690E+3
  -3.67831E+3   2.09589E+3
   3.31970E+3   1.02091E+3
   4.29538E+3  -3.03599E+3
  -1.41860E+3   1.99595E+3
  -1.56478E+3   2.54846E+3
   5.01429E+2  -2.16125E+3
   8.97133E+2  -1.26132E+3
   9.40801E+2   8.29067E+2
  -2.25295E+1   8.17003E+2
  -1.35341E+3   1.95527E+3
  -3.29769E+2   3.72013E+2
  -4.41525E+2  -2.31044E+3
  -9.66852E+2  -7.31369E+1
  -1.65613E+3   1.51224E+3
  -1.12409E+3  -1.44271E+3
   1.53456E+3  -2.25465E+3
   2.31334E+3  -2.74257E+2
  -4.02633E+2   1.81403E+1
  -5.51614E+2  -5.41531E+1
   1.05505E+3   6.23926E+2
   4.85801E+2   5.67113E+2
  -2.24009E+1  -6.35361E+1
   5.61392E+2  -1.13176E+2
  -8.08457E+2   1.37573E+3
  -1.83289E+3   1.13534E+3
   5.83903E+1  -8.47068E+2
   1.23052E+3   6.08342E+0
  -2.87684E+2   7.39473E+2
  -1.14801E+3  -5.94364E+2
   9.97678E+1  -1.38870E+3
   1.12825E+3  -7.26960E+1
   3.99521E+2   4.13204E+2
   1.65696E+2   2.06001E+2
   1.00963E+1   3.20737E+2
  -3.73445E+2  -1.67917E+2
  -2.57273E+2  -5.61297E+2
   4.51369E+2   1.53189E+2
   7.73938E+2   3.40530E+2
  -1.54843E+2   2.72895E+2
   4.85321E+1   3.27887E+2
   3.53218E+2   5.33870E+2
  -2.22349E+2   4.45539E+2
  -7.71877E+2   1.70071E+2
  -5.99126E+2  -1.44058E+2
  -2.52903E+2  -5.40006E+2
   3.57404E+2  -1.15205E+3
   8.58302E+2  -4.99527E+2
   8.43580E+2   6.15727E+2
   2.27617E+2   4.85665E+2
  -3.37849E+1   3.71221E+1
   1.08911E+1   3.20034E+2
  -2.68227E+2   3.42259E+2
  -1.57788E+2  -3.09960E+2
  -2.11381E+2  -1.70958E+2
  -4.32629E+2  -1.94735E+2
  -1.19102E+2   2.16890E+1
   3.36864E+2   3.41472E+2
   1.26986E+2   1.83264E+2
  -1.16647E+2   3.28534E+2
  -4.03675E+2   2.93727E+1
  -6.55586E+2   4.73394E+0
  -1.88139E+2   1.71447E+1
   1.59186E+2  -1.31340E+1
   2.34928E+2  -4.74166E+2
   5.02979E+1  -3.45863E+2
   4.28518E+1  -9.84603E+1
   1.26355E+2   4.26174E+2
   7.03452E+1   5.69215E+2
  -2.01606E+2   5.41191E+1
  -2.58297E+2  -3.79986E+2
  -1.45906E+2   3.48278E+2
  -1.65294E+2   6.19066E+2
  -1.61738E+2   2.38769E+2
  -1.35891E+2  -1.74740E+2
  -1.51216E+2  -1.81773E+1
  -1.29800E+2   3.00131E+1
  -2.27603E+2   3.59154E+2
  -2.67470E+2   1.16632E+2
  -3.04331E+2   1.00842E+1
   1.63169E+2  -3.96766E+2
   2.34858E+2  -2.52011E+1
  -1.04108E+2   1.52870E+2
  -7.03160E+1   1.85498E+2
   5.49769E+1  -1.53267E+2
   2.13579E+2  -5.95896E+1
   1.75893E+2   6.35779E+1
  -1.23463E+2   1.27535E+2
  -3.04519E+2  -1.84350E+2
  -2.65267E+2   6.71913E+0
   2.44538E+2   1.28360E+2
  -8.63224E+1   1.13564E+2
   1.84510E+2  -3.24342E+2
  -2.89672E+2  -4.19809E+2
  -2.32495E+2  -2.08334E+2
  -1.12994E+2  -2.95482E+2
   3.97228E+2   6.95463E+1
   2.46019E+2   5.87986E+1
   1.70734E+2  -2.59324E+2
  -4.55205E+1   1.02002E+2
   7.19911E+1   1.85214E+1
  -1.78549E+2   3.35439E+2
   2.54482E+1   2.51974E+2
  -5.14242E+1  -2.51825E+2
  -7.12735E+0  -2.36411E+2
  -1.53352E+1   1.53156E+2
  -3.00698E+1   1.66210E+2
  -5.52059E+0  -1.45918E+1
   1.33717E+2  -2.91058E+2
  -1.30227E+2  -2.62904E+2
   1.41504E+2   1.88669E+2
   9.86887E+1   1.46674E+2
   6.96560E+1   1.40087E+2
   8.42443E+1   1.61861E+2
   1.71172E+2  -1.21215E+2
  -2.89851E+2  -1.01343E+2
  -4.55608E+1   1.42258E+2
   2.81558E+1   1.23943E+1
   1.84519E+2  -2.25226E+2
   3.43637E+1  -9.77814E+1
  -1.47646E+2  -3.62819E+1
  -7.52116E+0  -2.16121E+0
  -6.54285E+1   1.23266E+2
   1.26733E+2   2.44635E+2
  -2.66564E+2   3.75570E+1
   5.52721E+1  -4.30477E+2
  -1.26249E+2  -1.05200E+2
  -2.34953E+2   9.01123E+1
   2.40874E+2  -5.34048E+0
   1.05554E+2   1.35778E+2
   1.58928E+2   2.07710E+2
  -2.78069E+2  -3.09405E+1
  -1.08600E+2   1.51309E+2
  -8.09693E+1   1.30679E+2
  -8.05663E+1   3.69438E+1
   5.10184E+1   1.48388E+2
   2.35081E+2   1.92560E+1
   1.75664E+2   7.02046E+1
  -6.85945E+0   2.16215E+2
   1.31775E+2  -1.29655E+2
  -9.61960E+1   7.95066E+1
   7.45276E+1  -8.79533E+1
   2.33123E+2   7.81069E+1
   2.28685E+2   1.48793E+2
   6.63254E+1  -1.71524E+1
   2.82676E+1   3.61723E+2
  -1.64246E+2  -1.26927E+2
  -9.82747E+1  -1.50148E+2
  -1.22495E+2  -1.06203E+2
   7.91547E+0   2.00441E+1
  -1.14239E+2  -2.74143E+2
   6.41620E+1   8.97624E+1
   6.99507E+1   7.84587E+1
  -5.04328E+1   9.56971E+1
   1.44869E+2  -3.74798E+1
  -9.17236E+1  -1.39210E+2
  -3.68116E+1  -7.75607E+1
  -6.56361E+1  -1.37932E+0
  -1.55279E+2   1.19954E+2
  -1.25793E+1  -4.77951E+1
  -1.23211E+2   6.39670E+1
  -1.16371E+2  -1.93521E+1
  -9.26897E+1   2.43932E+1
  -9.08251E+1  -1.18089E+2
   2.66515E+2  -8.06988E+1
  -1.34650E+2  -6.28560E+1
  -4.00264E+1  -1.34892E+2
  -1.92689E+0  -2.07916E+2
  -2.22030E+2   4.24310E+1
  -1.07532E+2   1.02852E+2
   2.11527E+2  -9.56059E+1
   4.94858E+1  -2.14892E+2
   4.86916E-1   6.28399E+1
  -1.07065E+2   3.28568E+1
   1.40590E+1   7.71232E+1
   7.33822E+1   2.97798E+1
  -2.69199E+2   1.81605E+2
  -3.10106E+2  -9.69733E+1
   6.32460E+1  -1.06737E+2
  -1.09345E+2  -3.87800E+1
  -1.38918E+2  -5.54402E+1
  -1.29587E+1   2.85477E+1
  -1.35493E+1   6.74144E+1
  -1.82508E+2  -9.98965E+1
   5.02305E+1   8.15586E+0
  -3.61030E+2   1.42827E+2
  -8.85562E+0   7.01247E+1
  -8.26581E+1  -1.12356E+2
   8.19751E+1   7.66925E+1
   2.33074E+1   1.25656E+2
   1.83238E+2   2.29730E+2
  -1.31302E+2   5.71755E+1
   3.74278E+1   2.57935E+2
  -6.85250E+1   1.86709E+2
  -8.60809E+0   5.91212E+1
  -4.61895E+1   2.89554E+2
   1.06389E+1   1.15364E+1
   1.71241E+2   1.62269E+2
  -6.30124E+1   5.47335E+1
   2.95497E+1   2.77329E+1
  -6.02549E+1  -9.59810E+1
   7.22644E+1  -1.11659E+2
   2.18607E+2  -2.52728E+2
  -3.63277E+1   1.12390E+2
  -3.24405E+1   1.81372E+2
  -6.78292E+1  -6.78744E+1
   1.25962E+2   1.61749E+2
  -6.48884E+1   2.43266E+2
   1.40591E+2   2.53596E+2
   8.03422E+1  -4.58655E+1
  -3.44644E+1   5.71766E+1
   4.86331E+1   7.10681E+1
   3.19744E+2   2.73930E+2
   1.86803E+2   1.93690E+2
   2.78533E+1  -9.25279E+0
   1.41940E+2  -3.55382E+1
   5.70245E+1  -1.05042E+2
   3.53103E+1   1.64416E+2
  -8.48563E+1   1.46097E+2
   1.16117E+2   1.90107E+0
   2.85732E+1   3.42634E+0
  -3.11698E+1  -2.07606E+1
   1.70070E+2  -4.83549E+1
   1.01092E+2   1.64871E+2
   1.74439E+2  -1.06400E+1
   1.14947E+2   7.08375E+1
  -2.95606E+1  -1.75716E+2
   2.11688E+2  -2.16490E+2
   2.86615E+1   1.40310E+2
  -1.64084E+2  -1.10917E+1
   1.28577E+2  -1.01701E+2
  -1.80933E+1   6.35098E+1
  -1.72985E+2  -9.05657E+1
   1.96490E+2  -8.85101E+1
   1.63421E+2   3.32322E+1
  -1.87579E+2  -1.56460E+2
  -8.80956E+1  -3.28991E+1
  -1.07228E+2  -9.23609E+1
   4.50911E+1  -5.41476E+1
   4.67945E+1  -2.65705E+2
   6.30058E+1  -2.04056E+1
  -1.13049E+2  -1.01913E+2
   7.92257E+1   2.08577E+2
  -4.86982E+1  -6.58018E+1
   8.28434E+1   7.01720E+1
   3.11475E+2  -3.30111E+2
  -5.11168E+0  -2.09311E+2
  -2.12209E+2   1.08997E+1
   2.16671E+2   9.72060E+0
  -1.10557E+2   1.27679E+2
  -1.73844E+2  -7.41057E+1
   7.07643E+1   1.20536E+1
  -1.72582E+1  -3.06683E+1
   1.34311E+2  -1.33369E+2
   2.68066E+2  -1.49147E+2
   9.54417E+1   1.83897E+2
  -3.02331E+2   1.51440E+2
  -2.40356E+1  -1.34733E+1
  -1.71990E+2  -2.19284E+2
   4.04332E+1   6.19620E+1
  -5.74442E+1   1.20525E+2
   3.80550E+1  -1.20088E+2
   2.32948E+2  -1.71227E+2
   9.27277E-1   5.18563E+0
  -9.39932E+0  -1.37649E+2
  -1.71732E+2   2.64456E+1
   1.00165E+2   1.28560E+2
  -2.40479E+2  -1.53767E+2
   2.29153E+2  -2.10102E+2
  -1.87826E+1  -3.78692E+1
  -5.05767E+1  -1.93940E+2
   3.18496E+1   2.49339E+1
   1.04235E+2  -5.42867E+1
  -6.74254E+0   2.45790E+2
  -6.68909E+1  -8.78089E+1
  -2.14900E+1  -1.25387E+2
   1.90627E+0   1.48309E+1
  -9.05879E+1   1.59816E+2
  -6.46193E+1  -8.24983E+1
   1.88581E+2  -6.68167E+1
   1.88098E+0   7.94550E+1
  -5.62793E+1  -2.39100E+1
   5.10467E+1  -8.37960E+0
   4.22751E+1   2.79018E+2
  -1.95405E+2  -1.30342E+2
  -3.34434E+1   1.75660E+2
   6.72318E+1  -3.56927E+1
   6.56414E+0  -1.67873E+2
   2.42022E+2  -1.29005E+2
  -1.85652E+2  -1.94558E+2
   2.65405E+1   1.40916E+2
   1.39848E+2  -1.09623E+2
   2.54742E+1   5.73115E+1
  -1.43668E+2  -1.22272E+2
   1.61659E+2  -1.91216E+1
  -1.06795E+2  -1.36053E+2
   1.78334E+2  -9.75656E+1
   8.67857E+0   1.37177E+2
  -7.68072E+1   4.00953E+1
  -1.05072E+2   1.03749E+2
   5.37003E+1  -1.04106E+2
  -7.06137E+1  -7.24729E+1
   1.07413E+2   1.73427E+1
  -2.36572E+2   6.66486E+1
   1.16860E+2  -8.03700E+1
   5.21704E+1   1.25113E+1
   1.07645E+1   1.99117E+1
  -1.65755E+2   1.87747E+2
   6.58038E+1   6.69838E+1
  -8.59285E+0  -1.92038E+2
  -1.54732E+1   3.11032E+2
   3.50100E+0   2.40777E+2
   7.76803E+1   3.63689E+1
  -7.26898E+1  -1.57643E+2
   5.09375E+1  -1.48843E+2
  -2.83244E+1   5.15046E+1
   1.23771E+2  -1.12404E+2
   6.00684E+1   2.61394E+1
   4.76119E+1  -2.73336E+2
   1.56791E+2   6.01657E+0
  -5.39972E+1  -1.60643E+2
  -9.42330E+0   2.97141E+1
  -2.16981E+1   9.35647E+1
  -6.78496E+1  -1.27804E+2
  -1.81385E+2   1.87785E+2
   2.30833E+1  -1.54376E+2
  -1.33299E+2  -6.66164E+1
   6.72072E+1  -9.77427E+1
   7.29582E+1  -6.72875E+1
  -9.95507E+1  -1.10388E+2
  -6.46165E+1   1.36206E+2
  -8.50227E-3   1.50727E+1
  -1.49141E+1  -1.18676E+2
   5.00825E+1  -4.94515E+1
  -1.32240E+0   2.27421E+1
   1.23199E+2   4.31523E+2
   1.91515E+2   5.26931E+1
  -6.28850E+1  -1.05445E+2
  -1.43401E+2  -1.18226E+2
   1.69625E+2   2.24330E+2
  -7.86714E+0   1.26927E+2
  -2.24990E+1  -6.41689E+1
   4.10336E+1   2.16594E+1
   8.98508E+1  -4.37087E+1
   5.83633E+1   9.51010E+1
   1.00303E+2  -1.30493E+2
   7.16346E+1   1.29334E+1
   1.17467E+2  -1.16349E+2
   1.48939E+2   1.43023E+2
   2.23325E+2  -3.15923E+1
   7.15849E+1   1.55588E+2
  -5.84130E+1   7.48613E+0
   2.71204E+1   2.16227E+1
   1.42859E+2  -5.95834E+1
   2.81263E+2   8.81521E+0
  -4.44483E+1  -2.29754E+2
   1.41375E+2  -5.02172E+1
   1.73770E+2   7.61838E+0
  -5.38862E+1   1.50143E+1
   4.08469E+0   1.59119E+2
   2.20054E+2  -2.62900E+2
   1.35756E+2   4.70180E+1
  -1.09883E+1   1.06962E+2
   3.70647E+1   6.67301E+1
   2.05921E+2   5.09539E+1
   3.87842E+1  -1.40677E+2
   2.37635E+2   7.21032E+1
