 LCModel (Version 6.3-1N) Copyright: S.W. Provencher.          Ref.: Magn. Reson. Med. 30:672-679 (1993).                
 Slice_N1@13_23  28-Feb-2025 11:40:30
 27 lines in following concentration table = NCONC+1
    Conc.  %SD /Cr+PCr  Metabolite                                         
 2.93E-04   4% 3.0E-04 Mac                                                 
    1.045 238%   1.076 Cr                                                  
    6.727  37%   6.924 PCr                                                 
    9.190  12%   9.459 Ins                                                 
   12.720   9%  13.093 NAA                                                 
    6.147  18%   6.327 Tau                                                 
    1.018  40%   1.047 PCho                                                
    0.000 999%   0.000 GPC                                                 
   12.439  10%  12.803 Glu                                                 
    1.716  51%   1.766 Gln                                                 
    0.000 999%   0.000 Ala                                                 
    2.549  62%   2.623 Asc                                                 
    1.340  86%   1.379 Asp                                                 
    0.968  65%   0.996 GABA                                                
    0.000 999%   0.000 Glc                                                 
    0.233 191%   0.240 GSH                                                 
    6.082  15%   6.261 Lac                                                 
    2.593  33%   2.669 NAAG                                                
    3.559  42%   3.664 PE                                                  
    1.018  40%   1.047 GPC+PCho                                            
   15.314   6%  15.762 NAA+NAAG                                            
   14.155  10%  14.569 Glu+Gln                                             
    7.772  11%   8.000 Cr+PCr                                              
   15.314   6%  15.762 NAA+NAAG                                            
    7.772  11%   8.000 Cr+PCr                                              
   14.155  10%  14.569 Glu+Gln                                             
   6 lines in following misc. output table
  FWHM = 0.049 ppm    S/N =   3                                            
  Data shift = 0.000 ppm                                                   
  Ph: -59 deg       0.0 deg/ppm                                            
  alphaB,S = 1.5E+00,   2.8E+01                                            
   19 spline knots.   Ns = 6(1)                                            
  ( 5) 4 infls.   ( 3) 1 extrs.                                            
  480 points on ppm-axis = NY
      4.100000     4.091866     4.083733     4.075600     4.067466     4.059333     4.051199     4.043066     4.034933     4.026799
      4.018666     4.010532     4.002399     3.994265     3.986132     3.977998     3.969864     3.961731     3.953597     3.945463
      3.937330     3.929196     3.921062     3.912929     3.904795     3.896662     3.888528     3.880394     3.872261     3.864127
      3.855993     3.847860     3.839726     3.831592     3.823459     3.815325     3.807191     3.799058     3.790924     3.782790
      3.774657     3.766523     3.758389     3.750256     3.742122     3.733989     3.725855     3.717721     3.709588     3.701454
      3.693320     3.685187     3.677053     3.668919     3.660786     3.652652     3.644518     3.636385     3.628251     3.620117
      3.611984     3.603850     3.595716     3.587583     3.579449     3.571316     3.563182     3.555048     3.546915     3.538781
      3.530647     3.522514     3.514380     3.506246     3.498113     3.489979     3.481845     3.473712     3.465578     3.457444
      3.449311     3.441177     3.433043     3.424910     3.416776     3.408643     3.400509     3.392375     3.384242     3.376108
      3.367974     3.359841     3.351707     3.343573     3.335440     3.327306     3.319172     3.311039     3.302905     3.294771
      3.286638     3.278504     3.270370     3.262237     3.254103     3.245970     3.237836     3.229702     3.221569     3.213435
      3.205301     3.197168     3.189034     3.180900     3.172767     3.164633     3.156499     3.148366     3.140232     3.132098
      3.123965     3.115831     3.107697     3.099564     3.091430     3.083297     3.075163     3.067029     3.058896     3.050762
      3.042628     3.034495     3.026361     3.018227     3.010094     3.001960     2.993826     2.985693     2.977559     2.969425
      2.961292     2.953158     2.945024     2.936891     2.928757     2.920624     2.912490     2.904356     2.896223     2.888089
      2.879955     2.871822     2.863688     2.855554     2.847421     2.839287     2.831153     2.823020     2.814886     2.806752
      2.798619     2.790485     2.782351     2.774218     2.766084     2.757951     2.749817     2.741683     2.733550     2.725416
      2.717282     2.709149     2.701015     2.692881     2.684748     2.676614     2.668480     2.660347     2.652213     2.644079
      2.635946     2.627812     2.619678     2.611545     2.603411     2.595278     2.587144     2.579010     2.570877     2.562743
      2.554609     2.546476     2.538342     2.530208     2.522075     2.513941     2.505807     2.497674     2.489540     2.481406
      2.473273     2.465139     2.457006     2.448872     2.440738     2.432605     2.424471     2.416337     2.408204     2.400070
      2.391936     2.383803     2.375669     2.367535     2.359402     2.351268     2.343134     2.335001     2.326867     2.318733
      2.310600     2.302466     2.294333     2.286199     2.278065     2.269932     2.261798     2.253664     2.245531     2.237397
      2.229263     2.221130     2.212996     2.204862     2.196729     2.188595     2.180461     2.172328     2.164194     2.156060
      2.147927     2.139793     2.131660     2.123526     2.115392     2.107259     2.099125     2.090991     2.082858     2.074724
      2.066590     2.058457     2.050323     2.042189     2.034056     2.025922     2.017788     2.009655     2.001521     1.993387
      1.985254     1.977120     1.968987     1.960853     1.952719     1.944586     1.936452     1.928318     1.920185     1.912051
      1.903917     1.895784     1.887650     1.879516     1.871383     1.863249     1.855115     1.846982     1.838848     1.830714
      1.822581     1.814447     1.806314     1.798180     1.790046     1.781913     1.773779     1.765645     1.757512     1.749378
      1.741244     1.733111     1.724977     1.716843     1.708710     1.700576     1.692442     1.684309     1.676175     1.668041
      1.659908     1.651774     1.643641     1.635507     1.627373     1.619240     1.611106     1.602972     1.594839     1.586705
      1.578571     1.570438     1.562304     1.554170     1.546037     1.537903     1.529769     1.521636     1.513502     1.505368
      1.497235     1.489101     1.480968     1.472834     1.464700     1.456567     1.448433     1.440299     1.432166     1.424032
      1.415898     1.407765     1.399631     1.391497     1.383364     1.375230     1.367096     1.358963     1.350829     1.342695
      1.334562     1.326428     1.318295     1.310161     1.302027     1.293894     1.285760     1.277626     1.269493     1.261359
      1.253225     1.245092     1.236958     1.228824     1.220691     1.212557     1.204423     1.196290     1.188156     1.180022
      1.171889     1.163755     1.155622     1.147488     1.139354     1.131221     1.123087     1.114953     1.106820     1.098686
      1.090552     1.082419     1.074285     1.066151     1.058018     1.049884     1.041750     1.033617     1.025483     1.017349
      1.009216     1.001082     0.992949     0.984815     0.976681     0.968548     0.960414     0.952280     0.944147     0.936013
      0.927879     0.919746     0.911612     0.903478     0.895345     0.887211     0.879077     0.870944     0.862810     0.854676
      0.846543     0.838409     0.830276     0.822142     0.814008     0.805875     0.797741     0.789607     0.781474     0.773340
      0.765206     0.757073     0.748939     0.740805     0.732672     0.724538     0.716404     0.708271     0.700137     0.692003
      0.683870     0.675736     0.667603     0.659469     0.651335     0.643202     0.635068     0.626934     0.618801     0.610667
      0.602533     0.594400     0.586266     0.578132     0.569999     0.561865     0.553731     0.545598     0.537464     0.529330
      0.521197     0.513063     0.504930     0.496796     0.488662     0.480529     0.472395     0.464261     0.456128     0.447994
      0.439861     0.431727     0.423593     0.415460     0.407326     0.399192     0.391059     0.382925     0.374792     0.366658
      0.358524     0.350391     0.342257     0.334124     0.325990     0.317856     0.309723     0.301589     0.293455     0.285322
      0.277188     0.269055     0.260921     0.252787     0.244654     0.236520     0.228386     0.220253     0.212119     0.203986
 NY phased data points follow
   7.57663E+01  8.94120E+01  8.89209E+01  8.64474E+01  8.45603E+01  7.02627E+01  8.26479E+01  9.90472E+01  1.06935E+02  9.00210E+01
   1.08273E+02  1.15459E+02  1.04296E+02  1.13921E+02  1.09386E+02  1.09192E+02  1.02682E+02  1.11607E+02  1.01273E+02  9.36096E+01
   9.12531E+01  8.63847E+01  1.15367E+02  1.22598E+02  1.23470E+02  1.47494E+02  1.62704E+02  1.56517E+02  1.64825E+02  1.63098E+02
   1.45147E+02  1.57292E+02  1.64605E+02  1.53553E+02  1.45212E+02  1.43396E+02  1.50173E+02  1.39756E+02  1.29239E+02  1.24703E+02
   9.88135E+01  9.00586E+01  1.05319E+02  1.06541E+02  8.58608E+01  1.10288E+02  1.38267E+02  1.28705E+02  1.47371E+02  1.59299E+02
   1.53412E+02  1.55519E+02  1.69184E+02  1.46205E+02  1.30833E+02  1.34788E+02  1.15031E+02  1.21783E+02  1.07309E+02  9.22291E+01
   9.59229E+01  9.99875E+01  1.06285E+02  1.09730E+02  1.26809E+02  1.32538E+02  1.26179E+02  1.08961E+02  1.05061E+02  1.15864E+02
   1.03906E+02  8.82722E+01  1.02194E+02  1.04561E+02  1.06964E+02  1.20469E+02  1.07905E+02  1.36378E+02  1.47095E+02  1.21726E+02
   1.31588E+02  1.22139E+02  1.36899E+02  1.32634E+02  9.28657E+01  1.08926E+02  9.44351E+01  1.06989E+02  1.26035E+02  1.10669E+02
   1.37291E+02  1.26750E+02  1.40504E+02  1.44959E+02  1.42190E+02  1.65911E+02  1.58536E+02  1.71447E+02  1.60300E+02  1.52877E+02
   1.45782E+02  1.50258E+02  1.48692E+02  1.18081E+02  1.24573E+02  1.06173E+02  9.24021E+01  8.32984E+01  6.12193E+01  5.70288E+01
   3.22755E+01  1.08897E+01  3.34218E+01  3.11678E+01  2.36857E+00  2.40829E+01  5.44135E+01  5.59291E+01  4.97163E+01  7.06277E+01
   8.45309E+01  7.69235E+01  7.26454E+01  7.74628E+01  9.20696E+01  9.65668E+01  1.16392E+02  1.24617E+02  1.36294E+02  1.56329E+02
   1.65397E+02  1.56311E+02  1.05414E+02  8.61252E+01  7.41651E+01  4.87358E+01  1.79926E+01 -1.43618E+01  7.37171E+00  6.80600E+00
  -9.91261E+00  8.25046E+00  3.19562E+00 -3.47503E+00  5.48815E+00  8.10975E+00 -2.40667E-01 -4.07820E+00  5.88618E+00  6.39612E+00
   1.02203E+01  1.71834E+01  2.39266E+01  2.64111E+01  2.45845E+01  3.58478E+01  4.07362E+01  4.19109E+01  3.47921E+01  3.40970E+01
   6.66336E+01  7.36103E+01  4.44863E+01  4.13197E+01  5.16164E+01  4.44526E+01  4.06572E+01  4.10435E+01  4.05020E+01  4.75807E+01
   5.22664E+01  6.37777E+01  7.50091E+01  7.82735E+01  9.00858E+01  9.34605E+01  9.44472E+01  8.52754E+01  7.56939E+01  5.69899E+01
   3.08643E+01  4.62103E+01  3.94060E+01  1.87169E+01  1.34831E+01  1.62511E+01  3.10359E+01  2.37467E+01  1.15090E+01  7.52528E+00
   7.94348E+00  1.79960E+01  3.73337E+01  2.51623E+01  1.82112E+01  3.90434E+01  4.28204E+01  4.66518E+01  5.63139E+01  5.54266E+01
   3.99921E+01  5.35513E+01  5.88878E+01  5.27126E+01  4.20583E+01  3.35734E+01  4.63194E+01  1.74419E+01  1.28458E+01  1.96262E+01
   1.87273E+01  6.90280E+00 -3.07780E-01  3.74337E+01  2.86602E+01  3.72933E+01  6.66060E+01  7.29135E+01  8.89275E+01  9.32492E+01
   9.13935E+01  8.92959E+01  7.78597E+01  5.46389E+01  5.05846E+01  4.95085E+01  5.30792E+01  5.66974E+01  5.35573E+01  6.76939E+01
   5.93548E+01  5.55633E+01  5.47623E+01  3.48629E+01  3.27723E+01  1.99759E+01 -2.19777E+00 -1.62876E+01 -1.86879E+01 -1.17257E+01
  -1.36307E+01 -1.74745E+01 -3.26108E+01 -1.87575E+01 -4.53765E+00 -1.50807E+01 -6.87559E+00 -3.77579E-01  1.40435E+01  1.83299E+00
  -1.05726E+01 -1.83571E+01 -2.29658E+01 -2.31749E+01 -6.21559E+01 -5.28061E+01 -4.33608E+01 -6.20644E+00  8.70405E+01  1.30408E+02
   1.29541E+02  1.58932E+02  2.31923E+02  2.07379E+02  1.71626E+02  1.72383E+02  1.57447E+02  1.56412E+02  1.39544E+02  1.38255E+02
   1.12773E+02  1.22830E+02  1.41582E+02  1.06626E+02  1.14481E+02  1.19847E+02  1.19299E+02  1.33136E+02  1.36008E+02  1.23469E+02
   1.02901E+02  9.97229E+01  1.14946E+02  1.18524E+02  1.13407E+02  1.19657E+02  1.19331E+02  1.02537E+02  8.67170E+01  9.62304E+01
   8.15080E+01  7.52890E+01  8.79285E+01  7.47189E+01  8.83690E+01  8.60168E+01  6.65484E+01  5.84299E+01  5.63934E+01  6.28430E+01
   7.10935E+01  8.10486E+01  7.29382E+01  7.76929E+01  8.38269E+01  7.97636E+01  8.27821E+01  9.75867E+01  1.02071E+02  8.36018E+01
   8.50412E+01  9.00496E+01  1.05456E+02  1.17352E+02  9.59846E+01  8.19591E+01  8.72540E+01  9.69638E+01  9.54117E+01  9.85859E+01
   1.01605E+02  9.07077E+01  1.08057E+02  1.46935E+02  1.58236E+02  1.62945E+02  1.75718E+02  1.53597E+02  1.35421E+02  1.38870E+02
   1.10565E+02  8.48993E+01  7.70285E+01  6.71591E+01  4.02155E+01  3.49700E+01  4.29650E+01 -4.85898E-01 -2.75887E+00  1.49173E+00
  -1.01767E+01  2.84960E+00 -2.71319E+00  5.72007E+00  4.27401E+00  1.47509E+01  1.18463E+01 -4.91642E+00  1.03316E+01  1.26749E+01
   1.75546E+01  2.69128E+01  3.49121E+01  2.31572E+01  3.28930E+01  3.64266E+01  1.25803E+01  1.30131E+01  1.08723E+01  2.59435E+01
   1.71144E+01  4.43136E+00  1.88353E+01  1.97763E+01  1.13684E+01  1.47136E+01  2.43477E+01  1.44697E+01  2.65183E+01  3.60219E+01
   4.32335E+01  4.89939E+01  5.40431E+01  6.43688E+01  4.90517E+01  6.23677E+01  6.49280E+01  7.10504E+01  8.88807E+01  8.39204E+01
   9.36325E+01  8.70159E+01  8.62284E+01  8.82977E+01  9.91047E+01  1.15855E+02  1.19579E+02  1.36038E+02  1.39441E+02  1.55169E+02
   1.53128E+02  1.38168E+02  1.41180E+02  1.23678E+02  1.16216E+02  1.04269E+02  9.44576E+01  9.15762E+01  7.73358E+01  7.52567E+01
   7.08713E+01  6.34005E+01  4.79363E+01  3.55780E+01  4.45786E+01  4.04934E+01  2.96346E+01  2.56515E+01  1.62980E+01  2.74286E+01
   2.46256E+01  4.95806E+00  2.90495E+00  2.45225E+00  2.54959E+01  2.86053E+01  2.06987E+01  1.89726E+01  2.18334E+00  1.73126E+01
   2.53996E+01  2.02176E+01  1.30563E+01  8.59227E+00  2.37802E+01  1.00570E+01 -1.65151E-01  1.30360E+01  1.44184E+01  1.55613E+01
   6.63375E+00  8.56838E+00  1.70125E+01  5.07191E+00  8.42804E+00  8.78209E+00  2.05858E+01  2.09202E+01 -5.17813E+00  1.43061E+01
   1.85800E+01  1.75958E+01  2.40832E+01  4.75097E+00  2.64644E+01  1.86828E+01 -7.43599E+00  1.11047E+01  4.70500E+00  1.59606E+01
   1.63760E+01  6.02313E+00  2.61943E+01  1.98486E+01  1.99897E+01  2.41066E+01  2.67333E+01  1.48329E+01  1.17917E+01  8.32521E+00
   2.53708E+00  2.03174E+01 -7.30689E-01  2.54734E+01  2.06856E+01 -3.73996E-01  3.04783E+01  1.02033E+01  1.60064E+01  1.94370E+01
   1.77522E+01  1.44288E+01  8.17792E+00  1.80852E+01  1.28410E+01  2.06240E+01  2.33592E+01  2.53243E+01  1.58389E+01  1.76818E+01
 NY points of the fit to the data follow
   1.03945E+02  1.03630E+02  1.01521E+02  9.89999E+01  9.80440E+01  9.99172E+01  1.03708E+02  1.06992E+02  1.08030E+02  1.07600E+02
   1.06453E+02  1.03380E+02  9.82877E+01  9.34108E+01  9.02693E+01  8.84635E+01  8.65952E+01  8.29650E+01  7.80038E+01  7.52050E+01
   7.75504E+01  8.65718E+01  9.99412E+01  1.12845E+02  1.24588E+02  1.36979E+02  1.47698E+02  1.52835E+02  1.53911E+02  1.53625E+02
   1.52815E+02  1.51902E+02  1.50943E+02  1.49620E+02  1.47625E+02  1.44792E+02  1.40958E+02  1.35707E+02  1.28598E+02  1.19699E+02
   1.09915E+02  1.01164E+02  9.54070E+01  9.40053E+01  9.73347E+01  1.04910E+02  1.15251E+02  1.26092E+02  1.36044E+02  1.44144E+02
   1.49396E+02  1.51232E+02  1.50239E+02  1.46730E+02  1.40725E+02  1.33038E+02  1.24062E+02  1.14526E+02  1.05720E+02  9.80672E+01
   9.35216E+01  9.37535E+01  9.68726E+01  1.02334E+02  1.11417E+02  1.20890E+02  1.25316E+02  1.24061E+02  1.18364E+02  1.08700E+02
   9.83534E+01  9.11720E+01  8.73653E+01  8.67356E+01  9.19634E+01  1.03006E+02  1.14709E+02  1.24094E+02  1.31940E+02  1.37197E+02
   1.37636E+02  1.33124E+02  1.25480E+02  1.16605E+02  1.08825E+02  1.04052E+02  1.02808E+02  1.04986E+02  1.10025E+02  1.17064E+02
   1.24590E+02  1.31887E+02  1.38141E+02  1.43109E+02  1.47332E+02  1.51225E+02  1.54633E+02  1.57071E+02  1.58530E+02  1.58787E+02
   1.57060E+02  1.52868E+02  1.45163E+02  1.33671E+02  1.20778E+02  1.07429E+02  9.31682E+01  7.76742E+01  6.04842E+01  4.18635E+01
   2.42606E+01  1.28213E+01  8.72053E+00  8.89989E+00  1.14020E+01  1.83815E+01  3.00314E+01  4.16888E+01  5.12256E+01  5.92338E+01
   6.63876E+01  7.31972E+01  8.00864E+01  8.74273E+01  9.55940E+01  1.05119E+02  1.16442E+02  1.30148E+02  1.46359E+02  1.60535E+02
   1.64382E+02  1.53510E+02  1.28796E+02  9.91359E+01  7.38050E+01  5.10253E+01  2.76797E+01  1.07751E+01  6.40255E+00  7.74895E+00
   9.04172E+00  9.87245E+00  1.05382E+01  1.11529E+01  1.18902E+01  1.28708E+01  1.42102E+01  1.58962E+01  1.78389E+01  2.00176E+01
   2.23822E+01  2.47764E+01  2.70872E+01  2.92809E+01  3.13200E+01  3.31375E+01  3.46713E+01  3.59674E+01  3.72445E+01  3.86078E+01
   3.97915E+01  4.05452E+01  4.09760E+01  4.14115E+01  4.21544E+01  4.31607E+01  4.41347E+01  4.50386E+01  4.66691E+01  5.01184E+01
   5.54559E+01  6.12551E+01  6.54996E+01  6.78270E+01  7.00738E+01  7.36017E+01  7.66074E+01  7.58075E+01  7.08700E+01  6.45920E+01
   5.89606E+01  5.29929E+01  4.56220E+01  3.82508E+01  3.28469E+01  2.96716E+01  2.77441E+01  2.64983E+01  2.59153E+01  2.59840E+01
   2.66462E+01  2.83786E+01  3.15223E+01  3.56743E+01  4.04448E+01  4.48876E+01  4.87327E+01  5.30250E+01  5.68468E+01  5.84184E+01
   5.83577E+01  5.84788E+01  5.82443E+01  5.58571E+01  5.11461E+01  4.53163E+01  3.94140E+01  3.27067E+01  2.49085E+01  1.75460E+01
   1.22155E+01  9.87937E+00  1.17866E+01  1.94249E+01  3.21528E+01  4.86404E+01  6.63126E+01  8.10432E+01  9.10999E+01  9.63461E+01
   9.64939E+01  9.25879E+01  8.77009E+01  8.28860E+01  7.83705E+01  7.52663E+01  7.29592E+01  7.00756E+01  6.57000E+01  5.93550E+01
   5.13407E+01  4.20895E+01  3.20612E+01  2.21436E+01  1.29649E+01  4.90817E+00 -1.40733E+00 -5.95508E+00 -9.12991E+00 -1.08997E+01
  -1.13348E+01 -1.07301E+01 -9.00454E+00 -6.48231E+00 -3.89982E+00 -1.82954E+00 -7.85466E-01 -1.16700E+00 -3.49094E+00 -8.14443E+00
  -1.51583E+01 -2.30787E+01 -3.13481E+01 -4.18982E+01 -5.16478E+01 -5.12977E+01 -3.30491E+01  6.84690E+00  5.57867E+01  9.45040E+01
   1.23974E+02  1.54448E+02  1.77529E+02  1.80479E+02  1.71991E+02  1.62491E+02  1.54198E+02  1.47023E+02  1.40893E+02  1.35796E+02
   1.31746E+02  1.28716E+02  1.26720E+02  1.25671E+02  1.25284E+02  1.25284E+02  1.25378E+02  1.25319E+02  1.24937E+02  1.24205E+02
   1.23050E+02  1.21455E+02  1.19601E+02  1.17573E+02  1.15394E+02  1.13061E+02  1.10592E+02  1.08059E+02  1.05440E+02  1.02610E+02
   9.95029E+01  9.61380E+01  9.25644E+01  8.88672E+01  8.52279E+01  8.19498E+01  7.94079E+01  7.78087E+01  7.71374E+01  7.73520E+01
   7.83952E+01  8.01080E+01  8.22889E+01  8.47143E+01  8.71816E+01  8.96014E+01  9.19769E+01  9.43264E+01  9.66532E+01  9.89761E+01
   1.01245E+02  1.03377E+02  1.05385E+02  1.07290E+02  1.09007E+02  1.10426E+02  1.11466E+02  1.12054E+02  1.12159E+02  1.11746E+02
   1.10744E+02  1.09187E+02  1.07132E+02  1.04534E+02  1.01426E+02  9.78554E+01  9.36105E+01  8.84335E+01  8.23454E+01  7.56521E+01
   6.87542E+01  6.21171E+01  5.63050E+01  5.20810E+01  5.02183E+01  5.12776E+01  5.51194E+01  5.98260E+01  6.23776E+01  6.02295E+01
   5.19304E+01  3.99381E+01  2.77700E+01  1.72062E+01  1.00182E+01  7.58301E+00  9.51622E+00  1.43221E+01  2.15088E+01  2.85855E+01
   3.34819E+01  3.61348E+01  3.69964E+01  3.64769E+01  3.49097E+01  3.26384E+01  3.01289E+01  2.78863E+01  2.62445E+01  2.54339E+01
   2.56577E+01  2.69436E+01  2.91299E+01  3.19770E+01  3.52638E+01  3.87744E+01  4.23483E+01  4.58914E+01  4.93380E+01  5.26770E+01
   5.59351E+01  5.91509E+01  6.23498E+01  6.56069E+01  6.90346E+01  7.26946E+01  7.66590E+01  8.10389E+01  8.58750E+01  9.11844E+01
   9.70289E+01  1.03360E+02  1.10078E+02  1.17151E+02  1.24352E+02  1.31115E+02  1.36808E+02  1.40776E+02  1.42271E+02  1.40804E+02
   1.36489E+02  1.29899E+02  1.21771E+02  1.12859E+02  1.03788E+02  9.50067E+01  8.66482E+01  7.85060E+01  7.02771E+01  6.19148E+01
   5.35460E+01  4.53037E+01  3.75206E+01  3.05778E+01  2.46587E+01  1.98171E+01  1.61018E+01  1.33701E+01  1.12959E+01  9.67207E+00
   8.42063E+00  7.47000E+00  6.73777E+00  6.16613E+00  5.74880E+00  5.47781E+00  5.34522E+00  5.29464E+00  5.25400E+00  5.21924E+00
   5.25099E+00  5.38017E+00  5.48505E+00  5.51633E+00  5.58800E+00  5.74884E+00  5.87164E+00  5.91309E+00  5.99984E+00  6.18497E+00
   6.40989E+00  6.57394E+00  6.66226E+00  6.74037E+00  6.83289E+00  6.90694E+00  6.97817E+00  7.10366E+00  7.27326E+00  7.48959E+00
   7.74876E+00  8.00989E+00  8.23104E+00  8.39565E+00  8.48195E+00  8.49212E+00  8.50192E+00  8.56046E+00  8.66013E+00  8.75550E+00
   8.84850E+00  8.97574E+00  9.11937E+00  9.25812E+00  9.43510E+00  9.64888E+00  9.84245E+00  1.00454E+01  1.02964E+01  1.05459E+01
   1.07537E+01  1.09220E+01  1.10346E+01  1.11007E+01  1.11640E+01  1.12492E+01  1.13981E+01  1.16343E+01  1.19624E+01  1.23249E+01
   1.26420E+01  1.28663E+01  1.30408E+01  1.32050E+01  1.33422E+01  1.34714E+01  1.36213E+01  1.38149E+01  1.40743E+01  1.43793E+01
 NY background values follow
     1.346E+02    1.342E+02    1.339E+02    1.335E+02    1.332E+02    1.328E+02    1.325E+02    1.321E+02    1.317E+02    1.314E+02
     1.310E+02    1.307E+02    1.303E+02    1.300E+02    1.296E+02    1.293E+02    1.289E+02    1.286E+02    1.282E+02    1.279E+02
     1.275E+02    1.271E+02    1.268E+02    1.264E+02    1.261E+02    1.257E+02    1.254E+02    1.250E+02    1.247E+02    1.243E+02
     1.240E+02    1.236E+02    1.232E+02    1.229E+02    1.225E+02    1.222E+02    1.218E+02    1.215E+02    1.211E+02    1.208E+02
     1.204E+02    1.201E+02    1.197E+02    1.194E+02    1.190E+02    1.186E+02    1.183E+02    1.179E+02    1.176E+02    1.172E+02
     1.169E+02    1.165E+02    1.162E+02    1.158E+02    1.155E+02    1.151E+02    1.147E+02    1.144E+02    1.140E+02    1.137E+02
     1.133E+02    1.130E+02    1.126E+02    1.123E+02    1.119E+02    1.116E+02    1.112E+02    1.109E+02    1.105E+02    1.101E+02
     1.098E+02    1.094E+02    1.091E+02    1.087E+02    1.084E+02    1.080E+02    1.077E+02    1.073E+02    1.070E+02    1.066E+02
     1.063E+02    1.059E+02    1.056E+02    1.052E+02    1.049E+02    1.045E+02    1.042E+02    1.038E+02    1.035E+02    1.031E+02
     1.028E+02    1.024E+02    1.021E+02    1.017E+02    1.014E+02    1.010E+02    1.007E+02    1.003E+02    9.996E+01    9.961E+01
     9.926E+01    9.891E+01    9.857E+01    9.822E+01    9.787E+01    9.752E+01    9.718E+01    9.683E+01    9.649E+01    9.614E+01
     9.580E+01    9.545E+01    9.511E+01    9.476E+01    9.442E+01    9.407E+01    9.373E+01    9.339E+01    9.305E+01    9.270E+01
     9.236E+01    9.202E+01    9.168E+01    9.134E+01    9.100E+01    9.066E+01    9.032E+01    8.998E+01    8.965E+01    8.931E+01
     8.897E+01    8.863E+01    8.830E+01    8.796E+01    8.763E+01    8.729E+01    8.696E+01    8.662E+01    8.629E+01    8.596E+01
     8.562E+01    8.529E+01    8.496E+01    8.463E+01    8.430E+01    8.397E+01    8.364E+01    8.331E+01    8.298E+01    8.266E+01
     8.233E+01    8.200E+01    8.168E+01    8.135E+01    8.103E+01    8.071E+01    8.038E+01    8.006E+01    7.974E+01    7.942E+01
     7.910E+01    7.878E+01    7.846E+01    7.814E+01    7.782E+01    7.750E+01    7.719E+01    7.687E+01    7.655E+01    7.624E+01
     7.592E+01    7.561E+01    7.530E+01    7.499E+01    7.468E+01    7.436E+01    7.405E+01    7.375E+01    7.344E+01    7.313E+01
     7.282E+01    7.252E+01    7.221E+01    7.191E+01    7.160E+01    7.130E+01    7.100E+01    7.069E+01    7.039E+01    7.009E+01
     6.979E+01    6.949E+01    6.920E+01    6.890E+01    6.860E+01    6.831E+01    6.801E+01    6.772E+01    6.742E+01    6.713E+01
     6.684E+01    6.655E+01    6.626E+01    6.597E+01    6.568E+01    6.539E+01    6.511E+01    6.482E+01    6.453E+01    6.425E+01
     6.397E+01    6.368E+01    6.340E+01    6.312E+01    6.284E+01    6.256E+01    6.228E+01    6.200E+01    6.173E+01    6.145E+01
     6.118E+01    6.090E+01    6.063E+01    6.035E+01    6.008E+01    5.981E+01    5.954E+01    5.927E+01    5.900E+01    5.874E+01
     5.847E+01    5.820E+01    5.794E+01    5.767E+01    5.741E+01    5.715E+01    5.688E+01    5.662E+01    5.636E+01    5.610E+01
     5.584E+01    5.559E+01    5.533E+01    5.507E+01    5.482E+01    5.456E+01    5.431E+01    5.405E+01    5.380E+01    5.355E+01
     5.330E+01    5.305E+01    5.280E+01    5.255E+01    5.231E+01    5.206E+01    5.181E+01    5.157E+01    5.132E+01    5.108E+01
     5.084E+01    5.060E+01    5.036E+01    5.012E+01    4.988E+01    4.964E+01    4.940E+01    4.916E+01    4.893E+01    4.869E+01
     4.846E+01    4.822E+01    4.799E+01    4.776E+01    4.753E+01    4.730E+01    4.707E+01    4.684E+01    4.661E+01    4.638E+01
     4.616E+01    4.593E+01    4.571E+01    4.548E+01    4.526E+01    4.504E+01    4.482E+01    4.460E+01    4.438E+01    4.416E+01
     4.394E+01    4.372E+01    4.351E+01    4.329E+01    4.308E+01    4.286E+01    4.265E+01    4.244E+01    4.223E+01    4.202E+01
     4.181E+01    4.160E+01    4.139E+01    4.118E+01    4.098E+01    4.077E+01    4.057E+01    4.036E+01    4.016E+01    3.996E+01
     3.976E+01    3.956E+01    3.936E+01    3.916E+01    3.896E+01    3.876E+01    3.857E+01    3.837E+01    3.818E+01    3.798E+01
     3.779E+01    3.760E+01    3.741E+01    3.722E+01    3.703E+01    3.684E+01    3.665E+01    3.646E+01    3.627E+01    3.609E+01
     3.590E+01    3.572E+01    3.553E+01    3.535E+01    3.517E+01    3.498E+01    3.480E+01    3.462E+01    3.444E+01    3.426E+01
     3.409E+01    3.391E+01    3.373E+01    3.356E+01    3.338E+01    3.321E+01    3.303E+01    3.286E+01    3.269E+01    3.252E+01
     3.235E+01    3.218E+01    3.201E+01    3.184E+01    3.167E+01    3.151E+01    3.134E+01    3.118E+01    3.101E+01    3.085E+01
     3.068E+01    3.052E+01    3.036E+01    3.020E+01    3.004E+01    2.988E+01    2.972E+01    2.956E+01    2.941E+01    2.925E+01
     2.909E+01    2.894E+01    2.878E+01    2.863E+01    2.848E+01    2.832E+01    2.817E+01    2.802E+01    2.787E+01    2.772E+01
     2.757E+01    2.742E+01    2.727E+01    2.712E+01    2.697E+01    2.682E+01    2.668E+01    2.653E+01    2.638E+01    2.624E+01
     2.609E+01    2.595E+01    2.580E+01    2.566E+01    2.551E+01    2.537E+01    2.523E+01    2.509E+01    2.494E+01    2.480E+01
     2.466E+01    2.452E+01    2.438E+01    2.424E+01    2.410E+01    2.396E+01    2.382E+01    2.368E+01    2.354E+01    2.340E+01
     2.326E+01    2.312E+01    2.298E+01    2.285E+01    2.271E+01    2.257E+01    2.243E+01    2.230E+01    2.216E+01    2.202E+01
     2.189E+01    2.175E+01    2.161E+01    2.148E+01    2.134E+01    2.120E+01    2.107E+01    2.093E+01    2.080E+01    2.066E+01
     2.053E+01    2.039E+01    2.025E+01    2.012E+01    1.998E+01    1.985E+01    1.971E+01    1.958E+01    1.945E+01    1.931E+01
     1.918E+01    1.904E+01    1.891E+01    1.877E+01    1.864E+01    1.850E+01    1.837E+01    1.824E+01    1.810E+01    1.797E+01
     1.783E+01    1.770E+01    1.756E+01    1.743E+01    1.730E+01    1.716E+01    1.703E+01    1.689E+01    1.676E+01    1.663E+01
     1.649E+01    1.636E+01    1.623E+01    1.609E+01    1.596E+01    1.582E+01    1.569E+01    1.556E+01    1.542E+01    1.529E+01
     1.516E+01    1.502E+01    1.489E+01    1.475E+01    1.462E+01    1.449E+01    1.435E+01    1.422E+01    1.409E+01    1.395E+01
 Mac      Conc. = 2.93E-04
   1.14818E+02  1.13883E+02  1.13032E+02  1.12244E+02  1.11406E+02  1.10450E+02  1.09325E+02  1.07986E+02  1.06456E+02  1.04824E+02
   1.03202E+02  1.01708E+02  1.00430E+02  9.93295E+01  9.82681E+01  9.71262E+01  9.60089E+01  9.53100E+01  9.54053E+01  9.64408E+01
   9.82187E+01  1.00494E+02  1.03227E+02  1.06229E+02  1.08929E+02  1.10988E+02  1.12672E+02  1.14223E+02  1.15603E+02  1.16866E+02
   1.18128E+02  1.19365E+02  1.20470E+02  1.21328E+02  1.21850E+02  1.22032E+02  1.22088E+02  1.22336E+02  1.22908E+02  1.23667E+02
   1.24385E+02  1.24975E+02  1.25516E+02  1.26115E+02  1.26703E+02  1.27124E+02  1.27351E+02  1.27417E+02  1.27283E+02  1.26844E+02
   1.26035E+02  1.24874E+02  1.23515E+02  1.22159E+02  1.20885E+02  1.19761E+02  1.18927E+02  1.18509E+02  1.18485E+02  1.18789E+02
   1.19319E+02  1.19984E+02  1.20710E+02  1.21247E+02  1.21344E+02  1.21054E+02  1.20535E+02  1.19805E+02  1.18910E+02  1.18073E+02
   1.17559E+02  1.17590E+02  1.18209E+02  1.19153E+02  1.20134E+02  1.21043E+02  1.21805E+02  1.22189E+02  1.22056E+02  1.21524E+02
   1.20770E+02  1.19909E+02  1.19052E+02  1.18336E+02  1.17873E+02  1.17695E+02  1.17716E+02  1.17882E+02  1.18172E+02  1.18516E+02
   1.18807E+02  1.19001E+02  1.19094E+02  1.19001E+02  1.18628E+02  1.17894E+02  1.16723E+02  1.15063E+02  1.13013E+02  1.10708E+02
   1.08230E+02  1.05640E+02  1.02938E+02  9.99852E+01  9.66488E+01  9.27706E+01  8.81642E+01  8.29455E+01  7.76484E+01  7.29234E+01
