 
 $NMID
 ID=''
 FMTDAT='(2E13.5)'
 TRAMP=   1.00000E+0
 VOLUME=   1.00000E+0
 $END
  -4.96108E+5   4.20770E+5
  -1.57417E+6   6.20633E+5
  -1.40772E+6   7.76237E+5
  -1.35360E+6   5.76070E+5
  -1.49653E+6   5.02176E+5
  -1.49556E+6   5.26902E+5
  -1.45818E+6   4.81078E+5
  -1.47081E+6   4.63692E+5
  -1.42374E+6   4.36188E+5
  -1.43074E+6   3.52547E+5
  -1.48140E+6   3.41541E+5
  -1.45367E+6   3.56546E+5
  -1.42056E+6   3.18784E+5
  -1.41773E+6   2.94162E+5
  -1.39935E+6   2.69871E+5
  -1.40345E+6   2.36208E+5
  -1.41824E+6   2.31485E+5
  -1.39032E+6   2.10706E+5
  -1.37484E+6   1.59499E+5
  -1.38017E+6   1.28278E+5
  -1.36884E+6   9.72664E+4
  -1.36352E+6   6.51103E+4
  -1.35866E+6   5.20249E+4
  -1.33872E+6   2.56716E+4
  -1.32655E+6  -1.27362E+4
  -1.32121E+6  -2.26453E+4
  -1.30950E+6  -3.44456E+4
  -1.30186E+6  -5.32706E+4
  -1.28757E+6  -6.58002E+4
  -1.27052E+6  -8.01487E+4
  -1.26588E+6  -1.05320E+5
  -1.25680E+6  -1.23252E+5
  -1.23969E+6  -1.44435E+5
  -1.22838E+6  -1.65961E+5
  -1.21724E+6  -1.83945E+5
  -1.20379E+6  -2.06567E+5
  -1.19481E+6  -2.30270E+5
  -1.18140E+6  -2.48118E+5
  -1.16528E+6  -2.64412E+5
  -1.15430E+6  -2.79683E+5
  -1.14097E+6  -2.91366E+5
  -1.12610E+6  -3.03182E+5
  -1.11500E+6  -3.12577E+5
  -1.10327E+6  -3.21246E+5
  -1.08881E+6  -3.31288E+5
  -1.07838E+6  -3.41543E+5
  -1.06580E+6  -3.53370E+5
  -1.04992E+6  -3.69032E+5
  -1.03266E+6  -3.81744E+5
  -1.01785E+6  -3.92942E+5
  -1.00390E+6  -4.06459E+5
  -9.88625E+5  -4.19779E+5
  -9.73806E+5  -4.31668E+5
  -9.58909E+5  -4.43266E+5
  -9.43838E+5  -4.53975E+5
  -9.27773E+5  -4.64104E+5
  -9.12068E+5  -4.73080E+5
  -8.97610E+5  -4.80038E+5
  -8.83067E+5  -4.85902E+5
  -8.68873E+5  -4.93426E+5
  -8.54216E+5  -5.00946E+5
  -8.39497E+5  -5.08578E+5
  -8.24558E+5  -5.16684E+5
  -8.08290E+5  -5.24918E+5
  -7.90497E+5  -5.31555E+5
  -7.73548E+5  -5.37602E+5
  -7.57126E+5  -5.44116E+5
  -7.40848E+5  -5.50210E+5
  -7.25236E+5  -5.55927E+5
  -7.09903E+5  -5.61535E+5
  -6.93483E+5  -5.66683E+5
  -6.77869E+5  -5.70416E+5
  -6.63717E+5  -5.74224E+5
  -6.48843E+5  -5.79020E+5
  -6.33050E+5  -5.82494E+5
  -6.16894E+5  -5.85404E+5
  -6.01651E+5  -5.88626E+5
  -5.85894E+5  -5.92123E+5
  -5.69024E+5  -5.95977E+5
  -5.52008E+5  -5.99164E+5
  -5.35139E+5  -6.01707E+5
  -5.19513E+5  -6.03935E+5
  -5.03677E+5  -6.05862E+5
  -4.87694E+5  -6.08166E+5
  -4.71403E+5  -6.09142E+5
  -4.56893E+5  -6.09615E+5
  -4.43164E+5  -6.09853E+5
  -4.28925E+5  -6.10009E+5
  -4.15126E+5  -6.09585E+5
  -4.01385E+5  -6.08634E+5
  -3.88476E+5  -6.07801E+5
  -3.74737E+5  -6.07641E+5
  -3.60388E+5  -6.06760E+5
  -3.45875E+5  -6.05122E+5
  -3.31322E+5  -6.03604E+5
  -3.17374E+5  -6.02230E+5
  -3.03801E+5  -6.00812E+5
  -2.90253E+5  -5.99267E+5
  -2.76082E+5  -5.97167E+5
  -2.63177E+5  -5.94697E+5
  -2.50748E+5  -5.92601E+5
  -2.38358E+5  -5.90736E+5
  -2.25597E+5  -5.87463E+5
  -2.13466E+5  -5.83514E+5
  -2.02598E+5  -5.79906E+5
  -1.92041E+5  -5.77000E+5
  -1.80606E+5  -5.74236E+5
  -1.68480E+5  -5.70457E+5
  -1.57673E+5  -5.65930E+5
  -1.47559E+5  -5.61616E+5
  -1.36882E+5  -5.58234E+5
  -1.25677E+5  -5.54768E+5
  -1.14126E+5  -5.50959E+5
  -1.03104E+5  -5.46706E+5
  -9.24721E+4  -5.42298E+5
  -8.18600E+4  -5.38320E+5
  -7.11369E+4  -5.33897E+5
  -6.06205E+4  -5.28749E+5
  -5.15314E+4  -5.23258E+5
  -4.26561E+4  -5.18474E+5
  -3.35408E+4  -5.13852E+5
  -2.42851E+4  -5.09532E+5
  -1.48898E+4  -5.04656E+5
  -5.86916E+3  -4.99776E+5
   3.23449E+3  -4.94422E+5
   1.18621E+4  -4.88726E+5
   2.00433E+4  -4.83003E+5
   2.85888E+4  -4.77585E+5
   3.68169E+4  -4.72302E+5
   4.52874E+4  -4.67297E+5
   5.39093E+4  -4.61885E+5
   6.23314E+4  -4.55799E+5
   7.02551E+4  -4.49720E+5
   7.76995E+4  -4.43818E+5
   8.52596E+4  -4.38099E+5
   9.28352E+4  -4.31580E+5
   9.95168E+4  -4.25381E+5
   1.06256E+5  -4.19638E+5
   1.13842E+5  -4.13984E+5
   1.21179E+5  -4.07762E+5
   1.27480E+5  -4.00917E+5
   1.33356E+5  -3.94182E+5
   1.39316E+5  -3.88132E+5
   1.45412E+5  -3.82201E+5
   1.51489E+5  -3.75928E+5
   1.57104E+5  -3.69350E+5
   1.62356E+5  -3.62857E+5
   1.67649E+5  -3.56077E+5
   1.72337E+5  -3.49676E+5
   1.76782E+5  -3.43299E+5
   1.81214E+5  -3.37215E+5
   1.85122E+5  -3.30826E+5
   1.89372E+5  -3.24682E+5
   1.93460E+5  -3.18634E+5
   1.97741E+5  -3.12338E+5
   2.01282E+5  -3.05710E+5
   2.04586E+5  -2.99579E+5
   2.08110E+5  -2.93668E+5
   2.11532E+5  -2.87389E+5
   2.14268E+5  -2.80989E+5
   2.17307E+5  -2.75202E+5
   2.20317E+5  -2.69299E+5
   2.23017E+5  -2.62734E+5
   2.25389E+5  -2.56524E+5
   2.27421E+5  -2.50974E+5
   2.29469E+5  -2.45222E+5
   2.32009E+5  -2.39602E+5
   2.34156E+5  -2.33999E+5
   2.35991E+5  -2.28106E+5
   2.37464E+5  -2.22581E+5
   2.39142E+5  -2.17423E+5
   2.40593E+5  -2.11914E+5
   2.42046E+5  -2.06472E+5
   2.43450E+5  -2.01248E+5
   2.44200E+5  -1.95548E+5
   2.45385E+5  -1.90418E+5
   2.46744E+5  -1.85197E+5
   2.47834E+5  -1.79294E+5
   2.48325E+5  -1.73820E+5
   2.48697E+5  -1.68896E+5
   2.49806E+5  -1.63928E+5
   2.50807E+5  -1.58669E+5
   2.51222E+5  -1.53107E+5
   2.51957E+5  -1.48101E+5
   2.52251E+5  -1.43161E+5
   2.52499E+5  -1.38389E+5
   2.52215E+5  -1.33030E+5
   2.51917E+5  -1.28434E+5
   2.52220E+5  -1.23809E+5
   2.52121E+5  -1.19701E+5
   2.52569E+5  -1.14723E+5
   2.52504E+5  -1.09680E+5
   2.52094E+5  -1.04723E+5
   2.51646E+5  -1.00081E+5
   2.50970E+5  -9.56376E+4
   2.50788E+5  -9.07328E+4
   2.50190E+5  -8.62972E+4
   2.49788E+5  -8.15702E+4
   2.49287E+5  -7.70432E+4
   2.48784E+5  -7.23538E+4
   2.47786E+5  -6.73933E+4
   2.46719E+5  -6.29417E+4
   2.45712E+5  -5.84847E+4
   2.44876E+5  -5.42511E+4
   2.44063E+5  -4.99471E+4
   2.42890E+5  -4.52791E+4
   2.41757E+5  -4.11646E+4
   2.40459E+5  -3.67074E+4
   2.38832E+5  -3.25690E+4
   2.37474E+5  -2.84947E+4
   2.36028E+5  -2.40326E+4
   2.34535E+5  -2.00836E+4
   2.33291E+5  -1.61881E+4
   2.32190E+5  -1.21257E+4
   2.30224E+5  -7.63421E+3
   2.28352E+5  -3.92413E+3
   2.26370E+5  -3.82365E+1
   2.24522E+5   3.35313E+3
   2.22681E+5   6.74072E+3
   2.20816E+5   1.06122E+4
   2.18860E+5   1.39063E+4
   2.17055E+5   1.73372E+4
   2.15030E+5   2.07245E+4
   2.12909E+5   2.40352E+4
   2.10777E+5   2.73204E+4
   2.08282E+5   3.04516E+4
   2.06191E+5   3.31687E+4
   2.04158E+5   3.60919E+4
   2.02093E+5   3.94489E+4
   1.99518E+5   4.22914E+4
   1.97285E+5   4.51500E+4
   1.94921E+5   4.73782E+4
   1.92605E+5   5.03179E+4
   1.90410E+5   5.28996E+4
   1.87812E+5   5.51500E+4
   1.85474E+5   5.74263E+4
   1.83429E+5   5.97506E+4
   1.80875E+5   6.20704E+4
   1.78504E+5   6.42636E+4
   1.75945E+5   6.64627E+4
   1.73697E+5   6.81874E+4
   1.71421E+5   7.04342E+4
   1.68972E+5   7.24771E+4
   1.66409E+5   7.46142E+4
   1.63731E+5   7.62453E+4
   1.61442E+5   7.82454E+4
   1.59020E+5   7.98712E+4
   1.56391E+5   8.17609E+4
   1.54022E+5   8.31585E+4
   1.51684E+5   8.48492E+4
   1.49744E+5   8.63870E+4
   1.46883E+5   8.79725E+4
   1.44462E+5   8.95456E+4
   1.41925E+5   9.08911E+4
   1.39537E+5   9.19685E+4
   1.37319E+5   9.35820E+4
   1.34825E+5   9.50208E+4
   1.32492E+5   9.65639E+4
   1.29956E+5   9.76885E+4
   1.27344E+5   9.91584E+4
   1.24635E+5   1.00417E+5
   1.22144E+5   1.01818E+5
   1.19339E+5   1.02664E+5
   1.17105E+5   1.03713E+5
   1.14526E+5   1.04606E+5
   1.12259E+5   1.06260E+5
   1.09728E+5   1.07058E+5
   1.06938E+5   1.08348E+5
   1.04569E+5   1.08716E+5
   1.01995E+5   1.10008E+5
   9.94579E+4   1.10514E+5
   9.72375E+4   1.11349E+5
   9.43852E+4   1.11888E+5
   9.20866E+4   1.12675E+5
   8.95392E+4   1.13649E+5
   8.69106E+4   1.14347E+5
   8.42098E+4   1.14822E+5
   8.17508E+4   1.15131E+5
   7.96700E+4   1.15534E+5
   7.72527E+4   1.15851E+5
   7.44003E+4   1.16311E+5
   7.22719E+4   1.17005E+5
   6.96817E+4   1.16913E+5
   6.73171E+4   1.17411E+5
   6.47882E+4   1.17839E+5
   6.23180E+4   1.17706E+5
   5.99555E+4   1.18029E+5
   5.77758E+4   1.17760E+5
   5.56390E+4   1.17985E+5
   5.32253E+4   1.18217E+5
   5.06548E+4   1.18053E+5
   4.83141E+4   1.18151E+5
   4.62166E+4   1.18363E+5
   4.38658E+4   1.17952E+5
   4.16067E+4   1.17822E+5
   3.97696E+4   1.17668E+5
   3.73819E+4   1.17427E+5
   3.55615E+4   1.17220E+5
   3.30222E+4   1.16853E+5
   3.07554E+4   1.16539E+5
   2.89200E+4   1.16042E+5
   2.69056E+4   1.15732E+5
   2.47675E+4   1.15703E+5
   2.27054E+4   1.14975E+5
   2.04717E+4   1.14459E+5
   1.84130E+4   1.13973E+5
   1.65408E+4   1.13281E+5
   1.45764E+4   1.13060E+5
   1.27051E+4   1.12401E+5
   1.06308E+4   1.11703E+5
   8.85756E+3   1.11317E+5
   6.87339E+3   1.10639E+5
   4.73182E+3   1.10136E+5
   2.80461E+3   1.09208E+5
   1.12404E+3   1.08472E+5
  -4.52146E+2   1.07446E+5
  -2.49252E+3   1.07081E+5
  -4.49185E+3   1.06308E+5
  -5.93655E+3   1.05240E+5
  -7.58603E+3   1.04494E+5
  -9.35629E+3   1.04018E+5
  -1.13112E+4   1.03086E+5
  -1.29429E+4   1.01878E+5
  -1.46964E+4   1.00963E+5
  -1.59936E+4   9.99561E+4
  -1.77282E+4   9.92456E+4
  -1.94189E+4   9.84273E+4
  -2.12281E+4   9.74701E+4
  -2.25922E+4   9.60726E+4
  -2.41786E+4   9.50799E+4
  -2.56473E+4   9.41192E+4
  -2.69237E+4   9.30781E+4
  -2.83229E+4   9.24045E+4
  -2.97617E+4   9.10074E+4
  -3.12532E+4   9.03705E+4
  -3.28188E+4   8.90956E+4
  -3.41428E+4   8.77890E+4
  -3.56234E+4   8.65363E+4
  -3.67444E+4   8.53402E+4
  -3.79516E+4   8.43116E+4
  -3.93820E+4   8.34133E+4
  -4.04558E+4   8.20109E+4
  -4.20493E+4   8.09736E+4
  -4.32095E+4   7.98513E+4
  -4.41103E+4   7.85497E+4
  -4.52625E+4   7.70419E+4
  -4.63946E+4   7.57237E+4
  -4.74473E+4   7.47494E+4
  -4.82087E+4   7.34313E+4
  -4.93572E+4   7.24777E+4
  -5.06776E+4   7.09347E+4
  -5.14468E+4   6.98698E+4
  -5.22545E+4   6.85542E+4
  -5.33119E+4   6.70472E+4
  -5.38985E+4   6.60837E+4
  -5.46844E+4   6.46811E+4
  -5.55315E+4   6.34536E+4
  -5.64227E+4   6.22946E+4
  -5.70207E+4   6.11495E+4
  -5.78578E+4   5.98571E+4
  -5.84708E+4   5.83242E+4
  -5.88660E+4   5.72112E+4
  -5.94353E+4   5.57339E+4
  -5.99289E+4   5.49801E+4
  -6.08852E+4   5.35364E+4
  -6.11894E+4   5.22347E+4
  -6.18267E+4   5.08296E+4
