 
 $NMID
 ID=''
 FMTDAT='(2E13.5)'
 TRAMP=   1.00000E+0
 VOLUME=   1.00000E+0
 $END
  -1.65555E+3  -8.50612E+3
   1.34380E+2  -2.61750E+3
   1.10090E+3  -3.01293E+3
   3.25100E+3  -5.63504E+3
   2.13840E+3   1.39123E+3
   2.43507E+2   2.99996E+3
  -4.78004E+2  -1.84280E+3
   1.46159E+3  -1.02165E+3
   3.79205E+3   1.69831E+3
   1.89314E+3   1.27551E+3
  -1.11556E+3   2.04838E+3
  -8.51526E+2   1.44111E+3
   5.83365E+2  -5.23915E+2
   4.08448E+2   6.47409E+2
  -1.64905E+3   6.03928E+2
  -2.55125E+3  -1.21204E+3
   4.24150E+2  -5.64355E+2
   1.39064E+3  -2.08746E+2
  -3.02771E+2  -1.90308E+3
   9.06385E+1  -1.82851E+3
   5.10563E+2   5.74779E+2
  -1.36553E+3   8.45307E+2
  -2.25498E+2  -1.00558E+3
   2.31626E+3   1.55720E+2
  -6.43549E+2   1.98099E+3
  -3.23638E+3   5.57084E+1
  -6.93240E+1  -1.98983E+3
   1.83883E+3   1.01901E+3
  -7.83693E+2   2.36298E+3
  -1.60966E+3  -1.11437E+3
   3.12850E+2  -1.61186E+3
   9.74200E+2   9.48159E+2
  -5.60287E+2   6.61237E+2
  -3.84020E+2  -8.81879E+2
   8.05897E+2   2.99756E+1
  -1.93455E+2   5.33294E+2
  -1.00816E+3  -8.13067E+2
   5.98059E+2  -1.01445E+3
   1.45544E+3   4.80967E+2
   2.81810E+2   6.29014E+2
  -5.98610E+1  -1.53583E+2
   5.05998E+2   1.24843E+1
   1.76843E+2   1.10978E+3
  -7.88640E+2   6.70026E+2
  -6.36433E+2  -3.31987E+2
   5.04714E+2  -7.91302E+2
   5.49541E+2  -2.96813E+2
   1.37079E+2   3.47261E+2
   1.87520E+2   1.24660E+1
   6.98128E+2   1.18712E+2
   2.45405E+2   4.87565E+2
  -7.27930E+2  -1.39918E+1
  -2.58243E+2  -5.92675E+2
   3.39878E+2  -2.35332E+2
   1.35533E+1   3.23348E+1
  -6.49725E+0  -6.38518E+2
   6.70404E+2  -9.39079E+2
   5.52007E+2   5.39679E+1
  -4.34975E+2   7.17400E+2
  -4.36305E+2   5.16483E+0
   1.38805E+2  -3.13809E+1
   7.51501E+1   5.56477E+1
  -7.34613E+2  -2.56971E+2
  -4.99201E+2  -6.41010E+2
   2.32371E+2  -1.29852E+2
   3.37539E+2   4.13118E+2
   3.36280E+2   3.35580E+1
   8.67668E+0   2.30593E+1
  -1.23769E+2   4.48730E+2
  -6.17469E+2   2.01388E+2
  -1.98077E+2  -2.28489E+2
   1.60206E+2  -4.74346E+2
   1.39391E+2  -1.01992E+2
  -2.61570E+2  -1.72355E+2
  -1.09055E+2  -2.29636E+2
   4.34528E+2   2.52075E+1
   2.99576E+2   6.65333E+2
  -4.96657E+2   3.18314E+2
  -4.63892E+2  -1.28964E+2
  -3.22407E+2  -1.56832E+1
   2.40018E+1   2.76314E+2
   6.16792E+1   5.10488E+1
   2.50789E+0  -1.83509E+2
   4.16415E+2   9.23833E+1
  -2.19807E+2   1.15995E+2
   1.81984E+2   1.22516E+2
   1.26966E+2   6.98613E+1
   7.56618E+1   2.51136E+2
   8.16581E+1  -1.30568E+2
   1.78889E+1  -3.58982E+2
   3.15527E+2   1.35862E+2
   1.97104E+2   3.66637E+2
  -1.88901E+1  -4.70139E+1
  -2.39188E+2  -2.50296E+2
   2.03436E+2  -3.42221E+2
   5.14520E+1   3.34478E+1
   9.00088E+1   1.02829E+2
   9.25835E+1  -2.89564E+1
  -4.38175E+1  -1.04164E+2
   1.65279E+2   9.51902E+1
   1.21215E+2   1.63844E+2
  -1.40735E+2   1.38664E+2
  -2.07992E+2   3.52949E+1
  -9.89389E+1  -1.88886E+2
  -6.34027E+1  -2.48803E+1
   1.67220E+2   9.91748E+1
   8.82732E+1  -2.02680E+2
  -7.46592E+1  -1.72011E+2
  -6.75139E+0   3.05309E+1
   8.02438E+1  -1.36684E+2
   9.94756E+1   1.11833E+2
   1.86553E+1   1.60324E+2
  -1.23993E+2  -6.40496E+1
  -3.49280E+1   8.76268E+1
  -1.68627E+2   4.10039E+1
  -9.27232E+1  -3.62074E+1
  -1.88415E+2   2.73776E+1
  -2.47531E+2  -1.23779E+2
   3.78308E+1  -2.50258E+2
   1.24152E+2  -3.38703E+1
   2.11100E+2  -1.09958E+2
  -2.46764E+1  -9.16430E+1
   2.64280E+1   1.15293E+2
  -6.87400E+1   1.14763E+2
   2.10931E+2   5.49116E+1
   3.74425E+1   1.51314E+1
  -1.39702E+2  -1.40440E+2
  -5.09071E+1  -3.81230E+1
   6.57814E+1   1.65605E+2
  -8.25098E+1   3.03250E+2
   1.28860E+2   2.87244E+2
   2.51394E+1   1.58848E+2
  -1.25292E+2  -1.53232E+2
  -1.30517E+2  -2.35675E+2
   4.59250E+1  -7.52099E+1
  -7.77469E+1   2.44796E+2
   1.78943E+1  -2.11192E+2
  -2.00226E+2  -1.44653E+2
   3.66986E+1   1.87459E+2
  -2.13341E+2   1.48090E+2
  -3.51424E+2  -1.44054E+2
  -3.29106E+1  -3.21772E+1
   7.98249E+1  -1.54680E+2
   1.78202E+2  -4.63646E+1
  -4.41358E+1   2.68239E+2
   8.22287E+1  -1.59721E+1
   1.05244E+2   6.17599E+1
   1.81305E+1  -5.75821E+1
  -1.41351E+1  -1.52620E+2
   5.30396E+1  -6.13320E+1
  -1.52094E+2   2.10758E+2
   4.28525E+1  -1.99688E+1
   2.83480E+2  -1.68178E+2
   4.23364E+1   9.81401E+0
   6.78284E+1   1.40728E+2
  -1.24994E+2   1.53331E+2
   2.16293E+1  -3.06654E+1
   2.77278E+2   6.57826E+1
   8.17799E+0   2.94502E+1
   3.57854E+1  -1.79880E+1
  -1.19236E+2   1.22571E+2
  -5.70125E+1  -4.13742E+0
  -2.03566E+2  -3.28774E+2
   2.36263E+1  -3.86415E+1
  -1.96628E+2  -1.12503E+2
   2.96406E+1   5.05708E+1
  -6.55496E+1   3.15224E+1
  -6.27058E+1   5.88369E+1
  -1.02758E+2  -5.40864E+1
  -5.57118E+1  -2.94326E+1
  -2.76044E+1  -4.36477E+1
   9.09781E+1  -2.71590E+1
   1.46445E+2  -2.34741E+2
  -1.46372E+2  -1.53027E+1
  -1.10498E+2  -2.57884E+2
  -1.40068E+2  -4.96549E+1
  -2.26265E+2  -2.31137E+2
   3.32322E+1   4.20164E+1
  -1.06347E+2  -7.18382E+1
  -6.04569E+1  -1.20304E+2
   1.05505E+2   1.16177E+1
  -4.56806E+1   2.79795E+2
  -6.44565E+1  -2.43628E+1
  -7.43218E+1   7.86359E+1
  -2.07753E+2  -9.17976E+0
  -1.53716E+1   1.05935E+1
  -1.74515E+2   8.51222E+1
  -1.67776E+1   7.03882E+1
  -1.74318E+2  -1.70284E+2
   1.22423E+2  -1.48871E+2
  -1.30752E+2  -1.19803E+1
  -2.42253E+2   2.59185E+1
  -5.40456E+1  -9.64167E+1
  -1.05542E+2  -1.12943E+2
   1.21878E+2  -1.95174E+1
  -2.82265E+2   1.67572E+2
  -1.18973E+2  -2.10261E+1
  -2.17644E+1  -1.69756E+2
   1.58719E+2   7.78070E+1
  -6.32217E+1   1.18896E+2
  -2.73816E+2   1.40061E+2
  -1.78747E+2   6.74444E+0
   2.23733E+2  -4.37505E+1
   4.99314E+1   1.44487E+2
  -1.04885E+1   9.51971E+1
   2.10676E+2   3.10527E+1
   8.99781E+1  -5.84856E+1
   2.03733E+0  -1.05290E+2
  -2.02372E+1   8.31038E+1
  -1.63994E+2  -2.54086E+1
  -5.90075E+1   1.12926E+2
   8.67197E+1   3.24418E-1
  -2.88287E+1   2.36624E+2
  -1.04601E+2  -3.37761E+1
   2.22267E+1  -1.07822E+1
  -1.78946E+2  -3.82720E+1
  -2.13835E+2  -1.79248E+1
   1.21120E+2   2.73919E+2
  -3.94923E+1   1.39326E+2
  -6.28023E+1   1.08351E+2
   1.84155E+2  -2.32330E+1
   2.14953E+2   1.23959E+2
  -1.54027E+1   1.74145E+1
  -2.82549E+2   2.99088E+2
  -1.32076E+2   1.27771E+2
  -7.60546E+0   1.67072E+1
   3.72999E+1   4.45326E+0
   1.84006E+2   1.43672E+2
  -9.41065E+1   8.89497E+1
  -1.29045E+1   1.12650E+2
  -9.03275E+1  -1.62672E+2
   4.57172E+1  -6.09710E+1
  -5.36996E+1  -1.25273E+2
   6.42471E+1  -2.40617E+2
   8.22542E+1  -1.25745E+2
  -1.63582E+2   1.35894E+2
  -2.95717E+1   7.50439E+1
   1.20511E+2  -6.84778E-1
   2.26526E+2   6.66956E+1
  -1.08533E+2  -1.37567E+2
   1.41930E+2  -9.18240E+1
   6.67052E+1  -1.09012E+1
   7.36584E+1   2.06334E+1
  -1.18636E+2   3.15928E+1
   3.68438E+0  -2.16426E+1
   1.35312E+2   1.80471E+0
   1.15623E+2   2.19948E+2
   2.95551E+2   1.15054E+2
  -5.63989E+1  -2.80743E+1
  -1.75793E+1  -1.78452E+2
   1.40281E+2   4.36439E+1
  -8.94257E+1   1.72087E+2
  -6.65831E+1  -1.23719E+2
   4.22995E+0  -1.08776E+2
  -3.65876E+1   5.80915E+1
   8.68935E+1  -9.25848E+1
  -1.28130E+2   1.02740E+2
  -1.31114E+2  -2.00049E+1
  -3.38395E+1  -9.14483E+1
  -6.64385E+1   4.12627E-1
  -7.90096E+1   6.35835E+1
  -1.34347E+2  -3.66529E+1
   1.07445E+2  -5.10424E+1
  -6.24900E+1  -2.13240E+2
   2.52197E+2   1.42396E+2
  -6.44406E+1   1.55112E+2
  -9.82073E+1   2.01118E+2
  -5.10428E+1   1.24939E+2
  -8.48206E+1   1.55385E+2
   7.59586E+1  -1.87346E+2
   1.51004E+2   2.05102E+1
  -1.36706E+2   4.57926E+1
  -2.47577E+0  -4.14190E+1
   2.23575E+2  -4.47871E+1
   1.64995E+1   9.18867E+1
  -4.01004E+0   2.77339E+2
  -1.45909E+2   9.85973E+1
  -8.63514E+1  -1.84342E+2
   5.48002E+1  -1.18958E+2
   2.18820E+1   6.29648E+1
  -5.18166E+1   3.19252E+1
   6.29884E+1   4.87268E+0
  -1.57813E+1   6.86424E+1
   4.05829E+1   2.21534E+2
  -3.26573E+2  -1.67032E+2
  -1.30151E+1  -8.63383E+0
   4.72808E+1   1.88428E+0
   1.95820E+2   7.97177E+1
   1.34879E+2   3.61706E+1
   1.59181E+2  -1.72404E+2
  -1.20451E+2   9.23579E+1
   6.22343E+1  -9.79224E+1
   1.35730E+2   1.27299E+1
  -2.03813E+1  -2.39769E+1
  -2.56405E+2   1.77961E+1
  -5.76959E+1   1.29065E+2
   2.85086E+2   2.47341E+2
   1.04409E+2   3.90407E+2
  -1.02510E+2   2.68475E+2
   4.78657E+0   1.10769E+2
  -6.85538E+1  -1.41491E+1
   2.69447E+2  -4.40488E+1
  -2.09205E+2   6.86934E+1
   7.32588E+1   5.03612E+1
  -1.69947E+2   4.59110E+1
  -1.18363E+2   2.25610E+2
   2.36268E+2   9.97663E+1
   1.31555E+0  -4.59172E+1
  -6.14100E+1  -1.15590E+2
   5.55621E+0  -8.78146E+1
   7.14148E+1   1.07266E+1
  -4.58984E+1   8.84734E+1
   2.96045E+2   2.13943E+1
   1.79152E+2   9.31974E+1
  -4.81861E+0   1.03334E+2
  -6.59528E+1   1.24185E+2
   3.81224E+1  -1.70287E+2
  -5.26373E+1  -2.96151E+1
   1.64486E+1   1.63063E+2
   2.80223E+0   1.15094E+2
   1.65628E+2   7.16777E+0
  -6.58604E+1   5.35369E+1
   8.00335E+1   7.53704E+1
   3.45148E+0   9.93887E+1
   7.48089E+1   8.29049E+1
   1.80560E+1  -2.28755E+1
   1.32917E+2   2.36947E+2
  -2.15922E+2   2.71242E+2
   4.51507E+0  -2.86782E+1
  -7.52195E+1  -1.87553E+2
  -6.62988E+0   1.60632E+2
   2.92743E+1   4.41704E+1
  -5.69410E+1  -1.39253E+2
   1.23685E+1  -1.20247E+2
   2.12745E+2   8.07158E+1
   1.71195E+2   1.05544E+2
  -5.12327E+1   1.84878E+2
   1.15312E+1  -1.86309E+2
  -3.05542E+1  -1.64298E+2
  -2.06796E+2  -2.75483E+1
  -1.51226E+1   4.10319E+2
   1.67874E+2   8.09909E+1
   1.64901E+1  -3.22093E+1
   2.24868E+2   7.94658E+1
  -3.26918E+2   9.76124E+1
  -1.26909E+0   1.23522E+2
  -7.02353E+1  -4.92299E+1
  -8.07782E+0  -3.25777E+1
  -1.31241E+1   1.36578E+1
   7.49842E+0   3.78952E+1
  -3.41999E+1   6.10670E+1
  -3.67191E+1  -8.58811E+1
  -2.04560E+2  -2.10759E+2
   2.00004E+1  -1.22382E+2
   3.06158E+2  -1.03854E+2
   2.45443E+1  -6.80782E+1
   9.59238E+1  -6.60832E+1
   2.06573E+1   1.25086E+2
   2.39996E+2   1.81956E+2
   5.24593E+1  -1.12868E+2
  -1.05615E+2  -1.25278E+2
   1.58571E+1  -9.13562E+1
  -6.23390E+1  -1.89944E+2
   1.49255E+2  -9.75097E+1
  -1.86719E+1   3.51086E+1
  -8.78678E+1   3.25462E+2
   3.94090E+1  -9.89211E+1
