 
 $NMID
 ID=''
 FMTDAT='(2E13.5)'
 TRAMP=   1.00000E+0
 VOLUME=   1.00000E+0
 $END
   3.00677E+4   2.08294E+4
   1.45926E+4  -2.05628E+4
  -6.90399E+3  -1.23299E+4
  -1.04075E+4   3.56699E+3
  -5.33312E+3   3.58647E+3
   2.83486E+3   2.78844E+3
   8.25426E+3   4.02604E+3
   3.78165E+3  -1.06761E+3
  -2.14490E+3  -4.30016E+3
  -3.51071E+3   4.45370E+2
  -4.26309E+3   4.14712E+3
  -2.17160E+3   2.36171E+3
   2.94562E+3  -8.55614E+2
   2.76189E+3  -2.87426E+3
  -4.88855E+2  -3.27151E+3
  -1.45641E+3  -1.90753E+3
  -3.25066E+2   5.15662E+2
   9.67976E+2   1.87024E+3
   1.89339E+3   8.52453E+2
   3.82852E+2  -4.16207E+2
  -1.60187E+3  -1.45526E+3
  -7.69319E+2  -1.01933E+3
   4.84530E+1   1.57070E+3
  -7.57963E+2   2.31102E+3
   1.99682E+1  -1.28564E+3
   1.63232E+3  -1.94729E+3
   7.63974E+2   1.16604E+3
  -2.17717E+3   1.65029E+3
  -2.05904E+3  -1.02153E+3
   8.71334E+2  -1.07051E+3
   1.35343E+3   1.21270E+3
  -7.54352E+2   1.22462E+3
  -1.46481E+3  -6.00082E+2
  -2.57111E+2  -1.13413E+3
   9.80105E+2  -1.11118E+3
   1.12963E+3   1.12394E+2
   1.67156E+2   8.69015E+2
  -3.05444E+2   6.45269E+2
  -6.08336E+1  -4.22406E+1
   5.76595E+1   2.75497E+2
  -4.37184E+2  -2.19036E+2
  -1.17418E+2  -7.72202E+2
   7.05755E+2  -1.60970E+2
   5.61622E+2   1.76563E+2
   3.62356E+2  -5.37839E+2
   5.26868E+2  -1.61516E+2
   2.48321E+2   1.34245E+3
  -1.21099E+3   1.10264E+3
  -8.84839E+2  -5.87683E+2
   2.41562E+2  -9.25417E+2
   7.15084E+2  -8.05491E+1
   3.17049E+1  -4.38445E+2
  -2.08604E+2  -5.98338E+2
   5.34183E+2   1.35845E+2
   3.85871E+2   5.78639E+2
  -3.34820E+2   4.11703E+2
  -1.58130E+2   1.92677E+1
  -5.23366E+1  -3.45564E+2
   2.34238E+2  -7.23400E+2
   1.60598E+2  -3.89188E+2
   1.61086E+2   2.50417E+2
  -2.05276E+1   1.32677E+2
   1.29365E+2   6.00321E+2
  -3.73481E+2   1.10064E+3
  -5.96218E+2   3.99196E+2
  -3.23768E+2  -6.11921E+1
   7.92739E+1  -6.65189E+2
   1.96792E+2  -9.82108E+2
   3.05504E+2  -2.90873E+2
  -1.27906E+1   1.97920E+2
  -1.91241E+2   3.94420E+2
   2.23558E+1  -2.72470E+2
   7.74235E+2  -7.94869E+0
   6.04525E+2   4.89848E+2
  -1.71926E+0   1.84715E+2
  -7.24243E+1  -6.55568E+1
   1.91549E+2   4.76852E+1
   3.61088E+1   2.73677E+2
  -1.95724E+1   2.09826E+2
   5.08678E+1   1.05068E+2
  -1.49711E+2   4.67548E+2
  -1.19220E+1  -4.54877E+1
   1.81545E-1  -2.24328E+2
  -9.89702E+0  -2.13618E+1
  -4.45444E+1   6.43837E+1
  -2.05114E+2  -1.20522E+2
  -5.28153E+1  -1.97573E+2
   4.00871E+2  -5.04140E+1
   3.91034E+2   6.05601E+1
   2.78501E+2   1.12012E+2
   9.16753E+1  -2.40903E+2
   3.01517E+2   6.48471E+1
   1.78056E+2   4.74918E+2
  -1.77185E+2   1.66524E+2
  -2.70166E+2   2.29400E+2
   1.00111E+2  -1.75563E+2
   4.24042E+2  -4.50868E+1
  -7.12303E+1   6.49659E+0
  -2.75300E+2  -1.83792E+2
  -1.37515E+2   1.62696E+1
   5.47539E+2  -4.35431E+1
   2.30932E+2   4.28798E+2
  -3.19973E+2   3.35421E+2
  -1.00088E+2  -1.65772E+2
  -1.19367E+2  -3.04192E+1
   9.58005E+1  -2.13741E+2
   1.39385E+2  -1.14162E+1
   3.52849E+1   3.09513E+2
  -3.31836E+2  -8.49141E+1
  -1.20175E+2  -5.96547E+2
   1.00312E+2  -1.26483E+2
   3.89288E+2   1.15905E+2
   6.72406E+0   1.44167E+2
   3.02633E+1   4.21328E+0
   1.65990E+2   1.09831E+2
   1.99869E+2   3.07447E+2
  -1.10878E+2   2.03153E+2
  -4.55209E+2   2.22547E+1
  -9.83223E+1   1.21402E+2
  -1.77258E+2  -1.90416E+2
   5.89891E+1  -1.61252E+2
  -7.08175E+1  -1.95886E+1
   2.95160E+2  -1.62476E+2
   1.66182E+2   1.06029E+2
  -1.94283E+2   1.15259E+2
  -1.25028E+2  -9.77549E+1
   1.85189E+2  -3.23103E+2
   1.00163E+2  -1.57148E+2
   1.42055E+2   2.17157E+2
  -2.21023E+1   9.57117E+1
   1.36821E+2   2.14804E+2
   9.20425E+1   3.13622E+2
  -8.36018E+1   4.31612E+1
  -9.25862E+1   6.69925E+1
   1.50932E+2   9.57594E+1
   5.07911E+1   1.53030E+2
   1.01418E+1  -2.57435E+2
   9.56220E+1  -2.30000E+2
   2.14426E+2  -7.35647E+1
   2.88310E+1   1.02716E+2
  -2.88626E+2   2.36527E+2
   1.58610E+1  -3.92427E+1
  -7.43098E+1  -9.59866E+1
   7.83899E+1  -1.69619E+1
   2.76913E+1   6.66294E+1
  -1.13793E+2   2.63027E+2
  -1.33796E+2   2.02246E+2
  -2.51536E+2   1.72669E+2
  -1.44379E+2  -1.55678E+1
  -2.62646E+2   7.92545E+1
  -1.82826E+1   1.44836E+2
  -9.86049E+1  -3.72708E+1
   7.21840E+1  -4.69472E+1
   4.45245E+1  -5.54305E+1
   1.75867E+1  -6.41787E+1
  -1.41472E+2   5.31144E+1
   1.63480E+2   2.15860E+2
   1.18993E+2   2.19338E+2
   1.41984E+2   1.81084E+1
   4.28570E+1   1.73647E+2
  -2.50363E+1   3.45000E+1
   5.45789E+1   3.48067E+2
  -9.82997E+1   1.21058E+2
   9.91043E+1   1.02822E+2
  -1.30927E+2  -2.30083E+2
  -1.28829E+2  -4.35651E+1
   6.64556E+1  -2.02234E+2
   9.98015E+1   9.53835E+1
   3.13551E+1   2.12182E+2
   7.30417E+1  -2.49765E+1
  -8.67105E+1   3.15541E+1
  -1.33502E+2   1.84130E+2
  -6.92259E+1   5.75976E+1
  -2.30078E+2   2.27885E+2
  -1.27203E+2  -1.86739E+1
   3.17286E+1   1.48779E+2
   7.83228E+1   1.15405E+2
  -1.20279E+2   4.31395E+1
   3.12539E+1  -9.65068E+1
  -1.07186E+1  -1.35796E+1
  -2.12566E+2   2.32251E+2
   3.97378E+1  -1.07613E+1
  -1.74840E+0   1.23958E+2
   1.43069E+1   2.44861E+2
   5.45753E+1   8.31188E+1
   1.05564E+2  -1.29292E+2
  -1.93400E+1   3.90897E+0
  -1.28795E+2   3.09316E+1
  -7.91694E-1   8.18891E+1
   9.58206E+1  -5.04370E+1
  -2.04177E+1   1.77242E+2
   1.75717E+1  -1.34396E+1
   2.56479E+2  -9.62319E+1
  -1.05792E+2  -1.85115E+0
   1.73737E+2  -1.14028E+2
   6.06183E+1  -2.58247E+2
   1.36629E+2   7.01040E+1
   1.10114E+2  -1.34650E+2
   1.81619E+2  -1.04068E+2
   1.36109E+2  -6.08070E+0
  -1.80995E+2  -7.17081E+0
  -1.70323E+1  -1.02104E+2
  -8.51952E+1   2.34663E+1
   1.30979E+1  -1.93042E+2
  -1.16061E+2  -1.16809E+2
  -1.81340E+2  -1.38994E+2
   6.59703E+1  -7.78902E+1
   2.66106E+1  -2.93551E+1
   3.66119E+1  -7.71858E+0
  -1.45437E+2  -2.39704E+2
  -1.54085E+2  -1.05062E+2
  -1.33833E+2   3.27418E+2
   7.32144E+0  -4.52669E+1
   1.80566E+2   8.83450E+0
  -1.26489E+1  -2.38606E+2
  -1.60690E+2  -7.27532E+1
  -1.68224E+2  -5.29634E+1
  -1.22737E+2  -2.79491E+1
   1.48054E+2  -1.16124E+2
  -1.59342E+2  -1.76182E+2
   1.69817E+1  -1.77765E+2
  -9.55527E+1   4.64344E+1
  -1.57343E+2   1.35596E+2
   1.12930E+2   6.00180E+1
  -1.55207E+2  -3.16811E+1
   1.10492E+2  -6.02542E+1
   7.35954E+1   6.72605E+1
  -1.46376E+2  -1.03497E+2
  -3.59654E+1  -2.20457E+2
   1.54003E+2   2.28742E+1
   1.34297E+1  -1.47890E+2
  -6.62056E+1  -9.30926E+1
  -1.27231E+2   4.51757E+1
  -7.55990E+1   3.00244E+1
  -7.47134E+1  -1.24079E+2
  -3.32135E+1   2.15320E+2
  -7.59509E+1  -1.42312E+2
  -7.83122E+1  -4.67487E+1
   5.21584E+1   4.78120E+1
   6.24109E+1  -5.82510E+1
   5.53324E+1   3.95721E+1
   6.64382E+1  -1.37051E+2
  -1.04629E+2   1.30432E+2
  -1.12395E+2  -4.70599E+1
  -1.03554E+1  -2.84318E+0
   1.00579E+2  -1.65732E+2
  -1.60561E+2  -7.57768E+1
  -1.36553E+2   3.73532E+1
   6.05593E+0  -8.76598E+1
   5.55091E+1   7.95733E+1
  -6.77633E+1  -1.96140E+2
   1.33315E+2  -8.90130E+1
   7.64714E+1  -1.03730E+2
   6.39395E+1  -4.45792E+1
   2.62789E+2  -6.75865E+1
  -3.22335E+1   7.96711E+1
  -2.35387E+2  -1.55481E+2
  -8.55541E+1  -2.96084E+2
  -1.82226E+1   2.02122E+2
  -2.65639E+1  -7.68835E+1
   3.55323E+1  -1.11221E+2
   9.60359E+1  -1.72715E+2
  -4.58237E+1  -8.20654E+1
  -1.11504E+2   1.55416E+0
   3.11093E+1  -9.48740E+1
  -2.50157E+2   1.12359E+1
  -2.27126E+2  -2.13675E+1
  -1.60489E+2   2.12335E+2
  -1.20836E+2  -6.42970E+1
  -1.61557E+2  -1.68351E+2
   1.13288E+2  -1.51662E+2
  -7.46435E+1  -1.35545E+2
  -5.79389E+1  -1.23935E+2
  -2.30089E+2  -7.46726E+1
  -3.66841E+1  -1.80489E+2
  -1.03584E+2   1.55169E+1
  -5.47273E+1  -2.89984E+2
   3.60155E+2  -2.58937E+1
   6.45468E+1  -4.28279E+1
   2.07562E+2  -1.60733E+1
   1.79489E+1   1.94882E+2
  -1.58926E+2  -1.47741E+0
   6.02146E+1  -1.74513E+2
  -3.61893E+1   1.35757E+1
   4.82405E+1  -1.09253E+2
   1.38250E+2  -1.60465E+2
  -5.32020E+1  -1.64442E+2
   7.17609E-1  -4.95209E+1
  -3.64859E+1  -1.55092E+2
  -4.71495E+1   3.76403E+1
   2.19409E+2  -3.51245E+2
  -9.54459E+1   1.78507E+1
  -1.79197E+2  -3.31632E+1
  -6.96998E+1   1.88883E+0
  -3.06551E+1   2.81464E+1
  -6.79927E+1   2.27474E+1
  -6.99675E+1  -1.70452E+1
   1.75877E+2   1.07718E+2
  -1.29101E+2  -1.40129E+2
  -1.28559E+1  -2.04261E+2
   7.04790E+1   4.17069E+1
   3.73497E+0   1.89231E+2
   8.75831E+1  -2.08224E+2
  -1.89054E+1  -1.73896E+1
   5.60672E+1  -9.97017E+1
   4.09097E+2  -5.25977E+1
  -1.64709E+2   8.67216E+1
   3.09521E+1   9.44341E+1
  -3.42209E+1  -5.23788E+1
  -1.46146E+2  -6.95455E+1
  -4.14424E+1  -2.06944E+2
  -2.52858E+2  -8.43365E+1
  -9.11011E+1  -1.87065E+2
   9.47168E+1   1.31044E+1
  -1.46087E+2  -1.49172E+2
   1.05163E+2   1.07281E+2
  -2.14639E+2  -1.11622E+2
  -2.59897E+2   4.13775E+1
  -4.66619E+1  -7.81972E+1
   7.92954E+1  -1.03660E+1
  -3.33358E+1  -1.13991E+2
   5.55426E+1   7.65208E+1
  -1.49481E+2   7.45834E+1
   1.61196E+1   1.46130E+2
   1.64961E+1   2.49812E+0
  -1.31022E+2   6.13628E+1
   1.27444E+2  -1.03335E+2
   1.53038E+2  -5.23809E+1
   3.00838E+1  -1.60043E+2
   1.03538E+2   7.21703E+1
   1.35457E+2   6.26699E+1
   2.84790E+1   4.88130E+1
   5.23419E+1  -9.63450E+1
   7.30462E+0  -2.50463E+2
   5.54276E+1  -2.14767E+1
   1.06692E+2  -1.45323E+2
  -1.24824E+2   1.20190E+2
  -6.70020E+1  -1.07191E+2
  -8.69943E+1  -1.45495E+2
  -1.07589E+1  -1.32507E+1
  -9.94568E+1  -1.10252E+2
  -1.70414E+2   7.43259E+1
   1.83717E+2  -2.34901E+1
   3.96339E+1  -8.98517E+1
  -4.05825E+1   1.22398E+2
   6.77435E+1   5.84615E-1
  -3.82400E+1   1.52644E+2
   9.13134E+1   9.93153E+1
   1.37230E+2  -9.49997E+1
  -1.79265E+2   2.24493E+1
   9.48949E+1  -2.36179E+2
  -2.65695E+1  -8.27063E+1
   3.24878E+2   5.45774E+1
  -8.71147E+1   3.91940E+1
  -5.59885E+1  -6.87635E+1
   7.22476E+1  -7.09867E+1
   4.68467E+1   6.60865E+1
   1.90934E+2  -2.01192E+1
  -1.65966E+2   1.49596E+1
   1.47112E+2  -5.00462E+1
   4.49466E+1  -6.59395E+1
   4.06448E+1  -1.48256E+2
  -1.43400E+2   1.61986E+2
  -4.56172E+1   9.90036E+1
  -7.09888E+1  -6.12111E+1
   3.71847E+1  -8.98993E+1
  -5.67680E+1   4.80243E+1
