 
 $NMID
 ID=''
 FMTDAT='(2E13.5)'
 TRAMP=   1.00000E+0
 VOLUME=   1.00000E+0
 $END
  -5.59146E+5   2.24413E+5
  -1.52567E+6   6.20106E+4
  -1.42412E+6   2.15656E+5
  -1.37271E+6   7.21201E+4
  -1.50649E+6   6.51667E+4
  -1.46544E+6   1.81516E+5
  -1.35858E+6   1.55754E+5
  -1.37746E+6   1.02251E+5
  -1.39152E+6   1.17096E+5
  -1.39688E+6   1.29205E+5
  -1.39146E+6   1.69093E+5
  -1.32558E+6   1.84527E+5
  -1.30439E+6   1.40366E+5
  -1.34342E+6   1.46578E+5
  -1.32847E+6   1.93328E+5
  -1.28828E+6   2.06101E+5
  -1.27730E+6   2.05739E+5
  -1.26267E+6   1.96324E+5
  -1.26281E+6   1.83397E+5
  -1.26639E+6   2.05874E+5
  -1.23723E+6   2.21594E+5
  -1.21526E+6   2.08674E+5
  -1.21499E+6   2.08029E+5
  -1.20559E+6   2.14430E+5
  -1.19333E+6   2.15854E+5
  -1.18069E+6   2.34950E+5
  -1.15978E+6   2.42869E+5
  -1.14810E+6   2.38844E+5
  -1.14083E+6   2.47210E+5
  -1.12532E+6   2.61986E+5
  -1.11409E+6   2.63731E+5
  -1.09964E+6   2.66821E+5
  -1.08314E+6   2.66678E+5
  -1.07529E+6   2.66908E+5
  -1.06472E+6   2.73936E+5
  -1.04756E+6   2.78304E+5
  -1.03719E+6   2.76444E+5
  -1.02792E+6   2.76666E+5
  -1.01275E+6   2.79165E+5
  -1.00105E+6   2.83698E+5
  -9.87946E+5   2.88699E+5
  -9.72941E+5   2.90756E+5
  -9.59255E+5   2.94541E+5
  -9.46929E+5   3.00660E+5
  -9.33113E+5   3.04000E+5
  -9.22527E+5   3.06541E+5
  -9.11224E+5   3.07566E+5
  -8.97588E+5   3.06000E+5
  -8.83643E+5   3.05509E+5
  -8.71862E+5   3.05458E+5
  -8.61117E+5   3.04167E+5
  -8.49808E+5   3.03305E+5
  -8.37950E+5   3.03515E+5
  -8.26156E+5   3.01928E+5
  -8.15052E+5   2.99755E+5
  -8.03936E+5   2.98630E+5
  -7.92927E+5   2.98049E+5
  -7.80366E+5   2.97637E+5
  -7.67627E+5   2.97234E+5
  -7.56667E+5   2.96389E+5
  -7.47024E+5   2.95216E+5
  -7.36656E+5   2.93969E+5
  -7.25646E+5   2.92160E+5
  -7.14485E+5   2.89484E+5
  -7.03278E+5   2.86035E+5
  -6.92765E+5   2.83117E+5
  -6.81517E+5   2.80696E+5
  -6.70579E+5   2.79450E+5
  -6.61190E+5   2.77296E+5
  -6.52459E+5   2.73610E+5
  -6.42039E+5   2.69759E+5
  -6.31189E+5   2.68535E+5
  -6.22041E+5   2.67848E+5
  -6.13320E+5   2.64934E+5
  -6.03101E+5   2.61288E+5
  -5.93150E+5   2.58826E+5
  -5.84537E+5   2.56821E+5
  -5.75370E+5   2.53569E+5
  -5.65422E+5   2.49729E+5
  -5.55930E+5   2.46332E+5
  -5.47464E+5   2.42368E+5
  -5.38012E+5   2.39384E+5
  -5.29018E+5   2.36813E+5
  -5.20166E+5   2.33533E+5
  -5.12066E+5   2.29983E+5
  -5.03132E+5   2.27277E+5
  -4.94378E+5   2.25355E+5
  -4.86008E+5   2.23375E+5
  -4.77709E+5   2.20521E+5
  -4.68877E+5   2.18410E+5
  -4.60267E+5   2.17103E+5
  -4.52469E+5   2.15620E+5
  -4.44555E+5   2.13205E+5
  -4.35752E+5   2.09954E+5
  -4.26641E+5   2.07810E+5
  -4.18720E+5   2.06151E+5
  -4.11149E+5   2.04438E+5
  -4.03456E+5   2.02116E+5
  -3.94992E+5   2.00280E+5
  -3.86967E+5   1.98796E+5
  -3.79872E+5   1.97437E+5
  -3.72561E+5   1.95514E+5
  -3.64145E+5   1.93719E+5
  -3.56411E+5   1.92313E+5
  -3.48552E+5   1.91606E+5
  -3.40998E+5   1.91032E+5
  -3.34384E+5   1.90072E+5
  -3.26889E+5   1.88469E+5
  -3.18796E+5   1.86931E+5
  -3.10555E+5   1.86213E+5
  -3.03911E+5   1.86382E+5
  -2.97745E+5   1.84853E+5
  -2.90851E+5   1.83059E+5
  -2.83675E+5   1.81544E+5
  -2.77006E+5   1.80898E+5
  -2.70804E+5   1.79594E+5
  -2.64249E+5   1.77709E+5
  -2.57074E+5   1.76671E+5
  -2.50274E+5   1.75921E+5
  -2.43843E+5   1.75357E+5
  -2.38176E+5   1.74603E+5
  -2.31936E+5   1.73572E+5
  -2.25734E+5   1.72739E+5
  -2.19915E+5   1.71455E+5
  -2.14335E+5   1.70301E+5
  -2.08058E+5   1.69232E+5
  -2.02223E+5   1.68249E+5
  -1.96830E+5   1.67439E+5
  -1.91437E+5   1.66229E+5
  -1.86444E+5   1.65160E+5
  -1.81641E+5   1.63613E+5
  -1.76800E+5   1.61874E+5
  -1.71146E+5   1.60896E+5
  -1.66294E+5   1.60085E+5
  -1.62221E+5   1.59060E+5
  -1.57411E+5   1.57464E+5
  -1.52570E+5   1.56390E+5
  -1.48335E+5   1.55727E+5
  -1.43971E+5   1.55000E+5
  -1.39898E+5   1.53221E+5
  -1.35301E+5   1.51867E+5
  -1.30941E+5   1.51013E+5
  -1.26846E+5   1.50291E+5
  -1.23291E+5   1.49441E+5
  -1.19633E+5   1.48020E+5
  -1.16025E+5   1.46803E+5
  -1.12212E+5   1.45861E+5
  -1.08548E+5   1.44775E+5
  -1.05190E+5   1.43822E+5
  -1.01789E+5   1.43115E+5
  -9.82888E+4   1.41590E+5
  -9.49730E+4   1.40868E+5
  -9.20938E+4   1.40184E+5
  -8.90593E+4   1.39618E+5
  -8.62556E+4   1.38238E+5
  -8.29967E+4   1.37329E+5
  -7.99239E+4   1.36593E+5
  -7.73251E+4   1.35863E+5
  -7.46705E+4   1.34938E+5
  -7.20425E+4   1.33755E+5
  -6.93152E+4   1.32885E+5
  -6.68084E+4   1.32048E+5
  -6.45337E+4   1.31126E+5
  -6.20725E+4   1.30127E+5
  -5.96236E+4   1.29413E+5
  -5.75308E+4   1.28697E+5
  -5.54232E+4   1.28049E+5
  -5.31869E+4   1.26817E+5
  -5.12259E+4   1.26257E+5
  -4.93654E+4   1.25165E+5
  -4.74953E+4   1.24076E+5
  -4.55141E+4   1.23364E+5
  -4.38604E+4   1.22356E+5
  -4.22111E+4   1.21238E+5
  -4.06579E+4   1.20418E+5
  -3.92296E+4   1.19680E+5
  -3.78861E+4   1.18992E+5
  -3.66400E+4   1.17652E+5
  -3.52328E+4   1.16404E+5
  -3.39507E+4   1.15595E+5
  -3.26883E+4   1.14815E+5
  -3.14814E+4   1.13959E+5
  -3.07112E+4   1.12652E+5
  -2.95785E+4   1.11586E+5
  -2.84750E+4   1.10767E+5
  -2.75208E+4   1.09655E+5
  -2.63602E+4   1.08941E+5
  -2.56034E+4   1.07669E+5
  -2.46634E+4   1.07165E+5
  -2.36886E+4   1.06086E+5
  -2.34169E+4   1.05221E+5
  -2.24445E+4   1.04169E+5
  -2.18325E+4   1.03191E+5
  -2.13482E+4   1.02336E+5
  -2.09745E+4   1.01114E+5
  -2.01668E+4   1.00436E+5
  -1.98495E+4   9.92493E+4
  -1.94664E+4   9.83012E+4
  -1.90622E+4   9.73777E+4
  -1.85732E+4   9.65833E+4
  -1.84421E+4   9.55768E+4
  -1.78125E+4   9.45027E+4
  -1.75065E+4   9.32723E+4
  -1.74218E+4   9.25622E+4
  -1.72152E+4   9.17966E+4
  -1.68086E+4   9.05174E+4
  -1.66804E+4   8.95547E+4
  -1.63424E+4   8.85018E+4
  -1.61814E+4   8.77305E+4
  -1.63497E+4   8.66264E+4
  -1.60904E+4   8.58219E+4
  -1.57063E+4   8.44300E+4
  -1.56555E+4   8.36171E+4
  -1.56288E+4   8.24292E+4
  -1.54868E+4   8.14003E+4
  -1.52474E+4   8.02752E+4
  -1.51421E+4   7.92501E+4
  -1.51630E+4   7.82177E+4
  -1.51146E+4   7.71854E+4
  -1.48576E+4   7.61262E+4
  -1.47743E+4   7.49791E+4
  -1.49069E+4   7.38592E+4
  -1.46944E+4   7.25653E+4
  -1.45704E+4   7.18268E+4
  -1.45676E+4   7.04242E+4
  -1.44901E+4   6.91505E+4
  -1.40467E+4   6.80124E+4
  -1.41502E+4   6.69311E+4
  -1.41472E+4   6.57545E+4
  -1.41273E+4   6.44845E+4
  -1.40915E+4   6.31359E+4
  -1.40679E+4   6.21850E+4
  -1.37949E+4   6.08416E+4
  -1.37313E+4   5.98442E+4
  -1.36946E+4   5.84726E+4
  -1.36618E+4   5.77111E+4
  -1.35928E+4   5.65721E+4
  -1.37618E+4   5.51570E+4
  -1.35537E+4   5.40494E+4
  -1.36118E+4   5.28134E+4
  -1.32000E+4   5.16920E+4
  -1.33600E+4   5.04069E+4
  -1.35635E+4   4.95158E+4
  -1.36274E+4   4.83003E+4
  -1.32994E+4   4.72497E+4
  -1.32578E+4   4.60931E+4
  -1.33893E+4   4.49517E+4
  -1.34943E+4   4.38340E+4
  -1.33024E+4   4.28314E+4
  -1.33337E+4   4.18116E+4
  -1.33265E+4   4.09094E+4
  -1.32458E+4   3.98823E+4
  -1.35776E+4   3.88198E+4
  -1.35122E+4   3.73979E+4
  -1.31855E+4   3.65196E+4
  -1.32183E+4   3.56980E+4
  -1.31817E+4   3.47172E+4
  -1.33900E+4   3.40421E+4
  -1.35591E+4   3.29372E+4
  -1.34266E+4   3.20407E+4
  -1.33410E+4   3.08733E+4
  -1.35998E+4   2.96968E+4
  -1.37746E+4   2.91350E+4
  -1.35669E+4   2.82392E+4
  -1.37279E+4   2.73850E+4
  -1.35820E+4   2.65375E+4
  -1.36553E+4   2.58169E+4
  -1.37371E+4   2.47491E+4
  -1.34959E+4   2.38152E+4
  -1.36519E+4   2.31346E+4
  -1.37940E+4   2.23670E+4
  -1.33625E+4   2.14731E+4
  -1.35423E+4   2.07129E+4
  -1.33893E+4   2.00733E+4
  -1.34536E+4   1.92151E+4
  -1.36045E+4   1.87161E+4
  -1.33145E+4   1.79343E+4
  -1.33558E+4   1.71288E+4
  -1.31575E+4   1.65061E+4
  -1.32344E+4   1.56285E+4
  -1.29459E+4   1.50158E+4
  -1.30703E+4   1.41368E+4
  -1.30399E+4   1.34764E+4
  -1.30701E+4   1.29492E+4
  -1.29521E+4   1.23982E+4
  -1.27450E+4   1.19113E+4
  -1.26979E+4   1.11657E+4
  -1.27132E+4   1.04854E+4
  -1.26445E+4   9.97513E+3
  -1.24920E+4   9.45771E+3
  -1.26859E+4   8.70090E+3
  -1.25395E+4   8.31243E+3
  -1.23781E+4   7.59191E+3
  -1.22036E+4   7.21252E+3
  -1.22847E+4   6.67108E+3
  -1.22134E+4   6.24992E+3
  -1.19362E+4   5.54647E+3
  -1.17925E+4   5.22174E+3
  -1.18915E+4   4.53802E+3
  -1.16748E+4   4.20339E+3
  -1.15758E+4   3.72417E+3
  -1.15279E+4   3.08776E+3
  -1.13429E+4   2.90142E+3
  -1.12811E+4   2.44286E+3
  -1.11575E+4   1.75196E+3
  -1.07979E+4   1.38425E+3
  -1.14062E+4   1.15540E+3
  -1.10523E+4   6.26279E+2
  -1.10030E+4   5.54019E+1
  -1.08368E+4  -1.01755E+1
  -1.06754E+4  -5.76504E+2
  -1.05132E+4  -7.90241E+2
  -1.04160E+4  -1.15008E+3
  -1.03584E+4  -1.64971E+3
  -1.03114E+4  -1.94716E+3
  -1.02031E+4  -2.41746E+3
  -1.01568E+4  -2.65653E+3
  -9.95202E+3  -2.81084E+3
  -1.00196E+4  -3.26418E+3
  -9.81577E+3  -3.71956E+3
  -9.73415E+3  -3.93800E+3
  -9.84020E+3  -4.12060E+3
  -9.70050E+3  -4.42571E+3
  -9.42571E+3  -4.79453E+3
  -9.29214E+3  -5.01749E+3
  -9.20810E+3  -5.40299E+3
  -9.14180E+3  -5.93173E+3
  -8.89325E+3  -5.95193E+3
  -8.80579E+3  -6.06553E+3
  -8.53329E+3  -6.23446E+3
  -8.59643E+3  -6.45664E+3
  -8.45816E+3  -6.54256E+3
  -8.26672E+3  -6.75047E+3
  -8.28232E+3  -6.92758E+3
  -8.18280E+3  -7.26738E+3
  -7.97753E+3  -7.44499E+3
  -7.78954E+3  -7.80255E+3
  -7.91422E+3  -7.51380E+3
  -7.92238E+3  -8.31973E+3
  -7.61375E+3  -8.12625E+3
  -7.49225E+3  -8.43236E+3
  -7.27078E+3  -8.55150E+3
  -7.13669E+3  -8.51916E+3
  -7.30040E+3  -8.69772E+3
  -6.87513E+3  -8.66014E+3
  -6.97059E+3  -9.03154E+3
  -6.63644E+3  -9.00582E+3
  -6.61842E+3  -8.98439E+3
  -6.48881E+3  -9.15288E+3
  -6.37848E+3  -9.24441E+3
  -6.39827E+3  -9.48227E+3
  -6.37367E+3  -9.56028E+3
  -5.97544E+3  -9.53903E+3
  -6.02999E+3  -9.35238E+3
  -5.96576E+3  -9.44038E+3
  -5.56465E+3  -9.50032E+3
  -5.51909E+3  -9.75370E+3
  -5.41791E+3  -9.88984E+3
  -5.37949E+3  -9.96542E+3
  -5.46784E+3  -9.97119E+3
  -5.03830E+3  -1.00596E+4
  -5.04466E+3  -1.00121E+4
  -4.75968E+3  -1.00624E+4
  -4.68087E+3  -9.95955E+3
  -4.54673E+3  -9.95007E+3
  -4.41400E+3  -1.02010E+4
  -4.24627E+3  -1.01498E+4
