 
 $NMID
 ID=''
 FMTDAT='(2E13.5)'
 TRAMP=   1.00000E+0
 VOLUME=   1.00000E+0
 $END
  -5.43365E+5   3.11424E+4
  -1.39648E+6  -3.82174E+5
  -1.38527E+6  -1.74229E+5
  -1.22571E+6  -2.44875E+5
  -1.22582E+6  -3.72969E+5
  -1.20756E+6  -4.12499E+5
  -1.18532E+6  -4.77643E+5
  -1.23112E+6  -5.03038E+5
  -1.20123E+6  -4.66448E+5
  -1.12893E+6  -4.99611E+5
  -1.10560E+6  -5.50463E+5
  -1.07667E+6  -5.77866E+5
  -1.05750E+6  -6.23670E+5
  -1.06526E+6  -6.36726E+5
  -1.03309E+6  -6.23978E+5
  -9.89204E+5  -6.46331E+5
  -9.71054E+5  -6.79436E+5
  -9.36278E+5  -7.04510E+5
  -9.05915E+5  -7.39524E+5
  -8.92661E+5  -7.59077E+5
  -8.55377E+5  -7.70195E+5
  -8.16626E+5  -7.95283E+5
  -7.94422E+5  -8.14107E+5
  -7.61780E+5  -8.30694E+5
  -7.28155E+5  -8.51815E+5
  -7.09521E+5  -8.56222E+5
  -6.81520E+5  -8.63158E+5
  -6.52975E+5  -8.78994E+5
  -6.27126E+5  -8.85751E+5
  -6.00373E+5  -8.89609E+5
  -5.73717E+5  -9.04597E+5
  -5.45675E+5  -9.12729E+5
  -5.10457E+5  -9.19456E+5
  -4.81316E+5  -9.28856E+5
  -4.55021E+5  -9.34338E+5
  -4.24453E+5  -9.41093E+5
  -3.93804E+5  -9.50316E+5
  -3.63627E+5  -9.53193E+5
  -3.33420E+5  -9.54036E+5
  -3.07748E+5  -9.58049E+5
  -2.82569E+5  -9.57459E+5
  -2.57101E+5  -9.55252E+5
  -2.34297E+5  -9.52755E+5
  -2.09620E+5  -9.50267E+5
  -1.83746E+5  -9.47247E+5
  -1.61487E+5  -9.46576E+5
  -1.37337E+5  -9.44204E+5
  -1.09396E+5  -9.38962E+5
  -8.28391E+4  -9.31231E+5
  -5.81896E+4  -9.25400E+5
  -3.19972E+4  -9.21219E+5
  -6.22713E+3  -9.15335E+5
   1.75753E+4  -9.08258E+5
   4.03547E+4  -9.00585E+5
   6.36679E+4  -8.91683E+5
   8.74464E+4  -8.81080E+5
   1.09875E+5  -8.71158E+5
   1.30160E+5  -8.61084E+5
   1.48420E+5  -8.50262E+5
   1.68139E+5  -8.39210E+5
   1.88121E+5  -8.26782E+5
   2.08102E+5  -8.14576E+5
   2.28271E+5  -8.02559E+5
   2.47941E+5  -7.89419E+5
   2.65726E+5  -7.74628E+5
   2.82127E+5  -7.59451E+5
   2.99748E+5  -7.44157E+5
   3.16722E+5  -7.28393E+5
   3.33231E+5  -7.14335E+5
   3.50007E+5  -6.99280E+5
   3.64745E+5  -6.82360E+5
   3.77599E+5  -6.65634E+5
   3.90253E+5  -6.50300E+5
   4.04847E+5  -6.34195E+5
   4.18200E+5  -6.16525E+5
   4.29776E+5  -5.98965E+5
   4.41119E+5  -5.82125E+5
   4.52624E+5  -5.64188E+5
   4.64003E+5  -5.44752E+5
   4.73832E+5  -5.25362E+5
   4.83869E+5  -5.06493E+5
   4.92577E+5  -4.87696E+5
   5.01114E+5  -4.68943E+5
   5.09428E+5  -4.49521E+5
   5.15992E+5  -4.30162E+5
   5.22192E+5  -4.10790E+5
   5.27993E+5  -3.91999E+5
   5.33094E+5  -3.73674E+5
   5.37864E+5  -3.55177E+5
   5.40720E+5  -3.36998E+5
   5.43699E+5  -3.19159E+5
   5.46800E+5  -3.00820E+5
   5.49539E+5  -2.81728E+5
   5.51238E+5  -2.62321E+5
   5.51557E+5  -2.44200E+5
   5.52239E+5  -2.26109E+5
   5.53550E+5  -2.08100E+5
   5.53771E+5  -1.89436E+5
   5.53253E+5  -1.71206E+5
   5.51823E+5  -1.54079E+5
   5.50706E+5  -1.36928E+5
   5.49090E+5  -1.18788E+5
   5.46060E+5  -1.01466E+5
   5.42534E+5  -8.51426E+4
   5.39470E+5  -7.00212E+4
   5.36388E+5  -5.51475E+4
   5.32972E+5  -3.89828E+4
   5.28401E+5  -2.23610E+4
   5.23050E+5  -7.10044E+3
   5.18118E+5   6.86767E+3
   5.13522E+5   2.08744E+4
   5.08734E+5   3.58033E+4
   5.02423E+5   5.14475E+4
   4.95912E+5   6.55205E+4
   4.89573E+5   7.94139E+4
   4.83474E+5   9.33793E+4
   4.76356E+5   1.07120E+5
   4.68307E+5   1.19962E+5
   4.60121E+5   1.31692E+5
   4.52500E+5   1.43315E+5
   4.44905E+5   1.55704E+5
   4.37446E+5   1.67113E+5
   4.28808E+5   1.78082E+5
   4.20411E+5   1.89327E+5
   4.11210E+5   2.00166E+5
   4.01653E+5   2.10455E+5
   3.92165E+5   2.20281E+5
   3.82612E+5   2.29779E+5
   3.73160E+5   2.39135E+5
   3.63360E+5   2.49046E+5
   3.52758E+5   2.58228E+5
   3.41720E+5   2.67110E+5
   3.31120E+5   2.74845E+5
   3.20954E+5   2.82246E+5
   3.09802E+5   2.90073E+5
   2.98406E+5   2.97200E+5
   2.87224E+5   3.03540E+5
   2.76764E+5   3.10037E+5
   2.65709E+5   3.16436E+5
   2.53926E+5   3.22609E+5
   2.42046E+5   3.27488E+5
   2.30901E+5   3.31814E+5
   2.20102E+5   3.35684E+5
   2.09214E+5   3.40997E+5
   1.97308E+5   3.45396E+5
   1.85589E+5   3.48287E+5
   1.74341E+5   3.50853E+5
   1.63234E+5   3.53305E+5
   1.51947E+5   3.55974E+5
   1.40679E+5   3.57838E+5
   1.30133E+5   3.59023E+5
   1.19697E+5   3.60445E+5
   1.09164E+5   3.62089E+5
   9.83235E+4   3.63001E+5
   8.76506E+4   3.63585E+5
   7.74843E+4   3.63156E+5
   6.78432E+4   3.63296E+5
   5.76732E+4   3.63026E+5
   4.77188E+4   3.62284E+5
   3.78159E+4   3.60946E+5
   2.84970E+4   3.60106E+5
   1.89573E+4   3.58429E+5
   9.84024E+3   3.56412E+5
   9.39531E+2   3.54474E+5
  -7.64917E+3   3.51816E+5
  -1.59307E+4   3.49689E+5
  -2.43040E+4   3.47317E+5
  -3.29428E+4   3.44974E+5
  -4.08050E+4   3.41844E+5
  -4.84271E+4   3.38173E+5
  -5.60360E+4   3.34946E+5
  -6.35990E+4   3.31640E+5
  -7.08781E+4   3.27782E+5
  -7.79470E+4   3.23835E+5
  -8.45855E+4   3.19796E+5
  -9.14550E+4   3.15839E+5
  -9.83145E+4   3.11653E+5
  -1.05152E+5   3.06759E+5
  -1.11153E+5   3.01543E+5
  -1.16862E+5   2.96780E+5
  -1.23109E+5   2.92294E+5
  -1.29226E+5   2.87451E+5
  -1.34807E+5   2.81869E+5
  -1.40227E+5   2.76513E+5
  -1.45061E+5   2.70968E+5
  -1.50336E+5   2.65503E+5
  -1.54948E+5   2.59728E+5
  -1.58990E+5   2.53994E+5
  -1.63008E+5   2.48544E+5
  -1.67199E+5   2.43227E+5
  -1.72000E+5   2.37631E+5
  -1.76275E+5   2.31105E+5
  -1.79857E+5   2.24413E+5
  -1.83123E+5   2.18195E+5
  -1.86443E+5   2.12220E+5
  -1.89708E+5   2.06077E+5
  -1.93143E+5   1.99516E+5
  -1.95767E+5   1.92966E+5
  -1.98751E+5   1.86755E+5
  -2.01541E+5   1.80103E+5
  -2.03972E+5   1.73171E+5
  -2.05699E+5   1.66198E+5
  -2.07417E+5   1.59680E+5
  -2.08950E+5   1.53510E+5
  -2.10832E+5   1.46766E+5
  -2.12439E+5   1.40267E+5
  -2.13653E+5   1.33330E+5
  -2.14562E+5   1.26761E+5
  -2.15385E+5   1.20363E+5
  -2.16811E+5   1.13542E+5
  -2.16923E+5   1.07284E+5
  -2.17014E+5   1.00479E+5
  -2.17110E+5   9.45978E+4
  -2.17682E+5   8.80228E+4
  -2.17549E+5   8.11096E+4
  -2.16734E+5   7.44898E+4
  -2.15897E+5   6.86505E+4
  -2.15337E+5   6.29958E+4
  -2.14590E+5   5.72857E+4
  -2.13521E+5   5.10406E+4
  -2.12086E+5   4.53330E+4
  -2.11041E+5   3.99627E+4
  -2.09752E+5   3.43556E+4
  -2.08295E+5   2.87345E+4
  -2.06049E+5   2.26265E+4
  -2.03763E+5   1.75851E+4
  -2.01933E+5   1.27657E+4
  -1.99987E+5   7.92552E+3
  -1.98147E+5   2.37660E+3
  -1.95429E+5  -2.81414E+3
  -1.92806E+5  -7.32639E+3
  -1.90365E+5  -1.18042E+4
  -1.87497E+5  -1.59905E+4
  -1.84997E+5  -2.09253E+4
  -1.82223E+5  -2.47938E+4
  -1.79527E+5  -2.88162E+4
  -1.76507E+5  -3.28012E+4
  -1.73480E+5  -3.68031E+4
  -1.70275E+5  -4.07678E+4
  -1.66647E+5  -4.42011E+4
  -1.63677E+5  -4.74841E+4
  -1.60829E+5  -5.10975E+4
  -1.57562E+5  -5.46222E+4
  -1.53994E+5  -5.80332E+4
  -1.50193E+5  -6.10692E+4
  -1.46683E+5  -6.38745E+4
  -1.43676E+5  -6.67567E+4
  -1.39712E+5  -6.98970E+4
  -1.35735E+5  -7.22493E+4
  -1.32651E+5  -7.45156E+4
  -1.29216E+5  -7.73804E+4
  -1.25808E+5  -7.97731E+4
  -1.21664E+5  -8.26577E+4
  -1.17807E+5  -8.43441E+4
  -1.14408E+5  -8.62645E+4
  -1.10897E+5  -8.83645E+4
  -1.07180E+5  -9.06433E+4
  -1.03182E+5  -9.24145E+4
  -9.92739E+4  -9.40903E+4
  -9.60470E+4  -9.58420E+4
  -9.19599E+4  -9.78149E+4
  -8.78340E+4  -9.93862E+4
  -8.39099E+4  -1.00370E+5
  -8.03634E+4  -1.01585E+5
  -7.69198E+4  -1.02687E+5
  -7.32391E+4  -1.04213E+5
  -6.90554E+4  -1.05367E+5
  -6.53199E+4  -1.06051E+5
  -6.17084E+4  -1.06674E+5
  -5.82624E+4  -1.07452E+5
  -5.42971E+4  -1.08458E+5
  -5.09271E+4  -1.08886E+5
  -4.71497E+4  -1.09343E+5
  -4.36675E+4  -1.09613E+5
  -4.04460E+4  -1.10058E+5
  -3.65071E+4  -1.10244E+5
  -3.28866E+4  -1.10305E+5
  -2.95645E+4  -1.09900E+5
  -2.64373E+4  -1.10267E+5
  -2.31143E+4  -1.09837E+5
  -1.94651E+4  -1.09815E+5
  -1.62542E+4  -1.09212E+5
  -1.31639E+4  -1.08857E+5
  -1.01923E+4  -1.08658E+5
  -6.93764E+3  -1.08212E+5
  -3.81104E+3  -1.07267E+5
  -1.12002E+3  -1.06641E+5
   1.77117E+3  -1.05593E+5
   4.20820E+3  -1.05125E+5
   7.50867E+3  -1.04446E+5
   1.03559E+4  -1.03044E+5
   1.28528E+4  -1.02313E+5
   1.53013E+4  -1.01048E+5
   1.80379E+4  -1.00277E+5
   2.03838E+4  -9.87536E+4
   2.27512E+4  -9.77452E+4
   2.51347E+4  -9.64905E+4
   2.71727E+4  -9.53874E+4
   2.98126E+4  -9.42811E+4
   3.20181E+4  -9.23567E+4
   3.38063E+4  -9.07495E+4
   3.54553E+4  -8.95309E+4
   3.75676E+4  -8.83103E+4
   3.96757E+4  -8.68334E+4
   4.15300E+4  -8.50053E+4
   4.31112E+4  -8.32406E+4
   4.48183E+4  -8.16508E+4
   4.64179E+4  -8.01158E+4
   4.82347E+4  -7.85056E+4
   4.91440E+4  -7.66743E+4
   5.08095E+4  -7.49297E+4
   5.20234E+4  -7.32894E+4
   5.35350E+4  -7.16450E+4
   5.49432E+4  -6.93458E+4
   5.61741E+4  -6.78511E+4
   5.68009E+4  -6.61465E+4
   5.78638E+4  -6.45193E+4
   5.89842E+4  -6.25045E+4
   6.01580E+4  -6.07161E+4
   6.07232E+4  -5.87306E+4
   6.14501E+4  -5.71643E+4
   6.23354E+4  -5.51483E+4
   6.29586E+4  -5.30077E+4
   6.35685E+4  -5.12765E+4
   6.41079E+4  -4.94432E+4
   6.48840E+4  -4.77625E+4
   6.52437E+4  -4.59762E+4
   6.57975E+4  -4.39609E+4
   6.62897E+4  -4.19714E+4
   6.62699E+4  -3.98716E+4
   6.63251E+4  -3.84420E+4
   6.67647E+4  -3.65747E+4
   6.67354E+4  -3.48457E+4
   6.67750E+4  -3.31501E+4
   6.67908E+4  -3.14732E+4
   6.72390E+4  -2.95469E+4
   6.70848E+4  -2.76183E+4
   6.67384E+4  -2.57846E+4
   6.65642E+4  -2.39914E+4
   6.66091E+4  -2.25896E+4
   6.63084E+4  -2.05543E+4
   6.63000E+4  -1.88747E+4
   6.55714E+4  -1.70166E+4
   6.52411E+4  -1.57588E+4
   6.48555E+4  -1.40524E+4
   6.45387E+4  -1.24287E+4
   6.40907E+4  -1.06676E+4
   6.34223E+4  -9.34080E+3
   6.31302E+4  -7.83282E+3
   6.25059E+4  -6.62601E+3
   6.20221E+4  -4.77894E+3
   6.12710E+4  -3.33088E+3
   6.06303E+4  -1.81214E+3
   5.97794E+4  -5.95945E+2
   5.91618E+4   5.93621E+2
   5.84617E+4   2.06146E+3
   5.74522E+4   3.02391E+3
   5.67144E+4   4.68773E+3
   5.59024E+4   5.72723E+3
   5.53092E+4   7.07583E+3
   5.44557E+4   8.17181E+3
   5.32752E+4   9.32808E+3
   5.22358E+4   1.00822E+4
   5.14323E+4   1.11990E+4
   5.07770E+4   1.24247E+4
   4.95307E+4   1.35490E+4
   4.87876E+4   1.41853E+4
