 LCModel (Version 6.3-1N) Copyright: S.W. Provencher.          Ref.: Magn. Reson. Med. 30:672-679 (1993).                
 Slice_N1@13_13  28-Feb-2025 11:39:32
 27 lines in following concentration table = NCONC+1
    Conc.  %SD /Cr+PCr  Metabolite                                         
 3.17E-04   4% 4.8E-04 Mac                                                 
    2.376  42%   3.594 Cr                                                  
    2.912  33%   4.406 PCr                                                 
    4.909  20%   7.427 Ins                                                 
    6.422  12%   9.716 NAA                                                 
    5.836  17%   8.829 Tau                                                 
    0.677 133%   1.025 PCho                                                
    0.550 158%   0.832 GPC                                                 
    6.830  17%  10.333 Glu                                                 
    3.696  23%   5.591 Gln                                                 
    2.350  32%   3.556 Ala                                                 
    1.553  80%   2.349 Asc                                                 
    0.944  71%   1.429 Asp                                                 
    0.143 274%   0.217 GABA                                                
    0.446  98%   0.675 Glc                                                 
    0.536  88%   0.812 GSH                                                 
    2.848  26%   4.309 Lac                                                 
    1.826  29%   2.762 NAAG                                                
    1.339  84%   2.025 PE                                                  
    1.227  24%   1.857 GPC+PCho                                            
    8.248  11%  12.479 NAA+NAAG                                            
   10.525  13%  15.924 Glu+Gln                                             
    5.288  14%   8.000 Cr+PCr                                              
    8.248  11%  12.479 NAA+NAAG                                            
    5.288  14%   8.000 Cr+PCr                                              
   10.525  13%  15.924 Glu+Gln                                             
   6 lines in following misc. output table
  FWHM = 0.016 ppm    S/N =   3                                            
  Data shift = 0.024 ppm                                                   
  Ph: 175 deg       0.0 deg/ppm                                            
  alphaB,S = 2.8E-01,   3.3E-01                                            
   19 spline knots.   Ns = 5(1)                                            
   2 inflections.     2 extrema                                            
  480 points on ppm-axis = NY
      4.100000     4.091866     4.083733     4.075600     4.067466     4.059333     4.051199     4.043066     4.034933     4.026799
      4.018666     4.010532     4.002399     3.994265     3.986132     3.977998     3.969864     3.961731     3.953597     3.945463
      3.937330     3.929196     3.921062     3.912929     3.904795     3.896662     3.888528     3.880394     3.872261     3.864127
      3.855993     3.847860     3.839726     3.831592     3.823459     3.815325     3.807191     3.799058     3.790924     3.782790
      3.774657     3.766523     3.758389     3.750256     3.742122     3.733989     3.725855     3.717721     3.709588     3.701454
      3.693320     3.685187     3.677053     3.668919     3.660786     3.652652     3.644518     3.636385     3.628251     3.620117
      3.611984     3.603850     3.595716     3.587583     3.579449     3.571316     3.563182     3.555048     3.546915     3.538781
      3.530647     3.522514     3.514380     3.506246     3.498113     3.489979     3.481845     3.473712     3.465578     3.457444
      3.449311     3.441177     3.433043     3.424910     3.416776     3.408643     3.400509     3.392375     3.384242     3.376108
      3.367974     3.359841     3.351707     3.343573     3.335440     3.327306     3.319172     3.311039     3.302905     3.294771
      3.286638     3.278504     3.270370     3.262237     3.254103     3.245970     3.237836     3.229702     3.221569     3.213435
      3.205301     3.197168     3.189034     3.180900     3.172767     3.164633     3.156499     3.148366     3.140232     3.132098
      3.123965     3.115831     3.107697     3.099564     3.091430     3.083297     3.075163     3.067029     3.058896     3.050762
      3.042628     3.034495     3.026361     3.018227     3.010094     3.001960     2.993826     2.985693     2.977559     2.969425
      2.961292     2.953158     2.945024     2.936891     2.928757     2.920624     2.912490     2.904356     2.896223     2.888089
      2.879955     2.871822     2.863688     2.855554     2.847421     2.839287     2.831153     2.823020     2.814886     2.806752
      2.798619     2.790485     2.782351     2.774218     2.766084     2.757951     2.749817     2.741683     2.733550     2.725416
      2.717282     2.709149     2.701015     2.692881     2.684748     2.676614     2.668480     2.660347     2.652213     2.644079
      2.635946     2.627812     2.619678     2.611545     2.603411     2.595278     2.587144     2.579010     2.570877     2.562743
      2.554609     2.546476     2.538342     2.530208     2.522075     2.513941     2.505807     2.497674     2.489540     2.481406
      2.473273     2.465139     2.457006     2.448872     2.440738     2.432605     2.424471     2.416337     2.408204     2.400070
      2.391936     2.383803     2.375669     2.367535     2.359402     2.351268     2.343134     2.335001     2.326867     2.318733
      2.310600     2.302466     2.294333     2.286199     2.278065     2.269932     2.261798     2.253664     2.245531     2.237397
      2.229263     2.221130     2.212996     2.204862     2.196729     2.188595     2.180461     2.172328     2.164194     2.156060
      2.147927     2.139793     2.131660     2.123526     2.115392     2.107259     2.099125     2.090991     2.082858     2.074724
      2.066590     2.058457     2.050323     2.042189     2.034056     2.025922     2.017788     2.009655     2.001521     1.993387
      1.985254     1.977120     1.968987     1.960853     1.952719     1.944586     1.936452     1.928318     1.920185     1.912051
      1.903917     1.895784     1.887650     1.879516     1.871383     1.863249     1.855115     1.846982     1.838848     1.830714
      1.822581     1.814447     1.806314     1.798180     1.790046     1.781913     1.773779     1.765645     1.757512     1.749378
      1.741244     1.733111     1.724977     1.716843     1.708710     1.700576     1.692442     1.684309     1.676175     1.668041
      1.659908     1.651774     1.643641     1.635507     1.627373     1.619240     1.611106     1.602972     1.594839     1.586705
      1.578571     1.570438     1.562304     1.554170     1.546037     1.537903     1.529769     1.521636     1.513502     1.505368
      1.497235     1.489101     1.480968     1.472834     1.464700     1.456567     1.448433     1.440299     1.432166     1.424032
      1.415898     1.407765     1.399631     1.391497     1.383364     1.375230     1.367096     1.358963     1.350829     1.342695
      1.334562     1.326428     1.318295     1.310161     1.302027     1.293894     1.285760     1.277626     1.269493     1.261359
      1.253225     1.245092     1.236958     1.228824     1.220691     1.212557     1.204423     1.196290     1.188156     1.180022
      1.171889     1.163755     1.155622     1.147488     1.139354     1.131221     1.123087     1.114953     1.106820     1.098686
      1.090552     1.082419     1.074285     1.066151     1.058018     1.049884     1.041750     1.033617     1.025483     1.017349
      1.009216     1.001082     0.992949     0.984815     0.976681     0.968548     0.960414     0.952280     0.944147     0.936013
      0.927879     0.919746     0.911612     0.903478     0.895345     0.887211     0.879077     0.870944     0.862810     0.854676
      0.846543     0.838409     0.830276     0.822142     0.814008     0.805875     0.797741     0.789607     0.781474     0.773340
      0.765206     0.757073     0.748939     0.740805     0.732672     0.724538     0.716404     0.708271     0.700137     0.692003
      0.683870     0.675736     0.667603     0.659469     0.651335     0.643202     0.635068     0.626934     0.618801     0.610667
      0.602533     0.594400     0.586266     0.578132     0.569999     0.561865     0.553731     0.545598     0.537464     0.529330
      0.521197     0.513063     0.504930     0.496796     0.488662     0.480529     0.472395     0.464261     0.456128     0.447994
      0.439861     0.431727     0.423593     0.415460     0.407326     0.399192     0.391059     0.382925     0.374792     0.366658
      0.358524     0.350391     0.342257     0.334124     0.325990     0.317856     0.309723     0.301589     0.293455     0.285322
      0.277188     0.269055     0.260921     0.252787     0.244654     0.236520     0.228386     0.220253     0.212119     0.203986
 NY phased data points follow
  -9.06489E+01 -9.12126E+01 -9.19333E+01 -9.48171E+01 -1.01821E+02 -7.16421E+01 -8.91308E+01 -1.10285E+02 -9.41836E+01 -8.91634E+01
  -1.06743E+02 -1.06032E+02 -1.05194E+02 -1.04231E+02 -1.09437E+02 -1.28100E+02 -1.02682E+02 -1.16092E+02 -1.25572E+02 -1.24159E+02
  -1.41048E+02 -1.10428E+02 -9.70672E+01 -8.49901E+01 -5.06164E+01 -4.53033E+01 -6.01397E+01 -4.78629E+01 -3.16011E+01 -3.82518E+01
  -5.08642E+01 -4.30766E+01 -4.54214E+01 -5.81883E+01 -5.27117E+01 -6.60237E+01 -6.22413E+01 -6.43454E+01 -8.89336E+01 -1.02968E+02
  -1.04421E+02 -9.62064E+01 -9.22023E+01 -8.30064E+01 -8.00856E+01 -4.54312E+01 -2.00682E+01 -3.42074E+01 -2.77715E+01 -2.71032E+01
  -3.19110E+01 -2.40702E+01 -3.53646E+01 -4.33687E+01 -4.25812E+01 -5.90234E+01 -5.44087E+01 -5.97943E+01 -8.79805E+01 -7.20505E+01
  -5.16784E+01 -5.61810E+01 -4.17471E+01 -2.86336E+01 -2.42440E+01 -1.58259E+01 -8.69303E+00 -1.92041E+01 -6.87809E+01 -8.51574E+01
  -7.39526E+01 -5.84989E+01 -4.56031E+01 -4.74713E+01 -2.19736E+01 -1.04960E+01 -1.09600E+01 -9.45273E+00 -1.38164E+01 -1.40028E+01
  -1.47307E+01 -2.51166E+01 -4.46597E+01 -6.69222E+01 -7.03558E+01 -5.02707E+01 -5.80627E+01 -4.15087E+01 -2.85095E+01 -3.50435E+01
  -1.62408E+01 -1.07890E+01 -3.85911E+00 -2.77204E+00  6.62563E+00  1.65829E+01  1.11297E+01 -4.32296E+00 -1.54571E+01 -7.22828E+00
  -1.22822E+01 -2.63934E+01 -3.50226E+01 -4.04619E+01 -7.18593E+01 -9.89218E+01 -9.12890E+01 -7.94523E+01 -1.06782E+02 -1.83469E+02
  -2.38483E+02 -2.05096E+02 -1.37566E+02 -1.17431E+02 -1.08726E+02 -9.56527E+01 -7.66646E+01 -6.72190E+01 -6.77238E+01 -6.12307E+01
  -5.83640E+01 -5.15844E+01 -5.23054E+01 -3.31658E+01 -2.38506E+01 -2.78195E+01 -2.20007E+01 -1.44372E+00  2.26616E+01  2.77858E+01
   4.60978E+01  1.13032E+01 -8.11727E+01 -1.40805E+02 -1.42812E+02 -1.35036E+02 -1.27556E+02 -1.20243E+02 -1.29420E+02 -1.25861E+02
  -1.23621E+02 -1.14552E+02 -1.23943E+02 -1.21387E+02 -1.09567E+02 -1.19491E+02 -1.11076E+02 -1.14934E+02 -1.04631E+02 -1.01760E+02
  -1.00088E+02 -9.06813E+01 -8.74466E+01 -6.71565E+01 -7.95549E+01 -7.96165E+01 -7.50214E+01 -7.68793E+01 -6.00927E+01 -6.95927E+01
  -7.77434E+01 -6.81108E+01 -6.57648E+01 -7.04387E+01 -6.28859E+01 -6.97269E+01 -7.34830E+01 -5.12188E+01 -5.96030E+01 -7.32084E+01
  -5.99117E+01 -3.28743E+01 -2.80077E+01 -4.58822E+01 -5.38261E+01 -4.51647E+01 -3.07183E+01 -3.53409E+01 -4.92577E+01 -7.32562E+01
  -6.47985E+01 -7.11792E+01 -9.11644E+01 -7.35840E+01 -9.39329E+01 -8.92484E+01 -8.79737E+01 -7.81202E+01 -6.26869E+01 -8.28889E+01
  -6.92058E+01 -7.85347E+01 -6.35691E+01 -5.25254E+01 -5.23729E+01 -5.17686E+01 -6.43645E+01 -5.34561E+01 -6.57472E+01 -4.98525E+01
  -5.73189E+01 -5.66595E+01 -2.69050E+01 -3.22224E+01 -4.10023E+01 -3.72702E+01 -3.65524E+01 -6.81772E+01 -6.43582E+01 -7.11741E+01
  -6.99831E+01 -6.17336E+01 -5.65312E+01 -2.50095E+01 -2.31211E+01  1.52063E+01  1.50595E+01  1.05525E+01  1.65351E+01 -4.92661E-01
  -5.69074E+00 -4.56331E+01 -2.88758E+01 -2.70845E+01 -3.90668E+01 -2.21354E+01 -3.18213E+01 -2.75144E+01 -4.11345E+01 -4.15217E+01
  -4.42549E+01 -5.82200E+01 -5.08884E+01 -6.46581E+01 -7.82437E+01 -8.58253E+01 -9.80721E+01 -9.37123E+01 -8.60443E+01 -1.00368E+02
  -9.56084E+01 -7.40034E+01 -7.54769E+01 -6.09652E+01 -4.01065E+01 -2.46262E+01 -2.72501E+01 -5.17032E+01 -5.56216E+01 -6.32432E+01
  -6.44767E+01 -5.61549E+01 -5.99149E+01 -6.44486E+01 -6.62766E+01 -9.15618E+01 -9.46267E+01  2.36007E+01  1.05786E+02  8.26271E+01
   9.14029E+01  9.56137E+01  8.26755E+01  7.65905E+01  5.47378E+01  5.65397E+01  5.68104E+01  4.27480E+01  4.15632E+01  2.95815E+01
   4.26862E+01  3.97227E+01  2.76627E+01  4.74518E+01  2.52806E+01  2.61706E+01  3.98882E+01  1.40546E+01  1.96475E+01  3.02375E+01
   1.44065E+01  1.49941E+01  2.03380E+01  2.62506E+00 -4.18432E+00  9.37394E+00  4.31010E+00 -2.87082E+00 -4.30714E-01 -8.23349E+00
   3.01225E+00 -1.10815E+01 -2.83471E+01 -4.81490E+00 -6.62854E+00 -1.19230E+01 -9.23165E+00 -1.23375E+01 -1.54877E+01  4.18861E+00
   1.05591E+01 -5.02414E+00  6.97950E+00  8.27418E+00  6.51767E+00  9.37900E+00  1.67129E+01  3.38172E+01  4.44323E+01  5.45856E+01
   7.27719E+01  8.04710E+01  8.27822E+01  9.96517E+01  1.02880E+02  1.00637E+02  1.07239E+02  1.22252E+02  1.31671E+02  1.44880E+02
   1.41567E+02  1.28982E+02  1.26181E+02  1.03125E+02  8.20004E+01  5.17571E+01  4.02073E+01  1.74344E+01 -1.52134E+00  2.65851E-01
  -3.69836E+01 -6.21331E+01 -6.98629E+01 -6.85866E+01 -8.75031E+01 -9.23162E+01 -7.53726E+01 -6.62415E+01 -5.27324E+01 -5.08363E+01
  -4.40343E+01 -5.19216E+01 -4.57983E+01 -4.01049E+01 -5.00884E+01 -4.38439E+01 -3.76617E+01 -4.92402E+01 -5.27919E+01 -4.49661E+01
  -4.60340E+01 -2.25422E+01 -3.78173E+01 -5.27737E+01 -4.06832E+01 -5.19085E+01 -4.89267E+01 -5.60226E+01 -4.70689E+01 -3.12207E+01
  -3.78948E+01 -3.23882E+01 -1.98608E+01 -1.76848E+01 -3.42112E+01 -3.55788E+01 -4.94120E+00 -4.22556E+00 -1.54377E+01 -7.38921E+00
  -1.20247E+01 -1.44909E+01 -9.41632E+00  2.52119E+00 -4.12412E+00 -4.25208E+00  2.12703E+00  8.09502E+00  1.63605E+01  4.09321E+00
   2.41171E+01  3.40402E+01  4.21588E+01  4.47551E+01  5.55014E+01  8.07290E+01  5.99912E+01  6.98549E+01  6.68347E+01  5.57552E+01
   5.88741E+01  4.48003E+01  2.78697E+01  5.32353E+00  1.09295E+01  1.09211E+01 -2.95919E+00 -6.36942E+00 -4.31379E+00 -1.74596E+01
  -3.03751E+01 -4.77669E+01 -6.04981E+01 -4.54732E+01 -4.72931E+01 -5.64282E+01 -6.79136E+01 -5.44152E+01 -6.74309E+01 -8.59232E+01
  -4.51070E+01 -5.95088E+01 -7.79487E+01 -4.99599E+01 -4.89892E+01 -5.13464E+01 -4.30775E+01 -6.38058E+01 -6.88025E+01 -5.03911E+01
  -5.90048E+01 -5.50478E+01 -5.72699E+01 -6.66924E+01 -5.16198E+01 -4.96028E+01 -5.28003E+01 -4.25805E+01 -4.34471E+01 -5.77117E+01
  -5.45032E+01 -4.47787E+01 -5.69608E+01 -5.78453E+01 -5.02584E+01 -3.77289E+01 -2.76321E+01 -5.60792E+01 -5.58276E+01 -5.13586E+01
  -4.77941E+01 -3.72707E+01 -5.43596E+01 -4.39954E+01 -4.81816E+01 -4.74661E+01 -4.27854E+01 -3.56796E+01 -3.59798E+01 -4.80882E+01
  -2.69776E+01 -4.33146E+01 -4.12134E+01 -4.24729E+01 -5.10779E+01 -3.61042E+01 -3.41694E+01 -3.52700E+01 -4.01265E+01 -2.36493E+01
  -3.97043E+01 -3.73393E+01 -2.84959E+01 -3.78838E+01 -3.74302E+01 -4.55399E+01 -3.89719E+01 -3.95892E+01 -4.17520E+01 -4.96667E+01
  -2.23369E+01 -2.08119E+01 -4.30605E+01 -4.25038E+01 -5.02683E+01 -3.72915E+01 -3.36352E+01 -2.93464E+01 -3.08958E+01 -2.47301E+01
 NY points of the fit to the data follow
  -9.61701E+01 -1.02393E+02 -1.06940E+02 -1.10785E+02 -1.03959E+02 -8.62871E+01 -7.61432E+01 -8.14048E+01 -8.95629E+01 -9.45316E+01
  -9.91404E+01 -1.03729E+02 -1.06555E+02 -1.08325E+02 -1.09280E+02 -1.05917E+02 -1.07685E+02 -1.08109E+02 -1.16288E+02 -1.35243E+02
  -1.36028E+02 -1.08975E+02 -9.52684E+01 -8.30044E+01 -5.68464E+01 -4.96308E+01 -5.13805E+01 -4.60696E+01 -4.29972E+01 -4.28393E+01
  -4.25646E+01 -4.27121E+01 -4.35277E+01 -4.56747E+01 -4.71053E+01 -4.51703E+01 -4.74867E+01 -5.49449E+01 -7.30538E+01 -9.72371E+01
  -1.16108E+02 -1.12468E+02 -9.87075E+01 -8.18032E+01 -6.46023E+01 -4.87269E+01 -3.74762E+01 -3.38900E+01 -3.06724E+01 -2.90778E+01
  -2.91398E+01 -3.05789E+01 -3.69681E+01 -4.31843E+01 -5.06046E+01 -6.05101E+01 -6.06610E+01 -6.10528E+01 -7.56463E+01 -7.57802E+01
  -5.90780E+01 -5.99418E+01 -5.84852E+01 -3.55821E+01 -2.09327E+01 -2.05913E+01 -2.36676E+01 -3.60796E+01 -6.22937E+01 -7.89391E+01
  -6.80981E+01 -5.96636E+01 -6.25461E+01 -5.03604E+01 -3.23949E+01 -2.52747E+01 -1.91394E+01 -1.36723E+01 -4.69552E+00 -3.84755E+00
  -1.22538E+01 -3.04200E+01 -5.17725E+01 -7.62356E+01 -8.22523E+01 -7.74557E+01 -6.68445E+01 -4.84919E+01 -3.86422E+01 -3.20245E+01
  -2.50749E+01 -2.07565E+01 -1.71548E+01 -1.36597E+01 -1.05244E+01 -9.50469E+00 -8.08120E+00 -5.15637E+00 -2.82128E+00 -1.70392E+00
   1.17907E+01  9.42584E+00 -1.06817E+01 -3.24658E+01 -4.59008E+01 -6.47981E+01 -6.74293E+01 -6.70148E+01 -9.45670E+01 -1.53731E+02
  -1.89825E+02 -1.63929E+02 -1.36873E+02 -1.27447E+02 -1.12933E+02 -1.00154E+02 -9.17510E+01 -8.47862E+01 -7.92449E+01 -7.39088E+01
  -6.83132E+01 -6.26981E+01 -5.54107E+01 -4.42982E+01 -3.21282E+01 -2.38118E+01 -2.07978E+01 -1.64542E+00  1.61350E+01  3.63832E+01
   5.82484E+01  2.64689E+01 -7.83917E+01 -1.30917E+02 -1.17488E+02 -1.18881E+02 -1.22431E+02 -1.16875E+02 -1.14355E+02 -1.12987E+02
  -1.11549E+02 -1.11503E+02 -1.12243E+02 -1.11588E+02 -1.10062E+02 -1.07988E+02 -1.04428E+02 -1.00111E+02 -9.65784E+01 -9.37215E+01
  -9.15938E+01 -9.04078E+01 -8.87255E+01 -8.59646E+01 -8.32616E+01 -8.04549E+01 -7.84757E+01 -7.79158E+01 -7.78188E+01 -7.68995E+01
  -7.47411E+01 -7.30197E+01 -7.23371E+01 -7.24295E+01 -7.05901E+01 -6.79408E+01 -6.88866E+01 -7.38870E+01 -7.59323E+01 -7.03318E+01
  -5.94351E+01 -4.75400E+01 -4.47465E+01 -5.35476E+01 -5.96004E+01 -5.40211E+01 -4.33487E+01 -3.93968E+01 -4.71188E+01 -5.94344E+01
  -6.48787E+01 -6.88494E+01 -7.36151E+01 -7.49585E+01 -7.43741E+01 -7.38275E+01 -7.29967E+01 -7.07092E+01 -6.93983E+01 -7.07382E+01
  -6.89686E+01 -6.80634E+01 -7.15755E+01 -6.58710E+01 -5.57608E+01 -5.84141E+01 -6.08657E+01 -5.31533E+01 -4.81585E+01 -4.80898E+01
  -4.91329E+01 -4.65603E+01 -3.69350E+01 -3.30047E+01 -3.64550E+01 -4.01017E+01 -4.32515E+01 -5.17424E+01 -6.15874E+01 -6.52821E+01
  -7.53046E+01 -7.93627E+01 -7.22531E+01 -5.96674E+01 -4.07966E+01 -1.27220E+01 -4.85145E+00 -4.70082E+00 -1.62482E+00 -1.29002E+01
  -2.01028E+01 -1.74284E+01 -1.47207E+01 -1.17595E+01 -9.60650E+00 -1.05897E+01 -1.48808E+01 -2.21089E+01 -3.13457E+01 -4.20657E+01
  -5.36051E+01 -6.65763E+01 -7.77091E+01 -8.67142E+01 -9.62616E+01 -9.89083E+01 -9.74552E+01 -9.86704E+01 -9.41997E+01 -8.95440E+01
  -8.95721E+01 -8.15406E+01 -7.00577E+01 -6.13005E+01 -5.08870E+01 -4.72418E+01 -4.71244E+01 -4.65855E+01 -5.10853E+01 -5.70927E+01
  -5.94918E+01 -5.47209E+01 -6.16484E+01 -6.08645E+01 -5.70552E+01 -9.51158E+01 -9.79512E+01  1.25721E+01  9.55214E+01  8.72072E+01
   7.87704E+01  8.00219E+01  7.13140E+01  6.42560E+01  5.99802E+01  5.59986E+01  5.24576E+01  4.90050E+01  4.61470E+01  4.48815E+01
   4.44566E+01  4.37174E+01  4.35579E+01  4.35467E+01  4.25170E+01  4.18492E+01  4.17215E+01  4.14280E+01  4.05960E+01  3.91213E+01
   3.72981E+01  3.56572E+01  3.42259E+01  3.22892E+01  3.00887E+01  2.84892E+01  2.64764E+01  2.40262E+01  2.08260E+01  1.63337E+01
   1.16909E+01  6.43350E+00  3.85375E-01 -3.92689E+00 -5.45767E+00 -5.17500E+00 -3.28368E+00 -6.99507E-01  1.92211E+00  4.88694E+00
   8.70778E+00  1.23606E+01  1.53605E+01  1.81207E+01  2.06051E+01  2.28394E+01  2.58034E+01  2.95596E+01  3.27966E+01  3.52841E+01
   3.78526E+01  3.99697E+01  4.26470E+01  4.54081E+01  4.66821E+01  4.73397E+01  4.82439E+01  4.72954E+01  4.82053E+01  5.24945E+01
   5.33028E+01  5.39965E+01  4.49870E+01  2.30918E+01  7.15062E-01 -1.48829E+01 -3.49977E+01 -4.11141E+01 -3.97357E+01 -4.77078E+01
  -5.43848E+01 -5.76070E+01 -5.87130E+01 -5.59846E+01 -4.99955E+01 -4.29688E+01 -3.35105E+01 -2.25556E+01 -1.27647E+01 -1.92790E+00
  -1.61204E+00 -1.67920E+01 -3.17165E+01 -4.06263E+01 -4.97743E+01 -4.34384E+01 -3.19373E+01 -2.77560E+01 -2.32947E+01 -2.09206E+01
  -2.22944E+01 -2.55217E+01 -3.11394E+01 -3.76510E+01 -4.26276E+01 -4.53306E+01 -4.66625E+01 -4.62918E+01 -4.40248E+01 -4.09936E+01
  -3.69005E+01 -3.23412E+01 -2.79435E+01 -2.36960E+01 -1.98259E+01 -1.61949E+01 -1.29429E+01 -9.71314E+00 -6.08826E+00 -2.94750E+00
  -2.14402E-01  3.21307E+00  6.41757E+00  9.54375E+00  1.44411E+01  1.97019E+01  2.44676E+01  3.09165E+01  3.87414E+01  4.56488E+01
   5.40385E+01  6.52539E+01  7.73629E+01  8.88710E+01  9.91808E+01  1.05086E+02  1.03805E+02  9.54700E+01  8.18199E+01  6.71328E+01
   5.47803E+01  4.51541E+01  3.69976E+01  3.11413E+01  2.53704E+01  1.63903E+01  5.18918E+00 -5.96834E+00 -1.75699E+01 -2.87630E+01
  -3.66182E+01 -4.24972E+01 -4.76289E+01 -5.09679E+01 -5.25982E+01 -5.35660E+01 -5.48002E+01 -5.61092E+01 -5.71573E+01 -5.81879E+01
  -5.85665E+01 -5.85258E+01 -5.82853E+01 -5.82855E+01 -5.80260E+01 -5.74113E+01 -5.75901E+01 -5.82615E+01 -5.77446E+01 -5.62328E+01
  -5.61837E+01 -5.65243E+01 -5.59907E+01 -5.55081E+01 -5.53327E+01 -5.55280E+01 -5.53413E+01 -5.43003E+01 -5.31269E+01 -5.30092E+01
  -5.31242E+01 -5.29828E+01 -5.32069E+01 -5.30387E+01 -5.24237E+01 -5.18187E+01 -5.14953E+01 -5.06710E+01 -5.00329E+01 -4.96090E+01
  -4.90496E+01 -4.86346E+01 -4.87125E+01 -4.91886E+01 -4.92507E+01 -4.84647E+01 -4.77084E+01 -4.74975E+01 -4.70787E+01 -4.66620E+01
  -4.70714E+01 -4.67912E+01 -4.57783E+01 -4.52781E+01 -4.50136E+01 -4.42927E+01 -4.39877E+01 -4.35160E+01 -4.29271E+01 -4.25805E+01
  -4.24781E+01 -4.25957E+01 -4.27659E+01 -4.26397E+01 -4.21117E+01 -4.14393E+01 -4.00420E+01 -3.89704E+01 -3.87772E+01 -3.89968E+01
  -3.92011E+01 -3.93321E+01 -3.88512E+01 -3.81231E+01 -3.81407E+01 -3.78966E+01 -3.71217E+01 -3.75534E+01 -3.79886E+01 -3.74076E+01
 NY background values follow
    -6.835E+01   -6.818E+01   -6.801E+01   -6.784E+01   -6.767E+01   -6.750E+01   -6.733E+01   -6.716E+01   -6.699E+01   -6.681E+01
    -6.664E+01   -6.647E+01   -6.630E+01   -6.613E+01   -6.596E+01   -6.579E+01   -6.562E+01   -6.545E+01   -6.528E+01   -6.510E+01
    -6.493E+01   -6.476E+01   -6.459E+01   -6.442E+01   -6.425E+01   -6.407E+01   -6.390E+01   -6.373E+01   -6.356E+01   -6.338E+01
    -6.321E+01   -6.304E+01   -6.287E+01   -6.269E+01   -6.252E+01   -6.235E+01   -6.217E+01   -6.200E+01   -6.183E+01   -6.165E+01
    -6.148E+01   -6.131E+01   -6.114E+01   -6.096E+01   -6.079E+01   -6.062E+01   -6.044E+01   -6.027E+01   -6.010E+01   -5.993E+01
    -5.976E+01   -5.958E+01   -5.941E+01   -5.924E+01   -5.907E+01   -5.890E+01   -5.873E+01   -5.856E+01   -5.839E+01   -5.822E+01
    -5.805E+01   -5.788E+01   -5.772E+01   -5.755E+01   -5.738E+01   -5.721E+01   -5.705E+01   -5.688E+01   -5.671E+01   -5.655E+01
    -5.638E+01   -5.622E+01   -5.605E+01   -5.589E+01   -5.572E+01   -5.556E+01   -5.539E+01   -5.523E+01   -5.506E+01   -5.490E+01
    -5.474E+01   -5.457E+01   -5.441E+01   -5.424E+01   -5.408E+01   -5.392E+01   -5.375E+01   -5.359E+01   -5.342E+01   -5.326E+01
    -5.310E+01   -5.293E+01   -5.277E+01   -5.260E+01   -5.244E+01   -5.227E+01   -5.211E+01   -5.194E+01   -5.178E+01   -5.161E+01
    -5.144E+01   -5.128E+01   -5.111E+01   -5.094E+01   -5.078E+01   -5.061E+01   -5.044E+01   -5.027E+01   -5.010E+01   -4.993E+01
    -4.976E+01   -4.959E+01   -4.942E+01   -4.924E+01   -4.907E+01   -4.889E+01   -4.872E+01   -4.854E+01   -4.837E+01   -4.819E+01
    -4.801E+01   -4.783E+01   -4.765E+01   -4.747E+01   -4.729E+01   -4.711E+01   -4.693E+01   -4.674E+01   -4.656E+01   -4.638E+01
    -4.619E+01   -4.600E+01   -4.582E+01   -4.563E+01   -4.544E+01   -4.526E+01   -4.507E+01   -4.488E+01   -4.469E+01   -4.450E+01
    -4.431E+01   -4.412E+01   -4.393E+01   -4.374E+01   -4.355E+01   -4.335E+01   -4.316E+01   -4.297E+01   -4.278E+01   -4.259E+01
    -4.239E+01   -4.220E+01   -4.201E+01   -4.182E+01   -4.163E+01   -4.143E+01   -4.124E+01   -4.105E+01   -4.086E+01   -4.067E+01
    -4.047E+01   -4.028E+01   -4.009E+01   -3.990E+01   -3.971E+01   -3.952E+01   -3.933E+01   -3.914E+01   -3.895E+01   -3.876E+01
    -3.858E+01   -3.839E+01   -3.820E+01   -3.802E+01   -3.783E+01   -3.765E+01   -3.746E+01   -3.728E+01   -3.710E+01   -3.692E+01
    -3.673E+01   -3.655E+01   -3.637E+01   -3.620E+01   -3.602E+01   -3.584E+01   -3.567E+01   -3.549E+01   -3.532E+01   -3.515E+01
    -3.498E+01   -3.481E+01   -3.464E+01   -3.447E+01   -3.430E+01   -3.414E+01   -3.397E+01   -3.381E+01   -3.365E+01   -3.349E+01
    -3.333E+01   -3.317E+01   -3.301E+01   -3.286E+01   -3.270E+01   -3.255E+01   -3.240E+01   -3.225E+01   -3.210E+01   -3.196E+01
    -3.181E+01   -3.167E+01   -3.153E+01   -3.139E+01   -3.125E+01   -3.111E+01   -3.098E+01   -3.085E+01   -3.071E+01   -3.059E+01
    -3.046E+01   -3.033E+01   -3.021E+01   -3.008E+01   -2.996E+01   -2.984E+01   -2.973E+01   -2.961E+01   -2.950E+01   -2.939E+01
    -2.928E+01   -2.917E+01   -2.906E+01   -2.896E+01   -2.886E+01   -2.876E+01   -2.866E+01   -2.857E+01   -2.847E+01   -2.838E+01
    -2.829E+01   -2.820E+01   -2.812E+01   -2.804E+01   -2.795E+01   -2.787E+01   -2.780E+01   -2.772E+01   -2.765E+01   -2.758E+01
    -2.751E+01   -2.744E+01   -2.737E+01   -2.731E+01   -2.724E+01   -2.718E+01   -2.712E+01   -2.706E+01   -2.701E+01   -2.695E+01
    -2.690E+01   -2.685E+01   -2.679E+01   -2.674E+01   -2.670E+01   -2.665E+01   -2.661E+01   -2.656E+01   -2.652E+01   -2.648E+01
    -2.644E+01   -2.640E+01   -2.636E+01   -2.632E+01   -2.629E+01   -2.626E+01   -2.622E+01   -2.619E+01   -2.616E+01   -2.614E+01
    -2.611E+01   -2.609E+01   -2.607E+01   -2.605E+01   -2.603E+01   -2.601E+01   -2.600E+01   -2.599E+01   -2.598E+01   -2.597E+01
    -2.597E+01   -2.596E+01   -2.596E+01   -2.597E+01   -2.597E+01   -2.598E+01   -2.599E+01   -2.600E+01   -2.602E+01   -2.604E+01
    -2.606E+01   -2.608E+01   -2.611E+01   -2.614E+01   -2.617E+01   -2.621E+01   -2.625E+01   -2.629E+01   -2.633E+01   -2.638E+01
    -2.643E+01   -2.648E+01   -2.654E+01   -2.660E+01   -2.666E+01   -2.673E+01   -2.680E+01   -2.687E+01   -2.694E+01   -2.702E+01
    -2.710E+01   -2.719E+01   -2.727E+01   -2.736E+01   -2.745E+01   -2.755E+01   -2.765E+01   -2.775E+01   -2.786E+01   -2.796E+01
    -2.808E+01   -2.819E+01   -2.831E+01   -2.843E+01   -2.855E+01   -2.867E+01   -2.880E+01   -2.893E+01   -2.906E+01   -2.919E+01
    -2.932E+01   -2.946E+01   -2.959E+01   -2.973E+01   -2.987E+01   -3.000E+01   -3.014E+01   -3.028E+01   -3.042E+01   -3.055E+01
    -3.069E+01   -3.083E+01   -3.096E+01   -3.110E+01   -3.123E+01   -3.137E+01   -3.150E+01   -3.163E+01   -3.175E+01   -3.188E+01
    -3.200E+01   -3.213E+01   -3.224E+01   -3.236E+01   -3.248E+01   -3.259E+01   -3.270E+01   -3.280E+01   -3.291E+01   -3.301E+01
    -3.311E+01   -3.321E+01   -3.330E+01   -3.339E+01   -3.348E+01   -3.357E+01   -3.365E+01   -3.373E+01   -3.381E+01   -3.388E+01
    -3.395E+01   -3.402E+01   -3.408E+01   -3.415E+01   -3.420E+01   -3.426E+01   -3.431E+01   -3.436E+01   -3.441E+01   -3.445E+01
    -3.449E+01   -3.452E+01   -3.455E+01   -3.458E+01   -3.461E+01   -3.463E+01   -3.465E+01   -3.466E+01   -3.468E+01   -3.469E+01
    -3.469E+01   -3.470E+01   -3.470E+01   -3.470E+01   -3.469E+01   -3.469E+01   -3.468E+01   -3.466E+01   -3.465E+01   -3.463E+01
    -3.461E+01   -3.459E+01   -3.457E+01   -3.454E+01   -3.452E+01   -3.449E+01   -3.445E+01   -3.442E+01   -3.438E+01   -3.435E+01
    -3.431E+01   -3.427E+01   -3.422E+01   -3.418E+01   -3.413E+01   -3.409E+01   -3.404E+01   -3.399E+01   -3.393E+01   -3.388E+01
    -3.383E+01   -3.377E+01   -3.371E+01   -3.366E+01   -3.360E+01   -3.354E+01   -3.348E+01   -3.341E+01   -3.335E+01   -3.329E+01
    -3.322E+01   -3.316E+01   -3.309E+01   -3.302E+01   -3.296E+01   -3.289E+01   -3.282E+01   -3.275E+01   -3.268E+01   -3.261E+01
    -3.254E+01   -3.247E+01   -3.240E+01   -3.233E+01   -3.225E+01   -3.218E+01   -3.211E+01   -3.204E+01   -3.197E+01   -3.189E+01
    -3.182E+01   -3.175E+01   -3.167E+01   -3.160E+01   -3.152E+01   -3.145E+01   -3.138E+01   -3.130E+01   -3.123E+01   -3.115E+01
    -3.108E+01   -3.101E+01   -3.093E+01   -3.086E+01   -3.078E+01   -3.071E+01   -3.063E+01   -3.056E+01   -3.048E+01   -3.041E+01
 Mac      Conc. = 3.17E-04
  -9.13522E+01 -9.09288E+01 -9.04118E+01 -9.04794E+01 -9.15839E+01 -9.36946E+01 -9.59865E+01 -9.83493E+01 -9.98375E+01 -1.00074E+02
  -9.91973E+01 -9.85933E+01 -9.95500E+01 -1.02448E+02 -1.06685E+02 -1.09894E+02 -1.08257E+02 -1.00869E+02 -9.47154E+01 -9.08161E+01
  -8.50426E+01 -8.03258E+01 -7.94152E+01 -7.89174E+01 -7.73722E+01 -7.53003E+01 -7.30009E+01 -7.01818E+01 -6.72764E+01 -6.51193E+01
  -6.32918E+01 -6.21411E+01 -6.23253E+01 -6.39283E+01 -6.50152E+01 -6.37662E+01 -6.02807E+01 -5.59949E+01 -5.38704E+01 -5.46174E+01
  -5.55132E+01 -5.46723E+01 -5.25983E+01 -5.00862E+01 -4.78613E+01 -4.72984E+01 -4.76735E+01 -4.85406E+01 -5.01328E+01 -5.22424E+01
  -5.36526E+01 -5.43835E+01 -5.56983E+01 -5.65330E+01 -5.69921E+01 -5.68916E+01 -5.49175E+01 -5.23931E+01 -5.10934E+01 -4.86231E+01
  -4.56352E+01 -4.49542E+01 -4.58135E+01 -4.64041E+01 -4.78680E+01 -4.91671E+01 -5.02239E+01 -5.15417E+01 -5.23422E+01 -5.03512E+01
  -4.57571E+01 -4.19868E+01 -3.98237E+01 -3.81685E+01 -3.72619E+01 -3.76077E+01 -3.84917E+01 -3.94702E+01 -4.04516E+01 -4.10374E+01
  -4.20390E+01 -4.25084E+01 -4.18354E+01 -4.04042E+01 -3.95405E+01 -3.81524E+01 -3.69546E+01 -3.59534E+01 -3.53549E+01 -3.43117E+01
  -3.30466E+01 -3.22642E+01 -3.16019E+01 -3.15007E+01 -3.35219E+01 -3.63197E+01 -3.89143E+01 -4.19348E+01 -4.38903E+01 -4.42930E+01
  -4.52341E+01 -4.71156E+01 -4.96400E+01 -5.43901E+01 -6.24972E+01 -7.29466E+01 -8.26727E+01 -8.81729E+01 -8.93268E+01 -8.84964E+01
