 
 $NMID
 ID=''
 FMTDAT='(2E13.5)'
 TRAMP=   1.00000E+0
 VOLUME=   1.00000E+0
 $END
   2.49810E+3  -5.93945E+3
  -1.30781E+3   2.46914E+3
   1.58843E+3   2.71659E+2
   2.81044E+3  -4.28102E+3
   8.35873E+2   2.21382E+3
  -8.57646E+2   2.66087E+3
  -2.25323E+3  -2.74724E+3
   2.17963E+2  -7.56955E+2
   3.02444E+3   9.74183E+2
   8.16055E+2  -4.10135E+2
  -6.73747E+2   9.56778E+2
   1.61793E+2   1.46248E+3
  -1.33140E+2  -3.68741E+2
  -6.04254E+1   7.82640E+2
  -4.58875E+2   1.19997E+3
  -2.20983E+3  -7.52943E+2
  -7.05220E+2  -8.54525E+2
   1.44316E+3   3.93086E+2
   3.85839E+2  -3.15071E+2
  -4.24888E+1  -8.82032E+2
   6.44318E+2  -4.43014E+2
  -8.85095E+2   2.64422E+2
  -3.98724E+2  -5.13983E+2
   1.61899E+3  -3.21940E+0
   7.70564E+2   1.11575E+3
  -1.49224E+3   1.43351E+2
  -3.25730E+2  -1.56292E+3
   1.32181E+3  -2.33987E+0
   1.89007E+2   1.77533E+3
  -5.45770E+2   5.45596E+1
   1.04600E+2  -1.63664E+3
   1.12588E+3  -2.40377E+2
   5.32373E+1   7.19566E+2
  -4.80652E+2   6.31464E+2
  -8.23802E+1   7.58417E+2
  -7.35155E+2  -2.25829E+2
  -8.03769E+2  -1.27705E+3
   1.81649E+2  -6.36942E+2
   6.68504E+2   3.47826E+2
   2.43022E+2   3.05802E+2
   2.07175E+2   5.17673E+1
   3.38842E+2   2.25748E+2
  -4.60956E+2   1.62690E+2
  -8.12718E+2   2.21623E+2
  -4.74562E+2  -4.62822E+1
   4.42243E+0  -5.63578E+2
   4.54622E+2  -9.22372E+2
   7.38890E+2  -2.65239E+2
   3.39176E+2   7.46382E+2
   8.25426E+1   6.85984E+2
  -2.73305E+2   3.38537E+2
  -1.16324E+2   1.00055E+2
  -5.19661E+2   2.68545E+2
  -2.81845E+2  -4.13572E+2
  -7.53634E+1  -5.21557E+1
   2.76135E+2  -2.29914E+2
   6.40581E+2  -1.36184E+2
   4.74258E+2   3.90493E+1
  -2.45350E+2   4.98507E+2
  -3.21829E+2   2.11293E+2
  -3.51361E+2  -6.80171E+1
   8.13311E+1  -2.62158E+2
  -1.21400E+2  -4.25070E+2
  -4.40727E+1  -3.81509E+2
   5.58959E+2  -5.37472E+1
   6.96252E+2   4.36050E+2
   3.42149E+2   3.08137E+2
  -1.52242E+2   5.65765E+2
  -4.72089E+2   1.93596E+2
  -3.73069E+2  -3.18153E+2
   2.54184E+0  -1.36909E+2
   1.34979E+2  -2.61618E+1
  -1.38156E+2   6.43334E+1
  -4.42272E+2  -2.17498E+2
   1.69350E+1  -3.95030E+2
   1.93949E+2   2.19737E+1
  -1.52601E+2   2.64807E+2
  -4.69663E+1  -1.81511E+2
   9.36117E+0  -1.82790E+2
  -2.27918E+2  -1.57562E+2
   9.09951E+1   7.91777E+1
   3.12999E+2   7.38149E+1
   1.46819E+2   6.59624E+1
   2.50768E+1  -5.43540E+1
   6.90229E+1   1.34830E+2
  -7.60321E+1   4.28890E+1
   4.45662E+1   2.01761E+2
   7.53438E+1   2.52371E+2
   6.51619E+1  -3.25869E+2
  -1.10090E+2  -1.58310E+2
   6.43668E+1  -7.40833E+1
  -7.66617E+1   1.23285E+2
  -1.50695E+2  -1.42854E+2
   4.35010E+1  -5.66876E+1
   7.46408E+1  -1.75370E+2
   2.91018E+2   4.96449E+1
   1.41950E+2   3.01919E+2
  -2.81053E+1  -1.38193E+2
   5.89124E+1   1.46496E+2
   3.21442E+1  -4.21823E+1
  -4.69122E+0   4.25635E+2
  -3.01282E+1   7.74519E+1
  -7.75545E+1  -1.44017E+2
   1.91118E+2  -3.09460E+1
  -1.02119E+2   7.23794E+1
  -9.65727E+1   1.65985E+2
  -3.86948E+2   4.99250E+1
  -1.60881E+2   9.30994E+0
   1.10157E+2  -1.77155E+2
   1.69921E+2  -3.23455E+0
   1.43910E+2   7.69954E+1
  -1.14019E+2   4.44272E+2
  -1.03741E+1   9.52343E+1
   5.04913E+0  -1.50655E+2
  -1.48408E+1  -1.22019E+2
  -2.53906E+2  -8.06457E+1
  -1.16581E+2  -1.00854E+2
  -9.48214E+1  -6.48887E+1
   1.65601E+2  -1.18383E+2
   2.12780E+2  -1.82128E+2
   1.64361E+2   2.27174E+2
  -1.87142E+2   1.07430E+2
   1.62552E+2   2.03401E+1
   8.12788E+1   2.24947E+1
   1.45989E+2  -6.47370E+1
   3.97982E+1  -1.54520E+2
  -7.78411E-1  -9.63088E+1
   9.31760E+1   1.15414E+2
  -3.30773E+1  -4.59443E+1
  -2.00209E+2  -8.57722E+1
  -1.36738E+2   1.16168E+2
  -1.10397E+1   4.72898E+1
   2.36336E+2  -2.38405E+2
   2.00622E+0  -1.84751E+2
   1.94352E+1  -1.61875E+1
   5.96218E+1   2.72528E+0
  -4.20902E+1  -2.08906E+2
  -5.33887E+1   4.97827E+1
  -1.22946E+2   3.57685E+1
  -1.22570E+2  -1.41351E+1
  -3.66740E+2  -1.02464E+2
   6.53607E+1   4.00133E+1
   8.93469E+1   8.84559E+1
   7.92260E+1   1.85186E+2
   1.06923E+2   2.45027E+2
   9.89379E+1  -6.74381E+1
   1.35887E+2   7.93385E+1
   1.22104E+2   1.77220E+2
  -4.12585E+1  -9.49848E+1
  -8.00624E+1  -1.03919E+2
  -1.39707E+2   1.02796E+2
  -6.03952E+1  -7.08282E+1
  -1.53391E+2   1.36218E+1
   2.26819E+1  -6.86669E+1
  -2.28301E+2   8.79059E+1
   7.72643E+1   1.38650E+2
   1.84509E+2  -1.60312E+2
  -4.35167E+1   5.04374E+1
   5.88411E+1   5.34970E+0
  -3.18974E+2  -4.98758E+0
  -2.15489E+2   1.99395E+1
   1.26122E+2   3.86614E+1
  -6.64198E+1   1.82918E+1
   3.07525E+1  -3.17498E+1
  -2.33577E+1  -6.58028E+1
   1.18732E+1   6.86587E+1
   3.65285E+1  -1.11778E+2
  -1.33981E+2  -3.48006E+1
   2.25666E+0  -2.04274E+2
  -2.42968E+1   3.44641E+1
  -1.50069E+2  -4.10556E+1
   2.65886E+1  -6.10390E+1
   5.87380E+1  -4.14350E+1
  -1.37180E+2   1.90859E+1
   5.16832E+1  -5.14717E+1
  -8.18171E+1   1.47587E+1
   1.42674E+2   1.57319E+1
   9.95612E+1  -4.71156E+1
  -8.10143E+1  -6.85319E+1
  -2.88168E+1  -4.92480E+1
   6.71054E+1  -1.39934E+1
   4.76838E+1  -1.47109E+2
   5.86493E+1   1.42215E+1
  -2.03129E+1  -5.46883E+1
   2.25512E+1  -1.07588E+2
  -1.52379E+2  -1.46128E+2
   4.78176E+0   2.62445E+1
   8.46560E+1  -7.43572E+0
  -1.41932E+2  -1.00154E+2
   2.67710E+1   4.02217E+1
   1.04534E+2   1.32998E+2
  -1.15335E+2  -9.93721E+1
  -8.40929E+1   1.94830E+2
   1.56414E+1   1.67325E+2
   8.84979E+1  -7.73834E+1
  -2.26820E+2   2.74561E+2
  -9.36793E+1   1.04034E+2
   2.01662E+2  -2.71546E+1
   4.13375E+1  -1.09831E+2
   6.02289E+1  -1.48733E+2
  -1.16591E+2   1.60849E+2
  -2.13272E+2  -1.68958E+2
  -4.29868E+2   4.85114E+1
  -3.03788E+1   6.70876E+1
  -1.63434E+2   1.04489E+2
   2.64906E+0  -7.55746E+1
   1.27273E+2  -8.18705E+1
  -1.08513E+2   8.85570E+1
  -4.16433E+1   4.93522E+1
   9.42231E+1   8.17376E+1
  -9.58728E+1   4.77450E+1
   3.00567E+1  -2.34303E+2
   7.35246E+1   6.41010E+0
   2.87674E+1  -1.51784E+2
  -3.29045E+1  -1.54336E+1
   9.43810E+0  -1.49729E+2
  -1.25983E+1   3.77722E+1
   1.98686E+1  -1.83140E+2
  -4.73865E+1  -1.03803E+2
   2.08806E+2  -2.84098E+2
  -1.16675E+1  -8.02928E+1
   1.61043E+2  -5.19638E+1
  -3.90618E+1   1.75004E+2
  -3.55139E+1  -1.11193E+2
   5.86822E+1  -1.75961E+1
  -3.24108E+0   1.02958E+2
  -1.50329E+2   6.46525E+1
  -7.47764E+1   2.65941E+1
   1.06229E+2   1.16697E+2
  -9.52848E+1   4.95983E+1
  -1.79983E+2   1.07512E+1
   9.17151E+1   1.43465E+2
  -8.10419E+0   5.44844E+1
   7.55721E+1   1.61294E+2
  -7.84662E+1  -1.73163E+1
   4.94820E+1  -3.32792E+1
  -1.01046E+2  -2.06314E+2
   5.85303E+1  -8.21870E+1
   1.22571E+1  -8.84275E+1
  -4.36836E+1  -4.87538E+1
  -2.28188E+0  -8.64692E+1
   1.24951E+1  -2.12425E+1
   8.63062E+0   1.70470E+2
  -7.98800E+1   4.27249E-1
  -8.92249E+1   3.63699E+1
  -8.70873E+1  -2.03401E+2
  -2.00271E+2  -6.84000E+1
   1.53146E+2  -9.87060E+1
  -3.36684E+2  -1.23551E+2
  -1.35209E+2   5.38142E+1
   1.33446E+2  -3.34041E+1
   4.52399E+1  -1.17129E+1
  -4.27076E+1  -1.14536E+2
  -1.48869E+2  -2.57459E+1
  -8.74053E+1  -1.28306E+2
  -2.05300E+2   8.52451E+1
  -1.65549E+2   1.14886E+1
  -9.06671E+1  -9.14157E+1
   1.97656E+2  -2.24752E+2
  -2.34432E+2   6.33328E+1
  -1.33481E+2   3.67446E+1
  -3.13416E+2   9.65141E+1
   1.51992E+2  -1.45990E+2
   1.47666E+2   9.17901E+1
  -2.88781E+1  -8.87063E+1
   1.97360E+2   2.71161E+2
   8.63140E+1   2.19217E+0
   1.70161E+2   1.16977E+2
  -2.83786E+1   9.60283E+1
   1.16418E+0  -1.80122E+1
  -1.27835E+2  -2.30746E+2
  -8.37872E+0   6.37887E+1
   9.62183E+1  -1.95035E+0
  -8.94690E+1  -8.03963E+1
  -6.39146E+1  -1.95715E+1
   5.16469E+1  -2.04946E+1
   5.71817E+1  -9.05028E+1
   1.32835E+1   2.02325E+2
  -2.68684E+1   9.88913E+1
   8.49083E+0  -6.33578E+1
  -3.98243E+1   8.24148E+1
   9.29815E+1  -8.45553E+1
  -2.89927E+2   1.65382E+1
   5.17984E+1   3.17985E+1
  -2.11179E+2   7.85557E+1
   2.19623E+1   5.07577E+1
   9.84178E+1  -1.34909E+2
  -3.60582E+1   2.92116E+2
  -1.80425E+2  -1.37174E+2
   1.99363E+2  -2.20645E+2
  -1.22326E+2   6.27806E+1
  -7.16960E+1   1.89618E+2
  -2.75829E+2  -1.09203E+2
   1.85802E+2  -2.29372E+1
  -9.63182E+1  -6.02839E+1
   1.59997E+2   1.23899E+2
  -2.85608E+1   8.75914E+1
  -7.54654E+1   1.95685E+1
  -1.68602E+2   8.01023E+1
   2.40500E+2  -1.00929E+2
   9.05130E+1  -1.52052E+2
   1.86096E+1   7.52186E+1
  -1.47249E+1   1.01878E+2
   2.07106E+2   1.38064E+2
  -7.75751E+1  -4.25051E+1
   3.30896E+1   1.43047E+2
   1.48222E+1   8.91643E+1
  -1.45230E+2   2.87301E+1
  -1.46847E+2  -1.48859E+2
  -1.09918E+2   2.89599E+1
  -1.63172E+2  -1.32885E+2
  -3.34732E+1   1.58873E+2
   2.23003E+2  -6.40643E+1
   1.21824E+2   1.58661E+2
  -3.34140E+1  -2.20282E+2
  -1.38563E+2   5.68990E+1
  -6.07320E+1  -1.79843E+1
  -1.52589E+1   1.67008E+2
   2.04537E+2  -3.24922E+2
   2.45197E+1  -3.26099E+0
   8.84349E+0  -6.24887E+1
  -7.97369E+1   5.13253E+1
   4.21882E+1   1.45024E+0
   1.49050E+2  -3.31535E+1
  -4.17135E+2  -8.33962E+1
   1.49706E+1   4.88084E+1
  -2.97315E+1  -3.61540E+1
   9.30855E+1  -1.33432E+2
  -8.62862E+1   7.21370E+1
   1.30766E+2  -1.46707E+2
   2.43878E+1   4.10697E+1
  -3.02761E+1  -6.36244E+1
  -4.22945E+1   1.06988E+2
  -2.41113E+2  -1.50255E+2
  -4.22224E+1   3.67333E+1
   1.76734E+1  -7.65166E+1
  -4.00794E+1   1.20874E+2
   6.60299E+1  -2.45216E+2
   6.66939E+1   1.48656E+2
  -3.46306E+1  -4.25073E+1
   1.16187E-1   1.54930E+1
  -1.33104E+2  -7.73721E+1
   4.79152E+1  -1.03818E+2
  -6.35342E+1   1.59939E+2
  -1.36647E+1   2.66913E+2
   1.66789E+1  -1.75944E+1
   3.44611E+1   2.44029E+1
  -6.55527E+1  -1.46528E+1
  -5.30371E+1   1.99329E+1
   3.79775E+1   9.91965E+1
  -2.54600E+1  -1.44536E+2
  -1.28248E+2   1.04020E+2
   1.58567E+2   7.74231E+1
  -1.95430E+2  -2.22041E+1
  -1.79868E+2  -1.77993E+2
  -5.61976E-1   2.09448E+0
  -9.24607E+1   1.13762E+2
   4.13281E+1   6.23688E+1
  -5.70668E+1   1.30292E+2
  -2.82974E+1  -1.83740E+1
  -1.29192E+2   7.60094E+1
  -1.70700E+2   1.86287E+1
   1.02640E+2   1.39127E+2
   2.05249E+2  -1.01767E+2
  -1.12905E+2   2.94860E+1
   1.70230E+2   9.67496E+1
   8.88768E-1   1.09905E+2
