 LCModel (Version 6.3-1N) Copyright: S.W. Provencher.          Ref.: Magn. Reson. Med. 30:672-679 (1993).                
 Slice_N1@14_13  28-Feb-2025 11:38:35
 27 lines in following concentration table = NCONC+1
    Conc.  %SD /Cr+PCr  Metabolite                                         
 3.17E-04   4% 3.5E-04 Mac                                                 
    2.775  41%   3.026 Cr                                                  
    4.561  25%   4.974 PCr                                                 
    6.346  16%   6.921 Ins                                                 
    7.498  11%   8.178 NAA                                                 
    6.221  16%   6.785 Tau                                                 
    0.000 999%   0.000 PCho                                                
    1.513  21%   1.650 GPC                                                 
    7.832  15%   8.541 Glu                                                 
    3.793  23%   4.136 Gln                                                 
    5.236  17%   5.710 Ala                                                 
    0.815 171%   0.888 Asc                                                 
    1.635  54%   1.783 Asp                                                 
    0.000 999%   0.000 GABA                                                
    0.538 109%   0.586 Glc                                                 
    0.768  66%   0.838 GSH                                                 
    3.684  22%   4.018 Lac                                                 
    1.792  34%   1.955 NAAG                                                
    1.997  62%   2.178 PE                                                  
    1.513  21%   1.650 GPC+PCho                                            
    9.290   9%  10.132 NAA+NAAG                                            
   11.624  12%  12.677 Glu+Gln                                             
    7.335  11%   8.000 Cr+PCr                                              
    9.290   9%  10.132 NAA+NAAG                                            
    7.335  11%   8.000 Cr+PCr                                              
   11.624  12%  12.677 Glu+Gln                                             
   6 lines in following misc. output table
  FWHM = 0.016 ppm    S/N =   3                                            
  Data shift = 0.024 ppm                                                   
  Ph:-178 deg       0.0 deg/ppm                                            
  alphaB,S = 5.3E-01,   5.1E-01                                            
   19 spline knots.   Ns = 5(1)                                            
   2 inflections.     3 extrema                                            
  480 points on ppm-axis = NY
      4.100000     4.091866     4.083733     4.075600     4.067466     4.059333     4.051199     4.043066     4.034933     4.026799
      4.018666     4.010532     4.002399     3.994265     3.986132     3.977998     3.969864     3.961731     3.953597     3.945463
      3.937330     3.929196     3.921062     3.912929     3.904795     3.896662     3.888528     3.880394     3.872261     3.864127
      3.855993     3.847860     3.839726     3.831592     3.823459     3.815325     3.807191     3.799058     3.790924     3.782790
      3.774657     3.766523     3.758389     3.750256     3.742122     3.733989     3.725855     3.717721     3.709588     3.701454
      3.693320     3.685187     3.677053     3.668919     3.660786     3.652652     3.644518     3.636385     3.628251     3.620117
      3.611984     3.603850     3.595716     3.587583     3.579449     3.571316     3.563182     3.555048     3.546915     3.538781
      3.530647     3.522514     3.514380     3.506246     3.498113     3.489979     3.481845     3.473712     3.465578     3.457444
      3.449311     3.441177     3.433043     3.424910     3.416776     3.408643     3.400509     3.392375     3.384242     3.376108
      3.367974     3.359841     3.351707     3.343573     3.335440     3.327306     3.319172     3.311039     3.302905     3.294771
      3.286638     3.278504     3.270370     3.262237     3.254103     3.245970     3.237836     3.229702     3.221569     3.213435
      3.205301     3.197168     3.189034     3.180900     3.172767     3.164633     3.156499     3.148366     3.140232     3.132098
      3.123965     3.115831     3.107697     3.099564     3.091430     3.083297     3.075163     3.067029     3.058896     3.050762
      3.042628     3.034495     3.026361     3.018227     3.010094     3.001960     2.993826     2.985693     2.977559     2.969425
      2.961292     2.953158     2.945024     2.936891     2.928757     2.920624     2.912490     2.904356     2.896223     2.888089
      2.879955     2.871822     2.863688     2.855554     2.847421     2.839287     2.831153     2.823020     2.814886     2.806752
      2.798619     2.790485     2.782351     2.774218     2.766084     2.757951     2.749817     2.741683     2.733550     2.725416
      2.717282     2.709149     2.701015     2.692881     2.684748     2.676614     2.668480     2.660347     2.652213     2.644079
      2.635946     2.627812     2.619678     2.611545     2.603411     2.595278     2.587144     2.579010     2.570877     2.562743
      2.554609     2.546476     2.538342     2.530208     2.522075     2.513941     2.505807     2.497674     2.489540     2.481406
      2.473273     2.465139     2.457006     2.448872     2.440738     2.432605     2.424471     2.416337     2.408204     2.400070
      2.391936     2.383803     2.375669     2.367535     2.359402     2.351268     2.343134     2.335001     2.326867     2.318733
      2.310600     2.302466     2.294333     2.286199     2.278065     2.269932     2.261798     2.253664     2.245531     2.237397
      2.229263     2.221130     2.212996     2.204862     2.196729     2.188595     2.180461     2.172328     2.164194     2.156060
      2.147927     2.139793     2.131660     2.123526     2.115392     2.107259     2.099125     2.090991     2.082858     2.074724
      2.066590     2.058457     2.050323     2.042189     2.034056     2.025922     2.017788     2.009655     2.001521     1.993387
      1.985254     1.977120     1.968987     1.960853     1.952719     1.944586     1.936452     1.928318     1.920185     1.912051
      1.903917     1.895784     1.887650     1.879516     1.871383     1.863249     1.855115     1.846982     1.838848     1.830714
      1.822581     1.814447     1.806314     1.798180     1.790046     1.781913     1.773779     1.765645     1.757512     1.749378
      1.741244     1.733111     1.724977     1.716843     1.708710     1.700576     1.692442     1.684309     1.676175     1.668041
      1.659908     1.651774     1.643641     1.635507     1.627373     1.619240     1.611106     1.602972     1.594839     1.586705
      1.578571     1.570438     1.562304     1.554170     1.546037     1.537903     1.529769     1.521636     1.513502     1.505368
      1.497235     1.489101     1.480968     1.472834     1.464700     1.456567     1.448433     1.440299     1.432166     1.424032
      1.415898     1.407765     1.399631     1.391497     1.383364     1.375230     1.367096     1.358963     1.350829     1.342695
      1.334562     1.326428     1.318295     1.310161     1.302027     1.293894     1.285760     1.277626     1.269493     1.261359
      1.253225     1.245092     1.236958     1.228824     1.220691     1.212557     1.204423     1.196290     1.188156     1.180022
      1.171889     1.163755     1.155622     1.147488     1.139354     1.131221     1.123087     1.114953     1.106820     1.098686
      1.090552     1.082419     1.074285     1.066151     1.058018     1.049884     1.041750     1.033617     1.025483     1.017349
      1.009216     1.001082     0.992949     0.984815     0.976681     0.968548     0.960414     0.952280     0.944147     0.936013
      0.927879     0.919746     0.911612     0.903478     0.895345     0.887211     0.879077     0.870944     0.862810     0.854676
      0.846543     0.838409     0.830276     0.822142     0.814008     0.805875     0.797741     0.789607     0.781474     0.773340
      0.765206     0.757073     0.748939     0.740805     0.732672     0.724538     0.716404     0.708271     0.700137     0.692003
      0.683870     0.675736     0.667603     0.659469     0.651335     0.643202     0.635068     0.626934     0.618801     0.610667
      0.602533     0.594400     0.586266     0.578132     0.569999     0.561865     0.553731     0.545598     0.537464     0.529330
      0.521197     0.513063     0.504930     0.496796     0.488662     0.480529     0.472395     0.464261     0.456128     0.447994
      0.439861     0.431727     0.423593     0.415460     0.407326     0.399192     0.391059     0.382925     0.374792     0.366658
      0.358524     0.350391     0.342257     0.334124     0.325990     0.317856     0.309723     0.301589     0.293455     0.285322
      0.277188     0.269055     0.260921     0.252787     0.244654     0.236520     0.228386     0.220253     0.212119     0.203986
 NY phased data points follow
  -1.11772E+02 -1.05920E+02 -1.05902E+02 -1.13906E+02 -1.10301E+02 -8.15406E+01 -9.72773E+01 -1.17036E+02 -9.27119E+01 -1.03721E+02
  -1.29117E+02 -1.17929E+02 -1.18163E+02 -1.16954E+02 -1.21374E+02 -1.41118E+02 -1.27104E+02 -1.31744E+02 -1.47622E+02 -1.63598E+02
  -1.52235E+02 -1.16000E+02 -1.13343E+02 -8.27808E+01 -5.11542E+01 -6.01220E+01 -7.15287E+01 -5.76479E+01 -4.88662E+01 -4.98888E+01
  -5.76387E+01 -6.11735E+01 -5.80899E+01 -6.41988E+01 -5.85083E+01 -7.27448E+01 -6.53041E+01 -6.22008E+01 -9.19087E+01 -1.00806E+02
  -9.56703E+01 -9.60792E+01 -9.94816E+01 -7.86212E+01 -7.21673E+01 -4.77163E+01 -2.39425E+01 -3.28650E+01 -2.51291E+01 -3.17191E+01
  -4.40525E+01 -2.77799E+01 -3.28537E+01 -5.38641E+01 -6.05652E+01 -7.60766E+01 -5.88654E+01 -6.39234E+01 -8.68914E+01 -6.66229E+01
  -5.32097E+01 -5.30738E+01 -5.23832E+01 -3.01358E+01 -2.06827E+01 -2.72435E+01 -2.43281E+01 -3.96611E+01 -8.37291E+01 -8.88432E+01
  -7.12364E+01 -6.51009E+01 -5.46625E+01 -4.89781E+01 -2.00376E+01 -1.40300E+01 -1.27187E+01 -1.82104E+01 -1.98160E+01 -8.40293E+00
  -1.29869E+01 -1.61752E+01 -5.36507E+01 -6.74767E+01 -6.14108E+01 -4.55569E+01 -3.83762E+01 -2.97860E+01 -1.50897E+01 -2.20718E+01
  -5.25220E+00 -7.88367E+00 -1.09451E-01  8.90301E+00  6.72050E+00  1.50290E+01  1.40880E+01  1.56349E+00 -8.15429E+00  1.56938E+00
  -9.86994E+00 -2.58411E+01 -3.37888E+01 -4.32785E+01 -6.80511E+01 -8.72121E+01 -8.47718E+01 -7.11622E+01 -1.07087E+02 -1.92982E+02
  -2.27821E+02 -1.97598E+02 -1.37968E+02 -1.25841E+02 -1.09507E+02 -7.86253E+01 -7.44925E+01 -7.28009E+01 -6.24358E+01 -4.39871E+01
  -4.66539E+01 -3.94580E+01 -5.73632E+01 -4.93428E+01 -2.29364E+01 -2.49818E+01 -1.61828E+01  1.68625E-01  2.97106E+01  3.81631E+01
   5.66153E+01  9.00076E+00 -9.72617E+01 -1.37422E+02 -1.35127E+02 -1.29488E+02 -1.35569E+02 -1.30750E+02 -1.25365E+02 -1.16423E+02
  -1.11186E+02 -1.19611E+02 -1.20924E+02 -1.12499E+02 -1.09069E+02 -1.19554E+02 -1.12050E+02 -1.01156E+02 -1.07839E+02 -1.00830E+02
  -9.40526E+01 -9.47516E+01 -8.54674E+01 -8.79201E+01 -8.20506E+01 -8.02995E+01 -8.24668E+01 -6.89799E+01 -6.66361E+01 -6.52301E+01
  -7.43629E+01 -6.65158E+01 -5.72287E+01 -7.18250E+01 -6.42117E+01 -6.46444E+01 -7.41140E+01 -6.43882E+01 -5.97252E+01 -5.91904E+01
  -5.90267E+01 -4.09436E+01 -2.96569E+01 -5.01455E+01 -6.13843E+01 -5.30987E+01 -3.31728E+01 -4.13309E+01 -5.42762E+01 -6.95769E+01
  -7.75711E+01 -7.38054E+01 -8.88677E+01 -7.73343E+01 -8.72762E+01 -8.52213E+01 -8.50684E+01 -8.87471E+01 -6.46843E+01 -7.42348E+01
  -7.64922E+01 -8.22440E+01 -6.96799E+01 -5.46996E+01 -5.33498E+01 -5.59613E+01 -6.35833E+01 -6.04273E+01 -6.06705E+01 -4.75907E+01
  -5.48723E+01 -5.89838E+01 -4.71821E+01 -3.50329E+01 -4.39549E+01 -5.00412E+01 -5.44159E+01 -6.60556E+01 -5.54828E+01 -7.07270E+01
  -6.26720E+01 -6.97580E+01 -6.23018E+01 -2.45623E+01 -2.45151E+01  7.14990E+00  1.69825E+01  1.41029E+01  8.03055E+00 -5.77926E+00
  -1.16732E+01 -4.66595E+01 -4.19682E+01 -3.42042E+01 -3.92743E+01 -3.32202E+01 -4.72430E+01 -3.19055E+01 -4.34706E+01 -4.95977E+01
  -4.63345E+01 -7.69800E+01 -6.20146E+01 -7.80540E+01 -8.94799E+01 -9.42915E+01 -1.13721E+02 -9.29837E+01 -9.60682E+01 -1.01599E+02
  -9.66638E+01 -7.93691E+01 -7.46234E+01 -7.66065E+01 -5.66436E+01 -4.04760E+01 -4.09494E+01 -5.55546E+01 -6.21270E+01 -6.11108E+01
  -6.86047E+01 -7.32933E+01 -5.46555E+01 -6.31087E+01 -6.58852E+01 -1.01191E+02 -9.40959E+01  5.13805E+01  9.12608E+01  6.93393E+01
   9.73390E+01  9.56495E+01  8.49558E+01  7.74780E+01  6.45658E+01  6.23022E+01  5.29383E+01  4.52671E+01  4.28984E+01  3.16571E+01
   4.77201E+01  3.81446E+01  2.85812E+01  3.30247E+01  1.50978E+01  1.66789E+01  3.22199E+01  1.94477E+01  6.81588E+00  3.04931E+01
   9.59969E+00  7.90867E+00  2.24244E+01 -1.47991E-02  4.59486E+00  1.86795E+01  8.14320E+00 -7.60818E+00  4.33496E+00 -5.92312E+00
   4.87336E+00  2.22010E+00 -2.64433E+01 -2.51964E+00  1.41065E-01 -1.12232E+01 -1.09414E+01 -6.18532E+00  1.26361E+00  4.04957E+00
   4.80266E+00  1.32912E+01  1.27362E+01  7.54904E+00  8.82205E+00  1.77547E+01  3.58565E+01  3.27682E+01  4.32988E+01  5.30377E+01
   6.81876E+01  8.45843E+01  7.97366E+01  8.07487E+01  8.85347E+01  9.79929E+01  9.61031E+01  1.04490E+02  1.03877E+02  1.19154E+02
   1.18986E+02  1.02537E+02  1.09845E+02  8.17199E+01  5.26270E+01  3.30242E+01  1.86176E+01 -8.50443E+00 -2.38023E+01 -2.87732E+01
  -6.16470E+01 -7.18489E+01 -8.25262E+01 -9.03997E+01 -9.80201E+01 -1.06927E+02 -9.20951E+01 -8.23694E+01 -7.41761E+01 -7.58669E+01
  -8.05836E+01 -5.94381E+01 -5.31927E+01 -6.73039E+01 -7.12851E+01 -6.45484E+01 -6.03362E+01 -7.06179E+01 -6.39573E+01 -5.72404E+01
  -5.34792E+01 -3.89509E+01 -3.58800E+01 -3.76806E+01 -3.79949E+01 -3.80237E+01 -5.48423E+01 -5.70125E+01 -4.72676E+01 -3.59877E+01
  -2.83406E+01 -3.69639E+01 -2.65054E+01 -2.31247E+01 -2.80440E+01 -3.73826E+01 -2.72350E+01 -9.76381E+00 -1.65994E+01 -1.65396E+01
  -2.65322E+01 -1.95950E+01 -1.58289E+01 -9.41554E+00  5.76099E+00 -2.40700E+00  1.13956E+00  7.28699E+00  1.88216E+01  1.59835E+01
   2.50776E+01  4.20908E+01  4.23499E+01  5.11249E+01  6.44565E+01  8.15132E+01  5.84842E+01  6.43423E+01  7.96203E+01  5.69935E+01
   5.22097E+01  4.61550E+01  3.17821E+01  2.62338E+00  5.37259E+00  6.66200E+00 -7.18210E+00 -8.29988E+00 -1.30434E+01 -1.14563E+01
  -3.73485E+01 -5.05486E+01 -4.47831E+01 -4.66862E+01 -4.30228E+01 -4.73767E+01 -6.20691E+01 -5.72890E+01 -6.64306E+01 -7.54718E+01
  -4.89508E+01 -6.25525E+01 -6.44470E+01 -5.41014E+01 -6.03451E+01 -4.62474E+01 -4.39622E+01 -6.35241E+01 -6.60459E+01 -5.11502E+01
  -5.86425E+01 -4.80145E+01 -5.42765E+01 -6.13809E+01 -4.85788E+01 -5.79204E+01 -4.70638E+01 -4.85922E+01 -5.38718E+01 -6.14407E+01
  -6.42876E+01 -4.15793E+01 -5.49113E+01 -5.67331E+01 -4.07237E+01 -4.52258E+01 -3.70185E+01 -4.88580E+01 -5.37377E+01 -5.16187E+01
  -4.70279E+01 -3.09664E+01 -5.44909E+01 -5.05825E+01 -4.40155E+01 -4.39388E+01 -4.33117E+01 -3.92534E+01 -2.74959E+01 -4.14075E+01
  -2.79849E+01 -4.91423E+01 -4.89114E+01 -4.17292E+01 -5.34825E+01 -3.04939E+01 -3.66322E+01 -2.87166E+01 -2.88111E+01 -2.57891E+01
  -3.33207E+01 -4.32989E+01 -3.51805E+01 -4.46843E+01 -3.50302E+01 -4.74387E+01 -4.78501E+01 -3.12001E+01 -4.13973E+01 -4.24767E+01
  -2.82358E+01 -2.02210E+01 -3.57962E+01 -4.93087E+01 -4.60138E+01 -4.21069E+01 -3.29539E+01 -3.67382E+01 -3.01884E+01 -2.13729E+01
 NY points of the fit to the data follow
  -1.07571E+02 -1.10741E+02 -1.15875E+02 -1.20095E+02 -1.10308E+02 -9.14584E+01 -8.47903E+01 -9.07591E+01 -9.66799E+01 -1.01107E+02
  -1.06400E+02 -1.12539E+02 -1.16914E+02 -1.20834E+02 -1.24558E+02 -1.24927E+02 -1.22822E+02 -1.27244E+02 -1.36852E+02 -1.57763E+02
  -1.49599E+02 -1.10129E+02 -1.01395E+02 -8.73652E+01 -6.32987E+01 -5.86246E+01 -5.48139E+01 -4.69174E+01 -4.31203E+01 -4.27073E+01
  -4.29346E+01 -4.28700E+01 -4.35216E+01 -4.65301E+01 -4.98937E+01 -5.27226E+01 -5.42177E+01 -6.28703E+01 -7.74124E+01 -1.00017E+02
  -1.19571E+02 -1.13888E+02 -1.01298E+02 -8.51562E+01 -6.43312E+01 -4.77373E+01 -3.71796E+01 -3.26419E+01 -3.07971E+01 -3.13602E+01
  -3.25106E+01 -3.58220E+01 -4.53539E+01 -5.59393E+01 -6.21751E+01 -6.47377E+01 -5.98760E+01 -6.57435E+01 -8.42638E+01 -7.58493E+01
  -6.23912E+01 -6.77867E+01 -5.75622E+01 -3.91730E+01 -3.14700E+01 -2.70299E+01 -2.86112E+01 -4.31229E+01 -6.99693E+01 -7.94448E+01
  -6.48294E+01 -6.34051E+01 -6.53047E+01 -4.85494E+01 -3.30722E+01 -2.67050E+01 -2.14503E+01 -1.62075E+01 -1.27654E+01 -1.08001E+01
  -2.14107E+01 -3.38550E+01 -5.10337E+01 -6.99304E+01 -6.94316E+01 -6.78111E+01 -5.64639E+01 -4.16457E+01 -3.51864E+01 -2.77854E+01
  -2.10893E+01 -1.61617E+01 -1.16333E+01 -7.54649E+00 -4.43931E+00 -1.16514E+00  1.13254E+00  2.42252E+00  8.18990E-01  2.24028E+00
   7.74257E+00  1.31190E+00 -1.76459E+01 -2.89860E+01 -4.97148E+01 -6.53082E+01 -6.13333E+01 -6.32663E+01 -9.79174E+01 -1.67675E+02
  -1.83826E+02 -1.54171E+02 -1.39767E+02 -1.29459E+02 -1.15964E+02 -1.03746E+02 -9.33642E+01 -8.46428E+01 -7.73288E+01 -7.03706E+01
  -6.32181E+01 -5.60959E+01 -4.80674E+01 -3.85196E+01 -2.73535E+01 -1.54916E+01 -5.74801E+00  2.67927E+00  2.11177E+01  4.40874E+01
   6.72211E+01  1.56530E+01 -9.71196E+01 -1.26958E+02 -1.15719E+02 -1.24186E+02 -1.26708E+02 -1.24096E+02 -1.21280E+02 -1.18918E+02
  -1.16820E+02 -1.16111E+02 -1.15940E+02 -1.14814E+02 -1.13396E+02 -1.11357E+02 -1.08228E+02 -1.04413E+02 -1.01088E+02 -9.81690E+01
  -9.56383E+01 -9.40180E+01 -9.19338E+01 -8.92640E+01 -8.62588E+01 -8.30862E+01 -8.10760E+01 -8.06985E+01 -8.07062E+01 -7.89348E+01
  -7.59298E+01 -7.34561E+01 -7.39456E+01 -7.56598E+01 -7.46557E+01 -7.19290E+01 -7.09844E+01 -7.38458E+01 -7.56320E+01 -7.20812E+01
  -6.22000E+01 -4.97473E+01 -4.65116E+01 -5.49948E+01 -6.00076E+01 -5.26914E+01 -4.40321E+01 -4.36006E+01 -5.30000E+01 -6.31024E+01
  -6.65449E+01 -7.07242E+01 -7.54662E+01 -7.72462E+01 -7.78645E+01 -7.75393E+01 -7.67161E+01 -7.60201E+01 -7.47653E+01 -7.40205E+01
  -7.25420E+01 -7.14318E+01 -7.37172E+01 -6.62719E+01 -5.58447E+01 -6.18883E+01 -6.17862E+01 -5.26534E+01 -5.04771E+01 -4.99889E+01
  -5.27311E+01 -4.96525E+01 -4.18208E+01 -4.14474E+01 -4.49304E+01 -4.79596E+01 -5.08477E+01 -5.74315E+01 -6.45191E+01 -6.85096E+01
  -7.21535E+01 -7.71914E+01 -6.93733E+01 -5.93666E+01 -4.38991E+01 -1.71373E+01 -1.19956E+01 -8.04859E+00 -3.50734E+00 -1.36510E+01
  -1.90639E+01 -1.88241E+01 -1.90259E+01 -1.88592E+01 -1.93952E+01 -2.15822E+01 -2.65049E+01 -3.34477E+01 -4.14506E+01 -5.15288E+01
  -6.18158E+01 -7.24245E+01 -8.27138E+01 -9.04184E+01 -9.87419E+01 -1.03005E+02 -1.02178E+02 -1.04068E+02 -1.00236E+02 -9.48234E+01
  -9.57771E+01 -8.74204E+01 -7.85279E+01 -7.20602E+01 -6.09965E+01 -5.88931E+01 -5.73936E+01 -5.80014E+01 -6.08425E+01 -5.91365E+01
  -6.56698E+01 -6.99855E+01 -6.60215E+01 -6.16512E+01 -5.89027E+01 -1.02710E+02 -9.44856E+01  2.54527E+01  8.04678E+01  6.82466E+01
   7.12020E+01  7.26441E+01  6.84031E+01  6.37926E+01  5.92958E+01  5.52495E+01  5.14785E+01  4.83684E+01  4.58747E+01  4.43025E+01
   4.35147E+01  4.24569E+01  4.18357E+01  4.14688E+01  4.02234E+01  3.91189E+01  3.84727E+01  3.79292E+01  3.69441E+01  3.53409E+01
   3.35768E+01  3.17404E+01  3.03221E+01  2.83424E+01  2.58520E+01  2.40010E+01  2.18071E+01  1.91583E+01  1.61185E+01  1.21825E+01
   8.39321E+00  4.32221E+00 -4.05144E-01 -3.79805E+00 -5.29670E+00 -5.19678E+00 -3.75033E+00 -1.44434E+00  9.86066E-01  3.73980E+00
   7.30013E+00  1.08150E+01  1.40547E+01  1.70581E+01  1.97405E+01  2.22702E+01  2.50887E+01  2.87551E+01  3.21027E+01  3.47756E+01
   3.74329E+01  3.97361E+01  4.23467E+01  4.50205E+01  4.64377E+01  4.76680E+01  4.89277E+01  4.87831E+01  4.81519E+01  4.86974E+01
   5.13646E+01  5.25486E+01  5.04359E+01  3.71362E+01 -1.80809E+00 -3.14515E+01 -5.51115E+01 -8.35201E+01 -7.81617E+01 -6.96237E+01
  -7.33413E+01 -7.19252E+01 -6.82431E+01 -6.32598E+01 -5.60702E+01 -4.79082E+01 -4.01579E+01 -2.96908E+01 -2.05371E+01 -1.10688E+01
  -1.27570E+01 -3.06614E+01 -4.08507E+01 -5.19130E+01 -5.93773E+01 -5.03960E+01 -4.31612E+01 -3.97417E+01 -3.54223E+01 -3.32988E+01
  -3.31493E+01 -3.47296E+01 -3.81889E+01 -4.27740E+01 -4.64138E+01 -4.80306E+01 -4.89834E+01 -4.83497E+01 -4.61768E+01 -4.34333E+01
  -3.95127E+01 -3.53546E+01 -3.10972E+01 -2.66066E+01 -2.26606E+01 -1.88534E+01 -1.52860E+01 -1.18795E+01 -8.00618E+00 -4.42133E+00
  -1.09142E+00  2.59418E+00  6.24572E+00  1.01810E+01  1.53947E+01  2.08523E+01  2.59126E+01  3.27597E+01  4.04809E+01  4.73878E+01
   5.50802E+01  6.44811E+01  7.39297E+01  8.23889E+01  8.99372E+01  9.42966E+01  9.36070E+01  8.73965E+01  7.67232E+01  6.45815E+01
   5.35691E+01  4.37948E+01  3.50373E+01  2.79834E+01  2.12511E+01  1.27873E+01  2.66674E+00 -7.14333E+00 -1.74691E+01 -2.74091E+01
  -3.47312E+01 -4.06474E+01 -4.55851E+01 -4.92726E+01 -5.14113E+01 -5.27252E+01 -5.40593E+01 -5.52257E+01 -5.63989E+01 -5.73007E+01
  -5.77001E+01 -5.76486E+01 -5.76034E+01 -5.77605E+01 -5.74118E+01 -5.69066E+01 -5.69092E+01 -5.75138E+01 -5.70768E+01 -5.57649E+01
  -5.56870E+01 -5.59746E+01 -5.55635E+01 -5.49095E+01 -5.46907E+01 -5.48404E+01 -5.47815E+01 -5.39578E+01 -5.30275E+01 -5.28613E+01
  -5.26911E+01 -5.26207E+01 -5.26025E+01 -5.24523E+01 -5.19936E+01 -5.14801E+01 -5.10935E+01 -5.03822E+01 -4.99471E+01 -4.96210E+01
  -4.91651E+01 -4.86719E+01 -4.86676E+01 -4.89928E+01 -4.88460E+01 -4.83955E+01 -4.78615E+01 -4.75400E+01 -4.71683E+01 -4.67601E+01
  -4.69157E+01 -4.67048E+01 -4.58812E+01 -4.54944E+01 -4.51302E+01 -4.45701E+01 -4.42802E+01 -4.39281E+01 -4.34298E+01 -4.30837E+01
  -4.28545E+01 -4.27993E+01 -4.28818E+01 -4.25311E+01 -4.22695E+01 -4.18330E+01 -4.08614E+01 -3.99820E+01 -3.95422E+01 -3.96051E+01
  -3.96635E+01 -3.97054E+01 -3.93381E+01 -3.88354E+01 -3.88217E+01 -3.84581E+01 -3.77597E+01 -3.77602E+01 -3.79833E+01 -3.73317E+01
 NY background values follow
    -7.505E+01   -7.481E+01   -7.458E+01   -7.434E+01   -7.411E+01   -7.387E+01   -7.364E+01   -7.340E+01   -7.317E+01   -7.294E+01
    -7.270E+01   -7.247E+01   -7.223E+01   -7.200E+01   -7.176E+01   -7.153E+01   -7.129E+01   -7.106E+01   -7.082E+01   -7.059E+01
    -7.036E+01   -7.012E+01   -6.989E+01   -6.965E+01   -6.942E+01   -6.918E+01   -6.895E+01   -6.872E+01   -6.848E+01   -6.825E+01
    -6.801E+01   -6.778E+01   -6.755E+01   -6.731E+01   -6.708E+01   -6.685E+01   -6.661E+01   -6.638E+01   -6.615E+01   -6.592E+01
    -6.568E+01   -6.545E+01   -6.522E+01   -6.499E+01   -6.476E+01   -6.453E+01   -6.429E+01   -6.406E+01   -6.383E+01   -6.360E+01
    -6.338E+01   -6.315E+01   -6.292E+01   -6.269E+01   -6.246E+01   -6.224E+01   -6.201E+01   -6.178E+01   -6.156E+01   -6.133E+01
    -6.111E+01   -6.088E+01   -6.066E+01   -6.044E+01   -6.021E+01   -5.999E+01   -5.977E+01   -5.955E+01   -5.933E+01   -5.911E+01
    -5.889E+01   -5.867E+01   -5.845E+01   -5.824E+01   -5.802E+01   -5.780E+01   -5.759E+01   -5.737E+01   -5.716E+01   -5.694E+01
    -5.673E+01   -5.652E+01   -5.631E+01   -5.610E+01   -5.589E+01   -5.568E+01   -5.547E+01   -5.526E+01   -5.505E+01   -5.485E+01
    -5.464E+01   -5.444E+01   -5.423E+01   -5.403E+01   -5.382E+01   -5.362E+01   -5.342E+01   -5.322E+01   -5.302E+01   -5.282E+01
    -5.262E+01   -5.242E+01   -5.222E+01   -5.203E+01   -5.183E+01   -5.164E+01   -5.144E+01   -5.125E+01   -5.105E+01   -5.086E+01
    -5.067E+01   -5.048E+01   -5.029E+01   -5.010E+01   -4.991E+01   -4.972E+01   -4.954E+01   -4.935E+01   -4.916E+01   -4.898E+01
    -4.879E+01   -4.861E+01   -4.843E+01   -4.825E+01   -4.806E+01   -4.788E+01   -4.770E+01   -4.752E+01   -4.735E+01   -4.717E+01
    -4.699E+01   -4.682E+01   -4.664E+01   -4.647E+01   -4.629E+01   -4.612E+01   -4.595E+01   -4.578E+01   -4.561E+01   -4.544E+01
    -4.527E+01   -4.511E+01   -4.494E+01   -4.478E+01   -4.461E+01   -4.445E+01   -4.429E+01   -4.413E+01   -4.397E+01   -4.381E+01
    -4.365E+01   -4.349E+01   -4.334E+01   -4.318E+01   -4.303E+01   -4.288E+01   -4.272E+01   -4.257E+01   -4.242E+01   -4.228E+01
    -4.213E+01   -4.198E+01   -4.184E+01   -4.169E+01   -4.155E+01   -4.141E+01   -4.127E+01   -4.113E+01   -4.099E+01   -4.085E+01
    -4.072E+01   -4.058E+01   -4.045E+01   -4.032E+01   -4.018E+01   -4.005E+01   -3.992E+01   -3.980E+01   -3.967E+01   -3.954E+01
    -3.942E+01   -3.930E+01   -3.917E+01   -3.905E+01   -3.893E+01   -3.881E+01   -3.870E+01   -3.858E+01   -3.847E+01   -3.835E+01
    -3.824E+01   -3.813E+01   -3.802E+01   -3.791E+01   -3.780E+01   -3.769E+01   -3.759E+01   -3.748E+01   -3.738E+01   -3.728E+01
    -3.718E+01   -3.708E+01   -3.698E+01   -3.689E+01   -3.679E+01   -3.670E+01   -3.660E+01   -3.651E+01   -3.642E+01   -3.633E+01
    -3.624E+01   -3.615E+01   -3.607E+01   -3.598E+01   -3.590E+01   -3.582E+01   -3.574E+01   -3.566E+01   -3.558E+01   -3.550E+01
    -3.543E+01   -3.535E+01   -3.528E+01   -3.521E+01   -3.514E+01   -3.507E+01   -3.500E+01   -3.493E+01   -3.486E+01   -3.480E+01
    -3.474E+01   -3.467E+01   -3.461E+01   -3.455E+01   -3.449E+01   -3.444E+01   -3.438E+01   -3.433E+01   -3.427E+01   -3.422E+01
    -3.417E+01   -3.412E+01   -3.407E+01   -3.402E+01   -3.398E+01   -3.393E+01   -3.389E+01   -3.384E+01   -3.380E+01   -3.376E+01
    -3.372E+01   -3.368E+01   -3.365E+01   -3.361E+01   -3.358E+01   -3.354E+01   -3.351E+01   -3.348E+01   -3.344E+01   -3.341E+01
    -3.339E+01   -3.336E+01   -3.333E+01   -3.330E+01   -3.328E+01   -3.325E+01   -3.323E+01   -3.321E+01   -3.318E+01   -3.316E+01
    -3.314E+01   -3.312E+01   -3.310E+01   -3.309E+01   -3.307E+01   -3.305E+01   -3.304E+01   -3.302E+01   -3.301E+01   -3.300E+01
    -3.299E+01   -3.298E+01   -3.297E+01   -3.296E+01   -3.295E+01   -3.294E+01   -3.293E+01   -3.293E+01   -3.292E+01   -3.292E+01
    -3.292E+01   -3.292E+01   -3.292E+01   -3.292E+01   -3.292E+01   -3.292E+01   -3.292E+01   -3.292E+01   -3.293E+01   -3.293E+01
    -3.294E+01   -3.295E+01   -3.296E+01   -3.297E+01   -3.298E+01   -3.299E+01   -3.300E+01   -3.301E+01   -3.303E+01   -3.304E+01
    -3.306E+01   -3.307E+01   -3.309E+01   -3.311E+01   -3.313E+01   -3.315E+01   -3.317E+01   -3.319E+01   -3.321E+01   -3.323E+01
    -3.325E+01   -3.328E+01   -3.330E+01   -3.333E+01   -3.335E+01   -3.338E+01   -3.341E+01   -3.343E+01   -3.346E+01   -3.349E+01
    -3.352E+01   -3.355E+01   -3.358E+01   -3.361E+01   -3.364E+01   -3.367E+01   -3.370E+01   -3.373E+01   -3.377E+01   -3.380E+01
    -3.383E+01   -3.386E+01   -3.389E+01   -3.393E+01   -3.396E+01   -3.399E+01   -3.402E+01   -3.405E+01   -3.409E+01   -3.412E+01
    -3.415E+01   -3.418E+01   -3.421E+01   -3.424E+01   -3.426E+01   -3.429E+01   -3.432E+01   -3.435E+01   -3.437E+01   -3.440E+01
    -3.442E+01   -3.444E+01   -3.447E+01   -3.449E+01   -3.451E+01   -3.453E+01   -3.455E+01   -3.457E+01   -3.458E+01   -3.460E+01
    -3.461E+01   -3.463E+01   -3.464E+01   -3.465E+01   -3.467E+01   -3.468E+01   -3.469E+01   -3.470E+01   -3.470E+01   -3.471E+01
    -3.472E+01   -3.472E+01   -3.472E+01   -3.473E+01   -3.473E+01   -3.473E+01   -3.473E+01   -3.473E+01   -3.473E+01   -3.472E+01
    -3.472E+01   -3.471E+01   -3.470E+01   -3.470E+01   -3.469E+01   -3.468E+01   -3.467E+01   -3.466E+01   -3.465E+01   -3.463E+01
    -3.462E+01   -3.460E+01   -3.459E+01   -3.457E+01   -3.455E+01   -3.453E+01   -3.452E+01   -3.450E+01   -3.448E+01   -3.445E+01
    -3.443E+01   -3.441E+01   -3.439E+01   -3.436E+01   -3.434E+01   -3.431E+01   -3.429E+01   -3.426E+01   -3.423E+01   -3.420E+01
    -3.418E+01   -3.415E+01   -3.412E+01   -3.409E+01   -3.406E+01   -3.403E+01   -3.399E+01   -3.396E+01   -3.393E+01   -3.390E+01
    -3.387E+01   -3.383E+01   -3.380E+01   -3.376E+01   -3.373E+01   -3.369E+01   -3.366E+01   -3.362E+01   -3.359E+01   -3.355E+01
    -3.352E+01   -3.348E+01   -3.344E+01   -3.341E+01   -3.337E+01   -3.333E+01   -3.329E+01   -3.326E+01   -3.322E+01   -3.318E+01
    -3.314E+01   -3.311E+01   -3.307E+01   -3.303E+01   -3.299E+01   -3.295E+01   -3.291E+01   -3.288E+01   -3.284E+01   -3.280E+01
    -3.276E+01   -3.272E+01   -3.268E+01   -3.264E+01   -3.260E+01   -3.256E+01   -3.253E+01   -3.249E+01   -3.245E+01   -3.241E+01
    -3.237E+01   -3.233E+01   -3.229E+01   -3.225E+01   -3.221E+01   -3.217E+01   -3.213E+01   -3.209E+01   -3.206E+01   -3.202E+01
 Mac      Conc. = 3.17E-04
  -9.82105E+01 -9.80823E+01 -9.79228E+01 -9.81568E+01 -9.90269E+01 -1.00380E+02 -1.02244E+02 -1.03982E+02 -1.05440E+02 -1.06043E+02
  -1.05875E+02 -1.05719E+02 -1.05371E+02 -1.06727E+02 -1.09482E+02 -1.11650E+02 -1.10397E+02 -1.04476E+02 -9.94391E+01 -9.62971E+01
  -9.11854E+01 -8.67429E+01 -8.48930E+01 -8.36165E+01 -8.18571E+01 -7.96913E+01 -7.76400E+01 -7.50749E+01 -7.25864E+01 -7.06673E+01
  -6.91090E+01 -6.76589E+01 -6.68231E+01 -6.73621E+01 -6.79575E+01 -6.72954E+01 -6.46707E+01 -6.10746E+01 -5.87587E+01 -5.86959E+01
  -5.91927E+01 -5.83260E+01 -5.68027E+01 -5.47546E+01 -5.31202E+01 -5.26947E+01 -5.27526E+01 -5.32856E+01 -5.43047E+01 -5.60507E+01
  -5.70988E+01 -5.74964E+01 -5.83752E+01 -5.89838E+01 -5.92111E+01 -5.89117E+01 -5.72415E+01 -5.52583E+01 -5.42616E+01 -5.25500E+01
  -4.99834E+01 -4.92118E+01 -4.94421E+01 -4.98809E+01 -5.08678E+01 -5.13164E+01 -5.15879E+01 -5.22564E+01 -5.28838E+01 -5.14958E+01
  -4.81218E+01 -4.50457E+01 -4.32604E+01 -4.17004E+01 -4.05444E+01 -4.06020E+01 -4.09919E+01 -4.16486E+01 -4.22459E+01 -4.26070E+01
  -4.31355E+01 -4.35890E+01 -4.28433E+01 -4.17783E+01 -4.08640E+01 -3.96619E+01 -3.86790E+01 -3.76250E+01 -3.69948E+01 -3.62804E+01
  -3.53643E+01 -3.50149E+01 -3.47278E+01 -3.47232E+01 -3.62601E+01 -3.84213E+01 -4.08361E+01 -4.36930E+01 -4.58181E+01 -4.70605E+01
  -4.88964E+01 -5.17308E+01 -5.44170E+01 -5.82876E+01 -6.44439E+01 -7.22289E+01 -8.01419E+01 -8.46725E+01 -8.62456E+01 -8.59889E+01
