 LCModel (Version 6.3-1N) Copyright: S.W. Provencher.          Ref.: Magn. Reson. Med. 30:672-679 (1993).                
 Slice_N1@12_14  28-Feb-2025 11:40:29
 27 lines in following concentration table = NCONC+1
    Conc.  %SD /Cr+PCr  Metabolite                                         
 2.96E-04   4% 4.1E-04 Mac                                                 
    3.224  35%   4.432 Cr                                                  
    2.595  43%   3.568 PCr                                                 
    5.243  16%   7.208 Ins                                                 
    6.802   9%   9.351 NAA                                                 
    5.517  15%   7.584 Tau                                                 
    2.024  11%   2.782 PCho                                                
    0.000 999%   0.000 GPC                                                 
    7.122  14%   9.791 Glu                                                 
    4.511  17%   6.202 Gln                                                 
    1.691  38%   2.324 Ala                                                 
    4.288  25%   5.895 Asc                                                 
    0.931  70%   1.280 Asp                                                 
    0.300 122%   0.413 GABA                                                
    0.567  74%   0.779 Glc                                                 
    1.180  39%   1.622 GSH                                                 
    0.886  70%   1.218 Lac                                                 
    1.413  36%   1.942 NAAG                                                
    0.000 999%   0.000 PE                                                  
    2.024  11%   2.782 GPC+PCho                                            
    8.215  10%  11.293 NAA+NAAG                                            
   11.633  11%  15.993 Glu+Gln                                             
    5.819  11%   8.000 Cr+PCr                                              
    8.215  10%  11.293 NAA+NAAG                                            
    5.819  11%   8.000 Cr+PCr                                              
   11.633  11%  15.993 Glu+Gln                                             
   6 lines in following misc. output table
  FWHM = 0.033 ppm    S/N =   4                                            
  Data shift = 0.033 ppm                                                   
  Ph: 165 deg       0.0 deg/ppm                                            
  alphaB,S = 1.4E-01,   1.3E+01                                            
   19 spline knots.   Ns = 5(1)                                            
  ( 4) 3 infls.   ( 2) 2 extrs.                                            
  480 points on ppm-axis = NY
      4.100000     4.091866     4.083733     4.075600     4.067466     4.059333     4.051199     4.043066     4.034933     4.026799
      4.018666     4.010532     4.002399     3.994265     3.986132     3.977998     3.969864     3.961731     3.953597     3.945463
      3.937330     3.929196     3.921062     3.912929     3.904795     3.896662     3.888528     3.880394     3.872261     3.864127
      3.855993     3.847860     3.839726     3.831592     3.823459     3.815325     3.807191     3.799058     3.790924     3.782790
      3.774657     3.766523     3.758389     3.750256     3.742122     3.733989     3.725855     3.717721     3.709588     3.701454
      3.693320     3.685187     3.677053     3.668919     3.660786     3.652652     3.644518     3.636385     3.628251     3.620117
      3.611984     3.603850     3.595716     3.587583     3.579449     3.571316     3.563182     3.555048     3.546915     3.538781
      3.530647     3.522514     3.514380     3.506246     3.498113     3.489979     3.481845     3.473712     3.465578     3.457444
      3.449311     3.441177     3.433043     3.424910     3.416776     3.408643     3.400509     3.392375     3.384242     3.376108
      3.367974     3.359841     3.351707     3.343573     3.335440     3.327306     3.319172     3.311039     3.302905     3.294771
      3.286638     3.278504     3.270370     3.262237     3.254103     3.245970     3.237836     3.229702     3.221569     3.213435
      3.205301     3.197168     3.189034     3.180900     3.172767     3.164633     3.156499     3.148366     3.140232     3.132098
      3.123965     3.115831     3.107697     3.099564     3.091430     3.083297     3.075163     3.067029     3.058896     3.050762
      3.042628     3.034495     3.026361     3.018227     3.010094     3.001960     2.993826     2.985693     2.977559     2.969425
      2.961292     2.953158     2.945024     2.936891     2.928757     2.920624     2.912490     2.904356     2.896223     2.888089
      2.879955     2.871822     2.863688     2.855554     2.847421     2.839287     2.831153     2.823020     2.814886     2.806752
      2.798619     2.790485     2.782351     2.774218     2.766084     2.757951     2.749817     2.741683     2.733550     2.725416
      2.717282     2.709149     2.701015     2.692881     2.684748     2.676614     2.668480     2.660347     2.652213     2.644079
      2.635946     2.627812     2.619678     2.611545     2.603411     2.595278     2.587144     2.579010     2.570877     2.562743
      2.554609     2.546476     2.538342     2.530208     2.522075     2.513941     2.505807     2.497674     2.489540     2.481406
      2.473273     2.465139     2.457006     2.448872     2.440738     2.432605     2.424471     2.416337     2.408204     2.400070
      2.391936     2.383803     2.375669     2.367535     2.359402     2.351268     2.343134     2.335001     2.326867     2.318733
      2.310600     2.302466     2.294333     2.286199     2.278065     2.269932     2.261798     2.253664     2.245531     2.237397
      2.229263     2.221130     2.212996     2.204862     2.196729     2.188595     2.180461     2.172328     2.164194     2.156060
      2.147927     2.139793     2.131660     2.123526     2.115392     2.107259     2.099125     2.090991     2.082858     2.074724
      2.066590     2.058457     2.050323     2.042189     2.034056     2.025922     2.017788     2.009655     2.001521     1.993387
      1.985254     1.977120     1.968987     1.960853     1.952719     1.944586     1.936452     1.928318     1.920185     1.912051
      1.903917     1.895784     1.887650     1.879516     1.871383     1.863249     1.855115     1.846982     1.838848     1.830714
      1.822581     1.814447     1.806314     1.798180     1.790046     1.781913     1.773779     1.765645     1.757512     1.749378
      1.741244     1.733111     1.724977     1.716843     1.708710     1.700576     1.692442     1.684309     1.676175     1.668041
      1.659908     1.651774     1.643641     1.635507     1.627373     1.619240     1.611106     1.602972     1.594839     1.586705
      1.578571     1.570438     1.562304     1.554170     1.546037     1.537903     1.529769     1.521636     1.513502     1.505368
      1.497235     1.489101     1.480968     1.472834     1.464700     1.456567     1.448433     1.440299     1.432166     1.424032
      1.415898     1.407765     1.399631     1.391497     1.383364     1.375230     1.367096     1.358963     1.350829     1.342695
      1.334562     1.326428     1.318295     1.310161     1.302027     1.293894     1.285760     1.277626     1.269493     1.261359
      1.253225     1.245092     1.236958     1.228824     1.220691     1.212557     1.204423     1.196290     1.188156     1.180022
      1.171889     1.163755     1.155622     1.147488     1.139354     1.131221     1.123087     1.114953     1.106820     1.098686
      1.090552     1.082419     1.074285     1.066151     1.058018     1.049884     1.041750     1.033617     1.025483     1.017349
      1.009216     1.001082     0.992949     0.984815     0.976681     0.968548     0.960414     0.952280     0.944147     0.936013
      0.927879     0.919746     0.911612     0.903478     0.895345     0.887211     0.879077     0.870944     0.862810     0.854676
      0.846543     0.838409     0.830276     0.822142     0.814008     0.805875     0.797741     0.789607     0.781474     0.773340
      0.765206     0.757073     0.748939     0.740805     0.732672     0.724538     0.716404     0.708271     0.700137     0.692003
      0.683870     0.675736     0.667603     0.659469     0.651335     0.643202     0.635068     0.626934     0.618801     0.610667
      0.602533     0.594400     0.586266     0.578132     0.569999     0.561865     0.553731     0.545598     0.537464     0.529330
      0.521197     0.513063     0.504930     0.496796     0.488662     0.480529     0.472395     0.464261     0.456128     0.447994
      0.439861     0.431727     0.423593     0.415460     0.407326     0.399192     0.391059     0.382925     0.374792     0.366658
      0.358524     0.350391     0.342257     0.334124     0.325990     0.317856     0.309723     0.301589     0.293455     0.285322
      0.277188     0.269055     0.260921     0.252787     0.244654     0.236520     0.228386     0.220253     0.212119     0.203986
 NY phased data points follow
  -8.12596E+01 -6.52841E+01 -7.96921E+01 -7.88908E+01 -4.95621E+01 -8.27662E+01 -7.82863E+01 -6.82750E+01 -6.75297E+01 -7.76463E+01
  -8.79365E+01 -8.28028E+01 -9.20054E+01 -9.25539E+01 -9.38913E+01 -9.70135E+01 -1.13996E+02 -1.12503E+02 -1.26022E+02 -1.34826E+02
  -1.07791E+02 -9.64724E+01 -7.60665E+01 -6.01548E+01 -4.47269E+01 -4.47334E+01 -5.85519E+01 -4.80730E+01 -5.79672E+01 -6.77359E+01
  -6.92859E+01 -8.72091E+01 -8.01691E+01 -8.53446E+01 -9.89324E+01 -9.69740E+01 -1.05462E+02 -1.12498E+02 -1.32601E+02 -1.38064E+02
  -1.29884E+02 -1.14019E+02 -1.07447E+02 -1.02230E+02 -7.06681E+01 -4.63699E+01 -3.43522E+01 -4.66645E+01 -3.83368E+01 -3.86397E+01
  -4.72778E+01 -3.50231E+01 -4.67338E+01 -5.39449E+01 -7.43364E+01 -7.56187E+01 -6.92606E+01 -7.75520E+01 -6.60877E+01 -6.34409E+01
  -6.11416E+01 -5.32634E+01 -3.05720E+01 -2.19251E+01 -3.78851E+01 -2.50429E+01 -3.40302E+01 -6.94463E+01 -8.17823E+01 -8.95481E+01
  -5.84758E+01 -4.60413E+01 -5.67700E+01 -1.87184E+01 -1.58396E+01 -1.51215E+01 -1.70911E+00 -1.36570E+01 -1.23254E+01 -1.61666E+01
  -2.84945E+01 -3.43618E+01 -5.00319E+01 -5.73430E+01 -4.65234E+01 -6.15416E+01 -4.65211E+01 -2.06043E+01 -2.74555E+01 -1.29856E+01
  -7.96638E+00 -9.75992E+00 -3.75030E+00  1.95610E+01  2.19338E+01 -4.55548E+00 -7.96283E-01 -3.83915E+00 -2.58068E+01 -1.79595E+01
  -1.45104E+01 -5.43956E+01 -6.00329E+01 -7.41268E+01 -9.79660E+01 -8.72224E+01 -1.13634E+02 -1.30582E+02 -1.62662E+02 -2.27837E+02
  -2.36853E+02 -1.77082E+02 -1.29522E+02 -1.08137E+02 -7.46349E+01 -7.52853E+01 -6.85524E+01 -5.79842E+01 -5.67546E+01 -4.32155E+01
  -4.76093E+01 -2.72658E+01 -1.80245E+01 -2.42504E+01 -1.32759E+01 -1.77714E+01 -5.30938E+00  1.21577E+01  1.85519E+01  4.02271E+01
   2.09464E+01 -7.78874E+01 -1.58102E+02 -1.65033E+02 -1.48626E+02 -1.21529E+02 -1.18089E+02 -1.23487E+02 -1.27020E+02 -1.34002E+02
  -1.06705E+02 -1.10097E+02 -1.18702E+02 -1.00789E+02 -9.58798E+01 -9.55834E+01 -9.33474E+01 -8.92351E+01 -9.89773E+01 -8.28371E+01
  -8.26933E+01 -7.75005E+01 -5.00480E+01 -7.88954E+01 -7.10048E+01 -6.26325E+01 -8.18436E+01 -5.52409E+01 -6.09168E+01 -7.21878E+01
  -5.56863E+01 -5.52657E+01 -5.41124E+01 -5.53221E+01 -5.06705E+01 -5.18332E+01 -4.63889E+01 -4.69649E+01 -7.15415E+01 -4.30396E+01
  -2.09020E+01 -2.47335E+01 -2.46751E+01 -4.61873E+01 -4.74648E+01 -4.06442E+01 -3.81429E+01 -4.50948E+01 -6.51659E+01 -5.80200E+01
  -6.77143E+01 -8.68178E+01 -6.74589E+01 -8.06375E+01 -8.08802E+01 -6.76039E+01 -6.85170E+01 -6.03776E+01 -7.17985E+01 -6.18184E+01
  -6.44473E+01 -4.44209E+01 -3.89605E+01 -5.08767E+01 -4.05115E+01 -5.64650E+01 -4.63188E+01 -4.27861E+01 -2.88404E+01 -4.68926E+01
  -4.08766E+01 -1.10191E+01 -2.71329E+01 -1.13499E+01 -1.85688E+01 -2.81554E+01 -5.65461E+01 -6.69095E+01 -5.52218E+01 -5.42165E+01
  -4.22147E+01 -2.94428E+01 -1.25785E+01 -1.46577E+01  1.66353E+01  2.98160E+01  2.78600E+01  1.76480E+01  1.82479E+00 -1.58342E+01
  -3.46273E+01 -1.80861E+01 -3.34358E+01 -3.39160E+01 -3.20816E+01 -2.57359E+01 -2.24007E+01 -3.60945E+01 -3.46573E+01 -3.60844E+01
  -4.00721E+01 -5.69618E+01 -5.28133E+01 -6.31177E+01 -7.02214E+01 -7.92560E+01 -8.43742E+01 -6.96604E+01 -7.52039E+01 -6.26531E+01
  -5.11314E+01 -4.39038E+01 -3.01571E+01 -1.59706E+01 -1.50745E+01 -1.63872E+01 -2.80652E+01 -3.66073E+01 -3.70681E+01 -3.69149E+01
  -3.01430E+01 -4.58019E+01 -3.57158E+01 -1.76881E+01 -3.23767E+01 -6.64639E+01  1.62692E+01  1.33357E+02  1.16647E+02  1.14400E+02
   1.15723E+02  1.02764E+02  8.83685E+01  5.31003E+01  5.64541E+01  7.22493E+01  5.14185E+01  2.53342E+01  3.95380E+01  5.48932E+01
   4.09565E+01  3.16514E+01  4.34897E+01  3.83100E+01  3.15635E+01  3.08876E+01  3.13846E+01  3.06835E+01  2.23664E+01  2.96565E+01
   3.12691E+01  2.66078E+01  2.16268E+01  1.55876E+01  1.13908E+01  1.01893E+01  6.54185E+00  1.40928E+01  8.74263E+00  1.10393E+01
   1.83131E+01  4.35425E+00  1.93492E+01 -4.01592E+00  1.31527E+00  1.36266E+01 -1.29549E+01  8.11293E+00  1.66364E+01  1.95046E+01
   2.18921E+01  2.90365E+01  2.54320E+01  3.00449E+01  4.19841E+01  3.80638E+01  6.10888E+01  7.54998E+01  8.13583E+01  8.88294E+01
   9.13629E+01  7.87531E+01  1.00809E+02  1.14536E+02  8.12091E+01  1.01434E+02  1.06143E+02  7.42499E+01  8.28607E+01  7.90180E+01
   4.92346E+01  4.36735E+01  2.88366E+01  1.22523E+01  1.62721E+01  1.37044E+01  1.68558E+00 -1.06060E+01 -2.15994E+01 -3.89139E+01
  -6.73021E+01 -8.48509E+01 -6.65264E+01 -7.79710E+01 -8.47809E+01 -5.87032E+01 -6.24619E+01 -5.32083E+01 -2.13576E+01 -1.16203E+01
  -2.09766E+01 -6.14385E+00 -3.51877E+00 -1.81066E+01 -2.42074E+00  1.21096E+01 -1.96329E+01 -4.09293E+01 -3.65858E+01 -5.47170E+01
  -4.26897E+01 -5.85064E+01 -7.71680E+01 -6.03002E+01 -6.25022E+01 -4.48782E+01 -4.97912E+01 -5.50849E+01 -4.11089E+01 -4.57418E+01
  -4.82959E+01 -4.05051E+01 -3.56259E+01 -4.16929E+01 -2.64599E+01 -4.87098E+00 -1.88545E+01 -2.69379E+01 -1.61478E+01 -1.08290E+01
   2.04685E+00 -7.05211E-01 -1.33086E+00 -1.16930E-01 -1.67832E+00  1.74765E+01  1.14696E+01  9.82493E+00  3.28993E+01  3.61782E+01
   3.24443E+01  4.61194E+01  4.96987E+01  5.28378E+01  6.53206E+01  6.79844E+01  8.09183E+01  7.07149E+01  5.43651E+01  5.24863E+01
   4.15190E+01  2.76916E+01 -2.42640E+00 -8.64911E+00 -9.99657E+00 -2.40750E+01 -1.57168E+01 -1.66477E+01 -2.83893E+01 -4.84798E+01
  -6.14691E+01 -6.49510E+01 -6.77134E+01 -6.92055E+01 -7.23215E+01 -6.45386E+01 -7.23515E+01 -6.82623E+01 -6.60619E+01 -6.92489E+01
  -7.20944E+01 -8.20804E+01 -6.04742E+01 -6.30027E+01 -5.54174E+01 -5.11315E+01 -7.15468E+01 -5.80536E+01 -5.22654E+01 -6.30579E+01
  -5.79840E+01 -4.84159E+01 -6.22261E+01 -4.43014E+01 -4.41701E+01 -5.22234E+01 -3.97088E+01 -5.57737E+01 -5.32724E+01 -5.91520E+01
  -5.18817E+01 -6.17370E+01 -5.97736E+01 -4.61542E+01 -5.77892E+01 -3.98449E+01 -5.73044E+01 -4.87662E+01 -4.65956E+01 -4.63626E+01
  -3.84171E+01 -6.39329E+01 -3.47414E+01 -4.48034E+01 -5.63720E+01 -3.81735E+01 -4.55529E+01 -4.58819E+01 -4.20491E+01 -3.36529E+01
  -3.97308E+01 -3.87182E+01 -3.93002E+01 -3.81145E+01 -4.17784E+01 -3.63780E+01 -2.83421E+01 -5.23404E+01 -4.72359E+01 -4.25789E+01
  -3.88667E+01 -2.21606E+01 -2.58486E+01 -3.98560E+01 -3.79313E+01 -2.88283E+01 -3.75334E+01 -3.97736E+01 -3.82329E+01 -2.89596E+01
  -3.57918E+01 -3.88339E+01 -3.44147E+01 -4.05834E+01 -2.85234E+01 -2.46939E+01 -2.51321E+01 -3.77376E+01 -3.82836E+01 -3.36013E+01
 NY points of the fit to the data follow
  -9.55804E+01 -1.00680E+02 -1.03313E+02 -9.95650E+01 -8.95594E+01 -8.03396E+01 -7.92331E+01 -8.57176E+01 -9.37020E+01 -9.89622E+01
  -9.99970E+01 -9.71648E+01 -9.34523E+01 -9.24231E+01 -9.48777E+01 -9.96157E+01 -1.05333E+02 -1.13052E+02 -1.21036E+02 -1.22869E+02
  -1.13385E+02 -9.37026E+01 -6.88281E+01 -4.64254E+01 -3.46921E+01 -3.44111E+01 -3.91183E+01 -4.29421E+01 -4.63530E+01 -4.90155E+01
  -5.08046E+01 -5.34576E+01 -5.73406E+01 -6.23794E+01 -6.82319E+01 -7.58396E+01 -8.71664E+01 -1.03816E+02 -1.22439E+02 -1.33628E+02
  -1.29920E+02 -1.14879E+02 -9.69418E+01 -7.93915E+01 -6.22781E+01 -4.75633E+01 -3.79771E+01 -3.18738E+01 -2.98113E+01 -3.15546E+01
  -3.63716E+01 -4.34338E+01 -5.33856E+01 -6.57989E+01 -7.63496E+01 -8.10449E+01 -8.10259E+01 -7.93105E+01 -7.39705E+01 -6.46283E+01
  -5.62445E+01 -4.91908E+01 -3.99293E+01 -3.06094E+01 -2.78903E+01 -3.33425E+01 -4.56199E+01 -6.42783E+01 -7.91891E+01 -8.00199E+01
  -7.12540E+01 -6.04543E+01 -4.80631E+01 -3.38502E+01 -2.29126E+01 -1.82850E+01 -1.67800E+01 -1.68625E+01 -2.07529E+01 -2.93247E+01
  -4.24026E+01 -5.84800E+01 -7.30048E+01 -8.02081E+01 -7.69348E+01 -6.46744E+01 -4.82184E+01 -3.33035E+01 -2.27164E+01 -1.69053E+01
  -1.33869E+01 -1.09626E+01 -9.01882E+00 -6.87472E+00 -5.07475E+00 -3.50873E+00 -2.70547E+00 -3.10285E+00 -3.45423E+00 -3.55640E+00
  -8.11887E+00 -1.97933E+01 -3.58509E+01 -5.25830E+01 -6.71032E+01 -7.54517E+01 -8.44277E+01 -1.14689E+02 -1.65804E+02 -2.01303E+02
  -1.95189E+02 -1.63585E+02 -1.30182E+02 -1.03921E+02 -8.46488E+01 -7.59031E+01 -7.23993E+01 -6.79053E+01 -6.26551E+01 -5.66931E+01
  -4.98082E+01 -4.17279E+01 -3.22384E+01 -2.15826E+01 -1.05740E+01 -5.80324E-01  7.92370E+00  1.52535E+01  2.39086E+01  2.47241E+01
  -5.84311E+00 -6.97764E+01 -1.29266E+02 -1.52952E+02 -1.48385E+02 -1.35094E+02 -1.20305E+02 -1.07170E+02 -1.03491E+02 -1.03877E+02
  -1.04527E+02 -1.05165E+02 -1.05161E+02 -1.04115E+02 -1.01879E+02 -9.84897E+01 -9.44221E+01 -9.05959E+01 -8.75207E+01 -8.51537E+01
  -8.34084E+01 -8.17318E+01 -7.97138E+01 -7.73027E+01 -7.48908E+01 -7.29848E+01 -7.18505E+01 -7.12459E+01 -7.04910E+01 -6.91802E+01
  -6.76976E+01 -6.66819E+01 -6.61486E+01 -6.52955E+01 -6.39327E+01 -6.30678E+01 -6.33200E+01 -6.31657E+01 -6.00664E+01 -5.29140E+01
  -4.38846E+01 -3.84764E+01 -4.00144E+01 -4.49200E+01 -4.63542E+01 -4.27308E+01 -3.95802E+01 -4.26019E+01 -5.10652E+01 -6.00916E+01
  -6.64310E+01 -6.96675E+01 -7.02623E+01 -6.85387E+01 -6.59641E+01 -6.37082E+01 -6.14914E+01 -5.95888E+01 -5.77410E+01 -5.58445E+01
  -5.46918E+01 -5.35736E+01 -5.00375E+01 -4.50354E+01 -4.24155E+01 -4.20933E+01 -4.01432E+01 -3.61739E+01 -3.34728E+01 -3.18521E+01
  -2.84275E+01 -2.30453E+01 -1.93406E+01 -2.01857E+01 -2.51552E+01 -3.26021E+01 -4.15886E+01 -5.02372E+01 -5.57889E+01 -5.77349E+01
  -5.51942E+01 -4.68501E+01 -3.20001E+01 -1.24054E+01  6.59785E+00  1.80983E+01  2.01469E+01  1.49208E+01  5.51741E+00 -3.42038E+00
  -7.93506E+00 -6.65256E+00 -4.52111E+00 -3.37998E+00 -4.91031E+00 -1.06030E+01 -1.94830E+01 -3.02937E+01 -4.19871E+01 -5.36317E+01
  -6.46186E+01 -7.42790E+01 -8.24018E+01 -8.86187E+01 -9.19010E+01 -9.22312E+01 -8.96865E+01 -8.41800E+01 -7.67564E+01 -6.79988E+01
  -5.76625E+01 -4.61189E+01 -3.50194E+01 -2.69740E+01 -2.32945E+01 -2.41248E+01 -2.85642E+01 -3.33425E+01 -3.72053E+01 -4.03379E+01
  -4.18100E+01 -4.00017E+01 -3.43837E+01 -3.42744E+01 -4.29266E+01 -3.40987E+01  1.54377E+01  8.17061E+01  1.19897E+02  1.21486E+02
   1.07368E+02  8.92826E+01  7.13582E+01  6.10672E+01  5.84358E+01  5.63973E+01  5.44296E+01  5.28105E+01  5.19299E+01  5.18086E+01
   5.21017E+01  5.25481E+01  5.28122E+01  5.26367E+01  5.19960E+01  5.11975E+01  5.03578E+01  4.91804E+01  4.75365E+01  4.55369E+01
   4.34480E+01  4.14598E+01  3.93976E+01  3.71491E+01  3.48033E+01  3.22929E+01  2.94107E+01  2.59217E+01  2.19166E+01  1.76172E+01
   1.32692E+01  9.30703E+00  6.44565E+00  5.37466E+00  6.28009E+00  8.75084E+00  1.21177E+01  1.57089E+01  1.91365E+01  2.24790E+01
   2.56699E+01  2.85190E+01  3.09441E+01  3.30617E+01  3.50539E+01  3.72466E+01  3.98461E+01  4.25824E+01  4.50104E+01  4.69448E+01
   4.85313E+01  4.99830E+01  5.11728E+01  5.18407E+01  5.19522E+01  5.15076E+01  5.03741E+01  4.84233E+01  4.54776E+01  4.02771E+01
   3.04702E+01  1.62962E+01  1.07491E+00 -1.22874E+01 -2.23891E+01 -2.86100E+01 -3.25054E+01 -3.68058E+01 -4.24008E+01 -4.78083E+01
  -5.12132E+01 -5.22753E+01 -4.96347E+01 -4.41856E+01 -3.74882E+01 -3.11457E+01 -2.61050E+01 -2.25768E+01 -2.01216E+01 -1.89093E+01
  -1.93301E+01 -2.09349E+01 -2.24452E+01 -2.29662E+01 -2.21308E+01 -2.01939E+01 -1.82616E+01 -1.76184E+01 -1.90747E+01 -2.21778E+01
  -2.70583E+01 -3.29991E+01 -3.91311E+01 -4.41252E+01 -4.69837E+01 -4.76190E+01 -4.63673E+01 -4.36266E+01 -3.99418E+01 -3.58365E+01
  -3.16401E+01 -2.74976E+01 -2.36935E+01 -2.03421E+01 -1.74307E+01 -1.48146E+01 -1.21777E+01 -9.37610E+00 -6.46352E+00 -3.47660E+00
  -3.80498E-01  3.04364E+00  7.07479E+00  1.18913E+01  1.73504E+01  2.33270E+01  3.00955E+01  3.76460E+01  4.55113E+01  5.36753E+01
   6.23585E+01  7.10861E+01  7.86427E+01  8.38229E+01  8.51878E+01  8.13756E+01  7.20732E+01  5.86278E+01  4.37632E+01  3.02162E+01
   1.94580E+01  1.14312E+01  5.27762E+00 -4.45185E-01 -7.42173E+00 -1.61775E+01 -2.60437E+01 -3.59006E+01 -4.47406E+01 -5.15336E+01
  -5.60063E+01 -5.86966E+01 -6.02185E+01 -6.08257E+01 -6.09262E+01 -6.10671E+01 -6.14257E+01 -6.19828E+01 -6.24694E+01 -6.26726E+01
  -6.24586E+01 -6.20670E+01 -6.17041E+01 -6.13308E+01 -6.09084E+01 -6.06742E+01 -6.06367E+01 -6.03543E+01 -5.96668E+01 -5.90694E+01
  -5.88028E+01 -5.85484E+01 -5.81103E+01 -5.77441E+01 -5.75540E+01 -5.72190E+01 -5.65530E+01 -5.57370E+01 -5.50811E+01 -5.47142E+01
  -5.45385E+01 -5.44266E+01 -5.41867E+01 -5.36850E+01 -5.29358E+01 -5.21171E+01 -5.13239E+01 -5.06620E+01 -5.01561E+01 -4.97033E+01
  -4.93176E+01 -4.90687E+01 -4.89748E+01 -4.87523E+01 -4.82807E+01 -4.76194E+01 -4.69344E+01 -4.62998E+01 -4.58005E+01 -4.54666E+01
  -4.50837E+01 -4.45022E+01 -4.37788E+01 -4.30708E+01 -4.24450E+01 -4.18802E+01 -4.13979E+01 -4.09329E+01 -4.04505E+01 -4.00822E+01
  -3.98787E+01 -3.96963E+01 -3.93814E+01 -3.88982E+01 -3.82114E+01 -3.73030E+01 -3.63366E+01 -3.56662E+01 -3.54609E+01 -3.55688E+01
  -3.56911E+01 -3.55733E+01 -3.52156E+01 -3.48001E+01 -3.43379E+01 -3.39202E+01 -3.37026E+01 -3.36481E+01 -3.33899E+01 -3.27469E+01
 NY background values follow
    -6.109E+01   -6.124E+01   -6.139E+01   -6.155E+01   -6.170E+01   -6.185E+01   -6.201E+01   -6.216E+01   -6.231E+01   -6.246E+01
    -6.260E+01   -6.275E+01   -6.289E+01   -6.303E+01   -6.317E+01   -6.330E+01   -6.344E+01   -6.356E+01   -6.368E+01   -6.380E+01
    -6.391E+01   -6.402E+01   -6.412E+01   -6.422E+01   -6.430E+01   -6.439E+01   -6.446E+01   -6.453E+01   -6.459E+01   -6.464E+01
    -6.469E+01   -6.472E+01   -6.475E+01   -6.477E+01   -6.478E+01   -6.479E+01   -6.478E+01   -6.477E+01   -6.475E+01   -6.473E+01
    -6.469E+01   -6.465E+01   -6.461E+01   -6.455E+01   -6.449E+01   -6.443E+01   -6.436E+01   -6.428E+01   -6.420E+01   -6.411E+01
    -6.402E+01   -6.392E+01   -6.382E+01   -6.371E+01   -6.360E+01   -6.348E+01   -6.336E+01   -6.324E+01   -6.311E+01   -6.298E+01
    -6.284E+01   -6.270E+01   -6.256E+01   -6.242E+01   -6.227E+01   -6.212E+01   -6.196E+01   -6.180E+01   -6.164E+01   -6.148E+01
    -6.131E+01   -6.114E+01   -6.097E+01   -6.079E+01   -6.061E+01   -6.043E+01   -6.024E+01   -6.005E+01   -5.986E+01   -5.967E+01
    -5.947E+01   -5.927E+01   -5.907E+01   -5.887E+01   -5.866E+01   -5.845E+01   -5.824E+01   -5.802E+01   -5.780E+01   -5.758E+01
    -5.736E+01   -5.713E+01   -5.690E+01   -5.667E+01   -5.644E+01   -5.620E+01   -5.596E+01   -5.572E+01   -5.547E+01   -5.522E+01
    -5.497E+01   -5.471E+01   -5.445E+01   -5.419E+01   -5.392E+01   -5.365E+01   -5.337E+01   -5.309E+01   -5.281E+01   -5.252E+01
    -5.223E+01   -5.193E+01   -5.163E+01   -5.132E+01   -5.101E+01   -5.069E+01   -5.037E+01   -5.004E+01   -4.971E+01   -4.937E+01
    -4.903E+01   -4.868E+01   -4.833E+01   -4.797E+01   -4.760E+01   -4.723E+01   -4.686E+01   -4.649E+01   -4.611E+01   -4.572E+01
    -4.533E+01   -4.494E+01   -4.455E+01   -4.415E+01   -4.375E+01   -4.335E+01   -4.295E+01   -4.254E+01   -4.213E+01   -4.172E+01
    -4.131E+01   -4.090E+01   -4.049E+01   -4.008E+01   -3.967E+01   -3.925E+01   -3.884E+01   -3.843E+01   -3.802E+01   -3.760E+01
    -3.719E+01   -3.678E+01   -3.638E+01   -3.597E+01   -3.556E+01   -3.516E+01   -3.476E+01   -3.436E+01   -3.396E+01   -3.356E+01
    -3.316E+01   -3.277E+01   -3.237E+01   -3.198E+01   -3.159E+01   -3.121E+01   -3.082E+01   -3.044E+01   -3.006E+01   -2.968E+01
    -2.930E+01   -2.892E+01   -2.855E+01   -2.818E+01   -2.781E+01   -2.745E+01   -2.708E+01   -2.672E+01   -2.637E+01   -2.601E+01
    -2.566E+01   -2.531E+01   -2.496E+01   -2.462E+01   -2.427E+01   -2.394E+01   -2.360E+01   -2.327E+01   -2.294E+01   -2.261E+01
    -2.228E+01   -2.196E+01   -2.164E+01   -2.133E+01   -2.101E+01   -2.070E+01   -2.040E+01   -2.009E+01   -1.979E+01   -1.949E+01
    -1.920E+01   -1.891E+01   -1.862E+01   -1.833E+01   -1.805E+01   -1.777E+01   -1.749E+01   -1.722E+01   -1.695E+01   -1.668E+01
    -1.642E+01   -1.616E+01   -1.590E+01   -1.565E+01   -1.540E+01   -1.515E+01   -1.491E+01   -1.467E+01   -1.444E+01   -1.421E+01
    -1.398E+01   -1.376E+01   -1.355E+01   -1.334E+01   -1.313E+01   -1.293E+01   -1.274E+01   -1.255E+01   -1.237E+01   -1.219E+01
    -1.202E+01   -1.186E+01   -1.170E+01   -1.155E+01   -1.140E+01   -1.126E+01   -1.113E+01   -1.101E+01   -1.089E+01   -1.079E+01
    -1.068E+01   -1.059E+01   -1.050E+01   -1.042E+01   -1.035E+01   -1.029E+01   -1.023E+01   -1.018E+01   -1.013E+01   -1.009E+01
    -1.005E+01   -1.002E+01   -9.999E+00   -9.980E+00   -9.966E+00   -9.956E+00   -9.951E+00   -9.950E+00   -9.953E+00   -9.960E+00
    -9.970E+00   -9.984E+00   -1.000E+01   -1.002E+01   -1.004E+01   -1.007E+01   -1.010E+01   -1.013E+01   -1.016E+01   -1.019E+01
    -1.023E+01   -1.026E+01   -1.030E+01   -1.034E+01   -1.039E+01   -1.043E+01   -1.048E+01   -1.053E+01   -1.059E+01   -1.065E+01
    -1.071E+01   -1.078E+01   -1.085E+01   -1.093E+01   -1.102E+01   -1.110E+01   -1.120E+01   -1.130E+01   -1.141E+01   -1.152E+01
    -1.165E+01   -1.177E+01   -1.191E+01   -1.206E+01   -1.221E+01   -1.237E+01   -1.254E+01   -1.272E+01   -1.291E+01   -1.311E+01
    -1.331E+01   -1.353E+01   -1.376E+01   -1.400E+01   -1.425E+01   -1.450E+01   -1.477E+01   -1.505E+01   -1.533E+01   -1.563E+01
    -1.593E+01   -1.624E+01   -1.657E+01   -1.690E+01   -1.724E+01   -1.758E+01   -1.794E+01   -1.831E+01   -1.868E+01   -1.907E+01
    -1.946E+01   -1.986E+01   -2.026E+01   -2.068E+01   -2.110E+01   -2.153E+01   -2.197E+01   -2.242E+01   -2.287E+01   -2.333E+01
    -2.380E+01   -2.428E+01   -2.476E+01   -2.525E+01   -2.574E+01   -2.624E+01   -2.674E+01   -2.724E+01   -2.775E+01   -2.826E+01
    -2.877E+01   -2.927E+01   -2.978E+01   -3.029E+01   -3.080E+01   -3.130E+01   -3.180E+01   -3.230E+01   -3.279E+01   -3.327E+01
    -3.376E+01   -3.423E+01   -3.470E+01   -3.516E+01   -3.561E+01   -3.605E+01   -3.649E+01   -3.691E+01   -3.732E+01   -3.772E+01
    -3.811E+01   -3.848E+01   -3.884E+01   -3.920E+01   -3.953E+01   -3.986E+01   -4.017E+01   -4.047E+01   -4.076E+01   -4.103E+01
    -4.130E+01   -4.155E+01   -4.179E+01   -4.201E+01   -4.223E+01   -4.243E+01   -4.262E+01   -4.279E+01   -4.296E+01   -4.311E+01
    -4.325E+01   -4.338E+01   -4.350E+01   -4.360E+01   -4.369E+01   -4.377E+01   -4.384E+01   -4.389E+01   -4.394E+01   -4.397E+01
    -4.399E+01   -4.399E+01   -4.399E+01   -4.397E+01   -4.395E+01   -4.391E+01   -4.386E+01   -4.380E+01   -4.373E+01   -4.365E+01
    -4.356E+01   -4.346E+01   -4.335E+01   -4.323E+01   -4.310E+01   -4.297E+01   -4.282E+01   -4.267E+01   -4.251E+01   -4.233E+01
    -4.216E+01   -4.197E+01   -4.178E+01   -4.158E+01   -4.137E+01   -4.115E+01   -4.093E+01   -4.071E+01   -4.047E+01   -4.023E+01
    -3.999E+01   -3.974E+01   -3.948E+01   -3.922E+01   -3.895E+01   -3.868E+01   -3.840E+01   -3.812E+01   -3.784E+01   -3.755E+01
    -3.726E+01   -3.696E+01   -3.666E+01   -3.635E+01   -3.604E+01   -3.573E+01   -3.542E+01   -3.510E+01   -3.478E+01   -3.446E+01
    -3.413E+01   -3.381E+01   -3.348E+01   -3.315E+01   -3.281E+01   -3.248E+01   -3.214E+01   -3.181E+01   -3.147E+01   -3.113E+01
    -3.079E+01   -3.045E+01   -3.011E+01   -2.977E+01   -2.943E+01   -2.909E+01   -2.874E+01   -2.840E+01   -2.806E+01   -2.771E+01
    -2.737E+01   -2.702E+01   -2.668E+01   -2.633E+01   -2.599E+01   -2.564E+01   -2.529E+01   -2.495E+01   -2.460E+01   -2.425E+01
    -2.391E+01   -2.356E+01   -2.321E+01   -2.287E+01   -2.252E+01   -2.217E+01   -2.183E+01   -2.148E+01   -2.113E+01   -2.079E+01
 Mac      Conc. = 2.96E-04
  -8.30019E+01 -8.34191E+01 -8.41565E+01 -8.54631E+01 -8.74023E+01 -8.97920E+01 -9.21529E+01 -9.39795E+01 -9.49386E+01 -9.51702E+01
  -9.51387E+01 -9.54882E+01 -9.67541E+01 -9.88267E+01 -1.00363E+02 -9.92633E+01 -9.48079E+01 -8.88318E+01 -8.33170E+01 -7.88590E+01
  -7.55974E+01 -7.39836E+01 -7.36424E+01 -7.32894E+01 -7.23119E+01 -7.08500E+01 -6.89194E+01 -6.68342E+01 -6.51900E+01 -6.41792E+01
  -6.37136E+01 -6.37388E+01 -6.43221E+01 -6.49030E+01 -6.45317E+01 -6.26247E+01 -5.97109E+01 -5.72376E+01 -5.62881E+01 -5.65687E+01
  -5.68230E+01 -5.62347E+01 -5.48896E+01 -5.35119E+01 -5.28910E+01 -5.33191E+01 -5.46145E+01 -5.64241E+01 -5.83503E+01 -5.98586E+01
  -6.07451E+01 -6.12540E+01 -6.14304E+01 -6.11938E+01 -6.02989E+01 -5.86901E+01 -5.66855E+01 -5.47844E+01 -5.30926E+01 -5.16154E+01
  -5.08669E+01 -5.12237E+01 -5.23670E+01 -5.37101E+01 -5.48007E+01 -5.53881E+01 -5.54941E+01 -5.50354E+01 -5.34422E+01 -5.04585E+01
  -4.70538E+01 -4.43248E+01 -4.27572E+01 -4.23013E+01 -4.28564E+01 -4.40419E+01 -4.53314E+01 -4.63212E+01 -4.69092E+01 -4.71380E+01
  -4.69125E+01 -4.61287E+01 -4.47833E+01 -4.32960E+01 -4.19149E+01 -4.06881E+01 -3.96839E+01 -3.89392E+01 -3.83313E+01 -3.78043E+01
  -3.75163E+01 -3.75647E+01 -3.82492E+01 -3.98041E+01 -4.22696E+01 -4.51930E+01 -4.80692E+01 -5.04388E+01 -5.22377E+01 -5.40151E+01
  -5.64757E+01 -5.99315E+01 -6.46328E+01 -7.09071E+01 -7.83510E+01 -8.53292E+01 -8.97577E+01 -9.05795E+01 -8.81560E+01 -8.36955E+01
