 
 $NMID
 ID=''
 FMTDAT='(2E13.5)'
 TRAMP=   1.00000E+0
 VOLUME=   1.00000E+0
 $END
  -1.73765E+4  -1.38748E+4
  -2.43329E+4   3.16058E+3
  -3.50365E+3   1.96630E+4
   2.08731E+4  -1.83014E+3
   1.38146E+3  -1.15264E+4
  -1.19247E+4   4.91196E+3
   3.28593E+3   3.44402E+3
   4.80639E+3  -6.56249E+3
  -1.53307E+3  -1.33046E+3
   1.49712E+3   1.98508E+3
  -5.33399E+2   1.90697E+3
  -4.70630E+2   4.23090E+3
   4.08610E+3  -2.00479E+3
  -1.82262E+3  -1.75077E+3
  -5.31854E+3   8.15907E+3
   3.17150E+3   6.34498E+2
   1.66747E+3  -1.01276E+4
  -4.18755E+3   1.09552E+3
   9.33357E+2   6.74812E+3
   3.15804E+3  -3.30024E+3
  -1.97065E+3  -4.13157E+3
  -2.13636E+3   1.36703E+3
   7.84223E+2   4.02728E+2
   1.01673E+3   4.14144E+2
  -7.41362E+2   3.84870E+2
  -1.28653E+3  -1.85392E+3
   7.02903E+2  -3.44559E+2
   2.52930E+3   1.83957E+3
  -1.14157E+3  -8.73193E+2
  -2.49286E+3  -3.98859E+2
   2.59222E+3   1.91991E+3
   2.83204E+3  -9.03907E+2
  -2.59870E+3  -1.25301E+3
  -2.46658E+3   3.02720E+3
   1.32860E+3   2.26479E+3
  -1.85552E+2  -3.76479E+3
  -1.76834E+3  -2.48626E+3
   1.36495E+3   2.51304E+3
   2.74838E+3   5.96889E+2
  -9.71058E+2  -2.07198E+3
  -2.01200E+3   1.67797E+3
   1.39181E+3   2.34381E+3
   4.65822E+2  -1.89173E+3
  -2.93187E+3  -2.07547E+3
  -1.47043E+3   7.09939E+2
   2.55580E+3  -1.10520E+3
   2.53123E+3  -1.62764E+3
  -3.81202E+2   1.88803E+3
  -1.48994E+3   2.60536E+3
   2.80799E+1  -4.38983E+2
   1.45714E+2  -1.17196E+3
  -9.54252E+2   4.88756E+2
  -5.86860E+2   4.58194E+2
   1.01607E+3  -1.28223E+3
   6.42552E+2  -1.25471E+3
  -3.38030E+2   6.68435E+2
   1.40608E+2   1.17316E+3
   1.86152E+2  -1.85545E+2
  -1.04575E+3  -8.63583E+2
  -1.08556E+3   1.08822E+2
   7.80888E+1  -1.71333E+2
   9.02967E+2  -1.54802E+3
   1.13984E+3  -8.21949E+2
   1.35773E+3   1.31474E+3
   5.88383E+2   1.40214E+3
  -3.79077E+2   5.44443E+2
  -6.97980E+2   3.73247E+2
  -8.56079E+2   8.11203E+1
  -7.30711E+2  -8.14111E+2
   4.44128E+2  -8.89179E+2
   3.90317E+2   2.94943E+2
  -6.59999E+2   5.57591E+2
  -7.37260E+2  -5.47571E+2
   6.82094E+2  -9.43058E+2
   6.21318E+2  -2.19507E+2
  -7.20647E+1   4.66863E+2
  -1.37826E+2  -9.18833E+1
   5.59090E+2  -5.88450E+2
   4.14989E+2  -1.63529E+2
   1.65123E+2   5.76633E+2
   1.57366E+2   4.70643E+2
  -1.95882E+2  -1.18568E+2
  -1.99678E+2  -3.18306E+2
  -9.00990E+1   7.61075E+1
  -6.88766E+1   2.58875E+2
  -4.83468E+2  -3.58697E+2
  -7.56665E+2  -8.05381E+2
   2.90389E+2  -2.98876E+2
   4.79097E+2  -1.00092E+2
  -3.78122E+2  -1.97157E+2
  -3.35351E+2  -5.04470E+2
   4.17923E+2  -8.90461E+1
   9.21749E+2  -2.47649E+2
   2.33490E+2   4.00440E+1
  -2.96980E+2   6.50866E+2
  -5.22515E+2   1.57011E+2
  -1.88308E+2  -1.87149E+2
  -3.50629E+2  -5.78331E+1
  -3.62506E+2   6.46799E+1
  -3.90237E+2  -1.22915E+2
  -1.47680E+2  -3.57193E+2
   5.37995E+1   5.44688E+1
   5.43559E+2   3.64198E+2
  -1.16293E+1   3.58106E+2
  -1.75281E+2  -1.75847E+2
  -2.47331E+2  -2.83235E+2
   4.40408E+2  -4.47023E+2
   4.88589E+2   1.61655E+2
   6.92526E+1   8.09282E+2
  -7.90108E+2   2.18455E+2
  -5.41671E+2  -6.29165E+2
   7.57055E+0  -4.74662E+2
   1.42798E+2   2.93677E+2
   1.30546E+2  -4.40208E+0
   5.38190E+1  -1.42839E+2
   3.37871E+2  -3.30944E+2
   4.49883E+2   3.80640E+2
   2.16723E+2   6.34436E+2
  -2.80763E+2   4.50744E+2
  -3.45029E+2  -9.73270E+1
  -1.41610E+1   1.51835E+2
   9.50136E+1  -3.42313E+1
   2.34821E+2  -2.94673E+2
   2.58140E+2  -1.82580E+2
   3.80297E+2   2.37464E+2
   2.02645E+2   6.93800E+1
  -1.64490E+1  -5.88832E+1
  -6.06574E+1  -1.21437E+2
  -1.40745E+2   2.03211E+1
   2.60652E+2  -2.32657E+2
   1.50419E+2  -1.14357E+2
   3.78376E+2   3.64953E+2
  -3.93129E+1   6.11638E+2
   7.53414E+0   2.84887E+1
   1.57415E+2  -1.95142E+2
   1.05138E+2   1.33033E+2
   8.66373E+1   2.38859E+2
   7.11966E+1   4.54750E+1
   1.54433E+2  -2.34113E+2
   3.21294E+2   1.15612E+2
   2.31459E+2  -4.61529E+0
  -1.55162E+1   2.33252E+2
  -5.17881E+1  -1.80004E+2
   7.06770E+1  -1.17953E+2
   2.99945E+2  -1.66506E+2
   3.43098E+2   8.33146E+1
   3.49539E+2   1.65180E+2
   4.38342E+1   1.59427E+2
   1.32086E+2   2.49916E+2
   1.28018E+2   1.87175E+2
  -1.35313E+2   4.76048E+1
  -5.31940E+1   3.97379E+1
  -1.03828E+2  -5.63017E+1
  -6.76394E+0  -9.62466E+1
   2.02973E+2  -2.58241E+2
   2.21756E+2  -9.34147E+1
   1.07526E+2  -1.19313E+2
   1.66435E+2   3.67099E+1
   1.36519E+2   1.24371E+2
   1.78617E+2  -5.36474E+1
   3.15877E+2  -6.98756E+1
   1.49853E+2   9.29634E+1
  -1.85952E+2   9.61034E+1
   1.80898E+2   4.73933E+1
   3.11132E+2   2.83716E+2
  -2.24322E+2  -2.37051E+0
  -1.95435E+2  -4.39942E+1
   2.70384E+2   1.81042E+1
   1.15482E+2   8.26308E+1
   1.06537E+1   1.53058E+2
  -1.90109E+2  -1.08136E+2
   8.27848E+1  -5.37017E+1
   2.20761E+2  -8.47842E+1
   2.03654E+2  -2.24735E+2
   2.19414E+2  -7.45274E+1
   1.51166E+2  -9.74571E+1
   5.55642E+1  -2.15063E+2
   1.97907E+2   2.92979E+1
   2.14091E+2   5.60602E+1
   1.09461E+2  -7.33072E+1
   7.06667E+1  -2.28465E+2
  -2.63263E+1  -5.11679E+1
   1.23284E+2  -8.94016E+1
   2.33768E+2  -2.17381E+2
   2.47624E+2   2.12349E+1
   1.26755E+2   7.11410E+1
  -1.19699E+0   1.36138E+2
   1.60961E+2   1.62357E+2
  -1.41657E+2  -5.34121E+1
  -4.83477E+1  -9.24516E+1
   1.14464E+2  -3.51788E+1
   3.66908E+2  -3.01747E+2
  -1.24994E+2  -6.74969E+1
   1.90236E+2  -9.97670E+1
   7.93946E+1   1.45042E+0
  -8.94999E+1  -2.40464E+2
   1.73986E+1  -1.92511E+1
   4.94467E+1  -4.61391E+1
   1.30233E+2  -1.71425E+2
  -1.15351E+2  -2.69462E+2
   2.79918E+2  -1.77454E+2
   3.38536E+1  -3.34196E+1
   8.27683E+1  -1.09057E+2
   1.10367E+2  -3.47526E+2
  -1.65286E+1   1.33014E+0
   1.16627E+2  -8.99562E+1
   2.40768E+2  -2.73016E+1
  -4.79647E+1  -9.99437E+1
   1.71697E+2  -2.73320E+1
  -5.66487E+1  -1.13756E+2
  -1.23951E+2  -1.37862E+2
  -1.10656E+2  -6.01814E+1
  -1.10418E+2  -1.76608E+2
  -2.88021E+2  -2.57868E+2
   6.16632E+1  -1.59946E+2
  -3.35336E+0  -1.66159E+2
   2.12627E+1  -2.04106E+2
   6.87810E+1   1.48559E+2
  -4.92299E+1   8.27654E+1
  -4.65380E+1  -1.74624E+2
  -1.01272E+2  -4.02888E+1
  -2.99240E+2  -1.67523E+2
   1.25789E+2  -1.13488E+1
   1.50036E+1  -2.42895E+1
   1.46123E+2   7.57395E+1
   7.36328E+1  -7.47648E+1
   1.99103E+1  -1.36739E+2
  -2.41692E+1  -9.58655E+1
   2.28289E+1  -2.36697E+2
   1.99207E+2  -1.00188E+2
   9.95435E+1  -2.22523E+2
  -9.11419E+1  -1.15107E+2
  -1.16675E+2  -4.44870E+1
   6.28770E+1   8.07216E+1
   1.53203E+2   1.45924E+2
   6.21658E+1  -7.52863E+1
  -1.26402E+1   2.31361E+2
  -2.88640E+2  -1.66602E+2
   1.50898E+2  -6.74757E+1
  -3.22287E+2   8.52231E+1
  -1.82673E+2  -1.06921E+2
  -1.95670E+2  -1.17393E+2
   4.95111E+1  -5.97682E+1
   6.18216E+1  -1.50208E+2
   6.68009E+1  -6.30198E+1
  -9.33236E+1  -7.06032E+1
   1.05298E+2  -1.93075E+1
   2.19368E+1   8.11982E+1
  -1.66108E+1   1.43883E+2
   1.13766E+2  -2.35781E+2
   4.74751E+1  -2.14814E+2
   1.18840E+1  -3.93608E+1
   1.56025E+2  -3.08497E+2
  -6.45372E+1  -9.82387E+1
   5.10724E+1   5.75833E+1
  -8.52817E+1   1.71006E+2
  -1.18364E+2   2.84548E+2
  -2.00747E+2   6.29355E+1
  -4.59913E+1  -2.02911E+0
   2.49772E+2   1.20422E+2
  -2.92598E+1  -1.44054E+2
   3.92371E+2  -2.24177E+2
   4.87517E+1   9.54303E+1
  -4.20509E+1   1.65093E+2
   1.24399E+2   1.31404E+2
   1.32678E+2  -2.35633E+2
   5.73940E-1   1.65671E+1
   1.42956E+2   1.50718E+2
   4.54899E+1   2.97042E+2
   4.83958E+1   4.16140E+1
   2.86872E+1  -4.46028E+1
  -1.41538E+2  -1.25058E+1
  -4.75909E+1   1.67798E+2
   9.09689E+1   2.84218E+1
  -6.33389E+1  -2.40851E+2
  -9.00796E+0  -1.22132E+2
   3.02637E+1  -8.94822E+1
  -3.56462E+1  -5.84766E+1
   9.73476E+1  -7.39169E+1
   9.03153E+1  -7.26562E+1
   8.32722E+1  -8.32206E+1
  -2.89270E+1   4.28166E+1
   3.54513E+2  -4.89691E+1
  -2.31180E+0   1.09311E+2
  -2.49203E+1   2.23157E+0
   8.15882E+1   6.78726E+1
   2.02203E+2  -6.03079E+1
   2.09145E+2   2.59565E+2
  -3.99066E+1  -6.48810E+1
   1.54929E+2  -2.09129E+2
  -3.13574E+1   9.31038E+1
  -1.26719E+2  -1.39421E+2
   1.34254E+2  -5.12874E+1
   3.70662E+1  -3.58220E+1
  -1.51809E+2   4.71705E+1
   8.52089E+1   4.20021E+1
   5.20576E+1  -3.28417E+1
   5.45627E+1  -6.90872E+1
  -2.22854E+1  -1.57892E+2
  -1.70016E+2  -1.13839E+2
   6.68054E+1  -3.53870E+1
  -1.70770E+2  -7.96168E+0
   1.18276E+2   5.17814E+1
   1.08297E+1  -2.57444E+2
  -6.78681E+1   8.98310E+0
   8.48707E+1  -1.14741E+2
   1.64693E+2   9.02488E+1
   1.09251E+2   5.14126E+1
   9.34811E+1   1.78517E+2
  -2.12094E+0   1.17631E+2
   9.82925E+1  -4.70858E+1
  -2.61061E+2  -5.43097E+1
   1.65987E+2  -8.67068E+1
   1.20789E+2  -4.06511E+1
   2.09923E+1   1.74104E+2
  -3.99911E+1  -8.34471E+1
  -9.09551E+1  -1.19496E+2
   3.69017E+1  -8.92936E+1
   1.06992E+2   5.84300E+1
   1.28468E+2   1.51319E+2
  -1.59909E+1   5.12121E+1
  -1.83526E+1   1.28060E+1
   1.12545E+2  -5.10140E+1
   1.65562E+2   1.02071E+2
  -1.00583E+2   6.73702E+1
  -1.30484E+2  -1.94628E+2
  -1.98766E+2  -1.01621E+2
   2.99750E+1  -1.07086E+0
   4.41473E+1   3.20510E+1
  -8.78275E+0  -1.01544E+2
   4.44462E+1   9.60707E+1
   2.33515E+2  -8.79301E+1
  -2.09731E+1  -2.19982E+2
  -2.62240E+2   1.05174E+1
   6.53585E+1   1.93375E+2
   7.80585E+1  -1.39003E+1
  -1.62998E+2   2.32394E+1
   2.59724E+2   8.64552E+1
   1.29499E+2  -1.38149E+1
  -6.28345E+1   2.38760E+2
  -4.60167E+1   5.45765E+1
  -7.65789E+1  -1.30951E+2
   1.14833E+2  -8.02854E+1
   1.72300E+2   9.58754E+1
   6.78897E+1  -1.28471E+2
   3.53050E+1  -1.41717E+2
   4.42637E+1   1.92903E+2
  -8.83110E+0   1.09984E+2
  -2.14844E+2  -3.51478E+1
  -1.55041E+2   1.33137E+1
  -6.16814E+1   1.19196E+2
   2.59863E+1  -5.35278E+1
   5.30266E+1   3.59603E+1
  -1.17431E+1   1.85378E+1
   3.94313E+1  -1.33141E+2
   6.31547E+1   3.20109E+1
  -7.78787E+1   8.40061E+1
  -9.52450E+1  -1.74891E+1
  -7.77715E+1  -2.24116E+2
   2.39854E+1  -7.94963E+1
   1.14487E+2  -2.28598E+2
  -1.11916E+2   2.10608E+2
  -1.15003E+2  -1.38573E+2
   9.14719E+1   1.98783E+1
   2.18167E+2   2.76969E+2
  -8.85835E+1  -9.79218E+0
   1.54008E+2  -1.34694E+2
