 
 $NMID
 ID=''
 FMTDAT='(2E13.5)'
 TRAMP=   1.00000E+0
 VOLUME=   1.00000E+0
 $END
   5.64484E+5   4.03676E+5
   1.08517E+6   1.49327E+6
   1.24808E+6   1.27466E+6
   1.05100E+6   1.23199E+6
   1.00550E+6   1.37540E+6
   1.03189E+6   1.36831E+6
   9.93306E+5   1.34311E+6
   9.92560E+5   1.35858E+6
   9.63132E+5   1.31782E+6
   8.94429E+5   1.33947E+6
   9.06104E+5   1.38161E+6
   9.13868E+5   1.34306E+6
   8.67084E+5   1.32412E+6
   8.50283E+5   1.33483E+6
   8.35747E+5   1.32115E+6
   8.10300E+5   1.32285E+6
   8.09679E+5   1.33269E+6
   7.85607E+5   1.31281E+6
   7.39833E+5   1.31473E+6
   7.21587E+5   1.32675E+6
   6.98002E+5   1.31999E+6
   6.70585E+5   1.32068E+6
   6.60190E+5   1.31763E+6
   6.33843E+5   1.30422E+6
   5.98663E+5   1.30492E+6
   5.94799E+5   1.30331E+6
   5.86301E+5   1.29152E+6
   5.67872E+5   1.28414E+6
   5.52112E+5   1.27314E+6
   5.37193E+5   1.26269E+6
   5.18155E+5   1.26635E+6
   5.04351E+5   1.25953E+6
   4.83001E+5   1.24554E+6
   4.60117E+5   1.24248E+6
   4.41966E+5   1.23932E+6
   4.23707E+5   1.23220E+6
   4.04729E+5   1.22909E+6
   3.85542E+5   1.22197E+6
   3.63801E+5   1.21176E+6
   3.49345E+5   1.20751E+6
   3.38986E+5   1.19988E+6
   3.24551E+5   1.18826E+6
   3.11348E+5   1.17700E+6
   3.00873E+5   1.16936E+6
   2.88283E+5   1.16180E+6
   2.77139E+5   1.15578E+6
   2.63181E+5   1.14608E+6
   2.45135E+5   1.13626E+6
   2.27156E+5   1.12761E+6
   2.11863E+5   1.12021E+6
   1.96707E+5   1.11253E+6
   1.80814E+5   1.10397E+6
   1.64875E+5   1.09570E+6
   1.48348E+5   1.08818E+6
   1.34027E+5   1.08028E+6
   1.21398E+5   1.07151E+6
   1.07973E+5   1.06224E+6
   9.53854E+4   1.05178E+6
   8.38527E+4   1.04177E+6
   7.30436E+4   1.03442E+6
   6.12714E+4   1.02665E+6
   4.93802E+4   1.01752E+6
   3.65042E+4   1.00763E+6
   2.30560E+4   9.98500E+5
   9.24826E+3   9.88730E+5
  -2.98162E+3   9.78286E+5
  -1.40796E+4   9.67131E+5
  -2.52158E+4   9.57597E+5
  -3.75300E+4   9.48865E+5
  -4.97003E+4   9.40259E+5
  -6.08657E+4   9.29680E+5
  -6.99027E+4   9.19382E+5
  -7.87887E+4   9.10685E+5
  -8.91194E+4   9.01451E+5
  -9.99591E+4   8.91037E+5
  -1.09205E+5   8.80587E+5
  -1.18453E+5   8.71344E+5
  -1.28697E+5   8.61318E+5
  -1.38925E+5   8.50406E+5
  -1.49492E+5   8.39431E+5
  -1.59491E+5   8.28758E+5
  -1.68260E+5   8.18213E+5
  -1.77180E+5   8.07825E+5
  -1.86534E+5   7.97203E+5
  -1.95166E+5   7.86032E+5
  -2.03072E+5   7.75509E+5
  -2.10027E+5   7.65316E+5
  -2.16905E+5   7.55329E+5
  -2.23170E+5   7.44852E+5
  -2.29337E+5   7.33848E+5
  -2.35124E+5   7.23756E+5
  -2.41096E+5   7.14019E+5
  -2.47869E+5   7.03588E+5
  -2.53837E+5   6.92289E+5
  -2.59461E+5   6.80586E+5
  -2.64644E+5   6.70162E+5
  -2.70688E+5   6.60567E+5
  -2.76327E+5   6.49738E+5
  -2.81229E+5   6.38276E+5
  -2.85372E+5   6.28077E+5
  -2.90113E+5   6.18627E+5
  -2.94991E+5   6.08474E+5
  -2.99030E+5   5.97207E+5
  -3.01839E+5   5.86365E+5
  -3.04139E+5   5.76549E+5
  -3.07075E+5   5.67385E+5
  -3.10472E+5   5.57447E+5
  -3.13956E+5   5.46839E+5
  -3.16320E+5   5.35982E+5
  -3.17353E+5   5.25819E+5
  -3.19710E+5   5.16630E+5
  -3.23254E+5   5.06848E+5
  -3.26396E+5   4.96592E+5
  -3.28660E+5   4.86263E+5
  -3.30557E+5   4.76296E+5
  -3.33185E+5   4.66290E+5
  -3.35972E+5   4.56016E+5
  -3.37444E+5   4.45414E+5
  -3.38162E+5   4.35920E+5
  -3.38874E+5   4.26829E+5
  -3.40321E+5   4.17943E+5
  -3.42045E+5   4.08510E+5
  -3.43029E+5   3.99100E+5
  -3.44474E+5   3.90219E+5
  -3.45527E+5   3.80282E+5
  -3.46086E+5   3.70690E+5
  -3.46401E+5   3.61228E+5
  -3.47017E+5   3.52108E+5
  -3.47825E+5   3.42989E+5
  -3.48711E+5   3.34061E+5
  -3.49642E+5   3.24590E+5
  -3.50095E+5   3.14611E+5
  -3.50170E+5   3.05286E+5
  -3.50398E+5   2.96770E+5
  -3.50397E+5   2.87863E+5
  -3.50489E+5   2.78730E+5
  -3.49931E+5   2.69722E+5
  -3.49911E+5   2.61515E+5
  -3.50128E+5   2.53000E+5
  -3.49704E+5   2.43928E+5
  -3.49315E+5   2.35029E+5
  -3.47514E+5   2.26902E+5
  -3.46442E+5   2.19142E+5
  -3.46051E+5   2.11295E+5
  -3.45459E+5   2.03162E+5
  -3.43790E+5   1.94947E+5
  -3.42215E+5   1.87348E+5
  -3.40961E+5   1.79678E+5
  -3.39217E+5   1.72188E+5
  -3.37286E+5   1.65000E+5
  -3.35333E+5   1.57865E+5
  -3.33117E+5   1.51280E+5
  -3.31074E+5   1.44689E+5
  -3.29189E+5   1.37986E+5
  -3.27055E+5   1.31033E+5
  -3.24572E+5   1.24891E+5
  -3.22197E+5   1.18643E+5
  -3.19916E+5   1.12707E+5
  -3.17590E+5   1.06468E+5
  -3.15221E+5   1.00468E+5
  -3.12447E+5   9.46541E+4
  -3.09719E+5   8.91188E+4
  -3.07104E+5   8.33846E+4
  -3.04123E+5   7.75930E+4
  -3.00974E+5   7.26217E+4
  -2.98081E+5   6.82248E+4
  -2.95555E+5   6.31952E+4
  -2.93036E+5   5.79307E+4
  -2.89741E+5   5.31160E+4
  -2.86534E+5   4.85140E+4
  -2.83618E+5   4.42667E+4
  -2.80625E+5   3.96297E+4
  -2.77448E+5   3.54846E+4
  -2.74398E+5   3.15083E+4
  -2.71380E+5   2.68191E+4
  -2.68234E+5   2.28550E+4
  -2.65311E+5   1.87482E+4
  -2.61711E+5   1.44791E+4
  -2.58549E+5   1.05095E+4
  -2.55135E+5   6.89128E+3
  -2.52389E+5   3.41708E+3
  -2.49345E+5  -8.07486E+2
  -2.46063E+5  -4.70534E+3
  -2.42737E+5  -8.05182E+3
  -2.39297E+5  -1.18243E+4
  -2.36117E+5  -1.47047E+4
  -2.32682E+5  -1.79969E+4
  -2.29307E+5  -2.07918E+4
  -2.26104E+5  -2.36370E+4
  -2.23161E+5  -2.64835E+4
  -2.20101E+5  -2.95530E+4
  -2.16970E+5  -3.30418E+4
  -2.13272E+5  -3.60054E+4
  -2.09760E+5  -3.85557E+4
  -2.06324E+5  -4.09755E+4
  -2.03058E+5  -4.37460E+4
  -1.99891E+5  -4.65011E+4
  -1.96826E+5  -4.89205E+4
  -1.93464E+5  -5.16883E+4
  -1.89887E+5  -5.42605E+4
  -1.86709E+5  -5.66408E+4
  -1.82948E+5  -5.89407E+4
  -1.79700E+5  -6.10288E+4
  -1.76318E+5  -6.28129E+4
  -1.73310E+5  -6.49071E+4
  -1.70037E+5  -6.71353E+4
  -1.66484E+5  -6.88747E+4
  -1.63350E+5  -7.05612E+4
  -1.60043E+5  -7.25733E+4
  -1.56872E+5  -7.40744E+4
  -1.53354E+5  -7.58854E+4
  -1.50233E+5  -7.72059E+4
  -1.47375E+5  -7.85840E+4
  -1.44361E+5  -8.04200E+4
  -1.40753E+5  -8.17518E+4
  -1.37456E+5  -8.31627E+4
  -1.34042E+5  -8.42367E+4
  -1.31187E+5  -8.49100E+4
  -1.28232E+5  -8.61052E+4
  -1.25145E+5  -8.67884E+4
  -1.22289E+5  -8.78455E+4
  -1.19471E+5  -8.84947E+4
  -1.16419E+5  -8.92686E+4
  -1.13660E+5  -8.99098E+4
  -1.10702E+5  -9.06605E+4
  -1.07878E+5  -9.11819E+4
  -1.05285E+5  -9.15491E+4
  -1.02588E+5  -9.18381E+4
  -1.00252E+5  -9.22903E+4
  -9.73870E+4  -9.31475E+4
  -9.45073E+4  -9.31693E+4
  -9.20231E+4  -9.30947E+4
  -8.99154E+4  -9.32170E+4
  -8.75652E+4  -9.34795E+4
  -8.51061E+4  -9.34920E+4
  -8.27725E+4  -9.31681E+4
  -8.06566E+4  -9.34569E+4
  -7.83387E+4  -9.37048E+4
  -7.59239E+4  -9.33742E+4
  -7.39419E+4  -9.30616E+4
  -7.17532E+4  -9.29436E+4
  -6.98543E+4  -9.30038E+4
  -6.77900E+4  -9.26451E+4
  -6.53961E+4  -9.23798E+4
  -6.35791E+4  -9.20899E+4
  -6.17308E+4  -9.20204E+4
  -5.97541E+4  -9.16540E+4
  -5.73280E+4  -9.10163E+4
  -5.56970E+4  -9.06508E+4
  -5.40123E+4  -9.02001E+4
  -5.22364E+4  -8.99676E+4
  -5.06243E+4  -8.96954E+4
  -4.87693E+4  -8.90606E+4
  -4.68530E+4  -8.85236E+4
  -4.51015E+4  -8.79641E+4
  -4.37048E+4  -8.75226E+4
  -4.18521E+4  -8.70838E+4
  -4.04000E+4  -8.65139E+4
  -3.86697E+4  -8.60496E+4
  -3.70865E+4  -8.57985E+4
  -3.50865E+4  -8.52106E+4
  -3.33760E+4  -8.47963E+4
  -3.19396E+4  -8.39104E+4
  -3.05183E+4  -8.31370E+4
  -2.90341E+4  -8.26667E+4
  -2.75443E+4  -8.21574E+4
  -2.58431E+4  -8.15292E+4
  -2.42256E+4  -8.07392E+4
  -2.31263E+4  -8.00587E+4
  -2.17061E+4  -7.94594E+4
  -2.03011E+4  -7.89582E+4
  -1.92660E+4  -7.82392E+4
  -1.77117E+4  -7.75216E+4
  -1.65173E+4  -7.67252E+4
  -1.51064E+4  -7.62595E+4
  -1.37078E+4  -7.55511E+4
  -1.21890E+4  -7.47401E+4
  -1.12344E+4  -7.38902E+4
  -9.93178E+3  -7.33115E+4
  -8.94014E+3  -7.23033E+4
  -7.66257E+3  -7.15415E+4
  -6.51763E+3  -7.08375E+4
  -5.78474E+3  -6.99347E+4
  -4.50070E+3  -6.94676E+4
  -3.37641E+3  -6.84122E+4
  -2.34050E+3  -6.77164E+4
  -1.14587E+3  -6.66065E+4
  -7.94604E+2  -6.60010E+4
   3.78093E+2  -6.52676E+4
   1.43240E+3  -6.43290E+4
   2.26835E+3  -6.35964E+4
   3.43163E+3  -6.25574E+4
   4.11827E+3  -6.18112E+4
   5.01293E+3  -6.08418E+4
   5.86303E+3  -6.00443E+4
   6.68129E+3  -5.90549E+4
   7.44243E+3  -5.83622E+4
   8.26301E+3  -5.75238E+4
   9.13791E+3  -5.67263E+4
   9.82975E+3  -5.57586E+4
   1.04127E+4  -5.51034E+4
   1.12421E+4  -5.41005E+4
   1.18005E+4  -5.31518E+4
   1.24301E+4  -5.24403E+4
   1.32864E+4  -5.14866E+4
   1.37872E+4  -5.08024E+4
   1.41826E+4  -4.96874E+4
   1.49043E+4  -4.89388E+4
   1.56866E+4  -4.81725E+4
   1.59846E+4  -4.72269E+4
   1.65679E+4  -4.64517E+4
   1.70599E+4  -4.58272E+4
   1.76204E+4  -4.49325E+4
   1.82516E+4  -4.39220E+4
   1.85138E+4  -4.31799E+4
   1.89339E+4  -4.22277E+4
   1.92961E+4  -4.15432E+4
   1.98025E+4  -4.05636E+4
   1.99583E+4  -3.99871E+4
   2.04155E+4  -3.91188E+4
   2.08323E+4  -3.83810E+4
   2.12105E+4  -3.77077E+4
   2.14628E+4  -3.69671E+4
   2.19019E+4  -3.60274E+4
   2.19425E+4  -3.51331E+4
   2.22986E+4  -3.45672E+4
   2.25446E+4  -3.38172E+4
   2.28635E+4  -3.32032E+4
   2.32407E+4  -3.21577E+4
   2.34164E+4  -3.18957E+4
   2.36615E+4  -3.12220E+4
   2.35964E+4  -3.02911E+4
   2.39335E+4  -2.95614E+4
   2.40462E+4  -2.90368E+4
   2.44029E+4  -2.84894E+4
   2.45520E+4  -2.77140E+4
   2.45064E+4  -2.69572E+4
   2.45854E+4  -2.62780E+4
   2.48587E+4  -2.56911E+4
   2.48513E+4  -2.51720E+4
   2.50546E+4  -2.45153E+4
   2.48893E+4  -2.40795E+4
   2.49596E+4  -2.34015E+4
   2.52013E+4  -2.28744E+4
   2.50387E+4  -2.20904E+4
   2.51281E+4  -2.14860E+4
   2.50345E+4  -2.10890E+4
   2.52226E+4  -2.03571E+4
   2.50379E+4  -1.99725E+4
   2.49836E+4  -1.94919E+4
   2.52485E+4  -1.88893E+4
   2.53108E+4  -1.84263E+4
   2.51920E+4  -1.77539E+4
   2.49411E+4  -1.73800E+4
   2.51586E+4  -1.69786E+4
   2.50817E+4  -1.63069E+4
   2.50520E+4  -1.59103E+4
   2.49612E+4  -1.55528E+4
   2.50950E+4  -1.49682E+4
   2.48751E+4  -1.45032E+4
   2.47995E+4  -1.41048E+4
   2.48741E+4  -1.34845E+4
   2.46780E+4  -1.30955E+4
   2.45445E+4  -1.26317E+4
   2.46067E+4  -1.22179E+4
   2.46733E+4  -1.20074E+4
   2.44294E+4  -1.15293E+4
