 
 $NMID
 ID=''
 FMTDAT='(2E13.5)'
 TRAMP=   1.00000E+0
 VOLUME=   1.00000E+0
 $END
   7.00348E+3   2.00678E+4
   2.93066E+4   1.92614E+4
   3.11549E+4  -2.68033E+4
  -2.41509E+4  -2.78966E+4
  -3.80114E+4   2.03591E+4
   1.41428E+4   3.03648E+4
   3.50809E+4  -7.94492E+3
  -2.03226E+3  -2.44945E+4
  -2.78357E+4  -1.39629E+3
  -1.02485E+4   2.02871E+4
   1.46439E+4   1.11164E+4
   1.14442E+4  -1.06251E+4
  -9.78645E+3  -1.18086E+4
  -1.29204E+4   2.30650E+3
   3.51877E+3   6.52006E+3
   9.74426E+3   2.77115E+2
   6.35065E+2  -3.62290E+3
  -5.12852E+3  -3.13286E+3
  -1.56786E+3   1.30502E+3
   2.28279E+3   4.76038E+3
   7.93020E+2   3.25583E+2
   4.84314E+2  -3.34001E+3
   6.94452E+2   4.10376E+2
  -1.39553E+3   2.12067E+3
  -1.64008E+3  -1.08653E+3
   2.42668E+3  -6.82111E+2
   1.87337E+3   1.54291E+3
  -2.66040E+3   3.48767E+2
  -2.47331E+3  -2.13434E+3
   1.45926E+3  -5.09925E+2
   1.76469E+3   1.70221E+3
  -1.07542E+3   5.57113E+2
  -2.43234E+3  -2.28352E+3
  -6.00882E+2  -2.31259E+3
   2.57896E+3  -3.69549E+2
   2.41621E+3   1.54562E+3
  -8.30688E+2   1.03929E+3
  -1.40672E+3  -2.53292E+2
   5.47689E+2   5.92953E+1
  -1.55448E+1   4.77319E+2
  -1.36916E+3  -8.98146E+2
   2.35826E+2  -1.52481E+3
   2.14403E+3   3.45507E+2
   8.73128E+2   7.80424E+2
  -1.08526E+2  -5.15582E+2
  -2.44629E+0   4.88670E+2
  -8.97907E+2   1.85290E+3
  -1.86874E+3  -1.74174E+2
  -7.34567E+2  -2.66822E+3
   1.08353E+3  -1.47748E+3
   7.19290E+2   2.45701E+2
   4.56747E+2  -2.75083E+2
   4.06822E+2  -4.97648E+2
   3.66472E+2   7.45927E+2
  -3.24026E+2   1.01229E+3
  -5.51474E+2  -2.21446E+2
  -8.25743E+2  -1.32008E+3
   2.04081E+2  -7.63546E+2
   1.05862E+3   2.75812E+2
   7.49583E+2   3.59817E+2
  -1.23511E+2  -6.43501E+1
  -2.91014E+2   7.10913E+2
  -5.85704E+2   1.38481E+3
  -1.46680E+3   2.95408E+2
  -1.60898E+3  -1.47153E+3
  -1.74390E+2  -1.35560E+3
   9.67094E+2  -3.68488E+2
   1.05175E+3  -2.05436E+2
   5.98155E+2  -4.50363E+1
  -1.96694E+2   4.63496E+2
  -4.28201E+2   3.01270E+2
   2.50624E+2  -1.41029E+2
   9.00259E+2   4.45258E+2
  -2.14645E+2   1.03794E+3
  -8.49180E+2   4.82813E+2
  -1.22181E+2  -2.35795E+2
   4.56633E+2   1.88018E+2
  -2.83148E+2   6.68957E+2
  -7.14288E+2   6.23810E+2
  -5.28923E+2  -1.21377E+2
  -9.50009E+1  -1.23595E+2
   9.22632E+1   3.03561E+1
   7.83152E+0   9.66284E+1
   1.24644E+2  -1.77775E+2
   2.86445E+2  -3.82396E+2
   3.89437E+2  -1.74965E+2
   4.80239E+2   5.62004E+2
   3.28247E+2   6.94595E+2
   4.50480E+1   2.26777E+2
   3.82357E+2   2.74324E+2
   4.09254E+2   7.49916E+2
  -2.46008E+2   9.19622E+2
  -6.54637E+2   4.23204E+2
  -7.61667E+2  -3.21705E+1
   2.43878E+2  -3.19478E+2
   8.99763E+2  -4.93049E+2
   5.31668E+2   2.09386E+2
  -1.01163E+2   2.68109E+2
   2.91755E+2   1.20691E+2
   1.00945E+3   1.29639E+2
   8.82537E+2   7.30858E+2
  -8.98595E+1   3.38178E+2
  -3.03396E+2  -1.47458E+2
   1.32641E+2  -5.06541E+2
   5.71903E+2  -1.64363E+2
   5.47623E+2   5.63822E+2
  -3.89388E+2   7.54365E+2
  -6.49860E+2  -1.28085E+2
   1.69709E+1  -1.29145E+3
   1.01838E+3  -6.93056E+2
   9.82083E+2   3.00989E+2
   4.00498E+2   6.54776E+2
   3.50721E+1   1.54533E+2
   1.89641E+2   2.33877E+2
  -2.20301E+2   4.06586E+2
  -3.05758E+2   2.06589E+2
  -7.59470E+2  -3.09182E+2
  -3.68447E+2  -9.55658E+2
   3.27895E+2  -1.03554E+3
   8.62717E+2  -2.89467E+2
   6.44387E+2   3.59199E+2
   3.97698E+2   4.85067E+2
  -1.31020E+2   4.88324E+2
  -6.75267E+1   2.87285E+2
  -4.09677E+2   2.26173E+1
  -1.07650E+2  -3.05120E+2
   7.70744E+1  -4.13700E+2
   2.75979E+2  -6.27062E+1
   1.79810E+2   1.63995E+2
  -1.23151E+2   5.63590E+2
  -5.06771E+2   4.08995E+2
  -5.47319E+2  -2.75979E+2
   1.47016E+2  -2.08893E+2
   4.93889E+1  -7.33767E+1
  -4.94601E+1  -1.88657E+2
   2.16823E+1  -1.40884E+2
   3.44412E+2   2.43469E+2
   4.09337E+2   4.91387E+2
  -1.75152E+2   4.29026E+2
  -5.08207E+2   1.08724E+2
  -4.02512E+2  -1.47327E+2
   1.13663E+2  -2.75538E+2
   4.66509E+2  -7.76087E+1
   5.48557E+2   5.86558E+2
  -1.00854E+2   7.19826E+2
  -5.90669E+2   2.78163E+2
  -2.08206E+2  -1.73003E+2
  -1.27804E+2   3.06260E+1
  -3.63617E+2   1.12935E+2
  -2.38744E+2  -2.56000E+2
   2.97062E+2  -3.29409E+2
   6.95969E+2  -2.21038E+2
   3.41489E+2   2.79024E+2
   1.12836E+2   7.49553E+2
  -3.70640E+1   3.74765E+2
  -7.23629E+1   4.49714E+1
   1.00213E+2   1.50340E+2
   1.44306E+2   4.75986E+2
  -8.83265E+1   1.16006E+2
   1.24868E+2   2.59667E+2
  -1.88178E+2   5.69855E+1
  -1.74169E+2   2.84539E+2
  -8.04474E+1  -4.51189E+1
  -1.74611E+2  -4.61332E+2
   1.31114E+2  -3.42952E+2
   2.82559E+2  -2.63960E+2
   1.03809E+2   3.32072E+2
   6.26201E+0   9.93388E+1
  -1.85112E+2  -1.98686E+2
   2.38045E+2  -2.05497E+2
   2.24725E+2   2.22749E+2
  -4.99173E+1  -3.38979E+1
  -1.09635E+2  -3.46554E+1
   5.00389E+1  -1.88184E+2
   2.05566E+2   1.32605E+2
   1.72983E+2  -1.01281E+1
  -1.50045E+2   2.38432E+2
  -3.24874E+2  -2.13804E+2
  -9.93606E+1  -3.79380E+2
   3.93205E+2  -2.60268E+2
   6.57968E+1   4.59200E+2
   6.03798E+1   5.52237E+2
  -8.50206E+1  -1.63011E+1
  -2.94504E+2   7.16578E+0
  -1.62137E+2  -1.48301E+2
   9.91498E+1  -9.94115E+1
  -1.93590E+2  -3.68304E+2
   3.45945E+2  -2.16040E+2
   4.79939E+2   5.09021E+0
   4.01059E+2   3.67762E+2
  -1.04027E+1   3.98149E+2
  -4.61766E+2   1.00628E+2
  -3.87788E+2  -8.91680E+1
  -1.20548E+2  -4.53840E+2
   5.68869E+1  -3.47126E+2
   7.74277E+1  -5.66274E+1
  -8.43509E+1  -1.20179E+2
   1.29567E+2   1.39161E+2
  -1.66197E+1   8.12283E+1
  -2.23248E+2   2.01876E+2
  -4.01414E+2   2.58738E+1
  -1.78656E+2  -4.81456E+2
   1.89305E+2  -2.85223E+2
   3.70208E+2  -1.07501E+2
   1.96913E+2  -1.67176E+2
  -1.06301E+1   1.85685E+2
  -5.55334E+1   2.85078E+2
  -8.78510E+1  -7.70798E+1
   2.22445E+1  -1.98737E+2
  -2.67581E+1   3.67180E+1
  -1.25557E+1  -2.36230E+2
   3.84279E+2   3.17277E+1
   4.12909E+2   8.84633E+1
   2.18662E+1   3.97467E+2
  -4.62680E+2   1.22421E+2
  -4.20716E+2  -1.63134E+2
  -9.14507E+1  -2.54133E+2
   5.25647E+1  -1.98495E+2
   1.50839E+2  -3.53459E+2
  -3.82874E+1  -4.80214E+1
   1.65403E+2  -2.20281E+1
   3.03750E+2   4.88656E+1
  -1.61156E+2   5.27122E+2
  -5.32402E+1   2.10360E+2
  -4.19724E+2  -1.77678E+2
   1.88157E+1  -4.47192E+2
   1.42018E+2  -2.70632E+2
   1.08146E+2  -8.48214E+1
   1.96208E+2   1.15078E+2
  -6.29932E+1  -1.11607E+2
   2.60372E+1  -1.94917E+2
   1.17067E+2  -1.17099E+2
  -1.57550E+1  -3.89991E+1
  -2.24419E+2  -1.70465E+2
   1.92821E+1  -1.60706E+2
  -1.43153E+2  -1.24315E+2
  -3.48099E+1   3.72692E+1
   7.15264E+1  -2.09779E+1
  -4.42137E+1  -2.95466E+2
  -3.12856E+1  -1.92273E+2
   3.24725E+1  -1.89727E+1
   5.32872E+0   3.32735E+2
  -1.62080E+2   3.66334E+1
  -2.39150E+2   2.02063E+2
   1.17232E+2  -2.02641E+2
   1.18463E+2  -1.11031E+2
  -1.20368E+2  -2.30792E+1
  -9.65023E+1  -1.47776E+2
   7.56520E-1  -2.95396E+2
  -3.19827E+1  -2.82712E+2
  -9.17250E+1  -2.19222E+2
  -1.25155E+2   2.71049E+2
  -3.05285E+2   5.22520E+1
  -4.45271E+1  -3.37686E+2
   1.58214E+2  -2.20023E+2
   1.18256E+2  -2.29961E+1
   8.96159E+1   2.50973E+2
   2.88613E+1   4.02687E+1
   1.52246E+1   1.19457E+2
  -1.52911E+2   8.45731E+0
  -4.47075E+1  -1.05531E+2
  -2.94907E+2  -1.99094E+2
  -1.28047E+2  -9.62645E+1
   1.56991E+2  -2.98388E+2
   2.71274E+2  -3.25284E+2
  -2.25770E+1   1.41715E+2
  -6.30212E+1   1.90582E+2
  -2.71947E+2  -3.17108E+2
  -1.63791E+2  -1.75157E+2
  -7.07885E+1  -2.38385E+2
  -3.42480E+1  -1.35351E+2
   2.19073E+2  -1.03578E+2
   6.65986E+1  -1.73089E+2
   2.14202E+2  -1.57162E+1
  -2.54380E+0   2.08851E+2
  -2.07858E+2   1.25674E+2
  -2.86611E+2  -1.03192E+2
  -8.89676E+1  -1.67234E+2
   8.46551E+1  -2.42847E+2
   5.05672E+1   1.74766E+1
   2.80566E+1  -1.41159E+2
   9.37221E+1   2.23876E+1
   5.81937E+1  -1.79207E+2
  -1.40389E+2   6.21282E+1
  -2.83892E+2  -2.34072E+1
  -4.04574E+2   3.52996E+1
   1.02722E+1  -3.82704E+2
   1.06676E+2  -2.64084E+2
   2.73332E+2  -4.04547E+1
   1.17465E+2   1.29615E+2
  -1.78342E+2   1.30324E+2
  -1.00467E+2  -1.27934E+2
   5.66548E+1  -1.56160E+2
  -1.06904E+1  -6.71857E+0
  -1.72799E+2  -1.52127E+2
   9.93547E+1  -2.99566E+2
   4.21375E+1  -2.58587E+2
  -7.86885E+1   3.36275E+1
   1.21681E+2  -3.39727E+1
  -7.56571E+1   2.32511E+1
  -1.46049E+2  -1.47101E+2
   4.87432E+1  -6.11754E+1
   1.22381E+2   1.33234E+2
  -1.62345E+2  -4.57012E+1
  -1.04595E+2   4.05370E+1
   1.84448E+1  -1.43329E+2
   1.70698E+2   1.97370E+1
  -5.21034E+1  -2.51996E+2
   5.16363E+1  -1.42619E+2
  -1.39281E+2  -1.14857E+2
   3.94252E+1  -2.74400E+2
   1.17445E+2   3.38896E+1
  -2.67946E+1  -8.85541E+1
  -8.96833E+1  -7.04957E+1
  -6.25208E+1  -1.50047E+2
  -3.02214E+1  -1.57403E+2
   3.52762E+1  -9.22858E+1
   2.04524E+2   6.41637E+1
   3.69459E+1  -1.25319E+2
   1.95891E+0  -2.58815E+2
   2.55488E+2  -1.91361E+2
  -3.30509E+1  -1.61581E+2
  -1.48410E+2   8.49774E+1
  -1.82747E+2  -7.87482E+1
   3.36725E+1  -6.48778E+1
   2.71365E+2   2.39443E+2
  -3.83908E+1  -1.43650E+2
  -2.46461E+2  -5.48356E+1
  -2.87634E+2   3.62610E+1
   9.99103E+1  -3.29858E+2
  -7.75783E+1  -1.79032E+2
   1.54057E+2  -1.84887E+2
  -6.14360E+1  -5.48507E+1
   2.26948E+2   1.08397E+2
  -1.78563E+2  -5.86558E+1
  -6.29741E+1   1.10792E+2
  -9.91487E+1  -2.50935E+2
  -2.22454E+2  -1.24607E+2
  -7.66801E+1  -2.15830E+2
   1.03750E+2  -2.52513E+2
   2.90989E+1   6.96536E+1
   2.31912E+2  -2.36161E+1
   2.28378E+1   7.29489E+1
   9.94472E+1  -2.97738E+2
   1.61992E+2  -9.94326E+1
  -3.45939E+1  -4.76533E+1
   1.71565E+2  -1.69307E+2
  -8.72726E+1  -4.46479E+2
   2.17881E+2  -7.34049E+1
   5.31277E+1  -5.61825E+1
   1.49795E+2   1.22826E+1
   1.24547E+2  -2.40203E+2
   1.61364E+1  -1.71140E+2
  -3.76489E+1  -2.08709E+2
  -2.60148E+2  -8.11263E+1
   1.13507E+1  -2.38498E+2
   2.57610E+2  -2.02771E+2
  -6.28433E+1  -1.85430E+2
   2.63748E+2  -1.66491E+1
  -4.22233E+1  -2.91507E+2
  -3.72006E+2  -1.63097E+2
  -7.43841E+0  -1.70934E+2
  -4.67806E+1  -1.28425E+2
   1.81589E+2  -1.02161E+1
   1.95087E+2  -5.41371E+0
   4.20302E+1  -1.16553E+2
   2.39866E+1  -2.36643E+2
