 
 $NMID
 ID=''
 FMTDAT='(2E13.5)'
 TRAMP=   1.00000E+0
 VOLUME=   1.00000E+0
 $END
  -4.78570E+5   3.20042E+4
  -1.25187E+6  -3.45304E+5
  -1.26574E+6  -1.74499E+5
  -1.14417E+6  -2.24144E+5
  -1.13089E+6  -3.13082E+5
  -1.07662E+6  -3.46325E+5
  -1.02594E+6  -4.33133E+5
  -1.06133E+6  -4.95455E+5
  -1.05391E+6  -4.87088E+5
  -1.01258E+6  -5.12382E+5
  -9.93159E+5  -5.35363E+5
  -9.42187E+5  -5.43410E+5
  -8.92447E+5  -5.90416E+5
  -8.82381E+5  -6.27130E+5
  -8.56669E+5  -6.37249E+5
  -8.28098E+5  -6.59750E+5
  -8.11914E+5  -6.79126E+5
  -7.67487E+5  -6.92520E+5
  -7.20890E+5  -7.23350E+5
  -6.93686E+5  -7.47136E+5
  -6.53524E+5  -7.64063E+5
  -6.15810E+5  -7.87698E+5
  -5.89812E+5  -7.99685E+5
  -5.50437E+5  -8.09287E+5
  -5.09946E+5  -8.25391E+5
  -4.83768E+5  -8.30010E+5
  -4.51699E+5  -8.35086E+5
  -4.20780E+5  -8.45469E+5
  -3.91408E+5  -8.46779E+5
  -3.58765E+5  -8.47526E+5
  -3.26245E+5  -8.56297E+5
  -2.95362E+5  -8.58712E+5
  -2.58405E+5  -8.60296E+5
  -2.25867E+5  -8.63251E+5
  -1.95181E+5  -8.61208E+5
  -1.61738E+5  -8.60925E+5
  -1.28984E+5  -8.63747E+5
  -9.69261E+4  -8.60213E+5
  -6.63713E+4  -8.53585E+5
  -3.98162E+4  -8.49257E+5
  -1.33528E+4  -8.41876E+5
   1.36273E+4  -8.33532E+5
   3.61056E+4  -8.25415E+5
   5.86922E+4  -8.16799E+5
   8.34234E+4  -8.06608E+5
   1.06007E+5  -7.97620E+5
   1.29016E+5  -7.87100E+5
   1.54264E+5  -7.75072E+5
   1.78117E+5  -7.61277E+5
   2.00009E+5  -7.48178E+5
   2.21862E+5  -7.34954E+5
   2.43675E+5  -7.20776E+5
   2.64758E+5  -7.06777E+5
   2.84363E+5  -6.92223E+5
   3.02630E+5  -6.76572E+5
   3.20476E+5  -6.59700E+5
   3.37354E+5  -6.43436E+5
   3.52932E+5  -6.26064E+5
   3.66363E+5  -6.09210E+5
   3.80941E+5  -5.93069E+5
   3.94988E+5  -5.76412E+5
   4.08311E+5  -5.58795E+5
   4.20979E+5  -5.41028E+5
   4.33401E+5  -5.22243E+5
   4.45143E+5  -5.03046E+5
   4.55159E+5  -4.84152E+5
   4.65279E+5  -4.65606E+5
   4.74204E+5  -4.47082E+5
   4.83009E+5  -4.29201E+5
   4.91691E+5  -4.10255E+5
   4.99053E+5  -3.90393E+5
   5.04974E+5  -3.71871E+5
   5.10780E+5  -3.54886E+5
   5.17331E+5  -3.36975E+5
   5.22061E+5  -3.18189E+5
   5.25714E+5  -2.99727E+5
   5.29241E+5  -2.82080E+5
   5.32717E+5  -2.63957E+5
   5.35549E+5  -2.44860E+5
   5.37240E+5  -2.26315E+5
   5.39094E+5  -2.08337E+5
   5.39238E+5  -1.90650E+5
   5.39544E+5  -1.73827E+5
   5.39454E+5  -1.56425E+5
   5.38102E+5  -1.39217E+5
   5.36705E+5  -1.22644E+5
   5.34681E+5  -1.06786E+5
   5.32603E+5  -9.12800E+4
   5.29693E+5  -7.61229E+4
   5.26018E+5  -6.19293E+4
   5.22057E+5  -4.81866E+4
   5.18149E+5  -3.41134E+4
   5.13539E+5  -1.96893E+4
   5.08357E+5  -5.71643E+3
   5.02346E+5   6.99950E+3
   4.96277E+5   1.96774E+4
   4.90764E+5   3.21366E+4
   4.84163E+5   4.46885E+4
   4.77416E+5   5.64691E+4
   4.70279E+5   6.75999E+4
   4.63068E+5   7.84250E+4
   4.55838E+5   8.98254E+4
   4.47661E+5   1.00207E+5
   4.39060E+5   1.09935E+5
   4.30988E+5   1.18647E+5
   4.23075E+5   1.27095E+5
   4.14994E+5   1.36378E+5
   4.05892E+5   1.45015E+5
   3.96378E+5   1.53130E+5
   3.87354E+5   1.59929E+5
   3.78681E+5   1.66923E+5
   3.70181E+5   1.74469E+5
   3.59969E+5   1.82405E+5
   3.50216E+5   1.88845E+5
   3.40604E+5   1.95188E+5
   3.30897E+5   2.01605E+5
   3.20572E+5   2.07657E+5
   3.10260E+5   2.12824E+5
   3.00235E+5   2.17471E+5
   2.90644E+5   2.21625E+5
   2.80807E+5   2.26556E+5
   2.71120E+5   2.30429E+5
   2.61051E+5   2.34349E+5
   2.51028E+5   2.38390E+5
   2.40868E+5   2.41928E+5
   2.30416E+5   2.44972E+5
   2.20315E+5   2.47456E+5
   2.10360E+5   2.49799E+5
   2.00211E+5   2.52473E+5
   1.90085E+5   2.55014E+5
   1.80061E+5   2.57204E+5
   1.69295E+5   2.58815E+5
   1.59326E+5   2.59776E+5
   1.49879E+5   2.60856E+5
   1.39908E+5   2.61955E+5
   1.29615E+5   2.62198E+5
   1.19880E+5   2.62341E+5
   1.10547E+5   2.62523E+5
   1.01395E+5   2.62865E+5
   9.18713E+4   2.62348E+5
   8.23520E+4   2.61378E+5
   7.35886E+4   2.59924E+5
   6.49876E+4   2.58552E+5
   5.66976E+4   2.57605E+5
   4.76666E+4   2.56458E+5
   3.90229E+4   2.54210E+5
   3.09914E+4   2.51803E+5
   2.30915E+4   2.49269E+5
   1.53832E+4   2.46842E+5
   7.69547E+3   2.44459E+5
   4.28539E+2   2.41310E+5
  -6.83259E+3   2.38635E+5
  -1.31318E+4   2.35959E+5
  -1.98439E+4   2.32373E+5
  -2.67241E+4   2.29117E+5
  -3.28234E+4   2.25583E+5
  -3.85666E+4   2.22214E+5
  -4.47129E+4   2.18422E+5
  -5.03298E+4   2.14697E+5
  -5.55469E+4   2.10771E+5
  -6.08209E+4   2.07137E+5
  -6.56764E+4   2.02598E+5
  -7.03802E+4   1.98614E+5
  -7.50218E+4   1.94411E+5
  -7.94075E+4   1.89980E+5
  -8.32582E+4   1.85878E+5
  -8.72816E+4   1.81585E+5
  -9.10366E+4   1.77451E+5
  -9.46544E+4   1.73142E+5
  -9.77683E+4   1.68638E+5
  -1.01121E+5   1.64158E+5
  -1.03962E+5   1.59661E+5
  -1.06797E+5   1.55280E+5
  -1.09537E+5   1.50744E+5
  -1.11648E+5   1.46208E+5
  -1.14093E+5   1.41632E+5
  -1.16538E+5   1.36959E+5
  -1.18386E+5   1.32247E+5
  -1.20303E+5   1.27204E+5
  -1.21953E+5   1.22827E+5
  -1.23651E+5   1.18550E+5
  -1.25375E+5   1.13697E+5
  -1.26676E+5   1.08809E+5
  -1.27700E+5   1.04166E+5
  -1.28785E+5   9.95974E+4
  -1.29651E+5   9.46907E+4
  -1.30472E+5   9.04525E+4
  -1.30799E+5   8.58522E+4
  -1.31003E+5   8.14171E+4
  -1.31428E+5   7.71808E+4
  -1.32091E+5   7.29739E+4
  -1.32179E+5   6.80822E+4
  -1.32319E+5   6.36215E+4
  -1.31952E+5   5.89449E+4
  -1.31645E+5   5.47315E+4
  -1.31404E+5   5.03040E+4
  -1.31328E+5   4.58705E+4
  -1.30565E+5   4.16866E+4
  -1.29980E+5   3.75013E+4
  -1.29436E+5   3.34976E+4
  -1.28611E+5   2.90209E+4
  -1.27351E+5   2.49546E+4
  -1.26122E+5   2.08445E+4
  -1.25226E+5   1.73801E+4
  -1.24314E+5   1.34593E+4
  -1.22881E+5   9.73956E+3
  -1.21402E+5   5.72935E+3
  -1.20029E+5   2.12756E+3
  -1.18494E+5  -1.31179E+3
  -1.17142E+5  -4.87835E+3
  -1.15305E+5  -7.78639E+3
  -1.13405E+5  -1.14136E+4
  -1.11350E+5  -1.42102E+4
  -1.09904E+5  -1.77530E+4
  -1.08013E+5  -2.07616E+4
  -1.05673E+5  -2.37433E+4
  -1.03531E+5  -2.61392E+4
  -1.01591E+5  -2.87073E+4
  -9.95141E+4  -3.11418E+4
  -9.71982E+4  -3.37587E+4
  -9.49593E+4  -3.59238E+4
  -9.30474E+4  -3.81066E+4
  -9.06778E+4  -4.01973E+4
  -8.83419E+4  -4.21672E+4
  -8.58737E+4  -4.42989E+4
  -8.31665E+4  -4.62383E+4
  -8.07591E+4  -4.76841E+4
  -7.83789E+4  -4.93477E+4
  -7.62476E+4  -5.09437E+4
  -7.37101E+4  -5.24494E+4
  -7.09537E+4  -5.38141E+4
  -6.83425E+4  -5.49598E+4
  -6.60952E+4  -5.59867E+4
  -6.36398E+4  -5.75928E+4
  -6.13903E+4  -5.82844E+4
  -5.87800E+4  -5.91143E+4
  -5.65451E+4  -6.01169E+4
  -5.38373E+4  -6.08668E+4
  -5.14136E+4  -6.12733E+4
  -4.86927E+4  -6.19037E+4
  -4.62386E+4  -6.25593E+4
  -4.41538E+4  -6.30364E+4
  -4.15369E+4  -6.35771E+4
  -3.90248E+4  -6.40214E+4
  -3.65955E+4  -6.42174E+4
  -3.41176E+4  -6.43995E+4
  -3.18766E+4  -6.48515E+4
  -2.91104E+4  -6.48296E+4
  -2.68312E+4  -6.46364E+4
  -2.47321E+4  -6.49084E+4
  -2.23557E+4  -6.47033E+4
  -2.04263E+4  -6.49194E+4
  -1.79050E+4  -6.49271E+4
  -1.58961E+4  -6.45801E+4
  -1.39340E+4  -6.42610E+4
  -1.17780E+4  -6.43013E+4
  -9.69721E+3  -6.40267E+4
  -7.50834E+3  -6.34764E+4
  -5.24207E+3  -6.32138E+4
  -3.45179E+3  -6.28102E+4
  -1.41338E+3  -6.26278E+4
   8.16737E+2  -6.22159E+4
   2.49550E+3  -6.13593E+4
   4.52719E+3  -6.08132E+4
   6.26596E+3  -6.01562E+4
   7.75311E+3  -5.98246E+4
   9.96817E+3  -5.91628E+4
   1.16993E+4  -5.83589E+4
   1.32120E+4  -5.76372E+4
   1.47700E+4  -5.67556E+4
   1.65120E+4  -5.62034E+4
   1.78586E+4  -5.53157E+4
   1.92828E+4  -5.44934E+4
   2.09797E+4  -5.36084E+4
   2.22311E+4  -5.27686E+4
   2.36064E+4  -5.19256E+4
   2.50801E+4  -5.08161E+4
   2.61757E+4  -4.97979E+4
   2.73227E+4  -4.86296E+4
   2.82745E+4  -4.78851E+4
   2.97687E+4  -4.69114E+4
   3.04562E+4  -4.56437E+4
   3.17260E+4  -4.48374E+4
   3.26319E+4  -4.37642E+4
   3.36394E+4  -4.26273E+4
   3.43510E+4  -4.14977E+4
   3.49190E+4  -4.04968E+4
   3.60279E+4  -3.91635E+4
   3.65437E+4  -3.82156E+4
   3.75180E+4  -3.71910E+4
   3.81223E+4  -3.57736E+4
   3.86250E+4  -3.48969E+4
   3.93318E+4  -3.38120E+4
   3.98680E+4  -3.29101E+4
   4.03646E+4  -3.15627E+4
   4.07864E+4  -3.05972E+4
   4.11962E+4  -2.93599E+4
   4.17719E+4  -2.83964E+4
   4.21675E+4  -2.74584E+4
   4.25394E+4  -2.62255E+4
   4.25138E+4  -2.49088E+4
   4.26250E+4  -2.40446E+4
   4.28380E+4  -2.30401E+4
   4.31877E+4  -2.18245E+4
   4.32706E+4  -2.07977E+4
   4.33931E+4  -1.96591E+4
   4.37132E+4  -1.86503E+4
   4.38688E+4  -1.77467E+4
   4.39146E+4  -1.68740E+4
   4.34729E+4  -1.56536E+4
   4.37838E+4  -1.47297E+4
   4.36834E+4  -1.35725E+4
   4.37420E+4  -1.26839E+4
   4.38932E+4  -1.15481E+4
   4.36506E+4  -1.08673E+4
   4.36757E+4  -9.98624E+3
   4.34147E+4  -9.28584E+3
   4.32697E+4  -8.17975E+3
   4.31482E+4  -7.40164E+3
   4.28440E+4  -6.69899E+3
   4.25842E+4  -5.67089E+3
   4.25223E+4  -5.12013E+3
   4.22759E+4  -4.13287E+3
   4.20033E+4  -3.71844E+3
   4.16803E+4  -2.78946E+3
   4.15799E+4  -2.20059E+3
   4.11682E+4  -1.61545E+3
   4.07157E+4  -6.29490E+2
   4.08224E+4   2.46730E+2
   4.03208E+4   9.98062E+2
   3.97515E+4   1.17561E+3
   3.94039E+4   1.64648E+3
   3.90657E+4   2.43943E+3
   3.88583E+4   3.00240E+3
   3.83181E+4   3.63659E+3
   3.81737E+4   4.10524E+3
   3.76827E+4   4.65702E+3
   3.72838E+4   5.32916E+3
   3.67106E+4   5.84141E+3
   3.65089E+4   6.06979E+3
   3.59324E+4   6.87861E+3
   3.56133E+4   7.20090E+3
   3.51881E+4   7.74039E+3
   3.46103E+4   7.81663E+3
   3.43629E+4   8.58334E+3
   3.38773E+4   8.78346E+3
   3.32641E+4   9.10575E+3
   3.28985E+4   9.30260E+3
   3.24825E+4   9.80004E+3
   3.16516E+4   1.00590E+4
   3.13678E+4   1.03324E+4
   3.08755E+4   1.06815E+4
   3.07979E+4   1.10709E+4
   2.98126E+4   1.11377E+4
   2.95143E+4   1.12371E+4
   2.87243E+4   1.16814E+4
   2.83312E+4   1.17660E+4
   2.80759E+4   1.21906E+4
   2.71999E+4   1.22110E+4
   2.68311E+4   1.24703E+4
   2.64099E+4   1.25805E+4
   2.59740E+4   1.28028E+4
   2.53092E+4   1.28919E+4
   2.49529E+4   1.27687E+4
   2.42841E+4   1.30439E+4
   2.37925E+4   1.31800E+4
   2.34553E+4   1.31171E+4
