 
 $NMID
 ID=''
 FMTDAT='(2E13.5)'
 TRAMP=   1.00000E+0
 VOLUME=   1.00000E+0
 $END
   7.77665E+4   5.28091E+5
  -3.02100E+5   1.39050E+6
  -1.53188E+5   1.38423E+6
  -2.52046E+5   1.29262E+6
  -3.37696E+5   1.34023E+6
  -3.34762E+5   1.30280E+6
  -3.95490E+5   1.23855E+6
  -4.45978E+5   1.25561E+6
  -4.46737E+5   1.23055E+6
  -4.96253E+5   1.19256E+6
  -5.30174E+5   1.19394E+6
  -5.33525E+5   1.16074E+6
  -5.70751E+5   1.12478E+6
  -5.94912E+5   1.11882E+6
  -6.02404E+5   1.08813E+6
  -6.31137E+5   1.05852E+6
  -6.56819E+5   1.05105E+6
  -6.76938E+5   1.01377E+6
  -7.14128E+5   9.75186E+5
  -7.38701E+5   9.54609E+5
  -7.59254E+5   9.16799E+5
  -7.89402E+5   8.82694E+5
  -8.06649E+5   8.60857E+5
  -8.21943E+5   8.26207E+5
  -8.45563E+5   7.90965E+5
  -8.53524E+5   7.70068E+5
  -8.61241E+5   7.42941E+5
  -8.76559E+5   7.17804E+5
  -8.83458E+5   6.92059E+5
  -8.89724E+5   6.62676E+5
  -9.06953E+5   6.34497E+5
  -9.16271E+5   6.06118E+5
  -9.25390E+5   5.70985E+5
  -9.36693E+5   5.39229E+5
  -9.43749E+5   5.08334E+5
  -9.52549E+5   4.73310E+5
  -9.65357E+5   4.41195E+5
  -9.71115E+5   4.09185E+5
  -9.72635E+5   3.76952E+5
  -9.76887E+5   3.49490E+5
  -9.77469E+5   3.22454E+5
  -9.77044E+5   2.94477E+5
  -9.76072E+5   2.70593E+5
  -9.75265E+5   2.47103E+5
  -9.73713E+5   2.21325E+5
  -9.73286E+5   1.97225E+5
  -9.71464E+5   1.70790E+5
  -9.68497E+5   1.40726E+5
  -9.63527E+5   1.11829E+5
  -9.58545E+5   8.48141E+4
  -9.55156E+5   5.73062E+4
  -9.50402E+5   2.92903E+4
  -9.43977E+5   2.44021E+3
  -9.38123E+5  -2.35299E+4
  -9.30577E+5  -4.85229E+4
  -9.22019E+5  -7.29555E+4
  -9.13025E+5  -9.60720E+4
  -9.03243E+5  -1.17437E+5
  -8.92855E+5  -1.37346E+5
  -8.83741E+5  -1.57580E+5
  -8.73678E+5  -1.78289E+5
  -8.62544E+5  -1.98408E+5
  -8.51683E+5  -2.19109E+5
  -8.39270E+5  -2.40014E+5
  -8.25607E+5  -2.59727E+5
  -8.11621E+5  -2.77656E+5
  -7.97696E+5  -2.95162E+5
  -7.83346E+5  -3.12509E+5
  -7.69673E+5  -3.29710E+5
  -7.55807E+5  -3.46720E+5
  -7.40840E+5  -3.62503E+5
  -7.25365E+5  -3.75607E+5
  -7.11178E+5  -3.88459E+5
  -6.96418E+5  -4.02369E+5
  -6.79977E+5  -4.15337E+5
  -6.63522E+5  -4.27340E+5
  -6.47648E+5  -4.38711E+5
  -6.31477E+5  -4.50801E+5
  -6.14313E+5  -4.62188E+5
  -5.96291E+5  -4.72481E+5
  -5.78604E+5  -4.82190E+5
  -5.61085E+5  -4.91225E+5
  -5.43246E+5  -4.99821E+5
  -5.25594E+5  -5.07861E+5
  -5.07699E+5  -5.14863E+5
  -4.90455E+5  -5.20396E+5
  -4.73351E+5  -5.25498E+5
  -4.56619E+5  -5.30415E+5
  -4.39558E+5  -5.34504E+5
  -4.23334E+5  -5.37563E+5
  -4.07002E+5  -5.40260E+5
  -3.90720E+5  -5.43417E+5
  -3.73542E+5  -5.45800E+5
  -3.56241E+5  -5.47674E+5
  -3.39097E+5  -5.48105E+5
  -3.22419E+5  -5.48806E+5
  -3.06524E+5  -5.49112E+5
  -2.89880E+5  -5.50010E+5
  -2.73310E+5  -5.49340E+5
  -2.57719E+5  -5.48037E+5
  -2.42832E+5  -5.46770E+5
  -2.27191E+5  -5.45548E+5
  -2.11220E+5  -5.42917E+5
  -1.96607E+5  -5.39133E+5
  -1.83324E+5  -5.36059E+5
  -1.69907E+5  -5.32837E+5
  -1.56006E+5  -5.29774E+5
  -1.41379E+5  -5.25497E+5
  -1.27795E+5  -5.20577E+5
  -1.15254E+5  -5.15361E+5
  -1.02946E+5  -5.10759E+5
  -9.01845E+4  -5.06122E+5
  -7.66433E+4  -5.01226E+5
  -6.39163E+4  -4.95677E+5
  -5.21346E+4  -4.89990E+5
  -4.01524E+4  -4.84231E+5
  -2.84104E+4  -4.78613E+5
  -1.64009E+4  -4.71928E+5
  -6.35442E+3  -4.64515E+5
   3.50486E+3  -4.57993E+5
   1.32085E+4  -4.51708E+5
   2.32069E+4  -4.45101E+5
   3.26719E+4  -4.38097E+5
   4.20172E+4  -4.31235E+5
   5.11868E+4  -4.23972E+5
   6.00143E+4  -4.16102E+5
   6.80096E+4  -4.08354E+5
   7.59610E+4  -4.00633E+5
   8.40687E+4  -3.93220E+5
   9.15976E+4  -3.85532E+5
   9.96871E+4  -3.77732E+5
   1.07183E+5  -3.69247E+5
   1.13602E+5  -3.60731E+5
   1.19968E+5  -3.52859E+5
   1.26261E+5  -3.44745E+5
   1.32483E+5  -3.35843E+5
   1.37493E+5  -3.27581E+5
   1.42582E+5  -3.19693E+5
   1.48089E+5  -3.11087E+5
   1.52965E+5  -3.02224E+5
   1.57410E+5  -2.93190E+5
   1.61376E+5  -2.84861E+5
   1.64765E+5  -2.76316E+5
   1.68198E+5  -2.68303E+5
   1.71801E+5  -2.59797E+5
   1.74603E+5  -2.50856E+5
   1.77193E+5  -2.42450E+5
   1.79539E+5  -2.33760E+5
   1.81393E+5  -2.25652E+5
   1.82848E+5  -2.17558E+5
   1.84476E+5  -2.09024E+5
   1.85646E+5  -2.01129E+5
   1.86441E+5  -1.93516E+5
   1.87528E+5  -1.85874E+5
   1.88465E+5  -1.77840E+5
   1.88794E+5  -1.70239E+5
   1.88839E+5  -1.62705E+5
   1.89138E+5  -1.55573E+5
   1.89041E+5  -1.47892E+5
   1.88579E+5  -1.40617E+5
   1.88261E+5  -1.33708E+5
   1.87766E+5  -1.26617E+5
   1.86983E+5  -1.19373E+5
   1.85951E+5  -1.12696E+5
   1.84548E+5  -1.06059E+5
   1.83411E+5  -9.98217E+4
   1.82251E+5  -9.32492E+4
   1.81082E+5  -8.70982E+4
   1.79446E+5  -8.10249E+4
   1.77722E+5  -7.51230E+4
   1.75869E+5  -6.94792E+4
   1.74342E+5  -6.37756E+4
   1.72265E+5  -5.82483E+4
   1.70460E+5  -5.27388E+4
   1.68336E+5  -4.76888E+4
   1.66413E+5  -4.24341E+4
   1.64475E+5  -3.72396E+4
   1.62370E+5  -3.24117E+4
   1.59433E+5  -2.73306E+4
   1.57233E+5  -2.27620E+4
   1.55290E+5  -1.85152E+4
   1.52766E+5  -1.41222E+4
   1.50259E+5  -9.71843E+3
   1.47535E+5  -5.62644E+3
   1.44716E+5  -1.62351E+3
   1.42513E+5   2.17766E+3
   1.39747E+5   5.69490E+3
   1.36965E+5   9.04141E+3
   1.34271E+5   1.25843E+4
   1.31571E+5   1.57352E+4
   1.29022E+5   1.89029E+4
   1.26200E+5   2.20644E+4
   1.23354E+5   2.53955E+4
   1.20271E+5   2.78483E+4
   1.17471E+5   3.08566E+4
   1.14663E+5   3.34292E+4
   1.11724E+5   3.60518E+4
   1.08705E+5   3.86807E+4
   1.05899E+5   4.07683E+4
   1.02745E+5   4.30574E+4
   1.00165E+5   4.53265E+4
   9.68362E+4   4.71459E+4
   9.38039E+4   4.90339E+4
   9.07309E+4   5.07098E+4
   8.78184E+4   5.24698E+4
   8.47989E+4   5.40563E+4
   8.18001E+4   5.54778E+4
   7.87569E+4   5.68767E+4
   7.58531E+4   5.82258E+4
   7.27529E+4   5.93975E+4
   6.96788E+4   6.05884E+4
   6.67269E+4   6.15187E+4
   6.39111E+4   6.23338E+4
   6.09993E+4   6.32491E+4
   5.80082E+4   6.40514E+4
   5.51998E+4   6.46444E+4
   5.23802E+4   6.48773E+4
   4.99206E+4   6.56467E+4
   4.70060E+4   6.56780E+4
   4.42775E+4   6.62234E+4
   4.16616E+4   6.62392E+4
   3.90979E+4   6.64792E+4
   3.67926E+4   6.65542E+4
   3.42827E+4   6.65325E+4
   3.16227E+4   6.63661E+4
   2.95621E+4   6.63882E+4
   2.72342E+4   6.59817E+4
   2.48418E+4   6.58445E+4
   2.26911E+4   6.54683E+4
   2.04460E+4   6.50109E+4
   1.82687E+4   6.46691E+4
   1.63222E+4   6.43283E+4
   1.42505E+4   6.37080E+4
   1.24546E+4   6.32036E+4
   1.04733E+4   6.26794E+4
   8.95224E+3   6.17388E+4
   6.94307E+3   6.10772E+4
   5.45411E+3   6.03748E+4
   3.57477E+3   5.96413E+4
   2.24447E+3   5.89580E+4
   9.02860E+2   5.81073E+4
  -5.75731E+2   5.75377E+4
  -1.94260E+3   5.64508E+4
  -3.48121E+3   5.54950E+4
  -4.63663E+3   5.46421E+4
  -5.75296E+3   5.36851E+4
  -7.10037E+3   5.29181E+4
  -8.14648E+3   5.19050E+4
  -9.57061E+3   5.09383E+4
  -1.02964E+4   4.97451E+4
  -1.13995E+4   4.90002E+4
  -1.24671E+4   4.81348E+4
  -1.34289E+4   4.70412E+4
  -1.41754E+4   4.57972E+4
  -1.48682E+4   4.49651E+4
  -1.56085E+4   4.39253E+4
  -1.63880E+4   4.29935E+4
  -1.73315E+4   4.19227E+4
  -1.80193E+4   4.08523E+4
  -1.84440E+4   3.98416E+4
  -1.93765E+4   3.87320E+4
  -1.98430E+4   3.74250E+4
  -2.00914E+4   3.62006E+4
  -2.06770E+4   3.53975E+4
  -2.12226E+4   3.43567E+4
  -2.17668E+4   3.32149E+4
  -2.19883E+4   3.22502E+4
  -2.23984E+4   3.13105E+4
  -2.26317E+4   3.01334E+4
  -2.30991E+4   2.91605E+4
  -2.34180E+4   2.82173E+4
  -2.35860E+4   2.72277E+4
  -2.38981E+4   2.58859E+4
  -2.39006E+4   2.51323E+4
  -2.43716E+4   2.41143E+4
  -2.41747E+4   2.30917E+4
  -2.42318E+4   2.17987E+4
  -2.44242E+4   2.09319E+4
  -2.46752E+4   2.02474E+4
  -2.46954E+4   1.91446E+4
  -2.46063E+4   1.82933E+4
  -2.45764E+4   1.70980E+4
  -2.44531E+4   1.63057E+4
  -2.44787E+4   1.55138E+4
  -2.44583E+4   1.49247E+4
  -2.44070E+4   1.39018E+4
  -2.39041E+4   1.26689E+4
  -2.41542E+4   1.21488E+4
  -2.41003E+4   1.14959E+4
  -2.38802E+4   1.06528E+4
  -2.36999E+4   9.68102E+3
  -2.33093E+4   9.00131E+3
  -2.30387E+4   8.26403E+3
  -2.30274E+4   7.58567E+3
  -2.28786E+4   6.86331E+3
  -2.24477E+4   6.15035E+3
  -2.22667E+4   5.54324E+3
  -2.22258E+4   4.80191E+3
  -2.17478E+4   4.14903E+3
  -2.15433E+4   3.48861E+3
  -2.11932E+4   2.98068E+3
  -2.08063E+4   2.50482E+3
  -2.03420E+4   1.87100E+3
  -2.01126E+4   1.32546E+3
  -1.97710E+4   7.29718E+2
  -1.92927E+4   3.43549E+2
  -1.87940E+4  -2.80926E+2
  -1.86512E+4  -6.52786E+2
  -1.81479E+4  -1.11951E+3
  -1.77678E+4  -1.57657E+3
  -1.74312E+4  -2.08341E+3
  -1.72317E+4  -2.31606E+3
  -1.68787E+4  -2.91815E+3
  -1.64349E+4  -3.39795E+3
  -1.60630E+4  -3.87377E+3
  -1.55769E+4  -4.18447E+3
  -1.53232E+4  -4.49035E+3
  -1.45109E+4  -4.87615E+3
  -1.42897E+4  -5.23827E+3
  -1.39123E+4  -5.44831E+3
  -1.36077E+4  -5.68679E+3
  -1.30442E+4  -6.12067E+3
  -1.26819E+4  -6.49042E+3
  -1.20299E+4  -6.59141E+3
  -1.19835E+4  -6.92101E+3
  -1.17796E+4  -7.12436E+3
  -1.11617E+4  -7.29548E+3
  -1.05189E+4  -7.63365E+3
  -1.00525E+4  -7.70818E+3
  -9.49434E+3  -7.76694E+3
  -9.69705E+3  -8.22690E+3
  -8.98153E+3  -8.30089E+3
  -8.68978E+3  -8.49707E+3
  -8.23620E+3  -8.26234E+3
  -7.66999E+3  -8.54416E+3
  -7.33037E+3  -8.94422E+3
  -7.22537E+3  -8.87806E+3
  -6.49037E+3  -8.96963E+3
  -6.26642E+3  -9.23592E+3
  -6.00165E+3  -9.27643E+3
  -5.45519E+3  -9.52232E+3
  -4.85435E+3  -9.38417E+3
  -4.68079E+3  -9.41710E+3
  -4.15759E+3  -9.55384E+3
  -3.79207E+3  -9.73668E+3
  -3.46314E+3  -9.55742E+3
  -3.13701E+3  -9.52289E+3
  -2.74173E+3  -9.48500E+3
  -2.39050E+3  -9.56271E+3
  -1.97120E+3  -9.66744E+3
  -2.02203E+3  -9.71852E+3
  -1.23431E+3  -9.55048E+3
  -1.19436E+3  -9.43476E+3
  -7.24194E+2  -9.58857E+3
  -2.30457E+2  -9.50942E+3
  -2.28705E+2  -9.33135E+3
   3.25006E+2  -9.29936E+3
   7.01485E+2  -9.60929E+3
   8.78414E+2  -9.21695E+3
   1.17230E+3  -9.58438E+3
   1.72305E+3  -9.02748E+3
   1.82186E+3  -9.10061E+3
   2.07640E+3  -9.28637E+3
   2.17389E+3  -9.08940E+3
   2.72960E+3  -8.82064E+3
   2.98900E+3  -8.79923E+3
   3.39594E+3  -8.47291E+3
