 LCModel (Version 6.3-1N) Copyright: S.W. Provencher.          Ref.: Magn. Reson. Med. 30:672-679 (1993).                
 Slice_N1@15_21  28-Feb-2025 11:38:13
 27 lines in following concentration table = NCONC+1
    Conc.  %SD /Cr+PCr  Metabolite                                         
 2.23E-04   5% 2.3E-04 Mac                                                 
    3.472  27%   3.602 Cr                                                  
    4.239  21%   4.398 PCr                                                 
    6.256  13%   6.490 Ins                                                 
    9.444   7%   9.798 NAA                                                 
    4.696  16%   4.872 Tau                                                 
    0.599 109%   0.621 PCho                                                
    1.487  41%   1.543 GPC                                                 
    7.874  11%   8.169 Glu                                                 
    3.244  22%   3.365 Gln                                                 
    1.199  47%   1.244 Ala                                                 
    2.355  44%   2.443 Asc                                                 
    2.559  37%   2.655 Asp                                                 
    0.453 108%   0.470 GABA                                                
    1.121  61%   1.163 Glc                                                 
    1.357  32%   1.408 GSH                                                 
    0.000 999%   0.000 Lac                                                 
    1.630  29%   1.692 NAAG                                                
    0.526 182%   0.546 PE                                                  
    2.086  13%   2.164 GPC+PCho                                            
   11.075   7%  11.489 NAA+NAAG                                            
   11.117  10%  11.534 Glu+Gln                                             
    7.711   8%   8.000 Cr+PCr                                              
   11.075   7%  11.489 NAA+NAAG                                            
    7.711   8%   8.000 Cr+PCr                                              
   11.117  10%  11.534 Glu+Gln                                             
   6 lines in following misc. output table
  FWHM = 0.024 ppm    S/N =   4                                            
  Data shift = 0.024 ppm                                                   
  Ph: -73 deg       0.0 deg/ppm                                            
  alphaB,S = 4.4E-01,   3.5E-01                                            
   19 spline knots.   Ns = 5(1)                                            
   2 inflections.     2 extrema                                            
  480 points on ppm-axis = NY
      4.100000     4.091866     4.083733     4.075600     4.067466     4.059333     4.051199     4.043066     4.034933     4.026799
      4.018666     4.010532     4.002399     3.994265     3.986132     3.977998     3.969864     3.961731     3.953597     3.945463
      3.937330     3.929196     3.921062     3.912929     3.904795     3.896662     3.888528     3.880394     3.872261     3.864127
      3.855993     3.847860     3.839726     3.831592     3.823459     3.815325     3.807191     3.799058     3.790924     3.782790
      3.774657     3.766523     3.758389     3.750256     3.742122     3.733989     3.725855     3.717721     3.709588     3.701454
      3.693320     3.685187     3.677053     3.668919     3.660786     3.652652     3.644518     3.636385     3.628251     3.620117
      3.611984     3.603850     3.595716     3.587583     3.579449     3.571316     3.563182     3.555048     3.546915     3.538781
      3.530647     3.522514     3.514380     3.506246     3.498113     3.489979     3.481845     3.473712     3.465578     3.457444
      3.449311     3.441177     3.433043     3.424910     3.416776     3.408643     3.400509     3.392375     3.384242     3.376108
      3.367974     3.359841     3.351707     3.343573     3.335440     3.327306     3.319172     3.311039     3.302905     3.294771
      3.286638     3.278504     3.270370     3.262237     3.254103     3.245970     3.237836     3.229702     3.221569     3.213435
      3.205301     3.197168     3.189034     3.180900     3.172767     3.164633     3.156499     3.148366     3.140232     3.132098
      3.123965     3.115831     3.107697     3.099564     3.091430     3.083297     3.075163     3.067029     3.058896     3.050762
      3.042628     3.034495     3.026361     3.018227     3.010094     3.001960     2.993826     2.985693     2.977559     2.969425
      2.961292     2.953158     2.945024     2.936891     2.928757     2.920624     2.912490     2.904356     2.896223     2.888089
      2.879955     2.871822     2.863688     2.855554     2.847421     2.839287     2.831153     2.823020     2.814886     2.806752
      2.798619     2.790485     2.782351     2.774218     2.766084     2.757951     2.749817     2.741683     2.733550     2.725416
      2.717282     2.709149     2.701015     2.692881     2.684748     2.676614     2.668480     2.660347     2.652213     2.644079
      2.635946     2.627812     2.619678     2.611545     2.603411     2.595278     2.587144     2.579010     2.570877     2.562743
      2.554609     2.546476     2.538342     2.530208     2.522075     2.513941     2.505807     2.497674     2.489540     2.481406
      2.473273     2.465139     2.457006     2.448872     2.440738     2.432605     2.424471     2.416337     2.408204     2.400070
      2.391936     2.383803     2.375669     2.367535     2.359402     2.351268     2.343134     2.335001     2.326867     2.318733
      2.310600     2.302466     2.294333     2.286199     2.278065     2.269932     2.261798     2.253664     2.245531     2.237397
      2.229263     2.221130     2.212996     2.204862     2.196729     2.188595     2.180461     2.172328     2.164194     2.156060
      2.147927     2.139793     2.131660     2.123526     2.115392     2.107259     2.099125     2.090991     2.082858     2.074724
      2.066590     2.058457     2.050323     2.042189     2.034056     2.025922     2.017788     2.009655     2.001521     1.993387
      1.985254     1.977120     1.968987     1.960853     1.952719     1.944586     1.936452     1.928318     1.920185     1.912051
      1.903917     1.895784     1.887650     1.879516     1.871383     1.863249     1.855115     1.846982     1.838848     1.830714
      1.822581     1.814447     1.806314     1.798180     1.790046     1.781913     1.773779     1.765645     1.757512     1.749378
      1.741244     1.733111     1.724977     1.716843     1.708710     1.700576     1.692442     1.684309     1.676175     1.668041
      1.659908     1.651774     1.643641     1.635507     1.627373     1.619240     1.611106     1.602972     1.594839     1.586705
      1.578571     1.570438     1.562304     1.554170     1.546037     1.537903     1.529769     1.521636     1.513502     1.505368
      1.497235     1.489101     1.480968     1.472834     1.464700     1.456567     1.448433     1.440299     1.432166     1.424032
      1.415898     1.407765     1.399631     1.391497     1.383364     1.375230     1.367096     1.358963     1.350829     1.342695
      1.334562     1.326428     1.318295     1.310161     1.302027     1.293894     1.285760     1.277626     1.269493     1.261359
      1.253225     1.245092     1.236958     1.228824     1.220691     1.212557     1.204423     1.196290     1.188156     1.180022
      1.171889     1.163755     1.155622     1.147488     1.139354     1.131221     1.123087     1.114953     1.106820     1.098686
      1.090552     1.082419     1.074285     1.066151     1.058018     1.049884     1.041750     1.033617     1.025483     1.017349
      1.009216     1.001082     0.992949     0.984815     0.976681     0.968548     0.960414     0.952280     0.944147     0.936013
      0.927879     0.919746     0.911612     0.903478     0.895345     0.887211     0.879077     0.870944     0.862810     0.854676
      0.846543     0.838409     0.830276     0.822142     0.814008     0.805875     0.797741     0.789607     0.781474     0.773340
      0.765206     0.757073     0.748939     0.740805     0.732672     0.724538     0.716404     0.708271     0.700137     0.692003
      0.683870     0.675736     0.667603     0.659469     0.651335     0.643202     0.635068     0.626934     0.618801     0.610667
      0.602533     0.594400     0.586266     0.578132     0.569999     0.561865     0.553731     0.545598     0.537464     0.529330
      0.521197     0.513063     0.504930     0.496796     0.488662     0.480529     0.472395     0.464261     0.456128     0.447994
      0.439861     0.431727     0.423593     0.415460     0.407326     0.399192     0.391059     0.382925     0.374792     0.366658
      0.358524     0.350391     0.342257     0.334124     0.325990     0.317856     0.309723     0.301589     0.293455     0.285322
      0.277188     0.269055     0.260921     0.252787     0.244654     0.236520     0.228386     0.220253     0.212119     0.203986
 NY phased data points follow
  -7.65769E+01 -1.03536E+02 -1.13808E+02 -1.07308E+02 -1.21379E+02 -9.67177E+01 -9.25705E+01 -9.96865E+01 -9.37296E+01 -1.04702E+02
  -1.03061E+02 -1.01358E+02 -9.33352E+01 -1.06607E+02 -1.21876E+02 -1.14388E+02 -1.19769E+02 -1.19709E+02 -1.32234E+02 -1.66419E+02
  -1.72419E+02 -1.46776E+02 -1.27839E+02 -1.17241E+02 -8.37191E+01 -5.79566E+01 -7.29275E+01 -8.37285E+01 -6.83032E+01 -4.93939E+01
  -6.16442E+01 -7.60250E+01 -7.34992E+01 -7.01597E+01 -5.70239E+01 -5.59798E+01 -5.93384E+01 -5.91035E+01 -6.59997E+01 -9.73535E+01
  -1.10972E+02 -1.08721E+02 -1.08324E+02 -9.71474E+01 -9.42327E+01 -5.93810E+01 -4.39666E+01 -3.87988E+01 -4.44766E+01 -3.86636E+01
  -1.59294E+01 -4.21775E+01 -4.21311E+01 -4.93953E+01 -4.77902E+01 -5.57325E+01 -5.46625E+01 -5.57390E+01 -9.57093E+01 -8.86665E+01
  -8.42220E+01 -5.04311E+01 -5.10720E+01 -4.90698E+01 -1.68699E+01 -1.53647E+01 -5.64995E+00 -3.91412E+01 -6.81840E+01 -1.02309E+02
  -8.81671E+01 -5.60199E+01 -7.65114E+01 -6.75984E+01 -4.48099E+01 -2.19844E+01 -2.17858E+01 -2.90287E+01 -2.55596E+01 -2.61032E+01
  -2.23146E+01 -1.57325E+01 -3.27798E+01 -4.57322E+01 -5.48701E+01 -6.96764E+01 -5.40875E+01 -3.89020E+01 -2.43482E+01 -1.76446E+01
  -6.43817E+00 -1.38022E-01 -1.74885E+00  8.30838E+00  5.54842E+00  9.67055E+00  1.54068E+01  1.67318E+01  2.58774E+01  1.51900E+01
   5.57199E+00  1.29211E+01 -2.59053E+01 -2.99019E+01 -2.36360E+01 -4.11922E+01 -2.40608E+01 -5.02965E+01 -5.82163E+01 -1.11272E+02
  -1.95696E+02 -1.86006E+02 -1.68906E+02 -1.41541E+02 -1.06423E+02 -9.34519E+01 -8.42947E+01 -6.95344E+01 -6.54093E+01 -6.87241E+01
  -5.99470E+01 -5.07340E+01 -4.64283E+01 -4.83184E+01 -3.59657E+01 -1.28531E+01 -1.52814E+01 -5.10555E+00  2.20604E+01  5.56451E+01
   9.96798E+01  7.87252E+01 -1.23553E+00 -1.09404E+02 -1.44809E+02 -1.13382E+02 -1.06473E+02 -9.52890E+01 -1.04087E+02 -1.00057E+02
  -1.03325E+02 -1.01808E+02 -9.06399E+01 -9.18010E+01 -9.27374E+01 -1.08485E+02 -1.06621E+02 -1.08889E+02 -9.20392E+01 -7.74957E+01
  -8.31341E+01 -8.43752E+01 -6.82147E+01 -7.43896E+01 -8.24711E+01 -6.95134E+01 -8.92484E+01 -6.36640E+01 -6.48098E+01 -6.51707E+01
  -4.35796E+01 -6.06606E+01 -5.60696E+01 -6.76191E+01 -7.35941E+01 -7.30277E+01 -7.26521E+01 -6.21104E+01 -6.07470E+01 -6.34670E+01
  -4.56039E+01 -3.96168E+01 -2.93535E+01 -1.25513E+01 -3.64347E+01 -4.76084E+01 -3.69385E+01 -9.92808E+00 -2.73034E+01 -4.85958E+01
  -5.79895E+01 -7.12757E+01 -6.39542E+01 -7.35567E+01 -7.31987E+01 -8.23171E+01 -7.37478E+01 -7.92472E+01 -7.96874E+01 -6.54166E+01
  -6.97674E+01 -6.77841E+01 -6.70497E+01 -5.08717E+01 -5.20729E+01 -3.87418E+01 -4.71441E+01 -5.17550E+01 -4.75092E+01 -5.08243E+01
  -3.33209E+01 -5.37661E+01 -4.66177E+01 -2.37899E+01 -2.62044E+01 -4.79271E+01 -4.73902E+01 -5.36281E+01 -7.13271E+01 -6.03879E+01
  -6.97540E+01 -7.70162E+01 -8.24337E+01 -6.00327E+01 -4.47144E+01 -2.26057E+01  1.29454E+01  1.32633E+01  1.49209E+01 -1.98042E+00
  -2.74279E+01 -5.86365E+01 -6.16292E+01 -4.48867E+01 -5.16489E+01 -5.55224E+01 -5.46210E+01 -4.42414E+01 -3.49040E+01 -4.19622E+01
  -4.56385E+01 -4.13311E+01 -5.26611E+01 -6.79527E+01 -6.21156E+01 -6.58998E+01 -8.67225E+01 -8.18779E+01 -8.62421E+01 -8.60907E+01
  -7.87882E+01 -8.25997E+01 -6.81836E+01 -5.57112E+01 -3.78352E+01 -4.10312E+01 -4.20149E+01 -4.39024E+01 -4.98896E+01 -5.89798E+01
  -6.83680E+01 -4.44796E+01 -6.66095E+01 -8.96601E+01 -1.08036E+02 -1.35414E+02 -1.49287E+02 -8.35359E+01  7.16200E+01  1.07681E+02
   8.81848E+01  9.81204E+01  8.98077E+01  7.33408E+01  4.73780E+01  4.19093E+01  4.54333E+01  4.04774E+01  3.02250E+01  3.57493E+01
   4.03609E+01  3.64041E+01  4.57411E+01  4.67704E+01  3.61103E+01  3.50930E+01  4.27264E+01  3.05483E+01  2.82041E+01  3.78066E+01
   3.57116E+01  5.36437E+01  5.41192E+01  4.06511E+01  3.75751E+01  3.16683E+01  2.81157E+01  2.65105E+01  4.04719E+01  3.74141E+01
   3.85385E+01  3.03895E+01  1.76372E+01  2.58274E+01  1.00745E+01  8.63321E+00 -3.05590E+00  1.96906E+00  1.73764E+00 -1.03553E+01
   1.47350E+01  1.85436E+00  9.29761E+00  1.88570E+01  9.03947E+00  1.96223E+01  9.50811E+00  1.46024E+00  3.67075E+00  1.21675E+01
   1.03004E+01 -8.80737E+00 -4.37106E-01  1.02607E+01  9.43367E-01 -4.25008E+00 -1.24267E+00  5.82999E+00 -2.00180E+01 -2.76621E+01
  -2.75132E+01 -4.71267E+01 -3.77418E+01 -4.41462E+01 -4.21263E+01 -2.74255E+01 -2.18725E+01 -2.53655E+01 -3.18551E+01 -3.72983E+01
  -3.05148E+01 -2.37118E+01 -4.39636E+01 -3.44116E+01 -4.46903E+01 -5.07720E+01 -3.79572E+01 -4.01403E+01 -2.44457E+01 -2.04372E+01
  -1.80996E+00  1.53619E+01  3.94613E+00 -1.30008E+00  1.58157E+01  1.23843E+01  3.08163E-01 -2.22624E+00 -1.31111E+01 -4.14050E+00
  -7.64995E-01 -1.76566E+01 -3.31117E+01 -3.35982E+01 -4.08835E+01 -4.51559E+01 -4.60846E+01 -5.01064E+01 -5.25731E+01 -6.22154E+01
  -6.07072E+01 -4.68795E+01 -3.22159E+01 -3.85264E+01 -2.65909E+01 -2.89557E+01 -3.86416E+01 -2.54767E+01 -2.51986E+01 -1.63804E+01
  -1.89454E+01 -7.50498E+00  5.16174E+00  9.38222E+00  5.78886E+00 -8.03737E-01  1.10700E+01  1.60719E+01  2.02507E+01  1.82632E+01
   2.65074E+01  3.38175E+01  3.42159E+01  2.57578E+01  4.08689E+01  7.66279E+01  7.90136E+01  8.02075E+01  8.39735E+01  8.49588E+01
   7.70302E+01  6.03012E+01  5.06963E+01  4.77283E+01  3.09030E+01  2.03229E+01  1.54164E+01  1.55675E+01  2.48319E+01  3.07981E+00
  -1.56459E+01 -2.47018E+01 -2.24038E+01 -2.96550E+01 -3.71586E+01 -3.76879E+01 -3.82996E+01 -3.74512E+01 -5.47323E+01 -4.42191E+01
  -4.97926E+01 -4.18511E+01 -3.80426E+01 -6.01368E+01 -5.14589E+01 -4.51007E+01 -3.59756E+01 -5.27169E+01 -4.68854E+01 -2.39905E+01
  -3.30723E+01 -3.35185E+01 -3.21846E+01 -4.18995E+01 -4.13386E+01 -4.20054E+01 -4.25418E+01 -3.67979E+01 -5.26823E+01 -3.26210E+01
  -3.71147E+01 -5.30018E+01 -3.37098E+01 -3.88210E+01 -2.70310E+01 -2.44760E+01 -2.76426E+01 -4.05216E+01 -4.17260E+01 -3.75474E+01
  -4.44056E+01 -2.60242E+01 -3.78457E+01 -3.94130E+01 -3.90627E+01 -4.26281E+01 -3.63220E+01 -4.39338E+01 -3.12050E+01 -3.90561E+01
  -4.06417E+01 -3.85684E+01 -4.10095E+01 -2.46845E+01 -4.38108E+01 -3.51892E+01 -3.98630E+01 -4.61466E+01 -2.01795E+01 -4.70897E+01
  -2.83795E+01 -3.32193E+01 -4.14153E+01 -7.75404E+00 -3.68948E+01 -3.44288E+01 -3.96390E+01 -3.94703E+01 -1.66215E+01 -3.15546E+01
  -2.63519E+01 -2.45473E+01 -2.85945E+01 -2.40387E+01 -2.92440E+01 -2.77092E+01 -2.61599E+01 -2.56147E+01 -1.76393E+01 -2.33747E+01
 NY points of the fit to the data follow
  -1.00921E+02 -1.09207E+02 -1.18274E+02 -1.24089E+02 -1.20950E+02 -1.04459E+02 -8.55637E+01 -8.19681E+01 -9.05350E+01 -9.75225E+01
  -1.01743E+02 -1.04353E+02 -1.05302E+02 -1.05001E+02 -1.05888E+02 -1.06822E+02 -1.10150E+02 -1.18681E+02 -1.30021E+02 -1.49912E+02
  -1.64265E+02 -1.50050E+02 -1.20470E+02 -1.06349E+02 -8.24622E+01 -5.42503E+01 -5.26508E+01 -5.05060E+01 -4.32562E+01 -4.18234E+01
  -4.21092E+01 -4.34366E+01 -4.47447E+01 -4.66394E+01 -4.99486E+01 -5.15238E+01 -5.30804E+01 -6.02794E+01 -7.49570E+01 -9.71574E+01
  -1.18421E+02 -1.24812E+02 -1.09139E+02 -9.39685E+01 -8.05719E+01 -6.40480E+01 -4.98446E+01 -4.16610E+01 -3.79843E+01 -3.47164E+01
  -3.51525E+01 -3.81610E+01 -4.57401E+01 -5.60302E+01 -6.32736E+01 -6.89737E+01 -7.10558E+01 -7.05799E+01 -7.98002E+01 -9.00617E+01
  -7.85762E+01 -6.51902E+01 -6.58665E+01 -5.14782E+01 -2.88272E+01 -2.28756E+01 -2.47662E+01 -3.42231E+01 -5.71575E+01 -8.18544E+01
  -8.56098E+01 -7.17450E+01 -6.80514E+01 -6.40365E+01 -4.51303E+01 -3.11051E+01 -2.64460E+01 -2.23537E+01 -1.84865E+01 -1.60816E+01
  -1.92846E+01 -2.79362E+01 -4.09690E+01 -5.49636E+01 -6.63067E+01 -6.56297E+01 -5.91699E+01 -4.84146E+01 -3.62837E+01 -2.99370E+01
  -2.41314E+01 -1.91824E+01 -1.53695E+01 -1.12281E+01 -7.06110E+00 -3.54207E+00 -9.25787E-01  2.03794E+00  3.25163E+00  1.94992E+00
   4.27023E+00  7.50546E+00 -4.34047E+00 -2.04955E+01 -2.60725E+01 -2.78824E+01 -3.00542E+01 -2.40431E+01 -4.71327E+01 -1.14894E+02
  -1.85163E+02 -1.85620E+02 -1.46730E+02 -1.26277E+02 -1.10387E+02 -9.56122E+01 -8.60313E+01 -7.81942E+01 -7.14134E+01 -6.53527E+01
  -5.94358E+01 -5.33630E+01 -4.68692E+01 -3.90052E+01 -2.98178E+01 -2.10583E+01 -1.44820E+01 -6.65875E-01  2.65450E+01  5.61497E+01
   8.47947E+01  7.95935E+01 -3.11482E+00 -1.15968E+02 -1.40007E+02 -1.20919E+02 -1.20241E+02 -1.13426E+02 -1.05596E+02 -1.02589E+02
  -1.00490E+02 -9.96998E+01 -1.00269E+02 -1.00421E+02 -9.95157E+01 -9.85360E+01 -9.63362E+01 -9.28828E+01 -8.97985E+01 -8.73547E+01
  -8.54756E+01 -8.37552E+01 -8.18754E+01 -7.90813E+01 -7.53734E+01 -7.18248E+01 -6.97711E+01 -7.01629E+01 -7.06570E+01 -6.87926E+01
  -6.45703E+01 -6.08105E+01 -6.09040E+01 -6.48254E+01 -6.75965E+01 -6.62718E+01 -6.54151E+01 -6.74899E+01 -6.96862E+01 -6.63585E+01
  -5.60685E+01 -4.11634E+01 -2.96124E+01 -3.22977E+01 -4.28276E+01 -4.23286E+01 -3.00838E+01 -2.16643E+01 -2.60425E+01 -4.18468E+01
  -5.59083E+01 -6.06082E+01 -6.57564E+01 -6.95943E+01 -6.99153E+01 -7.00400E+01 -6.98805E+01 -6.91987E+01 -6.81754E+01 -6.80419E+01
  -6.75432E+01 -6.46740E+01 -6.28407E+01 -5.93907E+01 -4.78742E+01 -4.15064E+01 -4.60145E+01 -4.30173E+01 -3.50429E+01 -3.46649E+01
  -3.68830E+01 -3.81670E+01 -3.27374E+01 -2.67034E+01 -3.06385E+01 -3.67288E+01 -4.10943E+01 -4.67594E+01 -5.55691E+01 -6.31026E+01
  -6.89400E+01 -7.52091E+01 -7.35136E+01 -6.26230E+01 -4.55131E+01 -2.32264E+01 -6.54940E-01  2.71514E+00  2.42080E+00  3.22323E-01
  -1.40914E+01 -1.91093E+01 -1.79265E+01 -1.80026E+01 -1.65472E+01 -1.76060E+01 -2.12622E+01 -2.67428E+01 -3.46031E+01 -4.32068E+01
  -5.22923E+01 -6.19650E+01 -7.13119E+01 -7.93033E+01 -8.67115E+01 -9.28536E+01 -9.45132E+01 -9.44941E+01 -9.41821E+01 -8.94426E+01
  -8.53082E+01 -8.19639E+01 -7.24628E+01 -6.35725E+01 -5.72814E+01 -5.06838E+01 -5.11028E+01 -5.17593E+01 -5.43764E+01 -6.10031E+01
  -6.46748E+01 -6.61016E+01 -7.29676E+01 -8.84240E+01 -1.05505E+02 -1.35273E+02 -1.58334E+02 -8.39720E+01  5.87880E+01  1.04183E+02
   8.30545E+01  7.86768E+01  6.99764E+01  5.92325E+01  5.39368E+01  4.91643E+01  4.45610E+01  4.02720E+01  3.65245E+01  3.35823E+01
   3.18576E+01  3.10107E+01  3.02633E+01  3.04076E+01  3.04261E+01  2.98069E+01  2.96915E+01  2.93345E+01  2.87007E+01  2.76383E+01
   2.59794E+01  2.43377E+01  2.27665E+01  2.12902E+01  1.94753E+01  1.75885E+01  1.59580E+01  1.40008E+01  1.16567E+01  8.84957E+00
   5.51421E+00  2.09652E+00 -1.44913E+00 -4.83881E+00 -6.74469E+00 -7.22088E+00 -6.56363E+00 -5.01410E+00 -3.16805E+00 -1.32417E+00
   7.80266E-01  3.23543E+00  5.43606E+00  7.26743E+00  8.90721E+00  1.04083E+01  1.20201E+01  1.40716E+01  1.63638E+01  1.83152E+01
   1.98542E+01  2.12797E+01  2.25817E+01  2.41217E+01  2.52494E+01  2.56155E+01  2.60776E+01  2.70395E+01  2.71878E+01  2.65193E+01
   2.44948E+01  1.70944E+01  5.37061E+00 -4.56670E+00 -1.00536E+01 -1.63462E+01 -1.83065E+01 -2.12311E+01 -2.80780E+01 -3.39408E+01
  -3.96208E+01 -4.43331E+01 -4.68115E+01 -4.66454E+01 -4.42059E+01 -4.01805E+01 -3.62680E+01 -3.34373E+01 -3.14249E+01 -3.01852E+01
  -2.86628E+01 -2.59605E+01 -2.23727E+01 -1.87287E+01 -1.53881E+01 -1.29910E+01 -1.21316E+01 -1.15898E+01 -1.10591E+01 -1.13390E+01
  -1.28013E+01 -1.53162E+01 -1.87406E+01 -2.31701E+01 -2.73570E+01 -3.00232E+01 -3.12176E+01 -3.15104E+01 -3.05170E+01 -2.86454E+01
  -2.63189E+01 -2.34167E+01 -2.04438E+01 -1.74544E+01 -1.45887E+01 -1.21960E+01 -9.84153E+00 -7.60243E+00 -5.26161E+00 -2.72551E+00
  -5.47462E-01  1.64154E+00  4.10431E+00  6.60262E+00  9.72721E+00  1.34789E+01  1.72361E+01  2.12497E+01  2.64649E+01  3.18344E+01
   3.70491E+01  4.33922E+01  5.06641E+01  5.77885E+01  6.40338E+01  6.84159E+01  6.91415E+01  6.54590E+01  5.79555E+01  4.81426E+01
   3.88264E+01  3.11781E+01  2.50202E+01  1.98688E+01  1.55064E+01  1.04303E+01  3.59028E+00 -4.10606E+00 -1.17325E+01 -1.91355E+01
  -2.55155E+01 -2.99281E+01 -3.33642E+01 -3.59627E+01 -3.76898E+01 -3.85711E+01 -3.92729E+01 -4.01152E+01 -4.09466E+01 -4.16831E+01
  -4.21397E+01 -4.22042E+01 -4.20383E+01 -4.19286E+01 -4.19517E+01 -4.17276E+01 -4.14889E+01 -4.16580E+01 -4.18012E+01 -4.12550E+01
  -4.05966E+01 -4.06786E+01 -4.07559E+01 -4.04078E+01 -4.01415E+01 -4.01507E+01 -4.02291E+01 -3.98864E+01 -3.92239E+01 -3.87496E+01
  -3.86878E+01 -3.86926E+01 -3.87440E+01 -3.87780E+01 -3.85408E+01 -3.81930E+01 -3.77263E+01 -3.73997E+01 -3.69561E+01 -3.66957E+01
  -3.64952E+01 -3.62015E+01 -3.60837E+01 -3.62181E+01 -3.63515E+01 -3.61171E+01 -3.57604E+01 -3.53876E+01 -3.51243E+01 -3.49317E+01
  -3.47907E+01 -3.48217E+01 -3.45276E+01 -3.39993E+01 -3.37098E+01 -3.33940E+01 -3.30760E+01 -3.28448E+01 -3.25638E+01 -3.22403E+01
  -3.20178E+01 -3.19419E+01 -3.20412E+01 -3.19884E+01 -3.17215E+01 -3.14236E+01 -3.08696E+01 -3.00528E+01 -2.95475E+01 -2.93669E+01
  -2.95005E+01 -2.96015E+01 -2.95510E+01 -2.91545E+01 -2.87977E+01 -2.86023E+01 -2.81793E+01 -2.78580E+01 -2.79693E+01 -2.78576E+01
 NY background values follow
    -7.769E+01   -7.738E+01   -7.707E+01   -7.676E+01   -7.645E+01   -7.614E+01   -7.582E+01   -7.551E+01   -7.520E+01   -7.489E+01
    -7.458E+01   -7.426E+01   -7.395E+01   -7.364E+01   -7.333E+01   -7.301E+01   -7.270E+01   -7.239E+01   -7.208E+01   -7.177E+01
    -7.145E+01   -7.114E+01   -7.083E+01   -7.052E+01   -7.020E+01   -6.989E+01   -6.958E+01   -6.926E+01   -6.895E+01   -6.864E+01
    -6.833E+01   -6.801E+01   -6.770E+01   -6.739E+01   -6.708E+01   -6.676E+01   -6.645E+01   -6.614E+01   -6.583E+01   -6.552E+01
    -6.520E+01   -6.489E+01   -6.458E+01   -6.427E+01   -6.396E+01   -6.365E+01   -6.335E+01   -6.304E+01   -6.273E+01   -6.242E+01
    -6.212E+01   -6.181E+01   -6.151E+01   -6.120E+01   -6.090E+01   -6.060E+01   -6.030E+01   -6.000E+01   -5.970E+01   -5.940E+01
    -5.911E+01   -5.881E+01   -5.851E+01   -5.822E+01   -5.793E+01   -5.764E+01   -5.735E+01   -5.706E+01   -5.677E+01   -5.649E+01
    -5.620E+01   -5.592E+01   -5.564E+01   -5.536E+01   -5.508E+01   -5.480E+01   -5.452E+01   -5.425E+01   -5.397E+01   -5.370E+01
    -5.343E+01   -5.316E+01   -5.289E+01   -5.263E+01   -5.236E+01   -5.210E+01   -5.184E+01   -5.158E+01   -5.132E+01   -5.106E+01
    -5.081E+01   -5.056E+01   -5.030E+01   -5.005E+01   -4.981E+01   -4.956E+01   -4.932E+01   -4.907E+01   -4.883E+01   -4.859E+01
    -4.835E+01   -4.812E+01   -4.788E+01   -4.765E+01   -4.742E+01   -4.719E+01   -4.696E+01   -4.673E+01   -4.651E+01   -4.628E+01
    -4.606E+01   -4.584E+01   -4.562E+01   -4.541E+01   -4.519E+01   -4.498E+01   -4.476E+01   -4.455E+01   -4.434E+01   -4.414E+01
    -4.393E+01   -4.373E+01   -4.352E+01   -4.332E+01   -4.312E+01   -4.292E+01   -4.273E+01   -4.253E+01   -4.234E+01   -4.215E+01
    -4.196E+01   -4.177E+01   -4.158E+01   -4.139E+01   -4.121E+01   -4.103E+01   -4.084E+01   -4.066E+01   -4.049E+01   -4.031E+01
    -4.013E+01   -3.996E+01   -3.979E+01   -3.962E+01   -3.945E+01   -3.928E+01   -3.911E+01   -3.895E+01   -3.878E+01   -3.862E+01
    -3.846E+01   -3.830E+01   -3.815E+01   -3.799E+01   -3.784E+01   -3.768E+01   -3.753E+01   -3.738E+01   -3.723E+01   -3.708E+01
    -3.694E+01   -3.679E+01   -3.665E+01   -3.651E+01   -3.637E+01   -3.623E+01   -3.609E+01   -3.596E+01   -3.582E+01   -3.569E+01
    -3.555E+01   -3.542E+01   -3.529E+01   -3.516E+01   -3.503E+01   -3.491E+01   -3.478E+01   -3.466E+01   -3.453E+01   -3.441E+01
    -3.429E+01   -3.417E+01   -3.405E+01   -3.393E+01   -3.382E+01   -3.370E+01   -3.359E+01   -3.347E+01   -3.336E+01   -3.325E+01
    -3.314E+01   -3.303E+01   -3.292E+01   -3.281E+01   -3.271E+01   -3.260E+01   -3.250E+01   -3.239E+01   -3.229E+01   -3.219E+01
    -3.209E+01   -3.199E+01   -3.189E+01   -3.179E+01   -3.169E+01   -3.160E+01   -3.150E+01   -3.141E+01   -3.131E+01   -3.122E+01
    -3.113E+01   -3.104E+01   -3.095E+01   -3.086E+01   -3.077E+01   -3.068E+01   -3.060E+01   -3.051E+01   -3.043E+01   -3.034E+01
    -3.026E+01   -3.018E+01   -3.010E+01   -3.002E+01   -2.995E+01   -2.987E+01   -2.979E+01   -2.972E+01   -2.965E+01   -2.958E+01
    -2.951E+01   -2.944E+01   -2.937E+01   -2.931E+01   -2.924E+01   -2.918E+01   -2.912E+01   -2.906E+01   -2.900E+01   -2.894E+01
    -2.889E+01   -2.883E+01   -2.878E+01   -2.873E+01   -2.868E+01   -2.864E+01   -2.859E+01   -2.855E+01   -2.851E+01   -2.847E+01
    -2.843E+01   -2.839E+01   -2.836E+01   -2.832E+01   -2.829E+01   -2.826E+01   -2.824E+01   -2.821E+01   -2.819E+01   -2.816E+01
    -2.814E+01   -2.813E+01   -2.811E+01   -2.810E+01   -2.808E+01   -2.807E+01   -2.807E+01   -2.806E+01   -2.805E+01   -2.805E+01
    -2.805E+01   -2.805E+01   -2.806E+01   -2.806E+01   -2.807E+01   -2.808E+01   -2.809E+01   -2.810E+01   -2.812E+01   -2.813E+01
    -2.815E+01   -2.817E+01   -2.819E+01   -2.821E+01   -2.823E+01   -2.826E+01   -2.829E+01   -2.831E+01   -2.834E+01   -2.837E+01
    -2.840E+01   -2.843E+01   -2.847E+01   -2.850E+01   -2.853E+01   -2.857E+01   -2.860E+01   -2.864E+01   -2.868E+01   -2.872E+01
    -2.876E+01   -2.879E+01   -2.883E+01   -2.887E+01   -2.891E+01   -2.896E+01   -2.900E+01   -2.904E+01   -2.908E+01   -2.912E+01
    -2.916E+01   -2.921E+01   -2.925E+01   -2.929E+01   -2.933E+01   -2.937E+01   -2.941E+01   -2.946E+01   -2.950E+01   -2.954E+01
    -2.958E+01   -2.962E+01   -2.966E+01   -2.970E+01   -2.973E+01   -2.977E+01   -2.981E+01   -2.984E+01   -2.988E+01   -2.991E+01
    -2.995E+01   -2.998E+01   -3.001E+01   -3.004E+01   -3.007E+01   -3.010E+01   -3.013E+01   -3.016E+01   -3.018E+01   -3.021E+01
    -3.023E+01   -3.025E+01   -3.028E+01   -3.030E+01   -3.032E+01   -3.034E+01   -3.036E+01   -3.037E+01   -3.039E+01   -3.040E+01
    -3.042E+01   -3.043E+01   -3.044E+01   -3.046E+01   -3.047E+01   -3.047E+01   -3.048E+01   -3.049E+01   -3.049E+01   -3.050E+01
    -3.050E+01   -3.051E+01   -3.051E+01   -3.051E+01   -3.051E+01   -3.051E+01   -3.050E+01   -3.050E+01   -3.050E+01   -3.049E+01
    -3.049E+01   -3.048E+01   -3.047E+01   -3.047E+01   -3.046E+01   -3.045E+01   -3.044E+01   -3.043E+01   -3.042E+01   -3.041E+01
    -3.039E+01   -3.038E+01   -3.037E+01   -3.035E+01   -3.034E+01   -3.033E+01   -3.031E+01   -3.030E+01   -3.028E+01   -3.027E+01
    -3.025E+01   -3.024E+01   -3.022E+01   -3.020E+01   -3.019E+01   -3.017E+01   -3.015E+01   -3.014E+01   -3.012E+01   -3.010E+01
    -3.009E+01   -3.007E+01   -3.005E+01   -3.003E+01   -3.002E+01   -3.000E+01   -2.998E+01   -2.996E+01   -2.994E+01   -2.993E+01
    -2.991E+01   -2.989E+01   -2.987E+01   -2.985E+01   -2.984E+01   -2.982E+01   -2.980E+01   -2.978E+01   -2.976E+01   -2.974E+01
    -2.973E+01   -2.971E+01   -2.969E+01   -2.967E+01   -2.965E+01   -2.964E+01   -2.962E+01   -2.960E+01   -2.958E+01   -2.956E+01
    -2.955E+01   -2.953E+01   -2.951E+01   -2.949E+01   -2.947E+01   -2.945E+01   -2.944E+01   -2.942E+01   -2.940E+01   -2.938E+01
    -2.936E+01   -2.934E+01   -2.932E+01   -2.931E+01   -2.929E+01   -2.927E+01   -2.925E+01   -2.923E+01   -2.921E+01   -2.919E+01
    -2.917E+01   -2.915E+01   -2.913E+01   -2.911E+01   -2.909E+01   -2.907E+01   -2.905E+01   -2.903E+01   -2.901E+01   -2.899E+01
    -2.897E+01   -2.895E+01   -2.893E+01   -2.890E+01   -2.888E+01   -2.886E+01   -2.884E+01   -2.882E+01   -2.880E+01   -2.878E+01
    -2.876E+01   -2.874E+01   -2.871E+01   -2.869E+01   -2.867E+01   -2.865E+01   -2.863E+01   -2.861E+01   -2.859E+01   -2.856E+01
 Mac      Conc. = 2.23E-04
  -9.40890E+01 -9.37435E+01 -9.33736E+01 -9.31924E+01 -9.34507E+01 -9.42388E+01 -9.54637E+01 -9.68490E+01 -9.79645E+01 -9.84028E+01
  -9.81097E+01 -9.74316E+01 -9.72522E+01 -9.79163E+01 -9.96804E+01 -1.01597E+02 -1.01824E+02 -9.88190E+01 -9.36823E+01 -8.97753E+01
  -8.67994E+01 -8.32358E+01 -8.08841E+01 -8.01240E+01 -7.91788E+01 -7.78033E+01 -7.60763E+01 -7.42625E+01 -7.21523E+01 -7.02435E+01
  -6.89149E+01 -6.78401E+01 -6.71598E+01 -6.71905E+01 -6.77388E+01 -6.75217E+01 -6.59551E+01 -6.32566E+01 -6.07032E+01 -5.97849E+01
  -6.01280E+01 -6.01757E+01 -5.91110E+01 -5.74907E+01 -5.58103E+01 -5.47039E+01 -5.46534E+01 -5.49225E+01 -5.55955E+01 -5.66205E+01
  -5.75839E+01 -5.80136E+01 -5.83421E+01 -5.88561E+01 -5.88613E+01 -5.85744E+01 -5.77080E+01 -5.60342E+01 -5.45186E+01 -5.33281E+01
  -5.16286E+01 -5.01749E+01 -4.99860E+01 -5.04165E+01 -5.08865E+01 -5.16047E+01 -5.19237E+01 -5.21823E+01 -5.24368E+01 -5.19761E+01
  -4.99256E+01 -4.69700E+01 -4.47158E+01 -4.33416E+01 -4.24041E+01 -4.20733E+01 -4.24599E+01 -4.28713E+01 -4.34588E+01 -4.38408E+01
  -4.39822E+01 -4.42047E+01 -4.39253E+01 -4.30424E+01 -4.19623E+01 -4.11034E+01 -4.01572E+01 -3.93456E+01 -3.85829E+01 -3.80493E+01
  -3.72933E+01 -3.66041E+01 -3.62357E+01 -3.60064E+01 -3.64955E+01 -3.80241E+01 -3.98608E+01 -4.16965E+01 -4.34199E+01 -4.43837E+01
  -4.50773E+01 -4.62939E+01 -4.81110E+01 -5.06075E+01 -5.45644E+01 -6.02261E+01 -6.63860E+01 -7.12442E+01 -7.31368E+01 -7.27122E+01
