 
 $NMID
 ID=''
 FMTDAT='(2E13.5)'
 TRAMP=   1.00000E+0
 VOLUME=   1.00000E+0
 $END
   6.16250E+5   4.47124E+5
   1.06766E+6   1.74125E+6
   1.22770E+6   1.61518E+6
   1.09372E+6   1.57567E+6
   1.06832E+6   1.64455E+6
   1.05805E+6   1.61384E+6
   1.01381E+6   1.62568E+6
   1.02831E+6   1.65471E+6
   9.94750E+5   1.61469E+6
   9.25577E+5   1.64521E+6
   9.32882E+5   1.67449E+6
   9.07026E+5   1.63254E+6
   8.43665E+5   1.64528E+6
   8.35954E+5   1.67223E+6
   8.08240E+5   1.64521E+6
   7.56347E+5   1.64684E+6
   7.43761E+5   1.66971E+6
   7.16052E+5   1.65785E+6
   6.71583E+5   1.65983E+6
   6.59683E+5   1.66701E+6
   6.31052E+5   1.65677E+6
   5.92405E+5   1.66034E+6
   5.75094E+5   1.66445E+6
   5.47695E+5   1.65623E+6
   5.09415E+5   1.65622E+6
   4.95258E+5   1.65316E+6
   4.69085E+5   1.64872E+6
   4.36000E+5   1.65129E+6
   4.11590E+5   1.64449E+6
   3.87776E+5   1.63505E+6
   3.59766E+5   1.63864E+6
   3.39010E+5   1.63319E+6
   3.11765E+5   1.62401E+6
   2.87902E+5   1.62270E+6
   2.69443E+5   1.61510E+6
   2.49610E+5   1.60784E+6
   2.28884E+5   1.60950E+6
   2.06607E+5   1.60392E+6
   1.81658E+5   1.59241E+6
   1.61641E+5   1.58868E+6
   1.41624E+5   1.58092E+6
   1.17894E+5   1.57062E+6
   9.94846E+4   1.56266E+6
   8.22050E+4   1.55529E+6
   5.92778E+4   1.54571E+6
   3.79535E+4   1.54038E+6
   1.79265E+4   1.53263E+6
  -5.97152E+3   1.52217E+6
  -2.72665E+4   1.51037E+6
  -4.53662E+4   1.50119E+6
  -6.47768E+4   1.49263E+6
  -8.54384E+4   1.48361E+6
  -1.04169E+5   1.47421E+6
  -1.23432E+5   1.46530E+6
  -1.43161E+5   1.45455E+6
  -1.62833E+5   1.44333E+6
  -1.82617E+5   1.43158E+6
  -2.00532E+5   1.41912E+6
  -2.16971E+5   1.40652E+6
  -2.33390E+5   1.39612E+6
  -2.51621E+5   1.38513E+6
  -2.69646E+5   1.37356E+6
  -2.87067E+5   1.36194E+6
  -3.04863E+5   1.34883E+6
  -3.22317E+5   1.33413E+6
  -3.37432E+5   1.31984E+6
  -3.52310E+5   1.30551E+6
  -3.67450E+5   1.29091E+6
  -3.83307E+5   1.27947E+6
  -4.00206E+5   1.26649E+6
  -4.16110E+5   1.25092E+6
  -4.30223E+5   1.23518E+6
  -4.43980E+5   1.22283E+6
  -4.59044E+5   1.20933E+6
  -4.74349E+5   1.19308E+6
  -4.87670E+5   1.17699E+6
  -5.00318E+5   1.16289E+6
  -5.14326E+5   1.14752E+6
  -5.28451E+5   1.13110E+6
  -5.41225E+5   1.11483E+6
  -5.54228E+5   1.09846E+6
  -5.66589E+5   1.08179E+6
  -5.78581E+5   1.06555E+6
  -5.91071E+5   1.04899E+6
  -6.03303E+5   1.03177E+6
  -6.14725E+5   1.01453E+6
  -6.25108E+5   9.98117E+5
  -6.35851E+5   9.81768E+5
  -6.46369E+5   9.64858E+5
  -6.55152E+5   9.48062E+5
  -6.63050E+5   9.31952E+5
  -6.71908E+5   9.16332E+5
  -6.81398E+5   8.99937E+5
  -6.89117E+5   8.82087E+5
  -6.95200E+5   8.64621E+5
  -7.01359E+5   8.48952E+5
  -7.08610E+5   8.33877E+5
  -7.15738E+5   8.17160E+5
  -7.21908E+5   8.00317E+5
  -7.27205E+5   7.84678E+5
  -7.33674E+5   7.69406E+5
  -7.40387E+5   7.52497E+5
  -7.45576E+5   7.34716E+5
  -7.49004E+5   7.18192E+5
  -7.52324E+5   7.02658E+5
  -7.56250E+5   6.88240E+5
  -7.60800E+5   6.72879E+5
  -7.64823E+5   6.56563E+5
  -7.67069E+5   6.39780E+5
  -7.67923E+5   6.24919E+5
  -7.70115E+5   6.11085E+5
  -7.74070E+5   5.96237E+5
  -7.77415E+5   5.79409E+5
  -7.79598E+5   5.63242E+5
  -7.81416E+5   5.48259E+5
  -7.83424E+5   5.32423E+5
  -7.85802E+5   5.15742E+5
  -7.86095E+5   4.99101E+5
  -7.85423E+5   4.83953E+5
  -7.85444E+5   4.70368E+5
  -7.86746E+5   4.56134E+5
  -7.86972E+5   4.41512E+5
  -7.87168E+5   4.26580E+5
  -7.87633E+5   4.12230E+5
  -7.87426E+5   3.96826E+5
  -7.86182E+5   3.81328E+5
  -7.84642E+5   3.66765E+5
  -7.83903E+5   3.52242E+5
  -7.83316E+5   3.37649E+5
  -7.82665E+5   3.22853E+5
  -7.82298E+5   3.07078E+5
  -7.80424E+5   2.90581E+5
  -7.78162E+5   2.75699E+5
  -7.76103E+5   2.61633E+5
  -7.74286E+5   2.47007E+5
  -7.71874E+5   2.31962E+5
  -7.69116E+5   2.17807E+5
  -7.66491E+5   2.04554E+5
  -7.64359E+5   1.90850E+5
  -7.61335E+5   1.76042E+5
  -7.57623E+5   1.61692E+5
  -7.53171E+5   1.48854E+5
  -7.49158E+5   1.36992E+5
  -7.46476E+5   1.23690E+5
  -7.43531E+5   1.10112E+5
  -7.39057E+5   9.69909E+4
  -7.33814E+5   8.40237E+4
  -7.29377E+5   7.15986E+4
  -7.24422E+5   5.96683E+4
  -7.19474E+5   4.77841E+4
  -7.14096E+5   3.64384E+4
  -7.08410E+5   2.56375E+4
  -7.03976E+5   1.53438E+4
  -6.99070E+5   4.69686E+3
  -6.93817E+5  -6.44348E+3
  -6.87253E+5  -1.68363E+4
  -6.82230E+5  -2.59446E+4
  -6.76619E+5  -3.58646E+4
  -6.70554E+5  -4.54996E+4
  -6.64479E+5  -5.44133E+4
  -6.58456E+5  -6.37096E+4
  -6.52296E+5  -7.25386E+4
  -6.45693E+5  -8.15845E+4
  -6.38730E+5  -9.03482E+4
  -6.32083E+5  -9.82081E+4
  -6.25559E+5  -1.05375E+5
  -6.19854E+5  -1.12960E+5
  -6.13703E+5  -1.21282E+5
  -6.06924E+5  -1.29046E+5
  -5.99768E+5  -1.35967E+5
  -5.93098E+5  -1.42266E+5
  -5.86565E+5  -1.49387E+5
  -5.79949E+5  -1.56132E+5
  -5.72806E+5  -1.62574E+5
  -5.65819E+5  -1.68897E+5
  -5.59211E+5  -1.75020E+5
  -5.52464E+5  -1.81766E+5
  -5.44928E+5  -1.88567E+5
  -5.36893E+5  -1.94242E+5
  -5.29584E+5  -1.99496E+5
  -5.23222E+5  -2.05052E+5
  -5.16304E+5  -2.11434E+5
  -5.08582E+5  -2.17082E+5
  -5.01013E+5  -2.22410E+5
  -4.93295E+5  -2.27259E+5
  -4.85951E+5  -2.31955E+5
  -4.78839E+5  -2.36633E+5
  -4.71141E+5  -2.40867E+5
  -4.63948E+5  -2.44843E+5
  -4.57533E+5  -2.49059E+5
  -4.50703E+5  -2.54113E+5
  -4.42499E+5  -2.59334E+5
  -4.34492E+5  -2.63857E+5
  -4.26740E+5  -2.67427E+5
  -4.19007E+5  -2.71592E+5
  -4.11638E+5  -2.75855E+5
  -4.03860E+5  -2.79978E+5
  -3.96145E+5  -2.83438E+5
  -3.88419E+5  -2.87427E+5
  -3.80654E+5  -2.91625E+5
  -3.72308E+5  -2.95518E+5
  -3.64173E+5  -2.98585E+5
  -3.56293E+5  -3.01038E+5
  -3.49043E+5  -3.03930E+5
  -3.41548E+5  -3.07450E+5
  -3.33548E+5  -3.10379E+5
  -3.25465E+5  -3.13339E+5
  -3.17774E+5  -3.15686E+5
  -3.10125E+5  -3.18153E+5
  -3.02669E+5  -3.20631E+5
  -2.94309E+5  -3.22860E+5
  -2.86453E+5  -3.24716E+5
  -2.79557E+5  -3.26560E+5
  -2.72221E+5  -3.29110E+5
  -2.64109E+5  -3.31567E+5
  -2.55851E+5  -3.32909E+5
  -2.48503E+5  -3.33515E+5
  -2.41507E+5  -3.34497E+5
  -2.34439E+5  -3.35678E+5
  -2.27266E+5  -3.36949E+5
  -2.20168E+5  -3.37693E+5
  -2.13235E+5  -3.37964E+5
  -2.06630E+5  -3.38703E+5
  -1.99345E+5  -3.39782E+5
  -1.92076E+5  -3.40152E+5
  -1.85239E+5  -3.39647E+5
  -1.79064E+5  -3.39492E+5
  -1.72924E+5  -3.39572E+5
  -1.66285E+5  -3.40005E+5
  -1.59489E+5  -3.40024E+5
  -1.52798E+5  -3.39293E+5
  -1.47173E+5  -3.38532E+5
  -1.41244E+5  -3.38126E+5
  -1.35492E+5  -3.37407E+5
  -1.29486E+5  -3.36483E+5
  -1.23850E+5  -3.35391E+5
  -1.18650E+5  -3.34864E+5
  -1.12834E+5  -3.34093E+5
  -1.07238E+5  -3.32640E+5
  -1.01944E+5  -3.31205E+5
  -9.68332E+4  -3.29548E+5
  -9.15514E+4  -3.28580E+5
  -8.66922E+4  -3.27908E+5
  -8.12729E+4  -3.26263E+5
  -7.64635E+4  -3.24419E+5
  -7.15265E+4  -3.22710E+5
  -6.66204E+4  -3.21513E+5
  -6.16801E+4  -3.19924E+5
  -5.66902E+4  -3.17919E+5
  -5.26648E+4  -3.15840E+5
  -4.85477E+4  -3.14645E+5
  -4.40087E+4  -3.12912E+5
  -3.88347E+4  -3.11057E+5
  -3.43612E+4  -3.08722E+5
  -3.06188E+4  -3.06366E+5
  -2.61668E+4  -3.04476E+5
  -2.21443E+4  -3.02671E+5
  -1.75089E+4  -3.00756E+5
  -1.30546E+4  -2.98755E+5
  -8.71115E+3  -2.96434E+5
  -4.06238E+3  -2.94537E+5
   1.99676E+2  -2.91880E+5
   4.47385E+3  -2.89575E+5
   8.32615E+3  -2.86582E+5
   1.17764E+4  -2.84622E+5
   1.55863E+4  -2.82784E+5
   2.00288E+4  -2.80488E+5
   2.39625E+4  -2.77361E+5
   2.75631E+4  -2.74633E+5
   3.10452E+4  -2.72345E+5
   3.45095E+4  -2.69755E+5
   3.82649E+4  -2.67207E+5
   4.17679E+4  -2.64532E+5
   4.49052E+4  -2.61970E+5
   4.86694E+4  -2.59715E+5
   5.21574E+4  -2.57038E+5
   5.59168E+4  -2.53622E+5
   5.88682E+4  -2.50883E+5
   6.17291E+4  -2.47859E+5
   6.52077E+4  -2.45328E+5
   6.80287E+4  -2.42213E+5
   7.12326E+4  -2.39321E+5
   7.38812E+4  -2.36420E+5
   7.69152E+4  -2.33500E+5
   7.94922E+4  -2.30718E+5
   8.26329E+4  -2.27144E+5
   8.46640E+4  -2.23995E+5
   8.67981E+4  -2.21278E+5
   8.88801E+4  -2.18767E+5
   9.17645E+4  -2.15827E+5
   9.44655E+4  -2.12650E+5
   9.64548E+4  -2.09332E+5
   9.83754E+4  -2.06367E+5
   1.00466E+5  -2.03387E+5
   1.02663E+5  -2.00223E+5
   1.04366E+5  -1.97259E+5
   1.06278E+5  -1.94443E+5
   1.08018E+5  -1.91732E+5
   1.10148E+5  -1.88359E+5
   1.12272E+5  -1.85207E+5
   1.13451E+5  -1.81724E+5
   1.14828E+5  -1.78856E+5
   1.16173E+5  -1.76396E+5
   1.17808E+5  -1.73229E+5
   1.19685E+5  -1.70211E+5
   1.20864E+5  -1.66662E+5
   1.21873E+5  -1.63743E+5
   1.23103E+5  -1.61122E+5
   1.24572E+5  -1.57986E+5
   1.25781E+5  -1.54584E+5
   1.26467E+5  -1.51820E+5
   1.27677E+5  -1.48934E+5
   1.28680E+5  -1.46394E+5
   1.30209E+5  -1.43025E+5
   1.30872E+5  -1.39446E+5
   1.31484E+5  -1.37010E+5
   1.32007E+5  -1.34102E+5
   1.33149E+5  -1.31283E+5
   1.33516E+5  -1.28063E+5
   1.34296E+5  -1.25006E+5
   1.34602E+5  -1.22399E+5
   1.35275E+5  -1.19815E+5
   1.35993E+5  -1.16548E+5
   1.36168E+5  -1.13454E+5
   1.36569E+5  -1.10980E+5
   1.37052E+5  -1.08300E+5
   1.37531E+5  -1.05511E+5
   1.37912E+5  -1.02457E+5
   1.38241E+5  -9.93962E+4
   1.38080E+5  -9.63450E+4
   1.38035E+5  -9.36678E+4
   1.37980E+5  -9.11000E+4
   1.38155E+5  -8.86629E+4
   1.38009E+5  -8.59387E+4
   1.38162E+5  -8.32375E+4
   1.38416E+5  -8.05919E+4
   1.38480E+5  -7.75242E+4
   1.38230E+5  -7.47180E+4
   1.37697E+5  -7.20317E+4
   1.37288E+5  -6.95723E+4
   1.37332E+5  -6.71327E+4
   1.37136E+5  -6.42346E+4
   1.36851E+5  -6.15090E+4
   1.36186E+5  -5.90996E+4
   1.36042E+5  -5.67479E+4
   1.35765E+5  -5.38298E+4
   1.35089E+5  -5.16663E+4
   1.34638E+5  -4.93107E+4
   1.33923E+5  -4.71596E+4
   1.33977E+5  -4.47669E+4
   1.33378E+5  -4.24058E+4
   1.32905E+5  -3.99169E+4
   1.31639E+5  -3.73849E+4
   1.30925E+5  -3.55797E+4
   1.30544E+5  -3.30224E+4
   1.29873E+5  -3.07647E+4
   1.28950E+5  -2.86971E+4
   1.28083E+5  -2.67559E+4
   1.27620E+5  -2.48784E+4
   1.27204E+5  -2.24244E+4
   1.25900E+5  -2.01008E+4
   1.24817E+5  -1.80952E+4
   1.23755E+5  -1.63915E+4
   1.22869E+5  -1.46817E+4
   1.22585E+5  -1.27649E+4
   1.21351E+5  -1.08594E+4
   1.20534E+5  -8.80850E+3
