 
 $NMID
 ID=''
 FMTDAT='(2E13.5)'
 TRAMP=   1.00000E+0
 VOLUME=   1.00000E+0
 $END
   7.14536E+5   3.40243E+5
   1.40430E+6   1.50309E+6
   1.48408E+6   1.33218E+6
   1.34269E+6   1.34588E+6
   1.40941E+6   1.40091E+6
   1.44414E+6   1.29607E+6
   1.39386E+6   1.28512E+6
   1.42283E+6   1.32435E+6
   1.41389E+6   1.28321E+6
   1.35592E+6   1.29955E+6
   1.36096E+6   1.32275E+6
   1.33953E+6   1.29262E+6
   1.29595E+6   1.30960E+6
   1.28997E+6   1.33189E+6
   1.25333E+6   1.31704E+6
   1.21228E+6   1.32978E+6
   1.21399E+6   1.34061E+6
   1.19350E+6   1.32345E+6
   1.16710E+6   1.32474E+6
   1.17680E+6   1.31642E+6
   1.15942E+6   1.29910E+6
   1.13395E+6   1.30341E+6
   1.12910E+6   1.30073E+6
   1.10956E+6   1.28828E+6
   1.08188E+6   1.29316E+6
   1.07110E+6   1.28747E+6
   1.04419E+6   1.28445E+6
   1.01207E+6   1.29627E+6
   9.87889E+5   1.29626E+6
   9.64370E+5   1.28670E+6
   9.45036E+5   1.28897E+6
   9.32030E+5   1.28209E+6
   9.10782E+5   1.27211E+6
   8.95607E+5   1.26771E+6
   8.86644E+5   1.25501E+6
   8.77461E+5   1.24072E+6
   8.68930E+5   1.23601E+6
   8.57279E+5   1.22781E+6
   8.37309E+5   1.21755E+6
   8.21020E+5   1.21387E+6
   8.02849E+5   1.20820E+6
   7.80548E+5   1.20108E+6
   7.61817E+5   1.19475E+6
   7.43880E+5   1.18958E+6
   7.21607E+5   1.18481E+6
   7.01870E+5   1.18087E+6
   6.84680E+5   1.17477E+6
   6.65694E+5   1.16848E+6
   6.48995E+5   1.15809E+6
   6.35728E+5   1.14739E+6
   6.22436E+5   1.13887E+6
   6.08628E+5   1.13101E+6
   5.94925E+5   1.12110E+6
   5.81076E+5   1.11239E+6
   5.66198E+5   1.10414E+6
   5.49961E+5   1.09595E+6
   5.31822E+5   1.08779E+6
   5.14722E+5   1.07849E+6
   4.98975E+5   1.06831E+6
   4.83807E+5   1.06028E+6
   4.68408E+5   1.05183E+6
   4.53333E+5   1.04295E+6
   4.38871E+5   1.03355E+6
   4.23914E+5   1.02428E+6
   4.09908E+5   1.01300E+6
   3.96962E+5   1.00078E+6
   3.84636E+5   9.89317E+5
   3.72354E+5   9.78481E+5
   3.59669E+5   9.68682E+5
   3.46265E+5   9.59120E+5
   3.31858E+5   9.48995E+5
   3.18174E+5   9.37338E+5
   3.06035E+5   9.26685E+5
   2.92812E+5   9.16944E+5
   2.79462E+5   9.06777E+5
   2.66664E+5   8.95091E+5
   2.55100E+5   8.84106E+5
   2.43836E+5   8.73284E+5
   2.32003E+5   8.62274E+5
   2.20826E+5   8.50995E+5
   2.09593E+5   8.39647E+5
   1.99140E+5   8.27784E+5
   1.88409E+5   8.16999E+5
   1.77287E+5   8.06626E+5
   1.65069E+5   7.96033E+5
   1.53859E+5   7.85110E+5
   1.43010E+5   7.74524E+5
   1.32295E+5   7.64421E+5
   1.21650E+5   7.54121E+5
   1.11662E+5   7.43347E+5
   1.03064E+5   7.32486E+5
   9.50749E+4   7.22157E+5
   8.67331E+4   7.11837E+5
   7.90501E+4   7.01511E+5
   7.21456E+4   6.90179E+5
   6.61816E+4   6.79180E+5
   6.01603E+4   6.69365E+5
   5.38798E+4   6.59678E+5
   4.75968E+4   6.49958E+5
   4.19687E+4   6.39368E+5
   3.60146E+4   6.29744E+5
   2.96898E+4   6.20712E+5
   2.34521E+4   6.10576E+5
   1.78406E+4   5.99942E+5
   1.29052E+4   5.90194E+5
   8.64425E+3   5.81273E+5
   4.23775E+3   5.72305E+5
  -5.62573E+2   5.63268E+5
  -4.98576E+3   5.53261E+5
  -8.00326E+3   5.43400E+5
  -1.05443E+4   5.34453E+5
  -1.40938E+4   5.25893E+5
  -1.80620E+4   5.16929E+5
  -2.16166E+4   5.08119E+5
  -2.45275E+4   4.98982E+5
  -2.80044E+4   4.90408E+5
  -3.11022E+4   4.81917E+5
  -3.41617E+4   4.72430E+5
  -3.63136E+4   4.63196E+5
  -3.76253E+4   4.54652E+5
  -3.95700E+4   4.46809E+5
  -4.16143E+4   4.38765E+5
  -4.35678E+4   4.30411E+5
  -4.54231E+4   4.22456E+5
  -4.75024E+4   4.14442E+5
  -4.91840E+4   4.06039E+5
  -5.05636E+4   3.97920E+5
  -5.20924E+4   3.89830E+5
  -5.39444E+4   3.82391E+5
  -5.59088E+4   3.74972E+5
  -5.76965E+4   3.67989E+5
  -6.01166E+4   3.59662E+5
  -6.18471E+4   3.51901E+5
  -6.32310E+4   3.44290E+5
  -6.48520E+4   3.37217E+5
  -6.63141E+4   3.30084E+5
  -6.73329E+4   3.22870E+5
  -6.82674E+4   3.16219E+5
  -6.92969E+4   3.09860E+5
  -7.05762E+4   3.03224E+5
  -7.17613E+4   2.96196E+5
  -7.22731E+4   2.89712E+5
  -7.29683E+4   2.83278E+5
  -7.35817E+4   2.77618E+5
  -7.46347E+4   2.71613E+5
  -7.54499E+4   2.65750E+5
  -7.62932E+4   2.59852E+5
  -7.70456E+4   2.53908E+5
  -7.75640E+4   2.48094E+5
  -7.78681E+4   2.42805E+5
  -7.82567E+4   2.37593E+5
  -7.85659E+4   2.32434E+5
  -7.89499E+4   2.27507E+5
  -7.92064E+4   2.22935E+5
  -7.92309E+4   2.18045E+5
  -7.94334E+4   2.13422E+5
  -7.89156E+4   2.08690E+5
  -7.89087E+4   2.04849E+5
  -7.87393E+4   2.00554E+5
  -7.87975E+4   1.96168E+5
  -7.85615E+4   1.92194E+5
  -7.80190E+4   1.88126E+5
  -7.79334E+4   1.84269E+5
  -7.76934E+4   1.80329E+5
  -7.71248E+4   1.76806E+5
  -7.66932E+4   1.73141E+5
  -7.61855E+4   1.70302E+5
  -7.59566E+4   1.66972E+5
  -7.55823E+4   1.63545E+5
  -7.53036E+4   1.60638E+5
  -7.44860E+4   1.57424E+5
  -7.40001E+4   1.54674E+5
  -7.35084E+4   1.52061E+5
  -7.26927E+4   1.49009E+5
  -7.23755E+4   1.46288E+5
  -7.17125E+4   1.43601E+5
  -7.14517E+4   1.41028E+5
  -7.09212E+4   1.38453E+5
  -7.03320E+4   1.36060E+5
  -6.95350E+4   1.33337E+5
  -6.91015E+4   1.31504E+5
  -6.87240E+4   1.29404E+5
  -6.81106E+4   1.26725E+5
  -6.75092E+4   1.24288E+5
  -6.69494E+4   1.22305E+5
  -6.61449E+4   1.20067E+5
  -6.54172E+4   1.18237E+5
  -6.47431E+4   1.15846E+5
  -6.43624E+4   1.14118E+5
  -6.32658E+4   1.12180E+5
  -6.28988E+4   1.10392E+5
  -6.27683E+4   1.08491E+5
  -6.23898E+4   1.06387E+5
  -6.14825E+4   1.04264E+5
  -6.14350E+4   1.02497E+5
  -6.06886E+4   1.00670E+5
  -6.02018E+4   9.89881E+4
  -5.97594E+4   9.70599E+4
  -5.93210E+4   9.54592E+4
  -5.88410E+4   9.37143E+4
  -5.88726E+4   9.19696E+4
  -5.82984E+4   9.02732E+4
  -5.76359E+4   8.88050E+4
  -5.72891E+4   8.68147E+4
  -5.70902E+4   8.53091E+4
  -5.66346E+4   8.35718E+4
  -5.64510E+4   8.20030E+4
  -5.61602E+4   8.04463E+4
  -5.57109E+4   7.88400E+4
  -5.55171E+4   7.74048E+4
  -5.54278E+4   7.58741E+4
  -5.51491E+4   7.42528E+4
  -5.46770E+4   7.29377E+4
  -5.44659E+4   7.14289E+4
  -5.44557E+4   7.00645E+4
  -5.41726E+4   6.85195E+4
  -5.39624E+4   6.69845E+4
  -5.37789E+4   6.55769E+4
  -5.36637E+4   6.44540E+4
  -5.29690E+4   6.29848E+4
  -5.30403E+4   6.18156E+4
  -5.29941E+4   6.03573E+4
  -5.27320E+4   5.93372E+4
  -5.25628E+4   5.79640E+4
  -5.23871E+4   5.67672E+4
  -5.22280E+4   5.52854E+4
  -5.17919E+4   5.41589E+4
  -5.19013E+4   5.34896E+4
  -5.16999E+4   5.22984E+4
  -5.18048E+4   5.09946E+4
  -5.15690E+4   4.98317E+4
  -5.12041E+4   4.86493E+4
  -5.09885E+4   4.79436E+4
  -5.08116E+4   4.67344E+4
  -5.04929E+4   4.61384E+4
  -5.06062E+4   4.50813E+4
  -5.03543E+4   4.39817E+4
  -5.01767E+4   4.31042E+4
  -5.00328E+4   4.22426E+4
  -4.97997E+4   4.13583E+4
  -4.96292E+4   4.07645E+4
  -4.90262E+4   4.01414E+4
  -4.88359E+4   3.91607E+4
  -4.90166E+4   3.80804E+4
  -4.86542E+4   3.75468E+4
  -4.84696E+4   3.67289E+4
  -4.83552E+4   3.57086E+4
  -4.80150E+4   3.52120E+4
  -4.77392E+4   3.44833E+4
  -4.74333E+4   3.37892E+4
  -4.71969E+4   3.32754E+4
  -4.71499E+4   3.24265E+4
  -4.67200E+4   3.17213E+4
  -4.65605E+4   3.08350E+4
  -4.59798E+4   3.00753E+4
  -4.57133E+4   2.98196E+4
  -4.56216E+4   2.90360E+4
  -4.52485E+4   2.83602E+4
  -4.48967E+4   2.75908E+4
  -4.47505E+4   2.69005E+4
  -4.44543E+4   2.60582E+4
  -4.40620E+4   2.52495E+4
  -4.35951E+4   2.47396E+4
  -4.33903E+4   2.38973E+4
  -4.31114E+4   2.35120E+4
  -4.27565E+4   2.28075E+4
  -4.26061E+4   2.21951E+4
  -4.19667E+4   2.13634E+4
  -4.15444E+4   2.10128E+4
  -4.12062E+4   2.01657E+4
  -4.11830E+4   1.94970E+4
  -4.07960E+4   1.87348E+4
  -4.02633E+4   1.84344E+4
  -4.00284E+4   1.75936E+4
  -3.98274E+4   1.69859E+4
  -3.94542E+4   1.64658E+4
  -3.90035E+4   1.56659E+4
  -3.84656E+4   1.50242E+4
  -3.82502E+4   1.45020E+4
  -3.78983E+4   1.38238E+4
  -3.75027E+4   1.33029E+4
  -3.74886E+4   1.25704E+4
  -3.66896E+4   1.17724E+4
  -3.65879E+4   1.15212E+4
  -3.60642E+4   1.06564E+4
  -3.59403E+4   9.75699E+3
  -3.51971E+4   9.49590E+3
  -3.49931E+4   9.29563E+3
  -3.47047E+4   8.82309E+3
  -3.46377E+4   8.09305E+3
  -3.41319E+4   7.48756E+3
  -3.35447E+4   6.93730E+3
  -3.35363E+4   6.63868E+3
  -3.30918E+4   5.87644E+3
  -3.27462E+4   5.38334E+3
  -3.24276E+4   5.18063E+3
  -3.20780E+4   4.53321E+3
  -3.16003E+4   4.20660E+3
  -3.12185E+4   3.82337E+3
  -3.11365E+4   2.90684E+3
  -3.04963E+4   2.66906E+3
  -3.03791E+4   2.29912E+3
  -2.97228E+4   1.74712E+3
  -2.95699E+4   1.52763E+3
  -2.93354E+4   9.10659E+2
  -2.87733E+4   8.20385E+2
  -2.83962E+4   2.05303E+2
  -2.84727E+4  -1.96607E+2
  -2.80492E+4  -3.71518E+2
  -2.75598E+4  -5.79571E+2
  -2.73750E+4  -1.08027E+3
  -2.71492E+4  -1.61308E+3
  -2.69243E+4  -2.05597E+3
  -2.65047E+4  -2.44251E+3
  -2.59930E+4  -2.67176E+3
  -2.58017E+4  -2.95683E+3
  -2.55968E+4  -3.21176E+3
  -2.50439E+4  -3.46563E+3
  -2.46778E+4  -3.95491E+3
  -2.43069E+4  -4.01760E+3
  -2.44045E+4  -4.40353E+3
  -2.40040E+4  -4.78156E+3
  -2.36812E+4  -5.12881E+3
  -2.32046E+4  -5.43714E+3
  -2.31010E+4  -5.40664E+3
  -2.27179E+4  -5.73721E+3
  -2.23093E+4  -6.21096E+3
  -2.21171E+4  -6.43312E+3
  -2.17060E+4  -6.45523E+3
  -2.13068E+4  -6.69005E+3
  -2.11850E+4  -6.97792E+3
  -2.09785E+4  -7.20732E+3
  -2.07329E+4  -7.46523E+3
  -2.03893E+4  -7.72481E+3
  -2.00747E+4  -7.78831E+3
  -1.97395E+4  -8.04683E+3
  -1.93849E+4  -8.37166E+3
  -1.91058E+4  -8.74984E+3
  -1.88530E+4  -8.58213E+3
  -1.84167E+4  -8.88930E+3
  -1.83352E+4  -8.94033E+3
  -1.80457E+4  -9.31496E+3
  -1.74994E+4  -9.23138E+3
  -1.71947E+4  -9.39287E+3
  -1.69645E+4  -9.65931E+3
  -1.66863E+4  -9.87741E+3
  -1.63075E+4  -9.72322E+3
  -1.61591E+4  -9.93883E+3
  -1.56627E+4  -1.00372E+4
  -1.57982E+4  -1.01657E+4
  -1.50616E+4  -1.04872E+4
  -1.49374E+4  -1.04373E+4
  -1.44615E+4  -1.04875E+4
  -1.41840E+4  -1.05980E+4
  -1.39348E+4  -1.07543E+4
  -1.35230E+4  -1.09663E+4
  -1.32929E+4  -1.08518E+4
  -1.30342E+4  -1.10234E+4
  -1.28864E+4  -1.10794E+4
  -1.24822E+4  -1.09788E+4
  -1.21669E+4  -1.11665E+4
  -1.20090E+4  -1.10233E+4
  -1.17749E+4  -1.11701E+4
  -1.16814E+4  -1.11632E+4
  -1.13022E+4  -1.12387E+4
  -1.12856E+4  -1.13685E+4
  -1.09364E+4  -1.15063E+4
