 
 $NMID
 ID=''
 FMTDAT='(2E13.5)'
 TRAMP=   1.00000E+0
 VOLUME=   1.00000E+0
 $END
  -4.97119E+5  -1.72670E+4
  -1.17303E+6  -4.59215E+5
  -1.10757E+6  -3.09186E+5
  -9.56201E+5  -4.43188E+5
  -1.02882E+6  -5.76576E+5
  -1.06490E+6  -5.28748E+5
  -9.95540E+5  -5.01919E+5
  -9.46373E+5  -5.27696E+5
  -8.87479E+5  -5.58942E+5
  -8.68476E+5  -6.35873E+5
  -9.11778E+5  -6.54757E+5
  -8.88581E+5  -6.02476E+5
  -8.10863E+5  -6.06183E+5
  -7.72869E+5  -6.51395E+5
  -7.57651E+5  -6.81172E+5
  -7.58314E+5  -6.94581E+5
  -7.57161E+5  -6.80526E+5
  -7.03054E+5  -6.68369E+5
  -6.46421E+5  -7.02122E+5
  -6.36004E+5  -7.35492E+5
  -6.26177E+5  -7.41078E+5
  -6.05449E+5  -7.39029E+5
  -5.77386E+5  -7.32626E+5
  -5.34351E+5  -7.38848E+5
  -5.03855E+5  -7.60546E+5
  -5.00303E+5  -7.63774E+5
  -4.85125E+5  -7.54535E+5
  -4.58122E+5  -7.49551E+5
  -4.30914E+5  -7.45193E+5
  -4.07390E+5  -7.47157E+5
  -3.90001E+5  -7.57113E+5
  -3.74892E+5  -7.51163E+5
  -3.50420E+5  -7.40439E+5
  -3.25986E+5  -7.37560E+5
  -3.03671E+5  -7.35355E+5
  -2.82738E+5  -7.33370E+5
  -2.66761E+5  -7.31842E+5
  -2.49164E+5  -7.23094E+5
  -2.26673E+5  -7.11886E+5
  -2.07111E+5  -7.05784E+5
  -1.90819E+5  -6.99489E+5
  -1.75558E+5  -6.91094E+5
  -1.62735E+5  -6.79726E+5
  -1.47601E+5  -6.66663E+5
  -1.29731E+5  -6.56232E+5
  -1.14500E+5  -6.49648E+5
  -1.00271E+5  -6.40358E+5
  -8.55135E+4  -6.27632E+5
  -7.07048E+4  -6.13422E+5
  -5.44671E+4  -6.01263E+5
  -3.80765E+4  -5.91980E+5
  -2.44614E+4  -5.81631E+5
  -1.30485E+4  -5.69084E+5
  -2.36364E+2  -5.56355E+5
   1.42083E+4  -5.42980E+5
   2.81745E+4  -5.30687E+5
   3.89083E+4  -5.19539E+5
   4.77346E+4  -5.06841E+5
   5.71800E+4  -4.92134E+5
   6.82545E+4  -4.78895E+5
   7.96542E+4  -4.67250E+5
   8.92961E+4  -4.55845E+5
   9.77076E+4  -4.43382E+5
   1.06104E+5  -4.29299E+5
   1.15758E+5  -4.15084E+5
   1.24870E+5  -4.02237E+5
   1.32749E+5  -3.90967E+5
   1.38743E+5  -3.78761E+5
   1.45288E+5  -3.65944E+5
   1.53274E+5  -3.53105E+5
   1.60875E+5  -3.40957E+5
   1.65632E+5  -3.29762E+5
   1.69534E+5  -3.19295E+5
   1.74182E+5  -3.07269E+5
   1.79784E+5  -2.94325E+5
   1.84997E+5  -2.82886E+5
   1.88369E+5  -2.72736E+5
   1.91414E+5  -2.62182E+5
   1.94328E+5  -2.50305E+5
   1.97600E+5  -2.38029E+5
   2.00709E+5  -2.27358E+5
   2.03272E+5  -2.17658E+5
   2.04309E+5  -2.07597E+5
   2.05233E+5  -1.95961E+5
   2.06356E+5  -1.85300E+5
   2.07600E+5  -1.75563E+5
   2.07801E+5  -1.66925E+5
   2.06924E+5  -1.57471E+5
   2.05788E+5  -1.47325E+5
   2.04743E+5  -1.37791E+5
   2.04216E+5  -1.29380E+5
   2.03031E+5  -1.20949E+5
   2.01243E+5  -1.12301E+5
   1.98925E+5  -1.03152E+5
   1.96921E+5  -9.41055E+4
   1.94793E+5  -8.60583E+4
   1.92931E+5  -7.87786E+4
   1.90240E+5  -7.10830E+4
   1.87586E+5  -6.24920E+4
   1.84407E+5  -5.47742E+4
   1.81610E+5  -4.76586E+4
   1.78897E+5  -4.09306E+4
   1.74706E+5  -3.32827E+4
   1.70197E+5  -2.62919E+4
   1.67195E+5  -1.98971E+4
   1.63986E+5  -1.39630E+4
   1.60134E+5  -7.63084E+3
   1.55784E+5  -1.24048E+3
   1.51757E+5   4.83996E+3
   1.48031E+5   1.06248E+4
   1.44397E+5   1.59054E+4
   1.40035E+5   2.15676E+4
   1.35792E+5   2.70068E+4
   1.31573E+5   3.29186E+4
   1.27315E+5   3.81263E+4
   1.22877E+5   4.24884E+4
   1.18543E+5   4.75448E+4
   1.13996E+5   5.22097E+4
   1.09520E+5   5.62081E+4
   1.05497E+5   6.03538E+4
   1.01379E+5   6.44461E+4
   9.69282E+4   6.84373E+4
   9.24632E+4   7.21985E+4
   8.82351E+4   7.58896E+4
   8.43562E+4   7.89160E+4
   8.01001E+4   8.22383E+4
   7.55429E+4   8.52246E+4
   7.08110E+4   8.79283E+4
   6.70425E+4   9.07246E+4
   6.31490E+4   9.37710E+4
   5.87385E+4   9.61119E+4
   5.37550E+4   9.80941E+4
   4.94765E+4   1.00327E+5
   4.58653E+4   1.02212E+5
   4.18499E+4   1.04178E+5
   3.73497E+4   1.05514E+5
   3.33548E+4   1.06700E+5
   2.93161E+4   1.08214E+5
   2.54393E+4   1.09670E+5
   2.15226E+4   1.10639E+5
   1.78196E+4   1.11088E+5
   1.40197E+4   1.11657E+5
   1.03248E+4   1.12153E+5
   6.76124E+3   1.13062E+5
   3.30933E+3   1.13221E+5
  -7.26485E+2   1.12949E+5
  -4.24712E+3   1.12849E+5
  -7.79044E+3   1.12802E+5
  -1.11099E+4   1.12734E+5
  -1.40310E+4   1.12257E+5
  -1.69496E+4   1.11628E+5
  -2.02017E+4   1.10903E+5
  -2.33301E+4   1.10516E+5
  -2.63716E+4   1.10260E+5
  -2.89844E+4   1.09489E+5
  -3.15454E+4   1.08040E+5
  -3.40419E+4   1.06987E+5
  -3.69290E+4   1.06345E+5
  -3.94669E+4   1.05243E+5
  -4.18062E+4   1.04401E+5
  -4.38435E+4   1.02988E+5
  -4.61680E+4   1.01535E+5
  -4.83931E+4   1.00064E+5
  -5.05511E+4   9.87620E+4
  -5.23451E+4   9.74985E+4
  -5.39770E+4   9.62517E+4
  -5.57584E+4   9.45860E+4
  -5.79039E+4   9.29581E+4
  -5.96373E+4   9.15212E+4
  -6.09099E+4   8.96250E+4
  -6.23518E+4   8.82515E+4
  -6.38758E+4   8.61819E+4
  -6.53148E+4   8.44937E+4
  -6.66442E+4   8.27577E+4
  -6.78779E+4   8.11837E+4
  -6.88243E+4   7.90089E+4
  -7.00393E+4   7.71469E+4
  -7.12857E+4   7.51257E+4
  -7.22848E+4   7.31995E+4
  -7.31013E+4   7.12753E+4
  -7.39742E+4   6.91626E+4
  -7.50880E+4   6.71806E+4
  -7.59081E+4   6.48237E+4
  -7.68770E+4   6.29976E+4
  -7.73022E+4   6.10195E+4
  -7.79805E+4   5.90757E+4
  -7.88184E+4   5.70182E+4
  -7.93607E+4   5.48939E+4
  -7.96126E+4   5.32393E+4
  -8.03611E+4   5.13725E+4
  -8.10617E+4   4.92888E+4
  -8.17095E+4   4.73082E+4
  -8.20780E+4   4.50308E+4
  -8.23164E+4   4.28915E+4
  -8.26289E+4   4.13372E+4
  -8.27818E+4   3.92443E+4
  -8.31770E+4   3.72842E+4
  -8.33807E+4   3.54084E+4
  -8.36465E+4   3.35069E+4
  -8.39575E+4   3.15696E+4
  -8.41140E+4   2.98338E+4
  -8.42199E+4   2.77943E+4
  -8.38835E+4   2.61513E+4
  -8.40990E+4   2.44028E+4
  -8.40661E+4   2.24290E+4
  -8.40275E+4   2.09206E+4
  -8.38448E+4   1.89213E+4
  -8.36133E+4   1.74508E+4
  -8.36380E+4   1.59306E+4
  -8.34094E+4   1.45235E+4
  -8.31287E+4   1.24606E+4
  -8.29045E+4   1.09469E+4
  -8.26846E+4   9.57198E+3
  -8.26744E+4   8.08743E+3
  -8.23664E+4   6.37280E+3
  -8.16311E+4   4.85816E+3
  -8.09863E+4   3.75143E+3
  -8.04446E+4   2.32408E+3
  -7.99506E+4   1.26597E+3
  -7.94074E+4   2.90218E+1
  -7.87040E+4  -1.07054E+3
  -7.82842E+4  -2.30615E+3
  -7.76426E+4  -3.39009E+3
  -7.68746E+4  -4.46770E+3
  -7.62463E+4  -5.74370E+3
  -7.51459E+4  -6.78612E+3
  -7.45186E+4  -7.66921E+3
  -7.37779E+4  -8.73772E+3
  -7.31128E+4  -9.66274E+3
  -7.21219E+4  -1.06577E+4
  -7.13323E+4  -1.15643E+4
  -7.05194E+4  -1.21536E+4
  -6.92963E+4  -1.29838E+4
  -6.85445E+4  -1.37045E+4
  -6.75774E+4  -1.44785E+4
  -6.66875E+4  -1.49952E+4
  -6.55802E+4  -1.57553E+4
  -6.46349E+4  -1.63043E+4
  -6.34868E+4  -1.72704E+4
  -6.24842E+4  -1.79058E+4
  -6.14678E+4  -1.80212E+4
  -6.05645E+4  -1.89554E+4
  -5.94712E+4  -1.96704E+4
  -5.82929E+4  -1.97850E+4
  -5.72318E+4  -2.05319E+4
  -5.60123E+4  -2.08856E+4
  -5.49478E+4  -2.17571E+4
  -5.38174E+4  -2.20330E+4
  -5.26351E+4  -2.25416E+4
  -5.15924E+4  -2.28977E+4
  -5.05525E+4  -2.30271E+4
  -4.94700E+4  -2.38540E+4
  -4.84920E+4  -2.42135E+4
  -4.71785E+4  -2.47790E+4
  -4.61042E+4  -2.48284E+4
  -4.52992E+4  -2.50912E+4
  -4.41219E+4  -2.56682E+4
  -4.30985E+4  -2.61748E+4
  -4.17421E+4  -2.65685E+4
  -4.11637E+4  -2.68436E+4
  -3.98472E+4  -2.73247E+4
  -3.85731E+4  -2.75214E+4
  -3.77619E+4  -2.79571E+4
  -3.65033E+4  -2.79900E+4
  -3.57620E+4  -2.87153E+4
  -3.46115E+4  -2.88611E+4
  -3.38800E+4  -2.90755E+4
  -3.27117E+4  -2.93386E+4
  -3.16292E+4  -2.98387E+4
  -3.07725E+4  -2.98568E+4
  -2.98806E+4  -2.95896E+4
  -2.89478E+4  -2.99448E+4
  -2.80137E+4  -3.00980E+4
  -2.69360E+4  -3.03731E+4
  -2.62758E+4  -3.06931E+4
  -2.56273E+4  -3.06102E+4
  -2.46283E+4  -3.06085E+4
  -2.36361E+4  -3.07229E+4
  -2.30448E+4  -3.07240E+4
  -2.22620E+4  -3.08893E+4
  -2.13642E+4  -3.09849E+4
  -2.05002E+4  -3.09199E+4
  -2.01338E+4  -3.08432E+4
  -1.92055E+4  -3.08071E+4
  -1.86334E+4  -3.08767E+4
  -1.75535E+4  -3.07512E+4
  -1.71877E+4  -3.04975E+4
  -1.65067E+4  -3.04149E+4
  -1.57719E+4  -3.05179E+4
  -1.51134E+4  -3.03061E+4
  -1.44714E+4  -3.04015E+4
  -1.38066E+4  -3.01068E+4
  -1.34128E+4  -2.97001E+4
  -1.24367E+4  -2.93144E+4
  -1.21792E+4  -2.96437E+4
  -1.14607E+4  -2.92639E+4
  -1.04956E+4  -2.90048E+4
  -1.03590E+4  -2.88152E+4
  -9.55287E+3  -2.87769E+4
  -8.95303E+3  -2.83666E+4
  -8.18786E+3  -2.79461E+4
  -8.02012E+3  -2.78049E+4
  -7.41230E+3  -2.74020E+4
  -6.96886E+3  -2.73591E+4
  -6.25518E+3  -2.68835E+4
  -5.82354E+3  -2.65615E+4
  -5.37557E+3  -2.62678E+4
  -4.61150E+3  -2.61225E+4
  -4.28078E+3  -2.59857E+4
  -3.71188E+3  -2.54182E+4
  -3.22968E+3  -2.53528E+4
  -3.16171E+3  -2.47291E+4
  -2.37895E+3  -2.45037E+4
  -1.83907E+3  -2.40624E+4
  -1.49425E+3  -2.36165E+4
  -9.62989E+2  -2.37285E+4
  -4.95570E+2  -2.32249E+4
  -1.69334E+2  -2.31712E+4
   2.32415E+2  -2.27637E+4
   5.70193E+2  -2.24381E+4
   1.12336E+3  -2.19567E+4
   1.55239E+3  -2.15891E+4
   1.96261E+3  -2.12541E+4
   2.32005E+3  -2.10012E+4
   2.77681E+3  -2.05591E+4
   3.30807E+3  -2.04021E+4
   3.22805E+3  -2.02211E+4
   3.73254E+3  -1.99197E+4
   4.11719E+3  -1.95368E+4
   4.49590E+3  -1.91493E+4
   4.91381E+3  -1.88608E+4
   5.07713E+3  -1.84632E+4
   5.26564E+3  -1.81843E+4
   5.61782E+3  -1.78561E+4
   5.98671E+3  -1.76685E+4
   6.07030E+3  -1.74034E+4
   6.66716E+3  -1.71554E+4
   6.63782E+3  -1.66644E+4
   7.01432E+3  -1.65853E+4
   7.16412E+3  -1.61307E+4
   7.33853E+3  -1.60593E+4
   7.66434E+3  -1.55840E+4
   7.69816E+3  -1.51921E+4
   8.17569E+3  -1.49237E+4
   8.17605E+3  -1.44269E+4
   8.20176E+3  -1.41992E+4
   8.82826E+3  -1.39590E+4
   8.76511E+3  -1.34312E+4
   8.78439E+3  -1.30652E+4
   8.86477E+3  -1.29200E+4
   9.00911E+3  -1.26634E+4
   9.00721E+3  -1.23955E+4
   9.20524E+3  -1.19304E+4
   9.45415E+3  -1.15273E+4
   9.45440E+3  -1.10825E+4
   9.71669E+3  -1.08151E+4
   9.80950E+3  -1.05376E+4
   9.76212E+3  -1.02987E+4
   9.79101E+3  -1.01127E+4
   1.00900E+4  -9.59777E+3
   1.00832E+4  -9.39798E+3
   1.02137E+4  -8.89744E+3
   1.01209E+4  -8.88786E+3
   1.02018E+4  -8.26757E+3
   1.05529E+4  -7.92823E+3
   1.03664E+4  -7.46757E+3
   1.03992E+4  -7.43249E+3
