 
 $NMID
 ID=''
 FMTDAT='(2E13.5)'
 TRAMP=   1.00000E+0
 VOLUME=   1.00000E+0
 $END
   2.00625E+4   1.27969E+4
   1.16291E+4   1.77411E+4
  -9.82141E+3   1.19192E+4
  -1.58726E+4   1.85392E+4
  -1.22365E+4   8.06722E+3
  -1.55076E+4  -8.66076E+3
  -1.23661E+4  -7.07835E+3
  -5.33508E+3  -6.53907E+3
  -3.54082E+3  -1.29334E+4
   1.79710E+3  -1.16845E+4
   9.28411E+3  -9.53197E+3
   9.51134E+3  -7.68382E+3
   9.38437E+3  -7.81817E+1
   1.08834E+4   4.72232E+3
   7.98467E+3   4.88947E+3
   4.85612E+3   9.00010E+3
   1.61545E+3   1.17676E+4
  -4.90962E+3   8.38416E+3
  -8.58597E+3   4.60190E+3
  -7.23281E+3   2.29846E+3
  -7.44149E+3  -1.16687E+3
  -6.27598E+3  -5.04649E+3
  -2.42544E+3  -6.23344E+3
  -1.36825E+3  -6.44640E+3
   8.26245E+2  -8.14195E+3
   6.70361E+3  -5.28830E+3
   6.59924E+3   7.09866E+2
   3.02072E+3   1.00059E+3
   4.43776E+3   1.10368E+2
   4.95674E+3   4.30636E+3
   1.08734E+2   6.74667E+3
  -3.20908E+3   4.68635E+3
  -3.66938E+3   2.27655E+3
  -3.99823E+3   2.76632E+2
  -3.18825E+3  -9.87721E+2
  -2.17547E+3  -1.05449E+3
  -2.92596E+3  -2.11854E+3
  -2.09908E+3  -3.81516E+3
   1.15051E+3  -3.65947E+3
   1.72564E+3  -2.39696E+3
   1.82865E+3  -1.60555E+3
   3.34000E+3  -6.53698E+2
   3.68148E+3   1.41904E+3
   2.03549E+3   2.93272E+3
   7.21200E+2   2.87397E+3
  -5.76241E+2   3.17572E+3
  -2.45146E+3   3.01619E+3
  -3.10411E+3   7.97647E+2
  -2.20282E+3  -1.31269E+3
  -1.37913E+3  -1.42751E+3
  -8.32047E+2  -1.36703E+3
  -4.84560E+2  -1.69504E+3
   2.13672E+2  -1.59653E+3
   1.13303E+3  -1.07985E+3
   1.51996E+3  -7.86745E+2
   1.16924E+3  -1.33986E+2
   1.57163E+3  -2.55984E+2
   1.81294E+3   5.24383E+2
   1.61550E+3   1.52963E+3
   7.26115E+2   2.17337E+3
  -6.56845E+2   1.55746E+3
  -1.26308E+3   1.41621E+3
  -1.49482E+3   8.57121E+2
  -1.83905E+3  -3.04487E+2
  -1.49295E+3  -1.53391E+3
  -6.92366E+1  -1.71433E+3
   6.95946E+2  -1.36416E+3
   9.87521E+2  -9.87563E+2
   8.56232E+2  -4.81003E+2
   8.39795E+2  -3.28921E+2
   9.48115E+2  -1.17606E+2
   1.47775E+3   2.48662E+2
   8.49503E+2   7.77812E+2
  -2.68624E+2   1.30332E+3
  -1.08478E+2   7.66311E+2
  -4.42431E+1   4.47506E+2
  -5.32365E+2   6.95966E+2
  -7.06601E+2   1.97689E+2
  -7.28284E+2  -3.79767E+2
  -5.51905E+2  -6.05485E+2
  -3.79341E+2  -6.69629E+2
   5.69084E+1  -8.74952E+2
   5.12497E+2  -7.10545E+2
   4.41043E+2  -6.22207E+2
   5.61815E+2  -5.73065E+2
   1.00223E+3   6.95915E+1
   7.35739E+2   4.77009E+2
   1.97063E+2   5.54800E+2
   2.21114E+2   2.81341E+2
   1.42323E+2   5.23480E+2
  -2.25548E+1   4.59486E+2
  -5.45729E+2   5.88585E+2
  -9.50785E+2  -4.79487E+1
  -4.93001E+2  -5.44272E+2
  -1.44207E+2  -8.08341E+2
   3.93739E+2  -3.89249E+2
  -9.32571E+1  -4.43677E+2
   3.06620E+2  -4.46461E+2
   4.26959E+2  -4.23809E+2
   5.99374E+2  -3.45657E+2
   6.66293E+2   5.49435E+1
   2.54397E+2   1.02709E+2
   9.84435E+0   4.00881E+1
   2.57247E+2   1.07891E+2
   4.82951E+2   3.59415E+2
   5.31928E+1   4.51645E+2
  -5.32773E+2   5.46211E+2
  -4.06234E+2  -2.43954E+2
  -1.52591E+2  -4.03692E+2
   2.64006E+2  -1.65805E+2
  -1.62651E+2   1.35397E+1
  -3.72349E+1  -2.79343E+2
  -2.05846E+2  -3.25319E+2
   2.37126E+2  -2.26525E+2
   2.15832E+2   1.36199E+1
   4.10270E+1  -1.46925E+2
   1.86625E+2  -6.93646E+1
   3.97705E+2  -2.86788E+2
   2.33391E+2   3.31516E+2
   2.53796E+2   2.54186E+2
   1.36039E+2   2.57602E+2
  -9.26960E+1   4.01032E+2
  -4.66818E+2   1.62564E+2
  -3.39062E+2  -1.18965E+2
  -2.29751E+2  -2.38129E+2
  -4.20249E+1  -3.05642E+2
   2.16549E+2  -2.00127E+2
   1.07460E+2  -3.01184E+2
   2.35246E+2  -1.11355E+2
   3.43238E+2  -3.31480E-1
  -6.44348E+1  -1.33012E+2
   3.96983E+1  -2.29438E+2
   3.31415E+2  -1.15073E+1
   4.93915E+1   5.98114E+1
  -1.71660E+2   2.06630E+2
   3.38096E+0   7.27795E+1
   1.84385E+2   3.21457E+2
   8.93727E+1   1.83632E+2
  -3.09740E+2   1.57103E+2
  -3.00134E+2  -1.18997E+2
  -1.24103E+2  -4.51127E+2
  -2.38251E+1  -2.30892E+2
   2.53069E+2   7.22118E+1
   1.45329E+2   1.76490E+2
   1.67924E+1  -1.44586E+2
  -1.08446E+2  -2.49873E+2
  -2.32901E+2  -1.99865E+2
   2.25789E+2  -1.08278E+2
   5.26941E+1  -1.98549E+1
  -3.54988E+2  -8.84119E+1
  -9.54138E+1  -2.73285E+2
   2.15964E+2  -1.53390E+2
  -1.13427E+2   1.50740E+2
  -6.42278E+1   2.30987E+2
  -1.55653E+2  -3.22295E+2
  -1.20030E+2  -3.42121E+2
   6.30945E+1  -7.67627E+1
  -5.79052E+1   1.50106E+2
  -1.70081E+2   3.30317E+1
  -3.01033E+1  -3.16918E+2
   7.90494E+1  -1.68356E+2
   3.20780E+1  -1.79629E+2
   5.58353E+1   5.55869E+1
   1.24671E+2  -2.86886E+2
   1.55225E+2  -1.29714E+2
   7.13641E+1  -9.56519E+1
  -9.14286E+1   1.61755E+2
  -3.18136E+2  -2.45165E+0
  -3.91774E+1   1.66256E+1
  -3.04659E+2   1.02689E+2
  -5.42740E+1  -1.37624E+2
  -1.68934E+2  -1.31072E+2
  -2.81704E+2  -1.44511E+2
  -1.94022E+2  -6.46855E-1
  -1.11178E+2  -1.37547E+2
  -1.23766E+1   3.93744E+2
  -2.20454E+2   3.73423E+2
  -1.40689E+2  -1.67357E+2
  -2.01867E+2  -2.77179E+2
   3.71154E+1  -8.83835E+1
  -5.03138E+1   3.96605E+2
  -2.26073E+2   1.98147E+2
  -3.37538E+2  -1.91599E+2
  -1.97114E+1  -1.69293E+2
  -2.51474E+2   5.55851E+1
  -1.10712E+2  -6.42503E-1
   6.93116E+1  -1.92104E+2
   7.16699E+1  -4.98430E+2
   4.19508E+1   1.62413E+1
  -7.50782E+1   3.48240E+2
  -1.03003E+2   3.09851E+2
  -3.97957E+2   2.02207E+2
  -1.00782E+2  -1.69798E+2
  -1.11117E+2   1.05841E+1
   2.71322E+1  -2.54595E+2
  -1.92599E+2  -6.12107E+1
  -2.57866E+2  -5.54166E+1
  -1.62445E+2  -1.05294E+1
  -1.86999E+2   5.30993E+2
   7.03110E+1   7.34007E+1
  -2.05918E+2  -1.83876E+2
  -1.36210E+2   1.34608E+2
  -1.39599E+2   1.98970E+2
   9.79815E+1  -1.77123E+2
  -9.79737E+1   7.51579E+1
  -1.73406E+2   1.53915E+2
   2.32865E+1  -2.09838E+1
   1.32210E+2   9.44543E+0
   4.38465E+1   1.72348E+1
  -2.16600E+2  -2.10947E+2
  -1.34396E+2   1.55538E+1
   9.35830E+1   1.22563E+2
  -3.41777E+2   2.50571E+2
  -3.01019E+2   3.49568E+2
  -1.62301E+2   1.42138E+2
  -9.77123E+1  -3.90213E+2
  -1.68393E+1  -1.41826E+2
   1.87145E+1   1.14788E+2
   1.28379E+2   1.42049E+2
   8.40903E+1   1.71722E+2
  -7.50964E+1   2.16191E+1
   2.65021E+1   3.27830E+2
  -1.81390E+2   7.95213E+1
  -5.31218E+1  -3.20445E+1
  -3.20132E+1  -1.69174E+2
   2.09537E+1  -1.86427E+2
  -3.71079E+1  -2.29534E+2
   5.45969E+1   3.20466E+2
  -3.11953E+2  -5.49681E+1
  -1.82969E+2   1.19076E+0
   2.14875E+2  -6.03610E+1
  -3.23112E+1   1.42371E+2
   1.32701E+1  -2.87273E+0
  -3.33217E+1  -1.35772E+2
   4.08035E+1  -1.61661E+1
   2.23307E+2   2.70108E+1
  -3.22074E+1  -3.16334E+1
  -6.47141E+1  -5.14046E+0
  -5.59031E+1  -1.86266E+2
   1.10116E+2  -8.06232E+1
   5.52540E+1  -1.62509E+2
   6.72407E+1   6.84590E+1
  -2.50316E+2  -9.32127E+1
  -1.29915E+2  -1.74812E+1
   1.30961E+2  -1.04154E+2
   2.45025E+2  -2.84853E+1
   2.18249E+1  -5.74124E+1
  -5.36623E+1  -2.85856E+2
   2.91104E+2  -2.41987E+2
   2.92192E+1  -4.77127E+0
  -1.81625E+2   1.91363E+2
  -6.90040E+1   1.22843E+2
  -2.21176E+2  -1.30373E+2
  -2.30887E+2  -1.43720E+2
   1.34656E+2   4.40307E+1
   4.82734E+1   5.42635E+1
   5.10870E+0  -2.34379E+1
  -1.14091E+2   1.08042E+2
  -9.88731E+1  -5.83641E+1
  -4.62711E+1  -4.05514E+1
  -4.30977E+2  -1.10579E+2
  -2.88719E+2  -3.33934E+2
  -7.37800E+1  -2.37036E+2
   2.12611E+2  -8.09568E+1
   7.09500E+1  -4.89831E+0
  -1.67403E+2   2.70161E+2
  -1.31280E+2  -1.79953E+2
   7.60480E+1   3.83980E+1
   7.88985E+1  -1.18962E+2
   1.45054E+1  -1.69308E+2
  -1.03448E+2  -2.09411E+1
  -7.18284E+1   7.49687E+1
  -1.29665E+2  -1.18806E+2
   3.27185E+1   1.85894E+2
  -1.19245E+2   1.35092E+2
  -2.97979E+2  -4.79054E+1
  -2.26924E+2  -9.37382E+1
   8.62885E+1   1.49389E+2
   8.54312E+1  -1.23936E+2
   1.13025E+2   9.06386E+1
  -1.52971E+2  -1.50003E+2
  -2.67486E+1  -9.26683E+1
  -9.53502E+1  -4.60074E+1
  -2.69428E+2   2.26146E+2
  -8.54089E+1   8.26546E+1
  -1.07119E+2   1.54376E+1
  -8.12894E+1   5.20986E+1
   3.70884E+1   8.77385E+0
   9.97419E+1   2.72961E+2
  -1.77473E+2   1.92953E+2
  -7.33735E+1   3.30489E+2
  -1.88245E+2   3.58193E+1
   2.09809E+2   3.39772E+1
   1.50338E+2   2.09461E+1
   5.89269E+1   5.43628E+1
  -1.81145E+2  -7.14017E+1
  -4.17685E+1  -7.59467E+1
   7.21546E+1  -1.21443E+1
  -2.26550E+1   9.37537E+1
  -1.28251E+1   2.24433E+2
   2.44220E+2  -2.14112E+2
   1.49510E+2   1.34515E+2
  -9.22722E+0   6.29013E+1
  -3.66417E+1  -2.01361E+1
   4.10694E+0  -8.87644E+1
   1.43670E+2  -1.14237E+2
   1.38272E+2  -3.23008E+1
   7.98034E+1   9.33912E+1
  -5.04050E+1  -7.35869E+1
   3.33412E+1  -2.55208E+2
   1.30655E+2   8.17862E+0
  -3.87759E+1  -1.52768E+2
   8.34854E+0   7.44631E+1
  -1.22206E+2   2.61754E+1
  -5.17177E+1  -3.93491E+0
   8.27152E+1  -1.62275E+2
  -1.05657E+2   8.11956E+1
  -1.25596E+1   8.50079E+1
   6.42766E+1   3.06842E+2
   1.64155E+2  -8.83162E+0
   2.13574E+2   6.17438E-1
   1.52846E+2   1.12919E+2
  -7.50722E+1  -1.47900E+2
   1.30963E+2  -1.64090E+2
   9.70409E+1  -1.55624E+1
   2.27017E+1  -2.29806E+2
   5.42945E+1   1.98243E+2
  -1.05731E+2  -9.19186E+1
  -1.21075E+2   3.56132E+1
  -1.91737E+1   1.28418E+2
   1.16904E+2   4.21117E+1
   4.13567E+1   1.16162E+1
   1.44391E+2   5.82389E+1
   2.45259E+2   7.48588E+1
   4.39316E+1   8.93457E+1
  -2.05922E+2  -8.02226E-1
  -7.21470E+1  -8.43808E+1
  -1.39205E+1  -7.50690E+1
  -1.74836E+1   1.94303E+1
  -6.05835E+1   6.13582E+1
  -4.00099E+1   8.23644E+1
   8.63616E+1   4.47533E+1
  -1.60009E+2  -8.61994E+1
   6.72884E+1  -1.01860E+2
  -5.48814E+1  -1.93009E+2
  -3.15709E+1  -1.46440E+2
  -1.29009E+2  -3.30489E+0
   5.71350E+1   3.54605E+0
   1.51966E+2   6.54325E+1
  -1.77790E+2  -1.49940E+0
  -1.69707E+2  -1.85898E+1
  -2.25339E+2  -6.54252E+1
   6.67117E+1   1.15319E+2
   1.20095E+2   6.87862E+0
   4.10877E+1  -3.19775E+1
   1.40416E+2  -2.38424E+2
  -3.79463E+1  -3.19477E+2
   7.05778E+0   1.36311E+2
  -1.38134E+2  -3.81038E+0
  -1.79137E+2   4.31244E+1
  -7.87967E+1  -1.67892E+2
  -9.47668E+1  -2.37977E+2
   2.01158E+2  -1.26253E+2
   2.01587E+2  -1.69666E+2
  -3.18497E+1   2.08406E+2
  -2.00348E+2   9.06764E+1
  -1.06008E+2  -1.56583E+2
