 
 $NMID
 ID=''
 FMTDAT='(2E13.5)'
 TRAMP=   1.00000E+0
 VOLUME=   1.00000E+0
 $END
   5.04913E+5   6.13972E+5
   7.31640E+5   2.02315E+6
   9.13092E+5   1.85714E+6
   7.14837E+5   1.79410E+6
   7.23428E+5   1.92422E+6
   8.16453E+5   1.84103E+6
   7.33599E+5   1.78477E+6
   7.08440E+5   1.86506E+6
   7.35662E+5   1.83093E+6
   6.59973E+5   1.80155E+6
   6.26303E+5   1.84580E+6
   6.26560E+5   1.81921E+6
   5.70325E+5   1.79867E+6
   5.35745E+5   1.82728E+6
   5.13386E+5   1.80724E+6
   4.62669E+5   1.78919E+6
   4.39587E+5   1.80701E+6
   4.23477E+5   1.79311E+6
   3.86668E+5   1.77941E+6
   3.79311E+5   1.78214E+6
   3.64205E+5   1.76518E+6
   3.29148E+5   1.75675E+6
   3.11973E+5   1.75749E+6
   2.93174E+5   1.74249E+6
   2.57534E+5   1.73381E+6
   2.42393E+5   1.72884E+6
   2.16626E+5   1.71643E+6
   1.77605E+5   1.71114E+6
   1.51388E+5   1.70325E+6
   1.31481E+5   1.68717E+6
   1.03709E+5   1.68181E+6
   8.71365E+4   1.67343E+6
   6.79413E+4   1.65701E+6
   4.78056E+4   1.64842E+6
   3.77246E+4   1.63790E+6
   2.83696E+4   1.62395E+6
   1.32121E+4   1.61876E+6
  -1.17286E+3   1.60959E+6
  -1.88183E+4   1.59264E+6
  -3.74137E+4   1.58317E+6
  -5.47855E+4   1.57193E+6
  -7.45926E+4   1.55561E+6
  -9.26551E+4   1.54235E+6
  -1.08529E+5   1.53172E+6
  -1.29153E+5   1.51731E+6
  -1.49323E+5   1.50579E+6
  -1.66271E+5   1.49365E+6
  -1.84455E+5   1.47836E+6
  -2.00365E+5   1.46251E+6
  -2.12482E+5   1.44910E+6
  -2.25539E+5   1.43576E+6
  -2.40065E+5   1.42275E+6
  -2.52643E+5   1.40969E+6
  -2.66095E+5   1.39572E+6
  -2.81146E+5   1.38151E+6
  -2.96265E+5   1.36735E+6
  -3.11927E+5   1.35125E+6
  -3.27061E+5   1.33422E+6
  -3.39753E+5   1.31832E+6
  -3.52847E+5   1.30398E+6
  -3.67967E+5   1.28904E+6
  -3.81947E+5   1.27372E+6
  -3.94444E+5   1.25866E+6
  -4.07908E+5   1.24200E+6
  -4.20446E+5   1.22485E+6
  -4.30337E+5   1.20792E+6
  -4.40490E+5   1.19143E+6
  -4.51150E+5   1.17535E+6
  -4.62389E+5   1.16068E+6
  -4.74738E+5   1.14484E+6
  -4.87085E+5   1.12747E+6
  -4.97327E+5   1.11015E+6
  -5.07249E+5   1.09456E+6
  -5.18931E+5   1.07855E+6
  -5.29836E+5   1.06133E+6
  -5.39540E+5   1.04363E+6
  -5.48890E+5   1.02801E+6
  -5.58218E+5   1.01216E+6
  -5.67377E+5   9.95132E+5
  -5.76524E+5   9.77803E+5
  -5.84731E+5   9.61073E+5
  -5.92473E+5   9.43941E+5
  -6.00630E+5   9.27770E+5
  -6.09213E+5   9.10845E+5
  -6.17795E+5   8.92806E+5
  -6.25370E+5   8.75442E+5
  -6.32640E+5   8.59363E+5
  -6.40217E+5   8.42944E+5
  -6.47302E+5   8.25606E+5
  -6.53063E+5   8.09443E+5
  -6.57899E+5   7.93226E+5
  -6.63051E+5   7.77947E+5
  -6.68527E+5   7.62648E+5
  -6.72340E+5   7.46781E+5
  -6.75249E+5   7.30632E+5
  -6.77683E+5   7.16167E+5
  -6.80558E+5   7.02328E+5
  -6.84051E+5   6.87891E+5
  -6.87211E+5   6.72933E+5
  -6.88933E+5   6.58151E+5
  -6.91463E+5   6.44108E+5
  -6.94658E+5   6.29452E+5
  -6.97042E+5   6.13671E+5
  -6.97716E+5   5.98019E+5
  -6.98394E+5   5.84289E+5
  -6.99357E+5   5.71266E+5
  -7.00900E+5   5.57586E+5
  -7.01961E+5   5.42933E+5
  -7.01256E+5   5.28476E+5
  -6.99612E+5   5.15710E+5
  -6.99269E+5   5.03242E+5
  -6.99945E+5   4.90235E+5
  -7.00081E+5   4.76193E+5
  -6.99495E+5   4.62603E+5
  -6.98613E+5   4.49430E+5
  -6.98337E+5   4.35649E+5
  -6.97483E+5   4.21583E+5
  -6.95793E+5   4.07560E+5
  -6.92815E+5   3.94511E+5
  -6.90127E+5   3.82578E+5
  -6.88957E+5   3.70653E+5
  -6.87302E+5   3.58440E+5
  -6.85157E+5   3.45927E+5
  -6.83361E+5   3.33739E+5
  -6.81355E+5   3.21206E+5
  -6.77664E+5   3.08528E+5
  -6.74564E+5   2.96133E+5
  -6.71701E+5   2.84204E+5
  -6.69202E+5   2.71896E+5
  -6.66822E+5   2.59751E+5
  -6.64300E+5   2.46839E+5
  -6.61012E+5   2.33066E+5
  -6.57031E+5   2.20766E+5
  -6.53280E+5   2.09076E+5
  -6.50039E+5   1.97537E+5
  -6.46347E+5   1.85357E+5
  -6.42073E+5   1.74277E+5
  -6.38326E+5   1.63738E+5
  -6.34639E+5   1.52679E+5
  -6.30645E+5   1.41186E+5
  -6.25992E+5   1.29880E+5
  -6.20908E+5   1.19630E+5
  -6.15747E+5   1.10077E+5
  -6.11552E+5   9.97869E+4
  -6.07509E+5   8.92425E+4
  -6.02695E+5   7.90935E+4
  -5.96977E+5   6.91022E+4
  -5.91569E+5   5.88969E+4
  -5.86247E+5   4.96852E+4
  -5.80842E+5   4.03581E+4
  -5.75038E+5   3.12517E+4
  -5.69430E+5   2.32556E+4
  -5.64288E+5   1.55286E+4
  -5.59180E+5   7.37101E+3
  -5.53183E+5  -9.71232E+2
  -5.47084E+5  -8.49541E+3
  -5.41515E+5  -1.52381E+4
  -5.35608E+5  -2.23758E+4
  -5.30003E+5  -2.93199E+4
  -5.23638E+5  -3.60362E+4
  -5.17736E+5  -4.27585E+4
  -5.11707E+5  -4.89826E+4
  -5.05389E+5  -5.56750E+4
  -4.98843E+5  -6.17315E+4
  -4.92268E+5  -6.74530E+4
  -4.86092E+5  -7.26221E+4
  -4.80095E+5  -7.78944E+4
  -4.73948E+5  -8.34657E+4
  -4.67802E+5  -8.86665E+4
  -4.61353E+5  -9.35380E+4
  -4.54635E+5  -9.80039E+4
  -4.48587E+5  -1.02306E+5
  -4.42511E+5  -1.07038E+5
  -4.35886E+5  -1.11632E+5
  -4.29343E+5  -1.15783E+5
  -4.22996E+5  -1.19741E+5
  -4.16832E+5  -1.24497E+5
  -4.10055E+5  -1.28860E+5
  -4.03219E+5  -1.32531E+5
  -3.96358E+5  -1.36015E+5
  -3.90108E+5  -1.39712E+5
  -3.84123E+5  -1.43532E+5
  -3.77254E+5  -1.47216E+5
  -3.70627E+5  -1.50846E+5
  -3.63972E+5  -1.53893E+5
  -3.57531E+5  -1.56969E+5
  -3.50864E+5  -1.59586E+5
  -3.44356E+5  -1.62053E+5
  -3.37928E+5  -1.64873E+5
  -3.31977E+5  -1.67256E+5
  -3.26110E+5  -1.70200E+5
  -3.19409E+5  -1.73640E+5
  -3.12551E+5  -1.76278E+5
  -3.05810E+5  -1.78708E+5
  -2.99211E+5  -1.80866E+5
  -2.93181E+5  -1.83185E+5
  -2.86714E+5  -1.85771E+5
  -2.80101E+5  -1.87658E+5
  -2.74002E+5  -1.89717E+5
  -2.67659E+5  -1.92421E+5
  -2.61172E+5  -1.94708E+5
  -2.54383E+5  -1.96130E+5
  -2.47854E+5  -1.97499E+5
  -2.41994E+5  -1.99239E+5
  -2.36067E+5  -2.00460E+5
  -2.30085E+5  -2.02043E+5
  -2.23786E+5  -2.03644E+5
  -2.17827E+5  -2.05015E+5
  -2.11581E+5  -2.06278E+5
  -2.05846E+5  -2.07200E+5
  -1.99570E+5  -2.08152E+5
  -1.93655E+5  -2.08900E+5
  -1.88097E+5  -2.09443E+5
  -1.82892E+5  -2.10263E+5
  -1.77003E+5  -2.11561E+5
  -1.71269E+5  -2.11957E+5
  -1.65807E+5  -2.12142E+5
  -1.60238E+5  -2.11869E+5
  -1.55303E+5  -2.12268E+5
  -1.50030E+5  -2.12328E+5
  -1.45060E+5  -2.12171E+5
  -1.40132E+5  -2.11902E+5
  -1.35212E+5  -2.11717E+5
  -1.30263E+5  -2.11544E+5
  -1.25390E+5  -2.11245E+5
  -1.20633E+5  -2.10610E+5
  -1.15858E+5  -2.09613E+5
  -1.11678E+5  -2.09017E+5
  -1.07267E+5  -2.08697E+5
  -1.02615E+5  -2.07765E+5
  -9.80817E+4  -2.06704E+5
  -9.42532E+4  -2.05527E+5
  -9.00088E+4  -2.04603E+5
  -8.60106E+4  -2.03568E+5
  -8.24629E+4  -2.02517E+5
  -7.84640E+4  -2.00919E+5
  -7.51254E+4  -1.99650E+5
  -7.11613E+4  -1.98393E+5
  -6.76716E+4  -1.97326E+5
  -6.40759E+4  -1.95586E+5
  -6.07953E+4  -1.93804E+5
  -5.76197E+4  -1.92488E+5
  -5.38985E+4  -1.91094E+5
  -5.08569E+4  -1.89725E+5
  -4.71483E+4  -1.87489E+5
  -4.43112E+4  -1.86112E+5
  -4.12661E+4  -1.84644E+5
  -3.80792E+4  -1.82692E+5
  -3.53085E+4  -1.80899E+5
  -3.21676E+4  -1.79027E+5
  -2.95571E+4  -1.77362E+5
  -2.67596E+4  -1.75976E+5
  -2.37411E+4  -1.74024E+5
  -2.10563E+4  -1.72096E+5
  -1.83519E+4  -1.69969E+5
  -1.60086E+4  -1.68017E+5
  -1.32549E+4  -1.66314E+5
  -1.06964E+4  -1.64698E+5
  -7.84248E+3  -1.62824E+5
  -5.47878E+3  -1.60876E+5
  -2.99671E+3  -1.59062E+5
  -2.96787E+2  -1.57132E+5
   2.27807E+3  -1.54996E+5
   4.63920E+3  -1.52544E+5
   6.57728E+3  -1.50904E+5
   8.56513E+3  -1.49198E+5
   1.11006E+4  -1.46961E+5
   1.33618E+4  -1.45050E+5
   1.56020E+4  -1.42896E+5
   1.73457E+4  -1.40949E+5
   1.94076E+4  -1.38952E+5
   2.12629E+4  -1.37041E+5
   2.29661E+4  -1.34972E+5
   2.51184E+4  -1.33001E+5
   2.69868E+4  -1.31355E+5
   2.90249E+4  -1.29289E+5
   3.07447E+4  -1.27183E+5
   3.23590E+4  -1.25002E+5
   3.36389E+4  -1.23166E+5
   3.53852E+4  -1.21031E+5
   3.69500E+4  -1.18792E+5
   3.82957E+4  -1.17092E+5
   3.96257E+4  -1.15339E+5
   4.12049E+4  -1.13276E+5
   4.24840E+4  -1.11267E+5
   4.37023E+4  -1.08857E+5
   4.45986E+4  -1.06769E+5
   4.58062E+4  -1.04802E+5
   4.67707E+4  -1.02925E+5
   4.76798E+4  -1.01205E+5
   4.87584E+4  -9.93018E+4
   4.99547E+4  -9.71608E+4
   5.09000E+4  -9.52806E+4
   5.12663E+4  -9.32910E+4
   5.22824E+4  -9.13366E+4
   5.29705E+4  -8.93464E+4
   5.38598E+4  -8.75106E+4
   5.42610E+4  -8.57370E+4
   5.50399E+4  -8.39795E+4
   5.56573E+4  -8.18177E+4
   5.62200E+4  -8.01908E+4
   5.66587E+4  -7.82784E+4
   5.71414E+4  -7.64930E+4
   5.79820E+4  -7.47581E+4
   5.81774E+4  -7.28415E+4
   5.86027E+4  -7.11261E+4
   5.90764E+4  -6.91695E+4
   5.90533E+4  -6.74021E+4
   5.97508E+4  -6.58091E+4
   5.97213E+4  -6.37726E+4
   6.01756E+4  -6.22940E+4
   6.03330E+4  -6.06995E+4
   6.04056E+4  -5.91692E+4
   6.06387E+4  -5.75419E+4
   6.10337E+4  -5.56283E+4
   6.08264E+4  -5.36464E+4
   6.09142E+4  -5.24135E+4
   6.12616E+4  -5.09185E+4
   6.12667E+4  -4.90728E+4
   6.12176E+4  -4.75448E+4
   6.12796E+4  -4.61631E+4
   6.12563E+4  -4.44166E+4
   6.13466E+4  -4.33180E+4
   6.12967E+4  -4.16418E+4
   6.10308E+4  -4.02625E+4
   6.09010E+4  -3.88952E+4
   6.09957E+4  -3.71290E+4
   6.10196E+4  -3.59775E+4
   6.10559E+4  -3.45713E+4
   6.07343E+4  -3.28746E+4
   6.05433E+4  -3.15240E+4
   6.03625E+4  -3.05192E+4
   5.99360E+4  -2.90050E+4
   5.98936E+4  -2.79042E+4
   5.98205E+4  -2.65225E+4
   5.94761E+4  -2.53200E+4
   5.93085E+4  -2.40827E+4
   5.91369E+4  -2.28049E+4
   5.87884E+4  -2.16252E+4
   5.86489E+4  -2.03730E+4
   5.80432E+4  -1.93040E+4
   5.80631E+4  -1.82339E+4
   5.77862E+4  -1.69880E+4
   5.71809E+4  -1.59263E+4
   5.73365E+4  -1.51013E+4
   5.66131E+4  -1.37767E+4
   5.64275E+4  -1.27356E+4
   5.58617E+4  -1.17337E+4
   5.56441E+4  -1.07653E+4
   5.49426E+4  -9.90767E+3
   5.48144E+4  -8.93982E+3
   5.42674E+4  -7.94710E+3
   5.40591E+4  -7.13500E+3
   5.36278E+4  -6.19972E+3
   5.30138E+4  -5.68550E+3
   5.25344E+4  -4.42035E+3
   5.20927E+4  -3.72865E+3
   5.16398E+4  -3.04271E+3
   5.09737E+4  -2.37478E+3
   5.09030E+4  -1.58552E+3
   5.06100E+4  -7.01367E+2
   4.98930E+4   3.75285E+2
   4.92549E+4   8.01158E+2
   4.87760E+4   1.13086E+3
   4.84500E+4   1.77952E+3
   4.78431E+4   2.71995E+3
   4.75030E+4   3.18113E+3
