 LCModel (Version 6.3-1N) Copyright: S.W. Provencher.          Ref.: Magn. Reson. Med. 30:672-679 (1993).                
 Slice_N1@9_21  28-Feb-2025 11:44:46
 27 lines in following concentration table = NCONC+1
    Conc.  %SD /Cr+PCr  Metabolite                                         
 3.46E-04   4% 3.6E-04 Mac                                                 
    1.162 173%   1.220 Cr                                                  
    6.458  31%   6.780 PCr                                                 
    5.729  18%   6.015 Ins                                                 
   11.754   9%  12.340 NAA                                                 
    6.494  17%   6.817 Tau                                                 
 6.54E-02 999% 6.9E-02 PCho                                                
    1.459  73%   1.532 GPC                                                 
    9.982  12%  10.480 Glu                                                 
    7.020  14%   7.370 Gln                                                 
    8.837  10%   9.277 Ala                                                 
    2.897  52%   3.041 Asc                                                 
    2.700  44%   2.835 Asp                                                 
    0.336 189%   0.353 GABA                                                
    1.290  63%   1.354 Glc                                                 
    0.928  68%   0.974 GSH                                                 
    0.000 999%   0.000 Lac                                                 
    3.569  23%   3.747 NAAG                                                
    0.000 999%   0.000 PE                                                  
    1.525  17%   1.601 GPC+PCho                                            
   15.323   6%  16.087 NAA+NAAG                                            
   17.002   9%  17.850 Glu+Gln                                             
    7.620  10%   8.000 Cr+PCr                                              
   15.323   6%  16.087 NAA+NAAG                                            
    7.620  10%   8.000 Cr+PCr                                              
   17.002   9%  17.850 Glu+Gln                                             
   6 lines in following misc. output table
  FWHM = 0.041 ppm    S/N =   3                                            
  Data shift = 0.057 ppm                                                   
  Ph:-118 deg       0.0 deg/ppm                                            
  alphaB,S = 1.6E-01,   2.2E+01                                            
   19 spline knots.   Ns = 5(1)                                            
  ( 6) 2 infls.   ( 2) 2 extrs.                                            
  480 points on ppm-axis = NY
      4.100000     4.091866     4.083733     4.075600     4.067466     4.059333     4.051199     4.043066     4.034933     4.026799
      4.018666     4.010532     4.002399     3.994265     3.986132     3.977998     3.969864     3.961731     3.953597     3.945463
      3.937330     3.929196     3.921062     3.912929     3.904795     3.896662     3.888528     3.880394     3.872261     3.864127
      3.855993     3.847860     3.839726     3.831592     3.823459     3.815325     3.807191     3.799058     3.790924     3.782790
      3.774657     3.766523     3.758389     3.750256     3.742122     3.733989     3.725855     3.717721     3.709588     3.701454
      3.693320     3.685187     3.677053     3.668919     3.660786     3.652652     3.644518     3.636385     3.628251     3.620117
      3.611984     3.603850     3.595716     3.587583     3.579449     3.571316     3.563182     3.555048     3.546915     3.538781
      3.530647     3.522514     3.514380     3.506246     3.498113     3.489979     3.481845     3.473712     3.465578     3.457444
      3.449311     3.441177     3.433043     3.424910     3.416776     3.408643     3.400509     3.392375     3.384242     3.376108
      3.367974     3.359841     3.351707     3.343573     3.335440     3.327306     3.319172     3.311039     3.302905     3.294771
      3.286638     3.278504     3.270370     3.262237     3.254103     3.245970     3.237836     3.229702     3.221569     3.213435
      3.205301     3.197168     3.189034     3.180900     3.172767     3.164633     3.156499     3.148366     3.140232     3.132098
      3.123965     3.115831     3.107697     3.099564     3.091430     3.083297     3.075163     3.067029     3.058896     3.050762
      3.042628     3.034495     3.026361     3.018227     3.010094     3.001960     2.993826     2.985693     2.977559     2.969425
      2.961292     2.953158     2.945024     2.936891     2.928757     2.920624     2.912490     2.904356     2.896223     2.888089
      2.879955     2.871822     2.863688     2.855554     2.847421     2.839287     2.831153     2.823020     2.814886     2.806752
      2.798619     2.790485     2.782351     2.774218     2.766084     2.757951     2.749817     2.741683     2.733550     2.725416
      2.717282     2.709149     2.701015     2.692881     2.684748     2.676614     2.668480     2.660347     2.652213     2.644079
      2.635946     2.627812     2.619678     2.611545     2.603411     2.595278     2.587144     2.579010     2.570877     2.562743
      2.554609     2.546476     2.538342     2.530208     2.522075     2.513941     2.505807     2.497674     2.489540     2.481406
      2.473273     2.465139     2.457006     2.448872     2.440738     2.432605     2.424471     2.416337     2.408204     2.400070
      2.391936     2.383803     2.375669     2.367535     2.359402     2.351268     2.343134     2.335001     2.326867     2.318733
      2.310600     2.302466     2.294333     2.286199     2.278065     2.269932     2.261798     2.253664     2.245531     2.237397
      2.229263     2.221130     2.212996     2.204862     2.196729     2.188595     2.180461     2.172328     2.164194     2.156060
      2.147927     2.139793     2.131660     2.123526     2.115392     2.107259     2.099125     2.090991     2.082858     2.074724
      2.066590     2.058457     2.050323     2.042189     2.034056     2.025922     2.017788     2.009655     2.001521     1.993387
      1.985254     1.977120     1.968987     1.960853     1.952719     1.944586     1.936452     1.928318     1.920185     1.912051
      1.903917     1.895784     1.887650     1.879516     1.871383     1.863249     1.855115     1.846982     1.838848     1.830714
      1.822581     1.814447     1.806314     1.798180     1.790046     1.781913     1.773779     1.765645     1.757512     1.749378
      1.741244     1.733111     1.724977     1.716843     1.708710     1.700576     1.692442     1.684309     1.676175     1.668041
      1.659908     1.651774     1.643641     1.635507     1.627373     1.619240     1.611106     1.602972     1.594839     1.586705
      1.578571     1.570438     1.562304     1.554170     1.546037     1.537903     1.529769     1.521636     1.513502     1.505368
      1.497235     1.489101     1.480968     1.472834     1.464700     1.456567     1.448433     1.440299     1.432166     1.424032
      1.415898     1.407765     1.399631     1.391497     1.383364     1.375230     1.367096     1.358963     1.350829     1.342695
      1.334562     1.326428     1.318295     1.310161     1.302027     1.293894     1.285760     1.277626     1.269493     1.261359
      1.253225     1.245092     1.236958     1.228824     1.220691     1.212557     1.204423     1.196290     1.188156     1.180022
      1.171889     1.163755     1.155622     1.147488     1.139354     1.131221     1.123087     1.114953     1.106820     1.098686
      1.090552     1.082419     1.074285     1.066151     1.058018     1.049884     1.041750     1.033617     1.025483     1.017349
      1.009216     1.001082     0.992949     0.984815     0.976681     0.968548     0.960414     0.952280     0.944147     0.936013
      0.927879     0.919746     0.911612     0.903478     0.895345     0.887211     0.879077     0.870944     0.862810     0.854676
      0.846543     0.838409     0.830276     0.822142     0.814008     0.805875     0.797741     0.789607     0.781474     0.773340
      0.765206     0.757073     0.748939     0.740805     0.732672     0.724538     0.716404     0.708271     0.700137     0.692003
      0.683870     0.675736     0.667603     0.659469     0.651335     0.643202     0.635068     0.626934     0.618801     0.610667
      0.602533     0.594400     0.586266     0.578132     0.569999     0.561865     0.553731     0.545598     0.537464     0.529330
      0.521197     0.513063     0.504930     0.496796     0.488662     0.480529     0.472395     0.464261     0.456128     0.447994
      0.439861     0.431727     0.423593     0.415460     0.407326     0.399192     0.391059     0.382925     0.374792     0.366658
      0.358524     0.350391     0.342257     0.334124     0.325990     0.317856     0.309723     0.301589     0.293455     0.285322
      0.277188     0.269055     0.260921     0.252787     0.244654     0.236520     0.228386     0.220253     0.212119     0.203986
 NY phased data points follow
  -7.65560E+00 -8.44492E+00 -1.91560E+01 -3.45456E+01 -1.01395E+01 -3.67819E+01 -2.20771E+01 -4.69668E-01 -3.28364E+01 -2.98184E+01
  -3.03241E+01 -3.02627E+01 -2.91912E+01 -3.91601E+01 -1.25369E+01 -2.96979E+00 -4.18865E+01 -5.95406E+01 -7.61700E+01 -7.42285E+01
  -6.50940E+01 -6.15052E+01 -3.73040E+01 -2.30545E+01  2.52489E+00  1.23596E+01  7.52665E+00  2.53429E+01  2.30885E+01  1.41942E+01
   1.90962E+01  8.30353E+00  1.15234E+01  1.76365E+00  1.01096E+01  3.71101E+01  8.35429E+00 -2.98554E+00 -1.14173E+01 -3.32531E+01
  -5.42234E+01 -6.12177E+01 -5.95891E+01 -4.73583E+01 -6.20982E+00 -7.86419E+00  4.69782E+00  4.61791E+01  6.00555E+01  5.92559E+01
   4.65669E+01  3.65674E+01  4.84386E+01  3.60978E+01  1.90166E+01  3.59903E+01  1.89649E+01  2.25210E+01  1.84971E+01 -1.93517E+01
   2.06456E+00  2.16104E+01  1.81547E+01  2.94891E+01  4.83174E+01  7.07547E+01  5.80756E+01  3.67931E+01  2.62277E+01 -3.44971E+00
   2.99866E+00  2.06466E+01  1.69012E+01  1.84091E+01  4.49921E+01  4.71411E+01  3.58576E+01  5.34357E+01  3.08344E+01  4.42472E+01
   3.92642E+01  2.53023E+01  4.46615E+01  3.97820E+00 -3.55838E+00  3.88773E+00  1.14320E+01  1.36913E+01  5.09099E+00  2.20432E+01
   3.66073E+01  5.07591E+01  5.54046E+01  5.13302E+01  4.00667E+01  6.37149E+01  7.53401E+01  5.69638E+01  8.11763E+01  6.43276E+01
   4.69180E+01  7.02367E+01  4.16926E+01  2.92494E+01  2.05749E+01  1.15321E+01  1.49413E+01 -2.44247E+01 -5.71881E+01 -8.34955E+01
  -8.78910E+01 -9.10526E+01 -7.91551E+01 -6.10079E+01 -6.03683E+01 -4.32733E+01 -3.46272E+01 -2.31590E+01 -2.82440E+01 -2.05116E+01
  -1.44037E+01  1.07481E+01  1.23401E+01 -6.50153E+00  2.26750E+01  1.88203E+01  2.36843E+01  3.32213E+01  9.17968E+01  1.21476E+02
   9.84762E+01  8.98210E+01  2.05496E+01 -2.45055E+01 -4.63271E+01 -7.97881E+01 -9.21478E+01 -7.19577E+01 -7.72895E+01 -7.22588E+01
  -5.87248E+01 -6.30462E+01 -5.94464E+01 -7.04741E+01 -5.44520E+01 -7.07800E+01 -6.51504E+01 -6.01044E+01 -5.66218E+01 -3.47982E+01
  -5.91617E+01 -4.91384E+01 -4.22644E+01 -4.93275E+01 -5.14046E+01 -3.47394E+01 -2.94010E+01 -2.30198E+01 -2.35216E+01 -2.53271E+01
  -3.87709E+00 -2.18352E+01 -1.05659E+01 -4.36624E+00 -7.93394E+00 -1.91026E+01 -1.80943E+01 -2.03812E+01 -4.49235E+01 -9.33729E+00
   3.96431E+00  9.55267E+00  1.61593E+01  1.03380E+01  1.69384E+01  3.25352E+01  2.25265E+01  6.58017E+00  1.21034E+01 -3.79363E+00
  -1.70652E+01 -3.65594E+01 -2.18268E+01 -3.33308E+01 -4.34129E+01 -2.33130E+01 -4.45962E+01 -5.22413E+01 -4.68981E+01 -1.98163E+01
  -4.22390E+01 -3.15299E+01 -1.57742E-01 -3.20119E+01 -1.89099E+01 -2.02047E+01 -1.26229E+01 -1.30647E-01 -2.91513E+00 -3.72873E+00
  -4.49989E+00  1.65355E+01  1.21853E+01  2.96141E+01  3.45674E+01  9.64732E+00  1.42588E+01 -2.56536E+00 -2.68323E+01 -1.31223E+01
  -1.81802E+01 -4.07229E+01 -1.93527E+01 -5.33271E+00  1.37357E+01  4.75939E+01  5.94630E+01  5.69951E+01  4.69271E+01  4.71974E+01
   2.45862E+01  1.39242E+01  7.55448E+00 -8.11242E+00 -3.76006E+00  6.75835E-01  4.32179E+00 -8.84949E-01  4.13498E-01 -3.61067E+01
  -4.91227E+01 -2.97183E+01 -3.97524E+01 -3.34945E+01 -4.64662E+01 -6.32070E+01 -7.67012E+01 -7.87680E+01 -7.17096E+01 -7.97534E+01
  -7.42483E+01 -5.56125E+01 -4.81034E+01 -4.85630E+01 -3.21008E+01 -1.79936E+01 -2.09587E+01 -3.09663E+01 -1.89591E+01 -2.76211E+01
  -2.33176E+01 -5.50699E+00 -2.02525E+01 -5.74277E+01 -1.19644E+02 -7.42296E+01 -3.20509E+01 -1.08057E+01  1.24734E+02  2.08723E+02
   1.92315E+02  1.77831E+02  1.51538E+02  1.28336E+02  1.46684E+02  1.15925E+02  1.04142E+02  1.08193E+02  1.02724E+02  1.15035E+02
   8.46360E+01  8.94342E+01  9.00361E+01  8.41917E+01  9.64354E+01  8.78918E+01  8.18361E+01  7.79701E+01  7.98906E+01  9.86971E+01
   8.63563E+01  7.73454E+01  1.04131E+02  7.43370E+01  7.66161E+01  7.87396E+01  7.40777E+01  7.82680E+01  6.32344E+01  8.08475E+01
   6.35346E+01  7.96038E+01  8.60381E+01  8.73292E+01  7.64565E+01  6.62651E+01  9.08764E+01  6.04139E+01  7.89815E+01  8.40205E+01
   8.12315E+01  8.35391E+01  8.01312E+01  9.89388E+01  8.68749E+01  9.48377E+01  1.03860E+02  1.07998E+02  1.11265E+02  1.21184E+02
   1.04916E+02  1.01218E+02  1.11565E+02  9.34734E+01  7.41755E+01  6.24207E+01  8.38263E+01  6.64664E+01  7.36297E+01  6.09917E+01
   3.45632E+01  5.01852E+01  1.30624E+01  4.26288E+00 -6.66849E+00 -2.21121E+01 -4.40900E+01 -6.59328E+01 -4.61039E+01 -5.39214E+01
  -6.82225E+01 -9.00417E+01 -1.03193E+02 -8.98900E+01 -9.53630E+01 -9.77967E+01 -7.45113E+01 -6.09179E+01 -5.34411E+01 -5.87075E+01
  -5.81772E+01 -5.04981E+01 -5.70875E+01 -5.07550E+01 -4.56020E+01 -8.61281E+00  4.58891E+00 -1.62740E+01 -4.67569E+00  2.21738E+00
   1.38865E+01  2.12030E+01  8.49076E+00 -1.03840E+01 -9.77349E+00 -2.43509E+00 -1.35449E+01 -2.01639E+01 -2.55184E+01 -1.56084E+01
  -8.96691E+00 -4.42796E+01 -1.86892E+01  1.53174E+01 -1.80801E+01  1.31207E+00 -9.52567E-01 -4.73663E+00  1.14274E+01  6.50161E+00
   2.52528E+01  1.07072E+01  2.31690E+01  3.30659E+01  1.68504E+01  2.50361E+01  3.11787E+01  3.49374E+01  4.75877E+01  6.27312E+01
   6.83206E+01  8.33606E+01  7.75218E+01  9.88933E+01  1.10868E+02  1.22045E+02  1.45109E+02  1.23337E+02  1.44314E+02  1.41901E+02
   1.40357E+02  1.18111E+02  7.52544E+01  1.03274E+02  8.50483E+01  6.32229E+01  7.75408E+01  5.72161E+01  3.01510E+01  3.90064E+01
   3.34262E+01  3.00631E+01  3.51339E+01  4.55064E+00 -1.18099E+01 -2.50494E+01 -1.89767E+01 -2.26989E+01 -2.45534E+01  4.17034E-04
  -1.89011E+01 -8.92173E+00 -1.05618E+01 -3.21515E+01 -1.14359E+01 -2.85216E+01 -2.08443E+01 -6.30127E+00 -1.99288E+01 -3.21591E+00
  -8.70193E+00 -5.04136E+00  4.91882E+00 -1.09052E+01 -2.99214E+01 -2.17144E+01 -1.17680E+01 -2.02892E+01  3.72487E+00 -6.27406E+00
  -1.32587E+01 -4.27549E+00 -1.70788E+01 -1.54695E+01 -3.04041E+01 -7.45921E+00  7.80324E+00 -1.44006E+01  2.74159E+00  5.44060E+00
  -5.22849E+00 -1.01846E+00 -4.68420E+00 -2.09644E+00  1.87023E+00 -7.06281E+00 -1.68688E-01  1.61036E+01 -1.26109E+01 -2.12245E+01
   7.35013E+00  1.24477E+00 -6.03843E+00 -1.88711E+00  1.46272E+00 -1.20285E+01  1.25712E+01  2.15104E+01 -1.05748E+01 -3.23437E+00
  -1.86971E+01 -2.36218E+00 -9.77237E+00 -9.11329E+00  2.17765E+01 -1.14186E+01 -7.72352E+00 -1.72067E+00  2.13723E+00 -1.31380E+01
  -1.43168E+01  8.59799E-01 -9.12888E+00  1.27244E+01 -4.46676E+00 -9.26065E+00  1.43125E+01  6.04018E+00 -2.33597E+00  1.23737E+01
 NY points of the fit to the data follow
  -1.13401E+01 -1.70450E+01 -2.39764E+01 -2.82517E+01 -2.79895E+01 -2.42355E+01 -1.90993E+01 -1.55514E+01 -1.58136E+01 -1.89888E+01
  -2.23976E+01 -2.47408E+01 -2.65959E+01 -2.87621E+01 -3.11690E+01 -3.33056E+01 -3.91227E+01 -5.22153E+01 -6.69363E+01 -7.45781E+01
  -7.19059E+01 -5.82659E+01 -3.61728E+01 -1.40856E+01  1.12939E+00  1.05428E+01  1.76610E+01  2.29108E+01  2.67852E+01  2.97407E+01
   3.12521E+01  3.09983E+01  2.86408E+01  2.47312E+01  1.94294E+01  1.25570E+01  2.93797E+00 -1.19955E+01 -3.18073E+01 -5.12159E+01
  -6.44085E+01 -6.72308E+01 -5.77058E+01 -3.87694E+01 -1.67342E+01  3.47081E+00  2.00034E+01  3.16758E+01  3.87720E+01  4.23629E+01
   4.26150E+01  3.99142E+01  3.47435E+01  2.87509E+01  2.49516E+01  2.23853E+01  1.82681E+01  1.45095E+01  1.20664E+01  9.32552E+00
   8.34093E+00  1.19967E+01  1.84287E+01  2.56906E+01  3.50703E+01  4.35606E+01  4.42853E+01  3.74835E+01  2.79236E+01  1.77826E+01
   9.83191E+00  7.97305E+00  1.23763E+01  1.95277E+01  2.77123E+01  3.67018E+01  4.49125E+01  5.06304E+01  5.40780E+01  5.47004E+01
   5.05756E+01  4.11043E+01  2.78135E+01  1.39093E+01  3.41772E+00 -5.94005E-01  2.17225E+00  9.75346E+00  1.93218E+01  2.86864E+01
   3.65217E+01  4.28963E+01  4.80949E+01  5.21989E+01  5.58637E+01  5.88886E+01  6.05415E+01  6.17948E+01  6.41596E+01  6.59079E+01
   6.61524E+01  6.39256E+01  5.56769E+01  3.97641E+01  2.35842E+01  1.13917E+01 -3.25588E+00 -2.44535E+01 -4.82667E+01 -7.11354E+01
  -8.85565E+01 -9.32665E+01 -8.49778E+01 -7.10593E+01 -5.77528E+01 -4.57124E+01 -3.54144E+01 -2.67555E+01 -1.91382E+01 -1.21213E+01
  -5.27181E+00  1.85042E+00  9.71866E+00  1.90650E+01  2.99134E+01  4.02626E+01  4.77447E+01  6.13279E+01  8.48362E+01  1.02364E+02
   9.86911E+01  7.39627E+01  3.25451E+01 -1.57177E+01 -5.27221E+01 -6.92620E+01 -7.31710E+01 -7.33689E+01 -7.10873E+01 -6.87717E+01
  -6.72065E+01 -6.61473E+01 -6.54646E+01 -6.48724E+01 -6.38766E+01 -6.21671E+01 -5.96957E+01 -5.66275E+01 -5.33323E+01 -5.02530E+01
  -4.76243E+01 -4.53026E+01 -4.28729E+01 -3.99355E+01 -3.66658E+01 -3.37542E+01 -3.17883E+01 -3.05813E+01 -2.92256E+01 -2.72400E+01
  -2.51508E+01 -2.38052E+01 -2.32507E+01 -2.29426E+01 -2.24588E+01 -2.19687E+01 -2.23738E+01 -2.35123E+01 -2.23281E+01 -1.58694E+01
  -5.91593E+00  2.73761E+00  7.36448E+00  8.76119E+00  9.50908E+00  1.13394E+01  1.35535E+01  1.34188E+01  8.54289E+00 -7.42069E-01
  -1.12723E+01 -2.01681E+01 -2.67040E+01 -3.12706E+01 -3.40227E+01 -3.53348E+01 -3.61198E+01 -3.60043E+01 -3.48688E+01 -3.46654E+01
  -3.45400E+01 -3.14883E+01 -2.66777E+01 -2.20517E+01 -1.69946E+01 -1.13440E+01 -6.81557E+00 -4.20745E+00 -2.31921E+00 -1.73475E-01
   2.75756E+00  7.06003E+00  1.23963E+01  1.77963E+01  2.08722E+01  1.95001E+01  1.46188E+01  7.02081E+00 -3.03014E+00 -1.30735E+01
  -2.16623E+01 -2.59225E+01 -2.24676E+01 -1.12166E+01  5.27573E+00  2.39401E+01  3.96190E+01  4.77432E+01  4.83057E+01  4.43324E+01
   3.85703E+01  3.33775E+01  3.09307E+01  2.99157E+01  2.87488E+01  2.62288E+01  2.14018E+01  1.40301E+01  4.04158E+00 -8.01066E+00
  -2.10555E+01 -3.48217E+01 -4.81784E+01 -5.94140E+01 -6.82930E+01 -7.44311E+01 -7.71354E+01 -7.79535E+01 -7.77916E+01 -7.62157E+01
  -7.24478E+01 -6.58139E+01 -5.59061E+01 -4.35288E+01 -3.19524E+01 -2.36807E+01 -1.93228E+01 -1.85676E+01 -2.22754E+01 -3.28515E+01
  -4.49983E+01 -4.76499E+01 -5.44129E+01 -7.60276E+01 -9.08825E+01 -7.89621E+01 -4.31050E+01  1.32574E+01  8.11617E+01  1.33717E+02
   1.54561E+02  1.55750E+02  1.51063E+02  1.42582E+02  1.34322E+02  1.27060E+02  1.20436E+02  1.14472E+02  1.09280E+02  1.05066E+02
   1.02015E+02  1.00016E+02  9.87516E+01  9.79331E+01  9.73876E+01  9.69403E+01  9.64701E+01  9.58591E+01  9.48881E+01  9.34906E+01
   9.17057E+01  8.95412E+01  8.71293E+01  8.45760E+01  8.19092E+01  7.91236E+01  7.61307E+01  7.28560E+01  6.91934E+01  6.50194E+01
   6.03052E+01  5.52807E+01  5.03689E+01  4.61004E+01  4.30689E+01  4.16139E+01  4.16249E+01  4.28137E+01  4.48944E+01  4.75447E+01
   5.05460E+01  5.37537E+01  5.69494E+01  5.99078E+01  6.26825E+01  6.54663E+01  6.84086E+01  7.15527E+01  7.47764E+01  7.79355E+01
   8.10156E+01  8.39653E+01  8.67738E+01  8.95360E+01  9.21952E+01  9.45298E+01  9.68985E+01  1.02110E+02  1.08794E+02  1.09609E+02
   1.00371E+02  7.83357E+01  4.23870E+01  8.68691E-01 -3.31544E+01 -5.40561E+01 -6.26815E+01 -6.18368E+01 -5.70218E+01 -5.44465E+01
  -5.44914E+01 -5.49159E+01 -5.49080E+01 -5.31343E+01 -4.93678E+01 -4.41818E+01 -3.86154E+01 -3.35593E+01 -2.92582E+01 -2.54642E+01
  -2.16609E+01 -1.72763E+01 -1.22611E+01 -7.17757E+00 -2.59144E+00  1.17095E+00  3.89057E+00  5.52875E+00  6.24982E+00  6.00743E+00
   4.39041E+00  1.26233E+00 -3.03711E+00 -7.94580E+00 -1.27220E+01 -1.65296E+01 -1.88355E+01 -1.95158E+01 -1.86879E+01 -1.65425E+01
  -1.33446E+01 -9.42955E+00 -5.08391E+00 -6.19724E-01  3.72365E+00  7.88693E+00  1.18937E+01  1.58130E+01  1.97197E+01  2.36200E+01
   2.74483E+01  3.13460E+01  3.55496E+01  4.00736E+01  4.50077E+01  5.06371E+01  5.69604E+01  6.38024E+01  7.12818E+01  7.95218E+01
   8.84277E+01  9.79787E+01  1.08069E+02  1.18046E+02  1.26710E+02  1.32534E+02  1.34087E+02  1.30801E+02  1.23227E+02  1.12729E+02
   1.01103E+02  9.00540E+01  8.03283E+01  7.16411E+01  6.34117E+01  5.49079E+01  4.54933E+01  3.51394E+01  2.45534E+01  1.44749E+01
   5.45999E+00 -2.05961E+00 -7.89789E+00 -1.22288E+01 -1.53117E+01 -1.74281E+01 -1.89553E+01 -2.02009E+01 -2.12435E+01 -2.19946E+01
  -2.24592E+01 -2.26676E+01 -2.25854E+01 -2.22458E+01 -2.18911E+01 -2.16381E+01 -2.13331E+01 -2.09087E+01 -2.04632E+01 -1.99837E+01
  -1.94136E+01 -1.88328E+01 -1.83462E+01 -1.79456E+01 -1.75600E+01 -1.71499E+01 -1.66711E+01 -1.60675E+01 -1.53598E+01 -1.46763E+01
  -1.41783E+01 -1.38465E+01 -1.35732E+01 -1.32575E+01 -1.28219E+01 -1.22212E+01 -1.15404E+01 -1.08649E+01 -1.01867E+01 -9.52910E+00
  -8.96967E+00 -8.55207E+00 -8.24344E+00 -8.00641E+00 -7.76452E+00 -7.42311E+00 -6.91692E+00 -6.35475E+00 -5.86639E+00 -5.44401E+00
  -5.04385E+00 -4.63363E+00 -4.15076E+00 -3.56825E+00 -2.95555E+00 -2.38975E+00 -1.84477E+00 -1.28942E+00 -7.63130E-01 -3.12365E-01
   6.64390E-02  3.56907E-01  5.64094E-01  7.78151E-01  1.15764E+00  1.75603E+00  2.52358E+00  3.33298E+00  3.99053E+00  4.39467E+00
   4.62738E+00  4.77327E+00  4.92919E+00  5.24086E+00  5.69480E+00  6.12316E+00  6.48834E+00  6.81097E+00  7.08140E+00  7.42546E+00
 NY background values follow
     1.565E+01    1.562E+01    1.558E+01    1.555E+01    1.552E+01    1.549E+01    1.545E+01    1.542E+01    1.539E+01    1.536E+01
     1.532E+01    1.529E+01    1.526E+01    1.523E+01    1.520E+01    1.517E+01    1.513E+01    1.510E+01    1.507E+01    1.504E+01
     1.501E+01    1.498E+01    1.494E+01    1.491E+01    1.488E+01    1.485E+01    1.482E+01    1.479E+01    1.475E+01    1.472E+01
     1.469E+01    1.466E+01    1.463E+01    1.459E+01    1.456E+01    1.453E+01    1.450E+01    1.446E+01    1.443E+01    1.440E+01
     1.436E+01    1.433E+01    1.429E+01    1.426E+01    1.422E+01    1.419E+01    1.415E+01    1.412E+01    1.408E+01    1.404E+01
     1.401E+01    1.397E+01    1.393E+01    1.389E+01    1.385E+01    1.381E+01    1.377E+01    1.373E+01    1.369E+01    1.364E+01
     1.360E+01    1.355E+01    1.351E+01    1.346E+01    1.342E+01    1.337E+01    1.333E+01    1.328E+01    1.323E+01    1.318E+01
     1.314E+01    1.309E+01    1.304E+01    1.299E+01    1.294E+01    1.290E+01    1.285E+01    1.280E+01    1.276E+01    1.271E+01
     1.267E+01    1.262E+01    1.258E+01    1.253E+01    1.249E+01    1.245E+01    1.241E+01    1.236E+01    1.233E+01    1.229E+01
     1.225E+01    1.221E+01    1.218E+01    1.215E+01    1.211E+01    1.208E+01    1.205E+01    1.202E+01    1.200E+01    1.197E+01
     1.195E+01    1.192E+01    1.190E+01    1.188E+01    1.187E+01    1.185E+01    1.184E+01    1.182E+01    1.181E+01    1.180E+01
     1.180E+01    1.179E+01    1.179E+01    1.179E+01    1.179E+01    1.179E+01    1.179E+01    1.180E+01    1.181E+01    1.182E+01
     1.183E+01    1.185E+01    1.186E+01    1.188E+01    1.191E+01    1.193E+01    1.195E+01    1.198E+01    1.201E+01    1.204E+01
     1.207E+01    1.210E+01    1.214E+01    1.218E+01    1.221E+01    1.225E+01    1.229E+01    1.233E+01    1.238E+01    1.242E+01
     1.246E+01    1.251E+01    1.256E+01    1.260E+01    1.265E+01    1.270E+01    1.275E+01    1.280E+01    1.285E+01    1.290E+01
     1.295E+01    1.300E+01    1.305E+01    1.310E+01    1.315E+01    1.320E+01    1.326E+01    1.331E+01    1.336E+01    1.341E+01
     1.346E+01    1.351E+01    1.356E+01    1.361E+01    1.366E+01    1.371E+01    1.376E+01    1.380E+01    1.385E+01    1.390E+01
     1.394E+01    1.399E+01    1.403E+01    1.407E+01    1.412E+01    1.416E+01    1.420E+01    1.424E+01    1.427E+01    1.431E+01
     1.434E+01    1.438E+01    1.441E+01    1.444E+01    1.447E+01    1.450E+01    1.453E+01    1.455E+01    1.458E+01    1.460E+01
     1.462E+01    1.464E+01    1.466E+01    1.468E+01    1.470E+01    1.472E+01    1.473E+01    1.474E+01    1.476E+01    1.477E+01
     1.478E+01    1.479E+01    1.480E+01    1.481E+01    1.482E+01    1.482E+01    1.483E+01    1.483E+01    1.483E+01    1.484E+01
     1.484E+01    1.484E+01    1.484E+01    1.484E+01    1.483E+01    1.483E+01    1.482E+01    1.482E+01    1.481E+01    1.480E+01
     1.478E+01    1.477E+01    1.475E+01    1.473E+01    1.471E+01    1.469E+01    1.466E+01    1.463E+01    1.460E+01    1.456E+01
     1.452E+01    1.448E+01    1.444E+01    1.439E+01    1.434E+01    1.428E+01    1.422E+01    1.416E+01    1.409E+01    1.402E+01
     1.394E+01    1.386E+01    1.378E+01    1.369E+01    1.360E+01    1.350E+01    1.340E+01    1.329E+01    1.318E+01    1.306E+01
     1.294E+01    1.282E+01    1.269E+01    1.255E+01    1.241E+01    1.227E+01    1.212E+01    1.196E+01    1.180E+01    1.164E+01
     1.147E+01    1.129E+01    1.111E+01    1.093E+01    1.074E+01    1.054E+01    1.034E+01    1.013E+01    9.923E+00    9.705E+00
     9.483E+00    9.255E+00    9.021E+00    8.782E+00    8.538E+00    8.288E+00    8.033E+00    7.773E+00    7.507E+00    7.237E+00
     6.961E+00    6.679E+00    6.393E+00    6.102E+00    5.805E+00    5.504E+00    5.197E+00    4.885E+00    4.569E+00    4.247E+00
     3.921E+00    3.589E+00    3.253E+00    2.912E+00    2.566E+00    2.216E+00    1.860E+00    1.500E+00    1.136E+00    7.664E-01
     3.923E-01    1.406E-02   -3.680E-01   -7.533E-01   -1.141E+00   -1.532E+00   -1.924E+00   -2.317E+00   -2.711E+00   -3.106E+00
    -3.500E+00   -3.893E+00   -4.285E+00   -4.675E+00   -5.063E+00   -5.448E+00   -5.830E+00   -6.208E+00   -6.582E+00   -6.951E+00
    -7.314E+00   -7.672E+00   -8.024E+00   -8.368E+00   -8.705E+00   -9.035E+00   -9.355E+00   -9.667E+00   -9.970E+00   -1.026E+01
    -1.055E+01   -1.082E+01   -1.108E+01   -1.133E+01   -1.157E+01   -1.180E+01   -1.202E+01   -1.222E+01   -1.242E+01   -1.260E+01
    -1.278E+01   -1.294E+01   -1.309E+01   -1.323E+01   -1.336E+01   -1.348E+01   -1.358E+01   -1.368E+01   -1.376E+01   -1.383E+01
    -1.389E+01   -1.394E+01   -1.398E+01   -1.400E+01   -1.401E+01   -1.401E+01   -1.400E+01   -1.398E+01   -1.394E+01   -1.390E+01
    -1.384E+01   -1.376E+01   -1.368E+01   -1.359E+01   -1.348E+01   -1.336E+01   -1.324E+01   -1.310E+01   -1.295E+01   -1.279E+01
    -1.263E+01   -1.245E+01   -1.227E+01   -1.208E+01   -1.188E+01   -1.167E+01   -1.146E+01   -1.124E+01   -1.101E+01   -1.078E+01
    -1.054E+01   -1.029E+01   -1.004E+01   -9.787E+00   -9.526E+00   -9.261E+00   -8.993E+00   -8.720E+00   -8.444E+00   -8.165E+00
    -7.883E+00   -7.598E+00   -7.311E+00   -7.022E+00   -6.731E+00   -6.438E+00   -6.144E+00   -5.848E+00   -5.552E+00   -5.254E+00
    -4.956E+00   -4.657E+00   -4.357E+00   -4.058E+00   -3.759E+00   -3.460E+00   -3.161E+00   -2.864E+00   -2.567E+00   -2.271E+00
    -1.977E+00   -1.684E+00   -1.393E+00   -1.104E+00   -8.171E-01   -5.325E-01   -2.504E-01    2.882E-02    3.051E-01    5.782E-01
     8.481E-01    1.114E+00    1.378E+00    1.637E+00    1.894E+00    2.147E+00    2.398E+00    2.645E+00    2.889E+00    3.130E+00
     3.369E+00    3.604E+00    3.837E+00    4.067E+00    4.294E+00    4.519E+00    4.741E+00    4.960E+00    5.177E+00    5.391E+00
     5.603E+00    5.813E+00    6.020E+00    6.225E+00    6.428E+00    6.629E+00    6.827E+00    7.024E+00    7.219E+00    7.411E+00
     7.602E+00    7.791E+00    7.978E+00    8.163E+00    8.347E+00    8.530E+00    8.710E+00    8.890E+00    9.068E+00    9.245E+00
     9.421E+00    9.596E+00    9.770E+00    9.943E+00    1.012E+01    1.029E+01    1.046E+01    1.063E+01    1.080E+01    1.097E+01
     1.114E+01    1.131E+01    1.147E+01    1.164E+01    1.181E+01    1.198E+01    1.215E+01    1.232E+01    1.249E+01    1.266E+01
 Mac      Conc. = 3.46E-04
  -8.87677E+00 -9.30031E+00 -9.64821E+00 -1.01798E+01 -1.11302E+01 -1.26228E+01 -1.45429E+01 -1.65970E+01 -1.84482E+01 -1.97638E+01
  -2.04174E+01 -2.07182E+01 -2.14552E+01 -2.31312E+01 -2.51051E+01 -2.62789E+01 -2.60050E+01 -2.38585E+01 -1.99047E+01 -1.50788E+01
  -1.05345E+01 -6.68310E+00 -3.58058E+00 -1.32312E+00  3.87199E-01  2.13018E+00  4.13327E+00  6.27982E+00  8.46031E+00  1.05640E+01
   1.23722E+01  1.36015E+01  1.41212E+01  1.40627E+01  1.39807E+01  1.45766E+01  1.60778E+01  1.80807E+01  1.99414E+01  2.11645E+01
   2.17691E+01  2.22691E+01  2.31173E+01  2.43007E+01  2.55239E+01  2.63999E+01  2.65564E+01  2.59366E+01  2.47998E+01  2.33767E+01
   2.18825E+01  2.05231E+01  1.93079E+01  1.83392E+01  1.78646E+01  1.79531E+01  1.85164E+01  1.96224E+01  2.11575E+01  2.27830E+01
   2.42323E+01  2.52468E+01  2.55361E+01  2.51606E+01  2.44299E+01  2.34678E+01  2.23567E+01  2.14937E+01  2.13279E+01  2.20319E+01
   2.36642E+01  2.59711E+01  2.83537E+01  3.02192E+01  3.13178E+01  3.16380E+01  3.13370E+01  3.06394E+01  2.97127E+01  2.87641E+01
   2.80088E+01  2.76109E+01  2.75910E+01  2.80020E+01  2.87613E+01  2.96501E+01  3.05136E+01  3.13409E+01  3.20720E+01  3.26859E+01
   3.32625E+01  3.37225E+01  3.38626E+01  3.34598E+01  3.23130E+01  3.03032E+01  2.77288E+01  2.50286E+01  2.24018E+01  1.99219E+01
   1.75633E+01  1.50477E+01  1.18084E+01  7.22948E+00  1.10248E+00 -6.15563E+00 -1.35409E+01 -1.97717E+01 -2.37896E+01 -2.52245E+01
