 LCModel (Version 6.3-1N) Copyright: S.W. Provencher.          Ref.: Magn. Reson. Med. 30:672-679 (1993).                
 Slice_N1@22_16  28-Feb-2025 11:41:11
 27 lines in following concentration table = NCONC+1
    Conc.  %SD /Cr+PCr  Metabolite                                         
 4.27E-04   5% 4.2E-04 Mac                                                 
    4.743 126%   4.614 Cr                                                  
    3.481 171%   3.386 PCr                                                 
    6.343  30%   6.170 Ins                                                 
    0.000 999%   0.000 NAA                                                 
   14.940  17%  14.532 Tau                                                 
    0.000 999%   0.000 PCho                                                
    1.540  34%   1.498 GPC                                                 
   12.011  18%  11.683 Glu                                                 
    0.847 187%   0.824 Gln                                                 
    0.000 999%   0.000 Ala                                                 
    0.000 999%   0.000 Asc                                                 
    1.249  78%   1.215 Asp                                                 
    0.578 100%   0.562 GABA                                                
    0.643  93%   0.625 Glc                                                 
    1.670  51%   1.624 GSH                                                 
   46.623   4%  45.350 Lac                                                 
    5.224  26%   5.081 NAAG                                                
    0.000 999%   0.000 PE                                                  
    1.540  34%   1.498 GPC+PCho                                            
    5.224  26%   5.081 NAA+NAAG                                            
   12.859  20%  12.508 Glu+Gln                                             
    8.225  17%   8.000 Cr+PCr                                              
    5.224  26%   5.081 NAA+NAAG                                            
    8.225  17%   8.000 Cr+PCr                                              
   12.859  20%  12.508 Glu+Gln                                             
   6 lines in following misc. output table
  FWHM = 0.098 ppm    S/N =   4                                            
  Data shift =-0.041 ppm                                                   
  Ph:-108 deg       0.0 deg/ppm                                            
  alphaB,S = 8.7E-02,   1.2E+02                                            
   19 spline knots.   Ns = 9(1)                                            
  (11) 4 infls.   (11) 1 extrs.                                            
  480 points on ppm-axis = NY
      4.100000     4.091866     4.083733     4.075600     4.067466     4.059333     4.051199     4.043066     4.034933     4.026799
      4.018666     4.010532     4.002399     3.994265     3.986132     3.977998     3.969864     3.961731     3.953597     3.945463
      3.937330     3.929196     3.921062     3.912929     3.904795     3.896662     3.888528     3.880394     3.872261     3.864127
      3.855993     3.847860     3.839726     3.831592     3.823459     3.815325     3.807191     3.799058     3.790924     3.782790
      3.774657     3.766523     3.758389     3.750256     3.742122     3.733989     3.725855     3.717721     3.709588     3.701454
      3.693320     3.685187     3.677053     3.668919     3.660786     3.652652     3.644518     3.636385     3.628251     3.620117
      3.611984     3.603850     3.595716     3.587583     3.579449     3.571316     3.563182     3.555048     3.546915     3.538781
      3.530647     3.522514     3.514380     3.506246     3.498113     3.489979     3.481845     3.473712     3.465578     3.457444
      3.449311     3.441177     3.433043     3.424910     3.416776     3.408643     3.400509     3.392375     3.384242     3.376108
      3.367974     3.359841     3.351707     3.343573     3.335440     3.327306     3.319172     3.311039     3.302905     3.294771
      3.286638     3.278504     3.270370     3.262237     3.254103     3.245970     3.237836     3.229702     3.221569     3.213435
      3.205301     3.197168     3.189034     3.180900     3.172767     3.164633     3.156499     3.148366     3.140232     3.132098
      3.123965     3.115831     3.107697     3.099564     3.091430     3.083297     3.075163     3.067029     3.058896     3.050762
      3.042628     3.034495     3.026361     3.018227     3.010094     3.001960     2.993826     2.985693     2.977559     2.969425
      2.961292     2.953158     2.945024     2.936891     2.928757     2.920624     2.912490     2.904356     2.896223     2.888089
      2.879955     2.871822     2.863688     2.855554     2.847421     2.839287     2.831153     2.823020     2.814886     2.806752
      2.798619     2.790485     2.782351     2.774218     2.766084     2.757951     2.749817     2.741683     2.733550     2.725416
      2.717282     2.709149     2.701015     2.692881     2.684748     2.676614     2.668480     2.660347     2.652213     2.644079
      2.635946     2.627812     2.619678     2.611545     2.603411     2.595278     2.587144     2.579010     2.570877     2.562743
      2.554609     2.546476     2.538342     2.530208     2.522075     2.513941     2.505807     2.497674     2.489540     2.481406
      2.473273     2.465139     2.457006     2.448872     2.440738     2.432605     2.424471     2.416337     2.408204     2.400070
      2.391936     2.383803     2.375669     2.367535     2.359402     2.351268     2.343134     2.335001     2.326867     2.318733
      2.310600     2.302466     2.294333     2.286199     2.278065     2.269932     2.261798     2.253664     2.245531     2.237397
      2.229263     2.221130     2.212996     2.204862     2.196729     2.188595     2.180461     2.172328     2.164194     2.156060
      2.147927     2.139793     2.131660     2.123526     2.115392     2.107259     2.099125     2.090991     2.082858     2.074724
      2.066590     2.058457     2.050323     2.042189     2.034056     2.025922     2.017788     2.009655     2.001521     1.993387
      1.985254     1.977120     1.968987     1.960853     1.952719     1.944586     1.936452     1.928318     1.920185     1.912051
      1.903917     1.895784     1.887650     1.879516     1.871383     1.863249     1.855115     1.846982     1.838848     1.830714
      1.822581     1.814447     1.806314     1.798180     1.790046     1.781913     1.773779     1.765645     1.757512     1.749378
      1.741244     1.733111     1.724977     1.716843     1.708710     1.700576     1.692442     1.684309     1.676175     1.668041
      1.659908     1.651774     1.643641     1.635507     1.627373     1.619240     1.611106     1.602972     1.594839     1.586705
      1.578571     1.570438     1.562304     1.554170     1.546037     1.537903     1.529769     1.521636     1.513502     1.505368
      1.497235     1.489101     1.480968     1.472834     1.464700     1.456567     1.448433     1.440299     1.432166     1.424032
      1.415898     1.407765     1.399631     1.391497     1.383364     1.375230     1.367096     1.358963     1.350829     1.342695
      1.334562     1.326428     1.318295     1.310161     1.302027     1.293894     1.285760     1.277626     1.269493     1.261359
      1.253225     1.245092     1.236958     1.228824     1.220691     1.212557     1.204423     1.196290     1.188156     1.180022
      1.171889     1.163755     1.155622     1.147488     1.139354     1.131221     1.123087     1.114953     1.106820     1.098686
      1.090552     1.082419     1.074285     1.066151     1.058018     1.049884     1.041750     1.033617     1.025483     1.017349
      1.009216     1.001082     0.992949     0.984815     0.976681     0.968548     0.960414     0.952280     0.944147     0.936013
      0.927879     0.919746     0.911612     0.903478     0.895345     0.887211     0.879077     0.870944     0.862810     0.854676
      0.846543     0.838409     0.830276     0.822142     0.814008     0.805875     0.797741     0.789607     0.781474     0.773340
      0.765206     0.757073     0.748939     0.740805     0.732672     0.724538     0.716404     0.708271     0.700137     0.692003
      0.683870     0.675736     0.667603     0.659469     0.651335     0.643202     0.635068     0.626934     0.618801     0.610667
      0.602533     0.594400     0.586266     0.578132     0.569999     0.561865     0.553731     0.545598     0.537464     0.529330
      0.521197     0.513063     0.504930     0.496796     0.488662     0.480529     0.472395     0.464261     0.456128     0.447994
      0.439861     0.431727     0.423593     0.415460     0.407326     0.399192     0.391059     0.382925     0.374792     0.366658
      0.358524     0.350391     0.342257     0.334124     0.325990     0.317856     0.309723     0.301589     0.293455     0.285322
      0.277188     0.269055     0.260921     0.252787     0.244654     0.236520     0.228386     0.220253     0.212119     0.203986
 NY phased data points follow
  -2.00574E+01 -4.30188E+01 -2.51239E+01 -2.45326E+01 -3.84620E+01 -2.95308E+01 -3.01123E+01 -2.21839E+01 -3.94682E+01 -4.91038E+01
  -4.19741E+01 -4.40478E+01 -5.25168E+01 -5.48168E+01 -5.53105E+01 -7.08562E+01 -6.91465E+01 -6.93405E+01 -6.86369E+01 -6.06219E+01
  -6.78788E+01 -7.46707E+01 -7.64308E+01 -7.04560E+01 -6.52075E+01 -6.72772E+01 -5.26750E+01 -4.45223E+01 -3.35828E+01 -1.61995E+01
  -3.54399E+01 -3.05391E+01 -1.17122E+01 -2.09075E+01 -2.12336E+01 -2.53395E+01 -3.57123E+01 -4.05125E+01 -4.66480E+01 -3.13830E+01
  -2.85605E+01 -5.28874E+01 -5.63359E+01 -5.79644E+01 -4.53003E+01 -2.93459E+01 -2.41673E+01 -2.56684E+01 -1.05683E+01  1.15939E+01
   3.89532E+00  1.86597E+01  1.34424E+01  1.00450E+01  1.15746E+01 -2.28778E+00  1.71213E+00 -1.04276E+00 -4.01652E+00 -2.41135E+01
  -2.89776E+01 -2.98978E+01 -1.43784E+01 -1.62279E-01 -1.18241E+01 -1.05333E+01 -1.51229E+01 -2.75938E+00 -1.83752E+00 -1.68227E+01
  -3.18307E+01 -2.25491E+01 -1.82141E+01 -1.96222E+01 -1.58166E+00 -1.29679E+01 -6.81632E+00  2.90284E+00  4.71416E+00  1.15964E+00
   5.06071E+00  1.03236E+01  2.34589E+00  3.07026E+00 -1.74772E+01 -2.01583E+01 -2.34751E+01 -3.15699E+01 -2.17209E+01 -1.44774E+01
  -7.27730E+00 -2.77247E-01  1.00385E+01  2.01060E+01  2.80680E+01  3.06981E+01  5.10540E+01  4.52353E+01  3.34283E+01  4.77426E+01
   3.59394E+01  3.63625E+01  4.11978E+01  3.38874E+01  3.15263E+01  9.43077E+00 -2.18620E+01 -3.85036E+01 -5.36198E+01 -6.38327E+01
  -7.59230E+01 -1.06189E+02 -1.31182E+02 -1.36239E+02 -1.28336E+02 -1.09689E+02 -7.03352E+01 -6.52254E+01 -7.03966E+01 -2.76344E+01
  -5.62321E+00  5.97558E-01 -6.08870E+00 -1.75683E+01  3.05079E+00  1.39655E+01  1.14612E+01  1.70436E+01  3.57881E+01  3.13808E+01
   2.52284E+01  4.37332E+01  3.68110E+01  2.49268E+01  3.56549E+00 -1.82396E+01 -3.43221E+01 -5.63374E+01 -5.21496E+01 -5.74538E+01
  -8.41677E+01 -9.01952E+01 -6.31017E+01 -4.81455E+01 -4.80387E+01 -5.30212E+01 -5.74694E+01 -5.46312E+01 -6.27820E+01 -4.79887E+01
  -5.28905E+01 -5.08911E+01 -3.63266E+01 -5.90312E+01 -3.59239E+01 -1.52730E+01 -2.91487E+01 -2.07832E+01 -1.11298E+01 -1.04070E+01
  -5.90951E+00 -5.47548E+00 -1.78770E+01 -2.08714E+01 -8.81762E+00 -1.35459E+01 -2.83649E+01 -2.48230E+01 -1.91161E+01 -1.78004E+01
  -3.03637E+01 -4.12471E+01 -3.43694E+01 -3.19917E+01 -3.64376E+01 -3.36807E+01 -2.24045E+01 -3.73267E+01 -4.39286E+01 -3.74719E+01
  -4.03427E+01 -3.74439E+01 -5.79128E+01 -7.11563E+01 -6.37137E+01 -5.93621E+01 -6.81129E+01 -7.19331E+01 -6.58316E+01 -7.43401E+01
  -5.80144E+01 -4.10831E+01 -4.36022E+01 -3.72508E+01 -3.33975E+01 -3.75114E+01 -4.21064E+01 -3.70711E+01 -4.01708E+01 -3.40826E+01
  -2.73065E+01 -3.44028E+01 -3.41077E+01 -3.17045E+01 -1.80991E+01 -1.41505E+01 -2.09387E+01 -3.92351E+01 -4.44224E+01 -3.52001E+01
  -5.33039E+01 -5.79730E+01 -5.73599E+01 -6.17765E+01 -5.33065E+01 -3.25313E+01 -2.34922E+01 -1.03785E+01  4.96580E+00 -7.77608E+00
   8.51938E+00  2.79601E+00 -1.34682E+01 -1.64492E-01 -1.46307E+01 -1.53434E+01 -2.18803E+00 -1.11850E+01 -1.06043E+01  7.17433E+00
   5.41399E+00  1.25944E+00  4.19491E+00 -8.38303E+00 -1.05331E+01  6.87157E+00 -3.69151E+00 -9.37378E+00 -1.19905E+01 -3.47825E+01
  -1.28461E+01 -1.94780E+01 -3.64634E+01 -3.15146E+01 -2.64507E+01 -1.46182E+01 -2.11495E+01 -3.57465E+00 -6.86589E+00 -2.19284E+00
  -3.53076E+00 -1.71213E+01 -1.21282E+01 -1.63524E+01  6.81796E+00  6.82109E-01  4.66694E+00  2.62163E+01  4.45160E+01  6.59089E+01
   1.00629E+02  1.44868E+02  1.34857E+02  1.24900E+02  1.25594E+02  1.55826E+02  1.44420E+02  1.04737E+02  1.01334E+02  7.98321E+01
   8.37861E+01  7.84398E+01  7.33975E+01  7.37498E+01  8.15357E+01  7.32475E+01  6.26655E+01  9.82921E+01  8.08624E+01  6.81545E+01
   7.21804E+01  6.35735E+01  6.02452E+01  5.02032E+01  5.59082E+01  5.80724E+01  5.96665E+01  4.68924E+01  4.47889E+01  4.79460E+01
   3.42075E+01  3.24926E+01  1.51419E+01  6.39109E-02  1.69124E+01  1.28198E+01 -7.58803E+00  4.76137E+00  6.20103E+00  3.22306E+00
   6.07771E+00  8.20158E-01  3.35138E+00 -9.91569E+00  1.10658E-01  1.53439E+01  1.02771E+00  3.03872E+00  1.01953E+00  1.85743E-01
   7.32985E+00 -9.17511E+00 -9.58025E+00 -5.27575E-01 -4.92670E+00 -2.62112E+00 -2.25617E+01 -2.62841E+01 -5.86498E+00 -1.37752E+01
  -1.35021E+01 -8.43977E+00 -6.43652E-01  2.02815E+01  1.91304E+01  2.40981E+01  4.69534E+01  5.79181E+01  6.36582E+01  8.10936E+01
   9.13793E+01  8.56708E+01  8.81687E+01  7.11982E+01  6.04373E+01  5.51600E+01  3.11682E+01  3.60045E+01  2.35504E+01  5.85828E+00
   1.29688E+01  1.30803E+01 -4.96618E+00 -3.01734E+01 -4.02692E+01 -6.51289E+01 -9.24701E+01 -1.24599E+02 -1.59742E+02 -1.84014E+02
  -2.23384E+02 -2.69052E+02 -2.95665E+02 -3.01857E+02 -2.93023E+02 -2.80305E+02 -2.79084E+02 -2.47919E+02 -2.33807E+02 -2.22866E+02
  -1.89036E+02 -1.76411E+02 -1.42773E+02 -1.36777E+02 -1.22254E+02 -1.06292E+02 -9.79911E+01 -6.06065E+01 -6.82327E+01 -4.94941E+01
  -3.02844E+01 -4.71228E+01 -3.29080E+01 -1.13599E+01 -4.56815E+00 -4.41839E+00  9.45209E+00  1.77983E+01  1.83911E+01  2.55634E+01
   2.86916E+01  2.81562E+01  2.97965E+01  3.82084E+01  5.20450E+01  4.95147E+01  5.04569E+01  7.62566E+01  7.75065E+01  7.83063E+01
   8.42995E+01  5.65332E+01  5.45423E+01  7.08607E+01  5.69121E+01  4.29898E+01  3.83196E+01  3.24248E+01  2.17493E+01  1.10829E+01
  -1.13067E-01 -1.61050E+01 -3.08063E+01 -4.40872E+01 -4.72486E+01 -5.91891E+01 -7.66524E+01 -7.61437E+01 -7.75274E+01 -7.85570E+01
  -8.04460E+01 -8.40016E+01 -7.38852E+01 -7.33490E+01 -7.13501E+01 -7.39701E+01 -8.32836E+01 -6.64748E+01 -6.89654E+01 -6.26451E+01
  -4.80891E+01 -5.78968E+01 -6.04661E+01 -6.29843E+01 -5.68986E+01 -6.07948E+01 -5.60732E+01 -4.82911E+01 -5.34491E+01 -5.70388E+01
  -5.65368E+01 -5.04312E+01 -5.97265E+01 -5.81598E+01 -5.66916E+01 -5.21167E+01 -5.32892E+01 -5.18585E+01 -5.24434E+01 -6.24882E+01
  -4.51077E+01 -5.05291E+01 -5.39371E+01 -5.67511E+01 -5.17623E+01 -3.68719E+01 -3.97578E+01 -4.18033E+01 -5.58420E+01 -4.64544E+01
  -3.61881E+01 -3.82268E+01 -4.77084E+01 -4.98110E+01 -3.98782E+01 -3.77055E+01 -3.33515E+01 -4.36062E+01 -3.88947E+01 -4.43223E+01
  -5.23599E+01 -2.93537E+01 -3.17961E+01 -4.29821E+01 -3.99099E+01 -4.62361E+01 -4.65066E+01 -3.49889E+01 -2.42833E+01 -3.20829E+01
  -4.98019E+01 -3.49634E+01 -2.95244E+01 -4.33016E+01 -3.38252E+01 -3.06512E+01 -2.92733E+01 -2.58150E+01 -4.33103E+01 -4.44387E+01
 NY points of the fit to the data follow
  -1.05660E+02 -1.00430E+02 -9.36413E+01 -8.52436E+01 -7.54107E+01 -6.44223E+01 -5.26913E+01 -4.12053E+01 -3.13554E+01 -2.43389E+01
  -2.20106E+01 -2.35708E+01 -2.83444E+01 -3.48444E+01 -4.09967E+01 -4.67471E+01 -5.16077E+01 -5.56221E+01 -5.86295E+01 -6.08061E+01
  -6.21292E+01 -6.24163E+01 -6.13988E+01 -5.90306E+01 -5.55538E+01 -5.13436E+01 -4.64817E+01 -4.04784E+01 -3.29978E+01 -2.46523E+01
  -1.68579E+01 -1.14856E+01 -8.59348E+00 -8.53040E+00 -1.01840E+01 -1.19496E+01 -1.37635E+01 -1.54867E+01 -1.69823E+01 -1.83927E+01
  -1.98713E+01 -2.13575E+01 -2.26851E+01 -2.38266E+01 -2.48853E+01 -2.58610E+01 -2.63140E+01 -2.55973E+01 -2.33467E+01 -1.96356E+01
  -1.54576E+01 -1.21894E+01 -9.57052E+00 -7.73244E+00 -7.35646E+00 -8.00750E+00 -9.26470E+00 -1.04401E+01 -1.12765E+01 -1.18507E+01
  -1.23615E+01 -1.29491E+01 -1.31803E+01 -1.27433E+01 -1.19756E+01 -1.09773E+01 -9.32296E+00 -6.81279E+00 -3.53342E+00  3.89534E-01
   4.10155E+00  7.19631E+00  9.72588E+00  1.10024E+01  9.54824E+00  6.60420E+00  3.11065E+00  3.92884E-01 -4.08920E-01  7.00719E-01
   2.36700E+00  3.05356E+00  2.74570E+00  1.46211E+00 -1.24857E+00 -5.04658E+00 -9.21521E+00 -1.33494E+01 -1.68582E+01 -1.85911E+01
  -1.71640E+01 -1.18013E+01 -2.67689E+00  9.81765E+00  2.10363E+01  3.03468E+01  3.51499E+01  3.61669E+01  3.50218E+01  3.31019E+01
   2.95502E+01  2.39397E+01  1.67944E+01  8.68603E+00 -1.47662E-01 -9.81682E+00 -2.05326E+01 -3.25002E+01 -4.57088E+01 -5.97604E+01
  -7.36954E+01 -8.59715E+01 -9.39957E+01 -9.64535E+01 -9.48598E+01 -8.89152E+01 -8.15665E+01 -7.20343E+01 -6.01115E+01 -4.59862E+01
  -3.29011E+01 -2.09524E+01 -8.44008E+00  1.98949E+00  8.72345E+00  1.24603E+01  1.46326E+01  1.63778E+01  1.80007E+01  1.91127E+01
   1.90626E+01  1.71388E+01  1.28426E+01  6.18117E+00 -2.29970E+00 -1.19084E+01 -2.22973E+01 -3.37382E+01 -4.69642E+01 -6.15117E+01
  -7.45230E+01 -8.16517E+01 -8.07683E+01 -7.78923E+01 -7.54017E+01 -7.30642E+01 -7.07430E+01 -6.83883E+01 -6.60567E+01 -6.37263E+01
  -6.13029E+01 -5.86888E+01 -5.58721E+01 -5.30061E+01 -5.01977E+01 -4.75889E+01 -4.52071E+01 -4.29118E+01 -4.07069E+01 -3.86410E+01
  -3.67833E+01 -3.50709E+01 -3.33149E+01 -3.14989E+01 -2.98832E+01 -2.85993E+01 -2.75695E+01 -2.67033E+01 -2.59844E+01 -2.54405E+01
  -2.50696E+01 -2.48409E+01 -2.47380E+01 -2.49484E+01 -2.56076E+01 -2.65783E+01 -2.75311E+01 -2.82715E+01 -2.90438E+01 -3.02115E+01
  -3.18601E+01 -3.34902E+01 -3.43952E+01 -3.46121E+01 -3.43948E+01 -3.38008E+01 -3.30244E+01 -3.21543E+01 -3.12656E+01 -3.02266E+01
  -2.89045E+01 -2.74076E+01 -2.59642E+01 -2.47673E+01 -2.38991E+01 -2.33338E+01 -2.30517E+01 -2.30739E+01 -2.35451E+01 -2.45370E+01
  -2.59925E+01 -2.77203E+01 -2.97068E+01 -3.22864E+01 -3.51024E+01 -3.75399E+01 -3.98664E+01 -4.13952E+01 -4.18566E+01 -4.13892E+01
  -3.96483E+01 -3.71232E+01 -3.41566E+01 -3.08419E+01 -2.70136E+01 -2.24888E+01 -1.72975E+01 -1.15942E+01 -5.57103E+00  6.89446E-01
   7.07813E+00  1.32267E+01  1.84250E+01  2.17429E+01  2.26925E+01  2.10094E+01  1.61890E+01  9.95967E+00  2.90206E+00 -4.72043E+00
  -1.16468E+01 -1.85723E+01 -2.56920E+01 -3.29416E+01 -3.98186E+01 -4.59171E+01 -5.07972E+01 -5.43043E+01 -5.62469E+01 -5.66109E+01
  -5.55026E+01 -5.32504E+01 -5.04209E+01 -4.82027E+01 -4.55592E+01 -4.15131E+01 -3.61888E+01 -3.01516E+01 -2.46442E+01 -1.93002E+01
  -1.38282E+01 -8.00084E+00 -1.28047E+00  6.51858E+00  1.54629E+01  2.51948E+01  3.55257E+01  4.61956E+01  5.74462E+01  6.94071E+01
   8.15183E+01  9.21038E+01  9.85543E+01  9.85894E+01  9.49874E+01  9.09087E+01  8.68526E+01  8.29846E+01  7.94192E+01  7.62060E+01
   7.32774E+01  7.05375E+01  6.79451E+01  6.55633E+01  6.34137E+01  6.15435E+01  5.99236E+01  5.85058E+01  5.71367E+01  5.56991E+01
   5.40439E+01  5.21249E+01  4.97929E+01  4.70852E+01  4.40103E+01  4.05483E+01  3.68898E+01  3.31205E+01  2.93801E+01  2.56886E+01
   2.20992E+01  1.86637E+01  1.54807E+01  1.26239E+01  1.01279E+01  8.08343E+00  6.58234E+00  5.74279E+00  5.68930E+00  6.44778E+00
   8.02344E+00  1.03417E+01  1.31992E+01  1.64204E+01  1.98260E+01  2.32763E+01  2.67169E+01  3.00965E+01  3.33270E+01  3.63295E+01
   3.91192E+01  4.16720E+01  4.39809E+01  4.60221E+01  4.77329E+01  4.90263E+01  4.97632E+01  4.98495E+01  4.92553E+01  4.79760E+01
   4.60683E+01  4.35732E+01  4.06520E+01  3.75134E+01  3.43703E+01  3.14641E+01  2.90650E+01  2.73706E+01  2.66038E+01  2.71472E+01
   2.96319E+01  3.50264E+01  4.46990E+01  5.41253E+01  5.89377E+01  5.87876E+01  5.08649E+01  3.99448E+01  3.08727E+01  2.53224E+01
   2.18617E+01  1.72823E+01  8.47549E+00 -6.20234E+00 -2.68832E+01 -5.29467E+01 -8.39907E+01 -1.20389E+02 -1.62436E+02 -2.08121E+02
  -2.50887E+02 -2.79966E+02 -2.86287E+02 -2.74491E+02 -2.50715E+02 -2.21976E+02 -2.01554E+02 -1.86514E+02 -1.74518E+02 -1.64197E+02
  -1.54711E+02 -1.45505E+02 -1.36324E+02 -1.27137E+02 -1.17990E+02 -1.08846E+02 -9.98037E+01 -9.08860E+01 -8.20542E+01 -7.33139E+01
  -6.46255E+01 -5.59223E+01 -4.71033E+01 -3.80625E+01 -2.87618E+01 -1.92038E+01 -9.49627E+00  1.81776E-01  9.62065E+00  1.86203E+01
   2.70472E+01  3.48824E+01  4.20504E+01  4.84628E+01  5.40146E+01  5.85176E+01  6.15897E+01  6.29818E+01  6.25398E+01  6.00681E+01
   5.55173E+01  4.90110E+01  4.08354E+01  3.13465E+01  2.11032E+01  1.07218E+01  7.29494E-01 -8.56425E+00 -1.71707E+01 -2.52277E+01
  -3.28607E+01 -4.00896E+01 -4.68886E+01 -5.30960E+01 -5.84845E+01 -6.28875E+01 -6.62857E+01 -6.87326E+01 -7.03789E+01 -7.14171E+01
  -7.19517E+01 -7.21266E+01 -7.20464E+01 -7.18199E+01 -7.14575E+01 -7.09657E+01 -7.03541E+01 -6.96369E+01 -6.88235E+01 -6.79642E+01
  -6.70884E+01 -6.62120E+01 -6.53360E+01 -6.44872E+01 -6.36556E+01 -6.27903E+01 -6.18938E+01 -6.10198E+01 -6.01920E+01 -5.93428E+01
  -5.84799E+01 -5.76324E+01 -5.67989E+01 -5.59691E+01 -5.51363E+01 -5.43374E+01 -5.35914E+01 -5.28762E+01 -5.21433E+01 -5.13826E+01
  -5.05998E+01 -4.98254E+01 -4.90742E+01 -4.83493E+01 -4.76647E+01 -4.69932E+01 -4.63576E+01 -4.57320E+01 -4.51205E+01 -4.45147E+01
  -4.38988E+01 -4.32459E+01 -4.25698E+01 -4.19102E+01 -4.12740E+01 -4.06714E+01 -4.00689E+01 -3.94510E+01 -3.88037E+01 -3.81340E+01
  -3.74921E+01 -3.69252E+01 -3.64051E+01 -3.59103E+01 -3.54309E+01 -3.49611E+01 -3.44933E+01 -3.40365E+01 -3.35991E+01 -3.31762E+01
  -3.27360E+01 -3.22958E+01 -3.18494E+01 -3.13989E+01 -3.09590E+01 -3.05616E+01 -3.01768E+01 -2.97590E+01 -2.92582E+01 -2.87049E+01
 NY background values follow
    -4.199E+01   -4.232E+01   -4.264E+01   -4.296E+01   -4.328E+01   -4.360E+01   -4.391E+01   -4.422E+01   -4.452E+01   -4.482E+01
    -4.511E+01   -4.540E+01   -4.568E+01   -4.595E+01   -4.622E+01   -4.647E+01   -4.672E+01   -4.696E+01   -4.718E+01   -4.740E+01
    -4.761E+01   -4.780E+01   -4.798E+01   -4.815E+01   -4.831E+01   -4.845E+01   -4.858E+01   -4.869E+01   -4.879E+01   -4.887E+01
    -4.893E+01   -4.898E+01   -4.900E+01   -4.902E+01   -4.901E+01   -4.899E+01   -4.895E+01   -4.890E+01   -4.883E+01   -4.874E+01
    -4.864E+01   -4.852E+01   -4.838E+01   -4.823E+01   -4.806E+01   -4.788E+01   -4.769E+01   -4.747E+01   -4.725E+01   -4.701E+01
    -4.675E+01   -4.648E+01   -4.619E+01   -4.589E+01   -4.558E+01   -4.525E+01   -4.491E+01   -4.455E+01   -4.418E+01   -4.380E+01
    -4.340E+01   -4.299E+01   -4.257E+01   -4.213E+01   -4.169E+01   -4.123E+01   -4.076E+01   -4.028E+01   -3.978E+01   -3.928E+01
    -3.877E+01   -3.824E+01   -3.771E+01   -3.717E+01   -3.662E+01   -3.606E+01   -3.549E+01   -3.492E+01   -3.434E+01   -3.375E+01
    -3.315E+01   -3.255E+01   -3.194E+01   -3.133E+01   -3.071E+01   -3.009E+01   -2.946E+01   -2.883E+01   -2.819E+01   -2.755E+01
    -2.691E+01   -2.626E+01   -2.561E+01   -2.496E+01   -2.431E+01   -2.366E+01   -2.300E+01   -2.235E+01   -2.169E+01   -2.104E+01
    -2.038E+01   -1.973E+01   -1.908E+01   -1.843E+01   -1.778E+01   -1.714E+01   -1.650E+01   -1.586E+01   -1.522E+01   -1.459E+01
    -1.397E+01   -1.335E+01   -1.273E+01   -1.212E+01   -1.152E+01   -1.092E+01   -1.033E+01   -9.746E+00   -9.170E+00   -8.603E+00
    -8.044E+00   -7.494E+00   -6.954E+00   -6.422E+00   -5.901E+00   -5.389E+00   -4.888E+00   -4.397E+00   -3.918E+00   -3.449E+00
    -2.993E+00   -2.548E+00   -2.115E+00   -1.695E+00   -1.288E+00   -8.941E-01   -5.134E-01   -1.465E-01    2.064E-01    5.449E-01
     8.687E-01    1.178E+00    1.471E+00    1.749E+00    2.011E+00    2.257E+00    2.487E+00    2.699E+00    2.895E+00    3.073E+00
     3.233E+00    3.376E+00    3.502E+00    3.611E+00    3.704E+00    3.783E+00    3.847E+00    3.897E+00    3.934E+00    3.959E+00
     3.971E+00    3.973E+00    3.965E+00    3.946E+00    3.918E+00    3.882E+00    3.838E+00    3.787E+00    3.730E+00    3.666E+00
     3.598E+00    3.525E+00    3.448E+00    3.368E+00    3.285E+00    3.201E+00    3.115E+00    3.029E+00    2.943E+00    2.858E+00
     2.774E+00    2.692E+00    2.612E+00    2.534E+00    2.457E+00    2.381E+00    2.307E+00    2.235E+00    2.163E+00    2.093E+00
     2.024E+00    1.957E+00    1.890E+00    1.824E+00    1.759E+00    1.694E+00    1.630E+00    1.567E+00    1.505E+00    1.443E+00
     1.381E+00    1.319E+00    1.258E+00    1.197E+00    1.136E+00    1.075E+00    1.013E+00    9.520E-01    8.904E-01    8.284E-01
     7.660E-01    7.028E-01    6.381E-01    5.709E-01    5.007E-01    4.265E-01    3.476E-01    2.632E-01    1.726E-01    7.489E-02
    -3.061E-02   -1.447E-01   -2.682E-01   -4.019E-01   -5.465E-01   -7.029E-01   -8.717E-01   -1.054E+00   -1.250E+00   -1.461E+00
    -1.688E+00   -1.931E+00   -2.191E+00   -2.470E+00   -2.767E+00   -3.084E+00   -3.421E+00   -3.779E+00   -4.159E+00   -4.561E+00
    -4.987E+00   -5.437E+00   -5.911E+00   -6.408E+00   -6.928E+00   -7.472E+00   -8.039E+00   -8.630E+00   -9.243E+00   -9.879E+00
    -1.054E+01   -1.122E+01   -1.192E+01   -1.265E+01   -1.340E+01   -1.417E+01   -1.496E+01   -1.578E+01   -1.661E+01   -1.747E+01
    -1.835E+01   -1.926E+01   -2.018E+01   -2.112E+01   -2.209E+01   -2.308E+01   -2.408E+01   -2.511E+01   -2.616E+01   -2.723E+01
    -2.832E+01   -2.943E+01   -3.056E+01   -3.170E+01   -3.286E+01   -3.404E+01   -3.522E+01   -3.642E+01   -3.763E+01   -3.884E+01
    -4.007E+01   -4.129E+01   -4.252E+01   -4.375E+01   -4.499E+01   -4.622E+01   -4.745E+01   -4.868E+01   -4.990E+01   -5.112E+01
    -5.232E+01   -5.352E+01   -5.471E+01   -5.588E+01   -5.705E+01   -5.819E+01   -5.932E+01   -6.043E+01   -6.153E+01   -6.260E+01
    -6.365E+01   -6.467E+01   -6.567E+01   -6.665E+01   -6.761E+01   -6.853E+01   -6.944E+01   -7.031E+01   -7.116E+01   -7.199E+01
    -7.278E+01   -7.355E+01   -7.429E+01   -7.501E+01   -7.569E+01   -7.634E+01   -7.696E+01   -7.756E+01   -7.812E+01   -7.865E+01
    -7.915E+01   -7.961E+01   -8.004E+01   -8.044E+01   -8.081E+01   -8.114E+01   -8.144E+01   -8.170E+01   -8.193E+01   -8.212E+01
    -8.227E+01   -8.239E+01   -8.248E+01   -8.252E+01   -8.254E+01   -8.251E+01   -8.246E+01   -8.237E+01   -8.225E+01   -8.210E+01
    -8.191E+01   -8.170E+01   -8.145E+01   -8.117E+01   -8.087E+01   -8.053E+01   -8.017E+01   -7.977E+01   -7.935E+01   -7.891E+01
    -7.843E+01   -7.793E+01   -7.741E+01   -7.685E+01   -7.628E+01   -7.568E+01   -7.505E+01   -7.441E+01   -7.374E+01   -7.305E+01
    -7.233E+01   -7.160E+01   -7.085E+01   -7.007E+01   -6.929E+01   -6.848E+01   -6.766E+01   -6.682E+01   -6.597E+01   -6.511E+01
    -6.424E+01   -6.336E+01   -6.247E+01   -6.157E+01   -6.066E+01   -5.975E+01   -5.884E+01   -5.792E+01   -5.700E+01   -5.607E+01
    -5.515E+01   -5.423E+01   -5.331E+01   -5.239E+01   -5.148E+01   -5.057E+01   -4.967E+01   -4.877E+01   -4.788E+01   -4.701E+01
    -4.614E+01   -4.528E+01   -4.444E+01   -4.360E+01   -4.278E+01   -4.196E+01   -4.116E+01   -4.037E+01   -3.958E+01   -3.881E+01
    -3.805E+01   -3.731E+01   -3.657E+01   -3.584E+01   -3.512E+01   -3.442E+01   -3.373E+01   -3.304E+01   -3.237E+01   -3.171E+01
    -3.106E+01   -3.042E+01   -2.980E+01   -2.918E+01   -2.857E+01   -2.798E+01   -2.740E+01   -2.683E+01   -2.627E+01   -2.572E+01
    -2.518E+01   -2.465E+01   -2.414E+01   -2.363E+01   -2.314E+01   -2.266E+01   -2.218E+01   -2.172E+01   -2.126E+01   -2.082E+01
    -2.038E+01   -1.996E+01   -1.954E+01   -1.913E+01   -1.872E+01   -1.833E+01   -1.794E+01   -1.756E+01   -1.719E+01   -1.682E+01
    -1.646E+01   -1.611E+01   -1.576E+01   -1.542E+01   -1.509E+01   -1.476E+01   -1.443E+01   -1.411E+01   -1.380E+01   -1.349E+01
    -1.318E+01   -1.288E+01   -1.258E+01   -1.229E+01   -1.200E+01   -1.171E+01   -1.142E+01   -1.114E+01   -1.087E+01   -1.059E+01
    -1.032E+01   -1.005E+01   -9.779E+00   -9.513E+00   -9.249E+00   -8.987E+00   -8.727E+00   -8.468E+00   -8.210E+00   -7.954E+00
    -7.698E+00   -7.444E+00   -7.190E+00   -6.936E+00   -6.683E+00   -6.430E+00   -6.177E+00   -5.923E+00   -5.670E+00   -5.415E+00
 Mac      Conc. = 4.27E-04
  -7.22089E+01 -7.35797E+01 -7.49501E+01 -7.63055E+01 -7.77250E+01 -7.93040E+01 -8.10221E+01 -8.27019E+01 -8.41706E+01 -8.54491E+01
  -8.65338E+01 -8.74035E+01 -8.80403E+01 -8.84228E+01 -8.85105E+01 -8.82278E+01 -8.75521E+01 -8.64959E+01 -8.50952E+01 -8.33903E+01
  -8.13495E+01 -7.89487E+01 -7.60791E+01 -7.28147E+01 -6.94253E+01 -6.63042E+01 -6.36806E+01 -6.13696E+01 -5.91961E+01 -5.72103E+01
  -5.53879E+01 -5.36386E+01 -5.19652E+01 -5.03600E+01 -4.88177E+01 -4.73380E+01 -4.59788E+01 -4.47529E+01 -4.36376E+01 -4.26264E+01
  -4.16827E+01 -4.07128E+01 -3.96620E+01 -3.86218E+01 -3.77546E+01 -3.72145E+01 -3.69633E+01 -3.67829E+01 -3.65318E+01 -3.62435E+01
  -3.60272E+01 -3.59349E+01 -3.59952E+01 -3.61297E+01 -3.62454E+01 -3.62817E+01 -3.61499E+01 -3.57983E+01 -3.52294E+01 -3.45143E+01
  -3.36340E+01 -3.25207E+01 -3.12277E+01 -2.98462E+01 -2.84903E+01 -2.72903E+01 -2.62606E+01 -2.53667E+01 -2.46267E+01 -2.39696E+01
  -2.32391E+01 -2.23538E+01 -2.13065E+01 -2.00575E+01 -1.86841E+01 -1.71839E+01 -1.56276E+01 -1.40951E+01 -1.27931E+01 -1.18089E+01
  -1.10657E+01 -1.04310E+01 -9.83447E+00 -9.19098E+00 -8.43898E+00 -7.61588E+00 -6.73388E+00 -5.86621E+00 -5.05439E+00 -4.29376E+00
  -3.62243E+00 -3.14893E+00 -2.95540E+00 -3.07149E+00 -3.59311E+00 -4.56878E+00 -6.13077E+00 -8.25119E+00 -1.08641E+01 -1.38284E+01
  -1.69857E+01 -2.02376E+01 -2.34878E+01 -2.66414E+01 -2.96810E+01 -3.25984E+01 -3.53529E+01 -3.79254E+01 -4.02448E+01 -4.21780E+01
