 
 $NMID
 ID=''
 FMTDAT='(2E13.5)'
 TRAMP=   1.00000E+0
 VOLUME=   1.00000E+0
 $END
   2.13958E+4  -1.37485E+4
   1.14355E+4  -2.88059E+4
  -2.39137E+4  -1.25196E+4
  -4.02423E+3   2.50746E+4
   2.64993E+4   6.19186E+3
   2.20099E+3  -2.37325E+4
  -1.93047E+4  -9.69337E+2
   5.38149E+3   1.78642E+4
   1.85636E+4  -3.87115E+2
  -2.34057E+3  -9.04927E+3
  -1.36695E+4   1.60468E+3
   2.88454E+2   5.43664E+3
   9.16820E+3   8.25287E+2
  -1.39246E+3  -3.27399E+3
  -9.38464E+3  -3.25808E+3
   1.55406E+3   1.40161E+3
   8.91881E+3   1.80103E+3
  -1.43588E+3  -1.73675E+3
  -5.91749E+3  -7.17297E+2
   2.63052E+3   1.61858E+3
   4.15204E+3  -1.11753E+3
  -1.77766E+3  -2.21155E+3
  -1.52861E+3   1.59176E+3
   1.13581E+3   2.12791E+3
   7.90303E+2  -1.24684E+3
   3.66711E+2  -1.69948E+3
  -3.02750E+2   2.57914E+3
  -7.57841E+2   2.42839E+3
  -1.25963E+2  -2.05188E+3
  -3.19478E+2  -8.60862E+2
  -1.08971E+3   2.28938E+3
  -8.36109E+2   4.38011E+2
  -3.92929E+2  -1.64564E+3
  -1.05835E+3  -6.05538E+2
  -1.72541E+2  -9.32123E+2
   2.57255E+3  -1.63865E+3
   1.10188E+3   4.51375E+2
  -1.93706E+3   1.87316E+3
  -1.11728E+3   6.11703E+2
   8.02338E+2  -5.98401E+2
  -8.41841E+2  -5.27802E+2
  -2.05978E+3   6.13643E+1
   7.34242E+2  -6.25518E+2
   1.81519E+3  -7.36803E+2
   7.19389E+2   1.07990E+3
  -9.82433E+1   2.51234E+3
  -9.62049E+2   1.34463E+3
  -2.30312E+3  -8.90915E+2
  -1.91197E+3  -1.25104E+3
  -2.01089E+2   7.67348E+1
   7.40512E+2  -2.44557E+2
   3.27273E+2  -1.38094E+3
   4.95543E+0   4.67605E+1
   2.12942E+1   1.54527E+3
   4.41364E+2   7.13935E+2
  -1.41459E+2   8.28741E+1
  -1.09825E+3   6.12035E+2
  -5.95718E+2  -2.18142E+2
   1.16940E+3  -1.18809E+3
   1.37609E+3  -2.32169E+2
   3.56701E+2   1.53686E+3
   3.07589E+0   1.57398E+3
   3.00779E+2   7.55176E+2
  -8.76320E+2   4.21385E+2
  -1.94568E+3   8.24083E+1
  -8.26035E+2  -7.63808E+2
   9.58444E+2  -1.64076E+3
   1.63489E+3  -1.31709E+3
   7.50958E+2   4.86705E+2
  -1.59501E+2   9.56337E+2
  -1.08231E+2  -1.16132E+1
   7.66704E+2  -6.47926E+2
   1.04468E+3   6.29105E+2
   1.37853E+2   7.44137E+2
  -1.33268E+2   6.85480E+1
  -5.13388E+1  -2.90343E+2
   1.33511E+2   3.84770E+2
   2.13587E+2   5.62520E+2
   4.53283E+1   6.59121E+1
  -3.62260E+2  -7.15928E+1
  -6.55074E+2  -5.84646E+2
  -4.94618E+1  -6.03934E+2
   5.24239E+2  -3.20669E+2
   1.69966E+2  -1.40633E+2
   1.31994E+2  -4.01701E+2
   5.91847E+2  -6.96124E+2
   9.26204E+2  -9.45077E+1
   1.24250E+2   4.97647E+2
  -1.85561E+2   4.26636E+2
   2.84897E+2  -2.01069E+2
   5.55833E+2   2.15528E+2
   6.28907E+1   5.60337E+2
  -6.39622E+2   8.58080E+2
  -9.38089E+2  -7.39156E+1
  -5.58901E+2  -5.91469E+2
   4.62039E+2  -7.83551E+2
   6.30939E+2  -2.15091E+2
   6.26955E+1   3.10136E+2
  -2.38747E+0  -1.10189E+2
   2.85588E+2  -1.20375E+2
   6.39805E+2   4.15099E+2
  -1.60628E+2   8.10358E+2
  -5.77964E+2  -2.54670E+2
  -3.00315E+2  -7.58647E+2
   1.32593E+2  -2.35304E+2
   8.65105E+2   6.18331E+2
   8.62524E+1   4.35966E+2
  -6.79145E+2  -3.01769E+2
  -2.58227E+2  -9.47547E+2
   6.91959E+2  -5.53049E+2
   1.11274E+3   3.35595E+2
   3.80147E+2   5.25012E+2
  -3.48108E+2   4.64996E+2
  -7.63643E+1   2.94299E+2
  -1.87815E+2   1.42893E+2
  -3.54600E+2   2.08631E+2
  -7.10573E+2  -1.33163E+2
  -2.93012E+2  -8.82962E+2
   3.68902E+2  -1.07434E+3
   8.97551E+2  -6.03533E+2
   5.57306E+2  -1.99840E+1
   4.23884E+2   4.89644E+2
  -2.70436E+1   1.86764E+2
  -1.57437E+2   4.04399E+2
  -2.56452E+2   2.79111E+2
  -2.37430E+2  -5.07596E+2
  -8.69478E+0  -3.19076E+2
   1.05295E+2  -3.85447E+2
   3.30442E+2   7.41265E+0
   6.18401E+0   3.78162E+2
  -3.69639E+2   9.75009E+1
  -4.32891E+2  -3.44129E+2
   4.35420E+1  -5.63791E+2
   2.11036E+2  -1.11529E+2
   6.88454E+1  -4.33058E+1
   1.24480E+1  -2.54065E+2
   1.29806E+2  -1.89880E+2
   2.76110E+2   4.19135E+2
  -2.09497E+2   3.44181E+2
  -3.45454E+2  -2.74636E+2
  -2.86019E+2  -3.50712E+2
   3.62093E+2  -2.68872E+2
   6.13603E+2   2.47381E+1
   2.40530E+2   4.29499E+2
  -2.60498E+2   5.30643E+2
  -5.16538E+2   4.48679E+1
  -7.85615E+1  -1.35462E+2
  -6.73880E+1  -1.41373E+2
  -2.16305E+2  -2.01123E+2
  -1.85674E+2  -1.76652E+2
   3.44311E+2  -4.34163E+2
   5.62771E+2  -1.58205E+2
   1.14735E+2   3.92060E+2
  -8.01977E+1   7.92663E+2
   1.11967E+2   3.10962E+1
   1.13372E+2  -2.26840E+2
   1.68516E+2   3.31736E+2
   8.07900E+1   2.29907E+2
  -7.56007E+1   2.95670E+1
   8.87004E+1  -6.89416E+1
  -1.53409E+2   2.42368E+2
  -2.46442E+2   3.78273E+1
  -3.69254E+1   7.12794E+1
   4.01893E+1  -6.27330E+1
   3.28245E+2  -3.62715E+2
   4.32044E+2  -1.17958E+1
   2.11625E+2   1.39431E+2
  -8.60548E+1   8.90140E+1
  -3.33888E+2  -1.77435E+2
   2.99402E+2  -1.03229E+2
   2.78659E+2   4.15835E+1
   2.09639E+1   1.00227E+2
  -1.85752E+2   6.18330E+1
   5.84628E+1  -9.12186E+1
   3.50227E+2  -2.37411E+2
   1.43491E+2   9.67495E+1
  -3.73461E+2   1.97757E+2
  -2.40910E+2  -1.16431E+2
  -6.95405E+1  -4.27953E+2
   5.56993E+2   2.67021E+1
   4.13342E+2   3.11124E+2
  -7.80300E+1   1.46453E+2
  -2.60830E+2  -2.18583E+2
   2.88309E+1  -4.67454E+2
   2.27732E+1  -4.88608E+2
   1.54256E+2  -2.74647E+2
  -1.55210E+1   5.41237E+1
   1.43706E+2  -3.21607E+2
   3.58156E+2   1.25528E+2
   1.60890E+2   4.57392E+2
  -2.27759E+2   4.70131E+2
  -5.21433E+2  -1.31336E+2
  -1.20779E+2  -5.38851E+2
   1.11819E+2  -3.60686E+2
   2.12963E+2  -2.76747E+2
   2.59531E+2  -3.11574E+1
  -2.96888E+2   1.19099E+2
   2.10969E+2  -8.33286E+1
  -1.53424E+2   8.38762E+1
  -2.23688E+2   1.11886E+2
  -4.46322E+2  -3.21706E+2
   2.26625E+2  -5.33989E+2
   3.85592E+2  -3.45318E+2
   2.54091E+2   7.70557E+0
  -1.17453E+2   1.11618E+2
  -1.75535E+2   1.26340E+2
  -2.13621E+2  -2.16642E+2
  -5.14600E+1   9.55477E+0
   1.13504E+2   5.00969E+0
  -1.90698E+2   2.57029E+2
  -1.20143E+2  -2.29548E+2
   2.37147E+2  -1.24933E+2
   1.51878E+2   3.26960E+2
  -1.96389E+2   5.58466E+2
  -6.26032E+2  -5.33921E+1
  -3.85797E+2  -4.29567E+2
   1.37357E+2  -4.44327E+2
   2.57906E+2  -1.20876E+2
   2.22783E+1  -2.74932E+2
   4.70390E+1  -1.25335E+2
   8.55386E+1  -6.56448E+1
   7.77699E+1   9.07248E+1
  -2.86831E+2   2.15804E+2
  -5.09213E+2   1.05302E+2
  -4.63818E+2  -3.49621E+2
   1.26310E+2  -2.08266E+2
   2.96232E+2   4.75332E+1
   1.30443E+2   2.67497E+2
  -1.65736E+2   1.13680E+2
  -7.85508E+1   3.47418E+1
   5.15175E+0  -4.97285E+1
   3.01039E+2   1.31282E+2
  -2.02598E+1  -1.43873E+2
  -1.77727E+2   4.39036E+2
   3.37470E+1  -2.29875E+2
   2.99240E+1  -1.33452E+2
   7.95618E+1  -1.08098E+1
  -1.28778E+2  -1.42185E+2
  -1.86240E+2  -7.31430E+1
   3.65295E+1  -2.33146E+1
   4.69814E+1   1.38830E+2
   1.34104E+2   1.98833E+2
  -1.43506E+2  -3.02220E+1
  -5.13099E+1  -2.31991E+2
  -1.56739E+0   1.03081E+2
   1.01755E+2   1.29925E+1
   1.06077E+2   9.85675E+0
  -1.09381E+2  -8.05847E+1
  -4.69011E+1  -1.82655E+2
   2.08082E+2   1.19758E+2
   9.50041E+1   1.73474E+2
  -1.79410E+2  -1.05671E+2
  -1.31564E+2  -1.93767E+2
   1.05470E+2  -2.46507E+2
   1.82536E+2  -4.40288E+0
   1.95375E+2   1.21003E+2
   1.94020E+1   3.68196E+1
  -1.63078E+2  -1.62809E+2
  -1.56676E+2  -1.26891E+2
  -1.40732E+2   8.53826E+1
  -2.48830E+2   2.73376E+2
  -4.25924E+1  -1.55305E+2
  -1.08342E+1  -2.34689E+2
   9.21550E+1  -1.73264E+2
   2.45877E+2   2.06340E+2
  -2.97175E+2   2.30179E+2
  -1.35510E+2  -2.59308E+2
  -1.42129E+2  -1.35464E+2
  -4.36033E+1  -2.07633E+2
   3.62087E+1   1.53385E+2
   7.40785E+1   5.28086E+0
   1.72158E+2  -1.84883E+2
  -1.56246E+2  -1.05393E+2
   1.24473E+2   2.18974E+2
   4.91046E+1   7.05718E+1
  -1.66771E+2  -3.44176E+1
  -1.20097E+2  -3.08225E+2
   1.91449E+2  -1.02682E+2
   4.00055E+2   7.84051E+1
   6.65433E+1  -5.44037E+1
  -2.44359E+2  -6.05792E+1
   8.06988E+1  -1.09133E+2
  -2.74668E+0  -7.26157E+0
  -3.63166E+1   2.49075E+2
  -2.60490E+2  -5.11429E+1
  -1.59015E+1  -2.14734E+2
   2.87834E+2  -2.09626E+2
   1.05900E+2   2.05427E+2
   6.74458E+1   4.34312E+2
  -2.74601E+2   4.36405E+2
  -3.85622E+2  -7.28344E+1
   1.20669E+2   1.46244E+1
  -1.11209E+2  -6.33029E+1
  -5.03673E+1  -1.22622E+1
  -5.10760E+1   1.42369E+1
   5.87373E+0  -7.58234E+1
  -4.16324E+1   1.88509E+2
   7.10087E+1   2.19368E+2
  -2.42194E+2   1.35848E+2
  -1.42103E+2  -5.04806E+1
   2.55706E+2  -1.17152E+2
   1.76646E+2   9.82888E+1
  -3.38459E+1   2.90042E+2
  -3.17096E+2  -3.13195E+1
   9.53937E+1  -1.25614E+2
   1.51679E+2  -2.15772E+2
   1.89361E+2   3.09928E+2
   2.46350E+2  -4.83939E+1
   3.87187E+1   1.01949E+2
  -6.65979E+1   1.22753E+1
   8.89593E+1   3.12329E+1
   2.19745E+2   5.89403E+0
  -9.73805E+1   2.82428E+2
  -3.89337E+2  -7.83315E+1
   1.69040E+2  -1.19104E+2
  -4.76474E+1  -4.51722E+1
  -7.34464E+1   1.97985E+2
  -2.12036E+2   1.66721E+1
   7.32585E-2  -2.75060E+2
  -1.86299E+0  -1.20816E+2
   1.92496E+2   4.52585E+1
  -2.22739E+1   1.52266E+2
  -9.17660E+1   3.79779E+1
  -2.24686E+1  -5.76701E+1
   3.47037E+2   8.49724E+1
  -1.31872E+2   1.60741E+2
   1.19274E+2   4.87189E+1
  -2.78845E+2  -1.07619E+2
  -1.75055E+2  -1.30022E+2
   1.47136E+2  -1.25414E+2
   1.60268E+2   1.81667E+2
  -2.01128E+1  -1.86239E+2
   5.41798E+1  -7.78394E+1
  -4.89627E+1   1.43740E+2
  -1.54591E+2   4.05888E+1
  -2.94813E+2  -1.56679E+1
  -3.17247E+2  -5.08080E+1
   1.30742E+1  -2.73962E+2
   2.20563E+1  -2.61968E+2
   2.11876E+2   9.39701E+1
  -1.32968E+2   1.16064E+2
  -1.01139E+2   1.28132E+1
  -6.62441E+1  -5.33900E+1
   5.76426E+1  -2.59661E+1
   1.15942E+2   4.51811E+1
  -4.77747E+1  -6.64261E+1
   3.16769E+1  -1.27688E+2
   1.88341E+2   5.47630E+1
   6.09569E+1   1.01711E+2
  -1.55489E+2   3.16916E+2
  -1.36110E+2  -1.62917E+2
   4.53829E+1   1.01951E+2
   5.64686E+1  -1.96416E+2
   6.05857E+1  -1.96141E+1
  -1.79477E+2  -1.08306E+2
   1.46708E+2  -1.74719E+2
  -8.83751E+1   5.64978E+1
   3.23857E+2  -9.49836E+0
  -1.60674E+2  -7.17548E+1
  -8.78125E+1   3.40776E+1
   6.88058E+1  -3.46745E+2
   1.02072E+2  -2.27935E+2
   6.04111E+1  -2.81237E+1
   8.65408E+0   3.52754E+2
  -3.04336E+1   2.05032E+2
  -2.00561E+2  -1.80542E+2
  -4.08184E+1  -2.85605E+1
