 
 $NMID
 ID=''
 FMTDAT='(2E13.5)'
 TRAMP=   1.00000E+0
 VOLUME=   1.00000E+0
 $END
  -4.29435E+5   4.26746E+5
  -1.43175E+6   7.02837E+5
  -1.27505E+6   8.60651E+5
  -1.21670E+6   6.93546E+5
  -1.32602E+6   6.23994E+5
  -1.32988E+6   6.11571E+5
  -1.33047E+6   5.55486E+5
  -1.36120E+6   5.68387E+5
  -1.30464E+6   5.71184E+5
  -1.28891E+6   4.92566E+5
  -1.32567E+6   4.58015E+5
  -1.31809E+6   4.54429E+5
  -1.31452E+6   4.31623E+5
  -1.31385E+6   4.32435E+5
  -1.27823E+6   4.16910E+5
  -1.26922E+6   3.76708E+5
  -1.28966E+6   3.60706E+5
  -1.28225E+6   3.36977E+5
  -1.27797E+6   2.98856E+5
  -1.27828E+6   2.80948E+5
  -1.26255E+6   2.51078E+5
  -1.25965E+6   2.11569E+5
  -1.26077E+6   1.94707E+5
  -1.24987E+6   1.73443E+5
  -1.24318E+6   1.42607E+5
  -1.23476E+6   1.34190E+5
  -1.22163E+6   1.20766E+5
  -1.21690E+6   1.02584E+5
  -1.20890E+6   9.04968E+4
  -1.19515E+6   7.68071E+4
  -1.19079E+6   5.45642E+4
  -1.18348E+6   3.77305E+4
  -1.17169E+6   1.44221E+4
  -1.16451E+6  -8.51087E+3
  -1.15611E+6  -2.59829E+4
  -1.14633E+6  -4.76124E+4
  -1.14147E+6  -7.20597E+4
  -1.13145E+6  -9.23842E+4
  -1.11843E+6  -1.09551E+5
  -1.11166E+6  -1.24685E+5
  -1.10099E+6  -1.37241E+5
  -1.08841E+6  -1.50105E+5
  -1.07940E+6  -1.60000E+5
  -1.07096E+6  -1.70005E+5
  -1.05928E+6  -1.81857E+5
  -1.05125E+6  -1.91932E+5
  -1.04231E+6  -2.04433E+5
  -1.03046E+6  -2.21740E+5
  -1.01642E+6  -2.36958E+5
  -1.00535E+6  -2.49907E+5
  -9.95331E+5  -2.64382E+5
  -9.84534E+5  -2.79645E+5
  -9.73101E+5  -2.92829E+5
  -9.61674E+5  -3.06158E+5
  -9.50384E+5  -3.18836E+5
  -9.38006E+5  -3.30787E+5
  -9.26020E+5  -3.41171E+5
  -9.14854E+5  -3.49720E+5
  -9.03114E+5  -3.57305E+5
  -8.92113E+5  -3.66287E+5
  -8.80909E+5  -3.75349E+5
  -8.69430E+5  -3.84547E+5
  -8.58298E+5  -3.94118E+5
  -8.45614E+5  -4.04212E+5
  -8.31679E+5  -4.12989E+5
  -8.17415E+5  -4.21066E+5
  -8.04184E+5  -4.29479E+5
  -7.91115E+5  -4.37568E+5
  -7.79246E+5  -4.45497E+5
  -7.67098E+5  -4.52738E+5
  -7.53568E+5  -4.59603E+5
  -7.40422E+5  -4.64975E+5
  -7.29103E+5  -4.70416E+5
  -7.17044E+5  -4.77269E+5
  -7.03825E+5  -4.82448E+5
  -6.91091E+5  -4.87208E+5
  -6.78523E+5  -4.92223E+5
  -6.65064E+5  -4.98103E+5
  -6.50740E+5  -5.04021E+5
  -6.36872E+5  -5.09585E+5
  -6.22589E+5  -5.14333E+5
  -6.08847E+5  -5.18362E+5
  -5.95165E+5  -5.22051E+5
  -5.81517E+5  -5.26503E+5
  -5.67404E+5  -5.30403E+5
  -5.54429E+5  -5.32403E+5
  -5.42562E+5  -5.34425E+5
  -5.30603E+5  -5.36551E+5
  -5.18266E+5  -5.38126E+5
  -5.05953E+5  -5.39007E+5
  -4.94314E+5  -5.40068E+5
  -4.82451E+5  -5.41967E+5
  -4.69884E+5  -5.43474E+5
  -4.56825E+5  -5.44168E+5
  -4.43566E+5  -5.44643E+5
  -4.30950E+5  -5.45566E+5
  -4.18397E+5  -5.46291E+5
  -4.06166E+5  -5.47262E+5
  -3.93840E+5  -5.47532E+5
  -3.82025E+5  -5.47453E+5
  -3.70695E+5  -5.47124E+5
  -3.58728E+5  -5.47361E+5
  -3.46941E+5  -5.46928E+5
  -3.35454E+5  -5.45303E+5
  -3.25248E+5  -5.43692E+5
  -3.15724E+5  -5.42167E+5
  -3.05203E+5  -5.41400E+5
  -2.93245E+5  -5.40258E+5
  -2.82462E+5  -5.38112E+5
  -2.72820E+5  -5.35383E+5
  -2.63089E+5  -5.33954E+5
  -2.52523E+5  -5.32868E+5
  -2.41321E+5  -5.31410E+5
  -2.30731E+5  -5.29618E+5
  -2.20211E+5  -5.27619E+5
  -2.10201E+5  -5.26081E+5
  -1.99778E+5  -5.23655E+5
  -1.89301E+5  -5.21205E+5
  -1.79862E+5  -5.17533E+5
  -1.71007E+5  -5.14817E+5
  -1.62258E+5  -5.12592E+5
  -1.53126E+5  -5.10434E+5
  -1.43983E+5  -5.07576E+5
  -1.35071E+5  -5.05055E+5
  -1.25813E+5  -5.01929E+5
  -1.16851E+5  -4.98502E+5
  -1.08417E+5  -4.94829E+5
  -9.96220E+4  -4.91768E+5
  -9.12604E+4  -4.88557E+5
  -8.27237E+4  -4.85593E+5
  -7.40139E+4  -4.82313E+5
  -6.48929E+4  -4.78792E+5
  -5.66443E+4  -4.74439E+5
  -4.86862E+4  -4.70718E+5
  -4.05593E+4  -4.67167E+5
  -3.25113E+4  -4.62777E+5
  -2.51754E+4  -4.58822E+5
  -1.79937E+4  -4.54693E+5
  -9.90969E+3  -4.50884E+5
  -2.27983E+3  -4.46793E+5
   4.98100E+3  -4.41936E+5
   1.17991E+4  -4.36902E+5
   1.84316E+4  -4.32507E+5
   2.53288E+4  -4.28092E+5
   3.19619E+4  -4.23746E+5
   3.85698E+4  -4.18944E+5
   4.47639E+4  -4.13863E+5
   5.10870E+4  -4.08806E+5
   5.66744E+4  -4.03827E+5
   6.23463E+4  -3.98807E+5
   6.78259E+4  -3.93959E+5
   7.26161E+4  -3.88947E+5
   7.78435E+4  -3.84078E+5
   8.27241E+4  -3.79205E+5
   8.82708E+4  -3.74127E+5
   9.29401E+4  -3.68529E+5
   9.75411E+4  -3.63617E+5
   1.02027E+5  -3.58689E+5
   1.06568E+5  -3.53436E+5
   1.10731E+5  -3.48030E+5
   1.14901E+5  -3.43140E+5
   1.19296E+5  -3.38178E+5
   1.23045E+5  -3.32701E+5
   1.26751E+5  -3.27244E+5
   1.30056E+5  -3.22299E+5
   1.33559E+5  -3.17214E+5
   1.37084E+5  -3.12315E+5
   1.40569E+5  -3.07317E+5
   1.43786E+5  -3.02384E+5
   1.46749E+5  -2.97259E+5
   1.49729E+5  -2.92575E+5
   1.52432E+5  -2.87631E+5
   1.55351E+5  -2.83078E+5
   1.58263E+5  -2.78096E+5
   1.60454E+5  -2.72972E+5
   1.63297E+5  -2.68307E+5
   1.66114E+5  -2.63974E+5
   1.68579E+5  -2.58669E+5
   1.70785E+5  -2.53254E+5
   1.72894E+5  -2.48800E+5
   1.75129E+5  -2.44304E+5
   1.77676E+5  -2.39621E+5
   1.79782E+5  -2.34964E+5
   1.81931E+5  -2.29930E+5
   1.83729E+5  -2.25307E+5
   1.85408E+5  -2.20790E+5
   1.86534E+5  -2.15928E+5
   1.87919E+5  -2.11693E+5
   1.89543E+5  -2.07332E+5
   1.90960E+5  -2.03510E+5
   1.92630E+5  -1.99167E+5
   1.94377E+5  -1.94513E+5
   1.95533E+5  -1.89808E+5
   1.96676E+5  -1.85042E+5
   1.97510E+5  -1.80890E+5
   1.98512E+5  -1.76332E+5
   1.99409E+5  -1.71808E+5
   2.00575E+5  -1.67440E+5
   2.01414E+5  -1.63086E+5
   2.02485E+5  -1.58630E+5
   2.03318E+5  -1.53929E+5
   2.03694E+5  -1.49449E+5
   2.03749E+5  -1.44908E+5
   2.04228E+5  -1.40951E+5
   2.04856E+5  -1.36626E+5
   2.05099E+5  -1.32113E+5
   2.05308E+5  -1.27845E+5
   2.05340E+5  -1.23341E+5
   2.05220E+5  -1.19067E+5
   2.05249E+5  -1.14576E+5
   2.04866E+5  -1.10222E+5
   2.04489E+5  -1.06180E+5
   2.04301E+5  -1.01966E+5
   2.04368E+5  -9.79807E+4
   2.03819E+5  -9.31926E+4
   2.03268E+5  -8.90117E+4
   2.02455E+5  -8.47273E+4
   2.01433E+5  -8.12237E+4
   2.00874E+5  -7.72883E+4
   1.99527E+5  -7.28780E+4
   1.98780E+5  -6.93518E+4
   1.97841E+5  -6.55119E+4
   1.96719E+5  -6.19603E+4
   1.95723E+5  -5.79740E+4
   1.94562E+5  -5.42119E+4
   1.92998E+5  -5.02818E+4
   1.91676E+5  -4.69000E+4
   1.90482E+5  -4.35294E+4
   1.89124E+5  -3.99558E+4
   1.87737E+5  -3.64952E+4
   1.86368E+5  -3.29689E+4
   1.84434E+5  -2.97875E+4
   1.82925E+5  -2.67414E+4
   1.81408E+5  -2.34128E+4
   1.79447E+5  -2.03100E+4
   1.77764E+5  -1.74621E+4
   1.76486E+5  -1.44108E+4
   1.74667E+5  -1.15248E+4
   1.72938E+5  -8.60912E+3
   1.71395E+5  -5.81300E+3
   1.69279E+5  -3.16079E+3
   1.67449E+5  -5.59653E+2
   1.65718E+5   2.11196E+3
   1.63975E+5   5.02388E+3
   1.61567E+5   7.34951E+3
   1.59854E+5   9.95280E+3
   1.58170E+5   1.23054E+4
   1.55989E+5   1.48429E+4
   1.54068E+5   1.69565E+4
   1.52161E+5   1.93042E+4
   1.50670E+5   2.12984E+4
   1.48461E+5   2.37632E+4
   1.46647E+5   2.59872E+4
   1.44533E+5   2.80360E+4
   1.42295E+5   2.98330E+4
   1.40386E+5   3.20665E+4
   1.38576E+5   3.37508E+4
   1.36753E+5   3.57841E+4
   1.34683E+5   3.78300E+4
   1.32841E+5   3.98160E+4
   1.30655E+5   4.18661E+4
   1.28535E+5   4.37052E+4
   1.25952E+5   4.53676E+4
   1.23947E+5   4.70628E+4
   1.21870E+5   4.83492E+4
   1.19933E+5   5.04540E+4
   1.17914E+5   5.18338E+4
   1.15554E+5   5.34694E+4
   1.13262E+5   5.47815E+4
   1.11138E+5   5.63661E+4
   1.08857E+5   5.76356E+4
   1.06719E+5   5.88612E+4
   1.04699E+5   6.00756E+4
   1.02764E+5   6.15841E+4
   1.00329E+5   6.25999E+4
   9.83183E+4   6.39198E+4
   9.58975E+4   6.51054E+4
   9.37608E+4   6.60163E+4
   9.13996E+4   6.68281E+4
   8.96411E+4   6.76563E+4
   8.72800E+4   6.89098E+4
   8.49709E+4   6.98806E+4
   8.27075E+4   7.02395E+4
   8.08227E+4   7.14240E+4
   7.83601E+4   7.21103E+4
   7.62213E+4   7.26523E+4
   7.38903E+4   7.33115E+4
   7.19049E+4   7.35448E+4
   6.98018E+4   7.43123E+4
   6.77782E+4   7.48072E+4
   6.57308E+4   7.53022E+4
   6.36447E+4   7.57831E+4
   6.14622E+4   7.63826E+4
   5.94394E+4   7.65725E+4
   5.73343E+4   7.70413E+4
   5.54788E+4   7.70861E+4
   5.32702E+4   7.73705E+4
   5.14980E+4   7.74793E+4
   4.96004E+4   7.77380E+4
   4.77040E+4   7.80736E+4
   4.57070E+4   7.80637E+4
   4.39342E+4   7.79951E+4
   4.20006E+4   7.82803E+4
   4.02870E+4   7.82566E+4
   3.84334E+4   7.83563E+4
   3.62512E+4   7.82850E+4
   3.45514E+4   7.79013E+4
   3.27898E+4   7.77327E+4
   3.12817E+4   7.79041E+4
   2.94934E+4   7.76162E+4
   2.79219E+4   7.76622E+4
   2.63885E+4   7.73280E+4
   2.48118E+4   7.69706E+4
   2.28883E+4   7.68051E+4
   2.13494E+4   7.64864E+4
   2.00194E+4   7.61390E+4
   1.82848E+4   7.60092E+4
   1.68923E+4   7.54745E+4
   1.53669E+4   7.51208E+4
   1.38943E+4   7.46297E+4
   1.24591E+4   7.44025E+4
   1.10187E+4   7.39350E+4
   9.78738E+3   7.34241E+4
   8.09788E+3   7.26375E+4
   6.94043E+3   7.23544E+4
   5.71873E+3   7.16484E+4
   4.26828E+3   7.10128E+4
   2.95718E+3   7.04380E+4
   1.71939E+3   6.97101E+4
   4.49202E+2   6.89795E+4
  -7.04723E+2   6.84457E+4
  -1.69134E+3   6.78902E+4
  -2.91246E+3   6.71682E+4
  -4.00937E+3   6.63244E+4
  -5.15194E+3   6.58808E+4
  -6.36013E+3   6.50345E+4
  -7.29070E+3   6.42287E+4
  -8.51626E+3   6.32450E+4
  -9.54705E+3   6.25643E+4
  -1.04724E+4   6.15287E+4
  -1.15938E+4   6.08745E+4
  -1.23330E+4   5.98423E+4
  -1.34137E+4   5.92188E+4
  -1.44957E+4   5.83662E+4
  -1.52653E+4   5.73099E+4
  -1.64251E+4   5.64063E+4
  -1.71681E+4   5.55849E+4
  -1.79495E+4   5.46883E+4
  -1.87122E+4   5.36561E+4
  -1.93553E+4   5.28765E+4
  -2.05631E+4   5.20085E+4
  -2.10872E+4   5.10729E+4
  -2.20202E+4   5.02500E+4
  -2.25668E+4   4.91404E+4
  -2.32839E+4   4.83438E+4
  -2.37843E+4   4.73644E+4
  -2.47126E+4   4.62494E+4
  -2.50307E+4   4.55463E+4
  -2.60133E+4   4.47829E+4
  -2.64486E+4   4.39326E+4
  -2.67261E+4   4.27309E+4
  -2.75457E+4   4.19830E+4
  -2.81407E+4   4.09270E+4
  -2.84955E+4   4.04004E+4
  -2.91038E+4   3.92790E+4
  -2.96668E+4   3.82550E+4
  -3.00238E+4   3.76729E+4
