 
 $NMID
 ID=''
 FMTDAT='(2E13.5)'
 TRAMP=   1.00000E+0
 VOLUME=   1.00000E+0
 $END
   6.83575E+5   2.03585E+5
   1.50795E+6   1.19832E+6
   1.60266E+6   9.95427E+5
   1.48532E+6   9.70890E+5
   1.56638E+6   9.86543E+5
   1.61934E+6   8.45115E+5
   1.58228E+6   7.86686E+5
   1.62027E+6   7.90911E+5
   1.62914E+6   7.27764E+5
   1.58989E+6   7.12967E+5
   1.60790E+6   7.05637E+5
   1.60539E+6   6.50050E+5
   1.57781E+6   6.35597E+5
   1.58484E+6   6.35043E+5
   1.56878E+6   6.02797E+5
   1.54295E+6   5.91407E+5
   1.55409E+6   5.76344E+5
   1.54739E+6   5.30681E+5
   1.52948E+6   4.98625E+5
   1.53900E+6   4.62797E+5
   1.52851E+6   4.21435E+5
   1.50935E+6   3.96584E+5
   1.50962E+6   3.69405E+5
   1.49656E+6   3.36257E+5
   1.47353E+6   3.20162E+5
   1.46566E+6   2.94448E+5
   1.45200E+6   2.74544E+5
   1.43118E+6   2.72784E+5
   1.41500E+6   2.61049E+5
   1.39701E+6   2.35239E+5
   1.38308E+6   2.20217E+5
   1.36946E+6   1.98024E+5
   1.34865E+6   1.69661E+5
   1.33268E+6   1.46779E+5
   1.31822E+6   1.20292E+5
   1.29807E+6   8.74031E+4
   1.28182E+6   5.91518E+4
   1.26731E+6   3.55289E+4
   1.24357E+6   1.64577E+4
   1.22227E+6   7.74543E+2
   1.20446E+6  -1.49413E+4
   1.18303E+6  -2.73766E+4
   1.16078E+6  -3.77051E+4
   1.14087E+6  -5.05683E+4
   1.11994E+6  -6.08354E+4
   1.10050E+6  -6.81063E+4
   1.08004E+6  -7.85943E+4
   1.05781E+6  -9.11609E+4
   1.03608E+6  -1.04814E+5
   1.01502E+6  -1.18186E+5
   9.92601E+5  -1.31544E+5
   9.71423E+5  -1.44841E+5
   9.51259E+5  -1.57172E+5
   9.29547E+5  -1.66971E+5
   9.07309E+5  -1.76438E+5
   8.86387E+5  -1.84462E+5
   8.65694E+5  -1.89220E+5
   8.43517E+5  -1.93461E+5
   8.21346E+5  -1.99864E+5
   8.01778E+5  -2.05675E+5
   7.81823E+5  -2.09351E+5
   7.60485E+5  -2.13556E+5
   7.39867E+5  -2.19041E+5
   7.19789E+5  -2.23387E+5
   6.98831E+5  -2.27142E+5
   6.76970E+5  -2.31352E+5
   6.56481E+5  -2.36174E+5
   6.36871E+5  -2.39514E+5
   6.16786E+5  -2.42284E+5
   5.97858E+5  -2.44667E+5
   5.79200E+5  -2.46498E+5
   5.60757E+5  -2.46702E+5
   5.41643E+5  -2.47269E+5
   5.23434E+5  -2.48005E+5
   5.05744E+5  -2.48160E+5
   4.87692E+5  -2.47643E+5
   4.69090E+5  -2.47812E+5
   4.51457E+5  -2.48342E+5
   4.34855E+5  -2.48661E+5
   4.17340E+5  -2.47886E+5
   4.00027E+5  -2.47492E+5
   3.83189E+5  -2.47121E+5
   3.67201E+5  -2.45535E+5
   3.51754E+5  -2.43578E+5
   3.36471E+5  -2.41674E+5
   3.22071E+5  -2.39020E+5
   3.07176E+5  -2.36345E+5
   2.92871E+5  -2.33543E+5
   2.79080E+5  -2.31040E+5
   2.66096E+5  -2.28110E+5
   2.52023E+5  -2.25023E+5
   2.38212E+5  -2.22962E+5
   2.25392E+5  -2.20902E+5
   2.12773E+5  -2.18385E+5
   1.99911E+5  -2.16008E+5
   1.87428E+5  -2.13598E+5
   1.75492E+5  -2.11406E+5
   1.63928E+5  -2.09131E+5
   1.52021E+5  -2.06318E+5
   1.41496E+5  -2.03639E+5
   1.30852E+5  -2.00913E+5
   1.20844E+5  -1.97691E+5
   1.11374E+5  -1.94471E+5
   1.01894E+5  -1.91202E+5
   9.26118E+4  -1.88016E+5
   8.33173E+4  -1.84833E+5
   7.45257E+4  -1.82023E+5
   6.65431E+4  -1.79302E+5
   5.85906E+4  -1.75496E+5
   5.02373E+4  -1.72583E+5
   4.23072E+4  -1.69933E+5
   3.48977E+4  -1.67400E+5
   2.76861E+4  -1.64373E+5
   2.12234E+4  -1.61294E+5
   1.45677E+4  -1.58563E+5
   8.31684E+3  -1.55707E+5
   2.46163E+3  -1.52821E+5
  -3.09375E+3  -1.50211E+5
  -8.63447E+3  -1.47549E+5
  -1.39394E+4  -1.44517E+5
  -1.92485E+4  -1.41870E+5
  -2.41431E+4  -1.39483E+5
  -2.87948E+4  -1.36860E+5
  -3.35629E+4  -1.34226E+5
  -3.80802E+4  -1.32021E+5
  -4.19528E+4  -1.29658E+5
  -4.56716E+4  -1.27163E+5
  -4.95045E+4  -1.24659E+5
  -5.31332E+4  -1.22329E+5
  -5.67221E+4  -1.20109E+5
  -5.95322E+4  -1.18231E+5
  -6.23548E+4  -1.16379E+5
  -6.51880E+4  -1.14152E+5
  -6.79022E+4  -1.12251E+5
  -7.09571E+4  -1.10503E+5
  -7.33163E+4  -1.08737E+5
  -7.55144E+4  -1.06918E+5
  -7.81466E+4  -1.05150E+5
  -8.03635E+4  -1.03759E+5
  -8.26172E+4  -1.02482E+5
  -8.43894E+4  -1.01048E+5
  -8.58281E+4  -9.97362E+4
  -8.77847E+4  -9.77903E+4
  -8.94557E+4  -9.63113E+4
  -9.13838E+4  -9.48729E+4
  -9.24458E+4  -9.36688E+4
  -9.36144E+4  -9.24036E+4
  -9.47922E+4  -9.11289E+4
  -9.60223E+4  -8.98152E+4
  -9.71632E+4  -8.85098E+4
  -9.78740E+4  -8.73272E+4
  -9.88050E+4  -8.60159E+4
  -9.99618E+4  -8.49304E+4
  -1.00831E+5  -8.33885E+4
  -1.01997E+5  -8.26384E+4
  -1.02492E+5  -8.12841E+4
  -1.03198E+5  -7.97996E+4
  -1.04238E+5  -7.84947E+4
  -1.04666E+5  -7.73444E+4
  -1.04923E+5  -7.63990E+4
  -1.05639E+5  -7.51729E+4
  -1.05936E+5  -7.40567E+4
  -1.06070E+5  -7.25473E+4
  -1.06129E+5  -7.16033E+4
  -1.06534E+5  -7.04179E+4
  -1.06625E+5  -6.91505E+4
  -1.06855E+5  -6.80259E+4
  -1.06850E+5  -6.68387E+4
  -1.06946E+5  -6.58351E+4
  -1.06972E+5  -6.47015E+4
  -1.06558E+5  -6.35094E+4
  -1.06730E+5  -6.22672E+4
  -1.06541E+5  -6.11634E+4
  -1.06266E+5  -6.03623E+4
  -1.05966E+5  -5.92127E+4
  -1.05820E+5  -5.78614E+4
  -1.05311E+5  -5.68054E+4
  -1.04954E+5  -5.57408E+4
  -1.04117E+5  -5.50965E+4
  -1.03710E+5  -5.37979E+4
  -1.03400E+5  -5.28262E+4
  -1.02665E+5  -5.18392E+4
  -1.01996E+5  -5.12890E+4
  -1.01434E+5  -5.02930E+4
  -1.00554E+5  -4.93565E+4
  -9.96805E+4  -4.84733E+4
  -9.91957E+4  -4.73623E+4
  -9.82221E+4  -4.64716E+4
  -9.73412E+4  -4.56186E+4
  -9.67540E+4  -4.41392E+4
  -9.61982E+4  -4.37900E+4
  -9.50159E+4  -4.32295E+4
  -9.40018E+4  -4.23619E+4
  -9.29240E+4  -4.15684E+4
  -9.19070E+4  -4.08814E+4
  -9.13170E+4  -4.05632E+4
  -9.00882E+4  -3.95699E+4
  -8.89348E+4  -3.91987E+4
  -8.76875E+4  -3.87128E+4
  -8.66997E+4  -3.81883E+4
  -8.56003E+4  -3.76544E+4
  -8.45897E+4  -3.75061E+4
  -8.30683E+4  -3.69406E+4
  -8.21340E+4  -3.64732E+4
  -8.13054E+4  -3.58801E+4
  -8.01651E+4  -3.56983E+4
  -7.90000E+4  -3.56316E+4
  -7.80071E+4  -3.46626E+4
  -7.69972E+4  -3.46283E+4
  -7.59957E+4  -3.43924E+4
  -7.49323E+4  -3.42250E+4
  -7.35522E+4  -3.38803E+4
  -7.28098E+4  -3.35400E+4
  -7.19273E+4  -3.34772E+4
  -7.08645E+4  -3.33889E+4
  -6.94651E+4  -3.30991E+4
  -6.85382E+4  -3.26933E+4
  -6.77201E+4  -3.22874E+4
  -6.67795E+4  -3.22389E+4
  -6.60748E+4  -3.20617E+4
  -6.50646E+4  -3.19103E+4
  -6.41696E+4  -3.15688E+4
  -6.34215E+4  -3.16586E+4
  -6.25899E+4  -3.13661E+4
  -6.15905E+4  -3.12168E+4
  -6.05371E+4  -3.07428E+4
  -5.98608E+4  -3.07438E+4
  -5.92785E+4  -3.04759E+4
  -5.84242E+4  -3.02646E+4
  -5.77362E+4  -3.00807E+4
  -5.67210E+4  -2.98681E+4
  -5.59745E+4  -2.96992E+4
  -5.53000E+4  -2.92337E+4
  -5.46552E+4  -2.92783E+4
  -5.37845E+4  -2.90125E+4
  -5.31544E+4  -2.87606E+4
  -5.27166E+4  -2.85266E+4
  -5.19385E+4  -2.81522E+4
  -5.12582E+4  -2.79022E+4
  -5.04095E+4  -2.76826E+4
  -4.98364E+4  -2.74009E+4
  -4.92833E+4  -2.71345E+4
  -4.86036E+4  -2.66809E+4
  -4.80057E+4  -2.66054E+4
  -4.73361E+4  -2.61845E+4
  -4.67665E+4  -2.57505E+4
  -4.63925E+4  -2.56258E+4
  -4.55037E+4  -2.52594E+4
  -4.48891E+4  -2.48682E+4
  -4.42677E+4  -2.45618E+4
  -4.36791E+4  -2.40762E+4
  -4.28683E+4  -2.38491E+4
  -4.24419E+4  -2.33230E+4
  -4.15073E+4  -2.28768E+4
  -4.10806E+4  -2.25858E+4
  -4.05271E+4  -2.21758E+4
  -3.98314E+4  -2.18176E+4
  -3.91827E+4  -2.16659E+4
  -3.84428E+4  -2.11071E+4
  -3.78237E+4  -2.09072E+4
  -3.70988E+4  -2.05118E+4
  -3.65986E+4  -2.00696E+4
  -3.57595E+4  -1.98486E+4
  -3.48047E+4  -1.94590E+4
  -3.44536E+4  -1.88803E+4
  -3.38764E+4  -1.83592E+4
  -3.30398E+4  -1.82446E+4
  -3.20620E+4  -1.77664E+4
  -3.14913E+4  -1.72647E+4
  -3.09460E+4  -1.69400E+4
  -2.99562E+4  -1.63679E+4
  -2.96077E+4  -1.60117E+4
  -2.88044E+4  -1.57104E+4
  -2.82733E+4  -1.52419E+4
  -2.73370E+4  -1.49540E+4
  -2.67395E+4  -1.44415E+4
  -2.58327E+4  -1.40879E+4
  -2.52685E+4  -1.35208E+4
  -2.42996E+4  -1.30758E+4
  -2.37467E+4  -1.27604E+4
  -2.28877E+4  -1.21761E+4
  -2.25103E+4  -1.18840E+4
  -2.18082E+4  -1.14549E+4
  -2.10403E+4  -1.08703E+4
  -2.03560E+4  -1.06135E+4
  -1.96075E+4  -1.00467E+4
  -1.87330E+4  -9.48779E+3
  -1.79496E+4  -9.15057E+3
  -1.78409E+4  -8.43941E+3
  -1.69938E+4  -8.18195E+3
  -1.60464E+4  -7.62522E+3
  -1.54211E+4  -7.55531E+3
  -1.46309E+4  -6.84175E+3
  -1.41618E+4  -6.61530E+3
  -1.36938E+4  -5.91877E+3
  -1.29611E+4  -5.52533E+3
  -1.22003E+4  -5.25802E+3
  -1.17566E+4  -4.81653E+3
  -1.11806E+4  -4.04465E+3
  -1.07289E+4  -4.08708E+3
  -9.72705E+3  -3.52174E+3
  -9.27985E+3  -3.00448E+3
  -8.65197E+3  -2.61698E+3
  -8.12275E+3  -2.18252E+3
  -7.57276E+3  -1.57494E+3
  -6.96686E+3  -1.13438E+3
  -6.48531E+3  -9.09207E+2
  -6.14353E+3  -3.89367E+2
  -5.37117E+3   2.07576E+2
  -4.94335E+3   4.17559E+2
  -4.40243E+3   7.84962E+2
  -4.05940E+3   1.40257E+3
  -3.88733E+3   1.66059E+3
  -3.02167E+3   2.08627E+3
  -2.54394E+3   2.54076E+3
  -2.13788E+3   2.82479E+3
  -1.78238E+3   3.35844E+3
  -1.34905E+3   3.82167E+3
  -9.25778E+2   3.85912E+3
  -4.34818E+2   4.38565E+3
  -4.46508E+1   4.90153E+3
   6.62049E+1   5.18295E+3
   5.57011E+2   5.56791E+3
   9.98833E+2   6.14460E+3
   1.50747E+3   6.68332E+3
   1.62792E+3   6.90637E+3
   2.15858E+3   6.99428E+3
   2.60033E+3   7.84360E+3
   2.68523E+3   8.00584E+3
   3.33778E+3   8.29953E+3
   3.25493E+3   8.58140E+3
   3.81947E+3   8.96974E+3
   4.02132E+3   9.56187E+3
   4.37807E+3   9.72502E+3
   4.68861E+3   1.00145E+4
   4.62175E+3   1.03229E+4
   5.05700E+3   1.05902E+4
   5.50624E+3   1.13833E+4
   5.62595E+3   1.14079E+4
   5.67427E+3   1.17974E+4
   5.88190E+3   1.17915E+4
   6.25524E+3   1.22091E+4
   6.50455E+3   1.25214E+4
   6.34400E+3   1.29688E+4
   6.76145E+3   1.33133E+4
   6.89153E+3   1.35346E+4
   7.13041E+3   1.37610E+4
   7.41973E+3   1.42318E+4
   7.35619E+3   1.40946E+4
   7.14709E+3   1.48299E+4
   7.69715E+3   1.48698E+4
   7.55161E+3   1.51950E+4
   7.90605E+3   1.53612E+4
   7.85124E+3   1.55881E+4
   7.90291E+3   1.58690E+4
   8.22209E+3   1.59656E+4
   8.37313E+3   1.63383E+4
   8.12484E+3   1.64008E+4
   8.13473E+3   1.68121E+4
   8.31918E+3   1.66925E+4
   8.30419E+3   1.70865E+4
   8.52341E+3   1.70460E+4
   8.33344E+3   1.73122E+4
   8.35880E+3   1.72178E+4
   8.24950E+3   1.75651E+4
   8.38681E+3   1.76148E+4
   8.48509E+3   1.77853E+4
