 
 $NMID
 ID=''
 FMTDAT='(2E13.5)'
 TRAMP=   1.00000E+0
 VOLUME=   1.00000E+0
 $END
   3.32971E+3   4.87511E+5
  -4.48070E+5   1.21349E+6
  -3.08778E+5   1.21761E+6
  -3.89773E+5   1.10706E+6
  -4.87523E+5   1.12722E+6
  -4.94600E+5   1.09149E+6
  -5.48073E+5   1.03084E+6
  -5.96606E+5   1.04312E+6
  -5.92773E+5   1.01691E+6
  -6.32566E+5   9.67037E+5
  -6.66615E+5   9.55728E+5
  -6.70803E+5   9.21044E+5
  -7.03300E+5   8.79968E+5
  -7.25394E+5   8.66126E+5
  -7.28945E+5   8.31785E+5
  -7.52997E+5   7.96152E+5
  -7.76973E+5   7.80601E+5
  -7.89437E+5   7.39509E+5
  -8.14665E+5   6.95151E+5
  -8.30953E+5   6.67997E+5
  -8.41309E+5   6.24935E+5
  -8.61122E+5   5.84274E+5
  -8.71109E+5   5.57183E+5
  -8.77594E+5   5.19798E+5
  -8.89736E+5   4.81101E+5
  -8.89972E+5   4.57507E+5
  -8.89734E+5   4.27975E+5
  -8.96338E+5   3.99394E+5
  -8.94210E+5   3.71682E+5
  -8.91039E+5   3.41034E+5
  -8.97610E+5   3.10674E+5
  -8.96281E+5   2.81298E+5
  -8.93248E+5   2.46681E+5
  -8.92734E+5   2.15483E+5
  -8.87712E+5   1.85600E+5
  -8.82941E+5   1.51767E+5
  -8.82223E+5   1.20512E+5
  -8.75684E+5   9.07653E+4
  -8.66096E+5   6.19262E+4
  -8.59651E+5   3.72223E+4
  -8.49944E+5   1.42045E+4
  -8.39452E+5  -9.49231E+3
  -8.29027E+5  -2.93702E+4
  -8.18654E+5  -4.89817E+4
  -8.07590E+5  -7.01302E+4
  -7.98003E+5  -8.91518E+4
  -7.86680E+5  -1.09556E+5
  -7.73230E+5  -1.32661E+5
  -7.58029E+5  -1.53003E+5
  -7.43796E+5  -1.71999E+5
  -7.30787E+5  -1.91587E+5
  -7.16367E+5  -2.11055E+5
  -7.00905E+5  -2.28657E+5
  -6.86563E+5  -2.45369E+5
  -6.71722E+5  -2.61020E+5
  -6.55780E+5  -2.75445E+5
  -6.39822E+5  -2.88417E+5
  -6.24177E+5  -2.99918E+5
  -6.08331E+5  -3.10345E+5
  -5.93671E+5  -3.20953E+5
  -5.78201E+5  -3.31149E+5
  -5.62608E+5  -3.40818E+5
  -5.46843E+5  -3.50290E+5
  -5.30138E+5  -3.59689E+5
  -5.12419E+5  -3.67848E+5
  -4.95650E+5  -3.74460E+5
  -4.79263E+5  -3.80661E+5
  -4.62814E+5  -3.86543E+5
  -4.46730E+5  -3.92298E+5
  -4.30920E+5  -3.98095E+5
  -4.14696E+5  -4.02693E+5
  -3.98659E+5  -4.05315E+5
  -3.83923E+5  -4.08149E+5
  -3.69020E+5  -4.11606E+5
  -3.53213E+5  -4.13728E+5
  -3.37603E+5  -4.15136E+5
  -3.22545E+5  -4.16560E+5
  -3.07365E+5  -4.18249E+5
  -2.92222E+5  -4.19356E+5
  -2.76641E+5  -4.19443E+5
  -2.61732E+5  -4.19099E+5
  -2.47129E+5  -4.18687E+5
  -2.32826E+5  -4.17921E+5
  -2.18858E+5  -4.17001E+5
  -2.04934E+5  -4.15322E+5
  -1.91971E+5  -4.13006E+5
  -1.79377E+5  -4.10489E+5
  -1.67478E+5  -4.08360E+5
  -1.55122E+5  -4.05486E+5
  -1.43811E+5  -4.01841E+5
  -1.32994E+5  -3.98317E+5
  -1.21821E+5  -3.95117E+5
  -1.10728E+5  -3.91473E+5
  -9.95908E+4  -3.87483E+5
  -8.92197E+4  -3.82387E+5
  -7.91452E+4  -3.77893E+5
  -6.97160E+4  -3.73245E+5
  -5.94780E+4  -3.69030E+5
  -5.00287E+4  -3.64271E+5
  -4.17053E+4  -3.58938E+5
  -3.36050E+4  -3.54083E+5
  -2.45856E+4  -3.49249E+5
  -1.65245E+4  -3.43310E+5
  -9.27745E+3  -3.37361E+5
  -2.72454E+3  -3.31661E+5
   3.76354E+3  -3.26418E+5
   1.05026E+4  -3.21402E+5
   1.75204E+4  -3.15144E+5
   2.35134E+4  -3.08848E+5
   2.90754E+4  -3.02705E+5
   3.40977E+4  -2.97095E+5
   3.96508E+4  -2.91205E+5
   4.55303E+4  -2.85272E+5
   5.08763E+4  -2.79116E+5
   5.54360E+4  -2.73059E+5
   6.00293E+4  -2.66968E+5
   6.46790E+4  -2.61232E+5
   6.92469E+4  -2.55029E+5
   7.29030E+4  -2.48405E+5
   7.59879E+4  -2.42302E+5
   7.94160E+4  -2.36912E+5
   8.29225E+4  -2.31215E+5
   8.61244E+4  -2.25185E+5
   8.90222E+4  -2.19329E+5
   9.20270E+4  -2.13659E+5
   9.46567E+4  -2.07578E+5
   9.70102E+4  -2.01657E+5
   9.92427E+4  -1.95906E+5
   1.01542E+5  -1.90457E+5
   1.03563E+5  -1.85077E+5
   1.06007E+5  -1.79256E+5
   1.08049E+5  -1.73291E+5
   1.09451E+5  -1.67864E+5
   1.11127E+5  -1.62542E+5
   1.12682E+5  -1.57356E+5
   1.13791E+5  -1.51409E+5
   1.14693E+5  -1.46554E+5
   1.15770E+5  -1.41656E+5
   1.16841E+5  -1.36228E+5
   1.17513E+5  -1.31048E+5
   1.18114E+5  -1.25935E+5
   1.18857E+5  -1.21193E+5
   1.18758E+5  -1.16278E+5
   1.18779E+5  -1.12058E+5
   1.19363E+5  -1.07302E+5
   1.19286E+5  -1.02608E+5
   1.19212E+5  -9.83261E+4
   1.18927E+5  -9.37904E+4
   1.18573E+5  -8.97233E+4
   1.18084E+5  -8.55751E+4
   1.17715E+5  -8.12121E+4
   1.16898E+5  -7.74589E+4
   1.16205E+5  -7.42398E+4
   1.15757E+5  -7.06992E+4
   1.15114E+5  -6.65719E+4
   1.13947E+5  -6.34578E+4
   1.13055E+5  -6.01797E+4
   1.12305E+5  -5.69438E+4
   1.11380E+5  -5.36121E+4
   1.10184E+5  -5.03605E+4
   1.09154E+5  -4.76485E+4
   1.08165E+5  -4.46527E+4
   1.06746E+5  -4.16185E+4
   1.05476E+5  -3.91135E+4
   1.04070E+5  -3.64456E+4
   1.03098E+5  -3.37478E+4
   1.01715E+5  -3.10630E+4
   1.00543E+5  -2.88723E+4
   9.92414E+4  -2.67657E+4
   9.80447E+4  -2.44575E+4
   9.64192E+4  -2.24334E+4
   9.53529E+4  -2.03017E+4
   9.38362E+4  -1.84048E+4
   9.27244E+4  -1.65160E+4
   9.10902E+4  -1.45536E+4
   8.96828E+4  -1.29699E+4
   8.86904E+4  -1.11411E+4
   8.72686E+4  -9.52646E+3
   8.55330E+4  -7.69989E+3
   8.39914E+4  -6.33450E+3
   8.30904E+4  -4.76305E+3
   8.16196E+4  -3.56458E+3
   8.00866E+4  -2.02682E+3
   7.88815E+4  -6.12102E+2
   7.71640E+4   5.80386E+2
   7.61300E+4   1.91794E+3
   7.47874E+4   2.87650E+3
   7.33712E+4   3.77489E+3
   7.19827E+4   4.91781E+3
   7.05777E+4   5.91229E+3
   6.94609E+4   6.83742E+3
   6.80985E+4   7.91326E+3
   6.67133E+4   8.90103E+3
   6.52721E+4   9.60602E+3
   6.39933E+4   1.05474E+4
   6.29482E+4   1.14720E+4
   6.15684E+4   1.21212E+4
   6.02990E+4   1.31388E+4
   5.90305E+4   1.38628E+4
   5.76641E+4   1.43337E+4
   5.68709E+4   1.50890E+4
   5.54402E+4   1.58008E+4
   5.41420E+4   1.63665E+4
   5.28074E+4   1.67749E+4
   5.18084E+4   1.71711E+4
   5.04570E+4   1.78992E+4
   4.92876E+4   1.83961E+4
   4.79818E+4   1.88110E+4
   4.69777E+4   1.94898E+4
   4.58386E+4   1.95432E+4
   4.48337E+4   2.02095E+4
   4.35751E+4   2.07261E+4
   4.25117E+4   2.07543E+4
   4.14402E+4   2.12078E+4
   4.02383E+4   2.13307E+4
   3.93405E+4   2.16943E+4
   3.84275E+4   2.17888E+4
   3.74416E+4   2.20156E+4
   3.65123E+4   2.18224E+4
   3.52933E+4   2.21209E+4
   3.44375E+4   2.20866E+4
   3.34746E+4   2.23156E+4
   3.27199E+4   2.25193E+4
   3.20444E+4   2.24916E+4
   3.11819E+4   2.24087E+4
   3.01633E+4   2.25691E+4
   2.93410E+4   2.23929E+4
   2.84901E+4   2.22242E+4
   2.76945E+4   2.21778E+4
   2.70313E+4   2.22055E+4
   2.61512E+4   2.21597E+4
   2.56725E+4   2.18373E+4
   2.46148E+4   2.16397E+4
   2.40725E+4   2.15500E+4
   2.34098E+4   2.14220E+4
   2.27811E+4   2.09563E+4
   2.20266E+4   2.07178E+4
   2.16017E+4   2.06062E+4
   2.09398E+4   2.02997E+4
   2.02234E+4   2.03211E+4
   1.96515E+4   2.00195E+4
   1.92334E+4   1.97918E+4
   1.87452E+4   1.94236E+4
   1.80359E+4   1.89246E+4
   1.77616E+4   1.89162E+4
   1.70969E+4   1.82933E+4
   1.66435E+4   1.82438E+4
   1.61602E+4   1.80606E+4
   1.53844E+4   1.76950E+4
   1.54763E+4   1.73719E+4
   1.46046E+4   1.72006E+4
   1.42222E+4   1.70053E+4
   1.38228E+4   1.68217E+4
   1.35235E+4   1.65110E+4
   1.31338E+4   1.63600E+4
   1.27913E+4   1.59765E+4
   1.25549E+4   1.59324E+4
   1.17069E+4   1.55695E+4
   1.14346E+4   1.54684E+4
   1.10688E+4   1.50992E+4
   1.07847E+4   1.48400E+4
   1.04721E+4   1.44373E+4
   1.01685E+4   1.41707E+4
   9.78648E+3   1.41993E+4
   9.37797E+3   1.39156E+4
   9.10802E+3   1.36138E+4
   8.85739E+3   1.34936E+4
   8.45374E+3   1.33937E+4
   8.31944E+3   1.30878E+4
   7.92152E+3   1.29793E+4
   7.64210E+3   1.28709E+4
   7.36167E+3   1.24481E+4
   7.23015E+3   1.22309E+4
   7.03962E+3   1.22296E+4
   6.49219E+3   1.18026E+4
   6.59635E+3   1.17351E+4
   6.41643E+3   1.15733E+4
   6.26228E+3   1.13212E+4
   5.72415E+3   1.13716E+4
   5.79528E+3   1.11646E+4
   5.67767E+3   1.09179E+4
   5.41112E+3   1.06795E+4
   5.14393E+3   1.04784E+4
   5.05833E+3   1.04251E+4
   4.89704E+3   1.05292E+4
   4.70292E+3   1.02340E+4
   4.77656E+3   9.85749E+3
   4.41601E+3   9.59235E+3
   4.22072E+3   9.69327E+3
   4.07180E+3   9.43058E+3
   4.24462E+3   9.17526E+3
   3.97602E+3   9.19443E+3
   3.73557E+3   8.81078E+3
   3.65337E+3   8.80936E+3
   3.51104E+3   8.55236E+3
   3.63451E+3   8.17213E+3
   3.31179E+3   8.12021E+3
   3.01556E+3   7.90825E+3
   3.11081E+3   7.77857E+3
   2.90269E+3   7.36990E+3
   2.81926E+3   7.26182E+3
   2.89923E+3   7.03740E+3
   2.90430E+3   6.95363E+3
   2.64691E+3   6.64467E+3
   2.45046E+3   6.46453E+3
   2.45520E+3   6.17812E+3
   2.41357E+3   6.15666E+3
   2.17795E+3   5.75272E+3
   2.14638E+3   5.87236E+3
   2.16660E+3   5.34280E+3
   2.08266E+3   5.27693E+3
   1.71469E+3   5.06828E+3
   1.65993E+3   4.82578E+3
   1.61851E+3   4.67498E+3
   1.62567E+3   4.18194E+3
   1.36673E+3   3.99020E+3
   1.37817E+3   3.81178E+3
   1.60811E+3   3.91802E+3
   1.34956E+3   3.44396E+3
   1.29816E+3   3.31814E+3
   1.12420E+3   3.20425E+3
   1.05012E+3   2.69324E+3
   1.06612E+3   2.56925E+3
   1.28247E+3   2.47323E+3
   9.53215E+2   2.25346E+3
   7.01044E+2   1.92293E+3
   8.60565E+2   1.97812E+3
   9.45917E+2   1.43560E+3
   9.66506E+2   1.15185E+3
   1.10449E+3   1.24575E+3
   7.02583E+2   9.57833E+2
   1.08711E+3   8.37529E+2
   9.15009E+2   4.65459E+2
   9.82465E+2   4.78700E+2
   1.09630E+3   2.38169E+2
   1.02666E+3  -2.38007E+2
   7.29068E+2  -2.09218E+2
   1.03677E+3  -3.22948E+2
   1.10656E+3  -7.45086E+2
   8.64987E+2  -9.00042E+2
   1.11889E+3  -1.06577E+3
   1.24969E+3  -1.12007E+3
   1.05360E+3  -1.36818E+3
   1.36319E+3  -1.51835E+3
   1.48117E+3  -1.90522E+3
   1.12650E+3  -1.84314E+3
   1.32231E+3  -2.07109E+3
   1.29605E+3  -2.06081E+3
   1.36313E+3  -2.27867E+3
   1.64371E+3  -2.70025E+3
   1.29366E+3  -2.76909E+3
   1.65857E+3  -2.74591E+3
   1.56317E+3  -2.85817E+3
   1.95542E+3  -3.03368E+3
   1.97876E+3  -3.07651E+3
   1.59809E+3  -3.45227E+3
   2.02519E+3  -3.29446E+3
   2.05235E+3  -3.78076E+3
   2.02328E+3  -3.71934E+3
   2.18559E+3  -3.95550E+3
   2.23720E+3  -3.85712E+3
   2.32262E+3  -3.99423E+3
   2.51752E+3  -4.26159E+3
   2.44785E+3  -4.20384E+3
   2.40995E+3  -4.09817E+3
   2.78767E+3  -4.27761E+3
   2.81038E+3  -4.17391E+3
