 LCModel (Version 6.3-1N) Copyright: S.W. Provencher.          Ref.: Magn. Reson. Med. 30:672-679 (1993).                
 Slice_N1@16_21  28-Feb-2025 11:40:51
 27 lines in following concentration table = NCONC+1
    Conc.  %SD /Cr+PCr  Metabolite                                         
 2.72E-04   4% 2.5E-04 Mac                                                 
    3.807  21%   3.554 Cr                                                  
    4.763  17%   4.446 PCr                                                 
    6.512  12%   6.080 Ins                                                 
   10.825   7%  10.105 NAA                                                 
    6.419  12%   5.992 Tau                                                 
    0.337 209%   0.315 PCho                                                
    1.501  44%   1.401 GPC                                                 
   10.909   9%  10.184 Glu                                                 
    3.503  21%   3.270 Gln                                                 
    0.000 999%   0.000 Ala                                                 
    2.266  48%   2.115 Asc                                                 
    2.193  44%   2.047 Asp                                                 
    0.820  62%   0.765 GABA                                                
    0.770  94%   0.718 Glc                                                 
    1.403  31%   1.310 GSH                                                 
    4.575  14%   4.271 Lac                                                 
    1.939  26%   1.810 NAAG                                                
    0.891 110%   0.832 PE                                                  
    1.838  14%   1.716 GPC+PCho                                            
   12.763   6%  11.915 NAA+NAAG                                            
   14.412   8%  13.454 Glu+Gln                                             
    8.570   8%   8.000 Cr+PCr                                              
   12.763   6%  11.915 NAA+NAAG                                            
    8.570   8%   8.000 Cr+PCr                                              
   14.412   8%  13.454 Glu+Gln                                             
   6 lines in following misc. output table
  FWHM = 0.024 ppm    S/N =   5                                            
  Data shift = 0.024 ppm                                                   
  Ph: -73 deg       0.0 deg/ppm                                            
  alphaB,S = 6.3E-01,   4.6E-01                                            
   19 spline knots.   Ns = 5(1)                                            
   2 inflections.     1 extrema                                            
  480 points on ppm-axis = NY
      4.100000     4.091866     4.083733     4.075600     4.067466     4.059333     4.051199     4.043066     4.034933     4.026799
      4.018666     4.010532     4.002399     3.994265     3.986132     3.977998     3.969864     3.961731     3.953597     3.945463
      3.937330     3.929196     3.921062     3.912929     3.904795     3.896662     3.888528     3.880394     3.872261     3.864127
      3.855993     3.847860     3.839726     3.831592     3.823459     3.815325     3.807191     3.799058     3.790924     3.782790
      3.774657     3.766523     3.758389     3.750256     3.742122     3.733989     3.725855     3.717721     3.709588     3.701454
      3.693320     3.685187     3.677053     3.668919     3.660786     3.652652     3.644518     3.636385     3.628251     3.620117
      3.611984     3.603850     3.595716     3.587583     3.579449     3.571316     3.563182     3.555048     3.546915     3.538781
      3.530647     3.522514     3.514380     3.506246     3.498113     3.489979     3.481845     3.473712     3.465578     3.457444
      3.449311     3.441177     3.433043     3.424910     3.416776     3.408643     3.400509     3.392375     3.384242     3.376108
      3.367974     3.359841     3.351707     3.343573     3.335440     3.327306     3.319172     3.311039     3.302905     3.294771
      3.286638     3.278504     3.270370     3.262237     3.254103     3.245970     3.237836     3.229702     3.221569     3.213435
      3.205301     3.197168     3.189034     3.180900     3.172767     3.164633     3.156499     3.148366     3.140232     3.132098
      3.123965     3.115831     3.107697     3.099564     3.091430     3.083297     3.075163     3.067029     3.058896     3.050762
      3.042628     3.034495     3.026361     3.018227     3.010094     3.001960     2.993826     2.985693     2.977559     2.969425
      2.961292     2.953158     2.945024     2.936891     2.928757     2.920624     2.912490     2.904356     2.896223     2.888089
      2.879955     2.871822     2.863688     2.855554     2.847421     2.839287     2.831153     2.823020     2.814886     2.806752
      2.798619     2.790485     2.782351     2.774218     2.766084     2.757951     2.749817     2.741683     2.733550     2.725416
      2.717282     2.709149     2.701015     2.692881     2.684748     2.676614     2.668480     2.660347     2.652213     2.644079
      2.635946     2.627812     2.619678     2.611545     2.603411     2.595278     2.587144     2.579010     2.570877     2.562743
      2.554609     2.546476     2.538342     2.530208     2.522075     2.513941     2.505807     2.497674     2.489540     2.481406
      2.473273     2.465139     2.457006     2.448872     2.440738     2.432605     2.424471     2.416337     2.408204     2.400070
      2.391936     2.383803     2.375669     2.367535     2.359402     2.351268     2.343134     2.335001     2.326867     2.318733
      2.310600     2.302466     2.294333     2.286199     2.278065     2.269932     2.261798     2.253664     2.245531     2.237397
      2.229263     2.221130     2.212996     2.204862     2.196729     2.188595     2.180461     2.172328     2.164194     2.156060
      2.147927     2.139793     2.131660     2.123526     2.115392     2.107259     2.099125     2.090991     2.082858     2.074724
      2.066590     2.058457     2.050323     2.042189     2.034056     2.025922     2.017788     2.009655     2.001521     1.993387
      1.985254     1.977120     1.968987     1.960853     1.952719     1.944586     1.936452     1.928318     1.920185     1.912051
      1.903917     1.895784     1.887650     1.879516     1.871383     1.863249     1.855115     1.846982     1.838848     1.830714
      1.822581     1.814447     1.806314     1.798180     1.790046     1.781913     1.773779     1.765645     1.757512     1.749378
      1.741244     1.733111     1.724977     1.716843     1.708710     1.700576     1.692442     1.684309     1.676175     1.668041
      1.659908     1.651774     1.643641     1.635507     1.627373     1.619240     1.611106     1.602972     1.594839     1.586705
      1.578571     1.570438     1.562304     1.554170     1.546037     1.537903     1.529769     1.521636     1.513502     1.505368
      1.497235     1.489101     1.480968     1.472834     1.464700     1.456567     1.448433     1.440299     1.432166     1.424032
      1.415898     1.407765     1.399631     1.391497     1.383364     1.375230     1.367096     1.358963     1.350829     1.342695
      1.334562     1.326428     1.318295     1.310161     1.302027     1.293894     1.285760     1.277626     1.269493     1.261359
      1.253225     1.245092     1.236958     1.228824     1.220691     1.212557     1.204423     1.196290     1.188156     1.180022
      1.171889     1.163755     1.155622     1.147488     1.139354     1.131221     1.123087     1.114953     1.106820     1.098686
      1.090552     1.082419     1.074285     1.066151     1.058018     1.049884     1.041750     1.033617     1.025483     1.017349
      1.009216     1.001082     0.992949     0.984815     0.976681     0.968548     0.960414     0.952280     0.944147     0.936013
      0.927879     0.919746     0.911612     0.903478     0.895345     0.887211     0.879077     0.870944     0.862810     0.854676
      0.846543     0.838409     0.830276     0.822142     0.814008     0.805875     0.797741     0.789607     0.781474     0.773340
      0.765206     0.757073     0.748939     0.740805     0.732672     0.724538     0.716404     0.708271     0.700137     0.692003
      0.683870     0.675736     0.667603     0.659469     0.651335     0.643202     0.635068     0.626934     0.618801     0.610667
      0.602533     0.594400     0.586266     0.578132     0.569999     0.561865     0.553731     0.545598     0.537464     0.529330
      0.521197     0.513063     0.504930     0.496796     0.488662     0.480529     0.472395     0.464261     0.456128     0.447994
      0.439861     0.431727     0.423593     0.415460     0.407326     0.399192     0.391059     0.382925     0.374792     0.366658
      0.358524     0.350391     0.342257     0.334124     0.325990     0.317856     0.309723     0.301589     0.293455     0.285322
      0.277188     0.269055     0.260921     0.252787     0.244654     0.236520     0.228386     0.220253     0.212119     0.203986
 NY phased data points follow
  -5.08538E+01 -7.75965E+01 -8.26284E+01 -8.17770E+01 -9.27335E+01 -6.98755E+01 -8.20815E+01 -7.84833E+01 -7.41756E+01 -8.88049E+01
  -8.74800E+01 -8.55627E+01 -8.51096E+01 -1.04816E+02 -1.03620E+02 -1.04898E+02 -1.12694E+02 -1.17743E+02 -1.33680E+02 -1.58066E+02
  -1.62379E+02 -1.13727E+02 -9.73986E+01 -8.61315E+01 -4.37646E+01 -3.48648E+01 -4.97893E+01 -6.16254E+01 -4.81236E+01 -3.25102E+01
  -4.30707E+01 -4.20497E+01 -4.59457E+01 -4.90758E+01 -3.66058E+01 -4.63185E+01 -5.19619E+01 -6.03113E+01 -7.54598E+01 -1.00197E+02
  -1.10264E+02 -1.03032E+02 -9.93761E+01 -8.12786E+01 -7.34647E+01 -4.06350E+01 -1.80022E+01 -1.00185E+01 -1.55620E+01 -2.18322E+01
  -9.39390E+00 -2.62315E+01 -2.97491E+01 -3.94585E+01 -3.49495E+01 -4.90568E+01 -4.77050E+01 -3.64537E+01 -8.40878E+01 -8.62032E+01
  -5.57370E+01 -3.88004E+01 -5.45711E+01 -2.28296E+01 -7.31244E+00 -6.44787E+00  7.40874E+00 -4.76078E+01 -6.08180E+01 -9.41602E+01
  -7.51733E+01 -2.96263E+01 -5.71342E+01 -4.35948E+01 -2.29472E+01 -3.83759E+00 -6.92444E+00 -9.04692E+00 -5.62523E+00 -1.61488E+01
  -5.21277E+00 -8.96599E+00 -2.96352E+01 -4.18290E+01 -6.64648E+01 -6.92908E+01 -4.86148E+01 -3.16934E+01 -2.84407E+00 -4.77179E+00
   1.31747E+01  2.26227E+01  7.97350E+00  2.06098E+01  1.77569E+01  2.44879E+01  2.59736E+01  3.23338E+01  3.91340E+01  2.56033E+01
   2.87334E+01  1.99578E+01 -2.88647E+01 -3.89517E+01 -3.11612E+01 -5.80318E+01 -5.60876E+01 -6.15700E+01 -7.16536E+01 -1.37462E+02
  -2.17140E+02 -1.82849E+02 -1.49107E+02 -1.29839E+02 -9.68993E+01 -8.83227E+01 -7.80329E+01 -6.04114E+01 -5.50711E+01 -5.68380E+01
  -4.91301E+01 -3.83470E+01 -3.85609E+01 -3.70876E+01 -2.09234E+01 -2.75960E+00  3.12462E+00  1.96057E+01  4.78429E+01  7.54411E+01
   1.22367E+02  8.24446E+01 -5.95724E+01 -1.57648E+02 -1.58646E+02 -1.24718E+02 -1.24703E+02 -1.22141E+02 -1.09463E+02 -1.08473E+02
  -1.01222E+02 -9.08887E+01 -1.04387E+02 -1.06773E+02 -1.07767E+02 -1.14061E+02 -1.01593E+02 -1.14586E+02 -9.69950E+01 -7.80516E+01
  -9.31672E+01 -8.44231E+01 -6.95965E+01 -7.16665E+01 -7.41673E+01 -7.80797E+01 -7.87957E+01 -6.41340E+01 -7.09147E+01 -6.12068E+01
  -6.59043E+01 -7.48687E+01 -5.55172E+01 -6.49547E+01 -7.41375E+01 -7.70979E+01 -7.04508E+01 -5.87587E+01 -5.88232E+01 -6.63465E+01
  -3.88763E+01 -2.45592E+01 -2.69861E+01 -1.60442E+01 -4.02223E+01 -3.89658E+01 -1.68127E+01 -4.54171E+00 -3.09285E+01 -6.44654E+01
  -7.57667E+01 -8.00750E+01 -8.06362E+01 -8.37359E+01 -7.40434E+01 -8.17940E+01 -7.22045E+01 -8.53924E+01 -8.28888E+01 -6.48935E+01
  -8.16093E+01 -5.98439E+01 -5.71947E+01 -5.00348E+01 -2.65783E+01 -4.88612E+01 -6.17782E+01 -3.47708E+01 -4.24811E+01 -4.36255E+01
  -3.47036E+01 -4.86587E+01 -2.80592E+01 -2.61409E+01 -3.70011E+01 -5.05304E+01 -5.70433E+01 -6.85122E+01 -8.23273E+01 -7.32466E+01
  -7.72344E+01 -8.15869E+01 -7.72035E+01 -4.61785E+01 -2.85622E+01  4.20936E+00  3.74791E+01  2.84822E+01  2.45584E+01  4.34625E+00
  -2.52079E+01 -5.90223E+01 -5.30570E+01 -3.01215E+01 -3.96135E+01 -3.35928E+01 -3.08488E+01 -2.45800E+01 -1.77001E+01 -3.41661E+01
  -2.86059E+01 -2.85580E+01 -4.66702E+01 -6.12355E+01 -7.08681E+01 -7.38903E+01 -9.05404E+01 -9.88164E+01 -1.04806E+02 -9.75644E+01
  -8.66307E+01 -8.07877E+01 -7.73842E+01 -6.04683E+01 -3.99536E+01 -5.47224E+01 -3.82410E+01 -4.61027E+01 -6.03840E+01 -7.53009E+01
  -8.52783E+01 -6.55841E+01 -9.11230E+01 -9.95505E+01 -1.20965E+02 -1.46754E+02 -1.57734E+02 -2.24134E+01  1.75735E+02  1.56511E+02
   1.11776E+02  1.11551E+02  9.61784E+01  8.71066E+01  7.61970E+01  6.46589E+01  5.46382E+01  4.60630E+01  3.77051E+01  4.98081E+01
   4.90387E+01  4.33212E+01  4.83358E+01  5.96613E+01  4.64949E+01  4.43545E+01  5.80548E+01  4.54016E+01  5.04163E+01  5.57879E+01
   5.54477E+01  5.75314E+01  5.74855E+01  5.11246E+01  4.36311E+01  3.48210E+01  3.41532E+01  4.05794E+01  4.01977E+01  4.83247E+01
   4.21546E+01  2.91880E+01  1.90681E+01  1.67438E+01  2.25318E+01  2.12704E+01  1.40461E+01  1.45107E+01  1.01235E+01  1.20473E+01
   2.84991E+01  1.37088E+01  2.86123E+01  5.30176E+01  3.52441E+01  2.72748E+01  2.95409E+01  3.03766E+01  3.26258E+01  4.04956E+01
   2.90521E+01  2.08938E+01  3.52136E+01  3.09494E+01  2.26458E+01  1.02116E+01  9.49172E+00  1.63672E+01 -7.25299E+00  5.17568E+00
   1.87465E+01  2.41468E+01  4.44201E+01  3.97880E+01  5.41173E+01  5.84206E+01  6.21865E+01  5.32480E+01  2.95756E+01  1.88313E+01
   1.29576E+01  3.65793E+00 -2.37229E+01 -1.56264E+01 -3.73999E+01 -4.61533E+01 -2.31345E+01 -2.33941E+01 -1.15392E+01 -3.76638E+00
   1.74478E+01  8.66588E+00 -8.79858E+00 -1.24033E+01 -1.70983E+01 -2.08531E+01 -2.88307E+01 -3.06308E+01 -3.85176E+01 -3.37396E+01
  -2.87734E+01 -3.91393E+01 -5.34127E+01 -5.05915E+01 -5.48093E+01 -6.23027E+01 -6.13267E+01 -5.69555E+01 -6.13824E+01 -7.95506E+01
  -6.96611E+01 -4.94788E+01 -4.33656E+01 -5.45792E+01 -3.32287E+01 -2.91070E+01 -4.27244E+01 -2.74414E+01 -1.99674E+01 -1.10345E+01
  -1.86741E+01 -9.84628E-01  5.34862E+00  2.80473E+00  1.21093E+00 -2.95517E-01  1.76874E+01  1.03013E+01  1.82731E+01  1.56661E+01
   2.45395E+01  3.99420E+01  4.31496E+01  3.94677E+01  5.34568E+01  9.71700E+01  8.32802E+01  8.66738E+01  9.83650E+01  8.49167E+01
   8.28461E+01  6.58060E+01  5.47082E+01  4.69879E+01  3.93737E+01  3.58296E+01  1.87041E+01  1.20960E+01  2.28409E+01  2.73455E+00
  -1.81633E+01 -1.70689E+01 -2.24843E+01 -3.74289E+01 -4.23608E+01 -4.04869E+01 -4.70649E+01 -5.18080E+01 -5.21640E+01 -4.44644E+01
  -4.83154E+01 -4.48713E+01 -4.97386E+01 -5.60321E+01 -4.49839E+01 -4.18698E+01 -3.00180E+01 -4.74096E+01 -4.26489E+01 -2.25367E+01
  -4.08329E+01 -3.39173E+01 -3.50188E+01 -5.08633E+01 -3.99580E+01 -3.51204E+01 -4.66970E+01 -5.05221E+01 -4.59141E+01 -4.04024E+01
  -4.69946E+01 -4.22421E+01 -3.09351E+01 -3.45173E+01 -2.53233E+01 -3.45209E+01 -3.79242E+01 -3.30237E+01 -4.54758E+01 -3.86871E+01
  -4.61559E+01 -4.23124E+01 -3.51736E+01 -3.65073E+01 -2.82378E+01 -4.06645E+01 -3.91408E+01 -3.63424E+01 -2.69894E+01 -3.54616E+01
  -3.90064E+01 -2.80413E+01 -4.13414E+01 -2.90623E+01 -4.23016E+01 -3.49463E+01 -3.47228E+01 -3.94127E+01 -1.95379E+01 -4.19818E+01
  -1.64467E+01 -2.62472E+01 -4.33390E+01 -1.78361E+01 -3.57686E+01 -3.76771E+01 -3.31689E+01 -2.68845E+01 -2.13589E+01 -3.36276E+01
  -2.12274E+01 -1.56600E+01 -2.85831E+01 -2.49072E+01 -3.37091E+01 -2.85751E+01 -3.71819E+01 -2.51054E+01 -6.65563E+00 -3.57715E+01
 NY points of the fit to the data follow
  -9.19732E+01 -9.42234E+01 -9.83252E+01 -1.00156E+02 -9.53094E+01 -7.51693E+01 -5.54182E+01 -5.88362E+01 -7.31323E+01 -8.24442E+01
  -8.79548E+01 -9.18462E+01 -9.32877E+01 -9.30937E+01 -9.42609E+01 -9.69996E+01 -1.03861E+02 -1.15904E+02 -1.30448E+02 -1.50627E+02
  -1.58581E+02 -1.21691E+02 -8.78863E+01 -7.88260E+01 -4.69219E+01 -2.81839E+01 -3.47512E+01 -3.18051E+01 -2.63191E+01 -2.52769E+01
  -2.59777E+01 -2.76710E+01 -2.85555E+01 -2.98693E+01 -3.32445E+01 -3.70932E+01 -4.19676E+01 -5.13335E+01 -6.71899E+01 -9.12460E+01
  -1.17277E+02 -1.17387E+02 -9.60505E+01 -7.90869E+01 -6.15845E+01 -4.11250E+01 -2.46513E+01 -1.95652E+01 -1.78870E+01 -1.59245E+01
  -1.82683E+01 -2.26948E+01 -3.07181E+01 -4.19964E+01 -5.13128E+01 -5.64079E+01 -5.52856E+01 -5.36059E+01 -6.79060E+01 -7.80767E+01
  -5.91861E+01 -4.78943E+01 -4.98425E+01 -3.09251E+01 -1.12677E+01 -9.38992E+00 -1.23454E+01 -2.26366E+01 -4.93194E+01 -7.68145E+01
  -7.32624E+01 -5.46846E+01 -5.35030E+01 -4.66054E+01 -2.39951E+01 -1.01787E+01 -6.49393E+00 -3.32662E+00  1.48338E-01  6.64223E-01
  -6.80389E+00 -2.28335E+01 -4.14086E+01 -6.38510E+01 -7.26694E+01 -6.42890E+01 -5.38803E+01 -3.48721E+01 -2.16530E+01 -1.66395E+01
  -1.06306E+01 -5.75440E+00 -1.31923E+00  3.09541E+00  7.88145E+00  1.23276E+01  1.55582E+01  1.83878E+01  1.82245E+01  1.45027E+01
   1.90969E+01  2.26542E+01  3.69392E+00 -1.81074E+01 -2.81116E+01 -4.61597E+01 -5.13110E+01 -4.02286E+01 -6.20543E+01 -1.37666E+02
  -2.02248E+02 -1.79139E+02 -1.32054E+02 -1.14753E+02 -1.01492E+02 -8.90706E+01 -8.04272E+01 -7.24886E+01 -6.50178E+01 -5.81747E+01
  -5.19080E+01 -4.53497E+01 -3.82065E+01 -3.01708E+01 -2.06410E+01 -9.58984E+00  4.22517E+00  2.60755E+01  5.67616E+01  8.78600E+01
   1.12609E+02  8.42618E+01 -4.96162E+01 -1.57868E+02 -1.40843E+02 -1.15494E+02 -1.17683E+02 -1.11341E+02 -1.06062E+02 -1.05565E+02
  -1.05453E+02 -1.05291E+02 -1.05816E+02 -1.05237E+02 -1.04884E+02 -1.04984E+02 -1.02315E+02 -9.86442E+01 -9.54946E+01 -9.23293E+01
  -8.93945E+01 -8.65575E+01 -8.43675E+01 -8.23083E+01 -7.91031E+01 -7.52429E+01 -7.30359E+01 -7.32081E+01 -7.33017E+01 -7.10089E+01
  -6.68732E+01 -6.36940E+01 -6.49151E+01 -6.90540E+01 -7.00197E+01 -6.72950E+01 -6.44329E+01 -6.40972E+01 -6.59993E+01 -6.45592E+01
  -5.38944E+01 -3.48669E+01 -2.25973E+01 -3.14290E+01 -4.70308E+01 -4.29496E+01 -2.28862E+01 -1.56178E+01 -3.11775E+01 -5.35580E+01
  -6.44391E+01 -6.57028E+01 -6.91260E+01 -7.28748E+01 -7.42293E+01 -7.47665E+01 -7.45446E+01 -7.36787E+01 -7.21311E+01 -7.10120E+01
  -6.90117E+01 -6.42573E+01 -6.22429E+01 -5.66578E+01 -4.04324E+01 -3.92211E+01 -4.90930E+01 -4.08362E+01 -3.35317E+01 -3.56635E+01
  -3.80779E+01 -3.89091E+01 -2.86772E+01 -2.39132E+01 -3.34874E+01 -4.27621E+01 -4.92167E+01 -5.75592E+01 -6.89666E+01 -7.74642E+01
  -8.30755E+01 -8.61275E+01 -7.70304E+01 -5.90434E+01 -3.79835E+01  1.70439E+00  2.75652E+01  2.25339E+01  2.27013E+01  9.14463E+00
  -1.29166E+01 -1.69213E+01 -1.63191E+01 -1.43514E+01 -1.10768E+01 -1.15259E+01 -1.34907E+01 -1.87550E+01 -2.80774E+01 -3.80311E+01
  -4.87585E+01 -6.09053E+01 -7.23167E+01 -8.13288E+01 -9.14286E+01 -1.00561E+02 -1.03019E+02 -1.05351E+02 -1.05578E+02 -9.81943E+01
  -9.43219E+01 -8.80115E+01 -7.57564E+01 -6.79437E+01 -5.74509E+01 -5.20861E+01 -5.48748E+01 -5.69027E+01 -6.41583E+01 -6.97538E+01
  -7.47707E+01 -8.31805E+01 -9.39468E+01 -1.07524E+02 -1.12621E+02 -1.49578E+02 -1.74986E+02 -2.14170E+01  1.53271E+02  1.43693E+02
   1.04228E+02  1.00571E+02  8.76846E+01  7.73052E+01  7.15658E+01  6.69158E+01  6.16035E+01  5.60403E+01  5.13959E+01  4.78244E+01
   4.58884E+01  4.52981E+01  4.57202E+01  4.70243E+01  4.76011E+01  4.82629E+01  4.79382E+01  4.67842E+01  4.63576E+01  4.53165E+01
   4.36155E+01  4.14249E+01  3.90541E+01  3.72748E+01  3.57095E+01  3.34010E+01  3.09929E+01  2.90705E+01  2.67228E+01  2.39117E+01
   2.06024E+01  1.65685E+01  1.27916E+01  8.91220E+00  5.08015E+00  2.87724E+00  2.45330E+00  3.56853E+00  5.88604E+00  8.42433E+00
   1.06060E+01  1.31365E+01  1.62047E+01  1.89362E+01  2.11208E+01  2.31359E+01  2.50201E+01  2.68846E+01  2.93072E+01  3.22807E+01
   3.47150E+01  3.64328E+01  3.78404E+01  3.92348E+01  4.09581E+01  4.20118E+01  4.20680E+01  4.21326E+01  4.15867E+01  3.95006E+01
   3.71192E+01  3.51255E+01  3.22870E+01  2.87611E+01  2.54619E+01  2.15772E+01  1.66854E+01  9.77413E+00  3.55738E-01 -9.02094E+00
  -1.68725E+01 -2.35341E+01 -2.85466E+01 -3.05706E+01 -2.93209E+01 -2.49055E+01 -1.80305E+01 -9.69016E+00 -3.07404E-02  9.88018E+00
   1.92677E+01  1.92368E+01 -4.16594E+00 -3.14128E+01 -4.60190E+01 -5.91140E+01 -5.40522E+01 -3.50257E+01 -2.75924E+01 -2.43931E+01
  -2.08734E+01 -2.07138E+01 -2.21353E+01 -2.47791E+01 -2.91166E+01 -3.33570E+01 -3.53529E+01 -3.58368E+01 -3.53670E+01 -3.33751E+01
  -3.06099E+01 -2.72977E+01 -2.34447E+01 -1.95500E+01 -1.54277E+01 -1.18447E+01 -8.87826E+00 -5.80064E+00 -3.00337E+00  1.17771E-01
   3.46443E+00  6.26304E+00  9.07864E+00  1.21926E+01  1.56293E+01  1.97319E+01  2.45070E+01  2.90646E+01  3.41204E+01  4.08186E+01
   4.74875E+01  5.36583E+01  6.08991E+01  6.93196E+01  7.73268E+01  8.40471E+01  8.85325E+01  8.89153E+01  8.43800E+01  7.48246E+01
   6.24477E+01  5.09477E+01  4.17540E+01  3.43043E+01  2.78794E+01  2.26277E+01  1.67354E+01  8.39131E+00 -1.03940E+00 -1.00259E+01
  -1.87772E+01 -2.63297E+01 -3.14115E+01 -3.49583E+01 -3.80346E+01 -4.01881E+01 -4.11339E+01 -4.18471E+01 -4.27418E+01 -4.37685E+01
  -4.46198E+01 -4.51055E+01 -4.50432E+01 -4.46613E+01 -4.46497E+01 -4.48455E+01 -4.44649E+01 -4.38909E+01 -4.41415E+01 -4.45880E+01
  -4.38757E+01 -4.28323E+01 -4.30111E+01 -4.33401E+01 -4.28215E+01 -4.23387E+01 -4.24110E+01 -4.25987E+01 -4.22190E+01 -4.13658E+01
  -4.07111E+01 -4.05608E+01 -4.06656E+01 -4.07825E+01 -4.07396E+01 -4.05791E+01 -4.00322E+01 -3.93913E+01 -3.90669E+01 -3.86276E+01
  -3.83761E+01 -3.82068E+01 -3.77975E+01 -3.75213E+01 -3.76920E+01 -3.77908E+01 -3.76315E+01 -3.72909E+01 -3.66504E+01 -3.63701E+01
  -3.61423E+01 -3.58372E+01 -3.59957E+01 -3.57611E+01 -3.50469E+01 -3.46014E+01 -3.42747E+01 -3.39001E+01 -3.36590E+01 -3.33743E+01
  -3.29267E+01 -3.25229E+01 -3.24900E+01 -3.27088E+01 -3.24898E+01 -3.22051E+01 -3.19927E+01 -3.13281E+01 -3.03208E+01 -2.94356E+01
  -2.91845E+01 -2.94362E+01 -2.97055E+01 -2.96245E+01 -2.90150E+01 -2.84741E+01 -2.81415E+01 -2.75742E+01 -2.70247E+01 -2.70603E+01
 NY background values follow
    -5.951E+01   -5.933E+01   -5.915E+01   -5.897E+01   -5.879E+01   -5.861E+01   -5.843E+01   -5.825E+01   -5.807E+01   -5.789E+01
    -5.771E+01   -5.753E+01   -5.735E+01   -5.717E+01   -5.698E+01   -5.680E+01   -5.662E+01   -5.644E+01   -5.626E+01   -5.608E+01
    -5.590E+01   -5.572E+01   -5.554E+01   -5.535E+01   -5.517E+01   -5.499E+01   -5.481E+01   -5.463E+01   -5.445E+01   -5.426E+01
    -5.408E+01   -5.390E+01   -5.372E+01   -5.354E+01   -5.335E+01   -5.317E+01   -5.299E+01   -5.281E+01   -5.262E+01   -5.244E+01
    -5.226E+01   -5.208E+01   -5.190E+01   -5.171E+01   -5.153E+01   -5.135E+01   -5.117E+01   -5.099E+01   -5.081E+01   -5.062E+01
    -5.044E+01   -5.026E+01   -5.008E+01   -4.990E+01   -4.972E+01   -4.954E+01   -4.936E+01   -4.918E+01   -4.900E+01   -4.882E+01
    -4.864E+01   -4.847E+01   -4.829E+01   -4.811E+01   -4.793E+01   -4.776E+01   -4.758E+01   -4.740E+01   -4.723E+01   -4.705E+01
    -4.687E+01   -4.670E+01   -4.653E+01   -4.635E+01   -4.618E+01   -4.600E+01   -4.583E+01   -4.566E+01   -4.549E+01   -4.532E+01
    -4.514E+01   -4.497E+01   -4.480E+01   -4.463E+01   -4.447E+01   -4.430E+01   -4.413E+01   -4.396E+01   -4.380E+01   -4.363E+01
    -4.346E+01   -4.330E+01   -4.313E+01   -4.297E+01   -4.281E+01   -4.264E+01   -4.248E+01   -4.232E+01   -4.216E+01   -4.200E+01
    -4.184E+01   -4.168E+01   -4.152E+01   -4.136E+01   -4.120E+01   -4.105E+01   -4.089E+01   -4.073E+01   -4.058E+01   -4.042E+01
    -4.027E+01   -4.011E+01   -3.996E+01   -3.981E+01   -3.965E+01   -3.950E+01   -3.935E+01   -3.920E+01   -3.905E+01   -3.890E+01
    -3.875E+01   -3.860E+01   -3.845E+01   -3.831E+01   -3.816E+01   -3.801E+01   -3.787E+01   -3.772E+01   -3.758E+01   -3.743E+01
    -3.729E+01   -3.714E+01   -3.700E+01   -3.686E+01   -3.672E+01   -3.658E+01   -3.644E+01   -3.630E+01   -3.616E+01   -3.602E+01
    -3.588E+01   -3.574E+01   -3.561E+01   -3.547E+01   -3.534E+01   -3.520E+01   -3.507E+01   -3.494E+01   -3.480E+01   -3.467E+01
    -3.454E+01   -3.441E+01   -3.428E+01   -3.415E+01   -3.402E+01   -3.389E+01   -3.377E+01   -3.364E+01   -3.351E+01   -3.339E+01
    -3.327E+01   -3.314E+01   -3.302E+01   -3.290E+01   -3.278E+01   -3.265E+01   -3.253E+01   -3.242E+01   -3.230E+01   -3.218E+01
    -3.206E+01   -3.195E+01   -3.183E+01   -3.172E+01   -3.160E+01   -3.149E+01   -3.138E+01   -3.127E+01   -3.116E+01   -3.105E+01
    -3.094E+01   -3.083E+01   -3.072E+01   -3.062E+01   -3.051E+01   -3.040E+01   -3.030E+01   -3.020E+01   -3.009E+01   -2.999E+01
    -2.989E+01   -2.979E+01   -2.969E+01   -2.959E+01   -2.950E+01   -2.940E+01   -2.930E+01   -2.921E+01   -2.912E+01   -2.902E+01
    -2.893E+01   -2.884E+01   -2.875E+01   -2.866E+01   -2.857E+01   -2.848E+01   -2.840E+01   -2.831E+01   -2.823E+01   -2.814E+01
    -2.806E+01   -2.798E+01   -2.790E+01   -2.782E+01   -2.774E+01   -2.766E+01   -2.758E+01   -2.750E+01   -2.743E+01   -2.736E+01
    -2.728E+01   -2.721E+01   -2.714E+01   -2.707E+01   -2.700E+01   -2.693E+01   -2.687E+01   -2.680E+01   -2.674E+01   -2.667E+01
    -2.661E+01   -2.655E+01   -2.649E+01   -2.643E+01   -2.638E+01   -2.632E+01   -2.627E+01   -2.621E+01   -2.616E+01   -2.611E+01
    -2.606E+01   -2.601E+01   -2.597E+01   -2.592E+01   -2.588E+01   -2.584E+01   -2.579E+01   -2.575E+01   -2.572E+01   -2.568E+01
    -2.564E+01   -2.561E+01   -2.557E+01   -2.554E+01   -2.551E+01   -2.548E+01   -2.545E+01   -2.543E+01   -2.540E+01   -2.538E+01
    -2.535E+01   -2.533E+01   -2.531E+01   -2.529E+01   -2.528E+01   -2.526E+01   -2.525E+01   -2.523E+01   -2.522E+01   -2.521E+01
    -2.520E+01   -2.519E+01   -2.519E+01   -2.518E+01   -2.518E+01   -2.518E+01   -2.518E+01   -2.518E+01   -2.518E+01   -2.518E+01
    -2.518E+01   -2.519E+01   -2.519E+01   -2.520E+01   -2.521E+01   -2.522E+01   -2.523E+01   -2.524E+01   -2.526E+01   -2.527E+01
    -2.529E+01   -2.530E+01   -2.532E+01   -2.534E+01   -2.536E+01   -2.538E+01   -2.540E+01   -2.543E+01   -2.545E+01   -2.547E+01
    -2.550E+01   -2.553E+01   -2.555E+01   -2.558E+01   -2.561E+01   -2.564E+01   -2.567E+01   -2.571E+01   -2.574E+01   -2.577E+01
    -2.581E+01   -2.584E+01   -2.588E+01   -2.592E+01   -2.595E+01   -2.599E+01   -2.603E+01   -2.607E+01   -2.611E+01   -2.615E+01
    -2.619E+01   -2.623E+01   -2.627E+01   -2.631E+01   -2.635E+01   -2.640E+01   -2.644E+01   -2.648E+01   -2.653E+01   -2.657E+01
    -2.661E+01   -2.666E+01   -2.670E+01   -2.675E+01   -2.679E+01   -2.684E+01   -2.688E+01   -2.693E+01   -2.697E+01   -2.702E+01
    -2.706E+01   -2.711E+01   -2.715E+01   -2.720E+01   -2.724E+01   -2.729E+01   -2.733E+01   -2.737E+01   -2.742E+01   -2.746E+01
    -2.750E+01   -2.754E+01   -2.759E+01   -2.763E+01   -2.767E+01   -2.771E+01   -2.775E+01   -2.779E+01   -2.782E+01   -2.786E+01
    -2.790E+01   -2.793E+01   -2.797E+01   -2.800E+01   -2.804E+01   -2.807E+01   -2.810E+01   -2.813E+01   -2.817E+01   -2.820E+01
    -2.823E+01   -2.825E+01   -2.828E+01   -2.831E+01   -2.834E+01   -2.836E+01   -2.839E+01   -2.841E+01   -2.844E+01   -2.846E+01
    -2.849E+01   -2.851E+01   -2.853E+01   -2.855E+01   -2.857E+01   -2.859E+01   -2.861E+01   -2.863E+01   -2.865E+01   -2.867E+01
    -2.869E+01   -2.870E+01   -2.872E+01   -2.874E+01   -2.875E+01   -2.877E+01   -2.878E+01   -2.879E+01   -2.881E+01   -2.882E+01
    -2.883E+01   -2.885E+01   -2.886E+01   -2.887E+01   -2.888E+01   -2.889E+01   -2.890E+01   -2.891E+01   -2.892E+01   -2.893E+01
    -2.894E+01   -2.894E+01   -2.895E+01   -2.896E+01   -2.897E+01   -2.898E+01   -2.898E+01   -2.899E+01   -2.900E+01   -2.900E+01
    -2.901E+01   -2.901E+01   -2.902E+01   -2.902E+01   -2.903E+01   -2.903E+01   -2.904E+01   -2.904E+01   -2.905E+01   -2.905E+01
    -2.906E+01   -2.906E+01   -2.906E+01   -2.907E+01   -2.907E+01   -2.908E+01   -2.908E+01   -2.908E+01   -2.908E+01   -2.909E+01
    -2.909E+01   -2.909E+01   -2.910E+01   -2.910E+01   -2.910E+01   -2.910E+01   -2.910E+01   -2.911E+01   -2.911E+01   -2.911E+01
    -2.911E+01   -2.911E+01   -2.912E+01   -2.912E+01   -2.912E+01   -2.912E+01   -2.912E+01   -2.912E+01   -2.912E+01   -2.913E+01
    -2.913E+01   -2.913E+01   -2.913E+01   -2.913E+01   -2.913E+01   -2.913E+01   -2.913E+01   -2.914E+01   -2.914E+01   -2.914E+01
    -2.914E+01   -2.914E+01   -2.914E+01   -2.914E+01   -2.914E+01   -2.914E+01   -2.915E+01   -2.915E+01   -2.915E+01   -2.915E+01
 Mac      Conc. = 2.72E-04
  -7.91740E+01 -7.96128E+01 -7.93651E+01 -7.91989E+01 -7.93097E+01 -7.97646E+01 -8.07724E+01 -8.25065E+01 -8.44465E+01 -8.59669E+01
  -8.66954E+01 -8.64692E+01 -8.59986E+01 -8.57924E+01 -8.62844E+01 -8.81805E+01 -9.07518E+01 -9.16574E+01 -8.79569E+01 -8.10644E+01
  -7.66052E+01 -7.39196E+01 -6.97217E+01 -6.67371E+01 -6.60669E+01 -6.54285E+01 -6.39223E+01 -6.20971E+01 -6.01625E+01 -5.76859E+01
  -5.56112E+01 -5.45123E+01 -5.35386E+01 -5.25331E+01 -5.25113E+01 -5.33413E+01 -5.36291E+01 -5.22311E+01 -4.89614E+01 -4.56660E+01
  -4.45783E+01 -4.55718E+01 -4.61445E+01 -4.50882E+01 -4.32925E+01 -4.13387E+01 -4.03593E+01 -4.06123E+01 -4.11977E+01 -4.21779E+01
  -4.36381E+01 -4.49698E+01 -4.55340E+01 -4.61072E+01 -4.67293E+01 -4.67296E+01 -4.65974E+01 -4.57853E+01 -4.38427E+01 -4.22144E+01
  -4.12843E+01 -3.95722E+01 -3.77176E+01 -3.76421E+01 -3.84820E+01 -3.93940E+01 -4.03528E+01 -4.06120E+01 -4.06903E+01 -4.12173E+01
  -4.12348E+01 -3.90918E+01 -3.52911E+01 -3.25518E+01 -3.13713E+01 -3.04920E+01 -3.04796E+01 -3.11197E+01 -3.18565E+01 -3.28888E+01
  -3.32502E+01 -3.33610E+01 -3.37675E+01 -3.36447E+01 -3.26327E+01 -3.14026E+01 -3.05703E+01 -2.98070E+01 -2.87892E+01 -2.80719E+01
  -2.77062E+01 -2.70009E+01 -2.64841E+01 -2.63336E+01 -2.62165E+01 -2.69454E+01 -2.90270E+01 -3.15477E+01 -3.40270E+01 -3.63521E+01
  -3.78416E+01 -3.88743E+01 -4.07210E+01 -4.34093E+01 -4.64868E+01 -5.09843E+01 -5.74820E+01 -6.51381E+01 -7.11711E+01 -7.31784E+01
