 LCModel (Version 6.3-1N) Copyright: S.W. Provencher.          Ref.: Magn. Reson. Med. 30:672-679 (1993).                
 Slice_N1@17_13  28-Feb-2025 11:38:13
 27 lines in following concentration table = NCONC+1
    Conc.  %SD /Cr+PCr  Metabolite                                         
 2.72E-04   5% 2.6E-04 Mac                                                 
    4.150  21%   3.914 Cr                                                  
    4.333  20%   4.086 PCr                                                 
    8.046  11%   7.588 Ins                                                 
   10.906   7%  10.285 NAA                                                 
    7.701  11%   7.263 Tau                                                 
    0.874  67%   0.824 PCho                                                
    0.845  69%   0.797 GPC                                                 
   11.311   9%  10.667 Glu                                                 
    3.966  20%   3.740 Gln                                                 
    0.000 999%   0.000 Ala                                                 
    2.758  41%   2.601 Asc                                                 
    2.137  45%   2.016 Asp                                                 
    0.923  55%   0.871 GABA                                                
    0.531 129%   0.501 Glc                                                 
    1.318  35%   1.243 GSH                                                 
    0.000 999%   0.000 Lac                                                 
    1.948  25%   1.837 NAAG                                                
    1.500  67%   1.414 PE                                                  
    1.719  16%   1.621 GPC+PCho                                            
   12.854   7%  12.122 NAA+NAAG                                            
   15.277   9%  14.407 Glu+Gln                                             
    8.483   8%   8.000 Cr+PCr                                              
   12.854   7%  12.122 NAA+NAAG                                            
    8.483   8%   8.000 Cr+PCr                                              
   15.277   9%  14.407 Glu+Gln                                             
   6 lines in following misc. output table
  FWHM = 0.016 ppm    S/N =   5                                            
  Data shift = 0.024 ppm                                                   
  Ph:-147 deg       0.0 deg/ppm                                            
  alphaB,S = 2.0E-01,   4.0E-01                                            
   19 spline knots.   Ns = 5(1)                                            
   2 inflections.     2 extrema                                            
  480 points on ppm-axis = NY
      4.100000     4.091866     4.083733     4.075600     4.067466     4.059333     4.051199     4.043066     4.034933     4.026799
      4.018666     4.010532     4.002399     3.994265     3.986132     3.977998     3.969864     3.961731     3.953597     3.945463
      3.937330     3.929196     3.921062     3.912929     3.904795     3.896662     3.888528     3.880394     3.872261     3.864127
      3.855993     3.847860     3.839726     3.831592     3.823459     3.815325     3.807191     3.799058     3.790924     3.782790
      3.774657     3.766523     3.758389     3.750256     3.742122     3.733989     3.725855     3.717721     3.709588     3.701454
      3.693320     3.685187     3.677053     3.668919     3.660786     3.652652     3.644518     3.636385     3.628251     3.620117
      3.611984     3.603850     3.595716     3.587583     3.579449     3.571316     3.563182     3.555048     3.546915     3.538781
      3.530647     3.522514     3.514380     3.506246     3.498113     3.489979     3.481845     3.473712     3.465578     3.457444
      3.449311     3.441177     3.433043     3.424910     3.416776     3.408643     3.400509     3.392375     3.384242     3.376108
      3.367974     3.359841     3.351707     3.343573     3.335440     3.327306     3.319172     3.311039     3.302905     3.294771
      3.286638     3.278504     3.270370     3.262237     3.254103     3.245970     3.237836     3.229702     3.221569     3.213435
      3.205301     3.197168     3.189034     3.180900     3.172767     3.164633     3.156499     3.148366     3.140232     3.132098
      3.123965     3.115831     3.107697     3.099564     3.091430     3.083297     3.075163     3.067029     3.058896     3.050762
      3.042628     3.034495     3.026361     3.018227     3.010094     3.001960     2.993826     2.985693     2.977559     2.969425
      2.961292     2.953158     2.945024     2.936891     2.928757     2.920624     2.912490     2.904356     2.896223     2.888089
      2.879955     2.871822     2.863688     2.855554     2.847421     2.839287     2.831153     2.823020     2.814886     2.806752
      2.798619     2.790485     2.782351     2.774218     2.766084     2.757951     2.749817     2.741683     2.733550     2.725416
      2.717282     2.709149     2.701015     2.692881     2.684748     2.676614     2.668480     2.660347     2.652213     2.644079
      2.635946     2.627812     2.619678     2.611545     2.603411     2.595278     2.587144     2.579010     2.570877     2.562743
      2.554609     2.546476     2.538342     2.530208     2.522075     2.513941     2.505807     2.497674     2.489540     2.481406
      2.473273     2.465139     2.457006     2.448872     2.440738     2.432605     2.424471     2.416337     2.408204     2.400070
      2.391936     2.383803     2.375669     2.367535     2.359402     2.351268     2.343134     2.335001     2.326867     2.318733
      2.310600     2.302466     2.294333     2.286199     2.278065     2.269932     2.261798     2.253664     2.245531     2.237397
      2.229263     2.221130     2.212996     2.204862     2.196729     2.188595     2.180461     2.172328     2.164194     2.156060
      2.147927     2.139793     2.131660     2.123526     2.115392     2.107259     2.099125     2.090991     2.082858     2.074724
      2.066590     2.058457     2.050323     2.042189     2.034056     2.025922     2.017788     2.009655     2.001521     1.993387
      1.985254     1.977120     1.968987     1.960853     1.952719     1.944586     1.936452     1.928318     1.920185     1.912051
      1.903917     1.895784     1.887650     1.879516     1.871383     1.863249     1.855115     1.846982     1.838848     1.830714
      1.822581     1.814447     1.806314     1.798180     1.790046     1.781913     1.773779     1.765645     1.757512     1.749378
      1.741244     1.733111     1.724977     1.716843     1.708710     1.700576     1.692442     1.684309     1.676175     1.668041
      1.659908     1.651774     1.643641     1.635507     1.627373     1.619240     1.611106     1.602972     1.594839     1.586705
      1.578571     1.570438     1.562304     1.554170     1.546037     1.537903     1.529769     1.521636     1.513502     1.505368
      1.497235     1.489101     1.480968     1.472834     1.464700     1.456567     1.448433     1.440299     1.432166     1.424032
      1.415898     1.407765     1.399631     1.391497     1.383364     1.375230     1.367096     1.358963     1.350829     1.342695
      1.334562     1.326428     1.318295     1.310161     1.302027     1.293894     1.285760     1.277626     1.269493     1.261359
      1.253225     1.245092     1.236958     1.228824     1.220691     1.212557     1.204423     1.196290     1.188156     1.180022
      1.171889     1.163755     1.155622     1.147488     1.139354     1.131221     1.123087     1.114953     1.106820     1.098686
      1.090552     1.082419     1.074285     1.066151     1.058018     1.049884     1.041750     1.033617     1.025483     1.017349
      1.009216     1.001082     0.992949     0.984815     0.976681     0.968548     0.960414     0.952280     0.944147     0.936013
      0.927879     0.919746     0.911612     0.903478     0.895345     0.887211     0.879077     0.870944     0.862810     0.854676
      0.846543     0.838409     0.830276     0.822142     0.814008     0.805875     0.797741     0.789607     0.781474     0.773340
      0.765206     0.757073     0.748939     0.740805     0.732672     0.724538     0.716404     0.708271     0.700137     0.692003
      0.683870     0.675736     0.667603     0.659469     0.651335     0.643202     0.635068     0.626934     0.618801     0.610667
      0.602533     0.594400     0.586266     0.578132     0.569999     0.561865     0.553731     0.545598     0.537464     0.529330
      0.521197     0.513063     0.504930     0.496796     0.488662     0.480529     0.472395     0.464261     0.456128     0.447994
      0.439861     0.431727     0.423593     0.415460     0.407326     0.399192     0.391059     0.382925     0.374792     0.366658
      0.358524     0.350391     0.342257     0.334124     0.325990     0.317856     0.309723     0.301589     0.293455     0.285322
      0.277188     0.269055     0.260921     0.252787     0.244654     0.236520     0.228386     0.220253     0.212119     0.203986
 NY phased data points follow
  -6.43722E+01 -7.70988E+01 -7.23965E+01 -7.07034E+01 -7.76160E+01 -7.07427E+01 -6.43418E+01 -6.08987E+01 -6.92299E+01 -8.13778E+01
  -8.03419E+01 -7.39967E+01 -8.70037E+01 -8.93964E+01 -7.93953E+01 -8.42725E+01 -8.25220E+01 -9.85273E+01 -1.00995E+02 -1.25424E+02
  -1.75115E+02 -1.27227E+02 -1.00224E+02 -1.03086E+02 -2.79236E+01 -6.66531E+00 -3.68238E+01 -3.72380E+01 -2.89144E+01 -2.24980E+01
  -2.22640E+01 -3.00567E+01 -3.14255E+01 -1.82566E+01 -3.32367E+01 -2.88293E+01 -1.22326E+01 -1.92827E+01 -4.65418E+01 -9.22316E+01
  -9.46413E+01 -1.06603E+02 -1.17441E+02 -9.27631E+01 -5.61357E+01 -2.67506E+01 -2.56246E+01  4.89437E+00  3.24132E+01  1.04863E+01
   1.29981E+01  2.99480E+01  3.77209E+00  4.04037E+00 -6.26747E+00 -3.75238E+01 -4.02510E+01 -3.79300E+01 -5.73269E+01 -8.37944E+01
  -4.27810E+01 -3.67887E+01 -4.13172E+01 -1.72025E+01 -3.72626E+00  2.82172E+01  1.63582E+01  5.44191E+00 -3.04550E+01 -9.38048E+01
  -8.53175E+01 -5.22878E+01 -6.73304E+01 -5.76649E+01 -1.37157E+01  8.30611E+00  1.88312E+01  2.36385E+01  4.07517E+01  2.24641E+01
   1.65476E+01  2.45676E+01  8.62506E+00 -9.58818E+00 -3.98980E+01 -5.42523E+01 -5.01774E+01 -2.90975E+01 -1.19351E+01  1.63390E+01
   2.23622E+01  3.60826E+01  3.61371E+01  1.33272E+01  4.27448E+01  4.95085E+01  6.02531E+01  6.89601E+01  6.24407E+01  5.23523E+01
   5.30576E+01  4.64585E+01  2.79147E+01  1.78923E+01 -1.81821E+01 -2.72771E+01 -5.29338E+01 -5.40567E+01 -6.13112E+01 -1.04788E+02
  -1.56589E+02 -2.01058E+02 -1.52207E+02 -1.32357E+02 -1.10937E+02 -8.48357E+01 -7.39676E+01 -5.98454E+01 -7.52682E+01 -4.48642E+01
  -4.19463E+01 -4.10889E+01 -1.90123E+01 -2.36841E+01 -1.41044E+01  4.67784E-01  6.76590E+00  2.40079E+01  5.34529E+01  8.44848E+01
   1.39587E+02  1.45582E+02  2.97416E+01 -1.06471E+02 -1.32196E+02 -1.10387E+02 -1.21486E+02 -1.14538E+02 -1.03561E+02 -9.30672E+01
  -9.31415E+01 -9.36270E+01 -9.15396E+01 -1.14506E+02 -9.84999E+01 -9.28644E+01 -1.00224E+02 -8.30548E+01 -8.29506E+01 -8.61402E+01
  -9.51553E+01 -8.37317E+01 -8.41274E+01 -8.30453E+01 -7.09412E+01 -7.03778E+01 -5.60414E+01 -6.71306E+01 -7.24605E+01 -6.88929E+01
  -5.66796E+01 -5.86717E+01 -6.48933E+01 -4.77025E+01 -5.94889E+01 -5.97030E+01 -5.57126E+01 -5.83465E+01 -5.75434E+01 -4.02401E+01
  -3.08558E+01 -3.55053E+01 -8.34229E+00 -3.98906E+00 -2.89741E+01 -3.69089E+01 -1.53083E+01 -3.24651E-01 -4.41574E+00 -2.78764E+01
  -5.97463E+01 -6.92764E+01 -7.48252E+01 -7.64174E+01 -7.16635E+01 -7.49858E+01 -7.94597E+01 -7.98254E+01 -7.64833E+01 -6.27087E+01
  -6.66967E+01 -6.30325E+01 -6.12924E+01 -5.15739E+01 -2.89569E+01 -5.45557E+01 -5.74237E+01 -4.78594E+01 -4.16732E+01 -3.84071E+01
  -5.30907E+01 -4.43740E+01 -3.16241E+01 -2.77631E+01 -2.25478E+01 -3.31640E+01 -5.08622E+01 -5.18824E+01 -7.68234E+01 -7.72591E+01
  -8.11402E+01 -9.25419E+01 -7.54711E+01 -7.06890E+01 -3.64099E+01  1.54006E+00  4.29486E+01  3.64478E+01  2.62807E+01  2.44960E+01
  -2.73646E+01 -3.52893E+01 -3.43594E+01 -3.82404E+01 -3.84033E+01 -2.93343E+01 -1.87858E+01 -2.61513E+01 -2.86265E+01 -2.32540E+01
  -2.48903E+01 -3.36318E+01 -4.69651E+01 -5.92301E+01 -5.37195E+01 -8.15917E+01 -9.61851E+01 -9.79235E+01 -1.08467E+02 -1.14204E+02
  -1.05052E+02 -8.85083E+01 -1.00534E+02 -7.61261E+01 -6.72431E+01 -5.33719E+01 -4.16502E+01 -5.01788E+01 -5.12668E+01 -7.10345E+01
  -8.06765E+01 -9.63818E+01 -7.72987E+01 -8.38490E+01 -9.30952E+01 -1.40964E+02 -2.20962E+02 -9.21448E+01  1.12706E+02  1.85820E+02
   1.62651E+02  1.29288E+02  1.10973E+02  9.53817E+01  6.89796E+01  6.94403E+01  6.88078E+01  5.27187E+01  6.08339E+01  3.73479E+01
   3.85144E+01  4.81510E+01  4.06315E+01  4.59580E+01  4.99384E+01  5.13735E+01  3.95145E+01  4.71840E+01  4.90145E+01  4.44727E+01
   4.42848E+01  3.94203E+01  3.73739E+01  4.71028E+01  3.42614E+01  1.99801E+01  4.60677E+01  2.49271E+01  1.75698E+01  2.20606E+01
   6.87918E+00  2.01880E+01  4.35487E+00  4.67964E+00  5.79858E+00 -1.44221E+01 -2.23947E+01 -2.63412E+01 -2.72551E+01 -4.00475E+01
  -3.50487E+01 -2.98941E+01 -1.56630E+01 -1.43985E+01 -2.64974E+01 -9.16183E+00 -1.61346E+01 -7.61261E+00  5.29148E+00  1.03393E+01
   1.28618E+01  8.16275E+00  1.95941E+01  7.60817E+00  1.69248E+01  2.97888E+01  3.84373E+01  3.84406E+01  7.40350E+00  1.05557E+01
   2.68121E+01  3.17165E+01  2.02126E+01  1.45944E+01  7.79169E+00  2.16864E+00  1.00426E+01 -4.85326E+00  5.56870E+00  2.00799E+01
   1.08839E+01  1.50255E+01  1.25750E+01  3.76647E+00  3.39861E+00  7.82814E+00  3.53085E+00  4.54557E+00  2.04708E+01  2.48220E+01
   3.41115E+01  4.47881E+01  3.42700E+01  3.10164E+01  4.57726E+01  4.67454E+01  4.00330E+01  4.31999E+01  4.37207E+01  5.09347E+01
   4.17838E+01  3.52459E+01  3.41126E+01  2.78053E+01  3.86704E+01  2.16722E+01  1.32921E+01  6.13062E+00 -1.86907E+01 -7.47245E+00
  -9.13016E-01 -1.04225E+01 -2.39894E+00 -6.21564E+00 -1.40538E+01 -2.94482E+00 -4.25210E+00  8.63511E+00  2.21037E+01  9.49473E+00
   7.52233E+00  2.29533E+01  2.10475E+01  2.07608E+01  1.90127E+01  1.63039E+01  4.87733E+01  4.17518E+01  5.24676E+01  5.86603E+01
   4.85764E+01  6.95079E+01  6.79179E+01  9.02836E+01  8.90663E+01  9.62784E+01  1.06337E+02  1.31096E+02  1.49948E+02  1.26887E+02
   1.33822E+02  9.84714E+01  9.44185E+01  7.79528E+01  4.86730E+01  6.09618E+01  4.59907E+01  4.30246E+01  3.31668E+01  2.34647E+01
   9.96631E+00 -5.46600E+00 -2.57869E+01 -2.54009E+01 -1.88399E+01 -3.23083E+01 -4.11008E+01 -4.31885E+01 -3.23678E+01 -4.56474E+01
  -3.46586E+01 -3.64891E+01 -4.17955E+01 -2.86316E+01 -4.33285E+01 -4.11640E+01 -4.05189E+01 -3.74963E+01 -4.57287E+01 -3.52580E+01
  -2.66366E+01 -4.59984E+01 -3.27659E+01 -3.32514E+01 -3.72394E+01 -2.83372E+01 -3.48025E+01 -3.72586E+01 -3.06625E+01 -3.16051E+01
  -4.90501E+01 -5.49029E+01 -3.38836E+01 -3.36816E+01 -3.94637E+01 -3.33718E+01 -3.83955E+01 -3.57948E+01 -4.33668E+01 -4.68456E+01
  -3.66180E+01 -3.66290E+01 -3.66749E+01 -3.12067E+01 -3.39218E+01 -3.98194E+01 -2.56586E+01 -2.50778E+01 -3.51215E+01 -3.65036E+01
  -4.12784E+01 -4.24767E+01 -4.23113E+01 -1.96617E+01 -1.14638E+01 -3.84061E+01 -3.75274E+01 -2.91048E+01 -2.97282E+01 -2.97244E+01
  -3.47784E+01 -2.76178E+01 -2.80716E+01 -3.81914E+01 -2.97799E+01 -2.09456E+01 -1.94008E+01 -1.82229E+01 -3.44578E+01 -2.34502E+01
  -1.95506E+01 -4.01862E+01 -2.97536E+01 -3.94379E+01 -3.34173E+01 -2.90106E+01 -3.74442E+01 -2.04175E+01 -2.23992E+01 -2.18803E+01
 NY points of the fit to the data follow
  -7.27102E+01 -8.34675E+01 -9.65092E+01 -1.08657E+02 -1.09062E+02 -8.34695E+01 -5.18181E+01 -4.36933E+01 -5.52314E+01 -6.69600E+01
  -7.64036E+01 -8.34589E+01 -8.47340E+01 -8.27458E+01 -8.14275E+01 -7.97496E+01 -7.92378E+01 -9.08533E+01 -9.68091E+01 -1.21025E+02
  -1.46510E+02 -1.23213E+02 -9.49005E+01 -7.89442E+01 -3.96904E+01 -7.97294E+00 -1.22081E+01 -1.24417E+01 -7.84124E+00 -8.92583E+00
  -9.29908E+00 -1.04154E+01 -1.12445E+01 -1.27298E+01 -1.54901E+01 -1.79952E+01 -1.85435E+01 -2.55184E+01 -3.89529E+01 -6.80091E+01
  -1.04292E+02 -1.19734E+02 -1.05315E+02 -8.30756E+01 -6.12545E+01 -3.23338E+01 -1.00858E+01 -1.10246E+00  3.13857E+00  7.07588E+00
   5.55263E+00  3.66860E+00 -3.84510E-01 -9.72290E+00 -1.86131E+01 -3.33427E+01 -4.43160E+01 -4.18194E+01 -5.93326E+01 -7.67983E+01
  -5.58629E+01 -4.23217E+01 -4.57660E+01 -2.28698E+01  7.51055E+00  1.72641E+01  1.71129E+01  8.86913E+00 -2.59081E+01 -7.07363E+01
  -7.58139E+01 -5.55377E+01 -5.29915E+01 -4.52149E+01 -1.65737E+01  3.06645E+00  1.03549E+01  1.79878E+01  2.26516E+01  2.87273E+01
   2.84279E+01  1.52809E+01 -4.65361E+00 -3.62122E+01 -6.20391E+01 -6.82278E+01 -5.96533E+01 -4.02247E+01 -1.59715E+01 -1.75157E+00
   5.20186E+00  1.24359E+01  1.63418E+01  2.07217E+01  2.59746E+01  3.20732E+01  3.49379E+01  4.01699E+01  4.11432E+01  3.54561E+01
   4.07816E+01  5.22524E+01  3.62452E+01  1.68236E+01  5.22224E-01 -2.73960E+01 -4.30142E+01 -3.97031E+01 -3.93712E+01 -8.85124E+01
  -1.65160E+02 -1.89784E+02 -1.53524E+02 -1.20539E+02 -9.93447E+01 -7.91919E+01 -6.91720E+01 -6.18986E+01 -5.48282E+01 -4.84351E+01
  -4.25287E+01 -3.61194E+01 -2.94192E+01 -2.21308E+01 -1.27996E+01 -1.44431E+00  9.11236E+00  2.18179E+01  6.01257E+01  8.90481E+01
   1.35499E+02  1.50669E+02  3.20646E+01 -1.13054E+02 -1.43323E+02 -1.24499E+02 -1.21908E+02 -1.05285E+02 -9.51214E+01 -9.47593E+01
  -9.40539E+01 -9.32678E+01 -9.42460E+01 -9.44486E+01 -9.45829E+01 -9.42215E+01 -9.23729E+01 -8.89574E+01 -8.51767E+01 -8.20431E+01
  -7.94064E+01 -7.70993E+01 -7.54009E+01 -7.36334E+01 -7.03749E+01 -6.66072E+01 -6.43064E+01 -6.42902E+01 -6.45487E+01 -6.33900E+01
  -6.01795E+01 -5.60957E+01 -5.58894E+01 -5.98319E+01 -6.20076E+01 -6.02088E+01 -5.76268E+01 -5.89172E+01 -6.35233E+01 -6.36407E+01
  -5.34120E+01 -3.32533E+01 -1.54528E+01 -1.97898E+01 -3.85294E+01 -4.03011E+01 -2.37594E+01 -8.45820E+00 -1.31277E+01 -3.53993E+01
  -5.32501E+01 -5.99779E+01 -6.55384E+01 -6.97226E+01 -7.00582E+01 -7.04873E+01 -7.05175E+01 -7.05472E+01 -6.86527E+01 -6.78314E+01
  -6.80180E+01 -6.35960E+01 -6.42617E+01 -6.14275E+01 -4.29205E+01 -3.82070E+01 -4.62554E+01 -4.21576E+01 -3.34093E+01 -3.22987E+01
  -3.78167E+01 -3.98435E+01 -3.03718E+01 -2.15300E+01 -2.65590E+01 -3.47929E+01 -4.01019E+01 -4.78843E+01 -6.16251E+01 -7.43410E+01
  -8.18452E+01 -9.51786E+01 -8.58084E+01 -7.26362E+01 -4.94695E+01 -1.19138E+00  2.92930E+01  3.35884E+01  3.58769E+01  2.11269E+01
  -6.39017E+00 -1.34678E+01 -1.57195E+01 -1.36687E+01 -7.77579E+00 -6.40202E+00 -7.65267E+00 -1.26033E+01 -2.25666E+01 -3.42644E+01
  -4.54808E+01 -5.93694E+01 -7.14335E+01 -8.07105E+01 -9.23808E+01 -1.01468E+02 -1.04089E+02 -1.08661E+02 -1.09802E+02 -1.03859E+02
  -1.04251E+02 -9.94488E+01 -8.79520E+01 -7.68976E+01 -6.27518E+01 -5.41918E+01 -5.09622E+01 -5.43184E+01 -6.03488E+01 -6.75381E+01
  -7.49258E+01 -8.09434E+01 -8.03309E+01 -9.56946E+01 -9.44317E+01 -1.53271E+02 -2.22643E+02 -1.03760E+02  9.41757E+01  1.51579E+02
   1.29406E+02  1.22257E+02  9.56905E+01  7.61354E+01  6.98226E+01  6.55766E+01  6.00603E+01  5.51115E+01  5.00397E+01  4.52833E+01
   4.33285E+01  4.22829E+01  4.26908E+01  4.39940E+01  4.52350E+01  4.58198E+01  4.63184E+01  4.58468E+01  4.54086E+01  4.47080E+01
   4.28373E+01  4.07729E+01  3.84816E+01  3.69164E+01  3.50485E+01  3.27415E+01  3.08481E+01  2.88830E+01  2.66105E+01  2.38959E+01
   2.01968E+01  1.62132E+01  1.23047E+01  7.58432E+00  3.44372E+00  1.43087E+00  1.53779E+00  3.20261E+00  5.87237E+00  8.37612E+00
   1.08169E+01  1.37985E+01  1.69353E+01  1.97154E+01  2.21828E+01  2.44770E+01  2.63474E+01  2.83995E+01  3.14203E+01  3.45022E+01
   3.68438E+01  3.88411E+01  4.05749E+01  4.22552E+01  4.44154E+01  4.56769E+01  4.60799E+01  4.64249E+01  4.56663E+01  4.34074E+01
   4.17797E+01  3.99899E+01  3.68351E+01  3.36390E+01  3.08086E+01  2.74017E+01  2.20387E+01  1.37198E+01  3.32225E+00 -6.73365E+00
  -1.58066E+01 -2.36507E+01 -2.94854E+01 -3.20169E+01 -3.12696E+01 -2.72354E+01 -2.13360E+01 -1.61930E+01 -1.26564E+01 -1.04947E+01
  -9.57469E+00 -7.72891E+00 -3.92355E+00  5.29479E-01  5.34303E+00  9.75238E+00  1.23338E+01  1.30821E+01  1.37015E+01  1.43247E+01
   1.36593E+01  1.16395E+01  8.39948E+00  3.63598E+00 -2.30252E+00 -7.36805E+00 -1.02819E+01 -1.15895E+01 -1.13238E+01 -9.61122E+00
  -6.94803E+00 -3.71092E+00  1.68229E-01  4.01200E+00  7.52982E+00  1.07966E+01  1.37860E+01  1.65620E+01  1.91480E+01  2.20560E+01
   2.49431E+01  2.73938E+01  3.02260E+01  3.32896E+01  3.61321E+01  3.98859E+01  4.46967E+01  4.91027E+01  5.43832E+01  6.10882E+01
   6.74883E+01  7.37781E+01  8.20438E+01  9.13098E+01  1.00053E+02  1.07743E+02  1.12969E+02  1.13191E+02  1.07152E+02  9.60058E+01
   8.23707E+01  7.03713E+01  6.08787E+01  5.34501E+01  4.77820E+01  4.32913E+01  3.69059E+01  2.77689E+01  1.82638E+01  8.45904E+00
  -1.40426E+00 -8.96000E+00 -1.39614E+01 -1.81444E+01 -2.14030E+01 -2.31426E+01 -2.40576E+01 -2.49988E+01 -2.60898E+01 -2.73068E+01
  -2.83865E+01 -2.92591E+01 -2.94361E+01 -2.96011E+01 -2.99077E+01 -3.00072E+01 -2.97748E+01 -2.97504E+01 -3.08056E+01 -3.11940E+01
  -3.03795E+01 -3.00186E+01 -3.06484E+01 -3.08355E+01 -3.06123E+01 -3.07172E+01 -3.09484E+01 -3.14016E+01 -3.11641E+01 -3.04292E+01
  -3.01642E+01 -3.05324E+01 -3.08542E+01 -3.12032E+01 -3.16871E+01 -3.14389E+01 -3.11832E+01 -3.11138E+01 -3.09204E+01 -3.06063E+01
  -3.06138E+01 -3.05066E+01 -3.02919E+01 -3.04617E+01 -3.09980E+01 -3.16666E+01 -3.16637E+01 -3.11626E+01 -3.10790E+01 -3.10531E+01
  -3.08383E+01 -3.12710E+01 -3.18153E+01 -3.13277E+01 -3.09975E+01 -3.09598E+01 -3.07963E+01 -3.06600E+01 -3.07755E+01 -3.05544E+01
  -3.03982E+01 -3.05993E+01 -3.08312E+01 -3.12821E+01 -3.14980E+01 -3.15766E+01 -3.13437E+01 -3.07199E+01 -2.97880E+01 -2.95108E+01
  -2.99534E+01 -3.05325E+01 -3.10909E+01 -3.11864E+01 -3.07723E+01 -3.07361E+01 -3.09684E+01 -3.06176E+01 -3.07070E+01 -3.14880E+01
 NY background values follow
    -4.682E+01   -4.654E+01   -4.627E+01   -4.599E+01   -4.571E+01   -4.543E+01   -4.516E+01   -4.488E+01   -4.460E+01   -4.432E+01
    -4.404E+01   -4.376E+01   -4.348E+01   -4.320E+01   -4.292E+01   -4.264E+01   -4.235E+01   -4.207E+01   -4.178E+01   -4.150E+01
    -4.121E+01   -4.093E+01   -4.064E+01   -4.035E+01   -4.006E+01   -3.978E+01   -3.949E+01   -3.919E+01   -3.890E+01   -3.861E+01
    -3.832E+01   -3.802E+01   -3.773E+01   -3.743E+01   -3.713E+01   -3.684E+01   -3.654E+01   -3.624E+01   -3.594E+01   -3.565E+01
    -3.535E+01   -3.505E+01   -3.476E+01   -3.446E+01   -3.417E+01   -3.387E+01   -3.358E+01   -3.329E+01   -3.300E+01   -3.271E+01
    -3.243E+01   -3.214E+01   -3.186E+01   -3.158E+01   -3.130E+01   -3.102E+01   -3.075E+01   -3.048E+01   -3.021E+01   -2.995E+01
    -2.968E+01   -2.942E+01   -2.917E+01   -2.892E+01   -2.867E+01   -2.842E+01   -2.818E+01   -2.794E+01   -2.770E+01   -2.747E+01
    -2.725E+01   -2.702E+01   -2.680E+01   -2.659E+01   -2.638E+01   -2.617E+01   -2.596E+01   -2.577E+01   -2.557E+01   -2.538E+01
    -2.519E+01   -2.501E+01   -2.484E+01   -2.466E+01   -2.450E+01   -2.433E+01   -2.418E+01   -2.402E+01   -2.388E+01   -2.373E+01
    -2.360E+01   -2.346E+01   -2.334E+01   -2.321E+01   -2.310E+01   -2.299E+01   -2.288E+01   -2.277E+01   -2.268E+01   -2.258E+01
    -2.249E+01   -2.240E+01   -2.232E+01   -2.224E+01   -2.217E+01   -2.210E+01   -2.203E+01   -2.197E+01   -2.191E+01   -2.185E+01
    -2.180E+01   -2.175E+01   -2.170E+01   -2.166E+01   -2.162E+01   -2.158E+01   -2.154E+01   -2.151E+01   -2.148E+01   -2.145E+01
    -2.142E+01   -2.139E+01   -2.137E+01   -2.135E+01   -2.133E+01   -2.131E+01   -2.130E+01   -2.129E+01   -2.127E+01   -2.126E+01
    -2.126E+01   -2.125E+01   -2.124E+01   -2.124E+01   -2.124E+01   -2.124E+01   -2.124E+01   -2.125E+01   -2.125E+01   -2.126E+01
    -2.126E+01   -2.127E+01   -2.128E+01   -2.129E+01   -2.131E+01   -2.132E+01   -2.133E+01   -2.135E+01   -2.137E+01   -2.138E+01
    -2.140E+01   -2.142E+01   -2.145E+01   -2.147E+01   -2.149E+01   -2.151E+01   -2.154E+01   -2.156E+01   -2.159E+01   -2.162E+01
    -2.164E+01   -2.167E+01   -2.170E+01   -2.173E+01   -2.176E+01   -2.180E+01   -2.183E+01   -2.186E+01   -2.189E+01   -2.193E+01
    -2.196E+01   -2.200E+01   -2.203E+01   -2.207E+01   -2.211E+01   -2.214E+01   -2.218E+01   -2.222E+01   -2.226E+01   -2.229E+01
    -2.233E+01   -2.237E+01   -2.241E+01   -2.245E+01   -2.249E+01   -2.253E+01   -2.257E+01   -2.261E+01   -2.265E+01   -2.269E+01
    -2.273E+01   -2.277E+01   -2.281E+01   -2.285E+01   -2.289E+01   -2.293E+01   -2.296E+01   -2.300E+01   -2.304E+01   -2.307E+01
    -2.311E+01   -2.314E+01   -2.317E+01   -2.321E+01   -2.324E+01   -2.327E+01   -2.330E+01   -2.333E+01   -2.335E+01   -2.338E+01
    -2.340E+01   -2.343E+01   -2.345E+01   -2.347E+01   -2.349E+01   -2.351E+01   -2.353E+01   -2.354E+01   -2.356E+01   -2.357E+01
    -2.359E+01   -2.360E+01   -2.361E+01   -2.362E+01   -2.363E+01   -2.364E+01   -2.365E+01   -2.366E+01   -2.367E+01   -2.368E+01
    -2.368E+01   -2.369E+01   -2.370E+01   -2.370E+01   -2.371E+01   -2.371E+01   -2.372E+01   -2.373E+01   -2.373E+01   -2.374E+01
    -2.374E+01   -2.375E+01   -2.375E+01   -2.376E+01   -2.376E+01   -2.376E+01   -2.377E+01   -2.377E+01   -2.378E+01   -2.378E+01
    -2.378E+01   -2.378E+01   -2.378E+01   -2.378E+01   -2.378E+01   -2.378E+01   -2.378E+01   -2.378E+01   -2.378E+01   -2.377E+01
    -2.376E+01   -2.376E+01   -2.375E+01   -2.374E+01   -2.373E+01   -2.372E+01   -2.371E+01   -2.369E+01   -2.368E+01   -2.366E+01
    -2.364E+01   -2.362E+01   -2.359E+01   -2.357E+01   -2.354E+01   -2.351E+01   -2.348E+01   -2.344E+01   -2.340E+01   -2.336E+01
    -2.331E+01   -2.326E+01   -2.321E+01   -2.315E+01   -2.308E+01   -2.301E+01   -2.294E+01   -2.286E+01   -2.277E+01   -2.268E+01
    -2.258E+01   -2.248E+01   -2.237E+01   -2.225E+01   -2.213E+01   -2.200E+01   -2.186E+01   -2.171E+01   -2.156E+01   -2.140E+01
    -2.122E+01   -2.104E+01   -2.086E+01   -2.066E+01   -2.046E+01   -2.025E+01   -2.004E+01   -1.982E+01   -1.959E+01   -1.936E+01
    -1.913E+01   -1.889E+01   -1.865E+01   -1.840E+01   -1.815E+01   -1.790E+01   -1.765E+01   -1.739E+01   -1.713E+01   -1.688E+01
    -1.662E+01   -1.636E+01   -1.610E+01   -1.585E+01   -1.559E+01   -1.534E+01   -1.508E+01   -1.483E+01   -1.459E+01   -1.434E+01
    -1.410E+01   -1.386E+01   -1.363E+01   -1.340E+01   -1.318E+01   -1.296E+01   -1.274E+01   -1.253E+01   -1.233E+01   -1.213E+01
    -1.193E+01   -1.174E+01   -1.156E+01   -1.138E+01   -1.121E+01   -1.104E+01   -1.088E+01   -1.073E+01   -1.058E+01   -1.044E+01
    -1.031E+01   -1.018E+01   -1.006E+01   -9.948E+00   -9.844E+00   -9.747E+00   -9.658E+00   -9.577E+00   -9.504E+00   -9.440E+00
    -9.383E+00   -9.336E+00   -9.296E+00   -9.265E+00   -9.242E+00   -9.227E+00   -9.219E+00   -9.220E+00   -9.227E+00   -9.242E+00
    -9.265E+00   -9.294E+00   -9.331E+00   -9.374E+00   -9.424E+00   -9.481E+00   -9.544E+00   -9.614E+00   -9.690E+00   -9.772E+00
    -9.859E+00   -9.953E+00   -1.005E+01   -1.016E+01   -1.027E+01   -1.038E+01   -1.050E+01   -1.063E+01   -1.076E+01   -1.090E+01
    -1.104E+01   -1.118E+01   -1.133E+01   -1.149E+01   -1.164E+01   -1.180E+01   -1.197E+01   -1.214E+01   -1.231E+01   -1.249E+01
    -1.266E+01   -1.285E+01   -1.303E+01   -1.322E+01   -1.341E+01   -1.360E+01   -1.379E+01   -1.399E+01   -1.419E+01   -1.439E+01
    -1.459E+01   -1.479E+01   -1.499E+01   -1.520E+01   -1.540E+01   -1.561E+01   -1.581E+01   -1.602E+01   -1.623E+01   -1.644E+01
    -1.664E+01   -1.685E+01   -1.706E+01   -1.727E+01   -1.747E+01   -1.768E+01   -1.788E+01   -1.809E+01   -1.830E+01   -1.850E+01
    -1.871E+01   -1.891E+01   -1.911E+01   -1.932E+01   -1.952E+01   -1.972E+01   -1.993E+01   -2.013E+01   -2.033E+01   -2.053E+01
    -2.073E+01   -2.092E+01   -2.112E+01   -2.132E+01   -2.151E+01   -2.171E+01   -2.190E+01   -2.209E+01   -2.229E+01   -2.248E+01
    -2.267E+01   -2.285E+01   -2.304E+01   -2.323E+01   -2.341E+01   -2.360E+01   -2.378E+01   -2.397E+01   -2.415E+01   -2.433E+01
    -2.451E+01   -2.469E+01   -2.487E+01   -2.505E+01   -2.523E+01   -2.541E+01   -2.559E+01   -2.577E+01   -2.595E+01   -2.612E+01
    -2.630E+01   -2.648E+01   -2.666E+01   -2.683E+01   -2.701E+01   -2.719E+01   -2.736E+01   -2.754E+01   -2.772E+01   -2.790E+01
 Mac      Conc. = 2.72E-04
  -6.62542E+01 -6.63556E+01 -6.61564E+01 -6.57377E+01 -6.53957E+01 -6.58888E+01 -6.72521E+01 -6.92161E+01 -7.10270E+01 -7.25745E+01
  -7.30680E+01 -7.26681E+01 -7.19995E+01 -7.14742E+01 -7.25397E+01 -7.50792E+01 -7.83835E+01 -7.87983E+01 -7.35481E+01 -6.68967E+01
  -6.28337E+01 -5.83797E+01 -5.36648E+01 -5.17737E+01 -5.15159E+01 -5.06333E+01 -4.91498E+01 -4.72820E+01 -4.47253E+01 -4.21321E+01
  -4.00810E+01 -3.85603E+01 -3.71460E+01 -3.64658E+01 -3.70349E+01 -3.81789E+01 -3.81983E+01 -3.59560E+01 -3.20798E+01 -2.87039E+01
  -2.80893E+01 -2.90333E+01 -2.91567E+01 -2.80164E+01 -2.57919E+01 -2.35642E+01 -2.23622E+01 -2.24644E+01 -2.30863E+01 -2.41429E+01
  -2.57995E+01 -2.71435E+01 -2.77575E+01 -2.81506E+01 -2.86232E+01 -2.87437E+01 -2.87603E+01 -2.74691E+01 -2.50221E+01 -2.34962E+01
  -2.20176E+01 -1.93244E+01 -1.79492E+01 -1.82041E+01 -1.89410E+01 -1.99592E+01 -2.10234E+01 -2.14338E+01 -2.19514E+01 -2.28852E+01
  -2.21886E+01 -1.87869E+01 -1.48005E+01 -1.23631E+01 -1.08532E+01 -1.00598E+01 -1.01664E+01 -1.09472E+01 -1.18667E+01 -1.25566E+01
  -1.29843E+01 -1.33399E+01 -1.39832E+01 -1.35170E+01 -1.24094E+01 -1.13268E+01 -1.03043E+01 -9.02992E+00 -8.13246E+00 -7.57020E+00
  -7.01628E+00 -6.17551E+00 -5.59472E+00 -5.27517E+00 -5.05107E+00 -6.26307E+00 -8.63603E+00 -1.11169E+01 -1.38224E+01 -1.63286E+01
  -1.72941E+01 -1.81030E+01 -1.99941E+01 -2.22862E+01 -2.55223E+01 -3.10889E+01 -3.90212E+01 -4.77523E+01 -5.36577E+01 -5.54769E+01
