 
 $NMID
 ID=''
 FMTDAT='(2E13.5)'
 TRAMP=   1.00000E+0
 VOLUME=   1.00000E+0
 $END
   3.70735E+5   6.04544E+5
   4.10905E+5   1.81671E+6
   6.15859E+5   1.67058E+6
   4.14952E+5   1.57528E+6
   3.16155E+5   1.71239E+6
   3.51075E+5   1.70557E+6
   3.01370E+5   1.64433E+6
   2.55959E+5   1.65695E+6
   2.27730E+5   1.62524E+6
   1.59501E+5   1.62790E+6
   1.52246E+5   1.65841E+6
   1.52488E+5   1.60727E+6
   8.98725E+4   1.57114E+6
   5.90916E+4   1.58678E+6
   4.98652E+4   1.56923E+6
   1.83147E+4   1.54857E+6
  -2.36161E+3   1.54475E+6
  -3.69737E+4   1.51402E+6
  -9.49362E+4   1.49943E+6
  -1.21813E+5   1.49889E+6
  -1.47378E+5   1.47000E+6
  -1.88269E+5   1.44841E+6
  -2.14188E+5   1.43697E+6
  -2.43932E+5   1.41131E+6
  -2.80587E+5   1.39159E+6
  -2.91021E+5   1.37914E+6
  -3.08301E+5   1.35530E+6
  -3.34375E+5   1.33733E+6
  -3.49861E+5   1.31919E+6
  -3.66482E+5   1.29688E+6
  -3.95492E+5   1.27979E+6
  -4.15264E+5   1.25843E+6
  -4.37884E+5   1.23114E+6
  -4.64106E+5   1.21156E+6
  -4.85629E+5   1.18987E+6
  -5.08195E+5   1.16394E+6
  -5.33758E+5   1.14415E+6
  -5.54814E+5   1.12105E+6
  -5.73928E+5   1.09373E+6
  -5.90876E+5   1.07357E+6
  -6.03872E+5   1.05296E+6
  -6.17511E+5   1.02859E+6
  -6.28461E+5   1.00717E+6
  -6.38476E+5   9.87844E+5
  -6.50806E+5   9.66387E+5
  -6.63137E+5   9.46256E+5
  -6.74994E+5   9.22960E+5
  -6.89470E+5   8.97382E+5
  -7.03068E+5   8.71866E+5
  -7.14425E+5   8.47767E+5
  -7.26600E+5   8.23346E+5
  -7.39213E+5   7.98891E+5
  -7.50634E+5   7.74523E+5
  -7.61441E+5   7.50773E+5
  -7.70614E+5   7.26595E+5
  -7.78801E+5   7.02490E+5
  -7.86289E+5   6.78701E+5
  -7.91838E+5   6.56221E+5
  -7.95600E+5   6.34551E+5
  -8.01406E+5   6.13196E+5
  -8.06956E+5   5.90366E+5
  -8.11556E+5   5.68394E+5
  -8.16231E+5   5.46243E+5
  -8.20796E+5   5.21976E+5
  -8.24122E+5   4.96275E+5
  -8.26123E+5   4.72994E+5
  -8.27875E+5   4.50463E+5
  -8.29581E+5   4.27703E+5
  -8.30873E+5   4.04837E+5
  -8.32298E+5   3.82517E+5
  -8.32789E+5   3.60105E+5
  -8.31522E+5   3.38685E+5
  -8.30178E+5   3.19292E+5
  -8.29664E+5   2.97981E+5
  -8.28346E+5   2.75927E+5
  -8.25669E+5   2.55273E+5
  -8.23570E+5   2.35516E+5
  -8.21163E+5   2.14273E+5
  -8.17845E+5   1.92577E+5
  -8.14224E+5   1.70771E+5
  -8.10400E+5   1.50253E+5
  -8.05923E+5   1.30310E+5
  -8.00836E+5   1.10413E+5
  -7.95540E+5   9.09039E+4
  -7.89868E+5   7.12420E+4
  -7.83481E+5   5.32739E+4
  -7.76872E+5   3.60833E+4
  -7.70165E+5   1.87479E+4
  -7.62845E+5   2.26266E+3
  -7.55466E+5  -1.34164E+4
  -7.47765E+5  -2.88855E+4
  -7.40270E+5  -4.43641E+4
  -7.32587E+5  -6.08135E+4
  -7.23705E+5  -7.64274E+4
  -7.14307E+5  -9.11122E+4
  -7.05085E+5  -1.05689E+5
  -6.96520E+5  -1.20182E+5
  -6.87294E+5  -1.34652E+5
  -6.77482E+5  -1.48513E+5
  -6.67453E+5  -1.60960E+5
  -6.58090E+5  -1.73748E+5
  -6.48443E+5  -1.86081E+5
  -6.37559E+5  -1.98001E+5
  -6.26512E+5  -2.08708E+5
  -6.16244E+5  -2.18680E+5
  -6.06354E+5  -2.28313E+5
  -5.96264E+5  -2.38469E+5
  -5.85038E+5  -2.48638E+5
  -5.73370E+5  -2.57620E+5
  -5.62587E+5  -2.65257E+5
  -5.52188E+5  -2.73444E+5
  -5.41429E+5  -2.82659E+5
  -5.30216E+5  -2.91281E+5
  -5.18579E+5  -2.99280E+5
  -5.07188E+5  -3.07006E+5
  -4.95871E+5  -3.14862E+5
  -4.84344E+5  -3.21792E+5
  -4.72275E+5  -3.28213E+5
  -4.60414E+5  -3.33616E+5
  -4.49528E+5  -3.38750E+5
  -4.38767E+5  -3.44090E+5
  -4.27800E+5  -3.49608E+5
  -4.16341E+5  -3.54652E+5
  -4.05061E+5  -3.59754E+5
  -3.93500E+5  -3.64160E+5
  -3.81648E+5  -3.68251E+5
  -3.69918E+5  -3.71631E+5
  -3.58865E+5  -3.75468E+5
  -3.47627E+5  -3.78819E+5
  -3.36415E+5  -3.82423E+5
  -3.24584E+5  -3.85685E+5
  -3.12451E+5  -3.88485E+5
  -3.01041E+5  -3.90889E+5
  -2.89831E+5  -3.93211E+5
  -2.78694E+5  -3.95117E+5
  -2.67382E+5  -3.96777E+5
  -2.56299E+5  -3.98189E+5
  -2.45746E+5  -3.99439E+5
  -2.34841E+5  -4.00799E+5
  -2.23369E+5  -4.01440E+5
  -2.12811E+5  -4.02275E+5
  -2.02214E+5  -4.02008E+5
  -1.92147E+5  -4.01872E+5
  -1.82107E+5  -4.01681E+5
  -1.72045E+5  -4.01691E+5
  -1.61491E+5  -4.01027E+5
  -1.52002E+5  -3.99891E+5
  -1.42075E+5  -3.98610E+5
  -1.32580E+5  -3.97311E+5
  -1.23768E+5  -3.95574E+5
  -1.14646E+5  -3.93446E+5
  -1.06047E+5  -3.91506E+5
  -9.77510E+4  -3.89432E+5
  -8.92263E+4  -3.87427E+5
  -8.10351E+4  -3.85330E+5
  -7.28535E+4  -3.82513E+5
  -6.52743E+4  -3.80019E+5
  -5.78239E+4  -3.77056E+5
  -5.00742E+4  -3.74362E+5
  -4.30679E+4  -3.71098E+5
  -3.60855E+4  -3.67960E+5
  -2.91215E+4  -3.64619E+5
  -2.21318E+4  -3.61285E+5
  -1.56000E+4  -3.57361E+5
  -9.09236E+3  -3.53481E+5
  -3.31728E+3  -3.50069E+5
   2.63694E+3  -3.46145E+5
   8.86617E+3  -3.42751E+5
   1.45152E+4  -3.38863E+5
   1.94921E+4  -3.34832E+5
   2.48523E+4  -3.30836E+5
   2.96722E+4  -3.26838E+5
   3.50136E+4  -3.22783E+5
   3.95762E+4  -3.18494E+5
   4.45384E+4  -3.14358E+5
   4.89833E+4  -3.10360E+5
   5.37206E+4  -3.06315E+5
   5.86048E+4  -3.01294E+5
   6.27648E+4  -2.96750E+5
   6.64079E+4  -2.92498E+5
   7.03942E+4  -2.88477E+5
   7.45846E+4  -2.84060E+5
   7.85427E+4  -2.79488E+5
   8.21901E+4  -2.74790E+5
   8.57111E+4  -2.70564E+5
   8.91949E+4  -2.65722E+5
   9.22770E+4  -2.61067E+5
   9.51997E+4  -2.56359E+5
   9.79334E+4  -2.51975E+5
   1.00458E+5  -2.47997E+5
   1.03761E+5  -2.43825E+5
   1.06715E+5  -2.39065E+5
   1.09728E+5  -2.33934E+5
   1.12167E+5  -2.29396E+5
   1.14566E+5  -2.24687E+5
   1.16869E+5  -2.19886E+5
   1.19144E+5  -2.15477E+5
   1.21485E+5  -2.10771E+5
   1.23553E+5  -2.06203E+5
   1.26032E+5  -2.01253E+5
   1.27840E+5  -1.96365E+5
   1.29563E+5  -1.91504E+5
   1.30813E+5  -1.86783E+5
   1.32300E+5  -1.82267E+5
   1.34026E+5  -1.77860E+5
   1.35375E+5  -1.73270E+5
   1.36548E+5  -1.68381E+5
   1.37849E+5  -1.63747E+5
   1.38993E+5  -1.59386E+5
   1.39843E+5  -1.54316E+5
   1.40647E+5  -1.49823E+5
   1.41262E+5  -1.45271E+5
   1.42030E+5  -1.41358E+5
   1.42680E+5  -1.36997E+5
   1.43292E+5  -1.32603E+5
   1.43719E+5  -1.27894E+5
   1.43936E+5  -1.23520E+5
   1.43604E+5  -1.19034E+5
   1.43740E+5  -1.15316E+5
   1.43820E+5  -1.11159E+5
   1.43534E+5  -1.06999E+5
   1.43221E+5  -1.03248E+5
   1.43092E+5  -9.94496E+4
   1.42846E+5  -9.54774E+4
   1.42360E+5  -9.14988E+4
   1.41700E+5  -8.77361E+4
   1.41040E+5  -8.43059E+4
   1.40533E+5  -8.07931E+4
   1.40065E+5  -7.68780E+4
   1.39080E+5  -7.34989E+4
   1.38426E+5  -7.00923E+4
   1.37505E+5  -6.67778E+4
   1.36400E+5  -6.35253E+4
   1.35243E+5  -6.04848E+4
   1.34318E+5  -5.74598E+4
   1.33344E+5  -5.44712E+4
   1.31936E+5  -5.13689E+4
   1.31000E+5  -4.86066E+4
   1.29855E+5  -4.56140E+4
   1.28496E+5  -4.28432E+4
   1.27534E+5  -4.04297E+4
   1.26486E+5  -3.79178E+4
   1.25305E+5  -3.52798E+4
   1.23777E+5  -3.22948E+4
   1.22206E+5  -2.97211E+4
   1.21057E+5  -2.78762E+4
   1.19570E+5  -2.51155E+4
   1.18473E+5  -2.26253E+4
   1.16694E+5  -2.04276E+4
   1.15268E+5  -1.82088E+4
   1.14015E+5  -1.62155E+4
   1.12697E+5  -1.41776E+4
   1.11393E+5  -1.20285E+4
   1.10151E+5  -9.77778E+3
   1.08462E+5  -7.82082E+3
   1.07104E+5  -6.01887E+3
   1.05734E+5  -4.07074E+3
   1.04531E+5  -2.26696E+3
   1.03092E+5  -3.93575E+2
   1.01666E+5   1.57372E+3
   1.00518E+5   3.49697E+3
   9.89985E+4   5.27895E+3
   9.73566E+4   6.96356E+3
   9.58467E+4   8.25845E+3
   9.45710E+4   9.85689E+3
   9.31872E+4   1.13119E+4
   9.19268E+4   1.28760E+4
   9.06034E+4   1.45570E+4
   8.90006E+4   1.57624E+4
   8.76122E+4   1.69335E+4
   8.62201E+4   1.81147E+4
   8.49624E+4   1.95060E+4
   8.34287E+4   2.04905E+4
   8.21879E+4   2.17225E+4
   8.07945E+4   2.30379E+4
   7.93822E+4   2.41839E+4
   7.80357E+4   2.54006E+4
   7.64817E+4   2.63187E+4
   7.52116E+4   2.70476E+4
   7.39767E+4   2.77330E+4
   7.27216E+4   2.88138E+4
   7.10309E+4   2.96109E+4
   6.98841E+4   3.02909E+4
   6.86572E+4   3.11820E+4
   6.73800E+4   3.19779E+4
   6.59676E+4   3.26054E+4
   6.44941E+4   3.30152E+4
   6.30671E+4   3.35254E+4
   6.19695E+4   3.41114E+4
   6.08900E+4   3.46655E+4
   5.96625E+4   3.52719E+4
   5.83964E+4   3.58264E+4
   5.71512E+4   3.60025E+4
   5.56936E+4   3.64150E+4
   5.46196E+4   3.69748E+4
   5.34823E+4   3.71721E+4
   5.22713E+4   3.72784E+4
   5.08154E+4   3.74736E+4
   4.98391E+4   3.78199E+4
   4.85605E+4   3.82282E+4
   4.73277E+4   3.84736E+4
   4.61693E+4   3.86939E+4
   4.52687E+4   3.87292E+4
   4.43700E+4   3.89625E+4
   4.28405E+4   3.90706E+4
   4.16998E+4   3.88804E+4
   4.04705E+4   3.90394E+4
   3.96273E+4   3.91044E+4
   3.86388E+4   3.90245E+4
   3.74542E+4   3.90036E+4
   3.65545E+4   3.88934E+4
   3.54551E+4   3.88263E+4
   3.45498E+4   3.86617E+4
   3.34922E+4   3.88601E+4
   3.25451E+4   3.86967E+4
   3.15929E+4   3.85863E+4
   3.06117E+4   3.83668E+4
   2.96062E+4   3.81999E+4
   2.87629E+4   3.79883E+4
   2.79447E+4   3.78247E+4
   2.69359E+4   3.71593E+4
   2.60839E+4   3.73183E+4
   2.51360E+4   3.67214E+4
   2.44736E+4   3.67072E+4
   2.34984E+4   3.62738E+4
   2.28894E+4   3.59351E+4
   2.20523E+4   3.57694E+4
   2.13373E+4   3.54119E+4
   2.06918E+4   3.51072E+4
   1.97739E+4   3.44970E+4
   1.90984E+4   3.39497E+4
   1.84403E+4   3.40944E+4
   1.77730E+4   3.36309E+4
   1.71663E+4   3.28361E+4
   1.66702E+4   3.25725E+4
   1.59913E+4   3.24712E+4
   1.53230E+4   3.19050E+4
   1.44106E+4   3.18435E+4
   1.42043E+4   3.11674E+4
   1.34321E+4   3.04366E+4
   1.30809E+4   3.03408E+4
   1.24157E+4   2.97013E+4
   1.19108E+4   2.94972E+4
   1.17540E+4   2.89370E+4
   1.10877E+4   2.84465E+4
   1.05746E+4   2.77429E+4
   1.00921E+4   2.75500E+4
   9.62050E+3   2.69946E+4
   9.28496E+3   2.64444E+4
   9.12251E+3   2.63442E+4
   8.90037E+3   2.60461E+4
   8.13266E+3   2.53948E+4
   7.91583E+3   2.47354E+4
   7.46504E+3   2.42543E+4
   7.74915E+3   2.39938E+4
   7.15505E+3   2.36498E+4
   6.73641E+3   2.29748E+4
   6.29947E+3   2.25648E+4
   6.29481E+3   2.21824E+4
   5.98097E+3   2.20409E+4
   5.82025E+3   2.13293E+4
   5.72324E+3   2.08463E+4
   5.45607E+3   2.04313E+4
   5.18063E+3   2.01001E+4
   5.14049E+3   1.96344E+4
   5.15451E+3   1.92820E+4
   4.77422E+3   1.87980E+4
