 
 $NMID
 ID=''
 FMTDAT='(2E13.5)'
 TRAMP=   1.00000E+0
 VOLUME=   1.00000E+0
 $END
   5.15089E+5  -2.13269E+5
   1.50647E+6  -4.06350E+4
   1.45189E+6  -2.33918E+5
   1.35380E+6  -1.97580E+5
   1.39878E+6  -2.33180E+5
   1.34803E+6  -3.51851E+5
   1.28519E+6  -3.71304E+5
   1.30008E+6  -3.92873E+5
   1.25907E+6  -4.45394E+5
   1.21265E+6  -4.42346E+5
   1.20814E+6  -4.58145E+5
   1.16648E+6  -4.93417E+5
   1.12649E+6  -4.93268E+5
   1.11705E+6  -5.03299E+5
   1.08049E+6  -5.18547E+5
   1.04655E+6  -5.14165E+5
   1.03212E+6  -5.30362E+5
   9.91891E+5  -5.53572E+5
   9.53252E+5  -5.58165E+5
   9.27322E+5  -5.78593E+5
   8.86733E+5  -5.95010E+5
   8.51647E+5  -5.94992E+5
   8.26721E+5  -6.05960E+5
   7.89771E+5  -6.15256E+5
   7.56829E+5  -6.09109E+5
   7.29184E+5  -6.13802E+5
   6.98790E+5  -6.14883E+5
   6.74903E+5  -6.03869E+5
   6.50702E+5  -5.99320E+5
   6.17443E+5  -5.98862E+5
   5.91379E+5  -5.93833E+5
   5.64710E+5  -5.92693E+5
   5.31147E+5  -5.88992E+5
   5.02190E+5  -5.83941E+5
   4.73450E+5  -5.82813E+5
   4.39693E+5  -5.79598E+5
   4.10986E+5  -5.73899E+5
   3.84828E+5  -5.69419E+5
   3.57258E+5  -5.59703E+5
   3.33598E+5  -5.47857E+5
   3.11203E+5  -5.38116E+5
   2.88215E+5  -5.26654E+5
   2.67695E+5  -5.13283E+5
   2.47441E+5  -5.01747E+5
   2.27425E+5  -4.88812E+5
   2.10366E+5  -4.75637E+5
   1.92367E+5  -4.63220E+5
   1.73082E+5  -4.49443E+5
   1.54172E+5  -4.35527E+5
   1.36231E+5  -4.23096E+5
   1.18423E+5  -4.09252E+5
   1.02066E+5  -3.94934E+5
   8.60454E+4  -3.81634E+5
   7.16817E+4  -3.67687E+5
   5.79216E+4  -3.52177E+5
   4.45324E+4  -3.37453E+5
   3.33925E+4  -3.23205E+5
   2.25199E+4  -3.08150E+5
   1.17005E+4  -2.92884E+5
   1.22999E+3  -2.78363E+5
  -7.90764E+3  -2.64415E+5
  -1.61156E+4  -2.49540E+5
  -2.46752E+4  -2.35253E+5
  -3.28072E+4  -2.20911E+5
  -4.02035E+4  -2.07014E+5
  -4.70430E+4  -1.92547E+5
  -5.35608E+4  -1.78574E+5
  -5.93571E+4  -1.65118E+5
  -6.44048E+4  -1.52206E+5
  -6.87733E+4  -1.39108E+5
  -7.32625E+4  -1.25972E+5
  -7.71270E+4  -1.14060E+5
  -7.94033E+4  -1.02060E+5
  -8.23496E+4  -8.98903E+4
  -8.53041E+4  -7.83578E+4
  -8.78098E+4  -6.75119E+4
  -8.91025E+4  -5.63805E+4
  -9.07264E+4  -4.54108E+4
  -9.22344E+4  -3.54326E+4
  -9.33425E+4  -2.59801E+4
  -9.38204E+4  -1.63698E+4
  -9.46538E+4  -7.05258E+3
  -9.49991E+4   1.66464E+3
  -9.46882E+4   9.85412E+3
  -9.40402E+4   1.81064E+4
  -9.38744E+4   2.58348E+4
  -9.33475E+4   3.28780E+4
  -9.23629E+4   3.97714E+4
  -9.14805E+4   4.67148E+4
  -9.02570E+4   5.27365E+4
  -8.90325E+4   5.86570E+4
  -8.74526E+4   6.47101E+4
  -8.59667E+4   7.09978E+4
  -8.44732E+4   7.55932E+4
  -8.28445E+4   8.03114E+4
  -8.10621E+4   8.51851E+4
  -7.93262E+4   8.97738E+4
  -7.76044E+4   9.37922E+4
  -7.54932E+4   9.72187E+4
  -7.33235E+4   1.00813E+5
  -7.12323E+4   1.04064E+5
  -6.97694E+4   1.07425E+5
  -6.79753E+4   1.09419E+5
  -6.57606E+4   1.11943E+5
  -6.38604E+4   1.14271E+5
  -6.15577E+4   1.15969E+5
  -5.94979E+4   1.17988E+5
  -5.75327E+4   1.19553E+5
  -5.55805E+4   1.21099E+5
  -5.33803E+4   1.22185E+5
  -5.13027E+4   1.23222E+5
  -4.90346E+4   1.24597E+5
  -4.75230E+4   1.25457E+5
  -4.57457E+4   1.25739E+5
  -4.40091E+4   1.26302E+5
  -4.21432E+4   1.26544E+5
  -4.04244E+4   1.27051E+5
  -3.87295E+4   1.26596E+5
  -3.68240E+4   1.26406E+5
  -3.53568E+4   1.26101E+5
  -3.35277E+4   1.26046E+5
  -3.17742E+4   1.25850E+5
  -2.98036E+4   1.25127E+5
  -2.84820E+4   1.24959E+5
  -2.70798E+4   1.24078E+5
  -2.59072E+4   1.23499E+5
  -2.42199E+4   1.22246E+5
  -2.30761E+4   1.21740E+5
  -2.19409E+4   1.20684E+5
  -2.04797E+4   1.19631E+5
  -1.97696E+4   1.18506E+5
  -1.88887E+4   1.17228E+5
  -1.82667E+4   1.15953E+5
  -1.73605E+4   1.14415E+5
  -1.62888E+4   1.13055E+5
  -1.58611E+4   1.11695E+5
  -1.52129E+4   1.10272E+5
  -1.42392E+4   1.08926E+5
  -1.36165E+4   1.07461E+5
  -1.34143E+4   1.05867E+5
  -1.28081E+4   1.04142E+5
  -1.22909E+4   1.02283E+5
  -1.16974E+4   1.00758E+5
  -1.12096E+4   9.90063E+4
  -1.10313E+4   9.76785E+4
  -1.08386E+4   9.59694E+4
  -1.07031E+4   9.41925E+4
  -1.05006E+4   9.21817E+4
  -1.04060E+4   9.05389E+4
  -9.76328E+3   8.85474E+4
  -9.97215E+3   8.70338E+4
  -9.88417E+3   8.54005E+4
  -9.80280E+3   8.33239E+4
  -9.63274E+3   8.17559E+4
  -9.72956E+3   8.02990E+4
  -9.98224E+3   7.83952E+4
  -9.90659E+3   7.64082E+4
  -9.61829E+3   7.48345E+4
  -9.75921E+3   7.30538E+4
  -9.85743E+3   7.16347E+4
  -1.00497E+4   6.97516E+4
  -1.01066E+4   6.81687E+4
  -1.01308E+4   6.64502E+4
  -1.01747E+4   6.48621E+4
  -1.03982E+4   6.29514E+4
  -1.03790E+4   6.16553E+4
  -1.07865E+4   6.00885E+4
  -1.07797E+4   5.89049E+4
  -1.12500E+4   5.70803E+4
  -1.12685E+4   5.56364E+4
  -1.12820E+4   5.40940E+4
  -1.11007E+4   5.27798E+4
  -1.15759E+4   5.11458E+4
  -1.15407E+4   5.00883E+4
  -1.15629E+4   4.84556E+4
  -1.19439E+4   4.71055E+4
  -1.18899E+4   4.56571E+4
  -1.23766E+4   4.44483E+4
  -1.25555E+4   4.31353E+4
  -1.25226E+4   4.16374E+4
  -1.26496E+4   4.05506E+4
  -1.28214E+4   3.94133E+4
  -1.31683E+4   3.81424E+4
  -1.35157E+4   3.67594E+4
  -1.34082E+4   3.55476E+4
  -1.39704E+4   3.43452E+4
  -1.37982E+4   3.32034E+4
  -1.37921E+4   3.19718E+4
  -1.41913E+4   3.09843E+4
  -1.40428E+4   2.99296E+4
  -1.45311E+4   2.90097E+4
  -1.46070E+4   2.79058E+4
  -1.49044E+4   2.70343E+4
  -1.52020E+4   2.56994E+4
  -1.53359E+4   2.46415E+4
  -1.55781E+4   2.38107E+4
  -1.57491E+4   2.27523E+4
  -1.57971E+4   2.21126E+4
  -1.62693E+4   2.10887E+4
  -1.62604E+4   2.02238E+4
  -1.66284E+4   1.93960E+4
  -1.66972E+4   1.84778E+4
  -1.68769E+4   1.74955E+4
  -1.69907E+4   1.67716E+4
  -1.73736E+4   1.62067E+4
  -1.73101E+4   1.51742E+4
  -1.76617E+4   1.45674E+4
  -1.80285E+4   1.41233E+4
  -1.83011E+4   1.31376E+4
  -1.81524E+4   1.28769E+4
  -1.82716E+4   1.19311E+4
  -1.86331E+4   1.15766E+4
  -1.87564E+4   1.09268E+4
  -1.87960E+4   1.04059E+4
  -1.91109E+4   1.00197E+4
  -1.91595E+4   9.23410E+3
  -1.92293E+4   8.73047E+3
  -1.90385E+4   8.42445E+3
  -1.91214E+4   7.68213E+3
  -1.91397E+4   7.27226E+3
  -1.93360E+4   6.91078E+3
  -1.94068E+4   6.77154E+3
  -1.93846E+4   5.93784E+3
  -1.95842E+4   5.64891E+3
  -1.95467E+4   5.23656E+3
  -1.94304E+4   4.83540E+3
  -1.96433E+4   4.43458E+3
  -1.94537E+4   4.21908E+3
  -1.97407E+4   3.94455E+3
  -1.96278E+4   3.56645E+3
  -1.98921E+4   3.13258E+3
  -1.96600E+4   2.93178E+3
  -1.96258E+4   2.77185E+3
  -1.97049E+4   2.43728E+3
  -1.95597E+4   1.84324E+3
  -1.93442E+4   1.84821E+3
  -1.92736E+4   1.51048E+3
  -1.91811E+4   1.33344E+3
  -1.95289E+4   9.79182E+2
  -1.90979E+4   9.49810E+2
  -1.93742E+4   5.58376E+2
  -1.94836E+4   1.83790E+2
  -1.94011E+4   1.82200E+2
  -1.94306E+4  -4.28797E+2
  -1.92290E+4  -7.31106E+2
  -1.90418E+4  -7.66814E+2
  -1.90346E+4  -8.08056E+2
  -1.90706E+4  -1.22345E+3
  -1.90198E+4  -1.53731E+3
  -1.90784E+4  -1.68641E+3
  -1.89288E+4  -1.95779E+3
  -1.90665E+4  -2.33535E+3
  -1.89985E+4  -2.46286E+3
  -1.90162E+4  -2.95481E+3
  -1.86155E+4  -3.09811E+3
  -1.85713E+4  -3.22367E+3
  -1.88838E+4  -3.48942E+3
  -1.86469E+4  -3.73180E+3
  -1.87598E+4  -3.92014E+3
  -1.86200E+4  -4.10625E+3
  -1.85967E+4  -4.45374E+3
  -1.86693E+4  -4.76337E+3
  -1.86307E+4  -5.01631E+3
  -1.83350E+4  -5.17271E+3
  -1.82634E+4  -5.22465E+3
  -1.85706E+4  -5.42883E+3
  -1.84273E+4  -5.78683E+3
  -1.81435E+4  -5.98995E+3
  -1.81816E+4  -6.10661E+3
  -1.80271E+4  -6.41639E+3
  -1.80320E+4  -6.53333E+3
  -1.79814E+4  -6.64035E+3
  -1.78661E+4  -6.87531E+3
  -1.77946E+4  -6.95576E+3
  -1.76282E+4  -6.92840E+3
  -1.74466E+4  -7.35184E+3
  -1.73985E+4  -7.56415E+3
  -1.73332E+4  -7.82671E+3
  -1.73642E+4  -7.89163E+3
  -1.73543E+4  -8.09858E+3
  -1.71768E+4  -8.42501E+3
  -1.68296E+4  -8.52590E+3
  -1.68908E+4  -8.49464E+3
  -1.67390E+4  -8.99676E+3
  -1.69645E+4  -8.95591E+3
  -1.67126E+4  -8.91872E+3
  -1.66328E+4  -9.37295E+3
  -1.65775E+4  -9.54494E+3
  -1.62544E+4  -9.43187E+3
  -1.64820E+4  -9.52908E+3
  -1.60810E+4  -9.82443E+3
  -1.59158E+4  -9.91126E+3
  -1.59927E+4  -1.03154E+4
  -1.59095E+4  -1.01228E+4
  -1.58125E+4  -1.03234E+4
  -1.57528E+4  -1.05263E+4
  -1.55326E+4  -1.04899E+4
  -1.56144E+4  -1.07786E+4
  -1.53875E+4  -1.08996E+4
  -1.51679E+4  -1.11178E+4
  -1.53024E+4  -1.10696E+4
  -1.51350E+4  -1.11978E+4
  -1.49809E+4  -1.13763E+4
  -1.50829E+4  -1.13458E+4
  -1.49422E+4  -1.15156E+4
  -1.48483E+4  -1.16139E+4
  -1.46536E+4  -1.15641E+4
  -1.46503E+4  -1.14638E+4
  -1.45578E+4  -1.17781E+4
  -1.43952E+4  -1.18874E+4
  -1.42299E+4  -1.19711E+4
  -1.43659E+4  -1.20642E+4
  -1.43835E+4  -1.19654E+4
  -1.41916E+4  -1.20360E+4
  -1.40973E+4  -1.20580E+4
  -1.40363E+4  -1.20962E+4
  -1.39709E+4  -1.19715E+4
  -1.39013E+4  -1.20829E+4
  -1.39240E+4  -1.21464E+4
  -1.36470E+4  -1.21381E+4
  -1.38752E+4  -1.19754E+4
  -1.36336E+4  -1.20596E+4
  -1.36104E+4  -1.20539E+4
  -1.34965E+4  -1.19872E+4
  -1.34381E+4  -1.19713E+4
  -1.33929E+4  -1.20397E+4
  -1.34023E+4  -1.18363E+4
  -1.32150E+4  -1.18229E+4
  -1.32705E+4  -1.18398E+4
  -1.29957E+4  -1.17265E+4
  -1.30623E+4  -1.17824E+4
  -1.29757E+4  -1.16597E+4
  -1.28968E+4  -1.15706E+4
  -1.28967E+4  -1.16164E+4
  -1.28691E+4  -1.14311E+4
  -1.27966E+4  -1.11906E+4
  -1.26968E+4  -1.14468E+4
  -1.25674E+4  -1.11939E+4
  -1.24222E+4  -1.11139E+4
  -1.22863E+4  -1.09519E+4
  -1.24234E+4  -1.12423E+4
  -1.21716E+4  -1.07433E+4
  -1.22414E+4  -1.06557E+4
  -1.20256E+4  -1.06530E+4
  -1.20943E+4  -1.03628E+4
  -1.21067E+4  -1.05306E+4
  -1.17974E+4  -1.06253E+4
  -1.16298E+4  -1.00561E+4
  -1.15589E+4  -9.79707E+3
  -1.16537E+4  -9.89685E+3
  -1.14426E+4  -9.93542E+3
  -1.14347E+4  -9.75560E+3
  -1.12646E+4  -9.74051E+3
  -1.10018E+4  -9.55961E+3
  -1.09922E+4  -9.63566E+3
  -1.09704E+4  -9.46683E+3
  -1.08202E+4  -9.52238E+3
  -1.06145E+4  -9.36889E+3
  -1.09563E+4  -9.27570E+3
  -1.07491E+4  -9.14745E+3
  -1.04724E+4  -8.98721E+3
  -1.04699E+4  -8.82961E+3
  -1.03227E+4  -8.88196E+3
  -1.03408E+4  -8.62379E+3
  -1.01472E+4  -8.71967E+3
  -1.04234E+4  -8.61745E+3
  -9.99569E+3  -8.43388E+3
