 LCModel (Version 6.3-1N) Copyright: S.W. Provencher.          Ref.: Magn. Reson. Med. 30:672-679 (1993).                
 Slice_N1@13_14  28-Feb-2025 11:39:18
 27 lines in following concentration table = NCONC+1
    Conc.  %SD /Cr+PCr  Metabolite                                         
 2.61E-04   4% 3.1E-04 Mac                                                 
    2.269  54%   2.676 Cr                                                  
    4.514  27%   5.324 PCr                                                 
    7.091  12%   8.363 Ins                                                 
    7.087  10%   8.359 NAA                                                 
    5.379  15%   6.344 Tau                                                 
    0.000 999%   0.000 PCho                                                
    2.213  10%   2.610 GPC                                                 
    6.674  14%   7.871 Glu                                                 
    3.228  23%   3.807 Gln                                                 
    1.464  43%   1.727 Ala                                                 
    5.068  21%   5.978 Asc                                                 
    1.708  47%   2.014 Asp                                                 
    0.273 165%   0.322 GABA                                                
    0.994  57%   1.172 Glc                                                 
    1.908  24%   2.250 GSH                                                 
    0.000 999%   0.000 Lac                                                 
    1.087  49%   1.282 NAAG                                                
    0.000 999%   0.000 PE                                                  
    2.213  10%   2.610 GPC+PCho                                            
    8.174   9%   9.640 NAA+NAAG                                            
    9.901  12%  11.678 Glu+Gln                                             
    6.783   9%   8.000 Cr+PCr                                              
    8.174   9%   9.640 NAA+NAAG                                            
    6.783   9%   8.000 Cr+PCr                                              
    9.901  12%  11.678 Glu+Gln                                             
   6 lines in following misc. output table
  FWHM = 0.033 ppm    S/N =   3                                            
  Data shift = 0.033 ppm                                                   
  Ph:-163 deg       0.0 deg/ppm                                            
  alphaB,S = 3.1E+01,   4.5E+00                                            
   19 spline knots.   Ns = 5(1)                                            
   2 inflections.     1 extrema                                            
  480 points on ppm-axis = NY
      4.100000     4.091866     4.083733     4.075600     4.067466     4.059333     4.051199     4.043066     4.034933     4.026799
      4.018666     4.010532     4.002399     3.994265     3.986132     3.977998     3.969864     3.961731     3.953597     3.945463
      3.937330     3.929196     3.921062     3.912929     3.904795     3.896662     3.888528     3.880394     3.872261     3.864127
      3.855993     3.847860     3.839726     3.831592     3.823459     3.815325     3.807191     3.799058     3.790924     3.782790
      3.774657     3.766523     3.758389     3.750256     3.742122     3.733989     3.725855     3.717721     3.709588     3.701454
      3.693320     3.685187     3.677053     3.668919     3.660786     3.652652     3.644518     3.636385     3.628251     3.620117
      3.611984     3.603850     3.595716     3.587583     3.579449     3.571316     3.563182     3.555048     3.546915     3.538781
      3.530647     3.522514     3.514380     3.506246     3.498113     3.489979     3.481845     3.473712     3.465578     3.457444
      3.449311     3.441177     3.433043     3.424910     3.416776     3.408643     3.400509     3.392375     3.384242     3.376108
      3.367974     3.359841     3.351707     3.343573     3.335440     3.327306     3.319172     3.311039     3.302905     3.294771
      3.286638     3.278504     3.270370     3.262237     3.254103     3.245970     3.237836     3.229702     3.221569     3.213435
      3.205301     3.197168     3.189034     3.180900     3.172767     3.164633     3.156499     3.148366     3.140232     3.132098
      3.123965     3.115831     3.107697     3.099564     3.091430     3.083297     3.075163     3.067029     3.058896     3.050762
      3.042628     3.034495     3.026361     3.018227     3.010094     3.001960     2.993826     2.985693     2.977559     2.969425
      2.961292     2.953158     2.945024     2.936891     2.928757     2.920624     2.912490     2.904356     2.896223     2.888089
      2.879955     2.871822     2.863688     2.855554     2.847421     2.839287     2.831153     2.823020     2.814886     2.806752
      2.798619     2.790485     2.782351     2.774218     2.766084     2.757951     2.749817     2.741683     2.733550     2.725416
      2.717282     2.709149     2.701015     2.692881     2.684748     2.676614     2.668480     2.660347     2.652213     2.644079
      2.635946     2.627812     2.619678     2.611545     2.603411     2.595278     2.587144     2.579010     2.570877     2.562743
      2.554609     2.546476     2.538342     2.530208     2.522075     2.513941     2.505807     2.497674     2.489540     2.481406
      2.473273     2.465139     2.457006     2.448872     2.440738     2.432605     2.424471     2.416337     2.408204     2.400070
      2.391936     2.383803     2.375669     2.367535     2.359402     2.351268     2.343134     2.335001     2.326867     2.318733
      2.310600     2.302466     2.294333     2.286199     2.278065     2.269932     2.261798     2.253664     2.245531     2.237397
      2.229263     2.221130     2.212996     2.204862     2.196729     2.188595     2.180461     2.172328     2.164194     2.156060
      2.147927     2.139793     2.131660     2.123526     2.115392     2.107259     2.099125     2.090991     2.082858     2.074724
      2.066590     2.058457     2.050323     2.042189     2.034056     2.025922     2.017788     2.009655     2.001521     1.993387
      1.985254     1.977120     1.968987     1.960853     1.952719     1.944586     1.936452     1.928318     1.920185     1.912051
      1.903917     1.895784     1.887650     1.879516     1.871383     1.863249     1.855115     1.846982     1.838848     1.830714
      1.822581     1.814447     1.806314     1.798180     1.790046     1.781913     1.773779     1.765645     1.757512     1.749378
      1.741244     1.733111     1.724977     1.716843     1.708710     1.700576     1.692442     1.684309     1.676175     1.668041
      1.659908     1.651774     1.643641     1.635507     1.627373     1.619240     1.611106     1.602972     1.594839     1.586705
      1.578571     1.570438     1.562304     1.554170     1.546037     1.537903     1.529769     1.521636     1.513502     1.505368
      1.497235     1.489101     1.480968     1.472834     1.464700     1.456567     1.448433     1.440299     1.432166     1.424032
      1.415898     1.407765     1.399631     1.391497     1.383364     1.375230     1.367096     1.358963     1.350829     1.342695
      1.334562     1.326428     1.318295     1.310161     1.302027     1.293894     1.285760     1.277626     1.269493     1.261359
      1.253225     1.245092     1.236958     1.228824     1.220691     1.212557     1.204423     1.196290     1.188156     1.180022
      1.171889     1.163755     1.155622     1.147488     1.139354     1.131221     1.123087     1.114953     1.106820     1.098686
      1.090552     1.082419     1.074285     1.066151     1.058018     1.049884     1.041750     1.033617     1.025483     1.017349
      1.009216     1.001082     0.992949     0.984815     0.976681     0.968548     0.960414     0.952280     0.944147     0.936013
      0.927879     0.919746     0.911612     0.903478     0.895345     0.887211     0.879077     0.870944     0.862810     0.854676
      0.846543     0.838409     0.830276     0.822142     0.814008     0.805875     0.797741     0.789607     0.781474     0.773340
      0.765206     0.757073     0.748939     0.740805     0.732672     0.724538     0.716404     0.708271     0.700137     0.692003
      0.683870     0.675736     0.667603     0.659469     0.651335     0.643202     0.635068     0.626934     0.618801     0.610667
      0.602533     0.594400     0.586266     0.578132     0.569999     0.561865     0.553731     0.545598     0.537464     0.529330
      0.521197     0.513063     0.504930     0.496796     0.488662     0.480529     0.472395     0.464261     0.456128     0.447994
      0.439861     0.431727     0.423593     0.415460     0.407326     0.399192     0.391059     0.382925     0.374792     0.366658
      0.358524     0.350391     0.342257     0.334124     0.325990     0.317856     0.309723     0.301589     0.293455     0.285322
      0.277188     0.269055     0.260921     0.252787     0.244654     0.236520     0.228386     0.220253     0.212119     0.203986
 NY phased data points follow
  -7.58263E+01 -7.50929E+01 -8.00145E+01 -7.86372E+01 -5.34230E+01 -7.45015E+01 -8.75125E+01 -6.70310E+01 -5.29739E+01 -7.08709E+01
  -8.51334E+01 -8.14641E+01 -8.70549E+01 -9.22222E+01 -1.02551E+02 -9.97959E+01 -1.03352E+02 -1.07722E+02 -1.16221E+02 -1.26702E+02
  -1.12089E+02 -9.60161E+01 -8.35506E+01 -7.14974E+01 -5.31575E+01 -4.69658E+01 -4.38007E+01 -2.86663E+01 -3.03242E+01 -4.59307E+01
  -4.31326E+01 -4.78735E+01 -5.18832E+01 -4.00231E+01 -5.97105E+01 -5.59183E+01 -4.83517E+01 -6.42612E+01 -7.85297E+01 -1.01661E+02
  -9.61653E+01 -8.77478E+01 -8.73379E+01 -8.63754E+01 -7.66461E+01 -5.70552E+01 -5.09529E+01 -4.40549E+01 -3.01318E+01 -2.10979E+01
  -2.37057E+01 -2.30807E+01 -2.51644E+01 -2.86047E+01 -4.37579E+01 -5.43608E+01 -5.35546E+01 -6.83409E+01 -6.27922E+01 -6.17225E+01
  -6.71453E+01 -5.47520E+01 -3.28065E+01 -2.27392E+01 -3.41384E+01 -1.33888E+01 -1.86605E+01 -5.36171E+01 -5.48481E+01 -6.72962E+01
  -6.55015E+01 -5.37269E+01 -6.49077E+01 -4.33460E+01 -1.88971E+01 -1.97590E+01 -2.09953E-01  2.54990E+00 -9.48090E+00 -5.82617E+00
  -1.70698E+01 -1.55640E+01 -3.10333E+01 -4.46131E+01 -2.33152E+01 -4.39186E+01 -3.69750E+01 -2.34408E+01 -3.21644E+01 -1.01416E+01
  -4.14074E+00  4.74997E+00 -9.57304E-01  1.55512E+01  3.69425E+01  1.85062E+01  2.11330E+01  1.67773E+01  1.49360E+01  1.08231E+01
   3.85089E+00  1.37594E+00 -2.93847E+00 -1.61943E+01 -4.59411E+01 -4.67371E+01 -4.84840E+01 -6.92240E+01 -1.06692E+02 -1.61901E+02
  -1.92358E+02 -1.70738E+02 -1.38679E+02 -1.24309E+02 -1.06438E+02 -9.69332E+01 -7.67631E+01 -5.57045E+01 -6.08118E+01 -5.90637E+01
  -4.54221E+01 -4.58234E+01 -4.17037E+01 -2.96027E+01 -1.36366E+01 -4.46061E+00 -2.05788E+00  2.23137E+01  3.22146E+01  4.61405E+01
   4.15933E+01 -3.87974E+00 -5.73222E+01 -9.86913E+01 -9.64434E+01 -1.00623E+02 -1.12365E+02 -1.06189E+02 -9.40539E+01 -1.09445E+02
  -1.04103E+02 -9.46475E+01 -1.20835E+02 -1.01711E+02 -1.01947E+02 -1.04904E+02 -9.51926E+01 -9.74709E+01 -9.05971E+01 -9.31942E+01
  -8.76792E+01 -8.91534E+01 -7.36145E+01 -7.95386E+01 -8.80787E+01 -6.58676E+01 -7.13882E+01 -6.39176E+01 -5.69060E+01 -7.10742E+01
  -7.05993E+01 -6.71122E+01 -6.88066E+01 -5.77510E+01 -6.22911E+01 -6.97998E+01 -5.42500E+01 -5.49933E+01 -6.35355E+01 -6.46710E+01
  -4.49732E+01 -2.56140E+01 -4.14695E+01 -5.53017E+01 -3.97147E+01 -3.26716E+01 -4.06115E+01 -3.33074E+01 -5.09558E+01 -5.84031E+01
  -5.41039E+01 -7.39195E+01 -6.60479E+01 -7.27297E+01 -7.74233E+01 -7.78762E+01 -8.26660E+01 -6.79596E+01 -7.61763E+01 -7.45874E+01
  -7.82922E+01 -6.86118E+01 -4.54523E+01 -4.52178E+01 -4.92732E+01 -5.74450E+01 -5.29170E+01 -5.32357E+01 -4.47823E+01 -4.99385E+01
  -5.28251E+01 -3.48394E+01 -3.58756E+01 -3.80956E+01 -2.76872E+01 -3.31619E+01 -6.38577E+01 -6.11289E+01 -7.14107E+01 -7.86501E+01
  -7.19500E+01 -6.54349E+01 -4.15252E+01 -4.28565E+01 -2.09900E+01 -8.39978E+00  6.37713E+00  5.62458E+00 -1.01216E+01 -1.06306E+01
  -3.66990E+01 -3.31646E+01 -4.89737E+01 -4.50867E+01 -4.07190E+01 -5.98431E+01 -3.30920E+01 -4.83106E+01 -5.53150E+01 -4.06773E+01
  -5.00756E+01 -4.69291E+01 -4.79284E+01 -5.08576E+01 -7.07595E+01 -8.98267E+01 -8.20075E+01 -7.24602E+01 -7.15410E+01 -8.20429E+01
  -6.70558E+01 -6.11151E+01 -6.07249E+01 -3.54816E+01 -3.57792E+01 -3.19145E+01 -3.65144E+01 -4.71832E+01 -4.18291E+01 -4.13024E+01
  -4.86748E+01 -6.25040E+01 -6.93624E+01 -5.44336E+01 -6.38991E+01 -1.00421E+02 -3.97963E+01  1.54124E+01  2.83740E+01  6.27405E+01
   6.32839E+01  7.96674E+01  7.72602E+01  5.56075E+01  5.64616E+01  5.88044E+01  4.48787E+01  2.73782E+01  3.10072E+01  4.44919E+01
   4.54229E+01  2.78388E+01  3.17036E+01  3.03701E+01  2.99446E+01  3.18354E+01  2.29160E+01  2.96950E+01  3.66852E+01  3.46888E+01
   3.27448E+01  4.08679E+01  3.27714E+01  2.12416E+01  2.11306E+01  1.43502E+01  2.79594E+00  7.99764E+00  8.57798E+00  1.42692E+01
   8.54332E+00 -1.05547E+01  1.79070E+01 -3.35712E+00 -1.16408E+01  1.05005E+01 -1.11990E+01 -1.08942E+01 -2.34352E-01  1.20266E+01
   5.53611E+00  4.04735E-01 -7.89017E+00 -7.65930E+00 -7.33543E+00 -1.02267E+01  5.39604E+00  7.56188E-01  1.05442E+01  7.68511E+00
   1.62968E+01  1.40588E+01  7.09762E+00  2.70804E+01 -6.70431E-01  1.43678E+01  3.25399E+01  2.19833E+00  1.12833E+01  2.02272E+01
   1.22893E+01  2.32548E+01  2.64888E+01  6.80687E+00 -5.95157E+00 -2.29322E+00 -1.54147E+01 -3.54258E+01 -3.59613E+01 -5.87951E+01
  -8.77872E+01 -9.86210E+01 -8.86124E+01 -8.39983E+01 -1.00052E+02 -7.47066E+01 -5.02484E+01 -3.49333E+01 -3.78626E+00  6.76900E+00
   1.73263E+01  3.00410E+01  3.89603E+01  3.37880E+01  3.12642E+01  5.58504E+01  3.26506E+01 -3.23181E+00 -8.90253E+00 -2.87480E+01
  -1.24972E+01 -2.27070E+01 -5.66421E+01 -3.83590E+01 -4.25354E+01 -4.20945E+01 -3.67498E+01 -4.45268E+01 -3.64267E+01 -4.04575E+01
  -4.33707E+01 -4.08725E+01 -3.01728E+01 -3.48810E+01 -3.67510E+01 -3.90811E+00 -9.18069E+00 -2.00869E+01 -5.15330E+00 -9.08797E-02
   2.04538E+00 -4.35645E+00  7.14704E+00  1.66627E+01  1.06069E+01  1.79127E+01  1.40881E+01  1.57207E+01  2.66446E+01  3.00264E+01
   4.13562E+01  5.20767E+01  5.94418E+01  6.90187E+01  7.61924E+01  7.88585E+01  8.73481E+01  9.59244E+01  8.70644E+01  8.26442E+01
   7.78824E+01  6.15714E+01  5.74382E+01  3.89822E+01  1.98679E+01  1.77423E+01  9.08825E+00  1.75884E+01  8.38564E+00 -1.32572E+01
  -2.20820E+01 -3.00603E+01 -2.69784E+01 -3.45527E+01 -2.41320E+01 -2.71328E+01 -3.59369E+01 -3.09965E+01 -5.20694E+01 -3.58337E+01
  -4.02218E+01 -5.94681E+01 -3.44206E+01 -3.30829E+01 -2.86688E+01 -2.11642E+01 -3.67318E+01 -3.62044E+01 -3.07660E+01 -4.38156E+01
  -4.10015E+01 -2.97503E+01 -3.44809E+01 -3.06693E+01 -2.71556E+01 -2.81520E+01 -2.13224E+01 -2.52809E+01 -3.58798E+01 -4.25494E+01
  -4.16838E+01 -4.45306E+01 -4.43262E+01 -3.21863E+01 -3.58486E+01 -2.03283E+01 -3.01150E+01 -4.82911E+01 -3.43459E+01 -3.56889E+01
  -2.46978E+01 -4.31536E+01 -3.51021E+01 -2.81892E+01 -5.08134E+01 -3.36678E+01 -3.01295E+01 -2.98125E+01 -3.43374E+01 -2.31510E+01
  -2.94625E+01 -3.58875E+01 -2.86844E+01 -3.85127E+01 -2.98121E+01 -2.24552E+01 -1.49716E+01 -2.96878E+01 -2.49455E+01 -2.18700E+01
  -2.54700E+01 -1.59010E+01 -1.79614E+01 -2.06875E+01 -3.63769E+01 -3.15949E+01 -3.51617E+01 -3.08348E+01 -3.00494E+01 -2.54246E+01
  -1.14407E+01 -2.43812E+01 -2.65997E+01 -3.73613E+01 -2.92180E+01 -7.19484E+00 -2.41494E+01 -3.51727E+01 -6.85226E+00 -2.24951E+01
 NY points of the fit to the data follow
  -8.20077E+01 -8.92373E+01 -9.57838E+01 -9.59482E+01 -8.66742E+01 -7.48885E+01 -6.87953E+01 -6.95753E+01 -7.38224E+01 -7.84781E+01
  -8.32091E+01 -8.49236E+01 -8.38567E+01 -8.29558E+01 -8.27350E+01 -8.37942E+01 -8.89518E+01 -9.86997E+01 -1.13559E+02 -1.20456E+02
  -1.09001E+02 -9.33642E+01 -7.83776E+01 -6.14657E+01 -4.68968E+01 -3.52370E+01 -3.06823E+01 -2.54256E+01 -2.21422E+01 -2.22573E+01
  -2.23324E+01 -2.30931E+01 -2.55326E+01 -2.87714E+01 -3.22402E+01 -3.54580E+01 -4.28106E+01 -5.54946E+01 -7.50783E+01 -9.28063E+01
  -9.72197E+01 -9.25984E+01 -8.50537E+01 -7.80506E+01 -6.86137E+01 -5.54818E+01 -4.57153E+01 -3.58193E+01 -2.87313E+01 -2.37446E+01
  -2.42023E+01 -3.00914E+01 -3.94973E+01 -4.79009E+01 -5.25332E+01 -5.31107E+01 -5.42839E+01 -6.19443E+01 -6.61794E+01 -6.20719E+01
  -5.82371E+01 -5.30077E+01 -4.26236E+01 -2.84406E+01 -1.74827E+01 -1.50895E+01 -1.95962E+01 -3.50953E+01 -5.37645E+01 -6.06731E+01
  -6.09544E+01 -5.95527E+01 -5.25573E+01 -3.93916E+01 -2.57295E+01 -1.77870E+01 -1.20532E+01 -6.73668E+00 -4.10577E+00 -6.08978E+00
  -1.20099E+01 -2.15995E+01 -3.47015E+01 -4.53331E+01 -5.08723E+01 -4.97310E+01 -4.20905E+01 -3.32141E+01 -2.33430E+01 -1.57757E+01
  -9.46867E+00 -4.30135E+00 -5.66703E-01  2.93824E+00  6.39897E+00  9.28852E+00  1.15789E+01  1.20647E+01  1.15993E+01  1.26195E+01
   1.18176E+01  4.39690E+00 -5.47337E+00 -1.83219E+01 -2.82704E+01 -3.37297E+01 -3.56493E+01 -5.61846E+01 -1.07912E+02 -1.49859E+02
  -1.59244E+02 -1.51992E+02 -1.37919E+02 -1.23950E+02 -1.01555E+02 -8.77692E+01 -7.93802E+01 -7.20701E+01 -6.53003E+01 -5.88000E+01
  -5.22079E+01 -4.53370E+01 -3.75296E+01 -2.85333E+01 -1.88432E+01 -9.93178E+00 -2.66879E+00  9.24056E+00  2.54654E+01  4.42482E+01
   3.94007E+01 -7.27205E+00 -5.94426E+01 -9.19333E+01 -1.07250E+02 -1.14026E+02 -1.15864E+02 -1.05533E+02 -9.98123E+01 -9.78601E+01
  -9.75908E+01 -9.83715E+01 -9.90079E+01 -9.96034E+01 -9.92327E+01 -9.78772E+01 -9.53876E+01 -9.24623E+01 -9.00995E+01 -8.76603E+01
  -8.57279E+01 -8.38261E+01 -8.18137E+01 -7.93867E+01 -7.66805E+01 -7.44015E+01 -7.30593E+01 -7.25609E+01 -7.17618E+01 -7.00032E+01
  -6.78715E+01 -6.68920E+01 -6.73404E+01 -6.77301E+01 -6.75471E+01 -6.73481E+01 -6.81214E+01 -6.90021E+01 -6.79158E+01 -6.36626E+01
  -5.62261E+01 -4.91678E+01 -4.72612E+01 -4.91551E+01 -4.93989E+01 -4.64752E+01 -4.28217E+01 -4.36443E+01 -4.88139E+01 -5.46815E+01
  -6.06994E+01 -6.58827E+01 -6.97360E+01 -7.15342E+01 -7.11553E+01 -7.07656E+01 -6.97795E+01 -6.82065E+01 -6.67528E+01 -6.49178E+01
  -6.31941E+01 -6.22289E+01 -5.89544E+01 -5.38855E+01 -5.12785E+01 -5.07062E+01 -4.88399E+01 -4.55636E+01 -4.35257E+01 -4.40463E+01
  -4.33581E+01 -4.05408E+01 -3.85929E+01 -3.88459E+01 -4.11069E+01 -4.42436E+01 -4.88868E+01 -5.48670E+01 -6.00025E+01 -6.40121E+01
  -6.74631E+01 -6.62132E+01 -6.06961E+01 -5.03589E+01 -3.49029E+01 -2.29004E+01 -1.40992E+01 -1.01385E+01 -1.22881E+01 -1.56749E+01
  -2.05986E+01 -2.15102E+01 -2.18068E+01 -2.22063E+01 -2.26125E+01 -2.51192E+01 -2.98715E+01 -3.62957E+01 -4.42862E+01 -5.28883E+01
  -6.18991E+01 -7.10729E+01 -7.94638E+01 -8.75953E+01 -9.41407E+01 -9.77710E+01 -9.96754E+01 -9.76158E+01 -9.31100E+01 -8.80213E+01
  -8.01546E+01 -7.25026E+01 -6.41667E+01 -5.62413E+01 -5.18207E+01 -4.83451E+01 -4.86734E+01 -4.96373E+01 -4.99175E+01 -5.24243E+01
  -5.34717E+01 -5.25434E+01 -5.21731E+01 -5.54879E+01 -7.29380E+01 -8.42707E+01 -5.54542E+01 -3.67675E+00  3.53553E+01  5.33668E+01
   6.12499E+01  6.52592E+01  5.76282E+01  4.81303E+01  4.38458E+01  4.05524E+01  3.77195E+01  3.51596E+01  3.31484E+01  3.18578E+01
   3.08488E+01  3.03425E+01  2.99179E+01  2.93884E+01  2.87659E+01  2.80484E+01  2.74966E+01  2.66494E+01  2.55020E+01  2.41779E+01
   2.26710E+01  2.12336E+01  1.95680E+01  1.77653E+01  1.60110E+01  1.41305E+01  1.20895E+01  9.64137E+00  6.74791E+00  3.67353E+00
   2.72989E-01 -3.25823E+00 -6.42269E+00 -8.55214E+00 -9.26107E+00 -8.75066E+00 -7.30009E+00 -5.28149E+00 -2.93979E+00 -3.08136E-01
   2.41280E+00  5.05906E+00  7.55713E+00  9.86082E+00  1.20278E+01  1.41780E+01  1.66415E+01  1.91210E+01  2.14004E+01  2.34538E+01
   2.53062E+01  2.70776E+01  2.86924E+01  2.99109E+01  3.07656E+01  3.11593E+01  3.09092E+01  3.01143E+01  2.96092E+01  2.84568E+01
   2.61501E+01  2.05673E+01  1.12575E+01  1.29918E+00 -9.56696E+00 -1.99021E+01 -2.75629E+01 -3.36070E+01 -3.81499E+01 -4.31394E+01
  -4.67862E+01 -4.86917E+01 -4.90924E+01 -4.71770E+01 -4.36244E+01 -3.95981E+01 -3.58519E+01 -3.28468E+01 -3.04741E+01 -2.80086E+01
  -2.51004E+01 -2.16108E+01 -1.78255E+01 -1.42629E+01 -1.14755E+01 -9.70023E+00 -8.64108E+00 -8.13398E+00 -8.58088E+00 -9.93156E+00
  -1.22777E+01 -1.56235E+01 -1.96492E+01 -2.35788E+01 -2.65181E+01 -2.83503E+01 -2.88815E+01 -2.81235E+01 -2.63395E+01 -2.36926E+01
  -2.05835E+01 -1.71678E+01 -1.37550E+01 -1.04723E+01 -7.31844E+00 -4.37840E+00 -1.52089E+00  1.33255E+00  4.18333E+00  6.96917E+00
   9.87734E+00  1.28940E+01  1.60977E+01  1.97589E+01  2.38791E+01  2.83725E+01  3.34657E+01  3.91676E+01  4.51653E+01  5.14747E+01
   5.84778E+01  6.59346E+01  7.31603E+01  7.94729E+01  8.40014E+01  8.53410E+01  8.25652E+01  7.59641E+01  6.69212E+01  5.71715E+01
   4.79355E+01  3.97911E+01  3.30397E+01  2.70490E+01  2.08059E+01  1.35927E+01  5.76014E+00 -2.44327E+00 -1.06083E+01 -1.76850E+01
  -2.34734E+01 -2.79496E+01 -3.14010E+01 -3.36911E+01 -3.50531E+01 -3.61166E+01 -3.69657E+01 -3.77293E+01 -3.83699E+01 -3.88056E+01
  -3.90303E+01 -3.90748E+01 -3.90673E+01 -3.88453E+01 -3.85393E+01 -3.83768E+01 -3.84554E+01 -3.83404E+01 -3.78359E+01 -3.75127E+01
  -3.73356E+01 -3.71431E+01 -3.67727E+01 -3.64990E+01 -3.64250E+01 -3.62580E+01 -3.58694E+01 -3.53054E+01 -3.48986E+01 -3.46415E+01
  -3.44968E+01 -3.43976E+01 -3.43035E+01 -3.40720E+01 -3.37073E+01 -3.33342E+01 -3.28727E+01 -3.24417E+01 -3.20250E+01 -3.16435E+01
  -3.12819E+01 -3.10505E+01 -3.10600E+01 -3.10551E+01 -3.08822E+01 -3.05194E+01 -3.02039E+01 -2.98322E+01 -2.95069E+01 -2.93506E+01
  -2.92022E+01 -2.88519E+01 -2.84360E+01 -2.80370E+01 -2.76635E+01 -2.72707E+01 -2.69148E+01 -2.65688E+01 -2.62366E+01 -2.60025E+01
  -2.58772E+01 -2.57854E+01 -2.56788E+01 -2.54615E+01 -2.51120E+01 -2.44553E+01 -2.37597E+01 -2.31922E+01 -2.29663E+01 -2.29175E+01
  -2.28775E+01 -2.27461E+01 -2.24518E+01 -2.22043E+01 -2.18905E+01 -2.15112E+01 -2.12684E+01 -2.11450E+01 -2.08475E+01 -2.03687E+01
 NY background values follow
    -4.665E+01   -4.659E+01   -4.653E+01   -4.647E+01   -4.641E+01   -4.635E+01   -4.629E+01   -4.623E+01   -4.617E+01   -4.611E+01
    -4.605E+01   -4.599E+01   -4.593E+01   -4.587E+01   -4.581E+01   -4.575E+01   -4.569E+01   -4.563E+01   -4.557E+01   -4.551E+01
    -4.546E+01   -4.540E+01   -4.534E+01   -4.528E+01   -4.522E+01   -4.516E+01   -4.510E+01   -4.504E+01   -4.498E+01   -4.492E+01
    -4.486E+01   -4.480E+01   -4.474E+01   -4.468E+01   -4.462E+01   -4.456E+01   -4.450E+01   -4.444E+01   -4.438E+01   -4.432E+01
    -4.426E+01   -4.420E+01   -4.414E+01   -4.408E+01   -4.402E+01   -4.396E+01   -4.390E+01   -4.384E+01   -4.378E+01   -4.372E+01
    -4.366E+01   -4.360E+01   -4.354E+01   -4.348E+01   -4.342E+01   -4.336E+01   -4.330E+01   -4.324E+01   -4.318E+01   -4.312E+01
    -4.306E+01   -4.300E+01   -4.294E+01   -4.288E+01   -4.282E+01   -4.276E+01   -4.270E+01   -4.264E+01   -4.258E+01   -4.252E+01
    -4.246E+01   -4.240E+01   -4.234E+01   -4.228E+01   -4.222E+01   -4.216E+01   -4.210E+01   -4.204E+01   -4.199E+01   -4.193E+01
    -4.187E+01   -4.181E+01   -4.175E+01   -4.169E+01   -4.163E+01   -4.157E+01   -4.151E+01   -4.145E+01   -4.139E+01   -4.133E+01
    -4.127E+01   -4.121E+01   -4.115E+01   -4.109E+01   -4.103E+01   -4.097E+01   -4.091E+01   -4.085E+01   -4.079E+01   -4.073E+01
    -4.067E+01   -4.061E+01   -4.055E+01   -4.049E+01   -4.043E+01   -4.037E+01   -4.031E+01   -4.025E+01   -4.019E+01   -4.013E+01
    -4.007E+01   -4.001E+01   -3.995E+01   -3.989E+01   -3.983E+01   -3.977E+01   -3.971E+01   -3.965E+01   -3.959E+01   -3.953E+01
    -3.947E+01   -3.941E+01   -3.935E+01   -3.929E+01   -3.923E+01   -3.917E+01   -3.911E+01   -3.905E+01   -3.899E+01   -3.893E+01
    -3.887E+01   -3.881E+01   -3.876E+01   -3.870E+01   -3.864E+01   -3.858E+01   -3.852E+01   -3.846E+01   -3.840E+01   -3.834E+01
    -3.828E+01   -3.822E+01   -3.816E+01   -3.810E+01   -3.804E+01   -3.798E+01   -3.792E+01   -3.786E+01   -3.780E+01   -3.774E+01
    -3.768E+01   -3.762E+01   -3.756E+01   -3.750E+01   -3.744E+01   -3.738E+01   -3.732E+01   -3.726E+01   -3.720E+01   -3.714E+01
    -3.708E+01   -3.702E+01   -3.696E+01   -3.690E+01   -3.684E+01   -3.678E+01   -3.672E+01   -3.666E+01   -3.660E+01   -3.654E+01
    -3.648E+01   -3.642E+01   -3.636E+01   -3.630E+01   -3.624E+01   -3.618E+01   -3.612E+01   -3.606E+01   -3.600E+01   -3.595E+01
    -3.589E+01   -3.583E+01   -3.577E+01   -3.571E+01   -3.565E+01   -3.559E+01   -3.553E+01   -3.547E+01   -3.541E+01   -3.535E+01
    -3.529E+01   -3.523E+01   -3.517E+01   -3.511E+01   -3.505E+01   -3.499E+01   -3.493E+01   -3.487E+01   -3.481E+01   -3.475E+01
    -3.469E+01   -3.463E+01   -3.457E+01   -3.451E+01   -3.445E+01   -3.439E+01   -3.433E+01   -3.427E+01   -3.421E+01   -3.415E+01
    -3.409E+01   -3.403E+01   -3.397E+01   -3.391E+01   -3.385E+01   -3.379E+01   -3.373E+01   -3.367E+01   -3.361E+01   -3.356E+01
    -3.350E+01   -3.344E+01   -3.338E+01   -3.332E+01   -3.326E+01   -3.320E+01   -3.314E+01   -3.308E+01   -3.302E+01   -3.296E+01
    -3.290E+01   -3.284E+01   -3.278E+01   -3.272E+01   -3.266E+01   -3.260E+01   -3.254E+01   -3.248E+01   -3.242E+01   -3.236E+01
    -3.230E+01   -3.224E+01   -3.218E+01   -3.212E+01   -3.206E+01   -3.200E+01   -3.194E+01   -3.188E+01   -3.182E+01   -3.176E+01
    -3.170E+01   -3.164E+01   -3.158E+01   -3.152E+01   -3.147E+01   -3.141E+01   -3.135E+01   -3.129E+01   -3.123E+01   -3.117E+01
    -3.111E+01   -3.105E+01   -3.099E+01   -3.093E+01   -3.087E+01   -3.081E+01   -3.075E+01   -3.069E+01   -3.063E+01   -3.057E+01
    -3.051E+01   -3.045E+01   -3.039E+01   -3.033E+01   -3.027E+01   -3.021E+01   -3.015E+01   -3.009E+01   -3.003E+01   -2.997E+01
    -2.991E+01   -2.985E+01   -2.979E+01   -2.973E+01   -2.967E+01   -2.962E+01   -2.956E+01   -2.950E+01   -2.944E+01   -2.938E+01
    -2.932E+01   -2.926E+01   -2.920E+01   -2.914E+01   -2.908E+01   -2.902E+01   -2.896E+01   -2.890E+01   -2.884E+01   -2.878E+01
    -2.872E+01   -2.866E+01   -2.860E+01   -2.854E+01   -2.848E+01   -2.842E+01   -2.836E+01   -2.830E+01   -2.824E+01   -2.818E+01
    -2.812E+01   -2.806E+01   -2.800E+01   -2.794E+01   -2.788E+01   -2.783E+01   -2.777E+01   -2.771E+01   -2.765E+01   -2.759E+01
    -2.753E+01   -2.747E+01   -2.741E+01   -2.735E+01   -2.729E+01   -2.723E+01   -2.717E+01   -2.711E+01   -2.705E+01   -2.699E+01
    -2.693E+01   -2.687E+01   -2.681E+01   -2.675E+01   -2.669E+01   -2.663E+01   -2.657E+01   -2.651E+01   -2.645E+01   -2.639E+01
    -2.633E+01   -2.627E+01   -2.621E+01   -2.615E+01   -2.609E+01   -2.604E+01   -2.598E+01   -2.592E+01   -2.586E+01   -2.580E+01
    -2.574E+01   -2.568E+01   -2.562E+01   -2.556E+01   -2.550E+01   -2.544E+01   -2.538E+01   -2.532E+01   -2.526E+01   -2.520E+01
    -2.514E+01   -2.508E+01   -2.502E+01   -2.496E+01   -2.490E+01   -2.484E+01   -2.478E+01   -2.472E+01   -2.466E+01   -2.460E+01
    -2.454E+01   -2.448E+01   -2.442E+01   -2.437E+01   -2.431E+01   -2.425E+01   -2.419E+01   -2.413E+01   -2.407E+01   -2.401E+01
    -2.395E+01   -2.389E+01   -2.383E+01   -2.377E+01   -2.371E+01   -2.365E+01   -2.359E+01   -2.353E+01   -2.347E+01   -2.341E+01
    -2.335E+01   -2.329E+01   -2.323E+01   -2.317E+01   -2.311E+01   -2.305E+01   -2.299E+01   -2.293E+01   -2.287E+01   -2.281E+01
    -2.275E+01   -2.269E+01   -2.264E+01   -2.258E+01   -2.252E+01   -2.246E+01   -2.240E+01   -2.234E+01   -2.228E+01   -2.222E+01
    -2.216E+01   -2.210E+01   -2.204E+01   -2.198E+01   -2.192E+01   -2.186E+01   -2.180E+01   -2.174E+01   -2.168E+01   -2.162E+01
    -2.156E+01   -2.150E+01   -2.144E+01   -2.138E+01   -2.132E+01   -2.126E+01   -2.120E+01   -2.114E+01   -2.108E+01   -2.102E+01
    -2.097E+01   -2.091E+01   -2.085E+01   -2.079E+01   -2.073E+01   -2.067E+01   -2.061E+01   -2.055E+01   -2.049E+01   -2.043E+01
    -2.037E+01   -2.031E+01   -2.025E+01   -2.019E+01   -2.013E+01   -2.007E+01   -2.001E+01   -1.995E+01   -1.989E+01   -1.983E+01
    -1.977E+01   -1.971E+01   -1.965E+01   -1.959E+01   -1.953E+01   -1.947E+01   -1.941E+01   -1.935E+01   -1.930E+01   -1.924E+01
    -1.918E+01   -1.912E+01   -1.906E+01   -1.900E+01   -1.894E+01   -1.888E+01   -1.882E+01   -1.876E+01   -1.870E+01   -1.864E+01
    -1.858E+01   -1.852E+01   -1.846E+01   -1.840E+01   -1.834E+01   -1.828E+01   -1.822E+01   -1.816E+01   -1.810E+01   -1.804E+01
 Mac      Conc. = 2.61E-04
  -6.58626E+01 -6.60220E+01 -6.62290E+01 -6.67674E+01 -6.77571E+01 -6.91677E+01 -7.06844E+01 -7.20945E+01 -7.30890E+01 -7.35609E+01
  -7.36952E+01 -7.37244E+01 -7.43707E+01 -7.57653E+01 -7.72377E+01 -7.73859E+01 -7.51394E+01 -7.18632E+01 -6.83047E+01 -6.44152E+01
  -6.07824E+01 -5.81512E+01 -5.67568E+01 -5.55851E+01 -5.42283E+01 -5.28274E+01 -5.11530E+01 -4.93299E+01 -4.76545E+01 -4.62035E+01
  -4.50703E+01 -4.43576E+01 -4.43685E+01 -4.46935E+01 -4.46106E+01 -4.35485E+01 -4.16367E+01 -3.97784E+01 -3.87100E+01 -3.83440E+01
  -3.80235E+01 -3.74219E+01 -3.64330E+01 -3.53796E+01 -3.45900E+01 -3.42945E+01 -3.46079E+01 -3.53793E+01 -3.66125E+01 -3.78411E+01
  -3.87896E+01 -3.95651E+01 -4.01550E+01 -4.05833E+01 -4.05686E+01 -3.99373E+01 -3.88492E+01 -3.77102E+01 -3.63962E+01 -3.48689E+01
  -3.38369E+01 -3.35096E+01 -3.38447E+01 -3.44368E+01 -3.51012E+01 -3.58119E+01 -3.64322E+01 -3.68761E+01 -3.64690E+01 -3.48036E+01
  -3.27089E+01 -3.07491E+01 -2.92552E+01 -2.81990E+01 -2.78486E+01 -2.81616E+01 -2.87627E+01 -2.93570E+01 -2.99313E+01 -3.04487E+01
  -3.08619E+01 -3.07900E+01 -3.03508E+01 -2.97261E+01 -2.89314E+01 -2.81000E+01 -2.73011E+01 -2.66948E+01 -2.62212E+01 -2.56774E+01
  -2.53758E+01 -2.51713E+01 -2.53559E+01 -2.61723E+01 -2.76792E+01 -2.96427E+01 -3.19023E+01 -3.40117E+01 -3.58091E+01 -3.74396E+01
  -3.93903E+01 -4.16733E+01 -4.46740E+01 -4.89402E+01 -5.45611E+01 -6.06360E+01 -6.55546E+01 -6.85836E+01 -6.96175E+01 -6.88118E+01
