 
 $NMID
 ID=''
 FMTDAT='(2E13.5)'
 TRAMP=   1.00000E+0
 VOLUME=   1.00000E+0
 $END
  -4.57512E+5  -5.79254E+4
  -1.10649E+6  -5.23013E+5
  -1.11917E+6  -3.35771E+5
  -9.55483E+5  -3.67511E+5
  -9.25966E+5  -4.84083E+5
  -9.12088E+5  -5.23750E+5
  -8.94447E+5  -5.73230E+5
  -9.30875E+5  -5.90494E+5
  -9.04363E+5  -5.45786E+5
  -8.28754E+5  -5.63128E+5
  -7.96657E+5  -6.09959E+5
  -7.71822E+5  -6.33286E+5
  -7.54901E+5  -6.65329E+5
  -7.60482E+5  -6.71478E+5
  -7.29278E+5  -6.51983E+5
  -6.82523E+5  -6.64344E+5
  -6.61859E+5  -6.91721E+5
  -6.33807E+5  -7.08452E+5
  -6.05747E+5  -7.29626E+5
  -5.90721E+5  -7.38026E+5
  -5.56539E+5  -7.38954E+5
  -5.20785E+5  -7.54909E+5
  -5.00510E+5  -7.67827E+5
  -4.72929E+5  -7.73767E+5
  -4.43258E+5  -7.82672E+5
  -4.26506E+5  -7.82267E+5
  -4.00933E+5  -7.83975E+5
  -3.75076E+5  -7.91508E+5
  -3.54994E+5  -7.91517E+5
  -3.33790E+5  -7.88954E+5
  -3.09015E+5  -7.95826E+5
  -2.85020E+5  -7.96343E+5
  -2.57652E+5  -7.95387E+5
  -2.35483E+5  -7.98330E+5
  -2.14828E+5  -7.97146E+5
  -1.89717E+5  -7.95072E+5
  -1.65597E+5  -7.96636E+5
  -1.43161E+5  -7.94428E+5
  -1.20240E+5  -7.89668E+5
  -1.00994E+5  -7.86783E+5
  -8.29908E+4  -7.80514E+5
  -6.33005E+4  -7.73820E+5
  -4.56108E+4  -7.67503E+5
  -2.83305E+4  -7.60584E+5
  -1.09692E+4  -7.53373E+5
   5.22964E+3  -7.48099E+5
   2.38662E+4  -7.39765E+5
   4.38468E+4  -7.29904E+5
   6.07723E+4  -7.19609E+5
   7.73120E+4  -7.11426E+5
   9.51960E+4  -7.02769E+5
   1.11649E+5  -6.92160E+5
   1.27037E+5  -6.81528E+5
   1.42975E+5  -6.71372E+5
   1.58506E+5  -6.60144E+5
   1.73142E+5  -6.47666E+5
   1.86431E+5  -6.36085E+5
   1.98834E+5  -6.23834E+5
   2.10501E+5  -6.10483E+5
   2.22085E+5  -5.98034E+5
   2.34300E+5  -5.85040E+5
   2.46382E+5  -5.72424E+5
   2.58276E+5  -5.58865E+5
   2.68776E+5  -5.44552E+5
   2.78317E+5  -5.29982E+5
   2.87549E+5  -5.15362E+5
   2.97198E+5  -4.99741E+5
   3.05525E+5  -4.84654E+5
   3.14385E+5  -4.71641E+5
   3.23693E+5  -4.57250E+5
   3.30944E+5  -4.40881E+5
   3.35841E+5  -4.25469E+5
   3.42026E+5  -4.11900E+5
   3.49705E+5  -3.97209E+5
   3.55490E+5  -3.80898E+5
   3.59699E+5  -3.65621E+5
   3.64540E+5  -3.51253E+5
   3.69520E+5  -3.35521E+5
   3.73652E+5  -3.19123E+5
   3.76320E+5  -3.03160E+5
   3.79781E+5  -2.87814E+5
   3.82670E+5  -2.72003E+5
   3.84999E+5  -2.56166E+5
   3.86859E+5  -2.40916E+5
   3.87668E+5  -2.25957E+5
   3.88509E+5  -2.10716E+5
   3.88798E+5  -1.95657E+5
   3.88465E+5  -1.81243E+5
   3.88085E+5  -1.67332E+5
   3.86694E+5  -1.53193E+5
   3.85296E+5  -1.39954E+5
   3.83533E+5  -1.26302E+5
   3.81848E+5  -1.12306E+5
   3.79239E+5  -9.77867E+4
   3.75495E+5  -8.45915E+4
   3.72365E+5  -7.20020E+4
   3.70139E+5  -5.93453E+4
   3.66809E+5  -4.61565E+4
   3.62343E+5  -3.34509E+4
   3.57630E+5  -2.19314E+4
   3.53811E+5  -1.01471E+4
   3.49332E+5   2.34298E+3
   3.43390E+5   1.38238E+4
   3.37675E+5   2.42445E+4
   3.32720E+5   3.38058E+4
   3.27490E+5   4.39724E+4
   3.21655E+5   5.45399E+4
   3.15007E+5   6.47262E+4
   3.08604E+5   7.40287E+4
   3.02343E+5   8.28429E+4
   2.95764E+5   9.14667E+4
   2.89392E+5   1.00666E+5
   2.82188E+5   1.09846E+5
   2.74853E+5   1.18482E+5
   2.67281E+5   1.26744E+5
   2.60162E+5   1.34617E+5
   2.52810E+5   1.42523E+5
   2.44557E+5   1.49796E+5
   2.36413E+5   1.56043E+5
   2.28875E+5   1.62513E+5
   2.21459E+5   1.69384E+5
   2.14051E+5   1.75728E+5
   2.05899E+5   1.81416E+5
   1.98015E+5   1.87262E+5
   1.89894E+5   1.92734E+5
   1.81496E+5   1.97996E+5
   1.73286E+5   2.02897E+5
   1.64864E+5   2.07245E+5
   1.56965E+5   2.11820E+5
   1.48488E+5   2.16712E+5
   1.39639E+5   2.20689E+5
   1.30773E+5   2.24273E+5
   1.22514E+5   2.27223E+5
   1.14369E+5   2.30177E+5
   1.05658E+5   2.33455E+5
   9.69648E+4   2.35887E+5
   8.87169E+4   2.38128E+5
   8.08194E+4   2.40420E+5
   7.23716E+4   2.42425E+5
   6.37242E+4   2.44512E+5
   5.53956E+4   2.45360E+5
   4.77191E+4   2.46067E+5
   4.02387E+4   2.46704E+5
   3.23742E+4   2.48130E+5
   2.41197E+4   2.48828E+5
   1.64627E+4   2.48598E+5
   9.12365E+3   2.48160E+5
   1.86582E+3   2.47634E+5
  -5.70920E+3   2.47401E+5
  -1.28841E+4   2.46488E+5
  -1.92680E+4   2.45176E+5
  -2.57344E+4   2.44197E+5
  -3.23476E+4   2.43452E+5
  -3.93403E+4   2.42209E+5
  -4.57597E+4   2.40441E+5
  -5.14314E+4   2.37991E+5
  -5.72557E+4   2.36517E+5
  -6.33661E+4   2.34590E+5
  -6.89881E+4   2.31969E+5
  -7.46505E+4   2.29427E+5
  -7.97407E+4   2.27191E+5
  -8.51982E+4   2.24206E+5
  -9.03434E+4   2.21207E+5
  -9.46790E+4   2.18127E+5
  -9.90854E+4   2.14988E+5
  -1.03588E+5   2.12201E+5
  -1.07995E+5   2.09049E+5
  -1.12751E+5   2.05910E+5
  -1.16470E+5   2.02274E+5
  -1.20173E+5   1.98418E+5
  -1.23744E+5   1.95038E+5
  -1.27559E+5   1.91511E+5
  -1.30911E+5   1.87466E+5
  -1.34044E+5   1.83650E+5
  -1.36981E+5   1.79792E+5
  -1.40249E+5   1.76081E+5
  -1.43246E+5   1.71981E+5
  -1.46122E+5   1.67510E+5
  -1.48436E+5   1.63170E+5
  -1.50734E+5   1.59071E+5
  -1.53421E+5   1.54974E+5
  -1.55942E+5   1.50766E+5
  -1.57762E+5   1.46094E+5
  -1.59845E+5   1.41771E+5
  -1.61393E+5   1.37244E+5
  -1.63388E+5   1.33062E+5
  -1.64744E+5   1.28275E+5
  -1.65791E+5   1.24229E+5
  -1.66780E+5   1.19897E+5
  -1.68278E+5   1.15861E+5
  -1.69799E+5   1.11379E+5
  -1.70960E+5   1.06642E+5
  -1.71413E+5   1.01696E+5
  -1.71830E+5   9.74011E+4
  -1.72518E+5   9.31196E+4
  -1.73158E+5   8.87968E+4
  -1.73725E+5   8.40208E+4
  -1.73931E+5   7.96488E+4
  -1.74276E+5   7.52501E+4
  -1.74336E+5   7.06702E+4
  -1.74266E+5   6.59951E+4
  -1.73769E+5   6.16075E+4
  -1.73442E+5   5.72140E+4
  -1.72863E+5   5.31616E+4
  -1.72416E+5   4.86261E+4
  -1.71971E+5   4.43502E+4
  -1.71189E+5   4.01985E+4
  -1.70389E+5   3.58525E+4
  -1.69192E+5   3.20153E+4
  -1.68723E+5   2.76577E+4
  -1.67059E+5   2.38231E+4
  -1.65602E+5   1.98317E+4
  -1.64681E+5   1.60852E+4
  -1.63512E+5   1.22056E+4
  -1.61940E+5   8.07649E+3
  -1.59965E+5   4.31202E+3
  -1.57897E+5   9.62669E+2
  -1.56366E+5  -2.39045E+3
  -1.54456E+5  -5.70573E+3
  -1.52659E+5  -9.17937E+3
  -1.50292E+5  -1.23789E+4
  -1.48462E+5  -1.51748E+4
  -1.46580E+5  -1.85699E+4
  -1.44492E+5  -2.17495E+4
  -1.41758E+5  -2.47765E+4
  -1.39220E+5  -2.73104E+4
  -1.37034E+5  -3.00070E+4
  -1.34527E+5  -3.26521E+4
  -1.32372E+5  -3.56233E+4
  -1.29355E+5  -3.81387E+4
  -1.26772E+5  -4.03308E+4
  -1.24566E+5  -4.27281E+4
  -1.21598E+5  -4.46783E+4
  -1.18945E+5  -4.71090E+4
  -1.16382E+5  -4.88762E+4
  -1.13793E+5  -5.07112E+4
  -1.11203E+5  -5.26704E+4
  -1.08211E+5  -5.44582E+4
  -1.05405E+5  -5.64737E+4
  -1.02495E+5  -5.77278E+4
  -9.98725E+4  -5.90639E+4
  -9.75368E+4  -6.07600E+4
  -9.45573E+4  -6.24616E+4
  -9.17052E+4  -6.37807E+4
  -8.86628E+4  -6.48310E+4
  -8.58030E+4  -6.60576E+4
  -8.32561E+4  -6.70634E+4
  -8.02100E+4  -6.83647E+4
  -7.71586E+4  -6.92323E+4
  -7.47492E+4  -6.99093E+4
  -7.20845E+4  -7.10129E+4
  -6.95535E+4  -7.17810E+4
  -6.62848E+4  -7.30261E+4
  -6.34632E+4  -7.32941E+4
  -6.10548E+4  -7.40419E+4
  -5.84663E+4  -7.44873E+4
  -5.57280E+4  -7.54065E+4
  -5.29379E+4  -7.57245E+4
  -5.01692E+4  -7.59808E+4
  -4.79392E+4  -7.66180E+4
  -4.50179E+4  -7.71262E+4
  -4.18495E+4  -7.72577E+4
  -3.92392E+4  -7.73024E+4
  -3.70048E+4  -7.73633E+4
  -3.46647E+4  -7.75016E+4
  -3.19648E+4  -7.77942E+4
  -2.92933E+4  -7.77208E+4
  -2.69238E+4  -7.76123E+4
  -2.45164E+4  -7.74379E+4
  -2.21278E+4  -7.71544E+4
  -1.96732E+4  -7.71606E+4
  -1.73472E+4  -7.68721E+4
  -1.49482E+4  -7.66316E+4
  -1.29758E+4  -7.60505E+4
  -1.06011E+4  -7.57001E+4
  -8.19131E+3  -7.51440E+4
  -5.91450E+3  -7.46942E+4
  -4.01886E+3  -7.38533E+4
  -2.04064E+3  -7.36471E+4
   2.66400E+2  -7.27499E+4
   2.36455E+3  -7.22394E+4
   4.18985E+3  -7.11444E+4
   5.96635E+3  -7.03809E+4
   7.81369E+3  -7.00897E+4
   9.72814E+3  -6.92428E+4
   1.15890E+4  -6.79465E+4
   1.31428E+4  -6.69992E+4
   1.48209E+4  -6.60075E+4
   1.63683E+4  -6.52292E+4
   1.81996E+4  -6.46078E+4
   1.98499E+4  -6.32111E+4
   2.11617E+4  -6.22836E+4
   2.25140E+4  -6.10090E+4
   2.39887E+4  -6.02424E+4
   2.52699E+4  -5.88108E+4
   2.66151E+4  -5.77239E+4
   2.80033E+4  -5.65479E+4
   2.89579E+4  -5.55562E+4
   3.04987E+4  -5.43799E+4
   3.15524E+4  -5.29384E+4
   3.24360E+4  -5.15842E+4
   3.32193E+4  -5.04860E+4
   3.45098E+4  -4.94436E+4
   3.56683E+4  -4.83297E+4
   3.64005E+4  -4.66083E+4
   3.70919E+4  -4.53219E+4
   3.79525E+4  -4.39501E+4
   3.86299E+4  -4.29794E+4
   3.95768E+4  -4.16224E+4
   4.02686E+4  -4.03072E+4
   4.09068E+4  -3.90779E+4
   4.13040E+4  -3.75848E+4
   4.19660E+4  -3.64746E+4
   4.25401E+4  -3.47443E+4
   4.30573E+4  -3.35526E+4
   4.31673E+4  -3.24428E+4
   4.36482E+4  -3.11290E+4
   4.40198E+4  -2.97055E+4
   4.44728E+4  -2.84338E+4
   4.46367E+4  -2.71184E+4
   4.49847E+4  -2.59342E+4
   4.49570E+4  -2.42968E+4
   4.51139E+4  -2.28651E+4
   4.52438E+4  -2.16793E+4
   4.53282E+4  -2.05243E+4
   4.57616E+4  -1.92271E+4
   4.55753E+4  -1.79958E+4
   4.55791E+4  -1.66525E+4
   4.56167E+4  -1.55907E+4
   4.52493E+4  -1.40227E+4
   4.52236E+4  -1.28675E+4
   4.51615E+4  -1.16407E+4
   4.46862E+4  -1.07089E+4
   4.44262E+4  -9.68561E+3
   4.45990E+4  -8.45516E+3
   4.44119E+4  -7.04845E+3
   4.39567E+4  -6.01682E+3
   4.34474E+4  -4.88741E+3
   4.32390E+4  -3.76539E+3
   4.30229E+4  -2.64515E+3
   4.25215E+4  -1.57397E+3
   4.23428E+4  -3.86053E+2
   4.13989E+4   6.84414E+2
   4.11063E+4   1.48373E+3
   4.05504E+4   2.51970E+3
   4.01386E+4   3.55014E+3
   3.98071E+4   4.58824E+3
   3.90120E+4   5.33529E+3
   3.87238E+4   6.30701E+3
   3.80667E+4   7.06758E+3
   3.75398E+4   8.37849E+3
   3.68513E+4   8.75616E+3
   3.60274E+4   9.69623E+3
   3.53899E+4   1.03490E+4
   3.49281E+4   1.11556E+4
   3.43056E+4   1.18795E+4
   3.33515E+4   1.23756E+4
   3.28449E+4   1.33767E+4
   3.20476E+4   1.40231E+4
   3.14737E+4   1.44987E+4
   3.07156E+4   1.51473E+4
   2.95627E+4   1.57625E+4
   2.89159E+4   1.60017E+4
   2.81525E+4   1.68189E+4
   2.77506E+4   1.73775E+4
   2.66686E+4   1.78683E+4
   2.57903E+4   1.83360E+4
