 LCModel (Version 6.3-1N) Copyright: S.W. Provencher.          Ref.: Magn. Reson. Med. 30:672-679 (1993).                
 Slice_N1@16_20  28-Feb-2025 11:37:19
 27 lines in following concentration table = NCONC+1
    Conc.  %SD /Cr+PCr  Metabolite                                         
 2.92E-04   4% 2.6E-04 Mac                                                 
    4.444  16%   3.954 Cr                                                  
    4.548  15%   4.046 PCr                                                 
    7.185  11%   6.393 Ins                                                 
   11.052   6%   9.832 NAA                                                 
    7.374  10%   6.561 Tau                                                 
    0.545 122%   0.485 PCho                                                
    1.261  50%   1.122 GPC                                                 
   10.711   9%   9.529 Glu                                                 
    3.970  18%   3.532 Gln                                                 
    0.000 999%   0.000 Ala                                                 
    3.078  34%   2.738 Asc                                                 
    2.510  37%   2.233 Asp                                                 
    0.542  90%   0.482 GABA                                                
    0.917  75%   0.816 Glc                                                 
    1.741  25%   1.549 GSH                                                 
    1.741  33%   1.549 Lac                                                 
    2.012  23%   1.790 NAAG                                                
    0.987  96%   0.878 PE                                                  
    1.806  13%   1.607 GPC+PCho                                            
   13.064   6%  11.623 NAA+NAAG                                            
   14.680   8%  13.061 Glu+Gln                                             
    8.992   7%   8.000 Cr+PCr                                              
   13.064   6%  11.623 NAA+NAAG                                            
    8.992   7%   8.000 Cr+PCr                                              
   14.680   8%  13.061 Glu+Gln                                             
   6 lines in following misc. output table
  FWHM = 0.016 ppm    S/N =   6                                            
  Data shift = 0.024 ppm                                                   
  Ph: -82 deg       0.0 deg/ppm                                            
  alphaB,S = 2.6E-01,   5.7E+00                                            
   19 spline knots.   Ns = 5(1)                                            
  ( 3) 3 infls.   ( 3) 2 extrs.                                            
  480 points on ppm-axis = NY
      4.100000     4.091866     4.083733     4.075600     4.067466     4.059333     4.051199     4.043066     4.034933     4.026799
      4.018666     4.010532     4.002399     3.994265     3.986132     3.977998     3.969864     3.961731     3.953597     3.945463
      3.937330     3.929196     3.921062     3.912929     3.904795     3.896662     3.888528     3.880394     3.872261     3.864127
      3.855993     3.847860     3.839726     3.831592     3.823459     3.815325     3.807191     3.799058     3.790924     3.782790
      3.774657     3.766523     3.758389     3.750256     3.742122     3.733989     3.725855     3.717721     3.709588     3.701454
      3.693320     3.685187     3.677053     3.668919     3.660786     3.652652     3.644518     3.636385     3.628251     3.620117
      3.611984     3.603850     3.595716     3.587583     3.579449     3.571316     3.563182     3.555048     3.546915     3.538781
      3.530647     3.522514     3.514380     3.506246     3.498113     3.489979     3.481845     3.473712     3.465578     3.457444
      3.449311     3.441177     3.433043     3.424910     3.416776     3.408643     3.400509     3.392375     3.384242     3.376108
      3.367974     3.359841     3.351707     3.343573     3.335440     3.327306     3.319172     3.311039     3.302905     3.294771
      3.286638     3.278504     3.270370     3.262237     3.254103     3.245970     3.237836     3.229702     3.221569     3.213435
      3.205301     3.197168     3.189034     3.180900     3.172767     3.164633     3.156499     3.148366     3.140232     3.132098
      3.123965     3.115831     3.107697     3.099564     3.091430     3.083297     3.075163     3.067029     3.058896     3.050762
      3.042628     3.034495     3.026361     3.018227     3.010094     3.001960     2.993826     2.985693     2.977559     2.969425
      2.961292     2.953158     2.945024     2.936891     2.928757     2.920624     2.912490     2.904356     2.896223     2.888089
      2.879955     2.871822     2.863688     2.855554     2.847421     2.839287     2.831153     2.823020     2.814886     2.806752
      2.798619     2.790485     2.782351     2.774218     2.766084     2.757951     2.749817     2.741683     2.733550     2.725416
      2.717282     2.709149     2.701015     2.692881     2.684748     2.676614     2.668480     2.660347     2.652213     2.644079
      2.635946     2.627812     2.619678     2.611545     2.603411     2.595278     2.587144     2.579010     2.570877     2.562743
      2.554609     2.546476     2.538342     2.530208     2.522075     2.513941     2.505807     2.497674     2.489540     2.481406
      2.473273     2.465139     2.457006     2.448872     2.440738     2.432605     2.424471     2.416337     2.408204     2.400070
      2.391936     2.383803     2.375669     2.367535     2.359402     2.351268     2.343134     2.335001     2.326867     2.318733
      2.310600     2.302466     2.294333     2.286199     2.278065     2.269932     2.261798     2.253664     2.245531     2.237397
      2.229263     2.221130     2.212996     2.204862     2.196729     2.188595     2.180461     2.172328     2.164194     2.156060
      2.147927     2.139793     2.131660     2.123526     2.115392     2.107259     2.099125     2.090991     2.082858     2.074724
      2.066590     2.058457     2.050323     2.042189     2.034056     2.025922     2.017788     2.009655     2.001521     1.993387
      1.985254     1.977120     1.968987     1.960853     1.952719     1.944586     1.936452     1.928318     1.920185     1.912051
      1.903917     1.895784     1.887650     1.879516     1.871383     1.863249     1.855115     1.846982     1.838848     1.830714
      1.822581     1.814447     1.806314     1.798180     1.790046     1.781913     1.773779     1.765645     1.757512     1.749378
      1.741244     1.733111     1.724977     1.716843     1.708710     1.700576     1.692442     1.684309     1.676175     1.668041
      1.659908     1.651774     1.643641     1.635507     1.627373     1.619240     1.611106     1.602972     1.594839     1.586705
      1.578571     1.570438     1.562304     1.554170     1.546037     1.537903     1.529769     1.521636     1.513502     1.505368
      1.497235     1.489101     1.480968     1.472834     1.464700     1.456567     1.448433     1.440299     1.432166     1.424032
      1.415898     1.407765     1.399631     1.391497     1.383364     1.375230     1.367096     1.358963     1.350829     1.342695
      1.334562     1.326428     1.318295     1.310161     1.302027     1.293894     1.285760     1.277626     1.269493     1.261359
      1.253225     1.245092     1.236958     1.228824     1.220691     1.212557     1.204423     1.196290     1.188156     1.180022
      1.171889     1.163755     1.155622     1.147488     1.139354     1.131221     1.123087     1.114953     1.106820     1.098686
      1.090552     1.082419     1.074285     1.066151     1.058018     1.049884     1.041750     1.033617     1.025483     1.017349
      1.009216     1.001082     0.992949     0.984815     0.976681     0.968548     0.960414     0.952280     0.944147     0.936013
      0.927879     0.919746     0.911612     0.903478     0.895345     0.887211     0.879077     0.870944     0.862810     0.854676
      0.846543     0.838409     0.830276     0.822142     0.814008     0.805875     0.797741     0.789607     0.781474     0.773340
      0.765206     0.757073     0.748939     0.740805     0.732672     0.724538     0.716404     0.708271     0.700137     0.692003
      0.683870     0.675736     0.667603     0.659469     0.651335     0.643202     0.635068     0.626934     0.618801     0.610667
      0.602533     0.594400     0.586266     0.578132     0.569999     0.561865     0.553731     0.545598     0.537464     0.529330
      0.521197     0.513063     0.504930     0.496796     0.488662     0.480529     0.472395     0.464261     0.456128     0.447994
      0.439861     0.431727     0.423593     0.415460     0.407326     0.399192     0.391059     0.382925     0.374792     0.366658
      0.358524     0.350391     0.342257     0.334124     0.325990     0.317856     0.309723     0.301589     0.293455     0.285322
      0.277188     0.269055     0.260921     0.252787     0.244654     0.236520     0.228386     0.220253     0.212119     0.203986
 NY phased data points follow
  -2.32006E+00 -1.25468E+01 -1.74213E+01 -2.40411E+01 -3.21429E+01 -1.66539E+01 -2.84358E+01 -6.09088E+00 -6.81620E+00 -2.81046E+01
  -3.14618E+01 -3.60703E+01 -3.20875E+01 -5.68609E+01 -5.02772E+01 -5.33121E+01 -5.93474E+01 -5.44293E+01 -7.41890E+01 -8.83805E+01
  -1.25917E+02 -9.59791E+01 -5.09338E+01 -6.71902E+01 -1.97357E+01  3.42587E+01  1.87296E+01  4.34917E+00  6.98041E+00  1.07460E+01
   1.37290E+01  1.31339E+01  1.10467E+01  1.11011E+01  1.32256E+01  7.69276E+00  6.51358E+00  5.92502E+00 -9.32675E+00 -3.53359E+01
  -5.11475E+01 -6.75028E+01 -6.72323E+01 -4.61737E+01 -4.79677E+01 -1.13713E+01  3.25495E+01  3.94538E+01  3.86668E+01  4.23894E+01
   5.64310E+01  4.62862E+01  3.53673E+01  3.72680E+01  2.83855E+01  8.17502E+00  1.88894E+01  2.83702E+01 -4.27351E+00 -4.19278E+01
  -1.23068E+01  2.35500E+01 -1.15445E+01  2.59427E+01  5.08365E+01  6.41664E+01  8.27635E+01  3.53831E+01  2.35934E+01 -3.71504E+01
  -4.73884E+01  7.50673E+00 -7.29939E+00 -1.56057E+01  2.12527E+01  5.62176E+01  4.52802E+01  5.72097E+01  6.92051E+01  5.69141E+01
   6.41985E+01  6.25107E+01  3.85010E+01  2.39029E+01 -3.59725E+00 -2.63674E+01 -8.63872E+00  4.93791E+00  3.20867E+01  4.34416E+01
   5.82605E+01  7.47706E+01  6.65425E+01  6.84945E+01  6.88341E+01  8.71092E+01  8.83541E+01  9.45796E+01  1.01239E+02  8.77786E+01
   9.69883E+01  8.62627E+01  4.67916E+01  3.29887E+01  4.03688E+01  1.10670E+01 -7.81181E+00 -1.10278E+00  2.05497E+00 -3.07321E+01
  -1.35740E+02 -1.70758E+02 -1.16101E+02 -7.90195E+01 -5.86430E+01 -4.92696E+01 -2.59572E+01 -1.42511E+01 -1.36278E+01 -4.60002E+00
  -3.68317E+00  1.64720E+01  1.22342E+01  5.38866E+00  2.20640E+01  3.33833E+01  4.12729E+01  4.61952E+01  7.59463E+01  1.11818E+02
   1.82168E+02  2.15458E+02  8.52197E+01 -7.89105E+01 -1.14394E+02 -8.40445E+01 -7.76683E+01 -7.80582E+01 -6.57060E+01 -4.23645E+01
  -4.89795E+01 -5.30151E+01 -5.24740E+01 -5.37330E+01 -5.13580E+01 -6.04947E+01 -5.05320E+01 -6.20563E+01 -4.83685E+01 -2.71550E+01
  -4.90851E+01 -4.44998E+01 -2.53121E+01 -2.65383E+01 -3.00444E+01 -2.46551E+01 -2.00605E+01 -1.99447E+01 -3.25107E+01 -1.98646E+01
  -1.17606E+01 -1.19881E+01 -4.08198E+00 -1.98255E+01 -1.71434E+01 -1.91761E+01 -2.23666E+01 -4.54192E+00 -1.34732E+01 -2.18323E+01
  -3.21972E-02  1.30337E+00  2.29593E+01  4.11056E+01  8.77182E+00  8.60758E+00  2.92044E+01  4.39200E+01  4.05976E+01  1.70840E+01
  -1.61534E+01 -2.15038E+01 -2.83295E+01 -4.00223E+01 -2.77252E+01 -3.49576E+01 -2.78536E+01 -4.70549E+01 -3.88185E+01 -1.29740E+01
  -3.36237E+01 -2.29646E+01 -5.86237E+00 -7.92238E-01  1.65585E+01  1.10218E+01 -1.96096E+01  9.89385E+00  1.32669E+01  1.33886E+00
   5.26789E+00 -7.82258E+00  1.78324E+01  2.18816E+01  2.69791E+01  6.64209E+00 -3.28876E+00  1.00454E+00 -2.14553E+01 -2.19150E+01
  -2.91541E+01 -2.96364E+01 -4.35958E+01 -2.46639E+01 -2.68388E-01  2.67122E+01  8.01487E+01  7.77524E+01  7.21157E+01  6.31008E+01
   2.33840E+01 -2.77386E+00  8.66053E+00  2.08655E+01  2.30442E+00  2.16478E+00  1.90195E+01  2.29323E+01  2.70126E+01  1.29530E+01
   1.27800E+01  1.15713E+01 -8.13795E+00 -6.77312E+00 -1.98050E+01 -2.50011E+01 -3.67218E+01 -6.12902E+01 -6.79943E+01 -5.50238E+01
  -5.09784E+01 -4.58938E+01 -3.15260E+01 -2.64513E+01 -1.07116E+01 -1.34464E+01  1.46810E+01 -2.57126E+00 -2.01889E+01 -2.20569E+01
  -4.95496E+01 -2.01756E+01 -4.33677E+01 -3.81367E+01 -5.26673E+01 -8.93339E+01 -1.58085E+02 -1.26345E+02  1.69429E+02  2.44194E+02
   1.73145E+02  1.68830E+02  1.51097E+02  1.49737E+02  1.24190E+02  1.25463E+02  1.11800E+02  9.14679E+01  8.45159E+01  9.23266E+01
   1.03593E+02  9.18253E+01  9.48652E+01  1.00785E+02  9.64153E+01  9.29708E+01  1.02655E+02  9.94625E+01  9.80222E+01  1.04445E+02
   1.02661E+02  1.03588E+02  9.84319E+01  9.54815E+01  9.49092E+01  7.93798E+01  7.32769E+01  7.95746E+01  7.35513E+01  8.10601E+01
   8.51958E+01  7.32210E+01  6.80415E+01  6.46439E+01  6.72033E+01  6.58667E+01  5.39577E+01  5.50524E+01  4.42995E+01  3.63817E+01
   5.47943E+01  4.33052E+01  5.12192E+01  7.15431E+01  5.74938E+01  5.37550E+01  5.84016E+01  5.26203E+01  5.01894E+01  6.57550E+01
   4.90610E+01  4.38832E+01  5.87767E+01  4.82774E+01  4.97563E+01  2.88440E+01  3.44015E+01  4.48301E+01  2.23999E+01  4.20442E+01
   3.73940E+01  3.90255E+01  5.10096E+01  2.95287E+01  4.84051E+01  5.64679E+01  4.80557E+01  5.02463E+01  4.59719E+01  3.80468E+01
   2.69934E+01  2.17048E+01  8.32103E+00  7.36081E+00 -6.03147E+00 -1.30342E+01  1.47211E-01  1.61327E-01  1.07456E+01  1.72821E+01
   3.35163E+01  3.14543E+01 -7.27953E-01 -2.54403E+00  9.30171E+00  4.89748E+00  5.95127E+00  2.27532E+01  2.26225E+01  2.60798E+01
   4.27486E+01  2.37933E+01  9.85306E+00  1.45606E+01  1.14524E+01  1.53578E+01 -1.40395E-01 -5.56556E+00 -7.45819E+00 -1.65524E+01
  -7.84925E+00 -2.71519E-01  5.71036E+00  1.01784E+00  1.55847E+01  2.64146E+01  2.53894E+01  2.41112E+01  3.18610E+01  3.64050E+01
   2.43839E+01  4.95627E+01  5.51616E+01  5.56402E+01  5.43500E+01  5.39422E+01  6.81785E+01  6.50868E+01  7.41013E+01  6.76346E+01
   7.30217E+01  8.62182E+01  9.50516E+01  8.75151E+01  9.65395E+01  1.28727E+02  1.23578E+02  1.43361E+02  1.58093E+02  1.55269E+02
   1.48843E+02  1.42466E+02  1.35687E+02  1.14689E+02  1.13364E+02  9.79989E+01  8.25624E+01  8.00835E+01  7.45363E+01  7.00426E+01
   5.24867E+01  4.04972E+01  3.71486E+01  2.17482E+01  1.13924E+01  1.11898E+01  1.24782E+01  8.21785E-01 -3.46420E+00  1.07838E+01
   5.79979E+00  8.95141E+00 -3.75867E+00 -8.90297E+00  6.52473E+00  3.66058E+00  9.43939E+00  4.33902E+00  1.20552E+01  9.62060E+00
  -2.98086E-01  1.19331E+01  9.29943E+00  2.45691E+00  1.15769E+01  1.66012E+01  1.28011E+00 -1.49365E+00 -3.49313E+00 -6.04814E-01
   2.19419E+00  1.30702E+01  2.01167E+01  3.94051E+00  1.60600E+01  9.61066E+00  9.10973E+00  1.69414E+01  1.01087E+01  1.19453E+01
  -6.68679E+00  1.08439E+01  1.60683E+01  4.30583E-01  1.27768E+01  5.59548E+00  1.26692E+01  1.43672E+01  1.54503E+01  1.59889E+01
   9.44660E+00  2.21593E+01  1.45729E+01  2.06603E+01  1.13354E+01  7.99390E+00  1.33275E+01  4.40372E+00  2.81993E+01  1.48722E+01
   2.01217E+01  2.43711E+01  8.19943E+00  1.97239E+01  7.37103E+00  1.06695E+01  1.73494E+01  2.30807E+01  1.25927E+01  5.66230E+00
   3.30258E+01  1.88434E+01  4.13700E+00  1.42269E+01  1.17228E+01  1.39882E+01  1.26984E+01  2.42485E+01  3.62443E+01  1.62123E+01
 NY points of the fit to the data follow
  -2.76541E+01 -3.26808E+01 -4.24590E+01 -5.44289E+01 -5.88606E+01 -3.93415E+01 -8.78236E+00  7.68589E-01 -1.22446E+01 -2.63924E+01
  -3.47060E+01 -3.95901E+01 -4.10711E+01 -3.94516E+01 -3.84357E+01 -3.90799E+01 -4.05049E+01 -4.90877E+01 -6.40131E+01 -8.69679E+01
  -1.09044E+02 -9.64208E+01 -6.04755E+01 -4.29948E+01 -1.04276E+01  2.67565E+01  2.60574E+01  2.23326E+01  2.70908E+01  3.08131E+01
   3.19131E+01  3.03827E+01  2.88623E+01  2.80774E+01  2.56572E+01  2.15508E+01  1.85779E+01  1.42104E+01  2.92119E+00 -2.14032E+01
  -5.66980E+01 -7.72773E+01 -6.38250E+01 -4.21425E+01 -2.56184E+01 -3.06618E+00  2.12364E+01  3.53149E+01  3.92467E+01  4.33471E+01
   4.38208E+01  4.16368E+01  3.75969E+01  2.74130E+01  1.46599E+01  4.11968E+00  1.19066E+00  4.09907E+00 -8.28746E+00 -2.56535E+01
  -1.26116E+01  2.95315E+00  7.54727E-01  1.63911E+01  4.13991E+01  5.20820E+01  5.54465E+01  4.90908E+01  2.14938E+01 -1.72362E+01
  -2.75601E+01 -8.82476E+00 -3.02997E+00 -1.62887E-01  2.27487E+01  4.35937E+01  5.11180E+01  5.47138E+01  5.79654E+01  6.24300E+01
   6.28490E+01  5.31302E+01  3.46568E+01  8.66344E+00 -1.76559E+01 -2.34190E+01 -1.49609E+01  1.41041E+00  2.41132E+01  3.60508E+01
   4.26315E+01  4.84424E+01  5.35085E+01  5.85913E+01  6.35234E+01  6.93550E+01  7.49072E+01  7.87230E+01  7.84606E+01  7.42695E+01
   7.53530E+01  8.42320E+01  7.88689E+01  5.99818E+01  4.06373E+01  1.53603E+01 -2.97838E+00  1.08597E+01  1.84482E+01 -3.42347E+01
  -1.25391E+02 -1.58540E+02 -1.13744E+02 -7.55468E+01 -5.74341E+01 -4.34998E+01 -3.39190E+01 -2.54551E+01 -1.74276E+01 -9.76014E+00
  -2.85285E+00  3.60329E+00  1.06026E+01  1.83588E+01  2.70701E+01  3.74596E+01  4.95917E+01  6.15285E+01  8.56708E+01  1.29236E+02
   1.84153E+02  2.01947E+02  9.67306E+01 -6.96250E+01 -1.16451E+02 -8.07369E+01 -6.84357E+01 -6.09968E+01 -5.42149E+01 -5.09558E+01
  -5.08116E+01 -5.21423E+01 -5.36745E+01 -5.42315E+01 -5.41240E+01 -5.53775E+01 -5.50223E+01 -5.16206E+01 -4.82643E+01 -4.50561E+01
  -4.18224E+01 -3.86952E+01 -3.59471E+01 -3.39516E+01 -3.12237E+01 -2.66703E+01 -2.27566E+01 -2.27058E+01 -2.44162E+01 -2.33023E+01
  -1.83088E+01 -1.26902E+01 -1.16016E+01 -1.66625E+01 -2.13559E+01 -2.00518E+01 -1.55487E+01 -1.28417E+01 -1.53462E+01 -1.95995E+01
  -1.50812E+01  4.97714E+00  2.85080E+01  2.94579E+01  8.00002E+00 -1.90853E+00  1.65998E+01  3.83289E+01  3.40124E+01  8.94784E+00
  -1.14740E+01 -1.68847E+01 -1.87206E+01 -2.24144E+01 -2.49791E+01 -2.66381E+01 -2.68884E+01 -2.66351E+01 -2.58191E+01 -2.36860E+01
  -2.18502E+01 -1.87442E+01 -1.59414E+01 -1.24139E+01  3.71598E+00  1.42881E+01  2.81547E+00  2.61544E+00  1.45130E+01  1.42734E+01
   9.74329E+00  5.56477E+00  1.34795E+01  2.71179E+01  2.41265E+01  1.42253E+01  6.64272E+00  1.56148E-01 -9.71836E+00 -2.27077E+01
  -3.11096E+01 -3.80168E+01 -3.78875E+01 -2.59664E+01 -9.52629E+00  2.29919E+01  6.43065E+01  7.43976E+01  7.34926E+01  6.89483E+01
   4.43216E+01  2.98293E+01  2.75682E+01  2.81071E+01  3.15776E+01  3.32828E+01  3.29419E+01  3.04430E+01  2.39800E+01  1.48841E+01
   4.20927E+00 -7.89014E+00 -2.07839E+01 -3.16104E+01 -4.17811E+01 -5.38451E+01 -6.08371E+01 -6.41841E+01 -6.80936E+01 -6.43245E+01
  -5.87277E+01 -5.51887E+01 -4.35338E+01 -3.15642E+01 -2.09221E+01 -9.11726E+00 -7.51834E+00 -1.01398E+01 -1.50923E+01 -2.22507E+01
  -2.82088E+01 -4.17367E+01 -4.71715E+01 -4.82158E+01 -5.41360E+01 -9.98661E+01 -1.79463E+02 -1.03488E+02  1.32842E+02  2.22707E+02
   1.75749E+02  1.55525E+02  1.39065E+02  1.27402E+02  1.19881E+02  1.14941E+02  1.10317E+02  1.04968E+02  9.98615E+01  9.57393E+01
   9.26090E+01  9.09062E+01  9.06653E+01  9.14592E+01  9.19803E+01  9.23379E+01  9.22534E+01  9.06746E+01  8.95373E+01  8.87380E+01
   8.74127E+01  8.53718E+01  8.26666E+01  8.02820E+01  7.84925E+01  7.64939E+01  7.37563E+01  7.13002E+01  6.91258E+01  6.64648E+01
   6.33624E+01  5.93962E+01  5.50068E+01  5.09731E+01  4.63319E+01  4.19300E+01  3.93892E+01  3.91039E+01  4.07694E+01  4.33472E+01
   4.56658E+01  4.77875E+01  5.05399E+01  5.36198E+01  5.62460E+01  5.84928E+01  6.05682E+01  6.22940E+01  6.41900E+01  6.69887E+01
   7.01562E+01  7.24142E+01  7.39175E+01  7.52800E+01  7.68182E+01  7.84422E+01  7.93234E+01  7.95376E+01  7.95082E+01  7.83071E+01
   7.56395E+01  7.32212E+01  7.10127E+01  6.75559E+01  6.34650E+01  5.97387E+01  5.58643E+01  5.05185E+01  4.18971E+01  3.09650E+01
   2.07084E+01  1.18002E+01  4.11918E+00 -1.57832E+00 -4.14715E+00 -3.10346E+00  1.20200E+00  8.06650E+00  1.61415E+01  2.40123E+01
   2.97813E+01  2.66753E+01  1.56894E+01  8.60538E+00  4.59450E+00  4.56838E+00  1.46306E+01  2.28471E+01  2.50949E+01  2.71290E+01
   2.84393E+01  2.86388E+01  2.70992E+01  2.43881E+01  1.99289E+01  1.40826E+01  9.39849E+00  6.86281E+00  5.94505E+00  6.55044E+00
   8.47170E+00  1.12614E+01  1.47547E+01  1.88109E+01  2.31874E+01  2.73138E+01  3.07202E+01  3.40066E+01  3.71753E+01  4.02927E+01
   4.38375E+01  4.71770E+01  5.01444E+01  5.32533E+01  5.68323E+01  6.07398E+01  6.51121E+01  7.00904E+01  7.51624E+01  8.12633E+01
   8.85585E+01  9.55162E+01  1.02279E+02  1.10494E+02  1.19905E+02  1.28786E+02  1.36315E+02  1.41377E+02  1.41987E+02  1.36396E+02
   1.25034E+02  1.11511E+02  9.94187E+01  8.98922E+01  8.22521E+01  7.61679E+01  7.13109E+01  6.47322E+01  5.55562E+01  4.55802E+01
   3.58692E+01  2.63094E+01  1.86361E+01  1.38419E+01  1.00332E+01  6.69715E+00  4.79804E+00  4.01922E+00  3.40533E+00  2.49065E+00
   1.44395E+00  6.75673E-01  3.48329E-01  6.87663E-01  9.23632E-01  7.57118E-01  8.97891E-01  1.75350E+00  2.18513E+00  1.58961E+00
   1.40504E+00  2.57983E+00  3.52452E+00  3.16351E+00  3.19742E+00  3.90518E+00  4.30800E+00  4.25277E+00  4.20897E+00  4.80056E+00
   5.87009E+00  6.71164E+00  6.77616E+00  6.63122E+00  6.61169E+00  6.62797E+00  7.03248E+00  7.89198E+00  8.42656E+00  8.79307E+00
   9.35145E+00  9.61830E+00  1.00532E+01  1.06822E+01  1.09763E+01  1.08476E+01  1.06516E+01  1.07504E+01  1.15087E+01  1.22304E+01
   1.25002E+01  1.30150E+01  1.31095E+01  1.28196E+01  1.33882E+01  1.42710E+01  1.47513E+01  1.51393E+01  1.55436E+01  1.57908E+01
   1.62850E+01  1.69294E+01  1.72126E+01  1.70872E+01  1.71122E+01  1.73084E+01  1.73908E+01  1.78168E+01  1.87502E+01  2.01363E+01
   2.10646E+01  2.10243E+01  2.05368E+01  2.02495E+01  2.05734E+01  2.13196E+01  2.19068E+01  2.22451E+01  2.28318E+01  2.32254E+01
 NY background values follow
    -1.431E+00   -1.271E+00   -1.112E+00   -9.524E-01   -7.927E-01   -6.327E-01   -4.726E-01   -3.121E-01   -1.514E-01    9.714E-03
     1.712E-01    3.331E-01    4.954E-01    6.582E-01    8.216E-01    9.855E-01    1.150E+00    1.315E+00    1.481E+00    1.647E+00
     1.815E+00    1.983E+00    2.152E+00    2.321E+00    2.492E+00    2.663E+00    2.836E+00    3.009E+00    3.184E+00    3.359E+00
     3.536E+00    3.714E+00    3.893E+00    4.072E+00    4.253E+00    4.435E+00    4.617E+00    4.800E+00    4.984E+00    5.168E+00
     5.353E+00    5.538E+00    5.724E+00    5.910E+00    6.096E+00    6.283E+00    6.469E+00    6.655E+00    6.842E+00    7.028E+00
     7.214E+00    7.400E+00    7.585E+00    7.771E+00    7.955E+00    8.139E+00    8.323E+00    8.505E+00    8.688E+00    8.869E+00
     9.049E+00    9.228E+00    9.407E+00    9.584E+00    9.761E+00    9.936E+00    1.011E+01    1.028E+01    1.045E+01    1.063E+01
     1.079E+01    1.096E+01    1.113E+01    1.130E+01    1.146E+01    1.162E+01    1.178E+01    1.194E+01    1.210E+01    1.226E+01
     1.241E+01    1.257E+01    1.272E+01    1.287E+01    1.302E+01    1.316E+01    1.331E+01    1.345E+01    1.359E+01    1.373E+01
     1.387E+01    1.401E+01    1.414E+01    1.427E+01    1.440E+01    1.453E+01    1.466E+01    1.478E+01    1.490E+01    1.502E+01
     1.514E+01    1.526E+01    1.538E+01    1.550E+01    1.561E+01    1.572E+01    1.583E+01    1.594E+01    1.605E+01    1.616E+01
     1.626E+01    1.637E+01    1.647E+01    1.658E+01    1.668E+01    1.678E+01    1.688E+01    1.697E+01    1.707E+01    1.717E+01
     1.726E+01    1.736E+01    1.745E+01    1.755E+01    1.764E+01    1.773E+01    1.782E+01    1.791E+01    1.800E+01    1.809E+01
     1.817E+01    1.826E+01    1.835E+01    1.843E+01    1.851E+01    1.860E+01    1.868E+01    1.876E+01    1.884E+01    1.891E+01
     1.899E+01    1.907E+01    1.914E+01    1.922E+01    1.929E+01    1.936E+01    1.943E+01    1.951E+01    1.957E+01    1.964E+01
     1.971E+01    1.978E+01    1.984E+01    1.990E+01    1.997E+01    2.003E+01    2.009E+01    2.015E+01    2.021E+01    2.026E+01
     2.032E+01    2.037E+01    2.043E+01    2.048E+01    2.053E+01    2.058E+01    2.063E+01    2.068E+01    2.073E+01    2.077E+01
     2.082E+01    2.086E+01    2.090E+01    2.094E+01    2.098E+01    2.102E+01    2.106E+01    2.110E+01    2.113E+01    2.117E+01
     2.120E+01    2.123E+01    2.126E+01    2.129E+01    2.132E+01    2.135E+01    2.137E+01    2.140E+01    2.142E+01    2.144E+01
     2.147E+01    2.149E+01    2.150E+01    2.152E+01    2.154E+01    2.155E+01    2.157E+01    2.158E+01    2.159E+01    2.160E+01
     2.161E+01    2.162E+01    2.163E+01    2.163E+01    2.164E+01    2.164E+01    2.164E+01    2.165E+01    2.165E+01    2.164E+01
     2.164E+01    2.164E+01    2.163E+01    2.163E+01    2.162E+01    2.161E+01    2.160E+01    2.159E+01    2.157E+01    2.156E+01
     2.154E+01    2.152E+01    2.150E+01    2.148E+01    2.146E+01    2.143E+01    2.140E+01    2.137E+01    2.134E+01    2.131E+01
     2.127E+01    2.123E+01    2.119E+01    2.115E+01    2.110E+01    2.105E+01    2.100E+01    2.095E+01    2.089E+01    2.083E+01
     2.077E+01    2.071E+01    2.064E+01    2.057E+01    2.050E+01    2.042E+01    2.035E+01    2.026E+01    2.018E+01    2.010E+01
     2.001E+01    1.992E+01    1.982E+01    1.973E+01    1.963E+01    1.952E+01    1.942E+01    1.931E+01    1.920E+01    1.909E+01
     1.898E+01    1.886E+01    1.874E+01    1.862E+01    1.849E+01    1.836E+01    1.823E+01    1.810E+01    1.796E+01    1.783E+01
     1.769E+01    1.754E+01    1.740E+01    1.725E+01    1.710E+01    1.695E+01    1.680E+01    1.664E+01    1.649E+01    1.633E+01
     1.617E+01    1.601E+01    1.585E+01    1.569E+01    1.553E+01    1.537E+01    1.520E+01    1.504E+01    1.488E+01    1.471E+01
     1.455E+01    1.439E+01    1.423E+01    1.407E+01    1.391E+01    1.375E+01    1.359E+01    1.343E+01    1.327E+01    1.312E+01
     1.297E+01    1.282E+01    1.267E+01    1.252E+01    1.237E+01    1.223E+01    1.209E+01    1.195E+01    1.181E+01    1.168E+01
     1.155E+01    1.142E+01    1.130E+01    1.117E+01    1.106E+01    1.094E+01    1.083E+01    1.072E+01    1.062E+01    1.052E+01
     1.042E+01    1.033E+01    1.024E+01    1.015E+01    1.007E+01    9.997E+00    9.926E+00    9.860E+00    9.799E+00    9.742E+00
     9.691E+00    9.645E+00    9.603E+00    9.567E+00    9.536E+00    9.510E+00    9.488E+00    9.472E+00    9.460E+00    9.453E+00
     9.450E+00    9.453E+00    9.460E+00    9.471E+00    9.487E+00    9.507E+00    9.532E+00    9.562E+00    9.595E+00    9.633E+00
     9.675E+00    9.722E+00    9.772E+00    9.827E+00    9.886E+00    9.949E+00    1.002E+01    1.009E+01    1.016E+01    1.024E+01
     1.032E+01    1.041E+01    1.050E+01    1.059E+01    1.069E+01    1.079E+01    1.089E+01    1.100E+01    1.111E+01    1.122E+01
     1.133E+01    1.145E+01    1.157E+01    1.169E+01    1.181E+01    1.194E+01    1.207E+01    1.220E+01    1.233E+01    1.246E+01
     1.260E+01    1.273E+01    1.287E+01    1.300E+01    1.314E+01    1.328E+01    1.342E+01    1.356E+01    1.370E+01    1.385E+01
     1.399E+01    1.413E+01    1.427E+01    1.441E+01    1.455E+01    1.470E+01    1.484E+01    1.498E+01    1.512E+01    1.526E+01
     1.540E+01    1.554E+01    1.568E+01    1.582E+01    1.596E+01    1.610E+01    1.624E+01    1.638E+01    1.652E+01    1.665E+01
     1.679E+01    1.692E+01    1.706E+01    1.719E+01    1.732E+01    1.746E+01    1.759E+01    1.772E+01    1.784E+01    1.797E+01
     1.810E+01    1.822E+01    1.835E+01    1.847E+01    1.859E+01    1.871E+01    1.883E+01    1.895E+01    1.907E+01    1.918E+01
     1.930E+01    1.941E+01    1.953E+01    1.964E+01    1.975E+01    1.986E+01    1.997E+01    2.008E+01    2.019E+01    2.030E+01
     2.040E+01    2.051E+01    2.062E+01    2.072E+01    2.083E+01    2.093E+01    2.103E+01    2.114E+01    2.124E+01    2.134E+01
     2.144E+01    2.154E+01    2.164E+01    2.174E+01    2.184E+01    2.194E+01    2.204E+01    2.214E+01    2.224E+01    2.234E+01
     2.244E+01    2.253E+01    2.263E+01    2.273E+01    2.282E+01    2.292E+01    2.302E+01    2.311E+01    2.321E+01    2.330E+01
     2.340E+01    2.350E+01    2.359E+01    2.369E+01    2.378E+01    2.388E+01    2.397E+01    2.407E+01    2.417E+01    2.426E+01
 Mac      Conc. = 2.92E-04
  -2.13226E+01 -2.23984E+01 -2.26926E+01 -2.25818E+01 -2.24869E+01 -2.24157E+01 -2.28330E+01 -2.42606E+01 -2.64658E+01 -2.86177E+01
  -3.02052E+01 -3.08218E+01 -3.06348E+01 -3.00953E+01 -2.95728E+01 -3.01925E+01 -3.29865E+01 -3.65581E+01 -3.69324E+01 -3.15626E+01
  -2.44542E+01 -2.05495E+01 -1.69138E+01 -1.21201E+01 -9.66250E+00 -9.25317E+00 -8.62590E+00 -7.13509E+00 -5.19230E+00 -2.68525E+00
   3.37609E-02  1.79997E+00  3.00476E+00  4.49790E+00  5.53979E+00  5.15795E+00  3.81487E+00  3.33775E+00  5.44795E+00  9.62167E+00
   1.31096E+01  1.36130E+01  1.21950E+01  1.17398E+01  1.30156E+01  1.52577E+01  1.74324E+01  1.82965E+01  1.80551E+01  1.73262E+01
   1.60810E+01  1.45325E+01  1.31848E+01  1.24019E+01  1.18418E+01  1.14902E+01  1.12586E+01  1.12241E+01  1.24099E+01  1.45232E+01
   1.59886E+01  1.71827E+01  1.95512E+01  2.13775E+01  2.10982E+01  2.00604E+01  1.88925E+01  1.81072E+01  1.80726E+01  1.75690E+01
   1.64436E+01  1.65798E+01  1.98004E+01  2.41695E+01  2.67137E+01  2.79703E+01  2.86157E+01  2.84111E+01  2.77271E+01  2.65980E+01
   2.58230E+01  2.57014E+01  2.52805E+01  2.47947E+01  2.50510E+01  2.62509E+01  2.73826E+01  2.81255E+01  2.92753E+01  3.03266E+01
   3.08510E+01  3.13572E+01  3.20126E+01  3.25046E+01  3.28819E+01  3.29834E+01  3.18750E+01  2.93773E+01  2.65637E+01  2.37592E+01
   2.12374E+01  1.98608E+01  1.87252E+01  1.65696E+01  1.38584E+01  1.07609E+01  5.62198E+00 -2.31426E+00 -1.12382E+01 -1.73576E+01
