 
 $NMID
 ID=''
 FMTDAT='(2E13.5)'
 TRAMP=   1.00000E+0
 VOLUME=   1.00000E+0
 $END
  -1.91873E+4   1.01059E+4
  -1.96973E+4   3.12348E+4
   2.37696E+4   2.46068E+4
   3.42703E+4  -1.59758E+4
  -8.74035E+3  -3.32855E+4
  -3.53063E+4  -7.94698E+3
  -1.25721E+4   2.15800E+4
   1.98346E+4   1.95152E+4
   2.38877E+4  -6.72942E+3
   1.78998E+3  -2.10552E+4
  -1.72658E+4  -5.23832E+3
  -1.08356E+4   1.41209E+4
   7.44092E+3   1.29617E+4
   1.16549E+4  -5.87508E+2
   1.91899E+3  -9.93778E+3
  -7.19168E+3  -6.79312E+3
  -6.34928E+3   3.74838E+3
   1.27864E+3   7.50922E+3
   5.62122E+3   1.23214E+3
   2.87045E+3  -3.32938E+3
  -2.54419E+3  -2.42283E+3
  -2.04003E+3  -8.76019E+2
   1.50170E+3   1.83077E+3
   7.88611E+2   3.08098E+3
  -1.25721E+3  -3.34217E+2
   1.22486E+3  -1.91809E+3
   2.89686E+3   1.24152E+3
  -1.40616E+3   1.56005E+3
  -4.29290E+3  -1.77206E+3
  -1.77401E+2  -1.42831E+3
   2.25776E+3   2.38167E+3
   3.51567E+2   2.11879E+3
  -1.61452E+3  -1.88335E+3
  -1.68237E+3  -3.26604E+3
  -1.41998E+3  -7.24280E+2
   1.67747E+2   1.39095E+3
   2.06943E+3   1.41059E+3
   1.71915E+3  -6.55118E+2
  -5.89653E+2  -1.40077E+3
  -2.22964E+3  -6.86635E+2
  -1.63562E+3   1.25004E+3
   5.17273E+2   6.87585E+2
   1.69383E+3  -1.27593E+3
   5.70855E+2  -2.31962E+3
  -1.67486E+2  -1.22167E+3
   3.41952E+1   1.35143E+3
  -3.25848E+0   2.71185E+3
  -1.08138E+3   5.34134E+2
  -1.08917E+3  -1.72203E+3
  -3.00384E+2  -1.51673E+3
  -4.94462E+2  -4.30336E+2
  -1.85750E+2  -1.53955E+2
   7.30040E+2  -2.47709E+2
   9.10617E+2   2.54962E+2
   2.05404E+2   3.34134E+2
  -4.63705E+2   1.24405E+2
  -1.17008E+3  -1.93160E+2
  -8.96915E+2  -2.86982E+2
   4.42463E+2  -8.43810E+2
   1.06571E+3  -4.83975E+2
   9.40993E+2   2.58686E+2
   3.04498E+2   4.93713E+2
  -7.21157E+0   7.77743E+2
  -6.09161E+2   8.27701E+2
  -1.21822E+3   8.16429E+1
  -1.02084E+3  -1.10374E+3
   9.97248E+1  -1.51668E+3
   8.76607E+2  -7.96794E+2
   7.11831E+2   2.53128E+1
   2.52277E+2   3.34241E+2
  -6.95602E+1  -2.59486E+2
   4.62108E+2  -7.27143E+2
   8.86954E+2   9.97115E+0
   2.97966E+2   8.16978E+2
  -1.45323E+2   1.98694E+2
   5.38984E+1  -5.30957E+2
   1.01083E+2  -1.42291E+2
   1.71701E+2   3.71417E+2
  -4.04610E+1   3.15757E+2
  -2.63132E+2  -3.34437E+2
  -9.99019E+1  -6.48083E+2
  -6.37765E+1  -6.83708E+2
   4.44589E+1  -2.77400E+2
   3.04702E+2  -1.08106E+2
   2.58750E+2  -6.67774E+2
   3.87909E+2  -7.81647E+2
   4.98586E+2  -2.33954E+2
   2.27820E+2   5.47654E-1
  -9.73283E+1  -1.49728E+1
   3.73565E+2  -3.73696E+1
   8.48711E+2  -1.06531E+2
   1.18592E+2   1.64579E+1
  -7.82165E+2   2.73441E+2
  -8.15308E+2   6.92411E+1
  -7.93376E+1  -5.16515E+2
   4.39491E+2  -8.64621E+2
   3.08567E+2  -4.82016E+2
  -4.09978E+2   2.34216E+1
  -2.11983E+2  -3.64475E+2
   5.46596E+2  -5.43154E+1
   6.58714E+2   2.81032E+2
  -1.30123E+2   3.79237E+2
  -8.04318E+2  -2.78030E+2
  -2.68236E+2  -7.44171E+2
   3.41839E+2  -1.68348E+2
   3.57334E+2   7.67990E+2
  -1.43333E+2   7.46158E+2
  -6.57400E+2  -5.10549E+1
  -6.69165E+2  -1.02106E+3
   6.36289E+2  -8.13323E+2
   1.07974E+3   1.69226E+2
   2.60252E+2   7.31831E+2
  -1.89752E+2   3.10982E+2
  -8.64853E+1   1.41260E+2
   1.04261E+2   2.36901E+2
  -3.28519E+2   3.49140E+2
  -5.22733E+2   3.01529E+2
  -3.48948E+2  -8.20744E+2
   3.51973E+2  -8.55678E+2
   5.02194E+2  -3.01116E+2
   4.16972E+2   2.93294E+2
   2.66243E+2   2.78037E+2
   7.22270E+1   4.17732E+2
  -4.78916E+1   3.72225E+2
  -7.04015E+2   1.08723E+2
  -3.40787E+2  -2.93163E+2
   7.43674E+1  -2.15066E+2
   1.70613E+2   3.69803E+2
   1.88687E+2   4.67034E+2
   2.68655E+2   4.43411E+2
  -5.76545E+2   2.83408E+2
  -6.76220E+2  -2.65718E+2
   1.53363E+2  -3.54166E+2
   2.44530E+2   4.45575E+2
   1.74154E+2   1.57732E+2
   8.49422E+1  -4.08932E+1
   4.01811E+2  -1.39594E+2
   3.72289E+2   1.34025E+2
  -1.64306E+2   8.16484E+2
  -2.39369E+2   1.76978E+2
  -7.53990E+1  -2.43146E+2
   1.65732E+2  -1.66573E+2
   3.45285E+2   4.81049E+2
   8.50718E+0   5.89671E+2
  -1.94169E+2   4.23262E+2
  -3.05859E+2  -9.47196E+1
  -2.40218E+2  -2.05020E+2
  -1.60015E+2  -1.27980E+2
  -4.32367E+0  -1.14748E+2
  -6.75346E+1  -3.75744E+2
   5.04346E+2  -1.89327E+2
   1.82870E+2  -1.54694E+2
   2.89362E+2   4.61373E+2
  -3.27237E+2   2.50610E+2
  -1.36385E+2   1.13591E+2
  -7.64591E+1   1.08634E+2
  -2.22862E+1   2.83358E+2
  -1.76369E+2   1.64516E+2
  -2.34728E+2   1.57136E+2
   1.89388E+1   1.45747E+2
  -4.01270E+1   1.28058E+2
  -2.01335E+2   1.12286E+2
  -1.05077E+2   1.80737E+2
  -3.11311E+2  -4.76049E+2
   4.27593E+2  -4.44108E+2
   3.90638E+2   1.12371E+2
   2.04957E+2   1.76859E+2
  -1.12801E+2   2.11158E+2
   8.46878E+1   8.53426E+0
   1.64488E+2  -1.01716E+2
  -6.06437E+1   3.73895E+2
  -2.86772E+2   2.14253E+2
  -2.68363E+2   1.80003E+2
  -1.24578E+2  -1.38983E+2
  -7.79258E+1   2.38338E+2
  -2.02491E+2   4.10502E+1
  -2.53301E+2  -7.37939E+1
  -1.35098E+2  -1.09412E+2
   2.79213E+2  -3.23340E+2
   3.02110E+2   7.99918E+1
  -1.05363E+2   3.39603E+2
  -3.81556E+2   2.81597E+2
  -4.08382E+2  -2.45564E+1
  -1.79603E+2  -1.30931E+2
  -1.52277E+2  -3.22920E+2
  -1.09456E+2   5.26576E+1
  -1.41782E+2  -2.27759E+1
   1.35911E+2  -1.00797E+2
   3.85456E+2   2.05510E+2
   1.55100E+2   6.63909E+2
  -4.01899E+2   4.89888E+2
  -6.72004E+2  -1.90541E+1
  -2.14797E+2  -5.42525E+2
   1.83157E+2  -3.83264E+2
   7.29862E+1   3.98950E+1
  -1.68528E+1  -3.28614E+2
  -6.47698E+0   3.04022E+2
  -3.06245E+1   9.34404E+1
  -3.53113E+2   2.74472E+2
  -3.29039E+2   1.12071E+2
  -3.39847E+2  -2.77270E+2
   8.83028E+1  -5.11139E+2
   3.78131E+2   1.48665E+2
   1.66537E+2   1.54668E+2
  -2.70482E+2  -7.18745E-1
  -3.71340E+2  -5.71200E+1
  -2.51378E+2  -6.05959E+1
   1.17612E+2  -3.74094E+1
  -2.56218E+2   2.45133E+2
  -2.49860E+2   1.31887E+2
   9.99343E+1   1.41046E+1
   1.86093E+2  -4.10793E+1
  -1.35564E+2   3.42601E+2
  -4.30019E+2   2.02629E+2
  -3.54336E+2  -2.11396E+2
  -1.05324E+2  -5.80074E+2
   1.16660E+2  -3.23703E+2
   7.49860E+1  -8.04958E+1
   1.04201E+2   1.07194E+2
  -4.50526E+1   1.41449E+2
   1.64556E+2   1.17121E+2
   1.43605E+2   1.44910E+2
  -2.65219E+2   3.72935E+2
  -5.33214E+2   5.90179E+1
  -1.55745E+2  -2.92443E+2
   7.27070E+1  -1.97814E+2
  -1.42387E+0  -8.84954E+1
  -5.03779E+2   2.06532E+2
  -2.18283E+2  -1.91699E+2
  -1.20846E+1  -9.56177E+1
   1.74318E+2   3.41183E+1
  -8.52444E+1  -3.93403E+1
  -2.26439E+2  -3.32464E+1
  -3.19319E+2   4.86309E+1
   1.36270E+2  -1.70103E+2
  -1.56175E+2   1.01806E+1
  -4.59504E+2   5.91980E+1
  -1.11423E+2  -4.77719E+1
  -4.52497E+1  -2.42158E+2
  -1.32578E+1  -2.68296E+2
  -2.18300E+1   2.00700E+2
  -1.14300E+2  -6.65111E+1
  -2.57585E+2   1.63993E+2
  -2.35472E+2  -3.22915E+2
   8.56818E-2  -1.06327E+2
  -1.91555E+2   2.57672E+2
  -2.61513E+1   2.24154E+1
  -8.96646E+1  -2.17817E+2
   3.35845E+2  -2.57823E+2
  -1.86006E+1   4.19906E+2
  -1.49979E+2   1.89600E+2
  -4.13751E+2  -1.83385E+1
  -2.41048E+2  -4.09752E+2
  -4.05020E+1  -3.17944E+2
   1.34364E+2   5.55182E+0
  -1.16966E+2   6.49633E+1
  -1.64633E+2   1.67845E+1
  -2.64006E+2  -2.37156E+2
  -1.08823E+1   1.93969E+2
  -4.30608E+2  -3.73541E+1
  -1.24500E+2  -9.45182E+1
   1.18892E+2   7.51517E+0
   7.47348E+1  -3.06226E+2
   1.11204E+2   1.11212E+2
   1.47422E+2   2.77059E+2
  -2.21597E+2   2.90903E+2
  -1.74692E+2   5.03151E+1
  -2.27930E+0  -2.65142E+2
   9.42635E+1  -2.14258E+1
  -7.89630E+1  -1.10919E+2
   1.32130E+1  -7.46559E+1
   9.36676E+0   1.21045E+2
  -4.84849E+1  -1.56766E+2
  -1.41414E+2   2.71166E+2
  -4.29420E+2   1.71650E+2
  -1.30239E+2  -2.79852E+2
  -1.14584E+2  -3.74652E+2
   2.55386E+2  -1.55062E+2
  -1.08732E+2   1.37515E+2
  -1.89884E+2   2.93461E+1
  -7.59889E+1   1.94143E+1
   9.38111E+1  -7.27106E+1
  -7.15568E+1  -4.94121E+0
  -2.22871E+2   4.30744E+0
  -2.82573E+1  -2.62922E+2
   5.63674E+1  -2.09930E+2
   3.68447E+2  -1.19037E+1
   1.27608E+2   1.62601E+2
  -2.23959E+2   6.96037E+1
  -2.24822E+2   1.20101E+2
   5.89644E+1  -1.50537E+1
   9.08389E+0  -1.12937E+2
   4.82974E+1   3.87745E-1
  -3.99503E+1  -7.31188E+1
   1.52793E+2  -2.27087E+2
   1.00732E+2  -5.71949E+1
  -5.30474E+1   3.07961E+2
  -1.75235E+2   2.40285E+2
  -1.08591E+2  -3.68273E+2
   1.79026E+0  -1.20616E+2
   5.68346E+1  -1.72117E+2
   3.05889E+1   1.18825E+2
  -1.64329E+2  -7.08659E+1
   1.05175E+2  -3.15244E+2
  -5.87654E+1  -7.13463E+1
  -8.99666E+1   3.36156E+1
  -2.36936E+1   1.17305E+2
   1.15408E+1  -1.69290E+2
   1.21012E+2  -1.44696E+2
   2.28679E+1   1.55308E+2
  -1.01104E+2   3.20413E+1
  -2.04996E+2  -6.14029E+1
  -4.64036E+1  -1.85866E+2
  -1.95985E+1  -2.78187E+2
   2.03084E+2  -3.55115E+1
   2.08229E+2  -4.54178E+1
   4.52646E+0   1.25871E+1
  -2.45306E-1  -8.51642E+1
  -1.03554E+0   4.22605E+1
  -2.80328E+2   1.64877E+2
  -6.55141E+1  -2.04685E+1
  -1.68802E+2   1.68673E+1
   8.68135E+1   4.63341E+1
   2.66181E+2  -3.57473E+1
   1.43649E+2   1.33073E+2
  -4.56064E+2  -8.85595E+1
  -1.72512E+2   1.41131E+2
   1.26575E+0  -1.46578E+2
   3.07363E+2  -7.12222E+1
  -8.78368E+1  -5.83168E+1
   8.75685E+1   2.77073E+2
  -1.08154E+2  -1.60020E+2
  -7.03465E+1   2.09297E+1
   1.63405E+2   1.76142E+2
  -2.63534E+2   3.80579E+1
  -1.10739E+2  -7.21174E+1
   5.28062E+1  -2.94128E+2
   2.20660E+1   5.16177E+1
   2.44818E+2   8.73512E-1
  -7.15254E+1   6.29488E+1
  -1.17244E+2   2.23343E+2
  -8.73624E+0  -3.52106E+1
   1.01933E+2  -3.93785E+1
  -4.96215E+1  -3.53710E+1
  -7.77921E+1  -1.06928E+2
  -1.01651E+2  -8.69949E+1
   1.28196E+2   1.17916E+2
   1.18858E+2   3.64051E+1
  -1.92459E+2   1.91607E+2
  -5.58619E+1   3.46268E+1
  -1.60607E+2  -2.37496E+2
  -4.35558E+1  -6.20647E+1
   1.99913E+2   4.61284E+0
  -3.68029E+0   2.41468E+2
   1.91351E+2  -1.67444E+2
   6.70325E+1  -4.05233E+1
   1.01096E+2   1.28010E+2
  -6.43685E+1   6.81123E+1
  -3.21161E+2  -2.13612E+2
  -4.09797E+1  -1.85548E+2
   6.69322E+1  -1.01047E+2
  -5.01000E+1  -1.07578E+2
   1.22395E+2  -1.51102E+2
  -1.70247E+2   1.46143E+2
  -2.38744E+2  -1.31924E+2
   4.34904E+1   3.12155E+1
   1.12365E+2   2.02567E+1
