 
 $NMID
 ID=''
 FMTDAT='(2E13.5)'
 TRAMP=   1.00000E+0
 VOLUME=   1.00000E+0
 $END
   6.69462E+5   4.59230E+5
   1.18321E+6   1.75305E+6
   1.29917E+6   1.58866E+6
   1.16131E+6   1.57174E+6
   1.22664E+6   1.63298E+6
   1.28752E+6   1.52695E+6
   1.24484E+6   1.50015E+6
   1.27387E+6   1.53948E+6
   1.27887E+6   1.49277E+6
   1.22338E+6   1.49592E+6
   1.23041E+6   1.51625E+6
   1.22086E+6   1.47803E+6
   1.18116E+6   1.48418E+6
   1.17714E+6   1.50391E+6
   1.14878E+6   1.48040E+6
   1.11152E+6   1.48328E+6
   1.11751E+6   1.49216E+6
   1.10615E+6   1.46830E+6
   1.08587E+6   1.46026E+6
   1.10277E+6   1.44915E+6
   1.09402E+6   1.42552E+6
   1.07317E+6   1.42246E+6
   1.07484E+6   1.41618E+6
   1.06344E+6   1.39783E+6
   1.04001E+6   1.39630E+6
   1.03590E+6   1.38670E+6
   1.01585E+6   1.37842E+6
   9.87233E+5   1.38492E+6
   9.68859E+5   1.38101E+6
   9.52945E+5   1.36620E+6
   9.38022E+5   1.36442E+6
   9.30804E+5   1.35358E+6
   9.17035E+5   1.33761E+6
   9.07955E+5   1.32873E+6
   9.04714E+5   1.31286E+6
   9.01470E+5   1.29294E+6
   8.99229E+5   1.28273E+6
   8.93795E+5   1.27120E+6
   8.78523E+5   1.25638E+6
   8.67280E+5   1.24788E+6
   8.55023E+5   1.23833E+6
   8.37805E+5   1.22788E+6
   8.23061E+5   1.21793E+6
   8.10386E+5   1.20921E+6
   7.93293E+5   1.20090E+6
   7.77865E+5   1.19458E+6
   7.64934E+5   1.18562E+6
   7.50452E+5   1.17506E+6
   7.38593E+5   1.16170E+6
   7.29820E+5   1.14849E+6
   7.20173E+5   1.13625E+6
   7.10608E+5   1.12459E+6
   7.01833E+5   1.11220E+6
   6.91611E+5   1.10056E+6
   6.79835E+5   1.08929E+6
   6.67735E+5   1.07844E+6
   6.53225E+5   1.06823E+6
   6.38881E+5   1.05702E+6
   6.26372E+5   1.04424E+6
   6.14907E+5   1.03395E+6
   6.02534E+5   1.02411E+6
   5.89566E+5   1.01343E+6
   5.78371E+5   1.00195E+6
   5.66223E+5   9.90543E+5
   5.54610E+5   9.77894E+5
   5.43554E+5   9.64114E+5
   5.33861E+5   9.51019E+5
   5.23733E+5   9.38457E+5
   5.13227E+5   9.27420E+5
   5.01814E+5   9.16833E+5
   4.89212E+5   9.05555E+5
   4.77528E+5   8.93227E+5
   4.66842E+5   8.81725E+5
   4.55310E+5   8.71339E+5
   4.43473E+5   8.60264E+5
   4.32083E+5   8.47981E+5
   4.21631E+5   8.36428E+5
   4.11840E+5   8.25024E+5
   4.01181E+5   8.13540E+5
   3.90782E+5   8.01815E+5
   3.80424E+5   7.90135E+5
   3.70938E+5   7.78174E+5
   3.60856E+5   7.66998E+5
   3.50313E+5   7.56438E+5
   3.38827E+5   7.46062E+5
   3.28255E+5   7.35517E+5
   3.17552E+5   7.25028E+5
   3.07590E+5   7.15078E+5
   2.97361E+5   7.05208E+5
   2.87455E+5   6.94731E+5
   2.78706E+5   6.83817E+5
   2.70840E+5   6.73442E+5
   2.62711E+5   6.63389E+5
   2.54599E+5   6.53041E+5
   2.47303E+5   6.41404E+5
   2.41026E+5   6.30371E+5
   2.34677E+5   6.20435E+5
   2.28023E+5   6.10766E+5
   2.20880E+5   6.00839E+5
   2.14849E+5   5.90416E+5
   2.08455E+5   5.80878E+5
   2.01427E+5   5.72105E+5
   1.94093E+5   5.62420E+5
   1.87495E+5   5.51866E+5
   1.81717E+5   5.42440E+5
   1.76292E+5   5.33391E+5
   1.70837E+5   5.24446E+5
   1.64876E+5   5.15579E+5
   1.59256E+5   5.06083E+5
   1.54712E+5   4.95990E+5
   1.50715E+5   4.86706E+5
   1.46181E+5   4.78491E+5
   1.41045E+5   4.70030E+5
   1.35810E+5   4.61374E+5
   1.31239E+5   4.52595E+5
   1.26718E+5   4.44183E+5
   1.21612E+5   4.35950E+5
   1.16846E+5   4.26861E+5
   1.13097E+5   4.17815E+5
   1.09962E+5   4.09553E+5
   1.06209E+5   4.01790E+5
   1.02245E+5   3.94147E+5
   9.88367E+4   3.85869E+5
   9.49518E+4   3.78244E+5
   9.08459E+4   3.70629E+5
   8.75084E+4   3.62439E+5
   8.39230E+4   3.54849E+5
   8.07608E+4   3.47219E+5
   7.67705E+4   3.40109E+5
   7.30789E+4   3.33065E+5
   6.92715E+4   3.26806E+5
   6.51484E+4   3.19462E+5
   6.13355E+4   3.12209E+5
   5.80680E+4   3.05101E+5
   5.46537E+4   2.98476E+5
   5.14910E+4   2.91766E+5
   4.83673E+4   2.85305E+5
   4.58079E+4   2.78835E+5
   4.29782E+4   2.72995E+5
   3.99957E+4   2.66872E+5
   3.69433E+4   2.60314E+5
   3.42245E+4   2.54065E+5
   3.17694E+4   2.48160E+5
   2.93202E+4   2.42516E+5
   2.68569E+4   2.37075E+5
   2.42139E+4   2.31558E+5
   2.14476E+4   2.26129E+5
   1.89477E+4   2.20402E+5
   1.67675E+4   2.15187E+5
   1.47536E+4   2.10221E+5
   1.26441E+4   2.05233E+5
   1.03800E+4   2.00334E+5
   8.45354E+3   1.95473E+5
   6.72075E+3   1.91182E+5
   4.96092E+3   1.86465E+5
   3.14823E+3   1.81890E+5
   1.77981E+3   1.77342E+5
   2.59279E+2   1.73343E+5
  -1.17175E+3   1.69230E+5
  -2.72558E+3   1.64950E+5
  -3.95559E+3   1.60750E+5
  -5.25903E+3   1.56968E+5
  -6.54422E+3   1.53158E+5
  -7.86709E+3   1.49164E+5
  -8.85649E+3   1.45561E+5
  -9.94543E+3   1.41987E+5
  -1.09843E+4   1.38891E+5
  -1.21223E+4   1.35423E+5
  -1.33950E+4   1.31955E+5
  -1.42766E+4   1.28962E+5
  -1.50198E+4   1.25614E+5
  -1.60067E+4   1.22529E+5
  -1.70215E+4   1.20029E+5
  -1.78089E+4   1.16786E+5
  -1.90341E+4   1.13763E+5
  -1.94846E+4   1.11070E+5
  -2.05628E+4   1.08543E+5
  -2.12745E+4   1.05923E+5
  -2.21216E+4   1.03169E+5
  -2.27886E+4   1.00457E+5
  -2.35545E+4   9.84514E+4
  -2.43430E+4   9.62119E+4
  -2.47385E+4   9.36927E+4
  -2.57784E+4   9.10596E+4
  -2.65344E+4   8.90975E+4
  -2.69240E+4   8.66879E+4
  -2.74148E+4   8.47727E+4
  -2.78277E+4   8.23334E+4
  -2.84422E+4   8.04265E+4
  -2.88512E+4   7.85901E+4
  -2.95548E+4   7.66988E+4
  -3.04168E+4   7.48179E+4
  -3.09213E+4   7.29047E+4
  -3.10181E+4   7.07908E+4
  -3.19994E+4   6.92190E+4
  -3.20454E+4   6.73123E+4
  -3.24214E+4   6.55870E+4
  -3.30188E+4   6.37377E+4
  -3.33792E+4   6.21670E+4
  -3.37126E+4   6.05583E+4
  -3.45037E+4   5.88724E+4
  -3.46840E+4   5.72425E+4
  -3.47584E+4   5.58399E+4
  -3.51121E+4   5.38434E+4
  -3.54619E+4   5.24801E+4
  -3.60036E+4   5.08707E+4
  -3.61619E+4   4.93553E+4
  -3.64605E+4   4.79278E+4
  -3.66302E+4   4.64371E+4
  -3.69826E+4   4.50183E+4
  -3.74037E+4   4.35748E+4
  -3.75854E+4   4.22507E+4
  -3.77141E+4   4.08164E+4
  -3.78418E+4   3.94322E+4
  -3.81491E+4   3.82350E+4
  -3.83793E+4   3.68715E+4
  -3.84673E+4   3.52308E+4
  -3.85828E+4   3.42481E+4
  -3.89496E+4   3.29728E+4
  -3.86681E+4   3.15808E+4
  -3.91326E+4   3.03323E+4
  -3.91247E+4   2.89742E+4
  -3.92160E+4   2.78996E+4
  -3.93218E+4   2.67371E+4
  -3.93077E+4   2.55448E+4
  -3.92719E+4   2.43254E+4
  -3.91494E+4   2.33654E+4
  -3.93296E+4   2.25027E+4
  -3.95167E+4   2.14806E+4
  -3.95964E+4   2.02151E+4
  -3.94721E+4   1.91142E+4
  -3.94146E+4   1.80332E+4
  -3.92389E+4   1.74151E+4
  -3.93018E+4   1.61138E+4
  -3.89486E+4   1.55969E+4
  -3.90495E+4   1.46394E+4
  -3.91466E+4   1.36008E+4
  -3.89937E+4   1.27291E+4
  -3.87737E+4   1.18246E+4
  -3.87710E+4   1.11588E+4
  -3.86621E+4   1.06175E+4
  -3.80277E+4   9.97451E+3
  -3.79249E+4   9.00364E+3
  -3.82293E+4   8.08680E+3
  -3.78375E+4   7.60461E+3
  -3.76695E+4   6.67958E+3
  -3.74519E+4   5.80112E+3
  -3.71030E+4   5.42708E+3
  -3.69232E+4   4.82442E+3
  -3.65569E+4   4.20081E+3
  -3.64780E+4   3.90754E+3
  -3.62477E+4   2.96569E+3
  -3.58623E+4   2.33681E+3
  -3.56939E+4   1.78009E+3
  -3.52531E+4   1.09807E+3
  -3.48669E+4   7.86669E+2
  -3.46804E+4   8.40173E+1
  -3.42102E+4  -3.50447E+2
  -3.37891E+4  -9.12924E+2
  -3.36911E+4  -1.50024E+3
  -3.32129E+4  -2.22315E+3
  -3.27802E+4  -2.75494E+3
  -3.22823E+4  -3.15766E+3
  -3.19557E+4  -3.79912E+3
  -3.14289E+4  -4.10096E+3
  -3.12336E+4  -4.75129E+3
  -3.07348E+4  -5.05991E+3
  -3.03485E+4  -5.55351E+3
  -2.97264E+4  -5.89076E+3
  -2.93068E+4  -6.43537E+3
  -2.89744E+4  -6.82723E+3
  -2.85035E+4  -7.39387E+3
  -2.79535E+4  -7.57675E+3
  -2.76346E+4  -8.16958E+3
  -2.72506E+4  -8.44325E+3
  -2.66575E+4  -8.81280E+3
  -2.60602E+4  -9.16544E+3
  -2.54324E+4  -9.56516E+3
  -2.51221E+4  -9.96558E+3
  -2.46212E+4  -1.03656E+4
  -2.40474E+4  -1.04246E+4
  -2.38103E+4  -1.08614E+4
  -2.29758E+4  -1.13866E+4
  -2.25039E+4  -1.12805E+4
  -2.19397E+4  -1.19273E+4
  -2.15795E+4  -1.24570E+4
  -2.09098E+4  -1.23132E+4
  -2.05744E+4  -1.21675E+4
  -2.02210E+4  -1.24826E+4
  -1.97366E+4  -1.30248E+4
  -1.88776E+4  -1.31479E+4
  -1.83015E+4  -1.32360E+4
  -1.80239E+4  -1.33038E+4
  -1.76308E+4  -1.37338E+4
  -1.68107E+4  -1.36627E+4
  -1.64762E+4  -1.37354E+4
  -1.60330E+4  -1.40397E+4
  -1.54007E+4  -1.39335E+4
  -1.47392E+4  -1.39615E+4
  -1.44894E+4  -1.45133E+4
  -1.36571E+4  -1.41514E+4
  -1.33541E+4  -1.42719E+4
  -1.27065E+4  -1.43070E+4
  -1.22979E+4  -1.44240E+4
  -1.17285E+4  -1.45229E+4
  -1.12873E+4  -1.44244E+4
  -1.06561E+4  -1.45375E+4
  -1.02749E+4  -1.43724E+4
  -9.91924E+3  -1.44368E+4
  -9.29259E+3  -1.42165E+4
  -8.82925E+3  -1.43954E+4
  -8.43223E+3  -1.44510E+4
  -8.20442E+3  -1.46558E+4
  -7.61211E+3  -1.44736E+4
  -6.90980E+3  -1.43904E+4
  -6.62153E+3  -1.42944E+4
  -6.07703E+3  -1.40430E+4
  -5.52239E+3  -1.39249E+4
  -5.16439E+3  -1.40767E+4
  -4.54284E+3  -1.37417E+4
  -4.42799E+3  -1.36357E+4
  -3.97823E+3  -1.36232E+4
  -3.61582E+3  -1.35384E+4
  -3.12908E+3  -1.33448E+4
  -2.78225E+3  -1.30921E+4
  -2.24393E+3  -1.29645E+4
  -1.77577E+3  -1.28246E+4
  -1.25376E+3  -1.27105E+4
  -6.44421E+2  -1.24582E+4
  -3.84359E+2  -1.22323E+4
  -6.91881E+1  -1.19987E+4
   2.83367E+2  -1.19617E+4
   5.81687E+2  -1.15237E+4
   1.03573E+3  -1.15254E+4
   1.44793E+3  -1.13565E+4
   1.78509E+3  -1.10702E+4
   2.06889E+3  -1.10900E+4
   2.49638E+3  -1.09131E+4
   2.77142E+3  -1.04546E+4
   3.17101E+3  -1.01510E+4
   3.26045E+3  -9.81566E+3
   3.66107E+3  -9.93496E+3
   4.21108E+3  -9.42628E+3
   4.55330E+3  -9.25612E+3
   5.04380E+3  -9.06924E+3
   5.01393E+3  -8.74392E+3
   5.51472E+3  -8.38874E+3
   5.73341E+3  -8.17761E+3
   5.98905E+3  -7.94858E+3
   5.98288E+3  -7.48609E+3
   6.65843E+3  -7.55795E+3
   6.86954E+3  -7.07025E+3
   7.25594E+3  -6.68676E+3
   7.46467E+3  -6.48612E+3
   7.71759E+3  -6.12659E+3
   7.99958E+3  -6.00334E+3
   8.06658E+3  -5.79012E+3
   8.40342E+3  -5.72263E+3
   8.37730E+3  -5.25374E+3
   8.87417E+3  -4.94255E+3
   8.95936E+3  -4.82913E+3
   9.02097E+3  -4.30500E+3
   9.35227E+3  -4.17014E+3
   9.35329E+3  -3.86171E+3
   9.68912E+3  -3.58958E+3
   9.63237E+3  -3.40605E+3
   9.96205E+3  -3.04832E+3
