 
 $NMID
 ID=''
 FMTDAT='(2E13.5)'
 TRAMP=   1.00000E+0
 VOLUME=   1.00000E+0
 $END
  -9.00510E+3   3.28578E+3
  -1.24121E+4   1.06922E+4
   6.45009E+3   2.02429E+4
   1.72104E+4   9.58175E+3
   1.02987E+4  -1.15992E+4
  -8.25077E+2  -2.00559E+4
  -1.24501E+4  -7.93460E+3
  -1.32138E+4   1.09768E+4
   4.11650E+3   1.52009E+4
   1.50886E+4   3.30783E+3
   5.48331E+3  -9.99282E+3
  -6.34693E+3  -1.02138E+4
  -7.12995E+3  -5.07589E+2
  -3.42804E+3   6.97264E+3
   1.90079E+3   4.25911E+3
   6.73644E+3  -1.79726E+3
   4.59185E+3  -2.80344E+3
  -2.47188E+3  -1.73405E+3
  -4.50781E+3  -1.54718E+2
  -1.23016E+3   2.77053E+3
   2.59469E+3   2.62094E+3
   2.79293E+3  -1.39129E+3
   3.85401E+2  -1.94303E+3
  -1.99385E+3  -6.21646E+2
  -1.31440E+3  -5.46155E+2
   1.87995E+3   7.96874E+2
   2.09029E+3   2.25097E+3
  -2.67865E+2   1.47221E+2
  -6.97293E+2  -1.65270E+3
   3.74965E+1   1.55547E+2
  -4.92985E+2   1.68921E+3
  -3.93291E+2   8.06506E+2
   4.88259E+1  -2.82191E+2
  -6.72255E+2  -1.33720E+3
  -4.31928E+2  -2.30025E+3
   1.65712E+3  -3.06652E+2
   1.06540E+3   2.46555E+3
  -1.25762E+3   1.83666E+3
  -2.38434E+2  -8.56481E+2
   6.30290E+2  -4.28597E+2
  -1.17523E+3   1.34233E+2
  -1.28025E+3  -6.57401E+2
   1.11465E+3  -5.95653E+2
   1.77024E+3   8.91179E+2
   4.31633E+2   8.56616E+2
  -2.65215E+2   3.01818E+2
  -3.61542E+2   1.24642E+3
  -1.67987E+3   9.24848E+2
  -1.32089E+3  -9.74963E+2
  -1.40322E+2  -1.15000E+3
   6.19221E+2  -4.19633E+2
   4.30617E+2  -2.26911E+2
   4.43128E+2   1.99180E+2
   2.48697E+2   4.84094E+2
  -4.93686E+1   8.63788E+2
  -5.75358E+2   5.67216E+2
  -8.32116E+2  -3.49209E+2
  -3.74895E+2  -1.04468E+3
   8.18964E+2  -7.01898E+2
   1.01718E+3   4.08232E+2
   2.65764E+2   9.05490E+2
   5.55792E+1   6.04612E+2
   1.63850E+1   1.25342E+3
  -1.13228E+3   1.36653E+3
  -1.73336E+3  -2.75309E+1
  -7.97287E+2  -1.15226E+3
   4.69844E+2  -1.37582E+3
   7.48533E+2  -4.96870E+2
   8.73165E+2   7.26977E+1
   2.17245E+2   4.50120E+2
   1.15535E+2   3.21644E+1
   2.50191E+1  -1.45195E+2
   3.19786E+2   2.62235E+2
   3.49726E+2   8.74241E+2
  -5.24471E+2   7.41153E+2
  -1.01769E+2  -2.93519E+2
   1.64589E+2   1.47016E+2
   2.25752E+2   3.89286E+2
  -3.71148E+2   2.10878E+2
  -5.57551E+2   1.92668E+2
  -4.16666E+2  -5.70457E+1
   2.53757E+2  -3.18282E+2
   1.63720E+2   7.98402E+1
  -1.56029E+2  -2.18769E+2
  -2.02907E+2  -4.79273E+2
   3.47281E+2  -2.47885E+2
   6.52984E+2   1.08593E+2
   4.03530E+2   4.79524E+2
   8.68171E+1   1.89687E+1
  -5.56790E+0  -1.90056E+2
   2.54601E+2   2.48257E+2
   7.50884E+1   6.98929E+2
  -4.22819E+2   6.80005E+2
  -8.24489E+2  -8.34143E+1
  -5.80299E+2  -7.53290E+2
   1.33466E+2  -8.11837E+2
   4.00961E+2  -3.12878E+2
  -2.95983E+2  -1.41882E+1
  -3.29162E+2  -2.53938E+2
   7.18724E+2  -8.20506E+2
   6.83332E+2   2.17436E+2
  -1.74961E+2   1.04762E+3
  -8.27739E+2   5.77303E+1
  -3.77318E+2  -6.99216E+2
   6.04149E+2  -2.30178E+2
   5.19058E+2   1.56824E+2
  -3.87238E+1   1.39898E+2
  -1.01039E+3  -1.83496E+2
  -1.07208E+3  -5.92466E+2
   4.93060E+1  -1.05336E+3
   9.09452E+2  -3.21751E+2
   7.22490E+2   2.43739E+2
  -2.21173E+2   2.41483E+2
  -5.44419E+2   1.52527E+2
   2.79569E+1   9.37621E+0
  -3.48489E+1   3.40559E+2
  -5.86527E+2   5.31723E+2
  -8.83308E+2  -4.45487E+2
  -3.94679E+2  -8.09013E+2
   2.55603E+2  -5.66092E+2
   4.45874E+2   3.27124E+1
   3.34304E+2   1.99607E+2
   2.79948E+2   2.31667E+2
  -1.23399E+2   2.36863E+2
  -5.34411E+2   4.91992E+1
  -5.63800E+2   4.03372E+1
  -1.00271E+2  -2.25837E+2
   8.97165E+1  -2.16104E+2
   2.68006E+2  -9.07760E+1
   1.96084E+2   2.80365E+2
  -2.66787E+2   4.48115E+2
  -5.65107E+2   8.58332E+1
  -1.63992E+2  -2.33704E+2
  -1.34381E+2  -9.46222E+1
  -3.45307E+1  -3.50899E+0
  -3.02357E+2  -2.56346E+1
   1.73863E+2  -2.95959E+2
   5.56072E+2   2.95441E+2
   3.79088E+2   4.70882E+2
  -3.26824E+2   1.56929E+2
  -6.78462E+2  -7.27519E+1
  -1.36396E+2  -2.92724E+2
   1.32465E+2  -1.63620E+2
   4.72193E+2   2.36358E+2
   6.51672E+1   6.33667E+2
  -2.42611E+2   3.44125E+2
  -3.88799E+2   3.23241E+2
  -3.66641E+2   2.32719E-1
  -2.09603E+2   4.11044E+1
  -1.62855E+2  -9.09827E+1
   2.25141E+0  -2.49460E+2
   2.59072E+2  -4.02276E+2
   4.34143E+2  -8.07689E+1
   4.57855E+2   4.87682E+2
  -2.12512E+2   1.99856E+2
   8.76895E+1   5.11762E+1
  -5.09578E+1   9.47539E+1
   6.47302E+0   3.12720E+2
  -2.92335E+2  -1.27097E+1
  -7.40892E+1  -1.28015E+1
   5.27402E+1   1.56358E+2
  -3.34089E+1   2.47893E+2
  -2.23194E+2  -1.18150E+1
  -1.87812E+2  -2.24866E+2
   1.81019E+2  -2.84354E+2
   2.44712E+2  -1.80713E+2
   3.37287E+2   3.05423E+1
  -4.95439E+1   3.76213E+2
   6.45446E+1  -9.76162E+1
   1.69196E+2  -2.60054E+2
   2.67561E+2  -1.79294E+2
   2.60188E+2   3.08726E+2
   2.28045E+1   1.29317E+2
  -1.25159E+2   1.57587E+1
  -2.26445E+2  -1.44199E+2
   2.44034E+2  -5.36090E+1
  -3.25359E+2   2.53581E+2
  -3.46667E+2   8.89746E+1
  -1.46011E+2  -5.54617E+2
   5.92325E+1  -5.13554E+1
   1.22025E+2   2.98296E+2
   2.07230E+1   4.76764E+2
  -6.61537E+1   1.38909E+2
  -1.80120E+2  -1.34848E+2
  -3.26477E+2  -1.39168E+2
  -5.04721E+1   2.36294E+1
  -9.95146E+1  -2.82113E+2
  -1.19116E+1  -3.96247E+2
   1.70809E+2  -3.00891E+2
   3.60013E+2   1.13034E+2
   1.14979E+2   6.04406E+2
  -4.95223E+2   4.46059E+2
  -1.90288E+2   3.36315E+1
  -1.64618E+2  -3.54622E+2
  -2.55670E+1  -1.68005E+2
   4.53170E+1  -1.98041E+2
   6.64220E+1   2.83292E+2
  -8.91161E+0   1.70512E+2
   1.04231E+2   2.28324E+2
   1.10709E+2   3.57108E+2
  -2.26080E+2   3.57324E+2
  -3.47126E+2  -1.68131E+2
   1.87268E+1  -3.58246E+2
   1.94924E+2  -3.44804E+2
   2.08403E+2  -1.66888E+2
   1.71677E+2   1.71199E+2
  -2.15912E+2  -2.10003E+1
  -9.22812E+1  -4.39585E+1
   9.46594E+1   1.73846E+2
  -5.52793E+1   1.21797E+2
  -2.38040E+2  -3.07907E+2
   3.24333E+1  -4.62190E+2
   3.92819E+2   1.79088E+1
   2.66907E+2   2.23026E+2
  -3.13324E+2   3.12725E+2
  -3.59973E+2   2.23883E+1
  -1.84823E+2  -1.12242E+2
  -2.68750E+2  -3.47432E+2
   1.49066E+2  -1.88793E+2
   3.42601E+1  -1.21046E+1
   1.26779E+2  -1.14453E+2
   1.31932E+2  -3.27298E+2
   1.59494E+1   2.74116E+2
   3.04848E+1   3.87668E+2
  -9.49347E+1   6.59797E+1
  -2.55499E+2  -2.78943E+2
   1.56697E+2  -3.13556E+1
   3.24324E+2  -3.57828E+1
  -6.46766E-2   2.27824E+2
  -1.35008E+2   2.91083E+1
  -1.28379E+2  -4.03435E+1
  -4.35522E+1  -2.66354E+2
  -2.90569E+1   1.37971E+2
  -4.46514E+1   7.78079E+1
  -1.37451E+2  -1.95171E+2
   8.48806E+1  -3.16134E+2
   1.15405E+2   2.15546E+1
  -1.95094E+1  -6.36235E+1
  -5.25285E+1   4.41020E+1
  -1.63704E+2  -1.73506E+2
   1.61975E+2  -2.47351E+1
  -7.75327E+1   1.64436E+2
   9.83334E+1   6.68075E+1
   2.01330E+1   4.79115E+1
   5.00126E+1  -6.85373E+1
  -3.07128E+1  -8.43099E-1
  -4.49572E+1   5.79939E+1
  -1.73491E+2  -2.12279E+2
  -1.39750E+2  -8.82699E+0
   1.04231E+2  -1.47440E+2
  -2.87865E+0  -9.21555E+1
  -4.53153E+1   1.01852E+2
   7.89412E+0   1.32719E+2
  -5.15106E+2  -4.10935E+2
   2.41127E+2  -5.47784E+2
   1.39260E+2  -4.38366E+1
   2.51913E+2  -1.42441E+2
   1.72530E+2   7.51520E+1
   7.30929E+1   7.84208E+1
  -7.69414E+1   4.59512E+2
  -8.28806E+1   2.87282E+1
  -5.06296E+2  -1.48967E+2
  -1.29561E+2  -2.91077E+2
   1.30141E+2  -3.25830E+2
   3.80223E+2  -3.04596E+1
   2.30602E+2   2.47292E+2
   1.44220E+1   5.79786E+1
  -1.10993E+2   1.03784E+2
   8.17052E+1  -8.70970E-1
   8.74339E+1   6.27910E+1
  -9.41455E+1  -2.82461E+2
   1.10340E+2  -1.34378E+2
   4.22052E+1  -1.26651E+2
   1.24915E+2  -6.89650E+1
   6.06800E+1   1.75233E+2
   1.36938E+0   3.24799E+2
  -2.63843E+1   1.08540E+2
  -6.46968E+1  -3.06699E+2
   1.29663E+2  -2.62168E+1
  -9.81000E+0   3.12762E+1
  -7.52049E+1   4.66231E+1
   1.58767E+2   1.10136E+1
   3.94175E+2   5.39407E+1
  -3.94593E+0   2.40080E+2
  -2.65238E+2   3.55168E+1
  -2.06718E+2  -1.92126E+2
  -1.60720E+2  -3.10256E+2
   1.02472E+2  -2.36299E+2
  -4.16192E+1  -9.15312E+1
   2.10062E+2   1.46742E+2
  -1.43623E+2  -8.72389E+1
   3.06233E+1  -7.95318E+1
  -1.95837E+2   8.69287E+0
   1.13796E+2   7.55682E+1
  -8.12667E+1  -1.81960E+2
  -1.06782E+2  -1.92385E+2
  -6.13536E+1  -1.27436E+2
   5.15472E+1  -2.36500E+1
  -2.34906E+1   3.40098E+2
  -7.87602E+1   8.55721E+1
   7.61661E+0  -4.08069E+2
   3.01862E+1  -2.25787E+2
   5.28493E+1  -1.72935E+1
  -2.44121E+2   6.04595E+1
  -2.40136E+2  -7.52067E+1
   3.12167E+1  -1.94664E+2
   1.22371E+2  -2.51098E+2
  -5.23086E+1   1.14375E+2
   9.77710E+1  -1.34118E+2
   7.86625E+1   6.74354E+1
   7.36482E+0  -6.05375E+1
  -4.14437E+1  -1.18249E+2
  -7.15767E+1   1.08937E+2
   1.61575E+2  -1.06660E+2
  -1.70076E+2  -2.02704E+2
   2.34615E+2  -9.81938E+1
   6.47207E+0  -2.18875E+1
  -4.78690E+1   8.84073E+1
  -7.01140E+1   1.54042E+2
   2.47338E+0  -1.99205E+2
  -1.00139E+2  -2.13012E+2
  -2.26565E+1  -2.77659E+1
  -3.90322E+1  -2.34595E+1
  -1.23952E+2   6.94260E+0
   3.57001E+1  -6.37094E+0
   1.49083E+2   6.77100E+1
   1.26026E+2   2.72429E+2
  -2.31799E+1   1.77998E+2
   1.23085E+1  -4.27569E+1
  -1.31030E+2  -5.10200E+1
  -1.83324E+2  -5.11855E+1
  -9.55424E+1  -8.69825E+0
  -2.00065E+1  -1.36540E+1
   1.54014E+2  -2.05754E+2
   4.57556E+1   1.82502E+2
   3.48505E+1   2.04435E+2
   1.75426E+2   2.29825E+2
   2.64947E+1  -1.10467E+2
   5.20673E+1  -1.54334E+2
   2.20305E+1  -1.70000E+2
  -1.58266E+2  -5.50587E+1
   1.34969E+2   9.12189E+1
   5.65156E+1  -1.03651E+2
   1.06681E+2   1.18182E+2
   7.03668E+1   5.83799E+1
   1.43941E+2   2.89438E+1
   2.52845E+1  -1.53701E+2
   2.14231E+2   2.99343E+1
   6.54954E+1  -1.07541E+2
   1.29344E+2  -4.12320E+1
  -7.29546E+1   1.05877E+2
  -7.02607E+1  -3.22333E+1
  -8.39949E+1  -5.22724E+1
   5.94512E+0   8.95147E+1
  -7.73348E+1   2.92366E+1
   6.57527E+1  -1.40028E+2
  -5.41450E+1  -2.21412E+2
   2.39511E+2  -2.45456E+2
   4.25240E+1   1.67337E+2
  -5.54051E+1   3.83990E+2
  -2.07973E+2   6.27928E+1
  -1.24372E+2  -1.45715E+2
  -9.24140E+1   6.69515E+1
   2.78744E+2  -2.39333E+2
   3.39918E+1   1.64580E+2
  -1.10105E+1   2.64244E+1
   8.57570E+1  -3.94503E+1
