 LCModel (Version 6.3-1N) Copyright: S.W. Provencher.          Ref.: Magn. Reson. Med. 30:672-679 (1993).                
 Slice_N1@22_12  28-Feb-2025 11:42:40
 27 lines in following concentration table = NCONC+1
    Conc.  %SD /Cr+PCr  Metabolite                                         
 2.65E-04   7% 2.2E-04 Mac                                                 
    9.586  16%   8.000 Cr                                                  
    0.000 999%   0.000 PCr                                                 
   18.213  12%  15.200 Ins                                                 
    9.150  16%   7.636 NAA                                                 
    0.839 283%   0.701 Tau                                                 
    2.386  17%   1.991 PCho                                                
    0.000 999%   0.000 GPC                                                 
   15.796  12%  13.182 Glu                                                 
    5.812  25%   4.850 Gln                                                 
    3.015  46%   2.516 Ala                                                 
   45.873   8%  38.283 Asc                                                 
    2.999  45%   2.503 Asp                                                 
    0.943  82%   0.787 GABA                                                
    1.458  58%   1.217 Glc                                                 
    2.555  37%   2.132 GSH                                                 
   11.195  13%   9.343 Lac                                                 
    2.477  58%   2.067 NAAG                                                
    0.000 999%   0.000 PE                                                  
    2.386  17%   1.991 GPC+PCho                                            
   11.627  10%   9.703 NAA+NAAG                                            
   21.608  11%  18.032 Glu+Gln                                             
    9.586  16%   8.000 Cr+PCr                                              
   11.627  10%   9.703 NAA+NAAG                                            
    9.586  16%   8.000 Cr+PCr                                              
   21.608  11%  18.032 Glu+Gln                                             
   6 lines in following misc. output table
  FWHM = 0.114 ppm    S/N =   5                                            
  Data shift = 0.008 ppm                                                   
  Ph:-120 deg       0.0 deg/ppm                                            
  alphaB,S = 1.5E-01,   2.1E+01                                            
   13 spline knots.   Ns = 9(2)                                            
  (13)11 infls.   (15) 1 extrs.                                            
  480 points on ppm-axis = NY
      4.100000     4.091866     4.083733     4.075600     4.067466     4.059333     4.051199     4.043066     4.034933     4.026799
      4.018666     4.010532     4.002399     3.994265     3.986132     3.977998     3.969864     3.961731     3.953597     3.945463
      3.937330     3.929196     3.921062     3.912929     3.904795     3.896662     3.888528     3.880394     3.872261     3.864127
      3.855993     3.847860     3.839726     3.831592     3.823459     3.815325     3.807191     3.799058     3.790924     3.782790
      3.774657     3.766523     3.758389     3.750256     3.742122     3.733989     3.725855     3.717721     3.709588     3.701454
      3.693320     3.685187     3.677053     3.668919     3.660786     3.652652     3.644518     3.636385     3.628251     3.620117
      3.611984     3.603850     3.595716     3.587583     3.579449     3.571316     3.563182     3.555048     3.546915     3.538781
      3.530647     3.522514     3.514380     3.506246     3.498113     3.489979     3.481845     3.473712     3.465578     3.457444
      3.449311     3.441177     3.433043     3.424910     3.416776     3.408643     3.400509     3.392375     3.384242     3.376108
      3.367974     3.359841     3.351707     3.343573     3.335440     3.327306     3.319172     3.311039     3.302905     3.294771
      3.286638     3.278504     3.270370     3.262237     3.254103     3.245970     3.237836     3.229702     3.221569     3.213435
      3.205301     3.197168     3.189034     3.180900     3.172767     3.164633     3.156499     3.148366     3.140232     3.132098
      3.123965     3.115831     3.107697     3.099564     3.091430     3.083297     3.075163     3.067029     3.058896     3.050762
      3.042628     3.034495     3.026361     3.018227     3.010094     3.001960     2.993826     2.985693     2.977559     2.969425
      2.961292     2.953158     2.945024     2.936891     2.928757     2.920624     2.912490     2.904356     2.896223     2.888089
      2.879955     2.871822     2.863688     2.855554     2.847421     2.839287     2.831153     2.823020     2.814886     2.806752
      2.798619     2.790485     2.782351     2.774218     2.766084     2.757951     2.749817     2.741683     2.733550     2.725416
      2.717282     2.709149     2.701015     2.692881     2.684748     2.676614     2.668480     2.660347     2.652213     2.644079
      2.635946     2.627812     2.619678     2.611545     2.603411     2.595278     2.587144     2.579010     2.570877     2.562743
      2.554609     2.546476     2.538342     2.530208     2.522075     2.513941     2.505807     2.497674     2.489540     2.481406
      2.473273     2.465139     2.457006     2.448872     2.440738     2.432605     2.424471     2.416337     2.408204     2.400070
      2.391936     2.383803     2.375669     2.367535     2.359402     2.351268     2.343134     2.335001     2.326867     2.318733
      2.310600     2.302466     2.294333     2.286199     2.278065     2.269932     2.261798     2.253664     2.245531     2.237397
      2.229263     2.221130     2.212996     2.204862     2.196729     2.188595     2.180461     2.172328     2.164194     2.156060
      2.147927     2.139793     2.131660     2.123526     2.115392     2.107259     2.099125     2.090991     2.082858     2.074724
      2.066590     2.058457     2.050323     2.042189     2.034056     2.025922     2.017788     2.009655     2.001521     1.993387
      1.985254     1.977120     1.968987     1.960853     1.952719     1.944586     1.936452     1.928318     1.920185     1.912051
      1.903917     1.895784     1.887650     1.879516     1.871383     1.863249     1.855115     1.846982     1.838848     1.830714
      1.822581     1.814447     1.806314     1.798180     1.790046     1.781913     1.773779     1.765645     1.757512     1.749378
      1.741244     1.733111     1.724977     1.716843     1.708710     1.700576     1.692442     1.684309     1.676175     1.668041
      1.659908     1.651774     1.643641     1.635507     1.627373     1.619240     1.611106     1.602972     1.594839     1.586705
      1.578571     1.570438     1.562304     1.554170     1.546037     1.537903     1.529769     1.521636     1.513502     1.505368
      1.497235     1.489101     1.480968     1.472834     1.464700     1.456567     1.448433     1.440299     1.432166     1.424032
      1.415898     1.407765     1.399631     1.391497     1.383364     1.375230     1.367096     1.358963     1.350829     1.342695
      1.334562     1.326428     1.318295     1.310161     1.302027     1.293894     1.285760     1.277626     1.269493     1.261359
      1.253225     1.245092     1.236958     1.228824     1.220691     1.212557     1.204423     1.196290     1.188156     1.180022
      1.171889     1.163755     1.155622     1.147488     1.139354     1.131221     1.123087     1.114953     1.106820     1.098686
      1.090552     1.082419     1.074285     1.066151     1.058018     1.049884     1.041750     1.033617     1.025483     1.017349
      1.009216     1.001082     0.992949     0.984815     0.976681     0.968548     0.960414     0.952280     0.944147     0.936013
      0.927879     0.919746     0.911612     0.903478     0.895345     0.887211     0.879077     0.870944     0.862810     0.854676
      0.846543     0.838409     0.830276     0.822142     0.814008     0.805875     0.797741     0.789607     0.781474     0.773340
      0.765206     0.757073     0.748939     0.740805     0.732672     0.724538     0.716404     0.708271     0.700137     0.692003
      0.683870     0.675736     0.667603     0.659469     0.651335     0.643202     0.635068     0.626934     0.618801     0.610667
      0.602533     0.594400     0.586266     0.578132     0.569999     0.561865     0.553731     0.545598     0.537464     0.529330
      0.521197     0.513063     0.504930     0.496796     0.488662     0.480529     0.472395     0.464261     0.456128     0.447994
      0.439861     0.431727     0.423593     0.415460     0.407326     0.399192     0.391059     0.382925     0.374792     0.366658
      0.358524     0.350391     0.342257     0.334124     0.325990     0.317856     0.309723     0.301589     0.293455     0.285322
      0.277188     0.269055     0.260921     0.252787     0.244654     0.236520     0.228386     0.220253     0.212119     0.203986
 NY phased data points follow
   7.06493E+01  8.89807E+01  9.22972E+01  8.16054E+01  8.16948E+01  8.83776E+01  9.75133E+01  9.21743E+01  7.64278E+01  8.47729E+01
   9.13655E+01  8.39155E+01  8.71382E+01  1.02313E+02  1.05180E+02  8.71291E+01  9.57928E+01  8.06524E+01  7.30556E+01  1.02018E+02
   1.03608E+02  1.06986E+02  9.55244E+01  1.14031E+02  1.11723E+02  1.01551E+02  1.20492E+02  1.03485E+02  1.14267E+02  1.03580E+02
   9.34642E+01  7.95915E+01  4.75588E+01  4.50154E+01  2.58488E+01 -2.77023E+00 -2.85661E+01 -4.17650E+01 -5.88884E+01 -4.70984E+01
  -4.72791E+01 -6.44924E+01 -6.71780E+01 -8.28963E+01 -7.83491E+01 -9.73962E+01 -9.63244E+01 -7.66723E+01 -6.92870E+01 -6.42826E+01
  -7.63741E+01 -5.29584E+01 -4.34945E+01 -4.98629E+01 -5.25926E+01 -6.29875E+01 -3.32718E+01 -2.70356E+01 -3.78417E+01 -9.12229E+00
  -3.12286E+01 -4.55554E+01 -3.11026E+01 -5.36410E+01 -4.59478E+01 -3.69890E+01 -3.19726E+01 -3.21844E+01 -3.33108E+01 -1.21444E+01
  -1.29351E+01 -2.92231E+01 -3.71781E+01 -1.95029E+01 -2.86432E+01 -3.06412E+01 -7.31221E+00 -1.46338E+01 -1.71785E+01 -1.74335E+01
  -1.94309E+00  1.21792E+01 -3.22848E+00 -6.40992E+00  9.85145E+00  3.77120E+00 -2.56381E+00  6.19160E+00  9.60234E+00  1.81053E+01
  -5.30860E+00  8.62831E+00  3.69280E+01  1.67294E+01  2.24728E+01  2.34804E+01  3.69979E+01  5.02334E+01  4.12812E+01  4.88660E+01
   3.28183E+01  1.75159E+01  2.76030E+01  1.26293E+01 -5.98629E+00 -6.10036E+00 -1.33950E+01 -2.71239E+00 -1.50233E+01 -4.05093E+01
  -2.57598E+01 -2.42069E+01 -4.30583E+01 -5.20040E+01 -5.14086E+01 -5.42596E+01 -4.05994E+01 -3.73746E+01 -3.82624E+01 -1.56528E+01
  -7.12193E+00 -9.55891E+00 -1.87986E+01 -6.82515E+00  1.53018E+01  2.24539E+01  1.77645E+01  2.10022E+01  2.60903E+01  1.87475E+01
   2.06003E+01 -2.72913E-01  1.38877E+01  3.63450E+01 -3.77604E-01 -1.77667E+01 -2.39916E+01 -2.21231E+01 -3.00387E+01 -6.09585E+01
  -4.91143E+01 -5.54711E+01 -7.29502E+01 -5.01206E+01 -5.32824E+01 -5.77317E+01 -6.17364E+01 -6.28593E+01 -6.01868E+01 -6.50336E+01
  -5.47428E+01 -6.21997E+01 -5.22154E+01 -4.54065E+01 -4.78711E+01 -4.08204E+01 -4.59166E+01 -3.78399E+01 -3.22391E+01 -3.30402E+01
  -3.56883E+01 -2.26642E+01 -2.01407E+01 -3.31818E+01 -3.00808E+01 -3.35440E+01 -3.15778E+01 -2.42795E+01 -1.85181E+01 -1.46372E+01
  -1.38186E+01 -9.17114E+00 -2.22263E+01 -2.44490E+01 -1.22510E+01 -1.15169E+01 -2.23951E+00 -2.21647E+01 -1.40651E+01 -1.80081E+00
  -2.71331E+01 -1.36290E+01 -2.22960E+01 -1.20807E+01 -1.37787E+01 -4.09838E+01 -2.88212E+01 -3.40350E+01 -4.12194E+01 -4.32763E+01
  -3.07512E+01 -3.12613E+01 -3.39270E+01 -2.54313E+01 -3.05519E+01 -2.65895E+01 -1.71086E+01 -2.33216E+01 -2.88016E+01 -2.53109E+01
  -3.53540E+01 -1.89258E+01 -2.75148E+01 -2.35493E+01 -3.33288E+00 -2.70674E+01 -1.69617E+01 -1.64258E+01 -2.46883E+01 -2.95103E+01
  -2.49065E+01 -1.16308E+01 -1.70858E+01 -1.67408E+01 -1.12767E+01 -2.52596E+00 -1.16651E+01 -1.80881E+00  1.15449E+01  7.68198E+00
   2.37916E+01  1.69323E+01  8.01142E+00  1.76095E+01  6.08775E+00  1.28691E+01  1.40536E+01 -2.96169E+00 -2.30200E+00 -8.69173E+00
  -1.56223E+01 -2.48909E+01 -9.28800E+00 -1.99434E+01 -4.99616E+01 -4.02201E+01 -5.11123E+01 -5.37561E+01 -4.34853E+01 -5.04423E+01
  -6.23492E+01 -5.80048E+01 -5.56513E+01 -5.41843E+01 -5.46239E+01 -6.19596E+01 -4.83515E+01 -5.62388E+01 -6.12503E+01 -4.85287E+01
  -4.49714E+01 -5.36266E+01 -5.11940E+01 -3.28755E+01 -2.99568E+01 -1.82002E+01  7.91493E+00  1.76412E+01 -1.93577E+01 -2.77054E+01
   4.10665E+01  7.58963E+01  5.56674E+01  5.79761E+01  6.34684E+01  6.39278E+01  6.41802E+01  6.63740E+01  9.12064E+01  8.12366E+01
   6.19030E+01  6.75650E+01  7.67677E+01  6.82161E+01  5.61368E+01  6.58980E+01  6.19390E+01  7.03577E+01  9.12553E+01  8.34180E+01
   6.42168E+01  6.10864E+01  5.95511E+01  6.04079E+01  5.76157E+01  4.98226E+01  5.68029E+01  6.24920E+01  5.40355E+01  4.59978E+01
   4.41432E+01  3.85136E+01  4.26803E+01  3.31694E+01  4.73983E+01  4.48374E+01  2.39585E+01  3.72276E+01  2.17411E+01  3.70592E+01
   4.10303E+01  3.30086E+01  4.36878E+01  4.94174E+01  5.43236E+01  5.32506E+01  7.03372E+01  6.20844E+01  6.30898E+01  6.52510E+01
   6.93919E+01  7.53061E+01  7.58650E+01  7.58757E+01  7.15303E+01  8.43802E+01  8.39644E+01  1.08772E+02  9.33375E+01  8.51888E+01
   1.18166E+02  1.06105E+02  1.04211E+02  1.01298E+02  9.15443E+01  8.73905E+01  8.71681E+01  8.64645E+01  7.44483E+01  5.78599E+01
   5.15275E+01  5.93157E+01  6.65556E+01  4.72963E+01  4.83522E+01  5.40391E+01  2.17179E+01  2.16013E+01  2.07116E+01  1.61614E+01
   6.22731E+00 -4.25969E+00 -1.49167E+01 -1.21039E+01  2.02100E-01 -9.97968E+00  1.24049E+01  1.88174E+00 -4.20585E+00  6.58451E+00
   1.14942E+01  1.15791E+01 -3.76833E+00 -2.57613E+00 -6.48425E+00  3.02641E+00 -6.83012E+00  4.47699E+00  7.71389E+00 -2.18330E+00
   5.36281E+00  4.42570E+00  1.62944E+01  1.04061E+01  1.42200E+01  1.57512E+01  1.54204E+01  9.28067E+00  2.11534E+01  2.70077E+01
   1.92860E+01  2.51682E+01  1.44733E+01  3.64212E+01  3.31659E+01  3.16442E+01  5.42971E+01  5.95161E+01  6.19774E+01  5.10731E+01
   5.26680E+01  8.01915E+01  7.82626E+01  6.36750E+01  8.63548E+01  8.22028E+01  8.46676E+01  8.20400E+01  9.20675E+01  1.04937E+02
   9.45137E+01  1.01899E+02  8.32081E+01  9.61163E+01  8.84243E+01  8.42259E+01  8.62721E+01  5.89177E+01  5.27003E+01  4.04008E+01
   6.86001E+01  5.49593E+01  1.61749E+01  2.30127E+01  1.84286E+01  1.52349E+01  1.63230E+01  2.96527E+00 -1.29560E-01  1.48778E+01
   7.26624E+00  9.82606E+00  7.63626E+00 -1.40438E+01 -1.02897E+00  1.08182E+01 -1.98722E-01  4.30541E+00  9.84184E+00 -9.56514E-01
  -5.67559E+00 -7.52053E+00 -1.59678E+01 -1.08265E+00  1.71236E+01  1.04747E-01 -5.96106E+00 -5.29146E+00 -3.49499E+00  1.42586E+00
  -2.11264E+00  3.05311E+00 -1.34397E+00 -6.97442E+00 -1.00151E+00 -1.66172E+00 -8.11403E+00  3.40146E+00  2.63169E+00  2.31172E+00
   1.24405E+01 -1.09029E-01 -8.54482E+00 -3.39037E+00  2.29271E+00 -5.59963E+00  7.66709E+00  1.28481E+01  2.63961E+00  1.87556E+01
   1.05542E+01 -4.37442E+00  5.27582E-01 -9.86208E+00 -1.80959E+00  1.25974E+01  6.57028E-01  1.16073E+01 -1.61606E+00 -3.78607E-01
   1.31804E+01 -3.19754E+00  6.70630E+00  6.61824E+00  1.43879E+01  7.73748E+00 -5.74492E+00  4.67568E+00  1.91274E+01  2.56397E+00
  -7.85771E+00  1.05710E+01 -4.34623E+00  9.76797E+00  2.16814E+01  1.81643E+01  1.69765E+00  6.84385E+00  9.14245E+00 -6.11393E+00
 NY points of the fit to the data follow
   8.34625E+01  8.56445E+01  7.35389E+01  7.78596E+01  6.97450E+01  7.45687E+01  6.94351E+01  7.72063E+01  7.57814E+01  7.94451E+01
   7.39393E+01  7.74407E+01  7.53609E+01  7.90781E+01  8.11793E+01  8.38508E+01  9.05069E+01  9.02164E+01  9.60371E+01  9.44752E+01
   1.00123E+02  9.82591E+01  1.04381E+02  1.02160E+02  1.07011E+02  1.05720E+02  1.15655E+02  1.11371E+02  1.12870E+02  1.02187E+02
   9.78110E+01  7.98166E+01  6.79551E+01  4.68403E+01  3.31128E+01  9.48058E+00 -5.73967E+00 -2.60318E+01 -3.81947E+01 -5.03086E+01
  -5.72724E+01 -6.49182E+01 -6.98447E+01 -7.43245E+01 -8.03596E+01 -8.67748E+01 -9.00905E+01 -8.31896E+01 -7.91727E+01 -6.93012E+01
  -6.39291E+01 -5.39569E+01 -5.06000E+01 -4.43757E+01 -3.94504E+01 -3.28251E+01 -2.96035E+01 -2.64675E+01 -2.40854E+01 -2.09866E+01
  -2.49126E+01 -2.76805E+01 -2.48269E+01 -2.74231E+01 -2.74481E+01 -2.68047E+01 -2.54771E+01 -2.59679E+01 -2.67767E+01 -2.79942E+01
  -2.96683E+01 -3.51909E+01 -3.29194E+01 -3.16293E+01 -3.13520E+01 -2.79364E+01 -2.38414E+01 -1.96451E+01 -1.62206E+01 -1.36977E+01
  -1.02551E+01 -5.05785E+00 -2.78351E+00  2.06041E+00  5.97570E+00  1.04708E+01  1.38072E+01  1.72802E+01  2.16820E+01  2.57897E+01
   2.75260E+01  2.90521E+01  3.32993E+01  3.37687E+01  3.54255E+01  3.55827E+01  3.47195E+01  3.45195E+01  3.08820E+01  2.91818E+01
   2.50341E+01  2.24096E+01  1.50539E+01  1.18280E+01 -1.11946E+00 -3.62247E+00 -1.33647E+01 -1.61722E+01 -2.38779E+01 -2.41003E+01
  -2.96296E+01 -2.79314E+01 -4.01890E+01 -4.34784E+01 -4.51774E+01 -4.09541E+01 -3.97411E+01 -3.32735E+01 -2.85891E+01 -1.89668E+01
  -1.73079E+01 -1.08489E+01 -5.97552E+00  2.56932E+00  5.43663E+00  1.01584E+01  1.06277E+01  1.07133E+01  9.37304E+00  6.87417E+00
   6.48843E+00  5.29212E+00  4.83835E+00  4.92541E+00 -2.60557E+00 -1.52226E+01 -1.97809E+01 -2.64992E+01 -3.04745E+01 -3.64563E+01
  -3.84135E+01 -4.12427E+01 -4.40521E+01 -4.92551E+01 -5.09475E+01 -5.34393E+01 -5.41570E+01 -5.53540E+01 -5.48247E+01 -5.43580E+01
  -5.43234E+01 -5.54973E+01 -5.40539E+01 -5.21006E+01 -5.09236E+01 -4.91028E+01 -4.78325E+01 -4.60323E+01 -4.46019E+01 -4.32943E+01
  -4.20426E+01 -4.05421E+01 -3.88928E+01 -3.65857E+01 -3.42222E+01 -3.21788E+01 -2.99247E+01 -2.81993E+01 -2.64359E+01 -2.47891E+01
  -2.33771E+01 -2.20963E+01 -2.07704E+01 -2.01434E+01 -1.85610E+01 -1.92816E+01 -1.99491E+01 -2.10922E+01 -2.13426E+01 -2.16710E+01
  -2.22792E+01 -2.44066E+01 -2.51282E+01 -2.64297E+01 -2.78033E+01 -2.89798E+01 -2.95674E+01 -2.96743E+01 -2.96573E+01 -2.97714E+01
  -2.88753E+01 -2.86196E+01 -2.73100E+01 -2.64904E+01 -2.47723E+01 -2.36220E+01 -2.13858E+01 -2.05223E+01 -2.07560E+01 -2.15674E+01
  -2.12474E+01 -2.36813E+01 -2.35895E+01 -2.69280E+01 -2.51663E+01 -2.72503E+01 -2.48085E+01 -2.72622E+01 -2.20398E+01 -2.31752E+01
  -1.77543E+01 -1.63256E+01 -1.15247E+01 -8.70963E+00 -5.20315E+00 -2.41422E+00  3.07296E+00  5.49029E+00  1.13869E+01  1.57379E+01
   1.64624E+01  2.05118E+01  1.78278E+01  1.74945E+01  1.33405E+01  1.13217E+01  6.25685E+00  2.82266E+00 -3.66319E+00 -8.28611E+00
  -1.50737E+01 -2.05838E+01 -2.67351E+01 -3.16280E+01 -3.66000E+01 -4.07520E+01 -4.56758E+01 -4.91012E+01 -5.07029E+01 -5.34563E+01
  -5.74896E+01 -5.79708E+01 -6.19518E+01 -6.17610E+01 -6.55403E+01 -6.37111E+01 -6.28840E+01 -5.94145E+01 -5.86123E+01 -5.52690E+01
  -4.89236E+01 -4.56733E+01 -3.41759E+01 -3.06963E+01 -1.94940E+01 -1.49724E+01 -1.51465E+00  2.54786E-01  9.39011E+00  1.02209E+01
   3.19216E+01  3.31248E+01  4.56022E+01  4.55875E+01  5.66440E+01  5.55731E+01  6.20336E+01  6.05172E+01  6.84339E+01  6.74089E+01
   7.17164E+01  7.06510E+01  7.40073E+01  7.24432E+01  7.35366E+01  7.25272E+01  7.47669E+01  7.40885E+01  7.26105E+01  7.14271E+01
   6.98163E+01  6.84105E+01  6.66855E+01  6.51043E+01  6.32779E+01  6.15558E+01  5.96909E+01  5.80332E+01  5.63932E+01  5.48539E+01
   5.34870E+01  5.21558E+01  5.11721E+01  5.01462E+01  4.95907E+01  4.90399E+01  4.90896E+01  4.91522E+01  4.98404E+01  5.05655E+01
   5.17982E+01  5.30706E+01  5.47497E+01  5.64792E+01  5.84682E+01  6.08496E+01  6.34196E+01  6.60736E+01  6.93341E+01  7.19105E+01
   7.49893E+01  7.70375E+01  7.92248E+01  8.08546E+01  8.17610E+01  8.23720E+01  8.14738E+01  8.10761E+01  7.76798E+01  7.68071E+01
   7.17616E+01  7.05673E+01  6.48208E+01  6.53875E+01  5.97708E+01  6.13944E+01  5.62558E+01  5.87071E+01  5.44837E+01  5.53191E+01
   5.44527E+01  5.33834E+01  5.45528E+01  4.93704E+01  5.25801E+01  4.25206E+01  4.58636E+01  3.46247E+01  3.91288E+01  2.85361E+01
   3.44331E+01  2.38744E+01  3.05307E+01  1.40323E+01  1.88821E+01  3.64333E+00  6.33013E+00 -2.93941E+00  1.24436E+00 -5.27857E+00
  -1.43537E+00 -7.42283E+00 -4.19036E+00 -8.78767E+00 -6.69451E+00 -8.79132E+00 -6.29450E+00 -6.92679E+00 -4.44817E+00 -4.83558E+00
  -2.60595E+00 -1.10091E+00  1.17820E+00  4.07179E+00  7.26451E+00  9.89039E+00  1.30878E+01  1.58892E+01  1.94230E+01  2.28212E+01
   2.70362E+01  3.11024E+01  3.60236E+01  4.06793E+01  4.61201E+01  5.10449E+01  5.66858E+01  6.15086E+01  6.69430E+01  7.12901E+01
   7.60594E+01  7.94288E+01  8.31378E+01  8.54694E+01  8.80129E+01  8.91514E+01  9.03023E+01  8.99804E+01  8.94264E+01  8.73770E+01
   8.49614E+01  8.16075E+01  7.80178E+01  7.40004E+01  6.96252E+01  6.53597E+01  6.05626E+01  5.59737E+01  5.07867E+01  4.62366E+01
   4.11033E+01  3.67703E+01  3.20987E+01  2.83694E+01  2.42687E+01  2.10491E+01  1.76303E+01  1.50845E+01  1.23610E+01  1.03515E+01
   8.26871E+00  6.79391E+00  5.25577E+00  4.21702E+00  3.08003E+00  2.38458E+00  1.61999E+00  1.23530E+00  7.22920E-01  4.87348E-01
   2.31563E-01  2.16874E-01  7.78656E-02  6.08461E-02  8.22759E-02  1.12110E-01  2.29015E-01  2.14511E-01  4.40677E-01  5.34990E-01
   7.94283E-01  8.73921E-01  1.14595E+00  1.25171E+00  1.52663E+00  1.60813E+00  1.90618E+00  2.06828E+00  2.32931E+00  2.50661E+00
   2.76335E+00  2.95732E+00  3.17789E+00  3.42550E+00  3.56885E+00  3.88039E+00  3.97009E+00  4.33726E+00  4.39173E+00  4.75234E+00
   4.74895E+00  5.17676E+00  5.06415E+00  5.51874E+00  5.37925E+00  5.83565E+00  5.65044E+00  6.07682E+00  5.83630E+00  6.26635E+00
   5.97969E+00  6.36856E+00  6.00935E+00  6.25986E+00  5.86600E+00  5.99958E+00  5.51289E+00  5.57896E+00  5.03479E+00  5.02843E+00
   4.37852E+00  4.21969E+00  3.41076E+00  3.13755E+00  2.26290E+00  1.88148E+00  8.67988E-01  2.91355E-01 -9.15011E-01 -1.88587E+00
 NY background values follow
     1.646E+02    1.617E+02    1.587E+02    1.558E+02    1.529E+02    1.500E+02    1.471E+02    1.442E+02    1.413E+02    1.383E+02
     1.354E+02    1.325E+02    1.296E+02    1.267E+02    1.239E+02    1.210E+02    1.181E+02    1.153E+02    1.124E+02    1.096E+02
     1.068E+02    1.040E+02    1.012E+02    9.840E+01    9.564E+01    9.291E+01    9.019E+01    8.749E+01    8.481E+01    8.216E+01
     7.953E+01    7.692E+01    7.434E+01    7.178E+01    6.925E+01    6.675E+01    6.428E+01    6.184E+01    5.943E+01    5.705E+01
     5.470E+01    5.239E+01    5.012E+01    4.788E+01    4.567E+01    4.351E+01    4.138E+01    3.930E+01    3.725E+01    3.525E+01
     3.329E+01    3.137E+01    2.949E+01    2.765E+01    2.585E+01    2.410E+01    2.238E+01    2.070E+01    1.907E+01    1.747E+01
     1.592E+01    1.440E+01    1.292E+01    1.148E+01    1.008E+01    8.719E+00    7.396E+00    6.111E+00    4.863E+00    3.654E+00
     2.481E+00    1.347E+00    2.487E-01   -8.123E-01   -1.837E+00   -2.824E+00   -3.776E+00   -4.692E+00   -5.572E+00   -6.416E+00
    -7.225E+00   -7.998E+00   -8.737E+00   -9.440E+00   -1.011E+01   -1.074E+01   -1.135E+01   -1.191E+01   -1.245E+01   -1.294E+01
    -1.341E+01   -1.384E+01   -1.424E+01   -1.461E+01   -1.495E+01   -1.525E+01   -1.552E+01   -1.576E+01   -1.597E+01   -1.614E+01
    -1.629E+01   -1.641E+01   -1.650E+01   -1.657E+01   -1.661E+01   -1.662E+01   -1.661E+01   -1.657E+01   -1.651E+01   -1.643E+01
    -1.632E+01   -1.620E+01   -1.605E+01   -1.589E+01   -1.570E+01   -1.550E+01   -1.528E+01   -1.505E+01   -1.480E+01   -1.453E+01
    -1.425E+01   -1.396E+01   -1.365E+01   -1.333E+01   -1.300E+01   -1.266E+01   -1.231E+01   -1.196E+01   -1.159E+01   -1.122E+01
    -1.084E+01   -1.045E+01   -1.006E+01   -9.664E+00   -9.265E+00   -8.864E+00   -8.461E+00   -8.057E+00   -7.652E+00   -7.248E+00
    -6.845E+00   -6.443E+00   -6.045E+00   -5.649E+00   -5.258E+00   -4.872E+00   -4.490E+00   -4.114E+00   -3.742E+00   -3.375E+00
    -3.014E+00   -2.658E+00   -2.307E+00   -1.962E+00   -1.622E+00   -1.288E+00   -9.598E-01   -6.372E-01   -3.206E-01   -9.923E-03
     2.947E-01    5.931E-01    8.852E-01    1.171E+00    1.450E+00    1.723E+00    1.989E+00    2.249E+00    2.501E+00    2.747E+00
     2.986E+00    3.218E+00    3.442E+00    3.660E+00    3.870E+00    4.072E+00    4.267E+00    4.455E+00    4.634E+00    4.806E+00
     4.970E+00    5.126E+00    5.274E+00    5.414E+00    5.546E+00    5.669E+00    5.784E+00    5.890E+00    5.988E+00    6.077E+00
     6.158E+00    6.229E+00    6.292E+00    6.345E+00    6.390E+00    6.426E+00    6.454E+00    6.474E+00    6.486E+00    6.490E+00
     6.486E+00    6.476E+00    6.458E+00    6.433E+00    6.401E+00    6.363E+00    6.318E+00    6.267E+00    6.210E+00    6.148E+00
     6.080E+00    6.006E+00    5.927E+00    5.843E+00    5.755E+00    5.662E+00    5.564E+00    5.462E+00    5.357E+00    5.247E+00
     5.134E+00    5.017E+00    4.897E+00    4.774E+00    4.648E+00    4.520E+00    4.389E+00    4.256E+00    4.121E+00    3.984E+00
     3.846E+00    3.705E+00    3.564E+00    3.422E+00    3.278E+00    3.135E+00    2.990E+00    2.845E+00    2.701E+00    2.556E+00
     2.412E+00    2.268E+00    2.125E+00    1.983E+00    1.842E+00    1.703E+00    1.565E+00    1.429E+00    1.295E+00    1.163E+00
     1.034E+00    9.082E-01    7.849E-01    6.649E-01    5.482E-01    4.352E-01    3.261E-01    2.211E-01    1.204E-01    2.418E-02
    -6.722E-02   -1.536E-01   -2.348E-01   -3.106E-01   -3.807E-01   -4.450E-01   -5.031E-01   -5.549E-01   -6.001E-01   -6.386E-01
    -6.701E-01   -6.944E-01   -7.112E-01   -7.204E-01   -7.216E-01   -7.148E-01   -6.996E-01   -6.759E-01   -6.434E-01   -6.018E-01
    -5.511E-01   -4.909E-01   -4.210E-01   -3.413E-01   -2.514E-01   -1.512E-01   -4.037E-02    8.121E-02    2.138E-01    3.572E-01
     5.110E-01    6.749E-01    8.484E-01    1.031E+00    1.223E+00    1.423E+00    1.630E+00    1.846E+00    2.068E+00    2.298E+00
     2.533E+00    2.775E+00    3.022E+00    3.274E+00    3.531E+00    3.792E+00    4.057E+00    4.325E+00    4.596E+00    4.870E+00
     5.147E+00    5.425E+00    5.704E+00    5.984E+00    6.265E+00    6.546E+00    6.827E+00    7.107E+00    7.386E+00    7.663E+00
     7.939E+00    8.212E+00    8.483E+00    8.750E+00    9.014E+00    9.274E+00    9.529E+00    9.780E+00    1.003E+01    1.027E+01
     1.050E+01    1.073E+01    1.095E+01    1.116E+01    1.137E+01    1.156E+01    1.175E+01    1.193E+01    1.210E+01    1.227E+01
     1.243E+01    1.257E+01    1.272E+01    1.285E+01    1.298E+01    1.310E+01    1.322E+01    1.333E+01    1.343E+01    1.353E+01
     1.363E+01    1.371E+01    1.380E+01    1.388E+01    1.395E+01    1.403E+01    1.409E+01    1.416E+01    1.422E+01    1.428E+01
     1.434E+01    1.439E+01    1.444E+01    1.449E+01    1.454E+01    1.459E+01    1.463E+01    1.468E+01    1.472E+01    1.477E+01
     1.481E+01    1.486E+01    1.490E+01    1.495E+01    1.500E+01    1.504E+01    1.509E+01    1.514E+01    1.520E+01    1.525E+01
     1.531E+01    1.537E+01    1.543E+01    1.550E+01    1.557E+01    1.565E+01    1.572E+01    1.580E+01    1.589E+01    1.598E+01
     1.607E+01    1.617E+01    1.628E+01    1.638E+01    1.649E+01    1.661E+01    1.673E+01    1.686E+01    1.699E+01    1.713E+01
     1.727E+01    1.742E+01    1.758E+01    1.774E+01    1.790E+01    1.808E+01    1.825E+01    1.844E+01    1.863E+01    1.883E+01
     1.903E+01    1.924E+01    1.946E+01    1.968E+01    1.992E+01    2.015E+01    2.040E+01    2.066E+01    2.092E+01    2.119E+01
     2.146E+01    2.175E+01    2.204E+01    2.234E+01    2.265E+01    2.297E+01    2.330E+01    2.363E+01    2.398E+01    2.433E+01
     2.469E+01    2.506E+01    2.544E+01    2.583E+01    2.623E+01    2.664E+01    2.705E+01    2.748E+01    2.791E+01    2.835E+01
     2.880E+01    2.926E+01    2.972E+01    3.019E+01    3.067E+01    3.116E+01    3.165E+01    3.215E+01    3.266E+01    3.317E+01
     3.369E+01    3.421E+01    3.474E+01    3.528E+01    3.582E+01    3.637E+01    3.692E+01    3.748E+01    3.804E+01    3.861E+01
     3.918E+01    3.976E+01    4.034E+01    4.092E+01    4.151E+01    4.211E+01    4.270E+01    4.330E+01    4.390E+01    4.451E+01
     4.512E+01    4.573E+01    4.634E+01    4.696E+01    4.758E+01    4.820E+01    4.882E+01    4.944E+01    5.007E+01    5.070E+01
 Mac      Conc. = 2.65E-04
   1.48270E+02  1.44585E+02  1.40657E+02  1.36908E+02  1.32970E+02  1.29274E+02  1.25331E+02  1.21591E+02  1.17728E+02  1.14243E+02
   1.10667E+02  1.07624E+02  1.04457E+02  1.01739E+02  9.89581E+01  9.64391E+01  9.38697E+01  9.15211E+01  8.94219E+01  8.77385E+01
   8.59441E+01  8.43477E+01  8.28757E+01  8.14056E+01  7.98901E+01  7.83165E+01  7.68781E+01  7.54372E+01  7.40499E+01  7.27254E+01
   7.14744E+01  7.01506E+01  6.87917E+01  6.74402E+01  6.60122E+01  6.46602E+01  6.30979E+01  6.16828E+01  6.01581E+01  5.87281E+01
   5.70051E+01  5.52437E+01  5.32997E+01  5.14768E+01  4.95114E+01  4.77579E+01  4.58048E+01  4.40316E+01  4.21130E+01  4.03107E+01
   3.84204E+01  3.66129E+01  3.48235E+01  3.30778E+01  3.14010E+01  2.96932E+01  2.80474E+01  2.63851E+01  2.49551E+01  2.35162E+01
   2.21765E+01  2.09534E+01  1.98756E+01  1.87776E+01  1.77479E+01  1.67677E+01  1.57569E+01  1.49406E+01  1.39305E+01  1.31764E+01
   1.21920E+01  1.15663E+01  1.08343E+01  1.03089E+01  9.58732E+00  9.14854E+00  8.45896E+00  8.06661E+00  7.47391E+00  7.10093E+00
   6.69605E+00  6.42154E+00  6.05560E+00  5.85370E+00  5.57273E+00  5.46050E+00  5.14150E+00  5.06280E+00  4.74807E+00  4.54589E+00
   3.94413E+00  3.49318E+00  2.56616E+00  1.69852E+00  3.69273E-01 -9.39599E-01 -2.73237E+00 -4.55919E+00 -6.78778E+00 -8.95916E+00
  -1.13040E+01 -1.34451E+01 -1.56736E+01 -1.77194E+01 -1.97098E+01 -2.15932E+01 -2.34141E+01 -2.51848E+01 -2.66756E+01 -2.76456E+01
