 
 $NMID
 ID=''
 FMTDAT='(2E13.5)'
 TRAMP=   1.00000E+0
 VOLUME=   1.00000E+0
 $END
   6.86834E+3   1.80048E+4
   3.04531E+4   1.66270E+4
   2.23083E+4  -3.33235E+4
  -2.48927E+4  -2.71360E+4
  -2.86694E+4   2.69133E+4
   1.46784E+4   2.75494E+4
   2.53556E+4  -1.59599E+4
  -4.82127E+3  -2.31968E+4
  -1.91756E+4   4.97398E+3
  -2.23532E+3   1.88759E+4
   1.38323E+4   6.53582E+3
   6.80394E+3  -1.02324E+4
  -8.46073E+3  -7.04875E+3
  -8.43819E+3   6.98379E+3
   1.87675E+3   6.29318E+3
   4.97456E+3  -4.09487E+3
   6.20221E+2  -4.66965E+3
  -2.58216E+3   4.73092E+2
  -1.33817E+3   1.85969E+3
   1.66744E+3   6.97919E+2
   1.19776E+3  -5.77379E+2
  -4.84415E+2  -1.73817E+3
   7.15820E+2  -2.80322E+2
   6.16680E+2   9.43489E+2
  -1.38917E+3  -2.72351E+2
   7.07758E+2  -1.12154E+3
   2.70095E+3  -2.18728E+2
  -2.37846E+2   1.11524E+3
  -2.12564E+3  -2.32624E+2
   3.09192E+1  -8.69478E+2
   1.40419E+3   5.74165E+2
  -1.08398E+2   9.29465E+2
  -1.27248E+3  -7.27528E+2
  -1.31100E+3  -3.65579E+2
  -1.08640E+3  -6.99392E+2
   9.69320E+2  -1.59216E+3
   1.68447E+3  -4.80452E+2
   4.09082E+2   9.51835E+2
  -5.55115E+2  -7.66955E+1
  -2.29920E+2  -4.42084E+2
  -3.79376E+2   4.10384E+2
  -1.24884E+3   2.84079E+2
  -1.45877E+2  -1.21799E+3
   8.64081E+2  -1.30216E+3
   4.43893E+2  -3.16139E+2
   2.21288E+2   1.12927E+3
   3.36611E+2   1.38137E+3
  -5.65348E+2   9.92005E+2
  -1.28477E+3  -1.80603E+2
  -1.15814E+3  -9.23291E+2
  -6.60534E+2  -6.95837E+2
   6.56424E+1  -2.22685E+2
   5.42356E+2  -3.27090E+2
   4.99892E+2  -5.10599E+2
   3.10882E+1   5.53039E+2
  -2.46389E+2   1.09185E+3
  -6.93920E+2   9.73301E+2
  -7.80944E+2  -2.44555E+2
   4.34321E+0  -1.23590E+3
   4.46830E+2  -1.61112E+2
   4.74482E+2   7.43412E+2
   6.16176E+2   3.74399E+2
   8.37045E+2   6.42493E+2
  -2.87485E+2   1.50910E+3
  -1.50831E+3   1.19553E+3
  -1.19191E+3  -3.49045E+2
  -1.48338E+2  -9.47406E+2
   1.69520E+2  -8.21414E+2
   5.55230E+2  -1.38931E+1
   5.67599E+2   3.20741E+2
   5.82594E+1   3.50223E+2
  -4.33184E+2  -3.36298E+2
   4.66880E+2  -1.91036E+2
   7.28832E+2   8.00001E+2
   2.22494E+2   6.02477E+2
  -5.37464E+2  -2.27896E+2
  -7.06978E+1  -1.74233E+2
   4.15904E+2   5.99969E+2
   1.72791E+2   5.69969E+2
  -5.48849E+2   4.69685E+1
  -6.63185E+2  -1.61741E+2
  -3.05453E+2   3.51944E+1
   1.10147E+2   5.05497E+0
   5.64969E+1  -2.76118E+2
  -4.32342E+2  -2.39074E+2
   2.03548E+2  -3.09373E+2
   5.69644E+2  -3.92687E+2
   4.51897E+2   3.28590E+2
   6.87963E+1  -8.23478E+1
   7.69440E+1  -2.42813E+2
   5.79382E+2  -3.31883E+1
   4.16393E+2   4.82385E+2
  -5.15495E+1   7.52683E+2
  -4.66950E+2   6.82955E+2
  -7.22508E+2  -1.14250E+2
  -1.98092E+2  -6.92876E+2
   1.05742E+2  -1.87315E+2
  -2.00233E+2   4.77115E+2
  -2.90529E+2  -2.58113E+2
   2.51286E+2  -3.92764E+2
   6.53562E+2   1.03919E+2
   2.08025E+2   8.06044E+2
  -3.35948E+2   3.53961E+2
  -6.20691E+2  -1.65674E+2
  -1.93743E+1  -4.16216E+2
   4.39817E+2   1.07512E+2
   4.31683E+2   6.58933E+2
  -7.65957E+2   6.96963E+2
  -6.93125E+2  -2.53876E+2
   1.44238E+2  -8.75264E+2
   8.25475E+2  -5.91951E+2
   6.10978E+2   4.68305E+2
   3.20511E+2   7.42872E+2
   5.57388E+2   4.89061E+2
   3.49338E+2   3.07732E+2
   2.06546E+2   5.28562E+2
  -6.57307E+2   7.16608E+2
  -9.61257E+2   1.19844E+1
  -2.60469E+2  -7.03796E+2
   1.24987E+2  -6.93383E+2
   6.67081E+2  -1.51293E+2
   7.16037E+2   1.72763E+1
   5.85661E+2   2.39519E+2
   1.90744E+2   3.26978E+2
  -1.55085E+2   5.59372E+2
  -1.43350E+2  -9.09855E+0
   6.31846E+1  -3.58267E+2
   9.52874E+1   1.17230E+0
   6.17368E+1  -9.87898E+1
   5.74431E+2   2.17932E+2
   7.11289E+1   5.37110E+2
  -4.58735E+2   1.36542E+2
  -2.99322E+2  -3.80894E+2
   1.92175E+2   4.47120E+1
   2.35292E+2  -2.09441E+1
  -1.46122E+2  -7.76481E+1
   2.64537E+2  -4.84124E+2
   8.08280E+2  -1.58551E+2
   4.34695E+2   6.35470E+2
  -1.17602E+2   3.73058E+2
  -3.34179E+2   2.11182E+2
  -5.34004E+1  -4.60215E+2
   5.28190E+2  -6.33163E+2
   5.47062E+2   1.54977E+2
   4.11723E+2   4.21956E+2
  -7.82549E+1   3.26197E+2
   1.30980E+1   1.71232E+1
   8.51408E+1  -8.99670E+1
  -1.18844E+2   2.54930E+2
  -3.37876E+2  -1.82331E+2
  -1.98899E+2  -4.11940E+2
   2.33755E+2  -4.28087E+2
   7.24299E+2  -1.38520E+2
   4.47533E+2   2.59401E+2
   1.20770E+2   6.38406E+1
   8.14362E+1  -8.78274E+1
   3.80504E+2   1.07568E+2
   1.85622E+2   2.79838E+2
   2.11152E+2   3.27922E+2
   1.50559E+2  -5.04952E+1
  -4.96331E+1   1.82774E+2
  -5.29182E+1   4.83369E+1
  -3.02512E+2   2.36245E+2
  -2.21884E+2  -1.21527E+2
   2.04253E+2  -3.89690E+2
   2.37857E+1  -5.52387E+2
   3.61043E+2  -3.14044E+1
  -1.46125E+2   1.96932E+2
  -9.29126E+1   6.50451E+1
   1.74530E+2  -3.25701E+2
   1.79544E+2  -4.02596E+1
   1.54362E+2   4.40751E+2
  -1.76745E+2   1.78180E+2
  -2.06618E+2  -2.42439E+0
  -6.53071E+1   1.15086E+2
   1.07685E+2   2.45742E+2
  -1.73896E+2   2.04606E+2
  -1.27426E+2  -5.97053E+1
  -9.90714E+1  -5.04811E+2
   8.26880E+1  -1.78351E+2
   5.26760E+2  -4.16877E+1
   1.45899E-1   3.15591E+2
  -1.41606E+2   3.09799E+2
  -3.55281E+2   2.69449E+1
  -5.87155E+1  -2.39447E+2
  -1.54486E+2  -3.26441E+1
  -1.42857E+2  -2.60711E+2
  -2.43700E+2  -3.61223E+2
   2.01070E+2  -2.50001E+2
   7.01034E+2  -8.15556E+1
   4.95254E+2   5.64313E+2
  -1.30611E+2   6.96751E+2
  -3.02006E+2   4.17832E+1
   1.20190E+1  -1.42568E+2
   1.97224E+2  -1.38411E+2
  -5.59033E+1   7.27670E+1
   2.94695E+2   6.01934E+1
   2.59622E+2  -5.06973E+1
   2.89149E+2   1.21346E+2
  -2.64615E+1   2.88894E+2
  -1.00172E+2   4.80936E+2
  -2.10832E+2  -1.87913E+2
  -1.59515E+2  -4.74699E+2
   3.46270E+2  -3.98745E+2
   1.36067E+2  -2.10606E+1
  -9.55051E+1   1.15067E+2
  -6.15030E+1   1.21615E+2
  -2.12645E+1   6.34227E+0
   6.37766E+1   1.71355E+2
  -1.93804E+2  -5.21608E+1
  -1.64048E+2  -3.56887E+2
   2.38801E+2  -4.95985E+2
   3.74195E+2  -1.22534E+2
   2.60583E+2   5.94289E+2
  -1.10661E+2   2.78263E+2
  -2.70219E+2   1.19409E+2
  -1.68851E+2  -1.85286E+2
   4.38669E+0  -2.80854E+2
   1.30905E+2  -2.73016E+1
   1.45079E+2   7.13055E+1
  -1.16830E+1  -2.10098E+2
   7.73042E+1  -3.78573E+2
   5.46673E+1   1.86931E+2
  -7.55626E+1   2.09378E+2
  -1.94609E+2   6.34628E+1
  -4.26560E+2  -9.53712E+1
   8.59317E+1  -1.88502E+2
   2.09773E+2   7.14544E+0
   4.00230E+1   1.59459E+2
   7.80432E+1  -2.32287E+1
  -1.67429E+2  -2.53715E+2
  -7.18301E+1  -1.05071E+2
  -2.99347E+1  -1.13276E+2
  -8.54798E+1  -1.44206E+2
  -4.79624E+1  -2.04605E+2
   1.60017E+1   1.43910E+2
   1.08815E+1   7.76453E+1
  -1.06602E+2   1.61942E+0
   3.08403E+1  -2.13500E+2
  -2.24905E+2  -1.43654E+2
   1.97876E+2  -1.83754E+2
   2.02513E+2  -3.74547E+1
   1.15839E+2   4.82857E+1
  -1.60896E+2   3.78234E+1
  -1.96543E+2  -1.70385E+2
   6.67882E+1   8.91731E+1
  -1.76788E+2   1.65441E+2
  -7.57979E+1   1.28629E+1
   8.37046E+1  -2.61341E+2
  -1.04037E+1  -1.40407E+2
   2.40405E+2  -3.47104E+1
  -3.57798E+1   8.05113E+1
   9.19875E+0  -5.11451E+1
  -1.42136E+2  -1.39907E+2
   2.55251E+1  -3.08329E+2
   1.74776E+2  -6.05045E+1
  -6.86410E+0   2.94173E+0
   1.94489E+2  -4.85717E-1
   3.31331E+2   2.26562E+2
  -2.99518E+1   2.08047E+2
  -1.43987E+2  -3.97662E+1
  -2.26394E+2   3.47399E+1
  -3.03466E+2  -8.58058E+1
  -3.86740E+1  -1.53076E+2
   3.10887E+2  -5.75988E+1
   2.30065E+2   4.75633E+2
   5.31834E+1   7.34074E+1
  -1.88514E+2   2.71740E+2
  -6.78968E+1  -8.17768E+1
  -2.40148E+2  -2.90652E+2
   7.96520E+1  -1.09507E+2
   4.36949E+1  -1.89090E+2
   1.42600E+2  -1.63663E+2
   1.81312E+2   1.94467E+2
  -7.32145E+1   1.22312E+1
  -1.76744E+2  -8.59641E+1
  -1.31934E+2  -2.62706E+1
  -2.56268E+1  -1.85501E+2
   8.84279E+1  -2.27388E+2
   9.74431E+1   1.03068E+2
   3.29066E+1   6.41148E+1
  -9.10134E+1  -2.25034E+2
  -2.33589E+0   3.70224E+2
  -1.24855E+2  -5.25240E+1
  -1.31227E+2   5.18017E+1
  -2.81674E+2  -2.48109E+1
   5.31446E+1  -7.59693E+1
   3.69414E+2  -1.25229E+2
   1.08771E+2   3.41909E+1
   1.54070E+2   8.21796E+1
  -1.03854E+1   1.34874E+2
  -9.14675E+0   1.00530E+2
  -6.51128E+1  -9.14395E+1
   8.04232E+1  -1.20927E+2
  -6.02788E+1   2.42357E+1
   8.24049E+0  -1.00288E+2
   2.57993E+2   6.34535E+1
   3.68070E+1  -1.54231E+1
   5.33213E+1  -5.80648E+1
   2.66601E+1   9.56884E+1
   8.15832E+1  -3.09393E+2
   2.57144E+2  -1.03987E+2
   3.09134E+2   1.42164E+2
  -2.02097E+2  -6.93927E+1
  -1.19993E+2   3.01588E+0
  -6.03625E+1  -1.93002E+2
  -4.81723E+1   4.46087E+1
   1.89680E+2  -1.33501E+2
   3.26931E+1  -2.09211E+2
  -5.78548E+1  -1.61602E+0
   5.19832E+1  -5.68017E+1
   3.20834E+2  -6.76446E+1
   6.03439E+1  -7.04207E+1
   2.60182E+2   2.00927E+1
   1.60509E+1  -7.92965E+1
   3.69369E+1  -7.68818E+1
   2.40253E+2   5.78992E+1
   2.49493E+1  -3.18884E+2
  -1.78632E+1   2.50050E+1
  -1.21032E+2  -3.34629E+1
  -3.44709E+1   3.77992E+1
   2.83873E+2   1.29447E+1
  -2.37494E+1  -1.32869E+1
  -6.61131E+1  -9.54437E+1
   4.17016E+2  -2.16150E+2
   1.37323E+2   3.69963E+1
   5.85358E+1  -4.47466E+1
   5.98515E+1   1.09701E+2
   5.48745E+1   1.43359E+2
  -1.13967E+2  -1.88955E+2
   7.82504E+1   1.41874E+2
   4.79237E+1  -1.32087E+2
   8.79181E+1  -9.88993E+1
   2.31488E+2  -2.41800E+2
   2.16533E+1   9.43159E+1
   8.63292E+1   1.65820E+2
  -8.90618E+1   1.32063E+2
  -3.65006E+2  -1.78573E+1
   1.44245E+2  -1.75545E+2
   3.77662E+2   2.31055E+2
   4.34323E+2   8.81650E+1
   9.82091E+1  -4.61842E+1
  -1.64054E+2  -1.44333E+2
   2.49488E+1   1.12894E+1
   1.49067E+2  -1.52149E+2
   1.86896E+2  -1.25082E+2
   3.05321E+1   2.00656E+1
   3.66476E+2  -4.01552E+1
   1.29554E+2  -1.20085E+2
   5.27700E+1   1.54140E+1
   1.19033E+2  -5.07397E+1
  -1.19116E+2   1.26952E+2
  -1.37275E+2  -1.55127E+2
   2.42631E+2  -3.25339E+1
  -3.25758E+1  -3.48849E+1
  -6.79972E+1  -1.32714E+2
   2.45871E+2   2.14175E+1
   3.20065E+2   9.83468E+1
  -3.15504E+1   9.54581E+1
   1.96322E+1  -2.34312E+1
  -1.19842E+2   8.91429E+1
  -1.54805E+2  -4.87585E+2
   1.70788E+2  -4.53577E+1
   3.10419E+2   1.64329E+2
   1.93887E+2   1.12319E+2
   6.04948E+1   2.03612E+1
   1.25071E+2   1.37171E+1
