 
 $NMID
 ID=''
 FMTDAT='(2E13.5)'
 TRAMP=   1.00000E+0
 VOLUME=   1.00000E+0
 $END
   3.87714E+5   6.45905E+5
   3.08675E+5   2.03281E+6
   5.15673E+5   1.97780E+6
   3.91227E+5   1.86760E+6
   3.14781E+5   1.93318E+6
   3.28790E+5   1.92290E+6
   2.92003E+5   1.89564E+6
   2.65026E+5   1.90921E+6
   2.35105E+5   1.87529E+6
   1.70000E+5   1.87712E+6
   1.51927E+5   1.88900E+6
   1.23276E+5   1.84200E+6
   6.01760E+4   1.83454E+6
   3.93771E+4   1.84767E+6
   1.04175E+4   1.80810E+6
  -4.42211E+4   1.79010E+6
  -6.79998E+4   1.79971E+6
  -9.71940E+4   1.77268E+6
  -1.46126E+5   1.75485E+6
  -1.65639E+5   1.75166E+6
  -1.94715E+5   1.72625E+6
  -2.36614E+5   1.71194E+6
  -2.58648E+5   1.70326E+6
  -2.87750E+5   1.67877E+6
  -3.28860E+5   1.66064E+6
  -3.45006E+5   1.64798E+6
  -3.72070E+5   1.62683E+6
  -4.08858E+5   1.61127E+6
  -4.33234E+5   1.59073E+6
  -4.55365E+5   1.56691E+6
  -4.87404E+5   1.55400E+6
  -5.08822E+5   1.53642E+6
  -5.33708E+5   1.51111E+6
  -5.59207E+5   1.49434E+6
  -5.75993E+5   1.47658E+6
  -5.95236E+5   1.45695E+6
  -6.19826E+5   1.44296E+6
  -6.40877E+5   1.42426E+6
  -6.60112E+5   1.39965E+6
  -6.80331E+5   1.38208E+6
  -6.99624E+5   1.36136E+6
  -7.18015E+5   1.33771E+6
  -7.32833E+5   1.31749E+6
  -7.49268E+5   1.29818E+6
  -7.67916E+5   1.27574E+6
  -7.85196E+5   1.25600E+6
  -8.01839E+5   1.23526E+6
  -8.20998E+5   1.21109E+6
  -8.35298E+5   1.18691E+6
  -8.47829E+5   1.16516E+6
  -8.63251E+5   1.14458E+6
  -8.78313E+5   1.12343E+6
  -8.91418E+5   1.10165E+6
  -9.04882E+5   1.08019E+6
  -9.18084E+5   1.05791E+6
  -9.31108E+5   1.03450E+6
  -9.42638E+5   1.01046E+6
  -9.52915E+5   9.87105E+5
  -9.61383E+5   9.64509E+5
  -9.71603E+5   9.43341E+5
  -9.82035E+5   9.19938E+5
  -9.91549E+5   8.97290E+5
  -1.00082E+6   8.75316E+5
  -1.00997E+6   8.51434E+5
  -1.01727E+6   8.26126E+5
  -1.02287E+6   8.02729E+5
  -1.02810E+6   7.79874E+5
  -1.03389E+6   7.56546E+5
  -1.04069E+6   7.34725E+5
  -1.04749E+6   7.11516E+5
  -1.05238E+6   6.87286E+5
  -1.05598E+6   6.63707E+5
  -1.05994E+6   6.42419E+5
  -1.06461E+6   6.20070E+5
  -1.06852E+6   5.95994E+5
  -1.07032E+6   5.72513E+5
  -1.07260E+6   5.50417E+5
  -1.07508E+6   5.28047E+5
  -1.07741E+6   5.04727E+5
  -1.07816E+6   4.81346E+5
  -1.07853E+6   4.58206E+5
  -1.07877E+6   4.35768E+5
  -1.07925E+6   4.13497E+5
  -1.07875E+6   3.90106E+5
  -1.07779E+6   3.66767E+5
  -1.07603E+6   3.45019E+5
  -1.07416E+6   3.23989E+5
  -1.07287E+6   3.02181E+5
  -1.06991E+6   2.80832E+5
  -1.06651E+6   2.60976E+5
  -1.06282E+6   2.41527E+5
  -1.05951E+6   2.21952E+5
  -1.05621E+6   2.01845E+5
  -1.05100E+6   1.82503E+5
  -1.04513E+6   1.63182E+5
  -1.03941E+6   1.45493E+5
  -1.03458E+6   1.28107E+5
  -1.02984E+6   1.09778E+5
  -1.02353E+6   9.12136E+4
  -1.01696E+6   7.43905E+4
  -1.01111E+6   5.80868E+4
  -1.00541E+6   4.00122E+4
  -9.97915E+5   2.20912E+4
  -9.89052E+5   5.83056E+3
  -9.81231E+5  -8.65760E+3
  -9.74541E+5  -2.33642E+4
  -9.67124E+5  -3.88588E+4
  -9.58623E+5  -5.47367E+4
  -9.48730E+5  -6.93924E+4
  -9.39734E+5  -8.21405E+4
  -9.31778E+5  -9.50565E+4
  -9.23560E+5  -1.09564E+5
  -9.14835E+5  -1.24511E+5
  -9.05325E+5  -1.38412E+5
  -8.95386E+5  -1.51908E+5
  -8.86101E+5  -1.65643E+5
  -8.76368E+5  -1.79603E+5
  -8.65260E+5  -1.92710E+5
  -8.53876E+5  -2.03921E+5
  -8.44041E+5  -2.14939E+5
  -8.34640E+5  -2.26394E+5
  -8.24709E+5  -2.37990E+5
  -8.14175E+5  -2.49293E+5
  -8.03963E+5  -2.60713E+5
  -7.93015E+5  -2.71756E+5
  -7.81119E+5  -2.82629E+5
  -7.69881E+5  -2.92305E+5
  -7.59182E+5  -3.02623E+5
  -7.47714E+5  -3.12489E+5
  -7.36492E+5  -3.23475E+5
  -7.25274E+5  -3.34605E+5
  -7.12529E+5  -3.45296E+5
  -6.99765E+5  -3.54081E+5
  -6.88177E+5  -3.62902E+5
  -6.76323E+5  -3.72051E+5
  -6.64194E+5  -3.81258E+5
  -6.51799E+5  -3.89076E+5
  -6.40436E+5  -3.96821E+5
  -6.28844E+5  -4.05023E+5
  -6.16443E+5  -4.13431E+5
  -6.03826E+5  -4.20617E+5
  -5.91265E+5  -4.26666E+5
  -5.79649E+5  -4.32508E+5
  -5.68029E+5  -4.39271E+5
  -5.56319E+5  -4.46139E+5
  -5.43496E+5  -4.52211E+5
  -5.30820E+5  -4.57421E+5
  -5.18447E+5  -4.62561E+5
  -5.06146E+5  -4.67392E+5
  -4.94462E+5  -4.71700E+5
  -4.82304E+5  -4.75885E+5
  -4.70724E+5  -4.79148E+5
  -4.60071E+5  -4.82520E+5
  -4.48914E+5  -4.86302E+5
  -4.37372E+5  -4.90239E+5
  -4.25749E+5  -4.92669E+5
  -4.15056E+5  -4.94364E+5
  -4.04483E+5  -4.97167E+5
  -3.93515E+5  -4.99092E+5
  -3.82455E+5  -5.01012E+5
  -3.72034E+5  -5.02454E+5
  -3.61532E+5  -5.03815E+5
  -3.50356E+5  -5.05212E+5
  -3.39778E+5  -5.05595E+5
  -3.29317E+5  -5.06284E+5
  -3.19624E+5  -5.06027E+5
  -3.10277E+5  -5.06604E+5
  -3.00166E+5  -5.07196E+5
  -2.90111E+5  -5.07171E+5
  -2.80745E+5  -5.06541E+5
  -2.71335E+5  -5.05605E+5
  -2.62411E+5  -5.05213E+5
  -2.53005E+5  -5.04504E+5
  -2.43572E+5  -5.03539E+5
  -2.34499E+5  -5.02192E+5
  -2.25804E+5  -5.01112E+5
  -2.16658E+5  -5.00435E+5
  -2.06801E+5  -4.99096E+5
  -1.97586E+5  -4.96466E+5
  -1.88756E+5  -4.94462E+5
  -1.80627E+5  -4.93063E+5
  -1.71853E+5  -4.91673E+5
  -1.62608E+5  -4.89436E+5
  -1.53869E+5  -4.87166E+5
  -1.45408E+5  -4.84607E+5
  -1.37480E+5  -4.81941E+5
  -1.29150E+5  -4.79308E+5
  -1.21016E+5  -4.76039E+5
  -1.13716E+5  -4.73208E+5
  -1.06743E+5  -4.70423E+5
  -9.85923E+4  -4.68302E+5
  -9.00441E+4  -4.65725E+5
  -8.17102E+4  -4.62303E+5
  -7.39387E+4  -4.58502E+5
  -6.64751E+4  -4.54899E+5
  -5.88991E+4  -4.52023E+5
  -5.11448E+4  -4.48548E+5
  -4.38065E+4  -4.44884E+5
  -3.62104E+4  -4.41184E+5
  -2.83883E+4  -4.37766E+5
  -2.08093E+4  -4.33865E+5
  -1.32460E+4  -4.29155E+5
  -6.48247E+3  -4.24776E+5
   1.18870E+2  -4.20899E+5
   6.53228E+3  -4.17029E+5
   1.36406E+4  -4.12827E+5
   2.06701E+4  -4.08345E+5
   2.71397E+4  -4.03833E+5
   3.33195E+4  -3.99268E+5
   3.96973E+4  -3.94731E+5
   4.64465E+4  -3.90049E+5
   5.18453E+4  -3.85275E+5
   5.74713E+4  -3.80578E+5
   6.36106E+4  -3.76522E+5
   6.97968E+4  -3.71923E+5
   7.55480E+4  -3.66383E+5
   8.05178E+4  -3.61186E+5
   8.50863E+4  -3.55868E+5
   9.00445E+4  -3.51655E+5
   9.45873E+4  -3.46693E+5
   9.96379E+4  -3.41701E+5
   1.03320E+5  -3.36460E+5
   1.07689E+5  -3.31771E+5
   1.12298E+5  -3.26968E+5
   1.16393E+5  -3.21771E+5
   1.20363E+5  -3.16301E+5
   1.23508E+5  -3.10808E+5
   1.26780E+5  -3.06349E+5
   1.30711E+5  -3.01595E+5
   1.34405E+5  -2.96232E+5
   1.37546E+5  -2.90837E+5
   1.40130E+5  -2.85953E+5
   1.42677E+5  -2.80965E+5
   1.45761E+5  -2.76013E+5
   1.47932E+5  -2.70983E+5
   1.50140E+5  -2.65917E+5
   1.52333E+5  -2.61364E+5
   1.54601E+5  -2.56520E+5
   1.56823E+5  -2.51560E+5
   1.58563E+5  -2.46326E+5
   1.59987E+5  -2.41540E+5
   1.61907E+5  -2.37313E+5
   1.63495E+5  -2.32611E+5
   1.65647E+5  -2.27489E+5
   1.66564E+5  -2.22453E+5
   1.67640E+5  -2.17966E+5
   1.69138E+5  -2.13212E+5
   1.70534E+5  -2.08655E+5
   1.71417E+5  -2.03439E+5
   1.72080E+5  -1.98845E+5
   1.72795E+5  -1.94633E+5
   1.73865E+5  -1.90050E+5
   1.75083E+5  -1.85305E+5
   1.75482E+5  -1.80328E+5
   1.75993E+5  -1.75648E+5
   1.76337E+5  -1.71444E+5
   1.77157E+5  -1.67219E+5
   1.77874E+5  -1.62617E+5
   1.78381E+5  -1.57790E+5
   1.78906E+5  -1.53439E+5
   1.79619E+5  -1.48785E+5
   1.79905E+5  -1.44069E+5
   1.80173E+5  -1.39317E+5
   1.79967E+5  -1.34795E+5
   1.79720E+5  -1.30921E+5
   1.80275E+5  -1.27121E+5
   1.80835E+5  -1.22236E+5
   1.80630E+5  -1.17702E+5
   1.80261E+5  -1.13648E+5
   1.79998E+5  -1.09781E+5
   1.79679E+5  -1.05713E+5
   1.79453E+5  -1.01548E+5
   1.79018E+5  -9.75476E+4
   1.78578E+5  -9.36203E+4
   1.78693E+5  -8.99537E+4
   1.78271E+5  -8.56080E+4
   1.77726E+5  -8.11964E+4
   1.77062E+5  -7.77543E+4
   1.76001E+5  -7.39852E+4
   1.75462E+5  -7.04879E+4
   1.74995E+5  -6.66334E+4
   1.73987E+5  -6.28282E+4
   1.73218E+5  -5.96359E+4
   1.72256E+5  -5.60275E+4
   1.71434E+5  -5.24509E+4
   1.70592E+5  -4.87193E+4
   1.69050E+5  -4.55807E+4
   1.67693E+5  -4.25606E+4
   1.66794E+5  -3.97717E+4
   1.65780E+5  -3.66317E+4
   1.64786E+5  -3.31699E+4
   1.63417E+5  -2.99434E+4
   1.61949E+5  -2.71192E+4
   1.60714E+5  -2.44624E+4
   1.59445E+5  -2.14343E+4
   1.57673E+5  -1.85728E+4
   1.56054E+5  -1.61942E+4
   1.54974E+5  -1.35353E+4
   1.53491E+5  -1.05805E+4
   1.51907E+5  -7.70411E+3
   1.50128E+5  -5.40296E+3
   1.48385E+5  -3.13226E+3
   1.47025E+5  -8.58791E+2
   1.45547E+5   1.81508E+3
   1.43962E+5   4.18606E+3
   1.41972E+5   6.48447E+3
   1.39826E+5   8.74069E+3
   1.38315E+5   1.06452E+4
   1.36652E+5   1.28110E+4
   1.34787E+5   1.50252E+4
   1.32813E+5   1.69191E+4
   1.31358E+5   1.89752E+4
   1.29431E+5   2.07428E+4
   1.27776E+5   2.28967E+4
   1.25772E+5   2.49141E+4
   1.23564E+5   2.65266E+4
   1.21749E+5   2.81242E+4
   1.20321E+5   2.99326E+4
   1.18438E+5   3.16546E+4
   1.16439E+5   3.32628E+4
   1.14232E+5   3.48312E+4
   1.12598E+5   3.61178E+4
   1.10750E+5   3.77446E+4
   1.08861E+5   3.94860E+4
   1.06593E+5   4.07373E+4
   1.04933E+5   4.16407E+4
   1.03187E+5   4.33007E+4
   1.01209E+5   4.48135E+4
   9.93537E+4   4.62006E+4
   9.68938E+4   4.74177E+4
   9.51692E+4   4.85873E+4
   9.33014E+4   4.93947E+4
   9.13711E+4   5.03696E+4
   8.94659E+4   5.14822E+4
   8.77757E+4   5.23752E+4
   8.57827E+4   5.34587E+4
   8.39333E+4   5.48169E+4
   8.19332E+4   5.55741E+4
   7.96284E+4   5.62188E+4
   7.80301E+4   5.68569E+4
   7.60411E+4   5.76144E+4
   7.43395E+4   5.81301E+4
   7.25510E+4   5.92048E+4
   7.04915E+4   5.99885E+4
   6.90358E+4   6.04394E+4
   6.69574E+4   6.09960E+4
   6.53330E+4   6.15501E+4
   6.32395E+4   6.17779E+4
   6.17405E+4   6.21775E+4
   6.00331E+4   6.25756E+4
   5.81104E+4   6.31545E+4
   5.63691E+4   6.35516E+4
   5.44255E+4   6.38731E+4
   5.28740E+4   6.39161E+4
   5.12704E+4   6.41823E+4
   4.96838E+4   6.45252E+4
   4.77622E+4   6.46394E+4
   4.62743E+4   6.44604E+4
   4.46612E+4   6.47943E+4
   4.30718E+4   6.48928E+4
   4.14314E+4   6.51880E+4
   3.95037E+4   6.51674E+4
   3.80453E+4   6.47016E+4
   3.69508E+4   6.46737E+4
   3.55691E+4   6.47429E+4
   3.37408E+4   6.49877E+4
   3.23619E+4   6.44969E+4
