 LCModel (Version 6.3-1N) Copyright: S.W. Provencher.          Ref.: Magn. Reson. Med. 30:672-679 (1993).                
 Slice_N1@22_20  28-Feb-2025 11:44:02
 27 lines in following concentration table = NCONC+1
    Conc.  %SD /Cr+PCr  Metabolite                                         
 2.74E-04   5% 3.6E-04 Mac                                                 
    6.039  16%   8.000 Cr                                                  
    0.000 999%   0.000 PCr                                                 
    9.433  14%  12.497 Ins                                                 
    4.245  27%   5.624 NAA                                                 
    2.791  55%   3.697 Tau                                                 
    1.987  17%   2.632 PCho                                                
    0.000 999%   0.000 GPC                                                 
    9.956  14%  13.190 Glu                                                 
    5.643  19%   7.476 Gln                                                 
    3.751  26%   4.969 Ala                                                 
    3.053  55%   4.045 Asc                                                 
    1.705  59%   2.258 Asp                                                 
    0.696  83%   0.922 GABA                                                
    1.361  48%   1.802 Glc                                                 
    2.758  26%   3.654 GSH                                                 
    0.000 999%   0.000 Lac                                                 
    5.345  18%   7.081 NAAG                                                
    0.000 999%   0.000 PE                                                  
    1.987  17%   2.632 GPC+PCho                                            
    9.590  11%  12.705 NAA+NAAG                                            
   15.599  11%  20.666 Glu+Gln                                             
    6.039  16%   8.000 Cr+PCr                                              
    9.590  11%  12.705 NAA+NAAG                                            
    6.039  16%   8.000 Cr+PCr                                              
   15.599  11%  20.666 Glu+Gln                                             
   6 lines in following misc. output table
  FWHM = 0.073 ppm    S/N =   3                                            
  Data shift = 0.016 ppm                                                   
  Ph: -36 deg       0.0 deg/ppm                                            
  alphaB,S = 1.0E-01,   8.1E+01                                            
   19 spline knots.   Ns =11(1)                                            
  (13) 4 infls.   (10) 2 extrs.                                            
  480 points on ppm-axis = NY
      4.100000     4.091866     4.083733     4.075600     4.067466     4.059333     4.051199     4.043066     4.034933     4.026799
      4.018666     4.010532     4.002399     3.994265     3.986132     3.977998     3.969864     3.961731     3.953597     3.945463
      3.937330     3.929196     3.921062     3.912929     3.904795     3.896662     3.888528     3.880394     3.872261     3.864127
      3.855993     3.847860     3.839726     3.831592     3.823459     3.815325     3.807191     3.799058     3.790924     3.782790
      3.774657     3.766523     3.758389     3.750256     3.742122     3.733989     3.725855     3.717721     3.709588     3.701454
      3.693320     3.685187     3.677053     3.668919     3.660786     3.652652     3.644518     3.636385     3.628251     3.620117
      3.611984     3.603850     3.595716     3.587583     3.579449     3.571316     3.563182     3.555048     3.546915     3.538781
      3.530647     3.522514     3.514380     3.506246     3.498113     3.489979     3.481845     3.473712     3.465578     3.457444
      3.449311     3.441177     3.433043     3.424910     3.416776     3.408643     3.400509     3.392375     3.384242     3.376108
      3.367974     3.359841     3.351707     3.343573     3.335440     3.327306     3.319172     3.311039     3.302905     3.294771
      3.286638     3.278504     3.270370     3.262237     3.254103     3.245970     3.237836     3.229702     3.221569     3.213435
      3.205301     3.197168     3.189034     3.180900     3.172767     3.164633     3.156499     3.148366     3.140232     3.132098
      3.123965     3.115831     3.107697     3.099564     3.091430     3.083297     3.075163     3.067029     3.058896     3.050762
      3.042628     3.034495     3.026361     3.018227     3.010094     3.001960     2.993826     2.985693     2.977559     2.969425
      2.961292     2.953158     2.945024     2.936891     2.928757     2.920624     2.912490     2.904356     2.896223     2.888089
      2.879955     2.871822     2.863688     2.855554     2.847421     2.839287     2.831153     2.823020     2.814886     2.806752
      2.798619     2.790485     2.782351     2.774218     2.766084     2.757951     2.749817     2.741683     2.733550     2.725416
      2.717282     2.709149     2.701015     2.692881     2.684748     2.676614     2.668480     2.660347     2.652213     2.644079
      2.635946     2.627812     2.619678     2.611545     2.603411     2.595278     2.587144     2.579010     2.570877     2.562743
      2.554609     2.546476     2.538342     2.530208     2.522075     2.513941     2.505807     2.497674     2.489540     2.481406
      2.473273     2.465139     2.457006     2.448872     2.440738     2.432605     2.424471     2.416337     2.408204     2.400070
      2.391936     2.383803     2.375669     2.367535     2.359402     2.351268     2.343134     2.335001     2.326867     2.318733
      2.310600     2.302466     2.294333     2.286199     2.278065     2.269932     2.261798     2.253664     2.245531     2.237397
      2.229263     2.221130     2.212996     2.204862     2.196729     2.188595     2.180461     2.172328     2.164194     2.156060
      2.147927     2.139793     2.131660     2.123526     2.115392     2.107259     2.099125     2.090991     2.082858     2.074724
      2.066590     2.058457     2.050323     2.042189     2.034056     2.025922     2.017788     2.009655     2.001521     1.993387
      1.985254     1.977120     1.968987     1.960853     1.952719     1.944586     1.936452     1.928318     1.920185     1.912051
      1.903917     1.895784     1.887650     1.879516     1.871383     1.863249     1.855115     1.846982     1.838848     1.830714
      1.822581     1.814447     1.806314     1.798180     1.790046     1.781913     1.773779     1.765645     1.757512     1.749378
      1.741244     1.733111     1.724977     1.716843     1.708710     1.700576     1.692442     1.684309     1.676175     1.668041
      1.659908     1.651774     1.643641     1.635507     1.627373     1.619240     1.611106     1.602972     1.594839     1.586705
      1.578571     1.570438     1.562304     1.554170     1.546037     1.537903     1.529769     1.521636     1.513502     1.505368
      1.497235     1.489101     1.480968     1.472834     1.464700     1.456567     1.448433     1.440299     1.432166     1.424032
      1.415898     1.407765     1.399631     1.391497     1.383364     1.375230     1.367096     1.358963     1.350829     1.342695
      1.334562     1.326428     1.318295     1.310161     1.302027     1.293894     1.285760     1.277626     1.269493     1.261359
      1.253225     1.245092     1.236958     1.228824     1.220691     1.212557     1.204423     1.196290     1.188156     1.180022
      1.171889     1.163755     1.155622     1.147488     1.139354     1.131221     1.123087     1.114953     1.106820     1.098686
      1.090552     1.082419     1.074285     1.066151     1.058018     1.049884     1.041750     1.033617     1.025483     1.017349
      1.009216     1.001082     0.992949     0.984815     0.976681     0.968548     0.960414     0.952280     0.944147     0.936013
      0.927879     0.919746     0.911612     0.903478     0.895345     0.887211     0.879077     0.870944     0.862810     0.854676
      0.846543     0.838409     0.830276     0.822142     0.814008     0.805875     0.797741     0.789607     0.781474     0.773340
      0.765206     0.757073     0.748939     0.740805     0.732672     0.724538     0.716404     0.708271     0.700137     0.692003
      0.683870     0.675736     0.667603     0.659469     0.651335     0.643202     0.635068     0.626934     0.618801     0.610667
      0.602533     0.594400     0.586266     0.578132     0.569999     0.561865     0.553731     0.545598     0.537464     0.529330
      0.521197     0.513063     0.504930     0.496796     0.488662     0.480529     0.472395     0.464261     0.456128     0.447994
      0.439861     0.431727     0.423593     0.415460     0.407326     0.399192     0.391059     0.382925     0.374792     0.366658
      0.358524     0.350391     0.342257     0.334124     0.325990     0.317856     0.309723     0.301589     0.293455     0.285322
      0.277188     0.269055     0.260921     0.252787     0.244654     0.236520     0.228386     0.220253     0.212119     0.203986
 NY phased data points follow
   6.11604E+01  5.80963E+01  4.32252E+01  3.96796E+01  5.08147E+01  5.64505E+01  4.26314E+01  5.90888E+01  6.58021E+01  5.48633E+01
   6.74701E+01  6.44214E+01  5.43267E+01  6.31512E+01  8.07373E+01  6.67262E+01  5.89732E+01  6.51232E+01  4.28094E+01  2.43980E+01
   1.49685E+01 -2.83857E+00 -2.08855E+01 -1.91388E+01 -1.13844E+01 -7.15191E+00 -4.44365E+00 -4.01234E+00 -5.63553E+00 -3.82291E+00
   1.46014E+01  1.50738E+00 -5.14622E+00  1.82794E+00 -1.42746E+01 -1.88661E+00 -1.43620E+01 -3.26445E+01 -2.99017E+01 -3.93695E+01
  -3.94705E+01 -4.80000E+01 -2.83932E+01 -2.67985E+01 -4.17556E+01 -2.41123E+01 -2.17681E+01 -8.79984E+00 -6.78631E+00 -4.58177E+00
   1.60452E+01  6.41925E+00 -4.70800E+00 -9.40415E+00 -9.30691E+00 -7.56141E+00 -2.14404E+01 -9.46247E+00 -7.44701E+00 -2.44649E+01
  -1.23942E+00 -3.08170E+00 -1.44138E+01 -5.54898E+00 -2.26305E+00  5.50055E-01 -4.22453E+00 -3.35712E+00 -8.75578E+00 -2.00583E+01
  -1.68827E+01 -2.03275E+00 -1.35782E+01 -1.22009E+01  4.72743E+00  1.39178E+01  3.47422E+01  1.96069E+01  2.18520E+01  1.61101E+01
   7.15235E+00  2.60885E+01  1.52203E+01  1.86003E+01  1.26429E+01  1.28233E+00  6.05877E+00  1.03324E+01  2.38408E+01  3.35954E+01
   4.40386E+01  4.71147E+01  3.89072E+01  5.11432E+01  6.15545E+01  5.55805E+01  6.42675E+01  5.43290E+01  5.87112E+01  6.76204E+01
   5.65725E+01  5.82117E+01  4.68279E+01  3.62817E+01  1.64543E+01  1.04859E+01 -5.18864E+00 -4.17050E+01 -3.86165E+01 -5.53329E+01
  -7.95154E+01 -7.05861E+01 -6.12339E+01 -5.72408E+01 -4.16739E+01 -4.70916E+01 -5.94976E+01 -3.17922E+01 -1.93885E+01 -6.54504E+00
  -5.79256E+00 -2.16643E+01  1.21289E+01  3.19023E+01  3.56988E+01  4.33070E+01  5.20951E+01  6.66696E+01  5.76990E+01  5.20929E+01
   5.17586E+01  4.68593E+01  2.18853E+01 -1.98103E+00 -1.22434E+01 -2.99702E+01 -3.78433E+01 -4.68761E+01 -5.00046E+01 -5.95488E+01
  -5.67496E+01 -5.86596E+01 -6.87441E+01 -4.76740E+01 -5.42240E+01 -5.33087E+01 -5.19224E+01 -6.61636E+01 -4.96156E+01 -5.00981E+01
  -4.89865E+01 -4.57296E+01 -5.32132E+01 -3.87425E+01 -4.14944E+01 -3.94903E+01 -2.38165E+01 -2.90148E+01 -2.29491E+01 -2.67634E+01
  -2.97004E+01 -3.93630E+01 -4.52256E+01 -1.50922E+01 -2.31950E+01 -3.05017E+01 -2.27265E+01 -2.51438E+01 -2.03758E+01 -1.74172E+01
  -3.71412E-01  4.44922E-01 -8.73971E-01  3.48222E+00  2.55849E+00  4.71608E+00 -7.75650E+00 -1.62586E+01 -1.47894E+01 -2.09294E+01
  -3.09556E+01 -2.72710E+01 -3.44751E+01 -3.76322E+01 -2.94751E+01 -4.08977E+01 -4.21849E+01 -4.37567E+01 -4.11942E+01 -3.72184E+01
  -3.81216E+01 -4.28336E+01 -4.03228E+01 -1.85593E+01 -3.20570E+01 -3.08687E+01 -1.19972E+01 -2.10036E+01 -1.99090E+01 -1.22844E+01
  -1.87207E+01 -2.37113E+01 -1.67210E+01 -2.74527E+01 -2.76194E+01 -2.49279E+01 -2.61610E+01 -2.37207E+01 -3.28317E+01 -2.95280E+01
  -3.18081E+01 -2.83231E+01 -8.86397E+00 -7.22399E+00 -2.43348E+01 -6.99834E+00  3.94202E+00  2.29856E-01  1.40973E+01  5.61439E-01
   4.32342E+00  6.07084E+00  3.34489E+00 -1.43810E+01 -3.01203E+01 -4.82103E+00 -8.70110E+00 -1.71283E+01 -1.21966E+01 -8.47020E+00
  -2.69424E+01 -3.52011E+01 -3.83027E+01 -5.36913E+01 -4.51502E+01 -4.82263E+01 -6.14363E+01 -7.10060E+01 -6.63092E+01 -7.15766E+01
  -6.62930E+01 -6.55305E+01 -6.59792E+01 -4.47380E+01 -6.14457E+01 -5.61148E+01 -4.79954E+01 -5.28412E+01 -4.88895E+01 -5.12814E+01
  -5.30476E+01 -6.43895E+01 -5.51044E+01 -4.13573E+01 -2.20091E+01 -1.36500E+01 -1.44160E+01  2.31288E+01  6.19756E+01  6.85971E+01
   7.31772E+01  7.55240E+01  6.73931E+01  8.29696E+01  7.73003E+01  6.70226E+01  7.55947E+01  5.85242E+01  5.33772E+01  5.14250E+01
   5.10431E+01  6.09255E+01  6.27747E+01  6.28341E+01  6.09942E+01  6.31936E+01  6.06485E+01  5.36886E+01  5.00941E+01  5.96872E+01
   5.93510E+01  4.67791E+01  5.04442E+01  5.07254E+01  4.79746E+01  4.52688E+01  5.69606E+01  4.71475E+01  2.49067E+01  3.57149E+01
   3.32968E+01  2.90666E+01  3.06442E+01  2.71757E+01  1.30603E+01  4.84513E+00  3.63584E+00 -7.84135E+00 -5.91983E+00  4.45620E+00
  -3.84467E-01 -7.81705E+00  1.16468E+01 -3.87899E+00 -6.20686E+00  5.41920E+00 -1.41509E+00  2.46607E+01  9.34747E+00  1.24330E+01
   3.21342E+01  2.92128E+01  3.72939E+01  3.22942E+01  3.21516E+01  3.46276E+01  4.50730E+01  3.96203E+01  3.02281E+01  2.89543E+01
   2.79668E+01  2.97906E+01  2.68535E+01  2.69706E+01  2.22214E+01  2.19566E+01  1.28407E+01 -7.09168E+00 -2.57226E+01 -3.35930E+01
  -3.78718E+01 -5.48568E+01 -6.16507E+01 -6.01185E+01 -6.36637E+01 -5.71601E+01 -5.17718E+01 -4.37788E+01 -3.00940E+01 -2.58923E+01
  -1.45161E+01 -1.32838E+01 -2.17082E+00 -4.26330E+00 -2.23171E+00  1.72104E+01  5.46199E+00  2.24122E+01  3.31191E+01  3.10573E+01
   3.86466E+01  3.52239E+01  2.54534E+01  3.10422E+01  2.82298E+01  6.98868E+00  1.70862E+01 -2.68224E+00 -3.44738E+00  1.50053E+01
   1.00297E+01  6.54185E+00  7.15746E+00  2.34162E+01  2.08198E+01  3.20400E+01  2.81875E+01  2.45489E+01  2.96513E+01  2.35484E+01
   3.84995E+01  3.95270E+01  4.79288E+01  4.69705E+01  3.26662E+01  4.51979E+01  5.96490E+01  5.99164E+01  8.08548E+01  8.50760E+01
   7.27778E+01  9.06614E+01  9.52126E+01  1.08695E+02  1.26260E+02  1.16627E+02  1.11555E+02  1.28218E+02  1.30811E+02  1.21780E+02
   1.20024E+02  1.09595E+02  1.15803E+02  1.00930E+02  8.08389E+01  8.93026E+01  7.00432E+01  6.42969E+01  7.53345E+01  5.34771E+01
   4.98495E+01  3.63862E+01  1.57586E+01  2.31388E+01  1.75262E+00 -5.79851E+00  7.84302E+00  1.11377E+01  8.71063E+00  7.89298E+00
   3.39728E+00 -1.55022E+01 -1.07849E+00  1.18630E+01  4.46004E-01  4.40704E+00  6.70811E+00 -1.02121E+01 -4.66904E+00  9.49356E+00
  -1.42941E+01 -1.14952E+01  5.39837E+00 -9.25994E+00 -4.90230E+00  4.34483E+00 -3.39282E+00 -1.16924E+01 -1.93785E+01 -7.44347E+00
   6.64605E+00  1.91925E+00 -8.92810E-01  8.96221E+00  6.10141E+00 -1.50143E+01 -1.07227E+01  3.02516E+00  2.99496E+00 -7.85003E+00
  -7.27233E+00  2.35594E+00 -3.57651E+00  1.64199E+00 -2.09898E+00 -7.51473E+00 -6.70800E+00 -1.46481E+01  2.06939E-01  1.36016E+00
  -6.36981E+00  2.18158E+00 -1.67690E+00  1.65527E+00  3.60881E+00  8.97362E-01  7.26452E+00  6.36888E+00  2.23039E+00  4.73637E+00
   3.01776E+00 -8.71299E-01  9.52072E+00 -6.02236E-01  3.06479E+00  1.15618E+01 -8.44899E+00 -9.12538E+00 -9.39029E+00  5.53748E+00
   1.01803E+01 -9.85808E+00 -7.50237E+00  6.85539E+00 -5.12741E+00 -1.09686E+01  5.19474E+00  5.17631E-02  7.19094E-01 -1.78487E+00
 NY points of the fit to the data follow
   3.53673E+01  3.35940E+01  3.23311E+01  3.19561E+01  3.25707E+01  3.38346E+01  3.50796E+01  3.57796E+01  3.57854E+01  3.51617E+01
   3.41262E+01  3.30532E+01  3.21344E+01  3.04529E+01  2.76237E+01  2.37176E+01  1.90108E+01  1.39529E+01  9.11140E+00  4.89926E+00
   1.65818E+00 -5.53082E-02  4.24069E-01  3.37654E+00  8.33431E+00  1.43572E+01  2.04982E+01  2.62232E+01  3.13600E+01  3.57266E+01
   3.87389E+01  3.97049E+01  3.84732E+01  3.49288E+01  2.90334E+01  2.06132E+01  1.00262E+01 -1.44606E+00 -1.27888E+01 -2.27547E+01
  -3.00641E+01 -3.38482E+01 -3.37952E+01 -3.01837E+01 -2.35611E+01 -1.50108E+01 -5.87751E+00  3.06718E+00  1.08148E+01  1.65541E+01
   2.03050E+01  2.18667E+01  2.09388E+01  1.75864E+01  1.25744E+01  6.93406E+00  1.43727E+00 -2.69503E+00 -4.71050E+00 -4.87781E+00
  -3.68511E+00 -1.49929E+00  9.34711E-01  2.87161E+00  3.61421E+00  2.68231E+00 -1.05154E-02 -4.00526E+00 -8.45627E+00 -1.21644E+01
  -1.41936E+01 -1.44949E+01 -1.27338E+01 -9.02421E+00 -4.24444E+00  8.39277E-01  5.55334E+00  9.52406E+00  1.26661E+01  1.50104E+01
   1.66056E+01  1.72961E+01  1.72347E+01  1.70928E+01  1.71563E+01  1.75471E+01  1.85359E+01  2.03058E+01  2.28893E+01  2.59866E+01
   2.94860E+01  3.33022E+01  3.71759E+01  4.08441E+01  4.41917E+01  4.68247E+01  4.82204E+01  4.91927E+01  5.02755E+01  5.07752E+01
   4.96862E+01  4.62955E+01  4.04282E+01  3.22810E+01  2.21758E+01  1.03277E+01 -3.12815E+00 -1.76578E+01 -3.19700E+01 -4.43674E+01
  -5.35089E+01 -5.90352E+01 -6.12792E+01 -6.05987E+01 -5.76147E+01 -5.30790E+01 -4.76229E+01 -4.15771E+01 -3.50878E+01 -2.80343E+01
  -2.06543E+01 -1.33247E+01 -5.06331E+00  4.41335E+00  1.44254E+01  2.39225E+01  3.19802E+01  3.80174E+01  4.17330E+01  4.27664E+01
   4.05108E+01  3.44613E+01  2.48620E+01  1.30271E+01  6.58034E-01 -1.09698E+01 -2.12599E+01 -2.99123E+01 -3.67145E+01 -4.17843E+01
  -4.56860E+01 -4.90005E+01 -5.18497E+01 -5.39023E+01 -5.46037E+01 -5.41796E+01 -5.35454E+01 -5.26497E+01 -5.14948E+01 -5.01337E+01
  -4.86663E+01 -4.71108E+01 -4.54470E+01 -4.36491E+01 -4.17993E+01 -4.00613E+01 -3.84328E+01 -3.68769E+01 -3.53174E+01 -3.37778E+01
  -3.24065E+01 -3.13091E+01 -3.03221E+01 -2.91543E+01 -2.76767E+01 -2.59503E+01 -2.42182E+01 -2.26066E+01 -2.09600E+01 -1.91406E+01
  -1.72227E+01 -1.55277E+01 -1.44127E+01 -1.40456E+01 -1.43518E+01 -1.52120E+01 -1.65776E+01 -1.84643E+01 -2.07733E+01 -2.34020E+01
  -2.62831E+01 -2.91653E+01 -3.19253E+01 -3.44123E+01 -3.63119E+01 -3.73585E+01 -3.74731E+01 -3.68489E+01 -3.56059E+01 -3.37996E+01
  -3.15291E+01 -2.90016E+01 -2.65447E+01 -2.43697E+01 -2.25927E+01 -2.12625E+01 -2.02965E+01 -1.94521E+01 -1.85616E+01 -1.75878E+01
  -1.65176E+01 -1.53342E+01 -1.43252E+01 -1.37625E+01 -1.39003E+01 -1.54185E+01 -1.80419E+01 -2.15031E+01 -2.52865E+01 -2.86422E+01
  -3.09404E+01 -3.15365E+01 -3.01606E+01 -2.68002E+01 -2.16371E+01 -1.51654E+01 -8.04838E+00 -1.05783E+00  5.09223E+00  9.95575E+00
   1.33699E+01  1.53128E+01  1.57109E+01  1.46170E+01  1.18980E+01  7.21465E+00  7.71730E-01 -7.46543E+00 -1.72561E+01 -2.77981E+01
  -3.86000E+01 -4.90018E+01 -5.84277E+01 -6.65465E+01 -7.30153E+01 -7.75621E+01 -8.00614E+01 -8.05292E+01 -7.91581E+01 -7.63183E+01
  -7.21774E+01 -6.68467E+01 -6.13336E+01 -5.72312E+01 -5.48734E+01 -5.36353E+01 -5.29473E+01 -5.33746E+01 -5.47079E+01 -5.59321E+01
  -5.58985E+01 -5.30534E+01 -4.64624E+01 -3.62334E+01 -2.34470E+01 -9.15123E+00  5.88530E+00  2.11792E+01  3.57901E+01  4.84353E+01
   5.84280E+01  6.57592E+01  7.07132E+01  7.34397E+01  7.37922E+01  7.19133E+01  6.87838E+01  6.55797E+01  6.23980E+01  5.90434E+01
   5.56694E+01  5.30122E+01  5.11299E+01  4.99147E+01  4.92110E+01  4.88641E+01  4.87193E+01  4.86336E+01  4.84935E+01  4.82051E+01
   4.76968E+01  4.69189E+01  4.58255E+01  4.43981E+01  4.25894E+01  4.04018E+01  3.78476E+01  3.49518E+01  3.18170E+01  2.85355E+01
   2.52546E+01  2.21242E+01  1.93091E+01  1.69599E+01  1.51996E+01  1.40904E+01  1.36189E+01  1.37397E+01  1.43963E+01  1.55189E+01
   1.70354E+01  1.88578E+01  2.09087E+01  2.31473E+01  2.55270E+01  2.80094E+01  3.05641E+01  3.31588E+01  3.57410E+01  3.82679E+01
   4.06990E+01  4.30355E+01  4.56354E+01  4.84045E+01  5.12495E+01  5.39202E+01  5.58705E+01  5.66111E+01  5.58010E+01  5.32290E+01
   4.87368E+01  4.22369E+01  3.38679E+01  2.40662E+01  1.35208E+01  3.04780E+00 -6.63651E+00 -1.50331E+01 -2.18693E+01 -2.71133E+01
  -3.08694E+01 -3.32578E+01 -3.43937E+01 -3.43662E+01 -3.32223E+01 -3.10455E+01 -2.82436E+01 -2.48989E+01 -2.12894E+01 -1.75779E+01
  -1.37305E+01 -9.77777E+00 -5.82017E+00 -2.03165E+00  1.40055E+00  4.29457E+00  6.51974E+00  7.99817E+00  8.70695E+00  8.67235E+00
   7.97774E+00  6.75030E+00  5.17848E+00  3.49766E+00  1.95531E+00  7.68231E-01  1.06941E-01  6.07209E-02  6.58896E-01  1.87801E+00
   3.65886E+00  5.91494E+00  8.54463E+00  1.14444E+01  1.45395E+01  1.77545E+01  2.10262E+01  2.43228E+01  2.76447E+01  3.10125E+01
   3.44591E+01  3.80313E+01  4.17975E+01  4.58390E+01  5.02594E+01  5.51730E+01  6.06855E+01  6.68461E+01  7.36033E+01  8.07711E+01
   8.80738E+01  9.51603E+01  1.01619E+02  1.07044E+02  1.11094E+02  1.13532E+02  1.14223E+02  1.13200E+02  1.10608E+02  1.06685E+02
   1.01689E+02  9.58720E+01  8.94221E+01  8.24828E+01  7.51589E+01  6.75606E+01  5.98311E+01  5.21611E+01  4.47571E+01  3.78126E+01
   3.14521E+01  2.57570E+01  2.07594E+01  1.64545E+01  1.27968E+01  9.72965E+00  7.21167E+00  5.18426E+00  3.57580E+00  2.32919E+00
   1.39423E+00  7.03131E-01  1.97352E-01 -1.62228E-01 -4.00688E-01 -5.58020E-01 -6.59013E-01 -7.22743E-01 -7.49679E-01 -7.48108E-01
  -7.21807E-01 -6.78924E-01 -6.17650E-01 -5.49623E-01 -4.78708E-01 -4.06533E-01 -3.34393E-01 -2.56019E-01 -1.75339E-01 -1.04273E-01
  -5.42248E-02 -7.46046E-03  5.27392E-02  1.30832E-01  2.24961E-01  3.25986E-01  4.33195E-01  5.33130E-01  6.15469E-01  6.82547E-01
   7.33821E-01  7.68271E-01  7.83862E-01  7.89224E-01  7.88292E-01  7.94516E-01  8.01386E-01  8.17782E-01  8.32919E-01  8.56037E-01
   8.93989E-01  9.48116E-01  1.01662E+00  1.09600E+00  1.17864E+00  1.24813E+00  1.29343E+00  1.31030E+00  1.30534E+00  1.29571E+00
   1.28472E+00  1.27887E+00  1.27910E+00  1.28511E+00  1.29961E+00  1.31983E+00  1.34350E+00  1.35920E+00  1.34622E+00  1.29310E+00
   1.20081E+00  1.07217E+00  9.21051E-01  7.53677E-01  5.83428E-01  4.19236E-01  2.71224E-01  1.56962E-01  9.39513E-02  9.25391E-02
 NY background values follow
     6.713E+01    6.586E+01    6.459E+01    6.332E+01    6.204E+01    6.077E+01    5.949E+01    5.821E+01    5.693E+01    5.566E+01
     5.439E+01    5.312E+01    5.185E+01    5.059E+01    4.934E+01    4.810E+01    4.686E+01    4.563E+01    4.441E+01    4.320E+01
     4.200E+01    4.081E+01    3.964E+01    3.848E+01    3.733E+01    3.620E+01    3.509E+01    3.400E+01    3.292E+01    3.186E+01
     3.082E+01    2.980E+01    2.880E+01    2.782E+01    2.687E+01    2.593E+01    2.501E+01    2.412E+01    2.324E+01    2.239E+01
     2.156E+01    2.075E+01    1.996E+01    1.919E+01    1.844E+01    1.771E+01    1.701E+01    1.632E+01    1.566E+01    1.501E+01
     1.439E+01    1.379E+01    1.321E+01    1.266E+01    1.212E+01    1.161E+01    1.112E+01    1.064E+01    1.019E+01    9.767E+00
     9.361E+00    8.976E+00    8.613E+00    8.270E+00    7.947E+00    7.643E+00    7.359E+00    7.093E+00    6.845E+00    6.614E+00
     6.400E+00    6.202E+00    6.020E+00    5.853E+00    5.700E+00    5.562E+00    5.437E+00    5.325E+00    5.225E+00    5.138E+00
     5.061E+00    4.996E+00    4.941E+00    4.895E+00    4.859E+00    4.831E+00    4.812E+00    4.800E+00    4.795E+00    4.796E+00
     4.803E+00    4.816E+00    4.834E+00    4.857E+00    4.885E+00    4.917E+00    4.954E+00    4.994E+00    5.038E+00    5.086E+00
     5.137E+00    5.191E+00    5.248E+00    5.308E+00    5.370E+00    5.434E+00    5.500E+00    5.567E+00    5.636E+00    5.707E+00
     5.778E+00    5.850E+00    5.922E+00    5.994E+00    6.067E+00    6.139E+00    6.211E+00    6.282E+00    6.352E+00    6.421E+00
     6.489E+00    6.555E+00    6.619E+00    6.682E+00    6.742E+00    6.801E+00    6.859E+00    6.914E+00    6.967E+00    7.019E+00
     7.068E+00    7.115E+00    7.160E+00    7.203E+00    7.244E+00    7.283E+00    7.319E+00    7.353E+00    7.384E+00    7.413E+00
     7.440E+00    7.464E+00    7.486E+00    7.504E+00    7.521E+00    7.534E+00    7.545E+00    7.553E+00    7.558E+00    7.560E+00
     7.559E+00    7.555E+00    7.548E+00    7.538E+00    7.525E+00    7.509E+00    7.490E+00    7.467E+00    7.442E+00    7.412E+00
     7.380E+00    7.344E+00    7.305E+00    7.262E+00    7.216E+00    7.167E+00    7.114E+00    7.057E+00    6.996E+00    6.932E+00
     6.865E+00    6.793E+00    6.718E+00    6.639E+00    6.556E+00    6.469E+00    6.378E+00    6.284E+00    6.185E+00    6.082E+00
     5.975E+00    5.864E+00    5.749E+00    5.631E+00    5.508E+00    5.382E+00    5.252E+00    5.119E+00    4.982E+00    4.842E+00
     4.699E+00    4.552E+00    4.403E+00    4.250E+00    4.095E+00    3.937E+00    3.777E+00    3.613E+00    3.448E+00    3.280E+00
     3.110E+00    2.937E+00    2.763E+00    2.586E+00    2.408E+00    2.228E+00    2.046E+00    1.862E+00    1.677E+00    1.491E+00
     1.303E+00    1.114E+00    9.233E-01    7.313E-01    5.378E-01    3.427E-01    1.459E-01   -5.273E-02   -2.532E-01   -4.556E-01
    -6.600E-01   -8.665E-01   -1.075E+00   -1.286E+00   -1.499E+00   -1.715E+00   -1.933E+00   -2.154E+00   -2.377E+00   -2.603E+00
    -2.832E+00   -3.064E+00   -3.298E+00   -3.536E+00   -3.777E+00   -4.021E+00   -4.268E+00   -4.519E+00   -4.773E+00   -5.031E+00
    -5.292E+00   -5.556E+00   -5.824E+00   -6.096E+00   -6.370E+00   -6.647E+00   -6.928E+00   -7.210E+00   -7.496E+00   -7.783E+00
    -8.073E+00   -8.365E+00   -8.659E+00   -8.954E+00   -9.251E+00   -9.550E+00   -9.850E+00   -1.015E+01   -1.045E+01   -1.076E+01
    -1.106E+01   -1.136E+01   -1.167E+01   -1.197E+01   -1.228E+01   -1.258E+01   -1.289E+01   -1.319E+01   -1.350E+01   -1.380E+01
    -1.410E+01   -1.440E+01   -1.470E+01   -1.500E+01   -1.529E+01   -1.559E+01   -1.587E+01   -1.616E+01   -1.644E+01   -1.671E+01
    -1.698E+01   -1.724E+01   -1.750E+01   -1.774E+01   -1.798E+01   -1.821E+01   -1.844E+01   -1.865E+01   -1.886E+01   -1.905E+01
    -1.923E+01   -1.940E+01   -1.956E+01   -1.971E+01   -1.984E+01   -1.997E+01   -2.007E+01   -2.017E+01   -2.024E+01   -2.031E+01
    -2.035E+01   -2.038E+01   -2.040E+01   -2.040E+01   -2.038E+01   -2.035E+01   -2.030E+01   -2.024E+01   -2.016E+01   -2.006E+01
    -1.995E+01   -1.983E+01   -1.969E+01   -1.954E+01   -1.937E+01   -1.918E+01   -1.899E+01   -1.877E+01   -1.855E+01   -1.830E+01
    -1.805E+01   -1.778E+01   -1.749E+01   -1.720E+01   -1.688E+01   -1.656E+01   -1.622E+01   -1.587E+01   -1.550E+01   -1.512E+01
    -1.473E+01   -1.432E+01   -1.391E+01   -1.348E+01   -1.304E+01   -1.259E+01   -1.213E+01   -1.166E+01   -1.118E+01   -1.070E+01
    -1.020E+01   -9.704E+00   -9.199E+00   -8.689E+00   -8.175E+00   -7.656E+00   -7.134E+00   -6.609E+00   -6.082E+00   -5.554E+00
    -5.025E+00   -4.495E+00   -3.966E+00   -3.438E+00   -2.912E+00   -2.387E+00   -1.866E+00   -1.348E+00   -8.349E-01   -3.260E-01
     1.776E-01    6.753E-01    1.167E+00    1.653E+00    2.132E+00    2.605E+00    3.071E+00    3.530E+00    3.982E+00    4.427E+00
     4.864E+00    5.293E+00    5.714E+00    6.127E+00    6.532E+00    6.928E+00    7.316E+00    7.694E+00    8.063E+00    8.423E+00
     8.773E+00    9.114E+00    9.444E+00    9.764E+00    1.007E+01    1.037E+01    1.066E+01    1.094E+01    1.120E+01    1.146E+01
     1.170E+01    1.193E+01    1.215E+01    1.236E+01    1.256E+01    1.275E+01    1.293E+01    1.309E+01    1.325E+01    1.339E+01
     1.353E+01    1.366E+01    1.378E+01    1.388E+01    1.398E+01    1.407E+01    1.416E+01    1.423E+01    1.430E+01    1.435E+01
     1.440E+01    1.444E+01    1.448E+01    1.451E+01    1.453E+01    1.454E+01    1.455E+01    1.455E+01    1.454E+01    1.453E+01
     1.451E+01    1.449E+01    1.446E+01    1.442E+01    1.438E+01    1.434E+01    1.429E+01    1.424E+01    1.418E+01    1.411E+01
     1.405E+01    1.398E+01    1.390E+01    1.382E+01    1.374E+01    1.366E+01    1.357E+01    1.348E+01    1.338E+01    1.329E+01
     1.319E+01    1.309E+01    1.298E+01    1.288E+01    1.277E+01    1.266E+01    1.255E+01    1.244E+01    1.233E+01    1.222E+01
     1.211E+01    1.199E+01    1.188E+01    1.176E+01    1.165E+01    1.153E+01    1.141E+01    1.130E+01    1.118E+01    1.106E+01
     1.094E+01    1.082E+01    1.070E+01    1.058E+01    1.046E+01    1.034E+01    1.022E+01    1.010E+01    9.980E+00    9.858E+00
     9.736E+00    9.614E+00    9.491E+00    9.368E+00    9.245E+00    9.122E+00    8.999E+00    8.875E+00    8.752E+00    8.628E+00
 Mac      Conc. = 2.74E-04
   4.88333E+01  4.69513E+01  4.49746E+01  4.29191E+01  4.08001E+01  3.86065E+01  3.62794E+01  3.38320E+01  3.13256E+01  2.88198E+01
   2.63815E+01  2.40761E+01  2.19876E+01  2.01964E+01  1.88048E+01  1.79004E+01  1.75143E+01  1.76054E+01  1.80874E+01  1.88497E+01
   1.97702E+01  2.07428E+01  2.16974E+01  2.26119E+01  2.34875E+01  2.43062E+01  2.50173E+01  2.55729E+01  2.59623E+01  2.62116E+01
   2.63607E+01  2.64006E+01  2.63290E+01  2.62034E+01  2.60943E+01  2.60583E+01  2.61030E+01  2.62067E+01  2.63289E+01  2.64373E+01
   2.65256E+01  2.65767E+01  2.65503E+01  2.64089E+01  2.61179E+01  2.56332E+01  2.49235E+01  2.39920E+01  2.28727E+01  2.16354E+01
   2.03896E+01  1.92305E+01  1.82262E+01  1.74272E+01  1.68544E+01  1.65018E+01  1.63521E+01  1.63653E+01  1.64701E+01  1.65622E+01
   1.65600E+01  1.64219E+01  1.61476E+01  1.58016E+01  1.54490E+01  1.51660E+01  1.50182E+01  1.50471E+01  1.52818E+01  1.57218E+01
   1.63138E+01  1.69530E+01  1.75460E+01  1.80328E+01  1.83683E+01  1.85346E+01  1.85465E+01  1.84513E+01  1.83095E+01  1.81799E+01
   1.81025E+01  1.80989E+01  1.81921E+01  1.84176E+01  1.87784E+01  1.92595E+01  1.98332E+01  2.04381E+01  2.10050E+01  2.14671E+01
   2.17743E+01  2.18842E+01  2.17627E+01  2.13911E+01  2.07863E+01  1.99655E+01  1.89077E+01  1.75520E+01  1.58236E+01  1.36707E+01
   1.10560E+01  7.98337E+00  4.51418E+00  7.52379E-01 -3.13280E+00 -6.91671E+00 -1.03437E+01 -1.31908E+01 -1.53116E+01 -1.66509E+01
