 LCModel (Version 6.3-1N) Copyright: S.W. Provencher.          Ref.: Magn. Reson. Med. 30:672-679 (1993).                
 Slice_N1@13_15  28-Feb-2025 11:39:06
 27 lines in following concentration table = NCONC+1
    Conc.  %SD /Cr+PCr  Metabolite                                         
 2.42E-04   5% 2.3E-04 Mac                                                 
    3.115  57%   3.005 Cr                                                  
    5.176  34%   4.995 PCr                                                 
    7.633  15%   7.366 Ins                                                 
    9.113  11%   8.794 NAA                                                 
    5.541  20%   5.346 Tau                                                 
    0.000 999%   0.000 PCho                                                
    2.515  12%   2.427 GPC                                                 
    7.108  18%   6.859 Glu                                                 
    3.856  26%   3.721 Gln                                                 
    0.225 383%   0.217 Ala                                                 
    5.098  29%   4.919 Asc                                                 
    2.417  46%   2.333 Asp                                                 
    0.804  78%   0.776 GABA                                                
    1.341  58%   1.294 Glc                                                 
    2.575  24%   2.485 GSH                                                 
    0.000 999%   0.000 Lac                                                 
    1.247  59%   1.203 NAAG                                                
    0.000 999%   0.000 PE                                                  
    2.515  12%   2.427 GPC+PCho                                            
   10.360  10%   9.996 NAA+NAAG                                            
   10.964  15%  10.580 Glu+Gln                                             
    8.291  10%   8.000 Cr+PCr                                              
   10.360  10%   9.996 NAA+NAAG                                            
    8.291  10%   8.000 Cr+PCr                                              
   10.964  15%  10.580 Glu+Gln                                             
   6 lines in following misc. output table
  FWHM = 0.033 ppm    S/N =   3                                            
  Data shift = 0.033 ppm                                                   
  Ph:-158 deg       0.0 deg/ppm                                            
  alphaB,S = 3.1E+01,   6.4E+00                                            
   19 spline knots.   Ns = 5(1)                                            
   2 inflections.     1 extrema                                            
  480 points on ppm-axis = NY
      4.100000     4.091866     4.083733     4.075600     4.067466     4.059333     4.051199     4.043066     4.034933     4.026799
      4.018666     4.010532     4.002399     3.994265     3.986132     3.977998     3.969864     3.961731     3.953597     3.945463
      3.937330     3.929196     3.921062     3.912929     3.904795     3.896662     3.888528     3.880394     3.872261     3.864127
      3.855993     3.847860     3.839726     3.831592     3.823459     3.815325     3.807191     3.799058     3.790924     3.782790
      3.774657     3.766523     3.758389     3.750256     3.742122     3.733989     3.725855     3.717721     3.709588     3.701454
      3.693320     3.685187     3.677053     3.668919     3.660786     3.652652     3.644518     3.636385     3.628251     3.620117
      3.611984     3.603850     3.595716     3.587583     3.579449     3.571316     3.563182     3.555048     3.546915     3.538781
      3.530647     3.522514     3.514380     3.506246     3.498113     3.489979     3.481845     3.473712     3.465578     3.457444
      3.449311     3.441177     3.433043     3.424910     3.416776     3.408643     3.400509     3.392375     3.384242     3.376108
      3.367974     3.359841     3.351707     3.343573     3.335440     3.327306     3.319172     3.311039     3.302905     3.294771
      3.286638     3.278504     3.270370     3.262237     3.254103     3.245970     3.237836     3.229702     3.221569     3.213435
      3.205301     3.197168     3.189034     3.180900     3.172767     3.164633     3.156499     3.148366     3.140232     3.132098
      3.123965     3.115831     3.107697     3.099564     3.091430     3.083297     3.075163     3.067029     3.058896     3.050762
      3.042628     3.034495     3.026361     3.018227     3.010094     3.001960     2.993826     2.985693     2.977559     2.969425
      2.961292     2.953158     2.945024     2.936891     2.928757     2.920624     2.912490     2.904356     2.896223     2.888089
      2.879955     2.871822     2.863688     2.855554     2.847421     2.839287     2.831153     2.823020     2.814886     2.806752
      2.798619     2.790485     2.782351     2.774218     2.766084     2.757951     2.749817     2.741683     2.733550     2.725416
      2.717282     2.709149     2.701015     2.692881     2.684748     2.676614     2.668480     2.660347     2.652213     2.644079
      2.635946     2.627812     2.619678     2.611545     2.603411     2.595278     2.587144     2.579010     2.570877     2.562743
      2.554609     2.546476     2.538342     2.530208     2.522075     2.513941     2.505807     2.497674     2.489540     2.481406
      2.473273     2.465139     2.457006     2.448872     2.440738     2.432605     2.424471     2.416337     2.408204     2.400070
      2.391936     2.383803     2.375669     2.367535     2.359402     2.351268     2.343134     2.335001     2.326867     2.318733
      2.310600     2.302466     2.294333     2.286199     2.278065     2.269932     2.261798     2.253664     2.245531     2.237397
      2.229263     2.221130     2.212996     2.204862     2.196729     2.188595     2.180461     2.172328     2.164194     2.156060
      2.147927     2.139793     2.131660     2.123526     2.115392     2.107259     2.099125     2.090991     2.082858     2.074724
      2.066590     2.058457     2.050323     2.042189     2.034056     2.025922     2.017788     2.009655     2.001521     1.993387
      1.985254     1.977120     1.968987     1.960853     1.952719     1.944586     1.936452     1.928318     1.920185     1.912051
      1.903917     1.895784     1.887650     1.879516     1.871383     1.863249     1.855115     1.846982     1.838848     1.830714
      1.822581     1.814447     1.806314     1.798180     1.790046     1.781913     1.773779     1.765645     1.757512     1.749378
      1.741244     1.733111     1.724977     1.716843     1.708710     1.700576     1.692442     1.684309     1.676175     1.668041
      1.659908     1.651774     1.643641     1.635507     1.627373     1.619240     1.611106     1.602972     1.594839     1.586705
      1.578571     1.570438     1.562304     1.554170     1.546037     1.537903     1.529769     1.521636     1.513502     1.505368
      1.497235     1.489101     1.480968     1.472834     1.464700     1.456567     1.448433     1.440299     1.432166     1.424032
      1.415898     1.407765     1.399631     1.391497     1.383364     1.375230     1.367096     1.358963     1.350829     1.342695
      1.334562     1.326428     1.318295     1.310161     1.302027     1.293894     1.285760     1.277626     1.269493     1.261359
      1.253225     1.245092     1.236958     1.228824     1.220691     1.212557     1.204423     1.196290     1.188156     1.180022
      1.171889     1.163755     1.155622     1.147488     1.139354     1.131221     1.123087     1.114953     1.106820     1.098686
      1.090552     1.082419     1.074285     1.066151     1.058018     1.049884     1.041750     1.033617     1.025483     1.017349
      1.009216     1.001082     0.992949     0.984815     0.976681     0.968548     0.960414     0.952280     0.944147     0.936013
      0.927879     0.919746     0.911612     0.903478     0.895345     0.887211     0.879077     0.870944     0.862810     0.854676
      0.846543     0.838409     0.830276     0.822142     0.814008     0.805875     0.797741     0.789607     0.781474     0.773340
      0.765206     0.757073     0.748939     0.740805     0.732672     0.724538     0.716404     0.708271     0.700137     0.692003
      0.683870     0.675736     0.667603     0.659469     0.651335     0.643202     0.635068     0.626934     0.618801     0.610667
      0.602533     0.594400     0.586266     0.578132     0.569999     0.561865     0.553731     0.545598     0.537464     0.529330
      0.521197     0.513063     0.504930     0.496796     0.488662     0.480529     0.472395     0.464261     0.456128     0.447994
      0.439861     0.431727     0.423593     0.415460     0.407326     0.399192     0.391059     0.382925     0.374792     0.366658
      0.358524     0.350391     0.342257     0.334124     0.325990     0.317856     0.309723     0.301589     0.293455     0.285322
      0.277188     0.269055     0.260921     0.252787     0.244654     0.236520     0.228386     0.220253     0.212119     0.203986
 NY phased data points follow
  -7.32196E+01 -6.65248E+01 -7.35904E+01 -7.25096E+01 -5.59138E+01 -7.50612E+01 -6.37714E+01 -5.97968E+01 -5.71689E+01 -5.46910E+01
  -7.54491E+01 -7.15192E+01 -8.66509E+01 -9.17348E+01 -8.61182E+01 -9.94480E+01 -9.94829E+01 -1.10254E+02 -1.18973E+02 -1.40697E+02
  -1.37558E+02 -9.68867E+01 -9.13127E+01 -8.91652E+01 -6.38606E+01 -3.81282E+01 -3.57303E+01 -3.00203E+01 -2.52944E+01 -4.54386E+01
  -3.69827E+01 -3.84404E+01 -5.03026E+01 -4.44035E+01 -5.04902E+01 -5.01648E+01 -4.66645E+01 -5.18371E+01 -6.95017E+01 -1.00232E+02
  -1.06501E+02 -9.88533E+01 -9.93528E+01 -8.58131E+01 -7.73404E+01 -7.02244E+01 -4.75173E+01 -3.51113E+01 -2.02638E+01 -2.04241E+01
  -1.86468E+01 -8.93682E+00 -1.79070E+01 -2.13386E+01 -4.52326E+01 -6.08956E+01 -5.41998E+01 -5.93975E+01 -5.81550E+01 -6.53392E+01
  -6.44179E+01 -5.79697E+01 -3.70518E+01 -2.31710E+01 -3.30186E+01 -1.35953E+01 -2.48492E+01 -4.58389E+01 -4.69280E+01 -6.91239E+01
  -6.45782E+01 -5.76271E+01 -6.22229E+01 -4.42952E+01 -2.03611E+01 -1.00829E+01 -1.77312E+00  2.92695E+00  1.83434E+00 -2.78181E+00
  -9.87458E+00 -7.88600E+00 -2.36916E+01 -3.26981E+01 -2.94175E+01 -3.94809E+01 -3.52913E+01 -3.32559E+01 -1.37520E+01 -4.08560E+00
  -8.16663E+00  1.19405E+01  9.56242E+00  1.67198E+01  2.71182E+01  1.93306E+01  2.41503E+01  2.24861E+01  1.27974E+01  9.28989E+00
   1.64922E+01  9.21904E+00  3.14689E+00 -1.17689E+01 -2.98678E+01 -3.36501E+01 -5.25749E+01 -5.72264E+01 -7.31164E+01 -1.23037E+02
  -1.75426E+02 -1.76353E+02 -1.42233E+02 -1.28382E+02 -1.05205E+02 -9.83105E+01 -7.62162E+01 -5.01082E+01 -6.72540E+01 -6.07742E+01
  -4.34362E+01 -3.89609E+01 -4.18658E+01 -3.82481E+01 -2.39729E+00 -5.47055E-02 -5.77748E+00  2.35292E+01  3.73720E+01  6.20482E+01
   7.37144E+01  4.03967E+01 -2.92955E+01 -9.07953E+01 -1.03409E+02 -1.19682E+02 -1.26941E+02 -1.09932E+02 -8.62410E+01 -9.63615E+01
  -1.03595E+02 -9.05741E+01 -1.06803E+02 -1.03782E+02 -9.50478E+01 -9.47357E+01 -8.96183E+01 -9.02275E+01 -9.12822E+01 -8.75101E+01
  -8.70848E+01 -8.13508E+01 -7.16190E+01 -8.36507E+01 -7.70955E+01 -6.30850E+01 -5.88580E+01 -6.07037E+01 -6.33557E+01 -6.35680E+01
  -6.56159E+01 -6.24430E+01 -6.57799E+01 -6.02032E+01 -6.11441E+01 -6.48760E+01 -5.92683E+01 -5.50296E+01 -5.42968E+01 -5.43535E+01
  -4.12487E+01 -2.65634E+01 -2.40858E+01 -4.09593E+01 -3.73478E+01 -2.85403E+01 -3.46441E+01 -2.21329E+01 -3.42148E+01 -5.70471E+01
  -4.32095E+01 -4.45085E+01 -5.76095E+01 -6.82042E+01 -7.45154E+01 -7.37029E+01 -7.75343E+01 -6.22658E+01 -6.80893E+01 -6.64904E+01
  -6.62842E+01 -6.49972E+01 -3.29700E+01 -4.73187E+01 -4.36870E+01 -4.03047E+01 -5.12715E+01 -3.41772E+01 -3.09296E+01 -4.84694E+01
  -5.28293E+01 -3.56258E+01 -3.45022E+01 -3.08539E+01 -3.00072E+01 -2.86164E+01 -4.56569E+01 -6.37541E+01 -6.48400E+01 -7.22052E+01
  -6.74656E+01 -6.39217E+01 -5.24684E+01 -5.62132E+01 -3.73154E+01 -1.15259E+01 -3.38152E+00  2.10742E+00 -8.59496E+00 -1.67705E+01
  -3.30989E+01 -4.11620E+01 -5.74485E+01 -4.37334E+01 -4.44177E+01 -6.65285E+01 -4.67705E+01 -4.81650E+01 -5.06164E+01 -4.54435E+01
  -3.76286E+01 -4.70273E+01 -4.08470E+01 -3.85686E+01 -6.72993E+01 -6.15765E+01 -7.75569E+01 -7.48092E+01 -5.68133E+01 -7.80396E+01
  -6.36425E+01 -6.10423E+01 -6.46669E+01 -3.67158E+01 -3.75828E+01 -2.67009E+01 -2.20006E+01 -3.85502E+01 -3.72542E+01 -3.71916E+01
  -3.71758E+01 -5.25575E+01 -5.56562E+01 -5.19209E+01 -7.36051E+01 -1.09697E+02 -9.55880E+01 -2.50674E+01  4.21025E+01  8.83337E+01
   8.98555E+01  9.84289E+01  9.42858E+01  7.55679E+01  7.06791E+01  5.79263E+01  5.27173E+01  2.62906E+01  3.32517E+01  5.07514E+01
   3.96893E+01  3.96234E+01  2.73562E+01  3.81444E+01  4.26376E+01  2.41768E+01  3.85354E+01  4.18227E+01  4.47324E+01  4.29225E+01
   4.00709E+01  5.85583E+01  4.18773E+01  3.36159E+01  2.88094E+01  1.46282E+01  1.46664E+01  1.91214E+01  2.61387E+01  2.93420E+01
   2.71631E+01  1.17954E+01  3.06084E+01  8.27028E+00 -7.46533E+00  2.34798E+01  3.42348E+00  6.92053E+00  1.11154E+01  1.23064E+01
   2.55838E+01  1.72850E+01  1.14282E+00 -1.92188E+00  2.65851E+00  5.33046E+00  1.43047E+01  4.21801E+00  1.71341E+01  1.90328E+01
   1.65695E+01  1.56384E+01  2.91990E+00  1.84271E+01 -5.13160E+00  2.66364E+00  3.00989E+01 -6.21380E+00 -1.28008E+01 -1.08395E+01
  -2.36741E+01 -1.00843E+01 -1.53256E+01 -2.36844E+01 -2.92014E+01 -2.87534E+01 -2.04382E+01 -4.28234E+01 -3.61854E+01 -4.44638E+01
  -6.23351E+01 -6.83426E+01 -7.19753E+01 -4.38478E+01 -5.39857E+01 -4.03652E+01 -8.23555E+00  1.47913E+01  4.52798E+01  6.66584E+01
   1.02755E+02  1.03073E+02  1.09966E+02  1.10301E+02  9.32045E+01  1.09604E+02  8.72301E+01  5.32264E+01  3.91511E+01  1.03412E+01
   1.05055E+01  3.40840E+00 -3.10963E+01 -3.13311E+01 -3.05904E+01 -3.39637E+01 -3.31551E+01 -4.18469E+01 -4.83218E+01 -4.57048E+01
  -4.71868E+01 -6.15752E+01 -5.76652E+01 -5.03906E+01 -3.03316E+01 -1.87877E+01 -3.01874E+01 -2.66631E+01 -1.60726E+01  3.24318E+00
   3.60564E+00 -3.84088E+00  1.11596E+01  2.46702E+01  2.03050E+01  2.68658E+01  1.98240E+01  7.45429E+00  3.87763E+01  3.76089E+01
   4.03302E+01  6.23324E+01  7.14484E+01  8.06717E+01  7.62533E+01  8.58142E+01  9.23971E+01  1.14476E+02  1.06825E+02  8.00143E+01
   9.05474E+01  7.54953E+01  6.12174E+01  4.10190E+01  1.42582E+01  8.88722E+00  1.40569E+01  1.71016E+01  4.51703E+00 -1.14574E+01
  -2.07574E+01 -1.40003E+01 -2.90560E+01 -4.52585E+01 -2.50723E+01 -2.48502E+01 -4.06345E+01 -3.80875E+01 -3.95709E+01 -4.30173E+01
  -4.28696E+01 -3.95378E+01 -2.85474E+01 -3.45518E+01 -2.78041E+01 -2.63648E+01 -3.44923E+01 -2.43791E+01 -3.26333E+01 -4.05162E+01
  -3.91585E+01 -3.02940E+01 -3.41683E+01 -3.28236E+01 -2.30046E+01 -3.17579E+01 -2.76333E+01 -3.22796E+01 -3.42069E+01 -3.63564E+01
  -3.44717E+01 -4.03686E+01 -4.32556E+01 -2.97361E+01 -4.06639E+01 -2.87176E+01 -3.79675E+01 -4.09544E+01 -3.27341E+01 -3.63372E+01
  -1.56792E+01 -3.41574E+01 -2.97556E+01 -2.75387E+01 -4.03303E+01 -2.70150E+01 -2.62951E+01 -2.67672E+01 -2.75679E+01 -2.20919E+01
  -3.32069E+01 -3.60871E+01 -2.60038E+01 -2.66125E+01 -3.09767E+01 -2.49679E+01 -1.79519E+01 -3.23652E+01 -2.71545E+01 -2.28808E+01
  -2.42362E+01 -1.89465E+01 -1.75779E+01 -2.99294E+01 -3.22663E+01 -2.30560E+01 -3.48986E+01 -2.84714E+01 -2.88696E+01 -3.51930E+01
  -2.09236E+01 -1.34685E+01 -2.82299E+01 -3.59929E+01 -1.45868E+01 -1.12124E+00 -2.10339E+01 -4.14791E+01 -2.55146E+01 -3.14272E+01
 NY points of the fit to the data follow
  -7.56289E+01 -8.27727E+01 -9.01687E+01 -9.41206E+01 -8.97698E+01 -7.79674E+01 -6.67996E+01 -6.33630E+01 -6.64817E+01 -7.17361E+01
  -7.70941E+01 -8.01563E+01 -8.02104E+01 -7.88866E+01 -7.74030E+01 -7.70995E+01 -8.18411E+01 -9.19994E+01 -1.06871E+02 -1.20973E+02
  -1.21143E+02 -1.06445E+02 -8.62538E+01 -6.51799E+01 -4.43170E+01 -2.87333E+01 -2.18957E+01 -1.61457E+01 -1.22679E+01 -1.28070E+01
  -1.38471E+01 -1.57199E+01 -1.82803E+01 -2.07125E+01 -2.31653E+01 -2.59544E+01 -3.33581E+01 -4.71300E+01 -6.70985E+01 -8.83623E+01
  -1.00073E+02 -9.80475E+01 -8.83106E+01 -7.86896E+01 -6.80453E+01 -5.44818E+01 -4.23104E+01 -3.14915E+01 -2.28736E+01 -1.81686E+01
  -1.83563E+01 -2.35114E+01 -3.27018E+01 -4.26865E+01 -4.91617E+01 -5.17520E+01 -5.11823E+01 -5.39009E+01 -6.08464E+01 -6.27650E+01
  -5.81498E+01 -5.22465E+01 -4.43464E+01 -2.97847E+01 -1.55629E+01 -1.06379E+01 -1.20477E+01 -2.22809E+01 -4.15389E+01 -5.63458E+01
  -5.98546E+01 -5.68426E+01 -5.14995E+01 -4.09956E+01 -2.64814E+01 -1.58658E+01 -9.17656E+00 -3.77262E+00 -1.07772E+00 -1.92925E+00
  -6.45762E+00 -1.45891E+01 -2.63051E+01 -3.81078E+01 -4.54735E+01 -4.58607E+01 -3.96620E+01 -2.97575E+01 -1.90033E+01 -1.04801E+01
  -4.21709E+00  7.94248E-01  4.12083E+00  7.26116E+00  1.06838E+01  1.40126E+01  1.74694E+01  2.02833E+01  2.06426E+01  2.01689E+01
   1.94368E+01  1.30920E+01  1.19823E+00 -1.23634E+01 -2.24704E+01 -2.85393E+01 -3.00323E+01 -3.60588E+01 -6.93259E+01 -1.21383E+02
  -1.55865E+02 -1.57435E+02 -1.40109E+02 -1.20109E+02 -9.76470E+01 -8.04015E+01 -7.18493E+01 -6.41753E+01 -5.67651E+01 -4.92880E+01
  -4.13963E+01 -3.27324E+01 -2.35268E+01 -1.46234E+01 -7.38749E+00 -3.09834E+00  1.59187E-02  1.15449E+01  3.11850E+01  5.50277E+01
   6.45195E+01  3.27760E+01 -3.18380E+01 -8.87523E+01 -1.14706E+02 -1.21604E+02 -1.19313E+02 -1.06403E+02 -9.74429E+01 -9.43442E+01
  -9.34366E+01 -9.40691E+01 -9.49156E+01 -9.51662E+01 -9.46165E+01 -9.32364E+01 -9.08029E+01 -8.82452E+01 -8.64873E+01 -8.49341E+01
  -8.33836E+01 -8.14470E+01 -7.90440E+01 -7.61492E+01 -7.29647E+01 -7.05916E+01 -6.97445E+01 -6.98472E+01 -6.93127E+01 -6.71424E+01
  -6.40300E+01 -6.21961E+01 -6.28433E+01 -6.48874E+01 -6.67385E+01 -6.78668E+01 -6.84257E+01 -6.82087E+01 -6.62115E+01 -6.15362E+01
  -5.34418E+01 -4.38867E+01 -3.84909E+01 -3.94289E+01 -4.19423E+01 -4.06044E+01 -3.54528E+01 -3.27676E+01 -3.68021E+01 -4.61824E+01
  -5.59214E+01 -6.30001E+01 -6.75681E+01 -6.90245E+01 -6.83263E+01 -6.77939E+01 -6.74400E+01 -6.67158E+01 -6.60386E+01 -6.52802E+01
  -6.37255E+01 -6.13015E+01 -5.74120E+01 -5.13529E+01 -4.48989E+01 -4.14614E+01 -3.98411E+01 -3.72711E+01 -3.57521E+01 -3.68651E+01
  -3.83109E+01 -3.72405E+01 -3.39612E+01 -3.13257E+01 -3.14183E+01 -3.36710E+01 -3.73657E+01 -4.29492E+01 -4.97498E+01 -5.57573E+01
  -6.09551E+01 -6.38352E+01 -6.13562E+01 -5.51710E+01 -4.38052E+01 -2.90719E+01 -1.56714E+01 -6.44542E+00 -2.72274E+00 -3.17893E+00
  -7.34601E+00 -1.09712E+01 -1.23496E+01 -1.52091E+01 -1.84175E+01 -2.36580E+01 -3.08490E+01 -3.93378E+01 -4.87482E+01 -5.79670E+01
  -6.70194E+01 -7.56901E+01 -8.29072E+01 -8.89408E+01 -9.34999E+01 -9.56241E+01 -9.61710E+01 -9.50505E+01 -9.16486E+01 -8.69527E+01
  -8.06282E+01 -7.30971E+01 -6.47952E+01 -5.72800E+01 -5.12126E+01 -4.67215E+01 -4.46056E+01 -4.43073E+01 -4.51488E+01 -4.74846E+01
  -4.86584E+01 -4.91721E+01 -5.30511E+01 -6.37498E+01 -8.32176E+01 -1.05048E+02 -9.64571E+01 -4.28513E+01  2.26701E+01  6.14030E+01
   7.44243E+01  7.62894E+01  6.68601E+01  5.42791E+01  4.91499E+01  4.52426E+01  4.18052E+01  3.86957E+01  3.60622E+01  3.40021E+01
   3.24621E+01  3.16105E+01  3.11618E+01  3.10404E+01  3.11946E+01  3.13018E+01  3.11553E+01  3.03964E+01  2.93090E+01  2.80070E+01
   2.65311E+01  2.49115E+01  2.31092E+01  2.12444E+01  1.92441E+01  1.69606E+01  1.43049E+01  1.13142E+01  8.05395E+00  4.70307E+00
   1.54001E+00 -9.45090E-01 -2.26722E+00 -2.38205E+00 -1.43058E+00  2.84312E-01  2.31302E+00  4.54560E+00  6.93777E+00  9.36131E+00
   1.16173E+01  1.36871E+01  1.56124E+01  1.74532E+01  1.94711E+01  2.16974E+01  2.39310E+01  2.59669E+01  2.77327E+01  2.93013E+01
   3.07467E+01  3.19406E+01  3.27204E+01  3.30417E+01  3.29099E+01  3.20658E+01  3.06618E+01  2.89722E+01  2.68696E+01  2.42188E+01
   2.11252E+01  1.71140E+01  1.18303E+01  5.20842E+00 -2.50433E+00 -1.06663E+01 -1.82616E+01 -2.48146E+01 -3.02085E+01 -3.39428E+01
  -3.54839E+01 -3.49161E+01 -3.25150E+01 -2.91006E+01 -2.56827E+01 -2.28580E+01 -2.06809E+01 -1.88749E+01 -1.67044E+01 -1.38754E+01
  -1.05661E+01 -7.16571E+00 -4.28910E+00 -2.37068E+00 -1.40691E+00 -1.01300E+00 -1.23384E+00 -2.30253E+00 -4.22885E+00 -7.04072E+00
  -1.06903E+01 -1.46295E+01 -1.79473E+01 -2.01417E+01 -2.11035E+01 -2.08280E+01 -1.94865E+01 -1.73441E+01 -1.47311E+01 -1.17354E+01
  -8.61518E+00 -5.56311E+00 -2.67311E+00 -2.01780E-02  2.51736E+00  5.06685E+00  7.65663E+00  1.02964E+01  1.28903E+01  1.56240E+01
   1.85493E+01  2.18469E+01  2.56711E+01  2.98690E+01  3.44759E+01  3.97175E+01  4.54861E+01  5.15090E+01  5.79391E+01  6.49343E+01
   7.19391E+01  7.83838E+01  8.34130E+01  8.59551E+01  8.50135E+01  8.03916E+01  7.28350E+01  6.38659E+01  5.51175E+01  4.74185E+01
   4.09149E+01  3.53820E+01  3.00045E+01  2.38814E+01  1.68286E+01  9.24367E+00  1.59845E+00 -5.49011E+00 -1.13608E+01 -1.58627E+01
  -1.92936E+01 -2.17706E+01 -2.34128E+01 -2.45829E+01 -2.55315E+01 -2.64477E+01 -2.72657E+01 -2.79731E+01 -2.84007E+01 -2.85720E+01
  -2.86087E+01 -2.86162E+01 -2.85585E+01 -2.84496E+01 -2.84625E+01 -2.85481E+01 -2.84020E+01 -2.80896E+01 -2.78946E+01 -2.78443E+01
  -2.77079E+01 -2.75282E+01 -2.74617E+01 -2.74390E+01 -2.72889E+01 -2.69563E+01 -2.65817E+01 -2.63018E+01 -2.61822E+01 -2.61551E+01
  -2.61866E+01 -2.61410E+01 -2.59261E+01 -2.56088E+01 -2.52348E+01 -2.48801E+01 -2.45804E+01 -2.43552E+01 -2.41662E+01 -2.40095E+01
  -2.40100E+01 -2.40468E+01 -2.40319E+01 -2.38675E+01 -2.36266E+01 -2.33707E+01 -2.31209E+01 -2.29767E+01 -2.28896E+01 -2.27718E+01
  -2.25224E+01 -2.22206E+01 -2.19435E+01 -2.16775E+01 -2.14516E+01 -2.12761E+01 -2.10873E+01 -2.09135E+01 -2.08324E+01 -2.08612E+01
  -2.08823E+01 -2.08552E+01 -2.07181E+01 -2.04706E+01 -2.00332E+01 -1.95969E+01 -1.93600E+01 -1.93627E+01 -1.95433E+01 -1.97455E+01
  -1.98101E+01 -1.97905E+01 -1.97286E+01 -1.96608E+01 -1.95874E+01 -1.97162E+01 -1.98733E+01 -1.98831E+01 -1.96793E+01 -1.92777E+01
 NY background values follow
    -4.256E+01   -4.249E+01   -4.243E+01   -4.236E+01   -4.229E+01   -4.223E+01   -4.216E+01   -4.209E+01   -4.203E+01   -4.196E+01
    -4.189E+01   -4.182E+01   -4.176E+01   -4.169E+01   -4.162E+01   -4.156E+01   -4.149E+01   -4.142E+01   -4.136E+01   -4.129E+01
    -4.122E+01   -4.115E+01   -4.109E+01   -4.102E+01   -4.095E+01   -4.089E+01   -4.082E+01   -4.075E+01   -4.069E+01   -4.062E+01
    -4.055E+01   -4.049E+01   -4.042E+01   -4.035E+01   -4.028E+01   -4.022E+01   -4.015E+01   -4.008E+01   -4.002E+01   -3.995E+01
    -3.988E+01   -3.982E+01   -3.975E+01   -3.968E+01   -3.961E+01   -3.955E+01   -3.948E+01   -3.941E+01   -3.935E+01   -3.928E+01
    -3.921E+01   -3.915E+01   -3.908E+01   -3.901E+01   -3.894E+01   -3.888E+01   -3.881E+01   -3.874E+01   -3.868E+01   -3.861E+01
    -3.854E+01   -3.848E+01   -3.841E+01   -3.834E+01   -3.827E+01   -3.821E+01   -3.814E+01   -3.807E+01   -3.801E+01   -3.794E+01
    -3.787E+01   -3.781E+01   -3.774E+01   -3.767E+01   -3.760E+01   -3.754E+01   -3.747E+01   -3.740E+01   -3.734E+01   -3.727E+01
    -3.720E+01   -3.714E+01   -3.707E+01   -3.700E+01   -3.693E+01   -3.687E+01   -3.680E+01   -3.673E+01   -3.667E+01   -3.660E+01
    -3.653E+01   -3.647E+01   -3.640E+01   -3.633E+01   -3.626E+01   -3.620E+01   -3.613E+01   -3.606E+01   -3.600E+01   -3.593E+01
    -3.586E+01   -3.580E+01   -3.573E+01   -3.566E+01   -3.560E+01   -3.553E+01   -3.546E+01   -3.539E+01   -3.533E+01   -3.526E+01
    -3.519E+01   -3.513E+01   -3.506E+01   -3.499E+01   -3.493E+01   -3.486E+01   -3.479E+01   -3.472E+01   -3.466E+01   -3.459E+01
    -3.452E+01   -3.446E+01   -3.439E+01   -3.432E+01   -3.426E+01   -3.419E+01   -3.412E+01   -3.405E+01   -3.399E+01   -3.392E+01
    -3.385E+01   -3.379E+01   -3.372E+01   -3.365E+01   -3.359E+01   -3.352E+01   -3.345E+01   -3.339E+01   -3.332E+01   -3.325E+01
    -3.318E+01   -3.312E+01   -3.305E+01   -3.298E+01   -3.292E+01   -3.285E+01   -3.278E+01   -3.272E+01   -3.265E+01   -3.258E+01
    -3.251E+01   -3.245E+01   -3.238E+01   -3.231E+01   -3.225E+01   -3.218E+01   -3.211E+01   -3.205E+01   -3.198E+01   -3.191E+01
    -3.185E+01   -3.178E+01   -3.171E+01   -3.164E+01   -3.158E+01   -3.151E+01   -3.144E+01   -3.138E+01   -3.131E+01   -3.124E+01
    -3.118E+01   -3.111E+01   -3.104E+01   -3.097E+01   -3.091E+01   -3.084E+01   -3.077E+01   -3.071E+01   -3.064E+01   -3.057E+01
    -3.051E+01   -3.044E+01   -3.037E+01   -3.031E+01   -3.024E+01   -3.017E+01   -3.010E+01   -3.004E+01   -2.997E+01   -2.990E+01
    -2.984E+01   -2.977E+01   -2.970E+01   -2.964E+01   -2.957E+01   -2.950E+01   -2.944E+01   -2.937E+01   -2.930E+01   -2.923E+01
    -2.917E+01   -2.910E+01   -2.903E+01   -2.897E+01   -2.890E+01   -2.883E+01   -2.877E+01   -2.870E+01   -2.863E+01   -2.857E+01
    -2.850E+01   -2.843E+01   -2.837E+01   -2.830E+01   -2.823E+01   -2.816E+01   -2.810E+01   -2.803E+01   -2.796E+01   -2.790E+01
    -2.783E+01   -2.776E+01   -2.770E+01   -2.763E+01   -2.756E+01   -2.750E+01   -2.743E+01   -2.736E+01   -2.729E+01   -2.723E+01
    -2.716E+01   -2.709E+01   -2.703E+01   -2.696E+01   -2.689E+01   -2.683E+01   -2.676E+01   -2.669E+01   -2.663E+01   -2.656E+01
    -2.649E+01   -2.643E+01   -2.636E+01   -2.629E+01   -2.622E+01   -2.616E+01   -2.609E+01   -2.602E+01   -2.596E+01   -2.589E+01
    -2.582E+01   -2.576E+01   -2.569E+01   -2.562E+01   -2.556E+01   -2.549E+01   -2.542E+01   -2.536E+01   -2.529E+01   -2.522E+01
    -2.515E+01   -2.509E+01   -2.502E+01   -2.495E+01   -2.489E+01   -2.482E+01   -2.475E+01   -2.469E+01   -2.462E+01   -2.455E+01
    -2.449E+01   -2.442E+01   -2.435E+01   -2.429E+01   -2.422E+01   -2.415E+01   -2.409E+01   -2.402E+01   -2.395E+01   -2.388E+01
    -2.382E+01   -2.375E+01   -2.368E+01   -2.362E+01   -2.355E+01   -2.348E+01   -2.342E+01   -2.335E+01   -2.328E+01   -2.322E+01
    -2.315E+01   -2.308E+01   -2.302E+01   -2.295E+01   -2.288E+01   -2.282E+01   -2.275E+01   -2.268E+01   -2.262E+01   -2.255E+01
    -2.248E+01   -2.241E+01   -2.235E+01   -2.228E+01   -2.221E+01   -2.215E+01   -2.208E+01   -2.201E+01   -2.195E+01   -2.188E+01
    -2.181E+01   -2.175E+01   -2.168E+01   -2.161E+01   -2.155E+01   -2.148E+01   -2.141E+01   -2.135E+01   -2.128E+01   -2.121E+01
    -2.115E+01   -2.108E+01   -2.101E+01   -2.095E+01   -2.088E+01   -2.081E+01   -2.074E+01   -2.068E+01   -2.061E+01   -2.054E+01
    -2.048E+01   -2.041E+01   -2.034E+01   -2.028E+01   -2.021E+01   -2.014E+01   -2.008E+01   -2.001E+01   -1.994E+01   -1.988E+01
    -1.981E+01   -1.974E+01   -1.968E+01   -1.961E+01   -1.954E+01   -1.948E+01   -1.941E+01   -1.934E+01   -1.928E+01   -1.921E+01
    -1.914E+01   -1.908E+01   -1.901E+01   -1.894E+01   -1.887E+01   -1.881E+01   -1.874E+01   -1.867E+01   -1.861E+01   -1.854E+01
    -1.847E+01   -1.841E+01   -1.834E+01   -1.827E+01   -1.821E+01   -1.814E+01   -1.807E+01   -1.801E+01   -1.794E+01   -1.787E+01
    -1.781E+01   -1.774E+01   -1.767E+01   -1.761E+01   -1.754E+01   -1.747E+01   -1.741E+01   -1.734E+01   -1.727E+01   -1.721E+01
    -1.714E+01   -1.707E+01   -1.701E+01   -1.694E+01   -1.687E+01   -1.681E+01   -1.674E+01   -1.667E+01   -1.660E+01   -1.654E+01
    -1.647E+01   -1.640E+01   -1.634E+01   -1.627E+01   -1.620E+01   -1.614E+01   -1.607E+01   -1.600E+01   -1.594E+01   -1.587E+01
    -1.580E+01   -1.574E+01   -1.567E+01   -1.560E+01   -1.554E+01   -1.547E+01   -1.540E+01   -1.534E+01   -1.527E+01   -1.520E+01
    -1.514E+01   -1.507E+01   -1.500E+01   -1.494E+01   -1.487E+01   -1.480E+01   -1.474E+01   -1.467E+01   -1.460E+01   -1.454E+01
    -1.447E+01   -1.440E+01   -1.434E+01   -1.427E+01   -1.420E+01   -1.413E+01   -1.407E+01   -1.400E+01   -1.393E+01   -1.387E+01
    -1.380E+01   -1.373E+01   -1.367E+01   -1.360E+01   -1.353E+01   -1.347E+01   -1.340E+01   -1.333E+01   -1.327E+01   -1.320E+01
    -1.313E+01   -1.307E+01   -1.300E+01   -1.293E+01   -1.287E+01   -1.280E+01   -1.273E+01   -1.267E+01   -1.260E+01   -1.253E+01
    -1.247E+01   -1.240E+01   -1.233E+01   -1.227E+01   -1.220E+01   -1.213E+01   -1.207E+01   -1.200E+01   -1.193E+01   -1.187E+01
    -1.180E+01   -1.173E+01   -1.167E+01   -1.160E+01   -1.153E+01   -1.147E+01   -1.140E+01   -1.133E+01   -1.126E+01   -1.120E+01
    -1.113E+01   -1.106E+01   -1.100E+01   -1.093E+01   -1.086E+01   -1.080E+01   -1.073E+01   -1.066E+01   -1.060E+01   -1.053E+01
 Mac      Conc. = 2.42E-04
  -6.01167E+01 -6.05309E+01 -6.12825E+01 -6.24830E+01 -6.39361E+01 -6.54362E+01 -6.66065E+01 -6.72881E+01 -6.75408E+01 -6.76335E+01
  -6.80460E+01 -6.90403E+01 -7.04120E+01 -7.13036E+01 -7.04079E+01 -6.76026E+01 -6.39793E+01 -6.04166E+01 -5.71013E+01 -5.43524E+01
  -5.26792E+01 -5.16101E+01 -5.04872E+01 -4.92748E+01 -4.78452E+01 -4.61623E+01 -4.44560E+01 -4.30259E+01 -4.19591E+01 -4.11838E+01
  -4.08719E+01 -4.09579E+01 -4.10227E+01 -4.04468E+01 -3.90097E+01 -3.70867E+01 -3.55001E+01 -3.48004E+01 -3.45914E+01 -3.43052E+01
  -3.35757E+01 -3.25279E+01 -3.15282E+01 -3.10013E+01 -3.11205E+01 -3.17102E+01 -3.27239E+01 -3.38701E+01 -3.48001E+01 -3.55369E+01
  -3.61071E+01 -3.64687E+01 -3.64815E+01 -3.60894E+01 -3.51970E+01 -3.40037E+01 -3.28470E+01 -3.16150E+01 -3.04874E+01 -2.98792E+01
  -2.99411E+01 -3.04160E+01 -3.10958E+01 -3.17625E+01 -3.22129E+01 -3.24674E+01 -3.23560E+01 -3.13912E+01 -2.95740E+01 -2.75191E+01
  -2.57810E+01 -2.45560E+01 -2.39889E+01 -2.40545E+01 -2.45531E+01 -2.51744E+01 -2.57789E+01 -2.62395E+01 -2.65249E+01 -2.65667E+01
  -2.61992E+01 -2.55030E+01 -2.47089E+01 -2.38973E+01 -2.30977E+01 -2.24166E+01 -2.18711E+01 -2.13554E+01 -2.09263E+01 -2.06412E+01
  -2.06180E+01 -2.09984E+01 -2.20482E+01 -2.36863E+01 -2.56412E+01 -2.76592E+01 -2.94630E+01 -3.09806E+01 -3.26176E+01 -3.46412E+01
  -3.72692E+01 -4.08078E+01 -4.54774E+01 -5.09808E+01 -5.61652E+01 -5.99051E+01 -6.15358E+01 -6.12259E+01 -5.95366E+01 -5.70658E+01
