 
 $NMID
 ID=''
 FMTDAT='(2E13.5)'
 TRAMP=   1.00000E+0
 VOLUME=   1.00000E+0
 $END
  -6.12163E+5   9.83375E+4
  -1.56844E+6  -2.78974E+5
  -1.48246E+6  -9.40362E+4
  -1.33740E+6  -2.63852E+5
  -1.44040E+6  -4.03005E+5
  -1.46453E+6  -3.61000E+5
  -1.39455E+6  -3.63650E+5
  -1.37053E+6  -3.96351E+5
  -1.31300E+6  -4.24629E+5
  -1.29226E+6  -5.14951E+5
  -1.34023E+6  -5.43016E+5
  -1.31611E+6  -5.02527E+5
  -1.24829E+6  -5.22485E+5
  -1.22123E+6  -5.67840E+5
  -1.19977E+6  -5.98448E+5
  -1.19765E+6  -6.26289E+5
  -1.20422E+6  -6.26719E+5
  -1.15371E+6  -6.29087E+5
  -1.10175E+6  -6.74566E+5
  -1.09240E+6  -7.14002E+5
  -1.07663E+6  -7.33712E+5
  -1.05555E+6  -7.51080E+5
  -1.03284E+6  -7.56123E+5
  -9.91673E+5  -7.72400E+5
  -9.59731E+5  -8.05949E+5
  -9.53097E+5  -8.17045E+5
  -9.35949E+5  -8.19657E+5
  -9.11830E+5  -8.27682E+5
  -8.84682E+5  -8.32568E+5
  -8.57797E+5  -8.42456E+5
  -8.39111E+5  -8.64175E+5
  -8.21876E+5  -8.70337E+5
  -7.93583E+5  -8.73800E+5
  -7.66222E+5  -8.83057E+5
  -7.40866E+5  -8.90765E+5
  -7.16286E+5  -9.00804E+5
  -6.97029E+5  -9.12879E+5
  -6.73939E+5  -9.15458E+5
  -6.46177E+5  -9.14292E+5
  -6.23820E+5  -9.18850E+5
  -6.03076E+5  -9.22288E+5
  -5.82653E+5  -9.22270E+5
  -5.65485E+5  -9.18165E+5
  -5.45895E+5  -9.13980E+5
  -5.22250E+5  -9.12794E+5
  -5.02518E+5  -9.14111E+5
  -4.83117E+5  -9.13270E+5
  -4.60598E+5  -9.09834E+5
  -4.37166E+5  -9.03780E+5
  -4.13388E+5  -8.99155E+5
  -3.90148E+5  -8.98033E+5
  -3.68953E+5  -8.95871E+5
  -3.49232E+5  -8.90302E+5
  -3.27833E+5  -8.84105E+5
  -3.05330E+5  -8.77510E+5
  -2.82620E+5  -8.71816E+5
  -2.62697E+5  -8.66213E+5
  -2.45153E+5  -8.57746E+5
  -2.27480E+5  -8.47271E+5
  -2.07684E+5  -8.39042E+5
  -1.86923E+5  -8.31611E+5
  -1.67812E+5  -8.23802E+5
  -1.50273E+5  -8.15397E+5
  -1.31055E+5  -8.05385E+5
  -1.10475E+5  -7.93891E+5
  -9.09063E+4  -7.82766E+5
  -7.30745E+4  -7.73232E+5
  -5.60773E+4  -7.63622E+5
  -3.88280E+4  -7.53270E+5
  -2.08514E+4  -7.41722E+5
  -2.61733E+3  -7.30569E+5
   1.29465E+4  -7.19953E+5
   2.72620E+4  -7.09884E+5
   4.20534E+4  -6.98638E+5
   5.81632E+4  -6.85798E+5
   7.41617E+4  -6.73787E+5
   8.87031E+4  -6.62829E+5
   1.02720E+5  -6.51788E+5
   1.16679E+5  -6.38868E+5
   1.31114E+5  -6.25346E+5
   1.45694E+5  -6.12219E+5
   1.58828E+5  -6.00447E+5
   1.70684E+5  -5.88993E+5
   1.82780E+5  -5.75781E+5
   1.94425E+5  -5.61624E+5
   2.05183E+5  -5.48597E+5
   2.15565E+5  -5.37207E+5
   2.25141E+5  -5.25390E+5
   2.33285E+5  -5.11863E+5
   2.40661E+5  -4.98442E+5
   2.48776E+5  -4.86212E+5
   2.57428E+5  -4.73919E+5
   2.65171E+5  -4.61238E+5
   2.71559E+5  -4.47862E+5
   2.77670E+5  -4.34301E+5
   2.83871E+5  -4.21109E+5
   2.90675E+5  -4.08655E+5
   2.96341E+5  -3.96547E+5
   3.01684E+5  -3.83407E+5
   3.05772E+5  -3.70382E+5
   3.10254E+5  -3.57425E+5
   3.14961E+5  -3.45063E+5
   3.17992E+5  -3.32026E+5
   3.19986E+5  -3.19347E+5
   3.21984E+5  -3.07471E+5
   3.24451E+5  -2.96043E+5
   3.27542E+5  -2.83854E+5
   3.29502E+5  -2.71007E+5
   3.29944E+5  -2.58702E+5
   3.30522E+5  -2.47267E+5
   3.32077E+5  -2.36069E+5
   3.33540E+5  -2.23529E+5
   3.34357E+5  -2.11345E+5
   3.34798E+5  -1.99335E+5
   3.34488E+5  -1.87692E+5
   3.34636E+5  -1.76052E+5
   3.34820E+5  -1.63981E+5
   3.33824E+5  -1.52226E+5
   3.32312E+5  -1.41866E+5
   3.31090E+5  -1.31254E+5
   3.30084E+5  -1.20478E+5
   3.28998E+5  -1.09685E+5
   3.27866E+5  -9.92043E+4
   3.26106E+5  -8.88437E+4
   3.24093E+5  -7.87237E+4
   3.21640E+5  -6.83961E+4
   3.19094E+5  -5.83442E+4
   3.16415E+5  -4.85256E+4
   3.14153E+5  -3.90673E+4
   3.11765E+5  -2.92920E+4
   3.08663E+5  -1.91871E+4
   3.04912E+5  -9.67694E+3
   3.01614E+5  -4.10318E+2
   2.98663E+5   7.79617E+3
   2.94914E+5   1.70262E+4
   2.90635E+5   2.52514E+4
   2.86795E+5   3.31507E+4
   2.82938E+5   4.12279E+4
   2.79321E+5   4.95840E+4
   2.74963E+5   5.74368E+4
   2.70443E+5   6.48484E+4
   2.65658E+5   7.19231E+4
   2.61237E+5   7.83644E+4
   2.57031E+5   8.53811E+4
   2.52578E+5   9.21261E+4
   2.46846E+5   9.83500E+4
   2.41573E+5   1.04151E+5
   2.36351E+5   1.09938E+5
   2.31309E+5   1.15814E+5
   2.26163E+5   1.20679E+5
   2.20755E+5   1.25604E+5
   2.15357E+5   1.30108E+5
   2.10208E+5   1.34745E+5
   2.04870E+5   1.39635E+5
   1.99493E+5   1.43935E+5
   1.93958E+5   1.47341E+5
   1.88635E+5   1.50731E+5
   1.83229E+5   1.54803E+5
   1.77603E+5   1.58258E+5
   1.72179E+5   1.61679E+5
   1.66918E+5   1.64558E+5
   1.61591E+5   1.67286E+5
   1.55738E+5   1.69775E+5
   1.49989E+5   1.72385E+5
   1.44803E+5   1.74460E+5
   1.39784E+5   1.76466E+5
   1.34849E+5   1.78709E+5
   1.29223E+5   1.80487E+5
   1.23630E+5   1.82281E+5
   1.19007E+5   1.83277E+5
   1.13800E+5   1.84739E+5
   1.08598E+5   1.85599E+5
   1.03579E+5   1.86986E+5
   9.86791E+4   1.87677E+5
   9.37575E+4   1.88407E+5
   8.88279E+4   1.88904E+5
   8.39135E+4   1.89742E+5
   7.86833E+4   1.89890E+5
   7.37494E+4   1.89776E+5
   6.92031E+4   1.89804E+5
   6.50237E+4   1.89965E+5
   5.98037E+4   1.90001E+5
   5.53121E+4   1.89551E+5
   5.04671E+4   1.89251E+5
   4.61656E+4   1.88571E+5
   4.19023E+4   1.88026E+5
   3.73530E+4   1.87025E+5
   3.32003E+4   1.86088E+5
   2.96094E+4   1.85053E+5
   2.52312E+4   1.84408E+5
   2.10210E+4   1.83519E+5
   1.64461E+4   1.82525E+5
   1.20242E+4   1.80599E+5
   8.50778E+3   1.78828E+5
   4.64155E+3   1.77889E+5
   7.78685E+2   1.76230E+5
  -3.21629E+3   1.74846E+5
  -6.94817E+3   1.72948E+5
  -1.07373E+4   1.71250E+5
  -1.45256E+4   1.69513E+5
  -1.85242E+4   1.67573E+5
  -2.19378E+4   1.65224E+5
  -2.52141E+4   1.63109E+5
  -2.84210E+4   1.61309E+5
  -3.19057E+4   1.59132E+5
  -3.52508E+4   1.57031E+5
  -3.85648E+4   1.54600E+5
  -4.16771E+4   1.52183E+5
  -4.47539E+4   1.50080E+5
  -4.77312E+4   1.47755E+5
  -5.07800E+4   1.45024E+5
  -5.35264E+4   1.42457E+5
  -5.62386E+4   1.40090E+5
  -5.89284E+4   1.37740E+5
  -6.22006E+4   1.34910E+5
  -6.43882E+4   1.31896E+5
  -6.63136E+4   1.29412E+5
  -6.84649E+4   1.26887E+5
  -7.06228E+4   1.24442E+5
  -7.27916E+4   1.21657E+5
  -7.46725E+4   1.19000E+5
  -7.63552E+4   1.16555E+5
  -7.82722E+4   1.13944E+5
  -8.01936E+4   1.11371E+5
  -8.16381E+4   1.08243E+5
  -8.29338E+4   1.05416E+5
  -8.42406E+4   1.02983E+5
  -8.56510E+4   1.00505E+5
  -8.71326E+4   9.79944E+4
  -8.80104E+4   9.51207E+4
  -8.92044E+4   9.24055E+4
  -9.00385E+4   9.00799E+4
  -9.06315E+4   8.75101E+4
  -9.17276E+4   8.49722E+4
  -9.24669E+4   8.24804E+4
  -9.29769E+4   8.01795E+4
  -9.33776E+4   7.77988E+4
  -9.38820E+4   7.52228E+4
  -9.40965E+4   7.25459E+4
  -9.43768E+4   6.99796E+4
  -9.42032E+4   6.81382E+4
  -9.49127E+4   6.57921E+4
  -9.48225E+4   6.30264E+4
  -9.48308E+4   6.09649E+4
  -9.48271E+4   5.84243E+4
  -9.44904E+4   5.63142E+4
  -9.46437E+4   5.38702E+4
  -9.42499E+4   5.15568E+4
  -9.36634E+4   4.92948E+4
  -9.33660E+4   4.73040E+4
  -9.31435E+4   4.54244E+4
  -9.28547E+4   4.28800E+4
  -9.25529E+4   4.08365E+4
  -9.17120E+4   3.84125E+4
  -9.09462E+4   3.65109E+4
  -9.07708E+4   3.47966E+4
  -9.01135E+4   3.26689E+4
  -8.94462E+4   3.05212E+4
  -8.87411E+4   2.81020E+4
  -8.84360E+4   2.63075E+4
  -8.77869E+4   2.42305E+4
  -8.66660E+4   2.20950E+4
  -8.58984E+4   1.98359E+4
  -8.47796E+4   1.84315E+4
  -8.42086E+4   1.64810E+4
  -8.33455E+4   1.46872E+4
  -8.26319E+4   1.26328E+4
  -8.15499E+4   1.09659E+4
  -8.05034E+4   8.83776E+3
  -7.96378E+4   7.33286E+3
  -7.85759E+4   5.76440E+3
  -7.77637E+4   4.01292E+3
  -7.65335E+4   2.43854E+3
  -7.55867E+4   7.89133E+2
  -7.47141E+4  -1.13552E+3
  -7.36148E+4  -2.56640E+3
  -7.23547E+4  -4.19946E+3
  -7.11752E+4  -5.57230E+3
  -7.03366E+4  -7.02000E+3
  -6.91673E+4  -8.40070E+3
  -6.81792E+4  -9.88434E+3
  -6.68602E+4  -1.12990E+4
  -6.60555E+4  -1.25087E+4
  -6.48767E+4  -1.39692E+4
  -6.39613E+4  -1.52458E+4
  -6.23355E+4  -1.64843E+4
  -6.12180E+4  -1.73616E+4
  -6.03600E+4  -1.82489E+4
  -5.95110E+4  -1.93156E+4
  -5.83546E+4  -2.05058E+4
  -5.70593E+4  -2.15871E+4
  -5.59373E+4  -2.25946E+4
  -5.51008E+4  -2.33587E+4
  -5.37250E+4  -2.41029E+4
  -5.29893E+4  -2.53023E+4
  -5.17776E+4  -2.59212E+4
  -5.03227E+4  -2.65371E+4
  -4.97877E+4  -2.73187E+4
  -4.85854E+4  -2.82608E+4
  -4.72781E+4  -2.88771E+4
  -4.60781E+4  -2.93886E+4
  -4.54725E+4  -2.99553E+4
  -4.44818E+4  -3.03043E+4
  -4.35580E+4  -3.12115E+4
  -4.22446E+4  -3.16378E+4
  -4.12182E+4  -3.20374E+4
  -4.02055E+4  -3.21679E+4
  -3.91430E+4  -3.30247E+4
  -3.81333E+4  -3.34742E+4
  -3.69358E+4  -3.37522E+4
  -3.62739E+4  -3.38090E+4
  -3.54626E+4  -3.41208E+4
  -3.43573E+4  -3.46447E+4
  -3.33190E+4  -3.44084E+4
  -3.23329E+4  -3.47480E+4
  -3.15117E+4  -3.51522E+4
  -3.04121E+4  -3.52238E+4
  -2.95014E+4  -3.55016E+4
  -2.84478E+4  -3.55946E+4
  -2.77771E+4  -3.57234E+4
  -2.66233E+4  -3.55192E+4
  -2.59722E+4  -3.54940E+4
  -2.49061E+4  -3.57459E+4
  -2.40360E+4  -3.56203E+4
  -2.32860E+4  -3.55637E+4
  -2.23231E+4  -3.57913E+4
  -2.18363E+4  -3.57645E+4
  -2.07813E+4  -3.58120E+4
  -1.98159E+4  -3.57667E+4
  -1.88931E+4  -3.55281E+4
  -1.82575E+4  -3.54016E+4
  -1.74848E+4  -3.53718E+4
  -1.67231E+4  -3.50260E+4
  -1.61545E+4  -3.49836E+4
  -1.53087E+4  -3.48469E+4
  -1.46751E+4  -3.49941E+4
  -1.36603E+4  -3.48512E+4
  -1.31255E+4  -3.43043E+4
  -1.24151E+4  -3.42718E+4
  -1.16991E+4  -3.38930E+4
  -1.12572E+4  -3.38958E+4
  -1.05501E+4  -3.36410E+4
  -9.89323E+3  -3.33241E+4
  -9.12486E+3  -3.31704E+4
  -8.60008E+3  -3.27721E+4
  -8.04637E+3  -3.26806E+4
  -7.03158E+3  -3.22649E+4
  -6.77498E+3  -3.18513E+4
  -6.56089E+3  -3.14944E+4
  -6.15753E+3  -3.14741E+4
  -5.48658E+3  -3.11203E+4
  -4.86534E+3  -3.09132E+4
  -4.30493E+3  -3.05136E+4
  -3.89212E+3  -3.00963E+4
  -3.53320E+3  -2.97944E+4
  -2.88225E+3  -2.94402E+4
  -2.54510E+3  -2.90395E+4
  -2.25002E+3  -2.87680E+4
  -1.92250E+3  -2.85665E+4
  -1.08523E+3  -2.82426E+4
  -8.28043E+2  -2.79280E+4
  -4.09961E+2  -2.72404E+4
  -3.69193E+2  -2.69376E+4
  -5.01944E+1  -2.64155E+4
   3.88248E+2  -2.61959E+4
   7.41205E+2  -2.56553E+4
   1.02891E+3  -2.54204E+4
