 
 $NMID
 ID=''
 FMTDAT='(2E13.5)'
 TRAMP=   1.00000E+0
 VOLUME=   1.00000E+0
 $END
  -4.39444E+5   5.51817E+5
  -1.64537E+6   9.19756E+5
  -1.53564E+6   1.08042E+6
  -1.50142E+6   9.82875E+5
  -1.54309E+6   9.78443E+5
  -1.48985E+6   9.59453E+5
  -1.50845E+6   9.07121E+5
  -1.54188E+6   9.47114E+5
  -1.47003E+6   9.40583E+5
  -1.47396E+6   8.65157E+5
  -1.51557E+6   8.72279E+5
  -1.47600E+6   8.76792E+5
  -1.45929E+6   8.31630E+5
  -1.47294E+6   8.25262E+5
  -1.45078E+6   8.14723E+5
  -1.44360E+6   7.84484E+5
  -1.45028E+6   7.81912E+5
  -1.43340E+6   7.64350E+5
  -1.43354E+6   7.32134E+5
  -1.43500E+6   7.28326E+5
  -1.41789E+6   7.10500E+5
  -1.41677E+6   6.84259E+5
  -1.41700E+6   6.78170E+5
  -1.40432E+6   6.60397E+5
  -1.40100E+6   6.33325E+5
  -1.39419E+6   6.31250E+5
  -1.38343E+6   6.18550E+5
  -1.38128E+6   5.97209E+5
  -1.37298E+6   5.85431E+5
  -1.36021E+6   5.74618E+5
  -1.36158E+6   5.57095E+5
  -1.35419E+6   5.45040E+5
  -1.34240E+6   5.27990E+5
  -1.33962E+6   5.14384E+5
  -1.33296E+6   5.05025E+5
  -1.32361E+6   4.91806E+5
  -1.32247E+6   4.78838E+5
  -1.31812E+6   4.67532E+5
  -1.30722E+6   4.52628E+5
  -1.30196E+6   4.40571E+5
  -1.29559E+6   4.30721E+5
  -1.28653E+6   4.18502E+5
  -1.27788E+6   4.07628E+5
  -1.27061E+6   3.98927E+5
  -1.26346E+6   3.87125E+5
  -1.25891E+6   3.76349E+5
  -1.25198E+6   3.63928E+5
  -1.24459E+6   3.49117E+5
  -1.23648E+6   3.36946E+5
  -1.22973E+6   3.26182E+5
  -1.22361E+6   3.13998E+5
  -1.21797E+6   3.02597E+5
  -1.21175E+6   2.91760E+5
  -1.20585E+6   2.79748E+5
  -1.19943E+6   2.67634E+5
  -1.19290E+6   2.56603E+5
  -1.18598E+6   2.44733E+5
  -1.17773E+6   2.33390E+5
  -1.16899E+6   2.24132E+5
  -1.16284E+6   2.14424E+5
  -1.15705E+6   2.03309E+5
  -1.14993E+6   1.91754E+5
  -1.14307E+6   1.81390E+5
  -1.13630E+6   1.70529E+5
  -1.12844E+6   1.58489E+5
  -1.11953E+6   1.48214E+5
  -1.11129E+6   1.39186E+5
  -1.10442E+6   1.29963E+5
  -1.09880E+6   1.19624E+5
  -1.09231E+6   1.08801E+5
  -1.08373E+6   9.86499E+4
  -1.07605E+6   8.92585E+4
  -1.06995E+6   8.05084E+4
  -1.06283E+6   7.12005E+4
  -1.05429E+6   6.17526E+4
  -1.04688E+6   5.24259E+4
  -1.03974E+6   4.33993E+4
  -1.03232E+6   3.42322E+4
  -1.02433E+6   2.48065E+4
  -1.01644E+6   1.48819E+4
  -1.00841E+6   5.36975E+3
  -1.00032E+6  -2.79448E+3
  -9.92902E+5  -1.14132E+4
  -9.85401E+5  -2.14556E+4
  -9.76785E+5  -3.12259E+4
  -9.68279E+5  -3.92333E+4
  -9.60800E+5  -4.63955E+4
  -9.53001E+5  -5.51281E+4
  -9.44721E+5  -6.28937E+4
  -9.36030E+5  -6.97222E+4
  -9.28219E+5  -7.58100E+4
  -9.20822E+5  -8.28519E+4
  -9.12853E+5  -9.01835E+4
  -9.04020E+5  -9.69470E+4
  -8.95093E+5  -1.03178E+5
  -8.87200E+5  -1.08969E+5
  -8.79559E+5  -1.14648E+5
  -8.71703E+5  -1.20730E+5
  -8.63312E+5  -1.27033E+5
  -8.55085E+5  -1.32822E+5
  -8.47235E+5  -1.37603E+5
  -8.39896E+5  -1.43647E+5
  -8.31049E+5  -1.49733E+5
  -8.21076E+5  -1.54516E+5
  -8.12837E+5  -1.57966E+5
  -8.05891E+5  -1.61928E+5
  -7.98679E+5  -1.66950E+5
  -7.89781E+5  -1.72056E+5
  -7.80099E+5  -1.75637E+5
  -7.72110E+5  -1.78193E+5
  -7.64885E+5  -1.81881E+5
  -7.57301E+5  -1.86504E+5
  -7.49089E+5  -1.91082E+5
  -7.40801E+5  -1.95422E+5
  -7.32732E+5  -1.99789E+5
  -7.24319E+5  -2.04086E+5
  -7.15982E+5  -2.08209E+5
  -7.06888E+5  -2.11871E+5
  -6.98079E+5  -2.14392E+5
  -6.90376E+5  -2.16670E+5
  -6.83081E+5  -2.19665E+5
  -6.75891E+5  -2.22741E+5
  -6.68054E+5  -2.25942E+5
  -6.60024E+5  -2.28803E+5
  -6.51961E+5  -2.31817E+5
  -6.43670E+5  -2.34667E+5
  -6.35300E+5  -2.36783E+5
  -6.27361E+5  -2.39770E+5
  -6.19904E+5  -2.42087E+5
  -6.12370E+5  -2.45670E+5
  -6.03758E+5  -2.49148E+5
  -5.95071E+5  -2.52369E+5
  -5.86459E+5  -2.55022E+5
  -5.78562E+5  -2.57214E+5
  -5.70768E+5  -2.60027E+5
  -5.62546E+5  -2.62376E+5
  -5.54795E+5  -2.64376E+5
  -5.47172E+5  -2.66487E+5
  -5.39646E+5  -2.69088E+5
  -5.31767E+5  -2.71666E+5
  -5.23562E+5  -2.73443E+5
  -5.15529E+5  -2.74393E+5
  -5.08137E+5  -2.75492E+5
  -5.01262E+5  -2.77523E+5
  -4.93627E+5  -2.79456E+5
  -4.85528E+5  -2.81091E+5
  -4.77637E+5  -2.82198E+5
  -4.69876E+5  -2.83224E+5
  -4.62615E+5  -2.84483E+5
  -4.54977E+5  -2.85116E+5
  -4.47389E+5  -2.85463E+5
  -4.40259E+5  -2.85896E+5
  -4.33837E+5  -2.86179E+5
  -4.27151E+5  -2.86820E+5
  -4.19680E+5  -2.87299E+5
  -4.12549E+5  -2.87318E+5
  -4.06314E+5  -2.86907E+5
  -3.99527E+5  -2.87038E+5
  -3.92746E+5  -2.87371E+5
  -3.85988E+5  -2.86656E+5
  -3.79406E+5  -2.86220E+5
  -3.72755E+5  -2.86156E+5
  -3.65989E+5  -2.85817E+5
  -3.59498E+5  -2.85069E+5
  -3.52833E+5  -2.83954E+5
  -3.47055E+5  -2.82923E+5
  -3.41015E+5  -2.82687E+5
  -3.34937E+5  -2.82758E+5
  -3.28499E+5  -2.81607E+5
  -3.22193E+5  -2.80428E+5
  -3.16781E+5  -2.79075E+5
  -3.11049E+5  -2.78067E+5
  -3.05205E+5  -2.77443E+5
  -2.99214E+5  -2.76268E+5
  -2.93580E+5  -2.75146E+5
  -2.87898E+5  -2.74032E+5
  -2.82371E+5  -2.73578E+5
  -2.76188E+5  -2.72754E+5
  -2.70203E+5  -2.70984E+5
  -2.65144E+5  -2.70000E+5
  -2.59980E+5  -2.68993E+5
  -2.54438E+5  -2.68199E+5
  -2.48390E+5  -2.67321E+5
  -2.42982E+5  -2.66148E+5
  -2.37844E+5  -2.64854E+5
  -2.32509E+5  -2.63440E+5
  -2.27388E+5  -2.62119E+5
  -2.22031E+5  -2.60217E+5
  -2.17448E+5  -2.58775E+5
  -2.13171E+5  -2.58042E+5
  -2.08104E+5  -2.57100E+5
  -2.02615E+5  -2.55992E+5
  -1.97044E+5  -2.54698E+5
  -1.91900E+5  -2.53084E+5
  -1.87309E+5  -2.51629E+5
  -1.82420E+5  -2.50217E+5
  -1.77497E+5  -2.49319E+5
  -1.72751E+5  -2.47779E+5
  -1.67779E+5  -2.46420E+5
  -1.63018E+5  -2.45416E+5
  -1.57915E+5  -2.43987E+5
  -1.53131E+5  -2.42066E+5
  -1.48389E+5  -2.40064E+5
  -1.44233E+5  -2.39101E+5
  -1.39574E+5  -2.37427E+5
  -1.35206E+5  -2.36142E+5
  -1.30511E+5  -2.34391E+5
  -1.26276E+5  -2.32625E+5
  -1.22023E+5  -2.30915E+5
  -1.17575E+5  -2.29275E+5
  -1.13089E+5  -2.27614E+5
  -1.08993E+5  -2.25612E+5
  -1.05172E+5  -2.24198E+5
  -1.01092E+5  -2.22540E+5
  -9.66562E+4  -2.21026E+5
  -9.26647E+4  -2.18723E+5
  -8.89485E+4  -2.16506E+5
  -8.52727E+4  -2.14411E+5
  -8.16788E+4  -2.12704E+5
  -7.80763E+4  -2.10769E+5
  -7.44736E+4  -2.08911E+5
  -7.12409E+4  -2.06500E+5
  -6.77340E+4  -2.04789E+5
  -6.43723E+4  -2.02827E+5
  -6.07457E+4  -2.00619E+5
  -5.77468E+4  -1.97933E+5
  -5.48188E+4  -1.95910E+5
  -5.17545E+4  -1.94243E+5
  -4.85602E+4  -1.92356E+5
  -4.55430E+4  -1.90200E+5
  -4.26730E+4  -1.87694E+5
  -4.01502E+4  -1.85795E+5
  -3.75800E+4  -1.83836E+5
  -3.48276E+4  -1.81604E+5
  -3.23365E+4  -1.79405E+5
  -3.00120E+4  -1.77245E+5
  -2.76781E+4  -1.75054E+5
  -2.52542E+4  -1.73184E+5
  -2.28010E+4  -1.70960E+5
  -2.05895E+4  -1.68732E+5
  -1.84492E+4  -1.66401E+5
  -1.65197E+4  -1.64795E+5
  -1.43608E+4  -1.62681E+5
  -1.22098E+4  -1.60547E+5
  -1.01328E+4  -1.58484E+5
  -8.37643E+3  -1.56427E+5
  -6.69613E+3  -1.54503E+5
  -4.62538E+3  -1.52464E+5
  -2.80415E+3  -1.50296E+5
  -1.29062E+3  -1.48409E+5
   3.57736E+2  -1.46529E+5
   2.14524E+3  -1.44800E+5
   4.04667E+3  -1.42469E+5
   5.53638E+3  -1.40341E+5
   6.80531E+3  -1.38552E+5
   8.28533E+3  -1.36515E+5
   9.94099E+3  -1.35035E+5
   1.14820E+4  -1.33052E+5
   1.29527E+4  -1.31186E+5
   1.46089E+4  -1.29300E+5
   1.59710E+4  -1.27598E+5
   1.76131E+4  -1.25406E+5
   1.89095E+4  -1.23496E+5
   2.00911E+4  -1.21437E+5
   2.14319E+4  -1.19917E+5
   2.25968E+4  -1.18281E+5
   2.40663E+4  -1.16535E+5
   2.55540E+4  -1.14267E+5
   2.64516E+4  -1.12561E+5
   2.72500E+4  -1.10686E+5
   2.84904E+4  -1.09391E+5
   2.95584E+4  -1.07225E+5
   3.03580E+4  -1.05344E+5
   3.13470E+4  -1.04056E+5
   3.24995E+4  -1.02220E+5
   3.37038E+4  -1.00258E+5
   3.47225E+4  -9.83951E+4
   3.51655E+4  -9.66654E+4
   3.62000E+4  -9.48599E+4
   3.70285E+4  -9.35844E+4
   3.77019E+4  -9.16999E+4
   3.88330E+4  -8.98840E+4
   3.92373E+4  -8.84016E+4
   4.02512E+4  -8.69570E+4
   4.09875E+4  -8.51444E+4
   4.17069E+4  -8.32362E+4
   4.21023E+4  -8.15503E+4
   4.21705E+4  -8.01201E+4
   4.31151E+4  -7.90685E+4
   4.39476E+4  -7.75290E+4
   4.45057E+4  -7.55722E+4
   4.50028E+4  -7.41209E+4
   4.51842E+4  -7.24700E+4
   4.58155E+4  -7.11444E+4
   4.60507E+4  -6.96775E+4
   4.65287E+4  -6.82920E+4
   4.68418E+4  -6.69687E+4
   4.73499E+4  -6.55135E+4
   4.77483E+4  -6.42956E+4
   4.79492E+4  -6.25234E+4
   4.81527E+4  -6.11259E+4
   4.82735E+4  -5.98613E+4
   4.88508E+4  -5.86879E+4
   4.91962E+4  -5.72558E+4
   4.92437E+4  -5.58000E+4
   4.94092E+4  -5.40849E+4
   4.94922E+4  -5.30879E+4
   4.96927E+4  -5.18685E+4
   4.97263E+4  -5.06603E+4
   4.97697E+4  -4.93082E+4
   5.02501E+4  -4.82805E+4
   5.02964E+4  -4.70593E+4
   5.03491E+4  -4.58404E+4
   5.04978E+4  -4.46480E+4
   5.05169E+4  -4.32730E+4
   5.03732E+4  -4.24914E+4
   5.05671E+4  -4.14167E+4
   5.02108E+4  -4.03806E+4
   5.03554E+4  -3.90181E+4
   5.03608E+4  -3.78938E+4
   5.04736E+4  -3.69969E+4
   5.02336E+4  -3.58233E+4
   5.02653E+4  -3.48327E+4
   4.99843E+4  -3.36752E+4
   4.97497E+4  -3.29026E+4
   4.98209E+4  -3.19574E+4
   4.99772E+4  -3.08647E+4
   4.99536E+4  -2.96931E+4
   4.96174E+4  -2.86328E+4
   4.91541E+4  -2.75988E+4
   4.91856E+4  -2.69416E+4
   4.89953E+4  -2.59421E+4
   4.89394E+4  -2.50835E+4
   4.85555E+4  -2.41584E+4
   4.84163E+4  -2.36261E+4
   4.84079E+4  -2.23181E+4
   4.81191E+4  -2.13611E+4
   4.77761E+4  -2.02277E+4
   4.75653E+4  -1.96043E+4
   4.71058E+4  -1.87852E+4
   4.70174E+4  -1.80854E+4
   4.68619E+4  -1.73452E+4
   4.64904E+4  -1.64885E+4
   4.62389E+4  -1.55432E+4
   4.59059E+4  -1.50071E+4
   4.56305E+4  -1.40921E+4
   4.50821E+4  -1.34205E+4
   4.48692E+4  -1.24584E+4
   4.43687E+4  -1.22283E+4
   4.42912E+4  -1.15456E+4
   4.41767E+4  -1.08004E+4
   4.38396E+4  -1.00825E+4
   4.31245E+4  -9.24672E+3
   4.29086E+4  -8.85023E+3
   4.29197E+4  -8.17352E+3
   4.21889E+4  -7.40699E+3
   4.17688E+4  -6.69977E+3
   4.15012E+4  -6.37598E+3
   4.13961E+4  -5.90716E+3
   4.06853E+4  -5.44415E+3
   4.03043E+4  -4.85221E+3
   3.99566E+4  -4.29519E+3
   3.94002E+4  -3.92930E+3
   3.91478E+4  -3.45182E+3
   3.89567E+4  -3.03456E+3
   3.82384E+4  -2.08715E+3
   3.79409E+4  -1.88391E+3
