 
 $NMID
 ID=''
 FMTDAT='(2E13.5)'
 TRAMP=   1.00000E+0
 VOLUME=   1.00000E+0
 $END
  -2.36385E+4  -7.91412E+3
  -1.54946E+4   1.53809E+4
   2.26103E+4   8.87580E+3
   8.02424E+3  -1.79013E+4
  -2.12016E+4  -7.57514E+2
   3.49117E+3   1.20836E+4
   1.50785E+4  -8.78282E+3
  -7.66823E+3  -5.30013E+3
  -1.80957E+3   1.10123E+4
   8.90826E+3  -4.57685E+0
  -6.47009E+3  -5.42821E+3
  -5.24403E+3   3.86787E+3
   5.82414E+3   1.00229E+2
  -2.34120E+3  -2.87225E+3
  -4.27922E+3   9.61321E+2
   4.12069E+3  -2.36735E+3
   1.59464E+3  -8.92283E+2
  -1.75972E+3   3.96551E+3
   8.15101E+2  -1.58908E+2
  -2.12633E+2  -1.56769E+3
  -1.38585E+1   1.22808E+3
   1.74499E+3  -7.52636E+2
  -2.98658E+2   3.46074E+2
  -7.40196E+2   2.66985E+3
   8.30416E+2  -1.55531E+3
   1.50258E+3  -1.59256E+3
   8.11040E+2   3.16527E+3
  -1.86608E+3   6.51626E+2
  -1.87293E+3  -2.04125E+3
   1.38081E+3   6.75707E+2
   7.18011E+2   1.40610E+3
  -2.11764E+3  -1.65356E+2
  -1.13592E+3  -1.08267E+3
  -4.49361E+2  -1.56375E+3
   6.08218E+1  -1.49475E+3
   2.00907E+3  -2.80667E+2
   1.30979E+3   1.18159E+3
  -1.29971E+3   1.41149E+3
  -1.06212E+3  -3.63471E+2
  -3.24239E+2  -3.84336E+2
  -1.01751E+3   3.74107E+2
  -4.98192E+2  -8.93911E+2
   9.26955E+2  -1.47345E+3
   1.37500E+3   1.22114E+2
   9.38838E+2   1.08638E+3
   1.16851E+2   1.47466E+3
  -1.18360E+3   1.94934E+3
  -2.05006E+3   3.18723E+2
  -1.28130E+3  -1.71292E+3
   3.37938E+2  -1.16626E+3
   4.74124E+2   1.26203E+2
   3.87236E+2  -5.26649E+2
   6.57463E+2  -1.48077E+2
   4.10717E+2   7.60446E+2
   1.76823E+2   6.31723E+2
  -7.31081E+2   2.89932E+2
  -1.07975E+3  -3.21676E+1
  -7.88702E+1  -1.00442E+3
   1.20291E+3  -9.48619E+2
   1.47054E+3   1.27107E+2
   3.45357E+2   9.81996E+2
   3.74048E+2   9.60832E+2
  -1.34548E+2   1.47961E+3
  -1.43220E+3   9.48540E+2
  -1.87789E+3  -3.65182E+2
  -8.84837E+2  -1.70077E+3
   7.09644E+2  -1.51116E+3
   8.92185E+2  -8.35667E+2
   9.99620E+2   5.00724E+2
   2.16064E+2   7.62376E+2
  -1.91351E+2  -1.39960E+2
   3.44546E+2  -7.41720E+2
   9.86846E+2  -3.34939E+1
   1.76980E+2   1.09032E+3
  -4.87215E+2   4.34364E+2
  -1.39228E+2  -2.76839E+2
   2.08326E+2   5.08282E+1
  -2.26342E+2   5.96980E+2
  -2.26274E+2   2.59449E+2
  -6.04691E+2  -4.62326E+2
  -3.06211E+2  -5.83600E+2
   1.59696E+2  -6.22099E+2
   3.72273E+2  -9.53613E+1
  -9.57775E+1  -1.71320E+2
   1.29836E+2  -5.51832E+2
   7.11927E+2  -4.72017E+2
   9.25874E+2   1.28382E+2
   2.57831E+2   6.61668E+2
  -3.84163E+2   4.33880E+1
   2.16143E+2   2.02483E+1
   5.24368E+2   4.03124E+2
   9.44818E+1   7.54721E+2
  -8.54463E+2   4.54450E+2
  -1.17574E+3   1.03608E+2
  -5.32366E+2  -1.20896E+3
   3.76469E+2  -9.58557E+2
   7.52655E+2  -1.48471E+2
   1.14601E+2   3.90354E+2
  -5.21562E+1  -6.39336E+1
   6.46751E+2  -1.64949E+2
   6.65318E+2   8.86948E+2
  -3.43733E+2   8.91802E+2
  -1.12613E+3   1.49490E+2
  -3.26671E+2  -7.10171E+2
   5.95792E+2  -6.17669E+2
   6.04797E+2   3.40711E+2
  -1.12120E+2   6.06738E+2
  -7.16513E+2  -1.09788E+2
  -4.14791E+2  -8.95354E+2
   6.46175E+2  -6.98000E+2
   1.47993E+3   1.38425E+2
   6.49673E+2   7.78303E+2
  -7.70170E+1   4.65742E+2
   6.19143E+1   7.10410E+1
  -5.55949E+1   3.50753E+2
  -4.14074E+2   2.29559E+2
  -7.91154E+2  -5.14491E+1
  -7.66829E+2  -7.79355E+2
   1.81438E+2  -1.29798E+3
   1.08955E+3  -7.05203E+2
   6.31782E+2   3.64619E+2
   3.65838E+2   5.84667E+2
   2.82928E+2   4.27589E+2
  -6.80523E+1   3.17316E+2
  -6.02099E+2   2.78643E+2
  -4.84457E+2  -6.08965E+1
   3.58481E+2  -2.68399E+2
   5.09928E+2  -2.35405E+2
   2.77837E+2   2.30552E+2
   1.89232E+2   2.58966E+2
  -2.47912E+2   3.11361E+2
  -6.27981E+2  -2.53394E+2
  -1.75251E+2  -7.15813E+2
   1.79487E+2  -1.34625E+2
  -9.61774E+1   1.47328E+2
  -1.21851E+2  -4.52521E+2
   3.01018E+2  -2.82633E+2
   6.99035E+2   1.02655E+1
   1.38165E+2   6.24368E+2
  -4.82150E+2  -1.01970E+2
  -4.94799E+2  -7.10780E+2
   1.41183E+2  -5.64697E+2
   9.73642E+2  -1.42656E+2
   3.89926E+2   5.57669E+2
  -2.51104E+2   5.79353E+2
  -6.68020E+2   5.93449E+1
  -3.74922E+2  -1.83846E+2
   3.04688E+1  -2.07319E+2
  -1.86927E+2  -3.48190E+2
  -2.48604E+2  -4.12758E+2
  -8.61536E+1  -4.51584E+2
   7.50032E+2  -5.12174E+2
   5.64540E+2   2.74605E+2
   7.09181E+1   5.26774E+2
  -4.07555E+2   1.04518E+2
  -3.18035E+1  -3.20306E+2
   3.71816E+2  -4.16549E+1
  -1.03132E+2   2.12293E+2
  -3.59653E+2   1.74694E+2
  -2.22039E+1  -1.77315E+2
  -9.14567E+1   9.05768E+1
  -4.33568E+2   3.52250E+2
  -4.20054E+2   6.99869E+1
  -2.71337E+2  -3.90527E+2
   6.24913E+1  -4.77848E+2
   3.14768E+2  -1.06948E+2
   3.46955E+2   2.73445E+2
  -4.49247E+2   1.90523E+2
  -2.94173E+2   7.47280E+1
   2.70539E+2  -1.54148E+2
   2.76422E+2  -6.36999E+1
   4.43006E+1  -7.41106E+1
  -2.17570E+2   5.02143E+2
  -1.72218E+2   3.89667E+1
  -1.36489E+2  -8.09359E+1
   2.38127E+2  -3.99638E+1
  -4.39292E+2   4.08004E+2
  -3.61423E+2  -5.23328E+1
   3.93429E+1  -4.84877E+2
   5.08683E+2  -1.58413E+2
   7.75604E+1   2.74392E+2
  -3.87863E+2   5.16587E+2
  -3.12226E+2  -1.19317E+2
  -2.55817E+2  -3.70443E+2
   5.80773E+1  -4.14481E+2
   4.41830E+1  -1.94007E+2
   1.41425E+1  -2.99327E+2
   2.72674E+2  -3.39244E+2
   6.66749E+2   6.89288E+0
   3.61694E+2   5.12367E+2
  -4.64532E+2   5.12015E+2
  -8.08320E+2   1.38568E+2
  -5.65698E+2  -1.34848E+2
  -2.17872E+1  -4.89642E+2
   2.22933E+2  -9.39123E+1
   2.77990E+2  -3.83982E+1
  -1.05793E+2  -3.14846E+1
  -1.31209E+2  -3.03053E+1
   4.02836E+1  -1.06560E+2
  -3.85688E+2   8.19021E+1
  -4.12092E+2  -2.22953E+2
  -1.74145E+2  -5.33630E+2
  -6.51671E+1  -5.51671E+2
   1.92644E+2   1.48673E+1
  -1.47375E+2   2.52227E+2
  -2.62502E+2  -1.27847E+2
  -5.71990E+1  -2.06935E+2
  -6.39296E+1  -1.70695E+2
  -5.42900E+1   8.07529E+1
  -1.11937E+2   1.26728E+2
  -2.34244E+2  -3.06794E+2
   3.19274E+2  -1.35582E+2
   4.07167E+2   2.88224E+2
  -1.02559E+2   4.59762E+2
  -6.76249E+2   3.09214E+2
  -3.93260E+2   1.11556E+1
  -1.83326E+2  -3.87362E+2
   1.78444E+2  -3.04467E+2
   3.77745E+2  -2.28377E+2
  -1.28120E+2   2.62363E+1
  -2.81944E+1  -2.62822E+1
   2.51476E+1   6.51664E+1
  -9.73794E+1   2.40947E+2
  -3.89210E+2   3.43841E+2
  -4.64889E+2  -8.22913E+1
  -1.78116E+2  -3.20581E+2
   2.79953E+2  -3.04303E+2
   8.84630E+1   4.73035E+2
  -2.74409E+2   1.74325E+2
  -4.35970E+2  -1.19627E+2
  -3.50859E+2  -4.04915E+2
   1.86802E+1  -7.25794E+1
  -7.69054E+1  -6.63651E+1
  -3.03072E+2  -1.63702E+2
  -2.19103E+1  -5.48901E+1
  -1.85816E+0   1.02049E+2
  -3.09164E+1   9.68356E+1
  -3.35156E+2   3.73966E+2
  -1.83123E+2  -3.11314E+1
   1.87273E+1  -2.01311E+2
   1.96544E+2  -1.22778E+2
   4.11296E+0   3.22908E+2
  -2.13476E+2   2.83174E+2
  -4.38084E+2  -3.34160E+1
   5.56138E+1  -3.79307E+2
   2.59118E+2   9.88639E+1
   3.39706E+1   2.00605E+2
  -5.92173E+2   1.41008E+1
  -1.44697E+1  -3.77559E+2
   3.32313E+2  -1.34713E+2
   5.15840E+1   1.30321E+2
  -2.75646E+2   1.85783E+2
  -4.29650E+2  -1.70888E+1
  -2.30791E+2  -9.83494E+1
   2.33755E+2  -2.35437E+2
   4.47187E+2   3.42001E+2
   2.52128E+2   4.23486E+2
  -1.52526E+2  -2.92932E+1
  -2.86611E+0   4.94224E+1
  -1.58220E+2   3.59153E+2
  -4.39851E+2   1.78277E+2
  -3.51814E+2   7.18385E+1
  -1.80194E+2  -3.93771E+2
   3.78269E+2  -2.19648E+2
   4.14791E+2   1.10131E+2
   4.38069E+1   3.00192E+2
  -2.90684E+2   2.88456E+1
  -3.50494E+2  -2.77320E+2
   1.55192E+2  -4.38309E+2
   8.07658E+1   3.98154E+1
  -2.98822E+2  -6.04546E+0
   8.00558E+1  -2.26636E+1
   1.62484E+2   6.37374E+1
   4.14040E+1   9.86140E+1
  -1.06309E+2   4.00994E+2
  -4.47020E+2   2.03879E+2
  -9.89423E+1  -1.92892E+2
   1.55617E+2  -2.95914E+2
   3.27455E+2  -1.03452E+2
  -1.02611E+2   3.37751E+1
  -1.02222E+2  -1.30247E+2
  -1.01288E+2  -8.41813E+1
  -1.51829E+2   9.65954E+0
  -2.49227E+2   2.27770E+2
  -4.58496E+2   6.71450E+1
  -3.69108E+2  -2.36623E+2
   1.22584E+2  -3.17792E+2
   3.31209E+2   1.06731E+2
   1.31552E+2   1.73699E+2
  -6.84544E+1   3.91236E+2
  -2.50886E+2  -2.53195E+1
  -7.64034E+1  -1.49046E+2
  -2.56339E+2   1.74180E+1
  -1.53642E+2   1.10740E+2
  -3.85216E+1  -2.75730E+2
   1.16403E+2  -3.66975E+0
  -1.02086E+2  -7.60471E+1
   9.50875E+1   1.88302E+2
  -4.06842E+2   2.23341E+2
  -1.59506E+2   1.62572E+2
  -1.84324E+2  -2.91051E+2
   1.65252E+2   8.12230E+1
   2.76500E+2   2.32072E+2
  -1.68213E+2   3.41681E+2
  -1.69144E+2  -1.79527E+2
   4.98011E+1  -2.62147E+2
   1.61656E+2   7.20710E+1
  -3.36587E+1   2.15796E+2
  -4.95338E+1   4.87960E+1
   1.50277E+2   4.89203E+1
   1.67364E+2   5.66934E+1
  -8.79417E+1   1.34651E+2
  -1.61915E+2   2.68380E+2
  -1.37992E+2   2.00133E+2
  -1.80522E+2  -1.17666E+2
   6.86580E+1  -9.86428E+1
   2.47562E+2   1.23341E+2
  -7.04564E+1   3.22782E+2
  -8.67988E+1   3.04410E+1
   1.06181E+1  -1.70002E+2
   1.91534E+2   1.86616E+2
  -8.02602E+1   7.33760E+1
  -3.47435E+2  -5.44103E+1
   6.20904E+1  -2.37260E+2
   1.69672E+2  -4.26229E+2
   2.77615E+2   2.41560E+2
  -2.67770E+2   5.55228E+2
  -3.00329E+2  -3.61910E+1
  -7.59761E+1  -3.21502E+2
   1.07728E+2  -2.67277E+2
   7.34680E+0   1.35807E+2
   2.37686E+2   5.70919E+1
  -5.74431E+1  -3.43459E+1
   1.60626E+1   1.19413E+2
  -3.69088E+1   4.17104E+2
  -5.99856E+1   3.18361E+2
  -2.80617E+2  -6.72003E+1
  -2.83750E+2  -2.78838E+2
   1.49727E+1  -2.81687E+2
   1.31681E+2   1.56911E+1
   8.47344E+1   2.46500E+2
  -3.21597E+2  -4.45150E+1
   1.05397E+2   8.33990E+1
  -1.71567E+2  -9.65161E+1
   9.63361E+1   1.17846E+2
  -3.12855E+1   2.08889E+2
   2.17058E+1  -2.43517E+2
  -7.63149E+1   9.73758E+1
   3.60430E+1   2.83427E+2
   1.24702E+2   9.57157E+1
  -3.98709E+2   4.49689E+1
  -2.07825E+2   7.49424E+1
   1.07980E+2  -4.07677E+1
  -5.53530E+1  -2.02730E+2
   1.15222E+2  -7.63776E-1
   1.26162E+0  -1.96001E+1
   3.16620E+2  -5.76840E+1
   2.48308E+2   1.18750E+2
  -5.69894E+1   1.27348E+2
  -1.10200E+2  -2.41332E+1
  -2.99972E+2  -6.14740E+1
  -1.77065E+1   4.30554E+1
   3.47464E+2  -2.38235E+2
   4.15725E+2   2.69772E+2
  -1.16153E+2   1.57275E+2
  -1.12021E+2   3.52874E+2
  -2.26685E+2   6.89986E+1
