 LCModel (Version 6.3-1N) Copyright: S.W. Provencher.          Ref.: Magn. Reson. Med. 30:672-679 (1993).                
 Slice_N1@23_13  28-Feb-2025 11:43:41
 27 lines in following concentration table = NCONC+1
    Conc.  %SD /Cr+PCr  Metabolite                                         
 2.00E-04   8% 1.7E-04 Mac                                                 
    9.445  15%   8.000 Cr                                                  
    0.000 999%   0.000 PCr                                                 
    3.793  48%   3.212 Ins                                                 
    8.608  20%   7.291 NAA                                                 
    2.573 105%   2.179 Tau                                                 
    3.941  12%   3.338 PCho                                                
    0.000 999%   0.000 GPC                                                 
   19.206  10%  16.269 Glu                                                 
    1.695  95%   1.436 Gln                                                 
    0.000 999%   0.000 Ala                                                 
    5.905  45%   5.002 Asc                                                 
    1.705  68%   1.444 Asp                                                 
    0.588 116%   0.498 GABA                                                
    0.741  97%   0.627 Glc                                                 
    4.035  23%   3.418 GSH                                                 
   17.118   8%  14.500 Lac                                                 
    1.580 104%   1.338 NAAG                                                
    0.000 999%   0.000 PE                                                  
    3.941  12%   3.338 GPC+PCho                                            
   10.187  13%   8.629 NAA+NAAG                                            
   20.902  12%  17.705 Glu+Gln                                             
    9.445  15%   8.000 Cr+PCr                                              
   10.187  13%   8.629 NAA+NAAG                                            
    9.445  15%   8.000 Cr+PCr                                              
   20.902  12%  17.705 Glu+Gln                                             
   6 lines in following misc. output table
  FWHM = 0.146 ppm    S/N =   3                                            
  Data shift =-0.057 ppm                                                   
  Ph:-115 deg       0.0 deg/ppm                                            
  alphaB,S = 1.3E-01,   1.9E+02                                            
   16 spline knots.   Ns = 7(2)                                            
  (11) 2 infls.   ( 9) 1 extrs.                                            
  480 points on ppm-axis = NY
      4.100000     4.091866     4.083733     4.075600     4.067466     4.059333     4.051199     4.043066     4.034933     4.026799
      4.018666     4.010532     4.002399     3.994265     3.986132     3.977998     3.969864     3.961731     3.953597     3.945463
      3.937330     3.929196     3.921062     3.912929     3.904795     3.896662     3.888528     3.880394     3.872261     3.864127
      3.855993     3.847860     3.839726     3.831592     3.823459     3.815325     3.807191     3.799058     3.790924     3.782790
      3.774657     3.766523     3.758389     3.750256     3.742122     3.733989     3.725855     3.717721     3.709588     3.701454
      3.693320     3.685187     3.677053     3.668919     3.660786     3.652652     3.644518     3.636385     3.628251     3.620117
      3.611984     3.603850     3.595716     3.587583     3.579449     3.571316     3.563182     3.555048     3.546915     3.538781
      3.530647     3.522514     3.514380     3.506246     3.498113     3.489979     3.481845     3.473712     3.465578     3.457444
      3.449311     3.441177     3.433043     3.424910     3.416776     3.408643     3.400509     3.392375     3.384242     3.376108
      3.367974     3.359841     3.351707     3.343573     3.335440     3.327306     3.319172     3.311039     3.302905     3.294771
      3.286638     3.278504     3.270370     3.262237     3.254103     3.245970     3.237836     3.229702     3.221569     3.213435
      3.205301     3.197168     3.189034     3.180900     3.172767     3.164633     3.156499     3.148366     3.140232     3.132098
      3.123965     3.115831     3.107697     3.099564     3.091430     3.083297     3.075163     3.067029     3.058896     3.050762
      3.042628     3.034495     3.026361     3.018227     3.010094     3.001960     2.993826     2.985693     2.977559     2.969425
      2.961292     2.953158     2.945024     2.936891     2.928757     2.920624     2.912490     2.904356     2.896223     2.888089
      2.879955     2.871822     2.863688     2.855554     2.847421     2.839287     2.831153     2.823020     2.814886     2.806752
      2.798619     2.790485     2.782351     2.774218     2.766084     2.757951     2.749817     2.741683     2.733550     2.725416
      2.717282     2.709149     2.701015     2.692881     2.684748     2.676614     2.668480     2.660347     2.652213     2.644079
      2.635946     2.627812     2.619678     2.611545     2.603411     2.595278     2.587144     2.579010     2.570877     2.562743
      2.554609     2.546476     2.538342     2.530208     2.522075     2.513941     2.505807     2.497674     2.489540     2.481406
      2.473273     2.465139     2.457006     2.448872     2.440738     2.432605     2.424471     2.416337     2.408204     2.400070
      2.391936     2.383803     2.375669     2.367535     2.359402     2.351268     2.343134     2.335001     2.326867     2.318733
      2.310600     2.302466     2.294333     2.286199     2.278065     2.269932     2.261798     2.253664     2.245531     2.237397
      2.229263     2.221130     2.212996     2.204862     2.196729     2.188595     2.180461     2.172328     2.164194     2.156060
      2.147927     2.139793     2.131660     2.123526     2.115392     2.107259     2.099125     2.090991     2.082858     2.074724
      2.066590     2.058457     2.050323     2.042189     2.034056     2.025922     2.017788     2.009655     2.001521     1.993387
      1.985254     1.977120     1.968987     1.960853     1.952719     1.944586     1.936452     1.928318     1.920185     1.912051
      1.903917     1.895784     1.887650     1.879516     1.871383     1.863249     1.855115     1.846982     1.838848     1.830714
      1.822581     1.814447     1.806314     1.798180     1.790046     1.781913     1.773779     1.765645     1.757512     1.749378
      1.741244     1.733111     1.724977     1.716843     1.708710     1.700576     1.692442     1.684309     1.676175     1.668041
      1.659908     1.651774     1.643641     1.635507     1.627373     1.619240     1.611106     1.602972     1.594839     1.586705
      1.578571     1.570438     1.562304     1.554170     1.546037     1.537903     1.529769     1.521636     1.513502     1.505368
      1.497235     1.489101     1.480968     1.472834     1.464700     1.456567     1.448433     1.440299     1.432166     1.424032
      1.415898     1.407765     1.399631     1.391497     1.383364     1.375230     1.367096     1.358963     1.350829     1.342695
      1.334562     1.326428     1.318295     1.310161     1.302027     1.293894     1.285760     1.277626     1.269493     1.261359
      1.253225     1.245092     1.236958     1.228824     1.220691     1.212557     1.204423     1.196290     1.188156     1.180022
      1.171889     1.163755     1.155622     1.147488     1.139354     1.131221     1.123087     1.114953     1.106820     1.098686
      1.090552     1.082419     1.074285     1.066151     1.058018     1.049884     1.041750     1.033617     1.025483     1.017349
      1.009216     1.001082     0.992949     0.984815     0.976681     0.968548     0.960414     0.952280     0.944147     0.936013
      0.927879     0.919746     0.911612     0.903478     0.895345     0.887211     0.879077     0.870944     0.862810     0.854676
      0.846543     0.838409     0.830276     0.822142     0.814008     0.805875     0.797741     0.789607     0.781474     0.773340
      0.765206     0.757073     0.748939     0.740805     0.732672     0.724538     0.716404     0.708271     0.700137     0.692003
      0.683870     0.675736     0.667603     0.659469     0.651335     0.643202     0.635068     0.626934     0.618801     0.610667
      0.602533     0.594400     0.586266     0.578132     0.569999     0.561865     0.553731     0.545598     0.537464     0.529330
      0.521197     0.513063     0.504930     0.496796     0.488662     0.480529     0.472395     0.464261     0.456128     0.447994
      0.439861     0.431727     0.423593     0.415460     0.407326     0.399192     0.391059     0.382925     0.374792     0.366658
      0.358524     0.350391     0.342257     0.334124     0.325990     0.317856     0.309723     0.301589     0.293455     0.285322
      0.277188     0.269055     0.260921     0.252787     0.244654     0.236520     0.228386     0.220253     0.212119     0.203986
 NY phased data points follow
  -4.69462E+01 -5.44460E+01 -5.01388E+01 -5.21463E+01 -6.18943E+01 -4.91952E+01 -5.49649E+01 -6.86082E+01 -5.48821E+01 -5.41501E+01
  -6.90880E+01 -6.96356E+01 -6.43019E+01 -5.90347E+01 -5.96301E+01 -7.26009E+01 -6.14193E+01 -5.71426E+01 -8.14639E+01 -7.00390E+01
  -6.92229E+01 -7.42070E+01 -7.65170E+01 -8.54785E+01 -6.82826E+01 -7.86620E+01 -7.84548E+01 -7.43680E+01 -7.31524E+01 -6.59869E+01
  -8.43557E+01 -7.63028E+01 -8.46963E+01 -9.15611E+01 -6.92214E+01 -7.89025E+01 -1.01047E+02 -1.03045E+02 -9.96979E+01 -1.05005E+02
  -1.05131E+02 -1.09906E+02 -1.00695E+02 -8.14725E+01 -8.06427E+01 -8.54167E+01 -8.08140E+01 -6.21675E+01 -6.02562E+01 -6.65197E+01
  -6.11887E+01 -6.73481E+01 -6.70027E+01 -5.01325E+01 -5.50015E+01 -4.69644E+01 -3.40657E+01 -5.51174E+01 -5.25119E+01 -4.20354E+01
  -4.55955E+01 -4.80456E+01 -4.78477E+01 -4.74164E+01 -3.84605E+01 -2.76923E+01 -3.91519E+01 -3.53390E+01 -3.56333E+01 -4.50401E+01
  -4.43294E+01 -4.52239E+01 -5.63104E+01 -4.58181E+01 -2.15380E+01 -3.73076E+01 -2.54235E+01 -3.17234E+01 -2.04605E+01 -5.36035E+00
  -4.89493E+01 -1.69076E+01 -1.85355E+01 -2.66517E+01 -1.48983E+01 -3.24847E+01 -8.32464E+00 -1.88633E+01  1.89717E+00  1.28123E+01
  -2.07414E+01 -7.62149E+00 -1.79548E+01 -1.73266E+01  3.04928E+00 -1.16246E+01 -1.65095E+01 -2.21011E+01 -3.68163E+01 -2.61192E+01
  -2.97855E+01 -3.92718E+01 -3.27295E+01 -4.54210E+01 -5.59707E+01 -5.81292E+01 -5.81428E+01 -6.14789E+01 -8.52209E+01 -9.18152E+01
  -9.44577E+01 -1.04811E+02 -1.00293E+02 -1.01188E+02 -8.47161E+01 -7.33521E+01 -8.25738E+01 -8.78273E+01 -7.77227E+01 -5.74654E+01
  -6.31447E+01 -6.21214E+01 -5.57083E+01 -4.69345E+01 -3.48972E+01 -4.17868E+01 -4.63350E+01 -3.42984E+01 -3.16992E+01 -4.38578E+01
  -3.23888E+01 -3.70984E+01 -5.28312E+01 -5.93437E+01 -6.87244E+01 -7.59440E+01 -8.28589E+01 -1.00342E+02 -1.15187E+02 -9.94752E+01
  -1.09106E+02 -1.06677E+02 -1.03458E+02 -1.10701E+02 -1.00729E+02 -1.01897E+02 -1.14345E+02 -1.39209E+02 -9.81171E+01 -9.02084E+01
  -1.00068E+02 -8.46862E+01 -1.04176E+02 -8.92066E+01 -9.48554E+01 -7.36684E+01 -6.89589E+01 -8.35644E+01 -5.93174E+01 -7.29559E+01
  -7.42955E+01 -7.51839E+01 -6.33655E+01 -6.06141E+01 -7.31343E+01 -5.82451E+01 -5.29122E+01 -6.58978E+01 -7.62917E+01 -5.52985E+01
  -6.65493E+01 -7.15585E+01 -4.49648E+01 -4.41278E+01 -4.59996E+01 -5.53008E+01 -5.72559E+01 -6.65340E+01 -6.06406E+01 -5.19545E+01
  -6.42058E+01 -5.53385E+01 -6.68028E+01 -7.49803E+01 -7.54728E+01 -7.65159E+01 -6.34271E+01 -6.58849E+01 -5.77043E+01 -5.21423E+01
  -6.45192E+01 -6.08735E+01 -4.98738E+01 -6.03154E+01 -6.26916E+01 -5.87479E+01 -6.51927E+01 -5.63973E+01 -4.95757E+01 -4.12262E+01
  -4.45072E+01 -5.48182E+01 -4.91575E+01 -5.45108E+01 -4.99047E+01 -4.79762E+01 -6.33619E+01 -5.90243E+01 -6.34403E+01 -7.18749E+01
  -6.30079E+01 -5.98450E+01 -5.07897E+01 -4.73370E+01 -4.53133E+01 -3.87945E+01 -5.05781E+01 -5.06159E+01 -2.90732E+01 -2.46886E+01
  -1.60101E+01 -7.42862E+00 -2.31805E+01 -1.66495E+01 -2.08389E+01 -2.63906E+01 -1.66055E+01 -2.29723E+01 -2.68082E+01 -3.78825E+01
  -4.59532E+01 -5.03170E+01 -3.95479E+01 -3.82183E+01 -5.10410E+01 -5.08300E+01 -5.42929E+01 -5.19304E+01 -6.62593E+01 -7.84971E+01
  -6.54308E+01 -7.51357E+01 -7.85130E+01 -6.78201E+01 -9.79019E+01 -7.25237E+01 -5.24292E+01 -7.72589E+01 -4.73578E+01 -4.25692E+01
  -4.20153E+01 -4.76273E+01 -3.24590E+01 -2.09204E+01 -3.22201E+01  1.11495E+00  9.61010E+00  2.05283E+01  2.35163E+01  2.72349E+01
   3.30307E+01  3.55326E+01  3.74072E+01  4.73237E+01  7.08398E+01  6.72494E+01  5.25343E+01  7.12763E+00  5.16547E+01  6.42866E+01
   2.88053E+01  5.72397E+01  3.28586E+01  5.38621E+01  4.11415E+01  3.49933E+01  7.11751E+01  3.22006E+01  2.79245E+01  4.24909E+01
   4.27900E+01  3.15396E+01  1.76129E+01  1.15439E+01  1.06255E+01  2.77712E+01  2.88991E+01  1.40896E+01  4.68840E+00 -1.16027E+00
  -1.91506E+00 -3.90265E+00 -9.03852E+00 -1.60018E+01 -1.08793E+01  2.29932E+00 -1.04467E+01 -1.85891E+01 -1.63655E+01 -6.22686E+00
  -1.16663E+01 -1.82013E+01 -9.35522E+00 -3.42815E+01 -1.75437E+01 -7.93563E+00 -4.00100E+01 -2.80196E+01 -1.32186E+01 -1.84594E+01
  -6.18026E+00  1.03763E+00 -7.12581E+00  5.43336E+00 -7.90725E+00 -9.19722E+00  3.90549E+00 -3.33387E+00  2.06421E+01  3.37500E+01
   3.19997E+01  3.95785E+01  5.63820E+01  6.57250E+01  6.46088E+01  6.81830E+01  6.82619E+01  6.95181E+01  7.15323E+01  6.26446E+01
   3.88606E+01  3.13195E+01  2.44629E+01  1.82070E+01  2.08462E+01 -8.07116E+00 -3.16028E+01 -3.06297E+01 -4.22947E+01 -3.78513E+01
  -2.93691E+01 -4.32748E+01 -3.63987E+01 -3.89914E+01 -4.72724E+01 -5.12811E+01 -5.32074E+01 -3.89376E+01 -5.22932E+01 -5.47769E+01
  -4.95215E+01 -5.60078E+01 -5.60873E+01 -5.04298E+01 -4.24289E+01 -6.37828E+01 -6.52605E+01 -4.51035E+01 -5.02887E+01 -4.92177E+01
  -4.17029E+01 -4.51551E+01 -4.23144E+01 -4.15035E+01 -2.87645E+01 -1.81986E+01 -2.79485E+01 -1.67985E+01 -1.62933E+01 -1.03827E+01
  -3.04992E+00 -3.45054E+00  3.60758E+00 -7.75888E+00 -6.95643E+00 -3.94383E+00  1.94000E+01  2.47893E+01  1.53791E+01  2.81922E+01
   1.83555E+01  2.40017E+01  2.06255E+01  1.57968E+01  4.31566E+01  4.12067E+01  1.23875E+01  1.73403E+01  2.33634E+01  2.73731E+01
   2.59883E+01  4.21770E+00  1.06924E+01 -5.18310E+00 -1.25922E+01 -1.07291E+01 -1.31979E+01 -2.29975E+01 -4.42628E+01 -3.66788E+01
  -4.89351E+01 -4.73189E+01 -5.90080E+01 -6.13537E+01 -5.61391E+01 -6.23651E+01 -6.86688E+01 -7.84185E+01 -4.55627E+01 -7.59346E+01
  -8.53994E+01 -7.34186E+01 -7.26255E+01 -4.81695E+01 -6.44940E+01 -6.36316E+01 -6.44204E+01 -5.50793E+01 -7.07820E+01 -7.20488E+01
  -5.23009E+01 -7.30034E+01 -6.20813E+01 -5.07769E+01 -4.60292E+01 -4.72245E+01 -5.08786E+01 -6.33644E+01 -6.55323E+01 -5.82922E+01
  -6.23911E+01 -5.28305E+01 -5.27131E+01 -4.98812E+01 -5.29863E+01 -4.79033E+01 -4.99078E+01 -5.67155E+01 -5.13806E+01 -6.15671E+01
  -6.12552E+01 -6.43942E+01 -6.01055E+01 -4.88427E+01 -4.28787E+01 -3.76690E+01 -4.98937E+01 -5.19358E+01 -4.15223E+01 -4.60993E+01
  -5.34089E+01 -4.72667E+01 -4.57260E+01 -4.68108E+01 -4.01236E+01 -5.02040E+01 -5.47110E+01 -3.77953E+01 -5.39126E+01 -6.66176E+01
  -5.07731E+01 -5.46264E+01 -4.05614E+01 -3.25025E+01 -4.48800E+01 -4.42247E+01 -5.86076E+01 -4.81300E+01 -4.87800E+01 -5.61036E+01
  -2.94400E+01 -3.82011E+01 -3.75963E+01 -3.96521E+01 -5.57594E+01 -4.01166E+01 -3.32459E+01 -4.46514E+01 -4.83864E+01 -5.45400E+01
 NY points of the fit to the data follow
  -7.09706E+01 -6.66723E+01 -6.85780E+01 -6.50657E+01 -6.62840E+01 -6.39416E+01 -6.47721E+01 -6.41112E+01 -6.55090E+01 -6.64021E+01
  -6.71168E+01 -6.92905E+01 -6.86740E+01 -7.18744E+01 -6.99285E+01 -7.36173E+01 -7.04808E+01 -7.39735E+01 -6.97876E+01 -7.28445E+01
  -6.77496E+01 -7.04985E+01 -6.47974E+01 -6.74274E+01 -6.17426E+01 -6.47865E+01 -6.06128E+01 -6.38072E+01 -6.20530E+01 -6.53769E+01
  -6.61683E+01 -6.92486E+01 -7.18057E+01 -7.40111E+01 -7.74835E+01 -7.85312E+01 -8.25612E+01 -8.24292E+01 -8.67618E+01 -8.56174E+01
  -9.00169E+01 -8.77201E+01 -9.05416E+01 -8.71746E+01 -8.82709E+01 -8.43329E+01 -8.36002E+01 -7.94298E+01 -7.73334E+01 -7.31351E+01
  -7.00664E+01 -6.60379E+01 -6.23399E+01 -5.87508E+01 -5.49049E+01 -5.22909E+01 -4.90695E+01 -4.74911E+01 -4.56461E+01 -4.45470E+01
  -4.38368E+01 -4.31865E+01 -4.30685E+01 -4.24069E+01 -4.21070E+01 -4.11823E+01 -4.04984E+01 -3.93949E+01 -3.84534E+01 -3.74234E+01
  -3.64863E+01 -3.56805E+01 -3.50782E+01 -3.44407E+01 -3.41241E+01 -3.35067E+01 -3.31688E+01 -3.26031E+01 -3.21233E+01 -3.13963E+01
  -3.08965E+01 -2.98375E+01 -2.91749E+01 -2.77634E+01 -2.69018E+01 -2.52781E+01 -2.42811E+01 -2.25692E+01 -2.16157E+01 -1.97830E+01
  -1.88051E+01 -1.71594E+01 -1.58146E+01 -1.40196E+01 -1.17612E+01 -1.26296E+01 -1.10707E+01 -1.51516E+01 -1.46945E+01 -2.14838E+01
  -2.19185E+01 -3.08702E+01 -3.20026E+01 -4.23126E+01 -4.38230E+01 -5.45570E+01 -5.60499E+01 -6.63643E+01 -6.75243E+01 -7.64927E+01
  -7.69521E+01 -8.36634E+01 -8.31009E+01 -8.69993E+01 -8.50917E+01 -8.57907E+01 -8.19867E+01 -7.86145E+01 -7.45563E+01 -6.92396E+01
  -6.58775E+01 -6.00466E+01 -5.74094E+01 -5.18806E+01 -4.98934E+01 -4.57422E+01 -4.46205E+01 -4.42623E+01 -4.53797E+01 -4.75228E+01
  -5.01941E+01 -5.41933E+01 -5.79077E+01 -6.31539E+01 -6.73442E+01 -7.31386E+01 -7.72467E+01 -8.28330E+01 -8.64353E+01 -9.12081E+01
  -9.40428E+01 -9.76068E+01 -9.95271E+01 -1.01726E+02 -1.02590E+02 -1.03192E+02 -1.02829E+02 -1.01513E+02 -1.00091E+02 -9.70625E+01
  -9.60042E+01 -9.34292E+01 -9.24538E+01 -9.01930E+01 -8.91417E+01 -8.71437E+01 -8.58390E+01 -8.40296E+01 -8.22726E+01 -8.06827E+01
  -7.87524E+01 -7.73372E+01 -7.53668E+01 -7.38621E+01 -7.18484E+01 -7.04220E+01 -6.85214E+01 -6.73921E+01 -6.57401E+01 -6.49606E+01
  -6.36245E+01 -6.31986E+01 -6.22310E+01 -6.21637E+01 -6.15261E+01 -6.18531E+01 -6.14214E+01 -6.20198E+01 -6.17530E+01 -6.23468E+01
  -6.21381E+01 -6.25309E+01 -6.24190E+01 -6.24652E+01 -6.23006E+01 -6.19680E+01 -6.16981E+01 -6.10986E+01 -6.06157E+01 -5.97345E+01
  -5.90528E+01 -5.81073E+01 -5.75545E+01 -5.67298E+01 -5.64101E+01 -5.58217E+01 -5.59979E+01 -5.61394E+01 -5.71425E+01 -5.81498E+01
  -5.94969E+01 -6.13452E+01 -6.17878E+01 -6.34182E+01 -6.27089E+01 -6.26338E+01 -6.11529E+01 -5.89879E+01 -5.71174E+01 -5.27948E+01
  -5.09904E+01 -4.46423E+01 -4.32397E+01 -3.53502E+01 -3.48407E+01 -2.61394E+01 -2.68573E+01 -1.82360E+01 -2.06524E+01 -1.30385E+01
  -1.73602E+01 -1.14804E+01 -1.75106E+01 -1.40725E+01 -2.11538E+01 -2.03594E+01 -2.79330E+01 -2.95335E+01 -3.72407E+01 -4.07777E+01
  -4.80907E+01 -5.28316E+01 -5.87556E+01 -6.35965E+01 -6.73980E+01 -7.08943E+01 -7.32016E+01 -7.44493E+01 -7.62242E+01 -7.49445E+01
  -7.66555E+01 -7.31035E+01 -7.60652E+01 -7.02286E+01 -7.25923E+01 -6.47588E+01 -6.54763E+01 -5.63346E+01 -5.52731E+01 -4.55929E+01
  -4.28157E+01 -3.32934E+01 -2.89288E+01 -2.02777E+01 -1.43745E+01 -7.23864E+00  1.22820E-01  5.42901E+00  1.37875E+01  1.71813E+01
   2.57353E+01  2.73334E+01  3.52561E+01  3.52963E+01  4.20402E+01  4.07336E+01  4.60561E+01  4.36280E+01  4.72792E+01  4.42301E+01
   4.57447E+01  4.26333E+01  4.20499E+01  3.88712E+01  3.63648E+01  3.36124E+01  3.14996E+01  2.91102E+01  2.71962E+01  2.50209E+01
   2.31865E+01  2.11814E+01  1.93920E+01  1.75677E+01  1.58470E+01  1.42428E+01  1.26600E+01  1.13279E+01  9.98006E+00  8.97313E+00
   7.96081E+00  7.34141E+00  6.74256E+00  6.56709E+00  6.42840E+00  6.69477E+00  7.01772E+00  7.69029E+00  8.43378E+00  9.44172E+00
   1.05285E+01  1.17666E+01  1.30860E+01  1.44245E+01  1.58475E+01  1.71387E+01  1.85122E+01  1.96246E+01  2.07956E+01  2.16208E+01
   2.24524E+01  2.28851E+01  2.32664E+01  2.32398E+01  2.31123E+01  2.26089E+01  2.20051E+01  2.11088E+01  2.01806E+01  1.90937E+01
   1.80916E+01  1.71057E+01  1.63575E+01  1.58561E+01  1.58386E+01  1.64476E+01  1.78419E+01  1.78586E+01  2.03815E+01  1.78250E+01
   1.98871E+01  1.47788E+01  1.59962E+01  8.87049E+00  9.27123E+00  6.10574E-01  1.81151E-01 -9.51490E+00 -1.07865E+01 -2.09875E+01
  -2.30734E+01 -3.31408E+01 -3.59213E+01 -4.50607E+01 -4.82003E+01 -5.56083E+01 -5.86066E+01 -6.37643E+01 -6.61544E+01 -6.88900E+01
  -7.03672E+01 -7.06936E+01 -7.10736E+01 -6.89503E+01 -6.80202E+01 -6.35815E+01 -6.11046E+01 -5.51472E+01 -5.12793E+01 -4.60499E+01
  -4.19138E+01 -3.79416E+01 -3.45196E+01 -3.08968E+01 -2.76433E+01 -2.40561E+01 -2.07841E+01 -1.71282E+01 -1.37784E+01 -1.00568E+01
  -6.68004E+00 -2.97725E+00  2.64972E-01  3.75072E+00  6.64248E+00  9.69523E+00  1.20301E+01  1.44624E+01  1.60749E+01  1.77288E+01
   1.84575E+01  1.91716E+01  1.88914E+01  1.85279E+01  1.71859E+01  1.57069E+01  1.33529E+01  1.08249E+01  7.61499E+00  4.21515E+00
   3.88358E-01 -3.62645E+00 -7.80203E+00 -1.21517E+01 -1.63848E+01 -2.07759E+01 -2.47904E+01 -2.89414E+01 -3.24872E+01 -3.61564E+01
  -3.90647E+01 -4.21137E+01 -4.43570E+01 -4.67604E+01 -4.84196E+01 -5.02471E+01 -5.14194E+01 -5.27294E+01 -5.34888E+01 -5.43507E+01
  -5.47725E+01 -5.52748E+01 -5.54603E+01 -5.57169E+01 -5.57577E+01 -5.58741E+01 -5.58403E+01 -5.58766E+01 -5.58066E+01 -5.57911E+01
  -5.57083E+01 -5.56464E+01 -5.55644E+01 -5.54641E+01 -5.53963E+01 -5.52628E+01 -5.52130E+01 -5.50542E+01 -5.50161E+01 -5.48464E+01
  -5.48160E+01 -5.46366E+01 -5.46085E+01 -5.44229E+01 -5.43982E+01 -5.42099E+01 -5.41724E+01 -5.39964E+01 -5.39369E+01 -5.37766E+01
  -5.36842E+01 -5.35478E+01 -5.34157E+01 -5.33040E+01 -5.31177E+01 -5.30346E+01 -5.27980E+01 -5.27421E+01 -5.24661E+01 -5.24296E+01
  -5.21200E+01 -5.20844E+01 -5.17375E+01 -5.16942E+01 -5.13107E+01 -5.12646E+01 -5.08475E+01 -5.07955E+01 -5.03461E+01 -5.02892E+01
  -4.98048E+01 -4.97333E+01 -4.92196E+01 -4.91184E+01 -4.85740E+01 -4.84321E+01 -4.78377E+01 -4.76415E+01 -4.69710E+01 -4.66945E+01
  -4.59247E+01 -4.55332E+01 -4.46379E+01 -4.41020E+01 -4.30420E+01 -4.23104E+01 -4.10307E+01 -4.00394E+01 -3.84712E+01 -3.71010E+01
 NY background values follow
    -4.960E+01   -4.999E+01   -5.038E+01   -5.076E+01   -5.115E+01   -5.154E+01   -5.193E+01   -5.231E+01   -5.269E+01   -5.308E+01
    -5.345E+01   -5.383E+01   -5.420E+01   -5.457E+01   -5.494E+01   -5.530E+01   -5.566E+01   -5.602E+01   -5.637E+01   -5.672E+01
    -5.706E+01   -5.739E+01   -5.772E+01   -5.805E+01   -5.836E+01   -5.867E+01   -5.898E+01   -5.928E+01   -5.957E+01   -5.985E+01
    -6.013E+01   -6.039E+01   -6.065E+01   -6.090E+01   -6.114E+01   -6.138E+01   -6.160E+01   -6.181E+01   -6.201E+01   -6.221E+01
    -6.239E+01   -6.257E+01   -6.273E+01   -6.289E+01   -6.303E+01   -6.317E+01   -6.330E+01   -6.343E+01   -6.354E+01   -6.365E+01
    -6.374E+01   -6.383E+01   -6.392E+01   -6.399E+01   -6.406E+01   -6.412E+01   -6.418E+01   -6.423E+01   -6.427E+01   -6.431E+01
    -6.434E+01   -6.436E+01   -6.438E+01   -6.439E+01   -6.440E+01   -6.440E+01   -6.440E+01   -6.439E+01   -6.438E+01   -6.437E+01
    -6.435E+01   -6.432E+01   -6.430E+01   -6.426E+01   -6.423E+01   -6.419E+01   -6.415E+01   -6.411E+01   -6.406E+01   -6.401E+01
    -6.395E+01   -6.389E+01   -6.383E+01   -6.376E+01   -6.369E+01   -6.361E+01   -6.353E+01   -6.345E+01   -6.336E+01   -6.327E+01
    -6.318E+01   -6.308E+01   -6.297E+01   -6.286E+01   -6.275E+01   -6.263E+01   -6.251E+01   -6.238E+01   -6.225E+01   -6.211E+01
    -6.197E+01   -6.182E+01   -6.167E+01   -6.151E+01   -6.135E+01   -6.118E+01   -6.101E+01   -6.083E+01   -6.065E+01   -6.046E+01
    -6.026E+01   -6.006E+01   -5.986E+01   -5.964E+01   -5.943E+01   -5.921E+01   -5.898E+01   -5.875E+01   -5.851E+01   -5.828E+01
    -5.803E+01   -5.778E+01   -5.753E+01   -5.728E+01   -5.702E+01   -5.676E+01   -5.649E+01   -5.623E+01   -5.596E+01   -5.569E+01
    -5.541E+01   -5.514E+01   -5.486E+01   -5.458E+01   -5.430E+01   -5.401E+01   -5.373E+01   -5.344E+01   -5.316E+01   -5.287E+01
    -5.258E+01   -5.230E+01   -5.201E+01   -5.172E+01   -5.144E+01   -5.115E+01   -5.086E+01   -5.058E+01   -5.029E+01   -5.001E+01
    -4.973E+01   -4.945E+01   -4.917E+01   -4.890E+01   -4.862E+01   -4.835E+01   -4.808E+01   -4.781E+01   -4.754E+01   -4.727E+01
    -4.701E+01   -4.675E+01   -4.649E+01   -4.624E+01   -4.599E+01   -4.574E+01   -4.549E+01   -4.525E+01   -4.501E+01   -4.477E+01
    -4.454E+01   -4.431E+01   -4.409E+01   -4.387E+01   -4.365E+01   -4.343E+01   -4.322E+01   -4.302E+01   -4.282E+01   -4.262E+01
    -4.243E+01   -4.224E+01   -4.206E+01   -4.188E+01   -4.171E+01   -4.155E+01   -4.138E+01   -4.123E+01   -4.107E+01   -4.093E+01
    -4.079E+01   -4.065E+01   -4.052E+01   -4.039E+01   -4.027E+01   -4.015E+01   -4.003E+01   -3.993E+01   -3.982E+01   -3.972E+01
    -3.963E+01   -3.953E+01   -3.945E+01   -3.937E+01   -3.929E+01   -3.921E+01   -3.914E+01   -3.908E+01   -3.901E+01   -3.896E+01
    -3.890E+01   -3.885E+01   -3.880E+01   -3.876E+01   -3.872E+01   -3.869E+01   -3.866E+01   -3.863E+01   -3.860E+01   -3.858E+01
    -3.856E+01   -3.855E+01   -3.854E+01   -3.853E+01   -3.852E+01   -3.852E+01   -3.852E+01   -3.853E+01   -3.854E+01   -3.855E+01
    -3.857E+01   -3.859E+01   -3.862E+01   -3.865E+01   -3.868E+01   -3.872E+01   -3.876E+01   -3.881E+01   -3.887E+01   -3.892E+01
    -3.899E+01   -3.905E+01   -3.912E+01   -3.920E+01   -3.929E+01   -3.937E+01   -3.947E+01   -3.957E+01   -3.967E+01   -3.978E+01
    -3.990E+01   -4.002E+01   -4.015E+01   -4.028E+01   -4.042E+01   -4.056E+01   -4.072E+01   -4.088E+01   -4.104E+01   -4.121E+01
    -4.139E+01   -4.157E+01   -4.176E+01   -4.195E+01   -4.215E+01   -4.234E+01   -4.254E+01   -4.274E+01   -4.295E+01   -4.315E+01
    -4.335E+01   -4.355E+01   -4.375E+01   -4.395E+01   -4.414E+01   -4.433E+01   -4.452E+01   -4.470E+01   -4.488E+01   -4.505E+01
    -4.522E+01   -4.538E+01   -4.553E+01   -4.567E+01   -4.580E+01   -4.592E+01   -4.603E+01   -4.614E+01   -4.623E+01   -4.630E+01
    -4.637E+01   -4.642E+01   -4.646E+01   -4.648E+01   -4.649E+01   -4.648E+01   -4.646E+01   -4.642E+01   -4.636E+01   -4.630E+01
    -4.621E+01   -4.612E+01   -4.601E+01   -4.589E+01   -4.576E+01   -4.562E+01   -4.546E+01   -4.530E+01   -4.513E+01   -4.495E+01
    -4.477E+01   -4.457E+01   -4.437E+01   -4.417E+01   -4.396E+01   -4.374E+01   -4.352E+01   -4.330E+01   -4.307E+01   -4.285E+01
    -4.262E+01   -4.239E+01   -4.216E+01   -4.193E+01   -4.170E+01   -4.147E+01   -4.124E+01   -4.102E+01   -4.080E+01   -4.058E+01
    -4.037E+01   -4.017E+01   -3.997E+01   -3.977E+01   -3.958E+01   -3.940E+01   -3.923E+01   -3.906E+01   -3.890E+01   -3.874E+01
    -3.860E+01   -3.846E+01   -3.832E+01   -3.820E+01   -3.808E+01   -3.797E+01   -3.787E+01   -3.778E+01   -3.769E+01   -3.761E+01
    -3.754E+01   -3.748E+01   -3.743E+01   -3.738E+01   -3.735E+01   -3.732E+01   -3.731E+01   -3.730E+01   -3.730E+01   -3.731E+01
    -3.733E+01   -3.736E+01   -3.740E+01   -3.745E+01   -3.751E+01   -3.758E+01   -3.767E+01   -3.776E+01   -3.786E+01   -3.797E+01
    -3.810E+01   -3.823E+01   -3.837E+01   -3.853E+01   -3.869E+01   -3.886E+01   -3.904E+01   -3.923E+01   -3.943E+01   -3.963E+01
    -3.984E+01   -4.006E+01   -4.028E+01   -4.051E+01   -4.075E+01   -4.099E+01   -4.124E+01   -4.149E+01   -4.174E+01   -4.200E+01
    -4.227E+01   -4.254E+01   -4.281E+01   -4.308E+01   -4.335E+01   -4.363E+01   -4.391E+01   -4.419E+01   -4.447E+01   -4.476E+01
    -4.504E+01   -4.532E+01   -4.560E+01   -4.589E+01   -4.617E+01   -4.644E+01   -4.672E+01   -4.700E+01   -4.727E+01   -4.754E+01
    -4.781E+01   -4.808E+01   -4.835E+01   -4.861E+01   -4.888E+01   -4.914E+01   -4.940E+01   -4.966E+01   -4.992E+01   -5.017E+01
    -5.043E+01   -5.068E+01   -5.093E+01   -5.118E+01   -5.143E+01   -5.168E+01   -5.193E+01   -5.217E+01   -5.242E+01   -5.266E+01
    -5.290E+01   -5.314E+01   -5.338E+01   -5.362E+01   -5.386E+01   -5.409E+01   -5.433E+01   -5.456E+01   -5.480E+01   -5.503E+01
    -5.526E+01   -5.549E+01   -5.572E+01   -5.595E+01   -5.618E+01   -5.641E+01   -5.664E+01   -5.686E+01   -5.709E+01   -5.731E+01
    -5.754E+01   -5.776E+01   -5.799E+01   -5.821E+01   -5.844E+01   -5.866E+01   -5.889E+01   -5.911E+01   -5.933E+01   -5.956E+01
    -5.978E+01   -6.001E+01   -6.023E+01   -6.046E+01   -6.068E+01   -6.091E+01   -6.113E+01   -6.136E+01   -6.159E+01   -6.182E+01
    -6.205E+01   -6.227E+01   -6.250E+01   -6.274E+01   -6.297E+01   -6.320E+01   -6.344E+01   -6.367E+01   -6.391E+01   -6.414E+01
 Mac      Conc. = 2.00E-04
  -6.61879E+01 -6.71566E+01 -6.78422E+01 -6.87589E+01 -6.93253E+01 -7.01123E+01 -7.05133E+01 -7.11129E+01 -7.13289E+01 -7.16908E+01
  -7.17146E+01 -7.18141E+01 -7.16327E+01 -7.14586E+01 -7.10810E+01 -7.06561E+01 -7.01006E+01 -6.94706E+01 -6.87864E+01 -6.80280E+01
  -6.72773E+01 -6.64465E+01 -6.56711E+01 -6.48254E+01 -6.40802E+01 -6.32750E+01 -6.25898E+01 -6.18620E+01 -6.12480E+01 -6.06334E+01
  -6.01179E+01 -5.96546E+01 -5.92479E+01 -5.89262E+01 -5.85865E+01 -5.83997E+01 -5.81345E+01 -5.80590E+01 -5.78833E+01 -5.79211E+01
  -5.78402E+01 -5.79558E+01 -5.79529E+01 -5.81116E+01 -5.81450E+01 -5.83080E+01 -5.83656E+01 -5.85124E+01 -5.85991E+01 -5.87277E+01
  -5.88446E+01 -5.89441E+01 -5.90786E+01 -5.91232E+01 -5.92385E+01 -5.91954E+01 -5.92775E+01 -5.91317E+01 -5.91477E+01 -5.89089E+01
  -5.88348E+01 -5.85452E+01 -5.83974E+01 -5.80991E+01 -5.79040E+01 -5.76366E+01 -5.74215E+01 -5.71911E+01 -5.69719E+01 -5.67762E+01
  -5.65605E+01 -5.63864E+01 -5.61787E+01 -5.60017E+01 -5.57991E+01 -5.56119E+01 -5.54120E+01 -5.52009E+01 -5.50316E+01 -5.48218E+01
  -5.47244E+01 -5.45673E+01 -5.45759E+01 -5.45091E+01 -5.46417E+01 -5.47018E+01 -5.49603E+01 -5.51633E+01 -5.55756E+01 -5.59874E+01
  -5.66295E+01 -5.73286E+01 -5.82413E+01 -5.92367E+01 -6.03878E+01 -6.16154E+01 -6.29114E+01 -6.42689E+01 -6.55998E+01 -6.69579E+01
  -6.82042E+01 -6.94296E+01 -7.04779E+01 -7.14518E+01 -7.21920E+01 -7.28191E+01 -7.31450E+01 -7.33423E+01 -7.31780E+01 -7.28790E+01
