 
 $NMID
 ID=''
 FMTDAT='(2E13.5)'
 TRAMP=   1.00000E+0
 VOLUME=   1.00000E+0
 $END
  -7.25055E+2   1.90720E+4
   1.59047E+4   2.99487E+4
   3.50803E+4  -6.14046E+3
  -2.80080E+3  -3.01969E+4
  -3.51968E+4  -1.30371E+3
  -7.47041E+3   2.73933E+4
   2.58497E+4   1.20824E+4
   1.52938E+4  -1.58035E+4
  -1.26013E+4  -1.49206E+4
  -1.88542E+4   7.99348E+3
  -5.41800E+2   1.68733E+4
   1.45217E+4   8.26431E+2
   4.50455E+3  -1.22224E+4
  -1.07422E+4  -5.57428E+3
  -7.08483E+3   4.09170E+3
   5.09139E+3   4.91235E+3
   6.36939E+3   1.47432E+3
  -8.56262E+1  -3.18925E+3
  -3.68235E+3  -3.05592E+3
  -2.10939E+3   2.01149E+3
   3.26588E+2   2.74286E+3
   1.22594E+3  -9.28201E+1
   8.14365E+2  -3.51740E+2
  -8.94874E+2  -2.58097E+2
  -1.47859E+3  -1.36740E+3
   5.80241E+2   1.27599E+3
   1.03278E+3   2.28189E+3
  -7.01425E+2  -2.49178E+2
  -8.51663E+2  -1.68182E+3
  -2.01865E+2   1.35981E+2
  -6.82447E+2   1.45741E+3
  -4.49929E+2   1.20112E+2
   3.14561E+1  -1.07483E+3
  -4.09099E+2  -1.64560E+3
   3.93217E+2  -1.23169E+3
   1.87712E+3   4.77818E+2
   4.89053E+2   1.90935E+3
  -1.24608E+3   1.31780E+2
  -2.20271E+2  -1.11495E+3
   3.75841E+2  -2.87337E+2
  -1.14735E+3  -4.35791E+2
  -4.10604E+2  -1.56208E+3
   1.82248E+3  -5.81729E+2
   1.26678E+3   9.13200E+2
  -4.04071E+2   5.74895E+2
  -7.87599E+2   6.09842E+1
  -5.18659E+2   8.65426E+2
  -1.37821E+3  -2.41372E+2
  -6.05099E+2  -1.86454E+3
   1.58751E+2  -1.60410E+3
   6.68910E+2   6.03167E+1
   6.00800E+2   2.65041E+2
   4.16819E+2   2.37811E+1
  -6.87498E+1   8.47875E+1
  -3.20917E+2   9.60584E+2
  -5.77935E+2   3.50536E+2
  -4.03830E+2  -1.07394E+3
   5.97208E+2  -1.15450E+3
   8.71469E+2   1.29470E+2
   2.31869E+2   8.08803E+2
  -2.02339E+2   2.98624E+2
   3.25510E+2   4.86217E+2
  -6.61517E+2   1.06592E+3
  -1.99553E+3   7.56292E+1
  -1.20732E+3  -1.43738E+3
   8.21070E+2  -1.13208E+3
   8.25291E+2  -2.95125E+2
   5.31701E+2  -2.44072E+2
   6.35743E+2   3.85958E+2
   6.88227E+2   8.68897E+2
  -4.04141E+2   2.94844E+2
  -1.40891E+2  -5.72889E+2
   5.81915E+2   5.80855E+2
   1.68121E+2   1.27296E+3
  -6.46412E+2   1.49039E+1
  -1.43366E+1  -8.33815E+2
   3.62011E+2   8.65697E+1
  -1.09464E+2   1.11082E+3
  -4.30094E+2   3.59252E+2
  -1.50674E+2  -7.67128E+2
  -1.73366E+1  -1.89341E+2
   7.93174E+1   2.57352E+2
   8.39006E+1  -2.35187E+2
   2.60620E+2  -3.77257E+2
   4.99408E+2  -5.32920E+1
   2.33697E+2   2.89477E+2
   3.77054E+2   5.97697E+2
   2.45358E+2   4.28032E+2
   3.33854E+2   2.18205E+2
   1.10736E+2   4.79445E+2
   3.16538E+1   4.17426E+2
  -5.38849E+1   6.71896E+2
  -3.66779E+1   3.71797E+2
  -4.55787E+2  -4.19681E+2
   3.37961E+2  -6.26241E+2
   7.53451E+2   2.67001E+2
   5.54433E+1   6.45305E+2
  -1.14551E+2   1.34912E+2
   3.27772E+2  -1.79309E+2
   7.34992E+2   2.22402E+2
  -1.31994E+2   8.93065E+2
  -6.90769E+2   1.58272E+2
   1.63474E+1  -1.18153E+2
   6.81084E+2  -6.40251E+1
   5.35981E+2  -7.59392E+1
   3.69240E+1   2.09140E+2
  -1.79284E+2   2.61009E+2
  -3.11786E+1   1.41690E+2
   4.13474E+2  -5.76332E+2
   8.68167E+2  -3.44636E+2
   4.89193E+2   5.97697E+2
   4.98341E+1   8.22458E+2
  -1.73801E+2   3.14649E+2
  -1.14248E+2  -2.95232E+1
   5.91360E+1  -1.24998E+1
  -4.57067E+2  -4.23441E+1
  -2.58366E+2  -3.22531E+2
   2.39167E+2  -7.06108E+2
   4.81739E+2  -5.06299E+2
   9.30681E+2   3.00052E+1
   4.26038E+2   5.42539E+2
   2.34567E+2   5.37947E+2
   4.10920E+1   2.80948E+2
  -3.25293E+2  -2.29143E+1
  -2.39009E+2  -2.48343E+2
   8.67331E+1  -4.97869E+2
   3.48082E+2  -2.53366E+2
   2.42223E+2  -1.52486E+2
   8.52517E+1   1.69314E+2
  -1.38650E+2   2.52922E+2
  -1.75111E+2   6.32245E+1
   1.16566E+2  -1.22333E+2
   2.28088E+2  -2.75444E+2
   5.49659E+1   8.32214E+1
   2.64466E+2  -2.83419E+2
   3.49303E+2  -1.24781E+2
   6.24648E+1  -5.85573E+1
   5.53870E+1   2.12544E+2
  -2.57727E+2   5.27148E+2
  -4.02038E+2  -1.64073E+2
  -2.78708E+2  -2.80296E+2
   2.76577E+2  -2.32256E+2
   4.65669E+2   1.94254E+2
   2.49144E+2   2.48304E+2
  -1.03676E+2   1.67571E+2
  -3.13957E+2   8.67875E+1
  -4.15038E+1  -2.50041E+2
  -1.43329E+2   6.44820E+1
  -2.27232E+2  -2.61712E+2
  -5.51503E+1  -3.94839E+2
   1.65148E+2  -2.60297E+1
   3.33269E+2  -1.32961E+1
   1.02341E+2   2.18338E+2
  -8.27086E+0   1.57299E+2
  -2.16388E+2   2.02619E+2
  -1.76974E+2   1.12511E+2
   7.54172E+1   2.24888E+2
  -2.39428E+2   3.17129E+1
  -1.00337E+2  -2.25693E+2
   9.64240E+1  -2.64820E+2
  -1.01871E+1   1.19856E+2
  -2.85718E+2   2.02852E+0
  -4.02827E+2  -2.20606E+2
   1.82900E+1  -4.27816E+1
   3.41690E+2  -1.27571E+1
   3.11325E+1   8.18015E+0
  -7.66654E+1   8.70252E+1
  -2.64430E+2  -3.52823E+1
  -2.37410E+2  -2.02236E+2
   2.25816E+1   1.54109E+2
  -6.83428E+1  -7.70959E+1
  -2.54470E+2  -7.37655E+1
   3.46803E+1   1.94029E+2
  -3.35798E+2   8.23974E+1
   1.69469E+2   5.01707E+1
  -1.69813E+2  -1.19854E+2
  -1.14217E+2   1.92752E+1
  -2.99996E+2  -3.08068E+2
   4.62142E+0   4.86176E+1
   2.04429E+2   1.03365E+2
  -1.10560E+2   2.09031E+2
  -7.40801E+1  -1.86006E+1
  -1.65424E+2   1.70030E+2
  -1.22330E+2  -1.46791E+1
   1.08403E+2  -1.31181E+2
  -7.71440E+1  -9.49422E+1
  -1.39705E+1  -1.66575E+1
  -7.23668E+1   6.59122E+1
   1.08201E+2   1.15717E+2
  -1.54323E+2   2.34914E+2
  -3.13216E+2   2.66194E+2
  -5.13639E+1  -1.89387E+2
  -1.29944E+2  -2.13639E+2
   1.92502E+2  -1.79579E+2
   1.93124E+2  -1.62438E+2
   1.34244E+2  -6.59946E+1
  -1.56680E+2  -5.90160E+1
  -1.29425E+2  -2.36831E+1
  -8.43748E+1   7.76098E+1
  -1.80503E+2  -1.04245E+2
  -6.56463E+1  -2.07341E+2
   6.92973E+0  -1.91293E+2
   3.46959E+2   1.20445E+2
   2.32119E+1  -1.26408E+2
   9.91064E+1   3.37977E+1
   2.03380E+1  -1.32570E+2
   7.35132E+0   3.13204E+1
  -1.44872E+2  -1.74049E+2
  -8.55510E+1  -1.91892E+2
   1.45046E+2  -3.33589E-1
  -2.64755E+1  -1.36337E+2
   1.44359E+2  -5.98831E+1
   1.90427E+2   2.99523E+2
  -1.57075E+2   4.96686E+1
  -1.22961E+2  -1.04764E+2
  -2.07439E+2  -7.05769E+1
   2.30090E+1  -2.38225E+2
   1.34278E+2  -1.08960E+2
   1.33234E+2   2.85061E+1
  -1.17856E+2  -1.88092E+2
   2.31797E+2   4.65843E+1
  -7.25381E+1   2.70768E+2
   4.85841E+1   1.17618E+1
  -1.40848E+2  -2.64636E+1
  -2.34135E+1  -7.40919E+1
   1.70606E+2  -1.67936E+2
  -1.15750E+1  -1.97329E+2
  -2.60524E+2   2.13551E+2
  -2.52757E+2   4.69475E+1
  -7.67718E+1  -7.32409E+1
   6.00667E+1  -2.63067E+1
   1.79320E+1  -2.10023E+2
  -7.22567E+1   1.44074E+2
  -1.02086E+2  -2.44202E+2
  -9.76826E+1  -9.18080E+1
  -4.42861E+1  -1.34494E+2
   3.10451E+1   1.02551E+2
   1.67883E+2  -7.05621E+1
   1.07300E+2   8.29568E+1
  -1.28104E+1  -1.66191E+2
   9.18416E+1  -6.82559E+1
   3.48891E+1  -1.54558E+2
  -1.52628E+2  -6.80019E+1
  -2.60633E+2  -1.42597E+2
  -1.83449E+2  -9.68077E+1
   1.91348E+2   5.48229E+1
  -4.90664E+1   9.78995E+1
  -2.38352E+1   9.68278E+1
  -1.75371E+1   1.18399E+2
  -2.50695E+1   4.33557E+1
   8.47004E+1   8.82161E+1
  -3.81874E+1  -4.13529E+0
   1.02519E+2  -7.57535E+1
   2.34798E+2   7.51302E+0
   3.99292E+2  -7.53860E+1
   1.14719E+2  -1.07563E+2
  -2.27315E+1   5.46446E+1
   1.75517E+2   6.50419E+1
  -1.00872E+2  -2.40468E+1
  -1.17542E+2  -1.65035E+2
  -4.06706E+1  -2.46538E+1
  -9.94117E+1  -8.06788E+1
  -3.69731E+1  -2.29967E+2
   2.16365E+2  -1.03688E+2
   1.11482E+2   1.19176E+2
  -1.68748E+2   1.82321E+2
  -1.79244E+2   9.71277E+1
  -6.92967E+1  -1.11407E+2
  -5.05794E+1  -3.75755E+1
  -2.10445E+2  -2.70385E+2
   8.96465E+1  -1.88542E+1
   1.03361E+2   1.12169E+2
   1.37101E+2   1.99668E+2
  -3.73903E+1   2.47466E+2
   8.70705E+1  -1.96953E+2
  -8.12154E+1  -1.65436E+2
   4.96013E+0  -5.40112E+0
  -5.07033E+1   2.76837E+1
   6.14357E+1   9.97730E+1
   2.17333E+2  -5.55569E+0
   7.25909E+1   8.91539E+1
   1.05095E+2   9.53674E+1
  -1.07896E+2   1.57137E+2
   8.27536E+1   6.64270E+1
  -1.96780E+2   6.40592E+1
   9.78280E+1  -2.04737E+2
   1.04450E+2  -1.97691E+2
   2.15448E+2   1.25173E+2
   2.42573E+1   4.36077E+1
   6.43144E+0   1.13131E+2
   1.47533E+2   3.05385E+1
  -5.97363E+1  -3.31414E+0
  -2.80217E+1   6.86253E+0
   6.12828E+1  -2.24201E+1
   7.75618E+1  -1.37472E+2
  -1.59092E+2  -1.13180E+2
   3.35381E+1   2.69672E+2
  -7.92178E+1   1.32764E+2
  -2.36086E+2   6.69814E+0
   8.23988E+1   1.63365E+2
   2.02649E+2   8.20421E+1
   3.69161E+1   7.41548E+1
  -1.31494E+2   1.80160E+2
  -3.63857E+1   5.58641E+1
   2.27419E+2   8.56192E+1
   1.66103E+2  -1.55966E+2
   3.09443E+1   1.62897E+2
   3.38306E+1   5.39755E+1
   7.37257E+1   1.23666E+2
  -1.41693E+2  -1.32291E+1
   5.05233E+1  -1.07340E+2
  -1.09713E+2   8.25524E+1
   5.00187E+1   3.04168E+1
   1.34966E+2  -3.48570E+1
   6.05926E+1  -1.85287E+2
   9.59690E+1  -1.05152E+2
  -5.45602E+1   7.13924E+1
   2.70837E+2  -9.97154E+1
   3.49427E+1  -1.72943E+2
   1.73125E+2  -7.88542E+1
  -7.32355E+0  -2.94359E+1
   8.22862E+1  -7.10204E+1
   1.29619E+2  -3.55910E+1
  -2.52409E+1   5.38865E+1
  -6.81517E+1  -6.73136E+1
  -1.25919E+2   6.17519E+0
   5.83086E+1   1.28515E+2
  -1.27186E+2  -1.74560E+1
   2.72977E+1  -1.30916E+2
   1.65877E+2  -2.48428E+2
  -1.15485E+2   1.29011E+1
   2.35026E+2   3.73203E+1
  -1.26550E+2   1.99821E+1
   3.47150E+2   1.32328E+1
  -1.47714E+2   2.89457E+1
  -3.01576E+2  -3.50181E+1
   2.21123E+1   1.86002E+2
   2.85029E+1  -9.14282E+1
   2.17997E+2   3.21390E+1
   1.74206E+2   6.95281E+1
   1.16774E+2   1.36557E+2
  -6.34463E+1   3.43261E+2
  -2.13162E+2   4.13526E+1
   1.30031E+2  -2.21275E+0
  -1.55655E+2  -1.58393E+2
   1.65919E+1   5.33997E+1
   1.32674E+2   2.90962E+1
   1.95224E+2  -2.52300E+2
   4.21325E+1   1.64150E+2
   1.15199E+2   2.67763E+1
  -9.80110E+1  -2.41653E+2
   2.62234E+1   5.85982E+1
  -2.06343E+2  -3.71186E+1
   2.33521E+2   1.98346E+2
  -1.24709E+2   1.25793E+2
   8.10000E+1  -2.81236E-1
   2.41999E+2   1.30990E+1
   4.50726E+1  -6.79379E+1
   6.17058E+0   7.37852E+1
   7.39611E+1   1.61806E+2
  -1.35513E+2   1.84789E+2
  -4.10725E+1  -8.75315E+1
   2.46768E+2   9.08580E+1
   5.55562E+1   1.10618E+2
  -1.53111E+1   9.20663E+1
  -1.02057E+2  -8.62509E+0
  -1.67239E+0   5.07059E+1
