 LCModel (Version 6.3-1N) Copyright: S.W. Provencher.          Ref.: Magn. Reson. Med. 30:672-679 (1993).                
 Slice_N1@19_14  28-Feb-2025 11:42:40
 27 lines in following concentration table = NCONC+1
    Conc.  %SD /Cr+PCr  Metabolite                                         
 2.29E-04   6% 1.8E-04 Mac                                                 
    4.135  38%   3.333 Cr                                                  
    5.790  27%   4.667 PCr                                                 
    6.652  15%   5.362 Ins                                                 
   11.038   9%   8.896 NAA                                                 
    6.814  15%   5.492 Tau                                                 
    2.412  16%   1.944 PCho                                                
    0.000 999%   0.000 GPC                                                 
    8.734  13%   7.039 Glu                                                 
    2.908  32%   2.344 Gln                                                 
    0.000 999%   0.000 Ala                                                 
    2.715  52%   2.188 Asc                                                 
    2.161  55%   1.742 Asp                                                 
    0.931  67%   0.751 GABA                                                
    0.410 201%   0.330 Glc                                                 
    1.927  29%   1.553 GSH                                                 
    3.634  22%   2.929 Lac                                                 
    1.976  36%   1.593 NAAG                                                
    1.271 106%   1.025 PE                                                  
    2.412  16%   1.944 GPC+PCho                                            
   13.014   7%  10.489 NAA+NAAG                                            
   11.642  13%   9.383 Glu+Gln                                             
    9.926   8%   8.000 Cr+PCr                                              
   13.014   7%  10.489 NAA+NAAG                                            
    9.926   8%   8.000 Cr+PCr                                              
   11.642  13%   9.383 Glu+Gln                                             
   6 lines in following misc. output table
  FWHM = 0.024 ppm    S/N =   3                                            
  Data shift = 0.016 ppm                                                   
  Ph:-129 deg       0.0 deg/ppm                                            
  alphaB,S = 1.7E-01,   4.0E-01                                            
   19 spline knots.   Ns = 5(1)                                            
   2 inflections.     1 extrema                                            
  480 points on ppm-axis = NY
      4.100000     4.091866     4.083733     4.075600     4.067466     4.059333     4.051199     4.043066     4.034933     4.026799
      4.018666     4.010532     4.002399     3.994265     3.986132     3.977998     3.969864     3.961731     3.953597     3.945463
      3.937330     3.929196     3.921062     3.912929     3.904795     3.896662     3.888528     3.880394     3.872261     3.864127
      3.855993     3.847860     3.839726     3.831592     3.823459     3.815325     3.807191     3.799058     3.790924     3.782790
      3.774657     3.766523     3.758389     3.750256     3.742122     3.733989     3.725855     3.717721     3.709588     3.701454
      3.693320     3.685187     3.677053     3.668919     3.660786     3.652652     3.644518     3.636385     3.628251     3.620117
      3.611984     3.603850     3.595716     3.587583     3.579449     3.571316     3.563182     3.555048     3.546915     3.538781
      3.530647     3.522514     3.514380     3.506246     3.498113     3.489979     3.481845     3.473712     3.465578     3.457444
      3.449311     3.441177     3.433043     3.424910     3.416776     3.408643     3.400509     3.392375     3.384242     3.376108
      3.367974     3.359841     3.351707     3.343573     3.335440     3.327306     3.319172     3.311039     3.302905     3.294771
      3.286638     3.278504     3.270370     3.262237     3.254103     3.245970     3.237836     3.229702     3.221569     3.213435
      3.205301     3.197168     3.189034     3.180900     3.172767     3.164633     3.156499     3.148366     3.140232     3.132098
      3.123965     3.115831     3.107697     3.099564     3.091430     3.083297     3.075163     3.067029     3.058896     3.050762
      3.042628     3.034495     3.026361     3.018227     3.010094     3.001960     2.993826     2.985693     2.977559     2.969425
      2.961292     2.953158     2.945024     2.936891     2.928757     2.920624     2.912490     2.904356     2.896223     2.888089
      2.879955     2.871822     2.863688     2.855554     2.847421     2.839287     2.831153     2.823020     2.814886     2.806752
      2.798619     2.790485     2.782351     2.774218     2.766084     2.757951     2.749817     2.741683     2.733550     2.725416
      2.717282     2.709149     2.701015     2.692881     2.684748     2.676614     2.668480     2.660347     2.652213     2.644079
      2.635946     2.627812     2.619678     2.611545     2.603411     2.595278     2.587144     2.579010     2.570877     2.562743
      2.554609     2.546476     2.538342     2.530208     2.522075     2.513941     2.505807     2.497674     2.489540     2.481406
      2.473273     2.465139     2.457006     2.448872     2.440738     2.432605     2.424471     2.416337     2.408204     2.400070
      2.391936     2.383803     2.375669     2.367535     2.359402     2.351268     2.343134     2.335001     2.326867     2.318733
      2.310600     2.302466     2.294333     2.286199     2.278065     2.269932     2.261798     2.253664     2.245531     2.237397
      2.229263     2.221130     2.212996     2.204862     2.196729     2.188595     2.180461     2.172328     2.164194     2.156060
      2.147927     2.139793     2.131660     2.123526     2.115392     2.107259     2.099125     2.090991     2.082858     2.074724
      2.066590     2.058457     2.050323     2.042189     2.034056     2.025922     2.017788     2.009655     2.001521     1.993387
      1.985254     1.977120     1.968987     1.960853     1.952719     1.944586     1.936452     1.928318     1.920185     1.912051
      1.903917     1.895784     1.887650     1.879516     1.871383     1.863249     1.855115     1.846982     1.838848     1.830714
      1.822581     1.814447     1.806314     1.798180     1.790046     1.781913     1.773779     1.765645     1.757512     1.749378
      1.741244     1.733111     1.724977     1.716843     1.708710     1.700576     1.692442     1.684309     1.676175     1.668041
      1.659908     1.651774     1.643641     1.635507     1.627373     1.619240     1.611106     1.602972     1.594839     1.586705
      1.578571     1.570438     1.562304     1.554170     1.546037     1.537903     1.529769     1.521636     1.513502     1.505368
      1.497235     1.489101     1.480968     1.472834     1.464700     1.456567     1.448433     1.440299     1.432166     1.424032
      1.415898     1.407765     1.399631     1.391497     1.383364     1.375230     1.367096     1.358963     1.350829     1.342695
      1.334562     1.326428     1.318295     1.310161     1.302027     1.293894     1.285760     1.277626     1.269493     1.261359
      1.253225     1.245092     1.236958     1.228824     1.220691     1.212557     1.204423     1.196290     1.188156     1.180022
      1.171889     1.163755     1.155622     1.147488     1.139354     1.131221     1.123087     1.114953     1.106820     1.098686
      1.090552     1.082419     1.074285     1.066151     1.058018     1.049884     1.041750     1.033617     1.025483     1.017349
      1.009216     1.001082     0.992949     0.984815     0.976681     0.968548     0.960414     0.952280     0.944147     0.936013
      0.927879     0.919746     0.911612     0.903478     0.895345     0.887211     0.879077     0.870944     0.862810     0.854676
      0.846543     0.838409     0.830276     0.822142     0.814008     0.805875     0.797741     0.789607     0.781474     0.773340
      0.765206     0.757073     0.748939     0.740805     0.732672     0.724538     0.716404     0.708271     0.700137     0.692003
      0.683870     0.675736     0.667603     0.659469     0.651335     0.643202     0.635068     0.626934     0.618801     0.610667
      0.602533     0.594400     0.586266     0.578132     0.569999     0.561865     0.553731     0.545598     0.537464     0.529330
      0.521197     0.513063     0.504930     0.496796     0.488662     0.480529     0.472395     0.464261     0.456128     0.447994
      0.439861     0.431727     0.423593     0.415460     0.407326     0.399192     0.391059     0.382925     0.374792     0.366658
      0.358524     0.350391     0.342257     0.334124     0.325990     0.317856     0.309723     0.301589     0.293455     0.285322
      0.277188     0.269055     0.260921     0.252787     0.244654     0.236520     0.228386     0.220253     0.212119     0.203986
 NY phased data points follow
   2.66213E+01  3.37369E+01  2.66639E+01  3.35286E+01  1.82391E+01  1.47466E+01  2.46083E+01  1.87872E+01  2.02732E+01  1.35116E+01
   2.43454E+01  8.21858E+00  2.20955E+00  8.34457E+00 -6.33865E-01 -2.21919E+00 -1.80292E+01 -1.08790E+01 -1.93634E+01 -2.78074E+01
  -3.95269E+01 -5.16212E+01 -1.97996E+01  5.50188E-01  1.12507E+01  3.94951E+01  6.89148E+01  5.90429E+01  4.89906E+01  5.03512E+01
   5.45849E+01  6.13315E+01  5.18525E+01  4.31653E+01  4.59310E+01  6.16355E+01  5.07007E+01  4.82424E+01  3.91807E+01  1.32153E+01
   9.12861E+00 -1.58229E+01 -2.16870E+01 -1.49542E-01  3.90826E+00  1.97385E+01  4.07902E+01  4.61885E+01  7.61238E+01  7.77540E+01
   6.47428E+01  8.37020E+01  7.47264E+01  7.29442E+01  7.23899E+01  5.46680E+01  3.58494E+01  2.31014E+01  2.77027E+01  2.27320E+01
   2.55924E+01  4.49556E+01  3.87645E+01  3.25544E+01  6.99842E+01  8.17163E+01  6.66903E+01  7.43281E+01  6.46798E+01  4.13894E+01
   2.10201E+01  1.24592E+01  2.78899E+01  3.35158E+01  4.03024E+01  5.95157E+01  6.90757E+01  7.39528E+01  7.67192E+01  8.32002E+01
   8.01441E+01  8.05399E+01  7.75169E+01  6.05988E+01  5.65719E+01  3.95800E+01  3.11023E+01  4.85662E+01  5.44842E+01  6.38201E+01
   8.12073E+01  8.65788E+01  1.06712E+02  1.12678E+02  1.07370E+02  1.10733E+02  9.66939E+01  1.20568E+02  1.36415E+02  1.18692E+02
   1.17962E+02  1.15977E+02  9.57260E+01  7.89171E+01  8.23004E+01  6.22730E+01  4.34336E+01  3.86220E+01  1.89452E+01 -2.54553E+00
  -3.02397E+01 -7.98804E+01 -9.40209E+01 -7.39367E+01 -6.97859E+01 -3.79943E+01 -1.79961E+01 -5.06328E+00  7.62812E+00  4.75902E+00
   2.24442E+01  2.34121E+01  2.56852E+01  4.30827E+01  4.85121E+01  4.93123E+01  7.37821E+01  8.88711E+01  9.46417E+01  1.24126E+02
   1.44593E+02  1.70176E+02  1.49370E+02  6.41257E+01 -7.99246E+00 -4.46700E+01 -5.16512E+01 -5.06652E+01 -4.91411E+01 -5.05007E+01
  -4.38317E+01 -2.68820E+01 -2.13999E+01 -2.57747E+01 -2.88556E+01 -2.89913E+01 -3.56280E+01 -3.36834E+01 -2.26748E+01 -1.88514E+01
  -2.27902E+01 -1.85942E+01 -1.34077E+01 -2.07411E+01 -1.08794E+01 -1.52047E+01 -5.99369E+00  2.67979E+00 -9.27006E+00  8.69048E+00
  -2.11148E+00  5.18221E+00  4.65933E+00 -3.61403E+00  7.89036E+00 -5.12494E+00  1.06249E+01  5.24779E+00  9.22877E+00  1.60663E+01
   1.64038E+01  4.21803E+01  3.64726E+01  3.85196E+01  5.31155E+01  4.41954E+01  3.12968E+01  4.36633E+01  5.09996E+01  4.73883E+01
   2.23315E+01  1.82116E+00 -4.34397E+00 -1.89785E+01 -2.67126E+01 -3.42554E+01 -9.47223E+00 -1.74581E+01 -1.78288E+01  2.03919E+00
  -8.73719E+00 -1.59854E-01  7.35953E+00  1.17069E+01  4.46111E+00  2.57868E+01  3.04489E+01  1.47239E+01  2.90533E+01  2.19250E+01
   1.12717E+01  1.70933E+01  3.26236E+01  3.43267E+01  3.53451E+01  3.33130E+01  2.42957E+01  1.28578E+01  2.19111E+00 -6.72875E+00
  -2.84725E+01 -3.20829E+01 -1.74486E+01 -1.65541E+01 -9.83888E+00  1.51173E+01  2.71644E+01  5.78239E+01  5.42911E+01  4.18882E+01
   5.02507E+01  1.64724E+01  1.34888E+01  1.85026E+01  1.62724E+01  1.73035E+01  3.01340E+01  3.04702E+01  1.58809E+01  3.07523E+01
   3.99542E+01  4.54424E+01  2.52337E+01  1.10107E+01  1.10117E+01  6.26152E+00 -1.56445E+01 -3.26541E+01 -1.82012E+01 -2.02511E+01
  -2.79655E+01 -1.58693E+01  1.76016E+00 -1.55143E+01 -3.85997E+00  4.18554E+00  1.81341E+00  1.54161E+01 -2.20362E-01  2.23125E+00
  -9.90264E+00 -2.03227E+01 -3.42010E+01 -3.02058E+01 -3.68574E+01 -6.74283E+01 -6.11280E+01 -6.12687E+01  2.87878E+01  1.50823E+02
   1.78642E+02  1.66219E+02  1.65535E+02  1.57899E+02  1.45516E+02  1.37294E+02  1.12514E+02  1.14834E+02  1.09217E+02  1.00357E+02
   1.06409E+02  1.09014E+02  1.13611E+02  1.04832E+02  1.08570E+02  1.08835E+02  9.80601E+01  1.02664E+02  1.06186E+02  1.09721E+02
   1.00381E+02  8.83405E+01  1.07470E+02  1.05312E+02  9.42754E+01  8.13038E+01  7.87358E+01  8.53369E+01  7.30082E+01  8.18586E+01
   7.04034E+01  7.38780E+01  7.72208E+01  6.60342E+01  5.45343E+01  4.28160E+01  4.49505E+01  3.20967E+01  3.99845E+01  8.55077E+00
   2.26697E+01  3.57569E+01  1.26677E+01  4.66896E+01  3.21120E+01  3.25158E+01  2.91305E+01  3.12427E+01  3.82599E+01  2.94725E+01
   5.08070E+01  4.90578E+01  5.86605E+01  5.70188E+01  5.15945E+01  6.08181E+01  5.68535E+01  4.01745E+01  4.20951E+01  3.72207E+01
   3.64977E+01  5.97985E+01  4.07263E+01  3.23147E+01  2.42046E+01  4.65073E+01  7.00232E+01  6.57541E+01  9.40002E+01  9.21311E+01
   1.01482E+02  1.09715E+02  9.17298E+01  8.23574E+01  8.20580E+01  9.18483E+01  9.63166E+01  9.54655E+01  9.68226E+01  9.80938E+01
   9.81662E+01  1.01984E+02  8.39243E+01  6.53137E+01  5.96436E+01  7.19287E+01  6.61758E+01  5.08072E+01  6.58609E+01  5.87247E+01
   6.60682E+01  6.24814E+01  5.13831E+01  4.42485E+01  2.98332E+01  4.43827E+01  2.26791E+01  1.85124E+01  2.42413E+01  6.20643E+00
   2.64428E+01  3.25748E+01  3.09443E+01  3.23533E+01  2.88320E+01  3.79176E+01  3.64188E+01  3.81855E+01  4.08178E+01  5.34952E+01
   6.30392E+01  5.35440E+01  6.93676E+01  7.58772E+01  7.35920E+01  8.60199E+01  9.25450E+01  9.22989E+01  8.92521E+01  8.85848E+01
   9.32416E+01  1.09444E+02  1.16332E+02  1.16864E+02  1.19109E+02  1.33965E+02  1.48942E+02  1.48087E+02  1.50330E+02  1.46408E+02
   1.39665E+02  1.35951E+02  1.38655E+02  1.10328E+02  9.17641E+01  1.01854E+02  8.60142E+01  8.07997E+01  7.18619E+01  6.29259E+01
   5.65536E+01  4.77877E+01  3.92505E+01  1.82633E+01  1.30264E+01  1.73463E+01  1.47222E+01 -2.30722E+00  4.74117E+00  1.70234E+01
   9.54163E+00  9.87167E+00 -1.22300E+00 -3.68899E+00  2.92494E+00  1.33922E+01  1.48729E+01  1.58644E+00  4.50294E+00 -5.98578E-02
   1.17986E+01  1.64425E+01 -4.55347E+00  8.02974E+00  8.74777E+00  1.50071E+01  1.97978E+01  2.41825E+00  1.61095E+01  4.90098E+00
  -1.01585E+01 -4.85479E+00 -1.22456E+01 -8.78264E+00 -7.22599E+00 -6.76172E+00  9.19064E-01 -4.03265E-01  3.99894E+00  2.06124E+00
  -1.30915E+01 -1.06142E+00  9.55743E+00  9.72649E+00  1.65183E+00 -3.25919E+00  1.18531E+01  5.93542E+00  3.93853E+00  7.06760E+00
   9.38550E+00  9.04160E+00  4.78630E+00  1.22174E+01  1.45046E+01  1.26838E+01  1.06659E+01  1.96225E+01  8.96969E+00  2.98865E+00
   7.13212E+00 -6.31602E+00 -3.04252E-01 -3.79264E+00 -3.10382E+00  7.26291E+00  4.00793E+00  2.78929E+00  2.19859E+00  4.59091E+00
   5.15292E+00  1.69684E+01  2.44616E+01 -1.58928E+00 -1.14115E+01  1.29285E+01  6.35277E+00  3.44462E+00  1.19543E+01  1.75517E-01
 NY points of the fit to the data follow
   1.00951E+01  1.01658E+01  8.09248E+00  5.11740E+00  2.91365E+00  4.00876E+00  1.32377E+01  2.42548E+01  2.83031E+01  2.37763E+01
   1.70795E+01  1.17327E+01  7.65762E+00  5.44342E+00  5.34111E+00  4.45788E+00 -1.08497E+00 -2.73831E+00 -1.10986E+01 -2.58430E+01
  -3.41957E+01 -4.12504E+01 -2.46018E+01  4.74369E+00  1.96898E+01  4.52005E+01  6.51697E+01  6.71157E+01  6.95054E+01  6.98705E+01
   6.99600E+01  6.88338E+01  6.68946E+01  6.48648E+01  6.22206E+01  5.96645E+01  5.45701E+01  4.95109E+01  4.16429E+01  2.72444E+01
   1.03942E+01 -6.25368E+00 -1.11072E+01 -1.47940E+00  1.06845E+01  2.45201E+01  3.96832E+01  5.36069E+01  6.35734E+01  6.94949E+01
   7.32451E+01  7.37029E+01  7.15564E+01  6.84195E+01  6.15351E+01  4.81020E+01  3.86741E+01  2.99232E+01  2.48015E+01  2.64452E+01
   2.25632E+01  2.92480E+01  4.04655E+01  4.22712E+01  5.44675E+01  6.67880E+01  7.13712E+01  7.25994E+01  6.27830E+01  4.73733E+01
   3.02907E+01  2.29505E+01  3.06930E+01  3.60490E+01  4.19647E+01  5.60735E+01  6.85482E+01  7.53636E+01  8.24191E+01  8.33221E+01
   8.40250E+01  7.79424E+01  6.43622E+01  4.99555E+01  3.34733E+01  2.34949E+01  2.65387E+01  3.26909E+01  4.71217E+01  5.88326E+01
   6.73585E+01  7.41904E+01  7.94494E+01  8.40737E+01  8.88942E+01  9.21979E+01  9.62293E+01  1.00789E+02  1.03308E+02  1.04991E+02
   1.08320E+02  1.05899E+02  1.07041E+02  9.53645E+01  8.16186E+01  7.10968E+01  5.33914E+01  4.81845E+01  4.34207E+01  1.72757E+01
  -2.96703E+01 -8.72991E+01 -9.55616E+01 -7.08403E+01 -5.12025E+01 -3.14424E+01 -1.72738E+01 -6.23655E+00  3.08501E+00  1.12387E+01
   1.85702E+01  2.58153E+01  3.32045E+01  4.13865E+01  5.02587E+01  5.95119E+01  7.04835E+01  9.14502E+01  1.04225E+02  1.24402E+02
   1.50987E+02  1.61968E+02  1.46330E+02  7.30911E+01 -1.74541E+01 -4.76252E+01 -5.10911E+01 -4.82959E+01 -4.14188E+01 -3.63107E+01
  -3.30991E+01 -3.09697E+01 -3.01355E+01 -3.03847E+01 -3.03261E+01 -2.97318E+01 -2.88720E+01 -2.68255E+01 -2.40987E+01 -2.13619E+01
  -1.90062E+01 -1.69686E+01 -1.48640E+01 -1.28618E+01 -1.04525E+01 -7.74320E+00 -5.18739E+00 -3.32494E+00 -2.59793E+00 -2.25830E+00
  -8.44423E-01  1.33337E+00  3.31191E+00  3.47696E+00  1.83826E+00  8.83425E-01  1.24193E+00  2.50117E+00  3.31478E+00  3.89152E+00
   7.82163E+00  1.66515E+01  2.83913E+01  3.57959E+01  3.39076E+01  2.86115E+01  3.10543E+01  3.85732E+01  4.06930E+01  3.31767E+01
   1.98128E+01  9.16811E+00  3.29972E+00 -1.86260E+00 -4.44010E+00 -5.82879E+00 -6.62777E+00 -5.79642E+00 -5.98348E+00 -5.82991E+00
  -2.38588E+00 -1.44458E+00  1.92373E+00  7.43983E+00  1.17168E+01  2.32107E+01  2.64604E+01  2.37105E+01  3.03697E+01  3.26509E+01
   3.24355E+01  3.17544E+01  2.93851E+01  3.27981E+01  3.24861E+01  2.72680E+01  2.19324E+01  1.60431E+01  9.31331E+00  3.33795E+00
  -3.53588E+00 -8.08491E+00 -8.87391E+00 -9.78891E+00  1.99732E+00  1.62810E+01  3.23504E+01  5.31274E+01  5.96333E+01  6.20391E+01
   6.15656E+01  5.09263E+01  4.74351E+01  4.53758E+01  4.52920E+01  4.60829E+01  4.39752E+01  4.01158E+01  3.37093E+01  2.54181E+01
   1.60604E+01  5.95169E+00 -3.26570E+00 -1.30359E+01 -2.09525E+01 -2.69602E+01 -3.29884E+01 -3.43281E+01 -3.38242E+01 -3.30906E+01
  -2.63691E+01 -2.24568E+01 -1.80283E+01 -9.93583E+00 -5.76421E+00 -1.31464E+00  2.90311E+00  9.94794E-01 -4.28498E-01 -6.40207E+00
  -1.09071E+01 -1.55746E+01 -3.71636E+01 -3.73940E+01 -4.86563E+01 -6.43484E+01 -7.14487E+01 -6.63449E+01  1.95999E+01  1.22810E+02
   1.45376E+02  1.51792E+02  1.43759E+02  1.33824E+02  1.26361E+02  1.19994E+02  1.14608E+02  1.09093E+02  1.04048E+02  1.00046E+02
   9.63208E+01  9.44148E+01  9.34227E+01  9.28316E+01  9.36330E+01  9.38318E+01  9.40917E+01  9.42997E+01  9.38495E+01  9.33737E+01
   9.21492E+01  9.05918E+01  8.88790E+01  8.70773E+01  8.54365E+01  8.34917E+01  8.14305E+01  7.95374E+01  7.72687E+01  7.47627E+01
   7.19417E+01  6.86978E+01  6.55159E+01  6.24183E+01  5.96537E+01  5.79109E+01  5.72860E+01  5.78256E+01  5.91653E+01  6.09744E+01
   6.28724E+01  6.50025E+01  6.72820E+01  6.94695E+01  7.15027E+01  7.33405E+01  7.51697E+01  7.70083E+01  7.90568E+01  8.13581E+01
   8.34007E+01  8.51176E+01  8.67151E+01  8.80960E+01  8.94459E+01  9.04131E+01  9.09189E+01  9.10147E+01  9.06199E+01  8.95196E+01
   8.79595E+01  8.63630E+01  8.42442E+01  8.16519E+01  7.89032E+01  7.54632E+01  7.11711E+01  6.56299E+01  5.89007E+01  5.19625E+01
   4.56871E+01  4.04958E+01  3.67572E+01  3.51999E+01  3.58975E+01  3.87886E+01  4.41563E+01  5.05308E+01  5.60272E+01  6.45831E+01
   6.76578E+01  6.85599E+01  6.14486E+01  4.51827E+01  3.32325E+01  2.43031E+01  2.07839E+01  2.91453E+01  3.42014E+01  3.90265E+01
   4.16153E+01  4.23983E+01  4.16450E+01  3.98393E+01  3.72008E+01  3.45317E+01  3.28768E+01  3.22634E+01  3.24889E+01  3.39217E+01
   3.58676E+01  3.84329E+01  4.14169E+01  4.44047E+01  4.75850E+01  5.05041E+01  5.30796E+01  5.56993E+01  5.80600E+01  6.05822E+01
   6.30934E+01  6.55597E+01  6.79401E+01  7.05346E+01  7.34436E+01  7.67063E+01  8.03920E+01  8.43356E+01  8.86671E+01  9.37674E+01
   9.90844E+01  1.04648E+02  1.10597E+02  1.17065E+02  1.22989E+02  1.27880E+02  1.30783E+02  1.30742E+02  1.27318E+02  1.20696E+02
   1.12192E+02  1.03564E+02  9.56973E+01  8.89744E+01  8.30146E+01  7.74765E+01  7.16213E+01  6.47309E+01  5.72523E+01  4.96920E+01
   4.25049E+01  3.61758E+01  3.12546E+01  2.73895E+01  2.43774E+01  2.20529E+01  2.04734E+01  1.91312E+01  1.79839E+01  1.67904E+01
   1.57640E+01  1.49672E+01  1.44903E+01  1.41599E+01  1.37721E+01  1.34177E+01  1.32249E+01  1.29907E+01  1.26169E+01  1.22121E+01
   1.21520E+01  1.21918E+01  1.18776E+01  1.15249E+01  1.13731E+01  1.11817E+01  1.08946E+01  1.05832E+01  1.04526E+01  1.05334E+01
   1.04870E+01  1.03254E+01  9.97061E+00  9.57392E+00  9.28294E+00  9.04833E+00  8.98956E+00  9.02323E+00  8.95025E+00  8.89928E+00
   8.75473E+00  8.57084E+00  8.39183E+00  8.20497E+00  7.77720E+00  7.44348E+00  7.22924E+00  7.01078E+00  7.03853E+00  6.87993E+00
   6.71369E+00  6.53647E+00  6.23925E+00  6.07250E+00  6.10050E+00  6.01867E+00  5.99460E+00  5.88390E+00  5.74077E+00  5.62717E+00
   5.52981E+00  5.34162E+00  5.10326E+00  4.67535E+00  4.48763E+00  4.27526E+00  4.20722E+00  4.27457E+00  4.47780E+00  4.60578E+00
   4.46390E+00  4.04815E+00  3.65024E+00  3.32268E+00  3.23076E+00  3.11837E+00  3.07995E+00  2.94709E+00  2.88922E+00  2.61890E+00
 NY background values follow
     3.496E+01    3.500E+01    3.503E+01    3.507E+01    3.511E+01    3.515E+01    3.519E+01    3.523E+01    3.528E+01    3.532E+01
     3.536E+01    3.540E+01    3.545E+01    3.549E+01    3.554E+01    3.559E+01    3.564E+01    3.569E+01    3.574E+01    3.579E+01
     3.585E+01    3.590E+01    3.596E+01    3.602E+01    3.608E+01    3.614E+01    3.621E+01    3.627E+01    3.634E+01    3.642E+01
     3.649E+01    3.656E+01    3.664E+01    3.672E+01    3.680E+01    3.689E+01    3.697E+01    3.706E+01    3.715E+01    3.724E+01
     3.733E+01    3.742E+01    3.751E+01    3.761E+01    3.770E+01    3.779E+01    3.789E+01    3.799E+01    3.808E+01    3.818E+01
     3.827E+01    3.837E+01    3.846E+01    3.856E+01    3.865E+01    3.875E+01    3.884E+01    3.893E+01    3.902E+01    3.911E+01
     3.920E+01    3.929E+01    3.937E+01    3.946E+01    3.954E+01    3.962E+01    3.970E+01    3.977E+01    3.985E+01    3.992E+01
     3.999E+01    4.006E+01    4.012E+01    4.019E+01    4.025E+01    4.030E+01    4.036E+01    4.041E+01    4.046E+01    4.050E+01
     4.054E+01    4.058E+01    4.061E+01    4.065E+01    4.067E+01    4.070E+01    4.072E+01    4.073E+01    4.074E+01    4.075E+01
     4.075E+01    4.075E+01    4.075E+01    4.074E+01    4.072E+01    4.071E+01    4.069E+01    4.066E+01    4.063E+01    4.060E+01
     4.057E+01    4.053E+01    4.049E+01    4.044E+01    4.040E+01    4.035E+01    4.030E+01    4.024E+01    4.018E+01    4.012E+01
     4.006E+01    4.000E+01    3.994E+01    3.987E+01    3.980E+01    3.973E+01    3.966E+01    3.959E+01    3.951E+01    3.944E+01
     3.936E+01    3.928E+01    3.921E+01    3.913E+01    3.905E+01    3.897E+01    3.889E+01    3.881E+01    3.873E+01    3.864E+01
     3.856E+01    3.848E+01    3.839E+01    3.831E+01    3.822E+01    3.814E+01    3.805E+01    3.796E+01    3.787E+01    3.779E+01
     3.770E+01    3.761E+01    3.752E+01    3.743E+01    3.734E+01    3.725E+01    3.716E+01    3.707E+01    3.698E+01    3.689E+01
     3.680E+01    3.671E+01    3.662E+01    3.653E+01    3.644E+01    3.635E+01    3.626E+01    3.617E+01    3.608E+01    3.599E+01
     3.590E+01    3.581E+01    3.573E+01    3.564E+01    3.555E+01    3.546E+01    3.537E+01    3.529E+01    3.520E+01    3.512E+01
     3.503E+01    3.495E+01    3.487E+01    3.479E+01    3.471E+01    3.463E+01    3.455E+01    3.447E+01    3.439E+01    3.431E+01
     3.424E+01    3.417E+01    3.409E+01    3.402E+01    3.395E+01    3.388E+01    3.382E+01    3.375E+01    3.369E+01    3.363E+01
     3.357E+01    3.351E+01    3.345E+01    3.340E+01    3.335E+01    3.330E+01    3.325E+01    3.321E+01    3.317E+01    3.313E+01
     3.309E+01    3.305E+01    3.302E+01    3.299E+01    3.297E+01    3.295E+01    3.293E+01    3.291E+01    3.290E+01    3.289E+01
     3.288E+01    3.288E+01    3.288E+01    3.288E+01    3.288E+01    3.289E+01    3.290E+01    3.292E+01    3.293E+01    3.295E+01
     3.296E+01    3.298E+01    3.301E+01    3.303E+01    3.305E+01    3.307E+01    3.310E+01    3.312E+01    3.315E+01    3.317E+01
     3.320E+01    3.322E+01    3.324E+01    3.326E+01    3.329E+01    3.331E+01    3.333E+01    3.334E+01    3.336E+01    3.337E+01
     3.338E+01    3.339E+01    3.340E+01    3.341E+01    3.341E+01    3.341E+01    3.341E+01    3.340E+01    3.339E+01    3.338E+01
     3.337E+01    3.336E+01    3.334E+01    3.332E+01    3.330E+01    3.328E+01    3.325E+01    3.322E+01    3.319E+01    3.315E+01
     3.311E+01    3.307E+01    3.303E+01    3.298E+01    3.293E+01    3.288E+01    3.282E+01    3.277E+01    3.270E+01    3.264E+01
     3.257E+01    3.250E+01    3.243E+01    3.236E+01    3.228E+01    3.220E+01    3.213E+01    3.205E+01    3.197E+01    3.189E+01
     3.182E+01    3.174E+01    3.167E+01    3.160E+01    3.153E+01    3.147E+01    3.141E+01    3.135E+01    3.130E+01    3.125E+01
     3.121E+01    3.118E+01    3.115E+01    3.112E+01    3.111E+01    3.110E+01    3.110E+01    3.110E+01    3.112E+01    3.115E+01
     3.118E+01    3.123E+01    3.128E+01    3.134E+01    3.141E+01    3.149E+01    3.158E+01    3.167E+01    3.177E+01    3.188E+01
     3.199E+01    3.211E+01    3.223E+01    3.236E+01    3.249E+01    3.263E+01    3.277E+01    3.291E+01    3.306E+01    3.321E+01
     3.336E+01    3.351E+01    3.366E+01    3.381E+01    3.397E+01    3.412E+01    3.427E+01    3.442E+01    3.458E+01    3.472E+01
     3.487E+01    3.502E+01    3.516E+01    3.530E+01    3.543E+01    3.557E+01    3.570E+01    3.582E+01    3.595E+01    3.607E+01
     3.618E+01    3.629E+01    3.640E+01    3.650E+01    3.659E+01    3.668E+01    3.677E+01    3.685E+01    3.692E+01    3.699E+01
     3.705E+01    3.711E+01    3.716E+01    3.720E+01    3.724E+01    3.726E+01    3.728E+01    3.730E+01    3.730E+01    3.730E+01
     3.729E+01    3.727E+01    3.724E+01    3.721E+01    3.717E+01    3.711E+01    3.705E+01    3.699E+01    3.691E+01    3.683E+01
     3.674E+01    3.664E+01    3.653E+01    3.641E+01    3.629E+01    3.616E+01    3.602E+01    3.588E+01    3.572E+01    3.556E+01
     3.539E+01    3.522E+01    3.503E+01    3.484E+01    3.464E+01    3.443E+01    3.422E+01    3.400E+01    3.377E+01    3.353E+01
     3.329E+01    3.304E+01    3.278E+01    3.252E+01    3.225E+01    3.197E+01    3.169E+01    3.140E+01    3.110E+01    3.080E+01
     3.050E+01    3.019E+01    2.988E+01    2.956E+01    2.923E+01    2.891E+01    2.858E+01    2.824E+01    2.790E+01    2.756E+01
     2.722E+01    2.687E+01    2.652E+01    2.617E+01    2.582E+01    2.547E+01    2.511E+01    2.475E+01    2.439E+01    2.403E+01
     2.367E+01    2.331E+01    2.295E+01    2.259E+01    2.222E+01    2.186E+01    2.150E+01    2.113E+01    2.077E+01    2.040E+01
     2.004E+01    1.968E+01    1.931E+01    1.895E+01    1.858E+01    1.822E+01    1.786E+01    1.749E+01    1.713E+01    1.677E+01
     1.641E+01    1.604E+01    1.568E+01    1.532E+01    1.496E+01    1.461E+01    1.425E+01    1.389E+01    1.353E+01    1.318E+01
     1.283E+01    1.247E+01    1.212E+01    1.177E+01    1.142E+01    1.107E+01    1.072E+01    1.037E+01    1.003E+01    9.680E+00
     9.334E+00    8.989E+00    8.644E+00    8.300E+00    7.956E+00    7.613E+00    7.270E+00    6.927E+00    6.585E+00    6.242E+00
     5.900E+00    5.558E+00    5.216E+00    4.874E+00    4.532E+00    4.190E+00    3.848E+00    3.506E+00    3.163E+00    2.820E+00
 Mac      Conc. = 2.29E-04
   1.89399E+01  1.85375E+01  1.83772E+01  1.81944E+01  1.79032E+01  1.72603E+01  1.63571E+01  1.50006E+01  1.36184E+01  1.24552E+01
   1.16982E+01  1.14322E+01  1.12086E+01  1.09084E+01  1.04098E+01  9.09419E+00  8.00495E+00  8.13061E+00  1.01748E+01  1.39125E+01
   1.72347E+01  2.00516E+01  2.29048E+01  2.49216E+01  2.61712E+01  2.71701E+01  2.83027E+01  2.96898E+01  3.12150E+01  3.29031E+01
   3.43674E+01  3.54119E+01  3.61591E+01  3.67370E+01  3.68918E+01  3.68109E+01  3.70199E+01  3.80292E+01  3.98364E+01  4.15775E+01
   4.26125E+01  4.26781E+01  4.27858E+01  4.34416E+01  4.44510E+01  4.55699E+01  4.61934E+01  4.62379E+01  4.58178E+01  4.50413E+01
   4.41130E+01  4.30822E+01  4.24220E+01  4.18946E+01  4.14523E+01  4.13408E+01  4.15330E+01  4.22019E+01  4.32610E+01  4.44690E+01
   4.54288E+01  4.65206E+01  4.74783E+01  4.76499E+01  4.73114E+01  4.66928E+01  4.59984E+01  4.56786E+01  4.54194E+01  4.53189E+01
   4.58024E+01  4.71062E+01  4.92232E+01  5.10346E+01  5.21369E+01  5.28904E+01  5.29456E+01  5.25636E+01  5.20494E+01  5.13472E+01
   5.09218E+01  5.06178E+01  5.03787E+01  5.05177E+01  5.09865E+01  5.16489E+01  5.23072E+01  5.28946E+01  5.34817E+01  5.40195E+01
   5.43537E+01  5.47340E+01  5.49800E+01  5.49487E+01  5.46557E+01  5.38165E+01  5.23209E+01  5.04107E+01  4.84132E+01  4.65333E+01
   4.49341E+01  4.34985E+01  4.15699E+01  3.90679E+01  3.60335E+01  3.19258E+01  2.70105E+01  2.17141E+01  1.74248E+01  1.52663E+01
