 LCModel (Version 6.3-1N) Copyright: S.W. Provencher.          Ref.: Magn. Reson. Med. 30:672-679 (1993).                
 Slice_N1@11_18  28-Feb-2025 11:40:11
 27 lines in following concentration table = NCONC+1
    Conc.  %SD /Cr+PCr  Metabolite                                         
 1.61E-04  11% 1.5E-04 Mac                                                 
    3.895  39%   3.571 Cr                                                  
    4.832  31%   4.429 PCr                                                 
    6.688  19%   6.131 Ins                                                 
    9.445  12%   8.659 NAA                                                 
    7.224  18%   6.623 Tau                                                 
    0.000 999%   0.000 PCho                                                
    2.405  19%   2.205 GPC                                                 
    9.349  16%   8.571 Glu                                                 
    3.740  32%   3.428 Gln                                                 
    0.000 999%   0.000 Ala                                                 
    2.597  67%   2.381 Asc                                                 
    2.005  76%   1.838 Asp                                                 
    1.542  52%   1.414 GABA                                                
    0.867 125%   0.794 Glc                                                 
    2.600  28%   2.383 GSH                                                 
    0.000 999%   0.000 Lac                                                 
    1.419  55%   1.300 NAAG                                                
    1.063 148%   0.974 PE                                                  
    2.405  19%   2.205 GPC+PCho                                            
   10.864  11%   9.959 NAA+NAAG                                            
   13.089  15%  11.999 Glu+Gln                                             
    8.726  12%   8.000 Cr+PCr                                              
   10.864  11%   9.959 NAA+NAAG                                            
    8.726  12%   8.000 Cr+PCr                                              
   13.089  15%  11.999 Glu+Gln                                             
   6 lines in following misc. output table
  FWHM = 0.024 ppm    S/N =   3                                            
  Data shift = 0.024 ppm                                                   
  Ph:-119 deg       0.0 deg/ppm                                            
  alphaB,S = 1.5E-01,   3.2E+00                                            
   19 spline knots.   Ns = 5(1)                                            
  ( 5) 2 infls.   ( 4) 2 extrs.                                            
  480 points on ppm-axis = NY
      4.100000     4.091866     4.083733     4.075600     4.067466     4.059333     4.051199     4.043066     4.034933     4.026799
      4.018666     4.010532     4.002399     3.994265     3.986132     3.977998     3.969864     3.961731     3.953597     3.945463
      3.937330     3.929196     3.921062     3.912929     3.904795     3.896662     3.888528     3.880394     3.872261     3.864127
      3.855993     3.847860     3.839726     3.831592     3.823459     3.815325     3.807191     3.799058     3.790924     3.782790
      3.774657     3.766523     3.758389     3.750256     3.742122     3.733989     3.725855     3.717721     3.709588     3.701454
      3.693320     3.685187     3.677053     3.668919     3.660786     3.652652     3.644518     3.636385     3.628251     3.620117
      3.611984     3.603850     3.595716     3.587583     3.579449     3.571316     3.563182     3.555048     3.546915     3.538781
      3.530647     3.522514     3.514380     3.506246     3.498113     3.489979     3.481845     3.473712     3.465578     3.457444
      3.449311     3.441177     3.433043     3.424910     3.416776     3.408643     3.400509     3.392375     3.384242     3.376108
      3.367974     3.359841     3.351707     3.343573     3.335440     3.327306     3.319172     3.311039     3.302905     3.294771
      3.286638     3.278504     3.270370     3.262237     3.254103     3.245970     3.237836     3.229702     3.221569     3.213435
      3.205301     3.197168     3.189034     3.180900     3.172767     3.164633     3.156499     3.148366     3.140232     3.132098
      3.123965     3.115831     3.107697     3.099564     3.091430     3.083297     3.075163     3.067029     3.058896     3.050762
      3.042628     3.034495     3.026361     3.018227     3.010094     3.001960     2.993826     2.985693     2.977559     2.969425
      2.961292     2.953158     2.945024     2.936891     2.928757     2.920624     2.912490     2.904356     2.896223     2.888089
      2.879955     2.871822     2.863688     2.855554     2.847421     2.839287     2.831153     2.823020     2.814886     2.806752
      2.798619     2.790485     2.782351     2.774218     2.766084     2.757951     2.749817     2.741683     2.733550     2.725416
      2.717282     2.709149     2.701015     2.692881     2.684748     2.676614     2.668480     2.660347     2.652213     2.644079
      2.635946     2.627812     2.619678     2.611545     2.603411     2.595278     2.587144     2.579010     2.570877     2.562743
      2.554609     2.546476     2.538342     2.530208     2.522075     2.513941     2.505807     2.497674     2.489540     2.481406
      2.473273     2.465139     2.457006     2.448872     2.440738     2.432605     2.424471     2.416337     2.408204     2.400070
      2.391936     2.383803     2.375669     2.367535     2.359402     2.351268     2.343134     2.335001     2.326867     2.318733
      2.310600     2.302466     2.294333     2.286199     2.278065     2.269932     2.261798     2.253664     2.245531     2.237397
      2.229263     2.221130     2.212996     2.204862     2.196729     2.188595     2.180461     2.172328     2.164194     2.156060
      2.147927     2.139793     2.131660     2.123526     2.115392     2.107259     2.099125     2.090991     2.082858     2.074724
      2.066590     2.058457     2.050323     2.042189     2.034056     2.025922     2.017788     2.009655     2.001521     1.993387
      1.985254     1.977120     1.968987     1.960853     1.952719     1.944586     1.936452     1.928318     1.920185     1.912051
      1.903917     1.895784     1.887650     1.879516     1.871383     1.863249     1.855115     1.846982     1.838848     1.830714
      1.822581     1.814447     1.806314     1.798180     1.790046     1.781913     1.773779     1.765645     1.757512     1.749378
      1.741244     1.733111     1.724977     1.716843     1.708710     1.700576     1.692442     1.684309     1.676175     1.668041
      1.659908     1.651774     1.643641     1.635507     1.627373     1.619240     1.611106     1.602972     1.594839     1.586705
      1.578571     1.570438     1.562304     1.554170     1.546037     1.537903     1.529769     1.521636     1.513502     1.505368
      1.497235     1.489101     1.480968     1.472834     1.464700     1.456567     1.448433     1.440299     1.432166     1.424032
      1.415898     1.407765     1.399631     1.391497     1.383364     1.375230     1.367096     1.358963     1.350829     1.342695
      1.334562     1.326428     1.318295     1.310161     1.302027     1.293894     1.285760     1.277626     1.269493     1.261359
      1.253225     1.245092     1.236958     1.228824     1.220691     1.212557     1.204423     1.196290     1.188156     1.180022
      1.171889     1.163755     1.155622     1.147488     1.139354     1.131221     1.123087     1.114953     1.106820     1.098686
      1.090552     1.082419     1.074285     1.066151     1.058018     1.049884     1.041750     1.033617     1.025483     1.017349
      1.009216     1.001082     0.992949     0.984815     0.976681     0.968548     0.960414     0.952280     0.944147     0.936013
      0.927879     0.919746     0.911612     0.903478     0.895345     0.887211     0.879077     0.870944     0.862810     0.854676
      0.846543     0.838409     0.830276     0.822142     0.814008     0.805875     0.797741     0.789607     0.781474     0.773340
      0.765206     0.757073     0.748939     0.740805     0.732672     0.724538     0.716404     0.708271     0.700137     0.692003
      0.683870     0.675736     0.667603     0.659469     0.651335     0.643202     0.635068     0.626934     0.618801     0.610667
      0.602533     0.594400     0.586266     0.578132     0.569999     0.561865     0.553731     0.545598     0.537464     0.529330
      0.521197     0.513063     0.504930     0.496796     0.488662     0.480529     0.472395     0.464261     0.456128     0.447994
      0.439861     0.431727     0.423593     0.415460     0.407326     0.399192     0.391059     0.382925     0.374792     0.366658
      0.358524     0.350391     0.342257     0.334124     0.325990     0.317856     0.309723     0.301589     0.293455     0.285322
      0.277188     0.269055     0.260921     0.252787     0.244654     0.236520     0.228386     0.220253     0.212119     0.203986
 NY phased data points follow
   1.04475E+01  1.61415E+01  2.05793E+01  8.53513E+00  4.27750E-01  4.83392E+00  2.93536E+01  1.71393E+01  1.49796E+01  6.34550E+00
   2.45952E+01  3.59944E+00 -2.95278E+01 -6.66660E+00 -1.37263E+01 -7.05965E-01 -8.37982E+00 -1.87163E+01 -2.04515E+01 -3.85432E+01
  -5.98651E+01 -6.18491E+01 -2.73292E+01 -3.15393E+01 -2.17635E+01  2.72590E+00  1.75089E+01  3.36491E+01  3.57123E+01  3.97988E+01
   3.25630E+01  3.46856E+01  4.02622E+01  3.71006E+01  5.29999E+01  5.47880E+01  3.91463E+01  4.65017E+01  3.36742E+01  2.02608E+00
  -1.99872E+01 -2.84309E+01 -2.88830E+01 -2.80429E+01 -1.53637E+01 -9.82163E+00  2.03252E+01  4.08478E+01  5.57848E+01  7.79294E+01
   6.75086E+01  6.17763E+01  6.11666E+01  6.12925E+01  3.68755E+01  1.88588E+01  2.58025E+01  2.31340E+01  3.06542E+00 -5.86413E+00
   1.78257E+01  1.79199E+01  2.17968E+01  2.69857E+01  4.19451E+01  7.39831E+01  8.48067E+01  8.01075E+01  4.83937E+01  1.51041E+01
  -1.32925E+01 -3.25010E+00  1.87800E+01  2.37352E+01  4.01277E+01  4.39535E+01  6.06916E+01  7.73408E+01  8.51307E+01  7.43434E+01
   6.59545E+01  8.33752E+01  6.50552E+01  4.03177E+01  2.08096E+01  1.17957E+01  1.18809E+01 -8.36596E-02  2.78700E+01  4.52409E+01
   5.56542E+01  8.33562E+01  7.80506E+01  8.14873E+01  9.11850E+01  9.25148E+01  8.16187E+01  8.99669E+01  1.20089E+02  1.03029E+02
   1.00267E+02  1.06766E+02  8.91498E+01  7.94990E+01  7.80971E+01  7.17775E+01  4.76938E+01  5.88365E+01  6.02344E+01  3.73037E+00
  -6.57256E+01 -1.18094E+02 -1.13791E+02 -8.93165E+01 -5.77463E+01 -3.24293E+01 -3.05862E+01 -1.50018E+01 -1.86728E+00  1.66973E+01
   1.64757E+01  6.54869E+00  3.04704E+01  2.71198E+01  1.81494E+01  3.14128E+01  5.15239E+01  7.29928E+01  8.24505E+01  1.13550E+02
   1.59531E+02  1.97084E+02  1.50205E+02  3.93658E+01 -5.89974E+00 -2.79451E+01 -3.32250E+01 -2.50549E+01 -2.81227E+01 -1.62124E+01
  -1.44686E+01 -1.33891E+01 -2.52901E+01 -3.03833E+01 -2.15891E+01 -3.51262E+01 -3.47376E+01 -3.03387E+01 -2.85025E+01 -1.65496E+01
  -2.68072E+01 -2.67075E+01 -1.58809E+01 -3.08659E+01 -1.81228E+01 -1.20932E+01 -1.83682E+01 -8.46405E+00 -1.40512E+01 -1.59837E+01
  -1.59992E+01  4.69702E-01 -3.07526E+00 -2.05516E+01 -8.64489E+00 -4.99390E+00 -4.82484E+00 -5.31273E+00 -1.34272E+01 -9.17548E+00
  -8.16125E+00 -1.67816E+01  2.97608E+01  4.33493E+01  2.85648E+01  3.35446E+01 -1.11121E+00  1.54058E+01  3.28742E+01  2.33429E+01
   2.52582E+01  2.18495E+01  5.05803E+00 -1.38456E+01 -7.25220E-01 -2.44851E+01 -3.54169E+01 -1.72192E+01 -2.21937E+01 -1.00612E+01
   8.32422E+00 -5.24593E+00 -8.33377E+00  4.22578E+00  6.86209E+00  2.28141E+01  9.26934E+00  1.68101E+00  1.48445E+00 -8.27579E+00
   9.02144E+00  2.03022E+01  2.66819E+01  3.61400E+01  3.36093E+01  2.56792E+01  2.08583E+01 -1.59187E-01 -4.83289E-01 -1.69453E+01
  -3.36825E+01 -3.35107E+01 -5.14316E+01 -2.02195E+01 -1.31720E+01 -1.94177E+01  2.02844E+01  4.96465E+01  4.79594E+01  4.54874E+01
   2.90627E+01  1.24954E+01  1.85264E+01 -4.24219E+00  7.95722E-01  5.05227E+00  1.38555E+01  2.57307E+01  1.45802E+01  2.79574E+01
   3.44662E+01  3.22696E+01  1.44708E+01  2.02776E+01  8.79282E+00 -1.28771E+01 -1.18635E+01 -3.33485E+01 -4.68446E+01 -4.58718E+01
  -2.97496E+01 -4.57824E+01 -5.00443E+01 -1.32359E+01  6.06907E-01 -3.86189E+00  1.14335E+01  8.83778E+00 -3.76683E+00  1.35387E+01
  -7.05943E+00 -1.94968E+01 -2.92469E+01 -1.35092E+01 -1.69712E-01 -7.33731E+01 -1.14322E+02 -9.58908E+01  7.34552E+00  1.06437E+02
   1.22347E+02  1.47600E+02  1.51729E+02  1.24697E+02  1.21831E+02  1.14026E+02  7.94139E+01  8.59742E+01  9.12743E+01  7.33868E+01
   7.67374E+01  7.89517E+01  8.61102E+01  7.51722E+01  8.50743E+01  9.29746E+01  7.92552E+01  1.02196E+02  9.59403E+01  8.97777E+01
   1.00006E+02  1.01896E+02  1.11262E+02  8.83189E+01  7.62048E+01  8.74243E+01  7.59351E+01  6.59443E+01  7.76512E+01  8.26840E+01
   7.24844E+01  6.00219E+01  6.27055E+01  5.36179E+01  3.97362E+01  4.18870E+01  3.88204E+01  4.16690E+01  1.37106E+01  1.35440E+01
   1.62576E+01 -6.99914E+00  1.42657E+01  1.81156E+01  1.91524E+01  1.81437E+00  6.13253E+00  2.36332E+01  4.91265E+00 -4.90660E-01
  -1.72412E+01 -3.12618E+01 -5.34534E+01 -5.53033E+01 -6.16699E+01 -8.79586E+01 -8.53265E+01 -8.72384E+01 -7.15658E+01 -4.72620E+01
  -4.89056E+01 -3.52762E+01 -7.77717E+00 -5.24171E+00  1.67081E+01  1.86032E+01  1.06468E+01  2.37258E+01  1.43078E+01  2.84119E+01
   5.18981E+01  5.66790E+01  3.57136E+01  3.01644E+01  3.33837E+01  3.58599E+01  4.65833E+01  3.95065E+01  6.20114E+01  7.62527E+01
   6.31126E+01  3.56336E+01  3.45342E+01  3.66698E+01  2.40919E+01  4.09674E+01  3.33757E+01  4.99686E+01  6.47684E+01  6.42836E+01
   7.49141E+01  6.13306E+01  7.60235E+01  7.20008E+01  4.97187E+01  5.52463E+01  5.70700E+01  4.85528E+01  2.90898E+01  1.56464E+01
   1.09911E+01  6.14698E+00  5.98924E+00  8.66875E+00  1.95915E+01  3.05659E+01  2.17296E+01  3.14811E+01  5.01261E+01  3.39634E+01
   3.90710E+01  4.89258E+01  4.51879E+01  6.18477E+01  6.50979E+01  5.65310E+01  5.96326E+01  6.25902E+01  6.44242E+01  7.45667E+01
   7.49156E+01  9.02713E+01  1.03093E+02  9.42910E+01  1.10903E+02  1.09628E+02  1.12384E+02  1.28594E+02  1.35966E+02  1.41220E+02
   1.28107E+02  1.25829E+02  1.25766E+02  1.19953E+02  1.02166E+02  9.44942E+01  9.94147E+01  7.91072E+01  6.57360E+01  7.56715E+01
   7.84680E+01  5.12130E+01  3.07429E+01  2.74044E+01  2.08760E+01  2.82137E+01  2.56582E+01  1.00121E+01  1.95508E+01  7.80734E+00
   4.06695E+00  1.36880E+01 -2.37193E+00  1.77272E+01  1.51770E+01  5.15212E+00  1.48399E+01  9.31416E+00  1.25414E+01  1.01790E+01
   1.41533E+01  9.49195E+00  9.32818E+00  6.01687E-01 -5.84451E+00  3.69190E+00 -2.51779E+00  7.61082E+00  8.18920E+00 -1.29821E+00
   4.64988E+00  5.21373E+00 -1.89443E+00  8.90315E+00  1.08369E+01  2.59724E+00  1.12974E+01 -3.48826E+00 -2.75113E+00  3.17178E+00
  -7.71672E+00  1.37917E+01  2.31024E+01  8.81585E+00  2.45427E+00  1.30705E+01  1.99910E+01 -1.96198E+00  4.15996E+00  1.27801E+01
   4.20260E+00  1.63307E+01  6.15693E+00 -1.47673E+01 -1.09617E+00  2.19431E+01  7.01113E+00 -5.36708E+00 -8.87684E-01  1.37261E+01
   2.14311E+01  2.44764E+00  1.79408E+01  5.97598E+00 -2.89260E+00  1.42724E+01 -6.45261E+00 -1.93797E+00  9.57675E+00  1.24879E+01
   1.32167E+01  2.09312E+00  1.12010E+01  1.52898E+01  4.97056E+00  1.70541E+01  3.98515E+00  1.78769E+00  1.75231E+01 -3.46154E+00
 NY points of the fit to the data follow
   9.00404E+00  4.09753E+00 -4.01334E+00 -1.49466E+01 -1.97510E+01 -1.01117E+01  8.03343E+00  1.94217E+01  1.97744E+01  1.53981E+01
   9.33046E+00  3.54877E+00 -4.83584E-01 -2.30955E+00 -2.95825E+00 -3.00025E+00 -6.46948E+00 -5.15464E+00 -1.39299E+01 -4.15935E+01
  -6.02304E+01 -5.66671E+01 -4.11583E+01 -2.83716E+01 -6.98140E+00  2.29677E+01  3.75937E+01  4.63661E+01  5.54930E+01  5.88988E+01
   5.93532E+01  5.88545E+01  5.81630E+01  5.72349E+01  5.52639E+01  5.52067E+01  5.21769E+01  4.83229E+01  3.76603E+01  1.11162E+01
  -2.20570E+01 -4.26185E+01 -3.86269E+01 -2.54795E+01 -1.21034E+01  5.82686E+00  2.38201E+01  3.93187E+01  4.99383E+01  5.65503E+01
   6.03519E+01  6.02374E+01  5.50756E+01  4.50627E+01  2.97259E+01  1.90472E+01  2.25494E+01  2.52292E+01  1.59610E+01  5.96246E+00
   7.40592E+00  1.27895E+01  1.56775E+01  2.81833E+01  4.63138E+01  5.78205E+01  6.77057E+01  6.86746E+01  4.97109E+01  2.47414E+01
   1.31738E+01  1.44467E+01  1.50526E+01  1.81472E+01  3.15620E+01  4.60866E+01  5.68981E+01  6.42369E+01  7.28585E+01  7.86131E+01
   8.06646E+01  7.58362E+01  6.07251E+01  3.96141E+01  1.68179E+01  3.49707E+00  2.42848E+00  1.09067E+01  2.61484E+01  3.86446E+01
   4.83838E+01  5.60766E+01  6.19156E+01  6.72245E+01  7.22520E+01  7.59256E+01  8.12918E+01  8.71903E+01  9.03606E+01  9.15490E+01
   9.94517E+01  1.04166E+02  1.01781E+02  9.16799E+01  8.29494E+01  6.59774E+01  5.24489E+01  6.80438E+01  7.00980E+01  1.58438E+01
  -6.61404E+01 -1.09327E+02 -1.00143E+02 -8.09349E+01 -6.00719E+01 -4.00309E+01 -2.59314E+01 -1.51688E+01 -6.52924E+00  7.18727E-01
   7.30733E+00  1.35457E+01  2.00981E+01  2.70746E+01  3.42140E+01  4.08737E+01  4.80982E+01  6.32220E+01  7.57658E+01  1.03022E+02
   1.56678E+02  1.86896E+02  1.42289E+02  4.89177E+01 -1.47924E+01 -3.49095E+01 -4.26325E+01 -4.09487E+01 -3.49761E+01 -2.99139E+01
  -2.62938E+01 -2.48736E+01 -2.58212E+01 -2.71996E+01 -2.78511E+01 -2.87700E+01 -2.85600E+01 -2.64012E+01 -2.41846E+01 -2.24158E+01
  -2.12380E+01 -2.00301E+01 -1.84969E+01 -1.66955E+01 -1.43527E+01 -1.13934E+01 -8.72111E+00 -7.41946E+00 -7.77452E+00 -8.31939E+00
  -6.49198E+00 -2.70042E+00 -2.96502E-01 -1.40455E+00 -3.85677E+00 -4.77674E+00 -5.22603E+00 -6.59045E+00 -8.05742E+00 -8.78129E+00
  -5.78851E+00  4.96370E+00  1.88140E+01  2.47451E+01  1.99514E+01  1.43391E+01  1.97184E+01  3.09340E+01  3.52615E+01  2.80372E+01
   1.52234E+01  5.14369E+00 -2.15858E+00 -7.71603E+00 -1.01419E+01 -1.14579E+01 -1.23628E+01 -1.22145E+01 -1.27554E+01 -1.32153E+01
  -1.06566E+01 -8.78926E+00 -8.81390E+00 -4.44297E+00  5.63925E+00  1.31985E+01  1.27421E+01  1.26571E+01  1.79420E+01  2.03791E+01
   1.83304E+01  1.57887E+01  1.86465E+01  2.50508E+01  2.73737E+01  2.59979E+01  2.29748E+01  1.74407E+01  8.58141E+00  7.58798E-01
  -8.78796E+00 -2.08515E+01 -2.63205E+01 -2.88357E+01 -2.07949E+01 -3.11489E+00  2.01591E+01  4.25872E+01  5.46697E+01  6.05535E+01
   5.53280E+01  4.41970E+01  3.96137E+01  3.73224E+01  3.82142E+01  3.92601E+01  3.76111E+01  3.40938E+01  2.71795E+01  1.86486E+01
   9.70782E+00 -1.04493E-01 -8.98338E+00 -1.80588E+01 -2.73703E+01 -3.46950E+01 -4.18328E+01 -4.73341E+01 -4.90214E+01 -4.82114E+01
  -4.41369E+01 -3.94893E+01 -3.11954E+01 -2.14800E+01 -1.35063E+01 -5.28008E+00  6.25067E-01  2.47591E+00  1.10402E+00 -2.91334E+00
  -4.90160E+00 -7.17829E+00 -2.23449E+01 -2.27195E+01 -2.34334E+01 -6.82738E+01 -1.21392E+02 -1.04231E+02 -7.23355E+00  7.62179E+01
   1.05758E+02  1.16046E+02  1.13631E+02  1.05004E+02  9.79980E+01  9.15533E+01  8.58288E+01  8.00588E+01  7.40026E+01  6.90149E+01
   6.43962E+01  6.14236E+01  5.97070E+01  5.94060E+01  6.02874E+01  6.11233E+01  6.27643E+01  6.38148E+01  6.39887E+01  6.36358E+01
   6.23890E+01  6.10840E+01  5.96215E+01  5.80251E+01  5.63132E+01  5.46042E+01  5.29975E+01  5.12118E+01  4.91552E+01  4.67555E+01
   4.40929E+01  4.12528E+01  3.82373E+01  3.54944E+01  3.34665E+01  3.23975E+01  3.23580E+01  3.29454E+01  3.37781E+01  3.48150E+01
   3.61443E+01  3.75542E+01  3.88460E+01  4.00561E+01  4.10985E+01  4.20519E+01  4.31487E+01  4.45263E+01  4.60516E+01  4.73680E+01
   4.84149E+01  4.94115E+01  5.04810E+01  5.14249E+01  5.20646E+01  5.25896E+01  5.28241E+01  5.24324E+01  5.16339E+01  5.06466E+01
   4.95150E+01  4.80628E+01  4.64061E+01  4.47072E+01  4.27115E+01  3.98776E+01  3.55957E+01  3.02851E+01  2.46634E+01  1.91632E+01
   1.41696E+01  1.01820E+01  7.76903E+00  7.19620E+00  8.45364E+00  1.07705E+01  1.33402E+01  1.56009E+01  1.70834E+01  1.82711E+01
   1.96808E+01  2.17094E+01  2.43240E+01  2.71887E+01  2.99043E+01  3.17604E+01  3.30158E+01  3.41009E+01  3.47926E+01  3.49118E+01
   3.44140E+01  3.31208E+01  3.08272E+01  2.79522E+01  2.53232E+01  2.34080E+01  2.22982E+01  2.20324E+01  2.26596E+01  2.38404E+01
   2.55414E+01  2.76621E+01  2.99532E+01  3.22959E+01  3.44357E+01  3.64044E+01  3.82839E+01  4.01240E+01  4.20842E+01  4.38907E+01
   4.56619E+01  4.73704E+01  4.91403E+01  5.12141E+01  5.35535E+01  5.59888E+01  5.86323E+01  6.18702E+01  6.54927E+01  6.91674E+01
   7.32635E+01  7.80130E+01  8.34053E+01  8.88447E+01  9.38596E+01  9.75683E+01  9.89802E+01  9.73551E+01  9.27505E+01  8.66535E+01
   8.04438E+01  7.47938E+01  7.00162E+01  6.62484E+01  6.28741E+01  5.89056E+01  5.40993E+01  4.87847E+01  4.30932E+01  3.75283E+01
   3.27837E+01  2.90564E+01  2.60388E+01  2.36679E+01  2.20338E+01  2.09068E+01  1.99895E+01  1.91452E+01  1.82931E+01  1.75242E+01
   1.70077E+01  1.67801E+01  1.65540E+01  1.62297E+01  1.60728E+01  1.61289E+01  1.59241E+01  1.55242E+01  1.53737E+01  1.55067E+01
   1.54793E+01  1.52108E+01  1.50696E+01  1.50273E+01  1.48685E+01  1.45801E+01  1.43677E+01  1.43623E+01  1.45053E+01  1.45145E+01
   1.43858E+01  1.41256E+01  1.37838E+01  1.35188E+01  1.33682E+01  1.33570E+01  1.33408E+01  1.33295E+01  1.32612E+01  1.31470E+01
   1.30747E+01  1.29784E+01  1.28089E+01  1.24639E+01  1.21438E+01  1.19578E+01  1.18487E+01  1.18067E+01  1.17203E+01  1.16174E+01
   1.13509E+01  1.10939E+01  1.09943E+01  1.09769E+01  1.09141E+01  1.08777E+01  1.07741E+01  1.06293E+01  1.05886E+01  1.05568E+01
   1.03920E+01  1.01030E+01  9.79780E+00  9.57097E+00  9.30299E+00  9.21040E+00  9.33124E+00  9.58117E+00  9.72225E+00  9.56965E+00
   9.18355E+00  8.80050E+00  8.60941E+00  8.52292E+00  8.40445E+00  8.41212E+00  8.36408E+00  8.15267E+00  7.84106E+00  7.68124E+00
 NY background values follow
     2.652E+01    2.659E+01    2.666E+01    2.673E+01    2.679E+01    2.686E+01    2.693E+01    2.700E+01    2.707E+01    2.714E+01
     2.721E+01    2.728E+01    2.735E+01    2.742E+01    2.750E+01    2.757E+01    2.764E+01    2.772E+01    2.779E+01    2.787E+01
     2.795E+01    2.802E+01    2.810E+01    2.818E+01    2.826E+01    2.834E+01    2.843E+01    2.851E+01    2.860E+01    2.868E+01
     2.877E+01    2.886E+01    2.895E+01    2.904E+01    2.914E+01    2.923E+01    2.932E+01    2.942E+01    2.952E+01    2.961E+01
     2.971E+01    2.981E+01    2.990E+01    3.000E+01    3.010E+01    3.020E+01    3.030E+01    3.039E+01    3.049E+01    3.059E+01
     3.068E+01    3.078E+01    3.087E+01    3.097E+01    3.106E+01    3.115E+01    3.125E+01    3.134E+01    3.143E+01    3.151E+01
     3.160E+01    3.168E+01    3.177E+01    3.185E+01    3.193E+01    3.201E+01    3.208E+01    3.216E+01    3.223E+01    3.230E+01
     3.237E+01    3.243E+01    3.250E+01    3.256E+01    3.262E+01    3.268E+01    3.273E+01    3.279E+01    3.284E+01    3.288E+01
     3.293E+01    3.297E+01    3.301E+01    3.305E+01    3.309E+01    3.312E+01    3.315E+01    3.317E+01    3.320E+01    3.322E+01
     3.323E+01    3.325E+01    3.326E+01    3.327E+01    3.327E+01    3.327E+01    3.327E+01    3.327E+01    3.326E+01    3.325E+01
     3.324E+01    3.322E+01    3.320E+01    3.318E+01    3.316E+01    3.313E+01    3.310E+01    3.307E+01    3.303E+01    3.299E+01
     3.295E+01    3.291E+01    3.286E+01    3.281E+01    3.276E+01    3.271E+01    3.265E+01    3.259E+01    3.253E+01    3.246E+01
     3.239E+01    3.232E+01    3.225E+01    3.218E+01    3.210E+01    3.202E+01    3.194E+01    3.185E+01    3.177E+01    3.168E+01
     3.159E+01    3.150E+01    3.140E+01    3.131E+01    3.121E+01    3.111E+01    3.101E+01    3.091E+01    3.080E+01    3.070E+01
     3.059E+01    3.048E+01    3.037E+01    3.026E+01    3.015E+01    3.004E+01    2.992E+01    2.980E+01    2.969E+01    2.957E+01
     2.945E+01    2.933E+01    2.921E+01    2.909E+01    2.897E+01    2.885E+01    2.873E+01    2.860E+01    2.848E+01    2.835E+01
     2.823E+01    2.810E+01    2.798E+01    2.785E+01    2.773E+01    2.760E+01    2.748E+01    2.735E+01    2.722E+01    2.710E+01
     2.697E+01    2.685E+01    2.672E+01    2.660E+01    2.647E+01    2.635E+01    2.622E+01    2.610E+01    2.598E+01    2.585E+01
     2.573E+01    2.561E+01    2.549E+01    2.537E+01    2.525E+01    2.513E+01    2.501E+01    2.490E+01    2.478E+01    2.467E+01
     2.455E+01    2.444E+01    2.433E+01    2.421E+01    2.410E+01    2.399E+01    2.389E+01    2.378E+01    2.367E+01    2.357E+01
     2.346E+01    2.336E+01    2.326E+01    2.316E+01    2.306E+01    2.296E+01    2.286E+01    2.277E+01    2.267E+01    2.258E+01
     2.249E+01    2.240E+01    2.231E+01    2.222E+01    2.214E+01    2.205E+01    2.197E+01    2.188E+01    2.180E+01    2.171E+01
     2.163E+01    2.155E+01    2.147E+01    2.138E+01    2.130E+01    2.122E+01    2.113E+01    2.105E+01    2.097E+01    2.088E+01
     2.079E+01    2.071E+01    2.062E+01    2.053E+01    2.044E+01    2.035E+01    2.025E+01    2.016E+01    2.006E+01    1.996E+01
     1.986E+01    1.976E+01    1.965E+01    1.955E+01    1.944E+01    1.932E+01    1.921E+01    1.909E+01    1.897E+01    1.885E+01
     1.872E+01    1.860E+01    1.846E+01    1.833E+01    1.819E+01    1.805E+01    1.791E+01    1.776E+01    1.761E+01    1.746E+01
     1.730E+01    1.714E+01    1.697E+01    1.680E+01    1.663E+01    1.645E+01    1.627E+01    1.608E+01    1.589E+01    1.570E+01
     1.550E+01    1.530E+01    1.509E+01    1.488E+01    1.467E+01    1.446E+01    1.424E+01    1.403E+01    1.381E+01    1.359E+01
     1.337E+01    1.316E+01    1.294E+01    1.273E+01    1.252E+01    1.231E+01    1.211E+01    1.191E+01    1.171E+01    1.152E+01
     1.134E+01    1.116E+01    1.098E+01    1.082E+01    1.066E+01    1.051E+01    1.037E+01    1.023E+01    1.011E+01    9.997E+00
     9.894E+00    9.802E+00    9.721E+00    9.650E+00    9.589E+00    9.539E+00    9.500E+00    9.471E+00    9.452E+00    9.443E+00
     9.445E+00    9.457E+00    9.479E+00    9.511E+00    9.553E+00    9.605E+00    9.667E+00    9.739E+00    9.821E+00    9.912E+00
     1.001E+01    1.012E+01    1.024E+01    1.037E+01    1.051E+01    1.066E+01    1.082E+01    1.099E+01    1.117E+01    1.135E+01
     1.155E+01    1.175E+01    1.197E+01    1.219E+01    1.242E+01    1.265E+01    1.289E+01    1.314E+01    1.339E+01    1.365E+01
     1.391E+01    1.418E+01    1.445E+01    1.472E+01    1.500E+01    1.528E+01    1.556E+01    1.584E+01    1.612E+01    1.640E+01
     1.668E+01    1.696E+01    1.724E+01    1.752E+01    1.779E+01    1.807E+01    1.833E+01    1.860E+01    1.886E+01    1.912E+01
     1.937E+01    1.961E+01    1.985E+01    2.009E+01    2.031E+01    2.054E+01    2.075E+01    2.096E+01    2.116E+01    2.136E+01
     2.155E+01    2.173E+01    2.191E+01    2.207E+01    2.223E+01    2.239E+01    2.253E+01    2.267E+01    2.279E+01    2.291E+01
     2.302E+01    2.313E+01    2.322E+01    2.330E+01    2.338E+01    2.345E+01    2.350E+01    2.355E+01    2.359E+01    2.361E+01
     2.363E+01    2.364E+01    2.363E+01    2.362E+01    2.360E+01    2.357E+01    2.352E+01    2.348E+01    2.342E+01    2.335E+01
     2.328E+01    2.319E+01    2.310E+01    2.300E+01    2.290E+01    2.278E+01    2.266E+01    2.254E+01    2.240E+01    2.226E+01
     2.211E+01    2.196E+01    2.180E+01    2.164E+01    2.147E+01    2.129E+01    2.111E+01    2.093E+01    2.074E+01    2.054E+01
     2.034E+01    2.014E+01    1.993E+01    1.972E+01    1.951E+01    1.929E+01    1.907E+01    1.884E+01    1.861E+01    1.838E+01
     1.814E+01    1.791E+01    1.767E+01    1.742E+01    1.718E+01    1.693E+01    1.668E+01    1.643E+01    1.618E+01    1.593E+01
     1.567E+01    1.541E+01    1.515E+01    1.489E+01    1.463E+01    1.437E+01    1.411E+01    1.385E+01    1.358E+01    1.332E+01
     1.306E+01    1.279E+01    1.253E+01    1.227E+01    1.200E+01    1.174E+01    1.147E+01    1.121E+01    1.094E+01    1.068E+01
     1.042E+01    1.015E+01    9.887E+00    9.623E+00    9.358E+00    9.094E+00    8.829E+00    8.564E+00    8.299E+00    8.034E+00
     7.769E+00    7.504E+00    7.239E+00    6.973E+00    6.708E+00    6.443E+00    6.177E+00    5.912E+00    5.647E+00    5.381E+00
 Mac      Conc. = 1.61E-04
   1.51136E+01  1.50939E+01  1.51254E+01  1.51142E+01  1.48440E+01  1.42042E+01  1.31678E+01  1.20272E+01  1.11147E+01  1.06349E+01
   1.05535E+01  1.05743E+01  1.04690E+01  9.96018E+00  8.43744E+00  6.72593E+00  6.62954E+00  8.48590E+00  1.10461E+01  1.33606E+01
   1.58821E+01  1.82510E+01  1.96715E+01  2.05307E+01  2.12618E+01  2.20356E+01  2.29978E+01  2.42976E+01  2.56776E+01  2.67951E+01
   2.77054E+01  2.84879E+01  2.89429E+01  2.88533E+01  2.84994E+01  2.84655E+01  2.93891E+01  3.10937E+01  3.25136E+01  3.30868E+01
   3.30184E+01  3.30849E+01  3.36575E+01  3.46462E+01  3.56767E+01  3.62744E+01  3.65138E+01  3.63392E+01  3.57584E+01  3.50491E+01
   3.43528E+01  3.37551E+01  3.32489E+01  3.28897E+01  3.25805E+01  3.25613E+01  3.31423E+01  3.39036E+01  3.46695E+01  3.56272E+01
   3.67619E+01  3.75982E+01  3.78208E+01  3.76096E+01  3.70775E+01  3.65789E+01  3.62847E+01  3.57980E+01  3.52623E+01  3.55121E+01
   3.67358E+01  3.84471E+01  3.99236E+01  4.09830E+01  4.16657E+01  4.18112E+01  4.15844E+01  4.10941E+01  4.06284E+01  4.03145E+01
   3.99210E+01  3.96322E+01  3.97237E+01  4.01007E+01  4.05216E+01  4.09977E+01  4.15291E+01  4.20051E+01  4.23847E+01  4.27973E+01
   4.31795E+01  4.35243E+01  4.38514E+01  4.39144E+01  4.34162E+01  4.24150E+01  4.10603E+01  3.95545E+01  3.83177E+01  3.74443E+01
   3.66735E+01  3.56320E+01  3.43027E+01  3.24889E+01  2.95315E+01  2.53688E+01  2.07304E+01  1.70432E+01  1.50337E+01  1.44510E+01
