 LCModel (Version 6.3-1N) Copyright: S.W. Provencher.          Ref.: Magn. Reson. Med. 30:672-679 (1993).                
 Slice_N1@18_18  28-Feb-2025 11:38:52
 27 lines in following concentration table = NCONC+1
    Conc.  %SD /Cr+PCr  Metabolite                                         
 2.67E-04   5% 2.2E-04 Mac                                                 
    4.260  29%   3.583 Cr                                                  
    5.253  22%   4.417 PCr                                                 
    7.778  12%   6.540 Ins                                                 
   11.181   7%   9.402 NAA                                                 
    7.017  13%   5.901 Tau                                                 
    1.660  64%   1.396 PCho                                                
    0.538 185%   0.452 GPC                                                 
   10.177  10%   8.558 Glu                                                 
    2.805  28%   2.358 Gln                                                 
    0.000 999%   0.000 Ala                                                 
    1.490  84%   1.253 Asc                                                 
    2.381  43%   2.002 Asp                                                 
    0.797  67%   0.670 GABA                                                
    0.370 191%   0.311 Glc                                                 
    1.312  35%   1.103 GSH                                                 
    4.678  15%   3.934 Lac                                                 
    1.036  59%   0.871 NAAG                                                
    0.956 123%   0.804 PE                                                  
    2.198  14%   1.848 GPC+PCho                                            
   12.217   7%  10.274 NAA+NAAG                                            
   12.981  10%  10.916 Glu+Gln                                             
    9.513   8%   8.000 Cr+PCr                                              
   12.217   7%  10.274 NAA+NAAG                                            
    9.513   8%   8.000 Cr+PCr                                              
   12.981  10%  10.916 Glu+Gln                                             
   6 lines in following misc. output table
  FWHM = 0.024 ppm    S/N =   4                                            
  Data shift = 0.024 ppm                                                   
  Ph: -99 deg       0.0 deg/ppm                                            
  alphaB,S = 9.3E-02,   9.5E+00                                            
   19 spline knots.   Ns = 5(1)                                            
  ( 3) 2 infls.   ( 2) 1 extrs.                                            
  480 points on ppm-axis = NY
      4.100000     4.091866     4.083733     4.075600     4.067466     4.059333     4.051199     4.043066     4.034933     4.026799
      4.018666     4.010532     4.002399     3.994265     3.986132     3.977998     3.969864     3.961731     3.953597     3.945463
      3.937330     3.929196     3.921062     3.912929     3.904795     3.896662     3.888528     3.880394     3.872261     3.864127
      3.855993     3.847860     3.839726     3.831592     3.823459     3.815325     3.807191     3.799058     3.790924     3.782790
      3.774657     3.766523     3.758389     3.750256     3.742122     3.733989     3.725855     3.717721     3.709588     3.701454
      3.693320     3.685187     3.677053     3.668919     3.660786     3.652652     3.644518     3.636385     3.628251     3.620117
      3.611984     3.603850     3.595716     3.587583     3.579449     3.571316     3.563182     3.555048     3.546915     3.538781
      3.530647     3.522514     3.514380     3.506246     3.498113     3.489979     3.481845     3.473712     3.465578     3.457444
      3.449311     3.441177     3.433043     3.424910     3.416776     3.408643     3.400509     3.392375     3.384242     3.376108
      3.367974     3.359841     3.351707     3.343573     3.335440     3.327306     3.319172     3.311039     3.302905     3.294771
      3.286638     3.278504     3.270370     3.262237     3.254103     3.245970     3.237836     3.229702     3.221569     3.213435
      3.205301     3.197168     3.189034     3.180900     3.172767     3.164633     3.156499     3.148366     3.140232     3.132098
      3.123965     3.115831     3.107697     3.099564     3.091430     3.083297     3.075163     3.067029     3.058896     3.050762
      3.042628     3.034495     3.026361     3.018227     3.010094     3.001960     2.993826     2.985693     2.977559     2.969425
      2.961292     2.953158     2.945024     2.936891     2.928757     2.920624     2.912490     2.904356     2.896223     2.888089
      2.879955     2.871822     2.863688     2.855554     2.847421     2.839287     2.831153     2.823020     2.814886     2.806752
      2.798619     2.790485     2.782351     2.774218     2.766084     2.757951     2.749817     2.741683     2.733550     2.725416
      2.717282     2.709149     2.701015     2.692881     2.684748     2.676614     2.668480     2.660347     2.652213     2.644079
      2.635946     2.627812     2.619678     2.611545     2.603411     2.595278     2.587144     2.579010     2.570877     2.562743
      2.554609     2.546476     2.538342     2.530208     2.522075     2.513941     2.505807     2.497674     2.489540     2.481406
      2.473273     2.465139     2.457006     2.448872     2.440738     2.432605     2.424471     2.416337     2.408204     2.400070
      2.391936     2.383803     2.375669     2.367535     2.359402     2.351268     2.343134     2.335001     2.326867     2.318733
      2.310600     2.302466     2.294333     2.286199     2.278065     2.269932     2.261798     2.253664     2.245531     2.237397
      2.229263     2.221130     2.212996     2.204862     2.196729     2.188595     2.180461     2.172328     2.164194     2.156060
      2.147927     2.139793     2.131660     2.123526     2.115392     2.107259     2.099125     2.090991     2.082858     2.074724
      2.066590     2.058457     2.050323     2.042189     2.034056     2.025922     2.017788     2.009655     2.001521     1.993387
      1.985254     1.977120     1.968987     1.960853     1.952719     1.944586     1.936452     1.928318     1.920185     1.912051
      1.903917     1.895784     1.887650     1.879516     1.871383     1.863249     1.855115     1.846982     1.838848     1.830714
      1.822581     1.814447     1.806314     1.798180     1.790046     1.781913     1.773779     1.765645     1.757512     1.749378
      1.741244     1.733111     1.724977     1.716843     1.708710     1.700576     1.692442     1.684309     1.676175     1.668041
      1.659908     1.651774     1.643641     1.635507     1.627373     1.619240     1.611106     1.602972     1.594839     1.586705
      1.578571     1.570438     1.562304     1.554170     1.546037     1.537903     1.529769     1.521636     1.513502     1.505368
      1.497235     1.489101     1.480968     1.472834     1.464700     1.456567     1.448433     1.440299     1.432166     1.424032
      1.415898     1.407765     1.399631     1.391497     1.383364     1.375230     1.367096     1.358963     1.350829     1.342695
      1.334562     1.326428     1.318295     1.310161     1.302027     1.293894     1.285760     1.277626     1.269493     1.261359
      1.253225     1.245092     1.236958     1.228824     1.220691     1.212557     1.204423     1.196290     1.188156     1.180022
      1.171889     1.163755     1.155622     1.147488     1.139354     1.131221     1.123087     1.114953     1.106820     1.098686
      1.090552     1.082419     1.074285     1.066151     1.058018     1.049884     1.041750     1.033617     1.025483     1.017349
      1.009216     1.001082     0.992949     0.984815     0.976681     0.968548     0.960414     0.952280     0.944147     0.936013
      0.927879     0.919746     0.911612     0.903478     0.895345     0.887211     0.879077     0.870944     0.862810     0.854676
      0.846543     0.838409     0.830276     0.822142     0.814008     0.805875     0.797741     0.789607     0.781474     0.773340
      0.765206     0.757073     0.748939     0.740805     0.732672     0.724538     0.716404     0.708271     0.700137     0.692003
      0.683870     0.675736     0.667603     0.659469     0.651335     0.643202     0.635068     0.626934     0.618801     0.610667
      0.602533     0.594400     0.586266     0.578132     0.569999     0.561865     0.553731     0.545598     0.537464     0.529330
      0.521197     0.513063     0.504930     0.496796     0.488662     0.480529     0.472395     0.464261     0.456128     0.447994
      0.439861     0.431727     0.423593     0.415460     0.407326     0.399192     0.391059     0.382925     0.374792     0.366658
      0.358524     0.350391     0.342257     0.334124     0.325990     0.317856     0.309723     0.301589     0.293455     0.285322
      0.277188     0.269055     0.260921     0.252787     0.244654     0.236520     0.228386     0.220253     0.212119     0.203986
 NY phased data points follow
  -4.65871E+01 -3.27696E+01 -3.87536E+01 -4.57875E+01 -4.26311E+01 -4.68429E+01 -3.60284E+01 -4.19098E+01 -3.26562E+01 -3.89322E+01
  -6.03302E+01 -5.63085E+01 -5.81055E+01 -6.38321E+01 -6.95128E+01 -8.15997E+01 -6.91250E+01 -6.06368E+01 -9.31437E+01 -1.06705E+02
  -1.16013E+02 -1.09247E+02 -6.73033E+01 -6.37214E+01 -2.94532E+01  1.64408E+01 -9.72425E+00 -3.36422E+00  1.69506E+01  2.44187E+00
   1.31805E+00 -2.90380E+00 -7.34729E+00 -1.24050E+00 -5.92478E+00 -9.88827E+00 -4.74432E+00 -1.64435E+01 -2.87744E+01 -3.98133E+01
  -6.33131E+01 -6.52722E+01 -5.25220E+01 -4.53383E+01 -2.82108E+01 -3.75041E+00  1.39830E+01  1.74004E+01  3.34923E+01  4.59688E+01
   2.64177E+01  3.33107E+01  3.10728E+01  1.26278E+01 -8.98349E-01 -1.38902E+01 -1.25511E+01 -2.71380E+01 -2.92132E+01 -4.70544E+01
  -3.62161E+01 -9.02601E+00 -1.80797E+01  4.01369E+00  1.91205E+01  2.76157E+01  2.53978E+01  1.10773E+01 -3.05337E+00 -2.99323E+01
  -4.91398E+01 -2.57580E+01 -7.34510E+00 -1.94044E+01  8.06203E+00  3.77169E+01  3.95662E+01  2.09564E+01  3.52583E+01  4.80202E+01
   3.94805E+01  3.78607E+01  1.88536E+01  1.90214E+01 -6.23466E+00 -1.67919E+01 -6.90067E+00  1.30747E+00  1.81919E+01  3.37834E+01
   5.27197E+01  4.91011E+01  5.90772E+01  5.81041E+01  5.87108E+01  6.52217E+01  7.99607E+01  8.55815E+01  7.19936E+01  7.01510E+01
   4.78559E+01  5.09965E+01  4.30564E+01  2.15957E+01  1.05186E+01 -1.50063E+01 -2.97649E+01 -2.69368E+01 -3.00860E+01 -6.10044E+01
  -1.17515E+02 -1.73600E+02 -1.36874E+02 -9.29659E+01 -8.69156E+01 -6.12424E+01 -4.73399E+01 -2.59603E+01 -2.84036E+01 -2.38608E+01
  -2.71200E+00 -4.81750E+00 -1.74445E+00  5.65259E+00  1.51213E+01  2.93216E+01  3.88103E+01  4.96858E+01  7.38420E+01  8.47185E+01
   1.17714E+02  1.44794E+02  6.26480E+01 -4.77467E+01 -9.11023E+01 -9.99982E+01 -1.05342E+02 -9.63880E+01 -8.62093E+01 -7.81019E+01
  -7.41425E+01 -7.88357E+01 -7.13007E+01 -8.43978E+01 -8.05839E+01 -6.45499E+01 -7.03404E+01 -6.61101E+01 -7.72040E+01 -5.87124E+01
  -6.06817E+01 -7.23958E+01 -4.68533E+01 -5.24921E+01 -4.76522E+01 -5.25560E+01 -4.30968E+01 -3.17266E+01 -4.71529E+01 -4.08159E+01
  -3.78773E+01 -3.18002E+01 -3.93352E+01 -3.67213E+01 -2.10733E+01 -3.72471E+01 -3.77575E+01 -1.84812E+01 -3.12691E+01 -3.15344E+01
  -2.28432E+01 -1.46218E+01  2.24310E+01  2.38096E+01  6.47412E+00 -1.01113E+01 -9.57844E+00  5.21424E+00  1.18859E+01  5.00166E-01
  -2.29989E+01 -2.52956E+01 -5.09550E+01 -5.03081E+01 -5.85678E+01 -7.20215E+01 -5.48093E+01 -6.00441E+01 -4.98754E+01 -5.34231E+01
  -4.09733E+01 -3.71627E+01 -4.64341E+01 -3.54805E+01 -1.93142E+01 -1.26611E+01 -4.50894E+01 -2.96917E+01 -1.66338E+01 -1.83473E+01
  -1.80471E+01 -2.73473E+01  2.54735E+00 -2.46092E+00 -2.03395E+01 -2.28628E+01 -2.23940E+01 -3.56897E+01 -5.41004E+01 -4.72238E+01
  -6.49966E+01 -6.27715E+01 -4.54108E+01 -4.29244E+01 -2.07901E+01 -5.51770E+00  1.97566E+01  4.71879E+01  4.60052E+01  4.27466E+01
   1.76132E+01 -9.55039E+00 -1.06035E+01 -1.64819E+01 -1.99387E+01 -1.40852E+01 -2.53868E+00 -3.49286E+00 -9.61846E-01 -9.44210E+00
  -2.07629E+01  1.03480E+00 -2.03671E+01 -3.46482E+01 -2.82583E+01 -5.31970E+01 -5.47311E+01 -5.48243E+01 -7.09285E+01 -7.76926E+01
  -7.10346E+01 -6.42886E+01 -5.42602E+01 -3.65949E+01 -3.15412E+01 -3.35082E+01 -2.64031E+01 -3.43355E+01 -4.12792E+01 -4.84749E+01
  -6.67823E+01 -5.86381E+01 -7.08339E+01 -7.27018E+01 -7.40657E+01 -8.73653E+01 -1.17900E+02 -1.11828E+02  7.70763E+01  1.75417E+02
   1.46909E+02  1.55754E+02  1.30090E+02  1.13115E+02  8.96495E+01  8.02979E+01  7.11091E+01  5.64561E+01  5.78011E+01  4.86590E+01
   5.44398E+01  5.08712E+01  5.86337E+01  5.65741E+01  3.42535E+01  3.95693E+01  3.92014E+01  3.38586E+01  4.04898E+01  3.60214E+01
   3.34674E+01  2.80556E+01  2.54410E+01  2.45318E+01  4.48961E+00  1.89897E+01  2.28348E+01  9.55134E+00  1.25634E+01 -1.13134E+01
  -6.26875E+00 -5.54021E-01 -1.94064E+01 -1.61800E+01 -1.70301E+01 -2.41768E+01 -2.37697E+01 -1.66364E+01 -3.12070E+01 -3.68641E+01
  -1.27386E+01 -5.69192E+00 -2.32527E-01  7.21131E+00  7.25037E+00  1.24765E+01  2.36887E+01  2.22047E+01  3.16028E+01  5.33248E+01
   6.48457E+01  8.14049E+01  9.11089E+01  1.02066E+02  8.87915E+01  8.77118E+01  9.30214E+01  8.02145E+01  8.05333E+01  7.35637E+01
   8.76799E+01  6.78539E+01  5.99035E+01  6.67860E+01  5.68561E+01  6.76525E+01  5.43170E+01  7.08406E+01  7.95568E+01  8.36171E+01
   8.33449E+01  5.69937E+01  5.77656E+01  5.22838E+01  4.42274E+01  5.32743E+01  5.89413E+01  5.82563E+01  7.42420E+01  6.68141E+01
   6.61280E+01  6.00636E+01  4.06379E+01  4.45549E+01  2.82086E+01  3.73464E+01  4.50514E+01  4.12683E+01  3.23768E+01  1.64841E+01
   1.66450E+01  1.92344E+01  2.37624E+01  7.59281E+00  9.76692E+00  2.72227E+01  1.62263E+01  6.73994E+00  1.98878E+01  1.62695E+01
   1.13006E+01  1.47823E+01  6.12593E+00  8.20024E+00  2.13550E+01  3.28620E+01  3.85333E+01  4.36474E+01  3.16185E+01  3.08440E+01
   3.65080E+01  4.91107E+01  5.78263E+01  5.78097E+01  7.33812E+01  6.75557E+01  7.11678E+01  6.61746E+01  7.22609E+01  7.70007E+01
   7.84874E+01  9.70626E+01  9.78701E+01  1.18466E+02  1.08820E+02  1.02891E+02  1.13926E+02  1.15441E+02  1.27583E+02  1.30292E+02
   1.22682E+02  9.83249E+01  8.74972E+01  8.74224E+01  7.32592E+01  5.27414E+01  5.39618E+01  5.54370E+01  4.75749E+01  2.79530E+01
   6.90532E+00  1.10878E+01 -1.35687E+00 -1.07116E+01 -1.84556E+01 -3.15584E+01 -2.66216E+01 -2.56930E+01 -2.43113E+01 -2.38174E+01
  -3.02875E+01 -2.51148E+01 -2.40011E+01 -2.83498E+01 -3.38037E+01 -2.56127E+01 -2.33128E+01 -3.51888E+01 -1.69367E+01 -3.68403E+01
  -3.42033E+01 -1.16495E+01 -2.61354E+01 -1.70605E+01 -2.96114E+01 -4.02514E+01 -2.73683E+01 -2.16329E+01 -3.40871E+01 -2.46488E+01
  -2.03607E+01 -2.41566E+01 -2.08474E+01 -2.95016E+01 -2.40316E+01 -2.61647E+01 -1.32925E+01 -2.30749E+01 -1.14073E+01 -9.69223E+00
  -1.97721E+01 -3.92852E+00 -2.18754E+01 -1.95977E+01 -3.38912E+01 -1.52174E+01 -8.75153E+00 -2.51332E+01 -2.24273E+01 -2.08857E+01
  -3.23019E+00 -1.85555E+01 -1.60356E+01 -1.97816E+01 -2.66941E+01 -2.90235E+01 -2.10366E+01 -2.24891E+01 -2.50863E+01 -3.91343E+00
  -2.01041E+01 -2.24059E+01 -2.23181E+01 -2.23943E+01 -2.33010E+01 -2.09885E+01 -2.98892E+01 -2.22439E+01 -1.12937E+01 -3.54028E+01
  -1.61903E+01 -1.63528E+01 -1.13578E+01 -7.15584E+00 -2.05276E+01 -1.43677E+01 -1.71965E+01 -1.36060E+01 -1.52437E+01 -1.45237E+01
 NY points of the fit to the data follow
  -5.93308E+01 -5.86240E+01 -6.03740E+01 -6.42766E+01 -6.60272E+01 -5.56588E+01 -3.72215E+01 -2.64708E+01 -2.92915E+01 -3.84262E+01
  -4.72046E+01 -5.36575E+01 -5.72972E+01 -5.93977E+01 -6.17527E+01 -6.58545E+01 -7.03035E+01 -7.47811E+01 -8.22508E+01 -9.55230E+01
  -1.08326E+02 -1.01069E+02 -7.32596E+01 -4.88468E+01 -2.32750E+01  4.84002E+00  1.17243E+01  1.10065E+01  1.24673E+01  1.16475E+01
   1.15003E+01  1.02080E+01  8.52642E+00  6.41086E+00  3.27890E+00 -9.85824E-01 -5.60987E+00 -1.05752E+01 -1.84812E+01 -3.24089E+01
  -5.04791E+01 -6.13218E+01 -5.58884E+01 -4.16360E+01 -2.43927E+01 -4.64449E+00  1.10576E+01  2.08219E+01  2.38076E+01  2.41739E+01
   2.21809E+01  1.90815E+01  1.51899E+01  8.29520E+00 -2.86429E+00 -1.57580E+01 -2.47245E+01 -2.77221E+01 -3.09330E+01 -3.59867E+01
  -2.99205E+01 -1.61007E+01 -1.07782E+01 -1.28085E+00  1.58110E+01  2.41265E+01  2.66948E+01  2.16286E+01  1.67835E+00 -2.47039E+01
  -3.76237E+01 -2.91220E+01 -1.83127E+01 -1.05359E+01  5.66692E+00  2.23466E+01  3.21023E+01  3.78952E+01  4.01326E+01  4.03081E+01
   3.77083E+01  2.84830E+01  1.33396E+01 -4.79720E+00 -2.05777E+01 -2.44531E+01 -1.70795E+01 -3.07511E+00  1.50719E+01  2.67071E+01
   3.44665E+01  3.99483E+01  4.40935E+01  4.84447E+01  5.24961E+01  5.62074E+01  6.00459E+01  6.32232E+01  6.36103E+01  6.11292E+01
   6.01629E+01  6.09487E+01  5.31076E+01  3.65817E+01  2.05958E+01 -3.70483E-01 -1.85580E+01 -1.71652E+01 -1.74765E+01 -5.27605E+01
  -1.15624E+02 -1.53650E+02 -1.33580E+02 -1.00366E+02 -7.42671E+01 -5.39839E+01 -4.47157E+01 -3.65785E+01 -2.88226E+01 -2.15358E+01
  -1.45073E+01 -7.10785E+00  9.11434E-01  9.88377E+00  2.01157E+01  3.24184E+01  4.73509E+01  6.13005E+01  7.27630E+01  8.90246E+01
   1.14978E+02  1.25625E+02  6.84820E+01 -4.28563E+01 -1.10476E+02 -1.14806E+02 -1.05194E+02 -8.81136E+01 -7.84511E+01 -7.64158E+01
  -7.51916E+01 -7.38501E+01 -7.34078E+01 -7.30768E+01 -7.23126E+01 -7.12482E+01 -6.91261E+01 -6.59452E+01 -6.25927E+01 -5.93378E+01
  -5.66286E+01 -5.42816E+01 -5.22583E+01 -5.02729E+01 -4.75133E+01 -4.42937E+01 -4.16880E+01 -4.06813E+01 -4.08120E+01 -4.03318E+01
  -3.82486E+01 -3.52723E+01 -3.39654E+01 -3.59401E+01 -3.88211E+01 -3.94487E+01 -3.80317E+01 -3.65250E+01 -3.61498E+01 -3.54912E+01
  -3.01515E+01 -1.75350E+01 -3.09760E+00  1.00717E+00 -7.14594E+00 -1.30068E+01 -6.72540E+00  2.94030E+00  2.37993E+00 -1.09248E+01
  -2.71847E+01 -3.68154E+01 -4.18304E+01 -4.49343E+01 -4.56222E+01 -4.60758E+01 -4.56482E+01 -4.48977E+01 -4.42709E+01 -4.30966E+01
  -4.15870E+01 -4.01638E+01 -3.89062E+01 -3.53192E+01 -2.53400E+01 -1.72578E+01 -1.89961E+01 -1.80164E+01 -1.13233E+01 -9.10762E+00
  -1.01663E+01 -1.30938E+01 -1.25559E+01 -8.96591E+00 -1.30292E+01 -2.05171E+01 -2.75203E+01 -3.50120E+01 -4.18523E+01 -4.77437E+01
  -5.14982E+01 -5.35503E+01 -5.21135E+01 -4.29841E+01 -2.62342E+01 -3.53743E+00  2.20496E+01  3.58577E+01  3.79307E+01  3.66073E+01
   2.32335E+01  1.15347E+01  8.68603E+00  7.34554E+00  9.67206E+00  1.00665E+01  7.08656E+00  1.71642E+00 -6.63164E+00 -1.65409E+01
  -2.67421E+01 -3.72269E+01 -4.70760E+01 -5.62345E+01 -6.47356E+01 -7.22839E+01 -7.75449E+01 -8.00303E+01 -8.02250E+01 -7.65708E+01
  -7.15057E+01 -6.71323E+01 -6.03197E+01 -5.33966E+01 -4.78506E+01 -4.24360E+01 -4.13854E+01 -4.25557E+01 -4.56494E+01 -5.10281E+01
  -5.42478E+01 -6.15429E+01 -6.84443E+01 -6.88489E+01 -7.64890E+01 -1.07008E+02 -1.38012E+02 -8.89384E+01  4.40901E+01  1.27339E+02
   1.33837E+02  1.23178E+02  9.72054E+01  8.22501E+01  7.59811E+01  7.12830E+01  6.68513E+01  6.26100E+01  5.88447E+01  5.55681E+01
   5.33342E+01  5.23385E+01  5.18060E+01  5.18647E+01  5.22583E+01  5.18657E+01  5.13803E+01  5.06099E+01  4.95999E+01  4.85218E+01
   4.67658E+01  4.48082E+01  4.29178E+01  4.12472E+01  3.95449E+01  3.75303E+01  3.55537E+01  3.35826E+01  3.13344E+01  2.87578E+01
   2.57176E+01  2.24692E+01  1.94845E+01  1.65518E+01  1.42573E+01  1.33611E+01  1.40763E+01  1.63205E+01  1.93656E+01  2.25121E+01
   2.56293E+01  2.89990E+01  3.24590E+01  3.57628E+01  3.88880E+01  4.18735E+01  4.46920E+01  4.76835E+01  5.10958E+01  5.46631E+01
   5.77892E+01  6.04410E+01  6.28494E+01  6.51790E+01  6.73749E+01  6.90507E+01  7.02167E+01  7.08914E+01  7.06728E+01  6.96021E+01
   6.83640E+01  6.69366E+01  6.47849E+01  6.20975E+01  5.91362E+01  5.56518E+01  5.10246E+01  4.45429E+01  3.68160E+01  2.95123E+01
   2.33899E+01  1.89588E+01  1.67035E+01  1.71380E+01  2.04959E+01  2.66477E+01  3.42381E+01  4.20327E+01  5.01918E+01  5.79715E+01
   6.12663E+01  5.25743E+01  3.24118E+01  1.24104E+01 -2.54974E+00 -8.08220E+00  2.24364E+00  1.46956E+01  2.18458E+01  2.71483E+01
   2.80037E+01  2.73161E+01  2.54651E+01  2.23995E+01  1.86753E+01  1.57221E+01  1.41617E+01  1.40012E+01  1.51551E+01  1.73192E+01
   2.01180E+01  2.34022E+01  2.69881E+01  3.06571E+01  3.41152E+01  3.71331E+01  3.99184E+01  4.25668E+01  4.51606E+01  4.79724E+01
   5.06636E+01  5.32728E+01  5.59976E+01  5.90145E+01  6.24234E+01  6.62790E+01  7.05734E+01  7.51959E+01  8.05521E+01  8.66159E+01
   9.26712E+01  9.88450E+01  1.05512E+02  1.12365E+02  1.18341E+02  1.22656E+02  1.24291E+02  1.22204E+02  1.15734E+02  1.05506E+02
   9.37582E+01  8.27772E+01  7.34700E+01  6.58035E+01  5.92730E+01  5.32397E+01  4.61275E+01  3.76429E+01  2.85791E+01  1.95850E+01
   1.12135E+01  4.39210E+00 -4.97372E-01 -4.33078E+00 -7.35146E+00 -9.46725E+00 -1.09244E+01 -1.21574E+01 -1.33791E+01 -1.46854E+01
  -1.58080E+01 -1.66321E+01 -1.70236E+01 -1.74201E+01 -1.79393E+01 -1.82867E+01 -1.83449E+01 -1.86077E+01 -1.92618E+01 -1.96720E+01
  -1.95585E+01 -1.95026E+01 -1.99176E+01 -2.01983E+01 -2.02730E+01 -2.04348E+01 -2.06937E+01 -2.09544E+01 -2.09079E+01 -2.06444E+01
  -2.04723E+01 -2.06547E+01 -2.10036E+01 -2.13488E+01 -2.15978E+01 -2.15729E+01 -2.13269E+01 -2.11610E+01 -2.10820E+01 -2.09684E+01
  -2.10214E+01 -2.09801E+01 -2.08911E+01 -2.09608E+01 -2.12210E+01 -2.15109E+01 -2.16173E+01 -2.14353E+01 -2.11908E+01 -2.11157E+01
  -2.09969E+01 -2.11236E+01 -2.13486E+01 -2.11858E+01 -2.08799E+01 -2.06751E+01 -2.05009E+01 -2.04193E+01 -2.04001E+01 -2.02745E+01
  -2.01004E+01 -2.01312E+01 -2.03114E+01 -2.04726E+01 -2.04930E+01 -2.05215E+01 -2.02846E+01 -1.98179E+01 -1.91599E+01 -1.87644E+01
  -1.88794E+01 -1.92999E+01 -1.96573E+01 -1.96713E+01 -1.94158E+01 -1.91856E+01 -1.90093E+01 -1.88176E+01 -1.87445E+01 -1.88640E+01
 NY background values follow
    -2.877E+01   -2.857E+01   -2.837E+01   -2.817E+01   -2.796E+01   -2.776E+01   -2.755E+01   -2.734E+01   -2.713E+01   -2.691E+01
    -2.670E+01   -2.648E+01   -2.625E+01   -2.602E+01   -2.579E+01   -2.555E+01   -2.531E+01   -2.506E+01   -2.481E+01   -2.455E+01
    -2.429E+01   -2.402E+01   -2.374E+01   -2.346E+01   -2.317E+01   -2.287E+01   -2.257E+01   -2.226E+01   -2.194E+01   -2.162E+01
    -2.128E+01   -2.094E+01   -2.059E+01   -2.023E+01   -1.986E+01   -1.949E+01   -1.911E+01   -1.873E+01   -1.834E+01   -1.795E+01
    -1.755E+01   -1.715E+01   -1.674E+01   -1.633E+01   -1.592E+01   -1.551E+01   -1.510E+01   -1.468E+01   -1.427E+01   -1.386E+01
    -1.344E+01   -1.303E+01   -1.262E+01   -1.221E+01   -1.180E+01   -1.140E+01   -1.100E+01   -1.060E+01   -1.021E+01   -9.822E+00
    -9.440E+00   -9.064E+00   -8.694E+00   -8.329E+00   -7.971E+00   -7.620E+00   -7.275E+00   -6.937E+00   -6.605E+00   -6.281E+00
    -5.965E+00   -5.655E+00   -5.354E+00   -5.060E+00   -4.774E+00   -4.497E+00   -4.227E+00   -3.967E+00   -3.715E+00   -3.471E+00
    -3.237E+00   -3.012E+00   -2.797E+00   -2.591E+00   -2.395E+00   -2.208E+00   -2.032E+00   -1.866E+00   -1.711E+00   -1.566E+00
    -1.432E+00   -1.308E+00   -1.195E+00   -1.092E+00   -9.992E-01   -9.153E-01   -8.403E-01   -7.739E-01   -7.156E-01   -6.651E-01
    -6.220E-01   -5.859E-01   -5.564E-01   -5.331E-01   -5.156E-01   -5.036E-01   -4.967E-01   -4.945E-01   -4.965E-01   -5.025E-01
    -5.120E-01   -5.247E-01   -5.401E-01   -5.579E-01   -5.777E-01   -5.991E-01   -6.218E-01   -6.453E-01   -6.692E-01   -6.932E-01
    -7.169E-01   -7.401E-01   -7.627E-01   -7.849E-01   -8.067E-01   -8.283E-01   -8.497E-01   -8.709E-01   -8.921E-01   -9.133E-01
    -9.345E-01   -9.560E-01   -9.777E-01   -9.997E-01   -1.022E+00   -1.045E+00   -1.068E+00   -1.093E+00   -1.117E+00   -1.143E+00
    -1.169E+00   -1.197E+00   -1.225E+00   -1.254E+00   -1.285E+00   -1.317E+00   -1.350E+00   -1.384E+00   -1.420E+00   -1.457E+00
    -1.496E+00   -1.537E+00   -1.579E+00   -1.623E+00   -1.669E+00   -1.716E+00   -1.765E+00   -1.815E+00   -1.867E+00   -1.920E+00
    -1.975E+00   -2.031E+00   -2.089E+00   -2.148E+00   -2.209E+00   -2.271E+00   -2.335E+00   -2.400E+00   -2.467E+00   -2.535E+00
    -2.604E+00   -2.674E+00   -2.746E+00   -2.820E+00   -2.894E+00   -2.970E+00   -3.047E+00   -3.126E+00   -3.205E+00   -3.286E+00
    -3.368E+00   -3.452E+00   -3.536E+00   -3.621E+00   -3.707E+00   -3.793E+00   -3.880E+00   -3.967E+00   -4.054E+00   -4.141E+00
    -4.228E+00   -4.314E+00   -4.399E+00   -4.484E+00   -4.568E+00   -4.651E+00   -4.733E+00   -4.813E+00   -4.892E+00   -4.969E+00
    -5.044E+00   -5.118E+00   -5.189E+00   -5.257E+00   -5.324E+00   -5.387E+00   -5.448E+00   -5.506E+00   -5.561E+00   -5.612E+00
    -5.660E+00   -5.705E+00   -5.747E+00   -5.787E+00   -5.826E+00   -5.863E+00   -5.901E+00   -5.938E+00   -5.977E+00   -6.017E+00
    -6.059E+00   -6.104E+00   -6.151E+00   -6.203E+00   -6.259E+00   -6.320E+00   -6.387E+00   -6.460E+00   -6.539E+00   -6.626E+00
    -6.721E+00   -6.825E+00   -6.937E+00   -7.060E+00   -7.192E+00   -7.336E+00   -7.491E+00   -7.658E+00   -7.837E+00   -8.030E+00
    -8.237E+00   -8.458E+00   -8.691E+00   -8.935E+00   -9.190E+00   -9.455E+00   -9.728E+00   -1.001E+01   -1.029E+01   -1.059E+01
    -1.088E+01   -1.118E+01   -1.148E+01   -1.179E+01   -1.209E+01   -1.239E+01   -1.269E+01   -1.299E+01   -1.328E+01   -1.357E+01
    -1.385E+01   -1.413E+01   -1.440E+01   -1.465E+01   -1.490E+01   -1.514E+01   -1.536E+01   -1.557E+01   -1.577E+01   -1.595E+01
    -1.611E+01   -1.626E+01   -1.639E+01   -1.650E+01   -1.659E+01   -1.666E+01   -1.671E+01   -1.674E+01   -1.674E+01   -1.672E+01
    -1.668E+01   -1.661E+01   -1.651E+01   -1.639E+01   -1.624E+01   -1.607E+01   -1.586E+01   -1.563E+01   -1.536E+01   -1.507E+01
    -1.474E+01   -1.438E+01   -1.398E+01   -1.355E+01   -1.309E+01   -1.259E+01   -1.205E+01   -1.147E+01   -1.086E+01   -1.021E+01
    -9.520E+00   -8.791E+00   -8.026E+00   -7.228E+00   -6.400E+00   -5.544E+00   -4.663E+00   -3.759E+00   -2.836E+00   -1.896E+00
    -9.411E-01    2.534E-02    1.001E+00    1.983E+00    2.969E+00    3.956E+00    4.941E+00    5.922E+00    6.897E+00    7.862E+00
     8.814E+00    9.752E+00    1.067E+01    1.157E+01    1.245E+01    1.330E+01    1.413E+01    1.492E+01    1.568E+01    1.640E+01
     1.709E+01    1.774E+01    1.834E+01    1.892E+01    1.945E+01    1.995E+01    2.041E+01    2.083E+01    2.123E+01    2.158E+01
     2.191E+01    2.220E+01    2.247E+01    2.270E+01    2.290E+01    2.307E+01    2.321E+01    2.333E+01    2.341E+01    2.347E+01
     2.351E+01    2.352E+01    2.350E+01    2.346E+01    2.340E+01    2.331E+01    2.321E+01    2.308E+01    2.293E+01    2.276E+01
     2.257E+01    2.236E+01    2.214E+01    2.189E+01    2.163E+01    2.136E+01    2.106E+01    2.076E+01    2.043E+01    2.009E+01
     1.974E+01    1.938E+01    1.900E+01    1.861E+01    1.821E+01    1.779E+01    1.737E+01    1.693E+01    1.649E+01    1.603E+01
     1.557E+01    1.510E+01    1.462E+01    1.413E+01    1.364E+01    1.314E+01    1.263E+01    1.212E+01    1.161E+01    1.109E+01
     1.056E+01    1.004E+01    9.506E+00    8.975E+00    8.442E+00    7.908E+00    7.373E+00    6.838E+00    6.304E+00    5.770E+00
     5.237E+00    4.707E+00    4.179E+00    3.653E+00    3.131E+00    2.613E+00    2.100E+00    1.591E+00    1.087E+00    5.898E-01
     9.855E-02   -3.858E-01   -8.628E-01   -1.332E+00   -1.793E+00   -2.244E+00   -2.687E+00   -3.119E+00   -3.542E+00   -3.953E+00
    -4.353E+00   -4.742E+00   -5.120E+00   -5.487E+00   -5.843E+00   -6.190E+00   -6.527E+00   -6.854E+00   -7.172E+00   -7.481E+00
    -7.782E+00   -8.074E+00   -8.358E+00   -8.634E+00   -8.902E+00   -9.163E+00   -9.417E+00   -9.664E+00   -9.905E+00   -1.014E+01
    -1.037E+01   -1.059E+01   -1.081E+01   -1.102E+01   -1.123E+01   -1.143E+01   -1.163E+01   -1.183E+01   -1.202E+01   -1.221E+01
    -1.239E+01   -1.257E+01   -1.275E+01   -1.293E+01   -1.310E+01   -1.327E+01   -1.344E+01   -1.361E+01   -1.377E+01   -1.393E+01
    -1.409E+01   -1.425E+01   -1.441E+01   -1.456E+01   -1.471E+01   -1.486E+01   -1.501E+01   -1.516E+01   -1.531E+01   -1.545E+01
    -1.560E+01   -1.574E+01   -1.588E+01   -1.602E+01   -1.616E+01   -1.631E+01   -1.645E+01   -1.658E+01   -1.672E+01   -1.686E+01
 Mac      Conc. = 2.67E-04
  -4.79765E+01 -4.82502E+01 -4.83424E+01 -4.84227E+01 -4.86026E+01 -4.92001E+01 -5.03723E+01 -5.19737E+01 -5.35216E+01 -5.46576E+01
  -5.51442E+01 -5.51405E+01 -5.49486E+01 -5.47866E+01 -5.51579E+01 -5.64595E+01 -5.77452E+01 -5.68797E+01 -5.28905E+01 -4.76942E+01
  -4.35796E+01 -3.99071E+01 -3.64596E+01 -3.44066E+01 -3.32212E+01 -3.21404E+01 -3.07575E+01 -2.89291E+01 -2.66912E+01 -2.44240E+01
  -2.27304E+01 -2.14525E+01 -2.02731E+01 -1.94272E+01 -1.91939E+01 -1.92997E+01 -1.88789E+01 -1.70708E+01 -1.41519E+01 -1.15649E+01
  -1.04770E+01 -1.05203E+01 -1.03370E+01 -9.29789E+00 -7.61407E+00 -5.94334E+00 -5.08819E+00 -5.05159E+00 -5.53382E+00 -6.41866E+00
  -7.38762E+00 -8.19761E+00 -8.63949E+00 -8.78697E+00 -8.66231E+00 -8.34050E+00 -7.72446E+00 -6.36761E+00 -4.57618E+00 -2.99910E+00
  -1.53081E+00  1.59836E-01  1.35436E+00  1.46898E+00  1.00496E+00  2.71261E-01 -1.98759E-01 -1.04397E-01 -3.44445E-02  4.43454E-02
   1.00648E+00  3.46536E+00  6.54140E+00  8.78420E+00  1.01096E+01  1.06404E+01  1.04658E+01  9.95990E+00  9.25501E+00  8.74448E+00
   8.64428E+00  8.51033E+00  8.55099E+00  9.02435E+00  9.96243E+00  1.09671E+01  1.18590E+01  1.28348E+01  1.36609E+01  1.42161E+01
   1.47015E+01  1.50720E+01  1.52509E+01  1.52072E+01  1.47523E+01  1.34622E+01  1.13783E+01  8.93613E+00  6.44768E+00  4.18686E+00
   2.48362E+00  7.23092E-01 -1.69817E+00 -4.75434E+00 -8.43969E+00 -1.33605E+01 -1.95256E+01 -2.57818E+01 -3.00838E+01 -3.13846E+01
