 
 $NMID
 ID=''
 FMTDAT='(2E13.5)'
 TRAMP=   1.00000E+0
 VOLUME=   1.00000E+0
 $END
  -3.11011E+3   1.99132E+4
   2.24083E+4   2.59039E+4
   3.38727E+4  -1.86477E+4
  -1.97345E+4  -3.23512E+4
  -3.91807E+4   1.01820E+4
   7.19778E+3   2.96832E+4
   2.92962E+4   3.18777E+1
   7.36664E+2  -1.94156E+4
  -1.91655E+4  -4.99921E+3
  -9.29911E+3   1.28188E+4
   7.04711E+3   9.33571E+3
   9.41388E+3  -6.32191E+3
  -2.12908E+3  -8.68450E+3
  -8.36444E+3  -2.60810E+2
  -1.12866E+3   1.51155E+3
   5.44109E+3  -4.93479E+2
   3.20092E+3   1.04581E+3
  -1.06452E+3  -8.89682E+2
  -2.16476E+3  -2.72159E+3
   3.49855E+1   1.03355E+3
   1.33913E+3   1.75187E+3
   9.06007E+2  -1.07458E+3
   2.05541E+2  -5.85215E+2
  -1.41306E+3   5.53007E+2
  -1.02232E+3   1.67796E+2
   1.91917E+3   3.44878E+2
   1.34294E+3   5.36656E+2
  -2.53024E+3  -2.28866E+2
  -2.27259E+3  -8.10007E+2
   1.29504E+3   8.66393E+1
   1.25096E+3   6.74467E+2
  -6.29603E+0   6.88800E+2
  -1.64586E+3  -3.63642E+2
  -1.99157E+3  -1.51768E+3
   7.66466E+2  -1.69574E+3
   3.19578E+3   2.43990E+2
   8.19989E+2   1.96258E+3
  -1.81161E+3   6.36557E+2
  -1.65395E+2  -1.03224E+3
   8.49805E+2   4.55553E+2
  -7.28925E+2   1.07886E+3
  -5.55289E+2  -1.27859E+3
   1.29784E+3  -1.34879E+3
   1.13957E+3   3.24968E+2
   2.22119E+2   8.89075E+2
   1.00864E+3   4.21082E+2
   8.83641E+2   1.31662E+3
  -1.22114E+3   9.74522E+2
  -2.12670E+3  -8.06945E+2
   3.14226E+2  -1.33242E+3
   1.13435E+3  -2.71462E+2
   1.52644E+2  -3.37171E+2
   2.32765E+1  -7.03112E+2
   9.26292E+2  -4.50809E+2
   1.03827E+3   9.05423E+2
  -1.34041E+2   6.14818E+2
  -7.04592E+2  -1.53586E+2
  -6.99335E+2  -1.18487E+3
   7.99074E+2  -7.67898E+2
   7.82848E+2   2.70160E+2
   2.48798E+2   2.71487E+2
   8.23212E+2   1.20117E-1
   8.07170E+2   6.96906E+2
  -5.62062E+2   1.46676E+3
  -1.84971E+3   6.51862E+2
  -7.40957E+2  -9.80596E+2
   2.05988E+2  -1.58561E+3
   3.28983E+2  -1.18503E+3
   1.84604E+2  -3.96617E+2
   3.93168E+2   6.10415E+2
   2.37292E+2   2.12140E+2
  -3.00371E+2  -9.10676E+2
   1.81165E+2  -7.52288E+2
   7.66009E+2   5.75259E+2
   4.24611E+2   1.20216E+3
  -3.41544E+2  -1.18201E+2
   7.98950E+1  -5.35248E+2
   4.92484E+1   6.68150E+1
  -2.58031E+2   5.77519E+2
  -4.39398E+2   5.39371E+2
  -5.25643E+2  -2.66904E+2
  -3.03139E+2  -7.75852E+2
  -8.09774E+1  -2.36614E+2
  -3.64792E+2   6.47196E+2
  -3.55472E+2  -3.66907E+2
  -2.69852E+2  -5.57091E+2
   3.67466E+2  -5.29118E+2
   2.10133E+2   4.14574E+2
  -1.22584E+2   4.86145E+2
  -1.53677E+1  -9.26616E+1
   5.27491E+2  -4.40867E+2
   4.11677E+2   1.03551E+2
  -1.08097E+2   8.77749E+2
  -4.44897E+2   9.00153E+2
  -6.52353E+2   3.80275E+2
  -2.62624E+2  -5.76354E+2
  -1.45957E+2  -4.21146E+2
   1.30787E+2   2.14272E+2
  -1.33423E+2   4.62304E+2
   2.70367E+2  -2.36350E+1
   6.36756E+2  -3.78686E+2
   4.10782E+2   8.53149E+1
  -7.87804E+1   1.09492E+3
  -5.94858E+2   6.28439E+2
  -3.09107E+2  -4.10151E+2
   3.85451E+2  -4.58034E+2
   3.50597E+2   3.98746E+2
  -2.65719E+2   7.16973E+2
  -5.16955E+2   6.13114E+2
  -2.32751E+2  -4.98294E+2
   5.90782E+1  -4.04287E+2
   4.41843E+2   5.40360E-2
   2.58813E+2   4.42738E+2
   1.25917E+2   6.99443E+1
   2.32215E+2   4.26714E+1
   3.70135E+2   5.09198E+2
   3.02063E+2   6.00563E+2
  -4.81844E+1   6.45295E+2
  -3.80985E+2  -2.44184E+0
  -2.48519E+2  -4.93549E+2
   1.14912E+2  -1.67574E+2
   1.58621E+2   4.73503E+1
   3.22137E+2  -1.83986E+1
   1.91577E+2   9.40215E+1
   2.77612E+2  -1.13230E+1
   2.52945E+2   4.03911E+2
  -1.38194E+2   1.13385E+2
  -6.52500E+1   8.78027E+1
   1.77670E+2  -1.18037E+2
   4.20558E+2  -8.91215E+1
   4.07317E+2   3.47796E+2
   3.65234E+1   5.20055E+2
  -6.01492E+1   1.95737E+2
   3.60740E+1  -1.75141E+2
   1.41284E+2  -1.94756E+2
  -1.11973E+2   1.84231E+2
  -1.37732E+1  -1.08582E+1
   2.17306E+2  -1.44919E+2
   3.75046E+2  -1.91172E+1
   3.49870E+2   1.52167E+2
  -1.25128E+2   4.20488E+2
  -7.70957E+1  -5.24884E+1
   4.28413E+0  -3.27166E+2
   3.78210E+2  -2.97275E+2
   1.30011E+2  -1.01578E+0
   1.88933E+2  -8.67805E+1
   1.13988E+2   2.22040E+2
   5.09953E+1   2.71551E+2
   1.11418E+2   2.02817E+2
  -6.45552E+1   7.31370E+1
  -2.56776E+2   1.81688E+2
  -2.71858E+2  -1.78039E+2
  -1.31592E+2  -2.94966E+2
   1.29462E+2  -2.01212E+2
   1.30556E+2   1.60007E+2
  -4.41405E+1   1.80494E+2
  -8.08951E+1  -1.98889E+2
   2.95872E+1  -1.40529E+2
   1.95726E+2  -8.89548E+0
   1.12066E+2   1.35277E+1
  -7.58187E+1   2.34935E+2
  -5.04038E+1   7.12475E+1
   1.74639E+2   6.24814E+1
   7.27082E+1   2.29709E+2
  -3.00535E+1   1.84080E+2
  -4.00621E+1   8.40817E+1
   2.69502E+1  -3.41012E+1
   3.28693E+2  -3.05924E+2
   3.34681E+2  -2.40456E+1
   1.12278E+2   6.63874E+1
  -1.68033E+2   1.71800E+2
  -1.61885E+1  -1.01273E+2
   2.08430E+2   1.58932E+2
   1.00788E+2   4.71629E+1
  -1.24516E+1  -1.11336E+2
   3.21763E+1   2.90070E+1
   3.04920E+1  -5.11320E+1
   1.50082E+2   4.71393E+1
   8.32110E+1   2.76705E+2
  -8.61771E+1   3.61938E+1
  -8.44510E+1  -4.23415E+1
  -5.36145E+1  -5.12242E+1
  -3.48265E+1  -1.24234E+2
   6.17702E+1  -1.75635E+2
   2.45003E+2   1.01525E+2
   1.39645E+2   5.31419E+0
   4.85414E+1   2.11026E+1
   3.53708E+1  -5.12257E+0
   2.37328E+2   1.82438E+2
   1.59443E+2  -2.02702E+1
  -5.71907E+1  -2.54957E+2
   4.95499E+1   1.85092E+1
   3.07363E+1   2.49636E+1
   5.12980E+1   1.01065E+2
   8.48898E+1  -1.13192E+2
   3.39623E+1  -1.71545E+2
   8.56333E+1   6.35741E+1
   7.69107E+1   2.32918E+2
  -2.08506E+2  -1.44888E+2
   6.92404E+1  -2.03837E+1
   9.88596E+1   1.27335E+2
   1.86010E+1   8.84377E+1
  -3.45489E+1  -1.29029E+1
   3.63743E+0   7.41426E+1
  -2.75744E+1   1.16209E+2
  -1.83234E+1  -2.65185E+2
  -1.16704E+1  -1.75911E+2
   6.87626E+1  -5.96850E+1
  -9.33296E+1  -4.01078E+1
   6.72365E+1   7.45263E+1
  -3.19303E+2  -2.28609E+2
   1.27982E+2  -5.34380E+1
  -1.14644E+2   2.58842E+2
  -1.42501E+2  -4.52590E+1
  -1.05092E+2  -1.88889E+2
  -1.23374E+2  -1.73049E+2
  -9.64453E+1  -8.27368E+1
   3.60861E+1  -3.13500E+1
  -5.52008E+1  -1.72241E+2
  -1.98951E+2  -2.48419E+2
  -5.34564E+1   3.71745E+1
   3.99168E+1  -7.30274E+1
  -1.11438E+2   1.01771E+2
  -1.26780E+2  -1.73204E+2
  -1.07365E+2  -1.26206E+2
   8.27319E+1  -2.15635E+2
   9.34931E+1  -5.35349E+1
  -2.25576E+2   4.93198E+1
  -1.56781E+2   7.64945E+1
   1.78009E+2  -2.18264E+2
  -2.62329E+1  -6.31459E+1
  -2.89146E+1   2.96026E+1
  -2.72824E+2  -2.10552E+2
   8.35812E+1  -2.42775E+1
  -1.48601E+2  -8.48275E+0
  -1.65388E+2   1.70551E+2
  -2.75531E+2  -1.02555E+2
  -6.00214E+1   1.49909E+2
  -1.41818E+2  -1.47019E+2
  -2.66235E+1  -2.32118E+2
  -3.81602E+1  -1.25691E+2
  -1.05147E+2   1.04074E+2
  -2.48279E+2   5.23516E+1
   4.90456E+1   2.11704E+0
  -1.69536E+2  -1.96254E+1
   1.02058E+2   1.21432E+2
  -2.37888E+2  -8.35938E+1
  -7.28492E+1  -8.44682E+1
   3.10109E+1  -1.54723E+2
   1.17634E+2  -9.00249E+1
  -1.33832E+1   1.87452E+2
  -1.68919E+2   1.55390E+2
  -6.29001E+1   1.57744E+1
  -3.00126E+1  -9.91032E+1
   2.34741E+2  -8.84481E+1
   2.68755E+1   1.04608E+2
  -5.66277E+0   9.64206E+1
   3.97989E+1   3.71270E+2
  -1.53985E+2   9.04239E+1
  -1.24344E+2   1.41104E+2
  -2.21923E+2  -5.88195E+1
  -1.49914E+2  -2.53304E+2
  -1.39060E+2  -2.45830E+2
   1.29393E+2  -2.70146E+2
   4.15385E+1   3.00925E+2
  -1.70079E+2   2.58015E+2
  -3.42227E+2   1.69475E+2
  -3.18698E+2   6.15885E+1
  -1.41874E+2  -8.15969E+1
  -1.01037E+1   1.24727E+2
   6.04710E+1  -1.01997E+2
  -1.24017E+2  -1.79831E+2
  -1.33049E+2   9.03636E+1
   4.44727E+0   9.93153E+1
  -3.74641E+2   3.29941E+1
  -3.45328E+2  -7.13693E+1
  -2.04464E+2   8.45646E+1
  -1.35583E+2  -1.08823E+2
  -4.17506E+1  -3.53697E+1
  -7.46086E+1   6.04784E+1
  -8.79670E+1  -6.39264E+1
  -1.54199E+1   2.56132E+1
  -2.06346E+2   7.28355E+1
   7.18973E+1   1.76768E+2
  -2.12410E+2  -1.65190E+1
  -1.58043E+2  -1.32286E+2
  -2.90051E+1  -3.76551E+2
   1.47037E+2   4.30923E+1
  -3.04099E+1   1.66469E+2
  -1.21837E+2   2.89627E+2
  -2.44889E+2  -1.05946E+2
  -1.60853E+2  -8.11213E+0
   2.10442E+2  -2.60709E+1
  -1.65527E+2   7.33830E+1
  -2.44008E+2   3.76181E+1
   9.92791E+1  -1.91119E+2
   3.23279E+1   6.98630E+0
   1.17732E+1   9.85968E+1
  -8.25403E+1   1.90808E+2
  -2.62426E+2  -1.53775E+2
   2.23540E+2  -7.41127E+1
  -1.17302E+1   1.21220E+2
   1.87552E+2   1.15942E+2
  -6.67105E+1   2.10045E+2
  -1.97328E+2   5.99267E+1
  -4.75403E+1  -7.95535E+1
   7.17095E+1  -9.26793E+1
  -1.62522E+2   5.45797E+1
  -6.40652E+1   1.56232E+2
  -1.39847E+2   4.61560E+1
   7.92350E+1   1.24750E+1
   9.01764E+1   2.48645E+2
   2.14230E+1   2.88010E+2
  -1.28366E+2   1.14254E+2
  -3.26101E+1  -6.15591E+1
  -1.31074E+2  -2.42245E+1
  -1.86843E+1   2.75009E+2
  -7.38877E+1   7.06461E+1
  -1.48002E+2  -1.54376E+2
  -1.07231E+2  -1.13395E+2
   4.47257E+1   1.16513E+2
   2.03941E+2   1.03609E+2
  -9.68456E+1  -6.02528E+1
  -9.46357E+1  -1.44309E+2
   1.69725E+2  -1.42752E+2
  -1.57144E+2   1.17637E+1
  -5.20560E+0   1.20908E+2
  -1.64084E+2   2.56130E+2
  -1.99576E+2   8.33889E+1
  -7.70076E+1  -2.21628E+2
   3.28760E+0  -3.69498E+0
   1.19427E+2   1.98518E+2
   2.13047E+1  -2.78037E+1
   1.73126E+2  -6.13699E+1
  -9.52335E+1   2.00110E+1
  -3.17243E+2   3.21524E+2
  -1.53578E+2  -4.39574E+1
  -3.15892E+2   4.56525E+1
   1.09144E+2  -1.95099E+2
   1.37038E+2   2.71618E+1
   1.08223E+1   5.52112E+1
   6.44279E+1   1.80487E+2
   1.09058E+2  -3.84303E+1
  -1.87555E+2   9.53464E+1
   9.45804E+0  -9.50529E+1
   5.89465E+1  -1.15391E+2
   5.36018E+1  -1.43975E+2
   8.81196E+1  -2.35798E+1
   1.10626E+2   7.58869E+1
   4.17402E+1   5.48645E+1
  -7.90328E+1   8.85212E+1
   2.36672E+1   4.92337E+0
  -3.02041E+0   5.19154E+0
  -2.05973E+2  -7.99384E+1
   1.49215E+2  -1.07943E+2
   1.75906E+2  -2.31435E+2
   1.85814E+2  -1.13959E+2
  -3.16477E+1  -6.14444E+1
   2.08111E+1   2.06255E+0
  -1.31322E+2   1.14549E+2
  -1.28370E+2  -4.55345E+1
   1.25966E+2  -2.63624E+2
   1.42764E+2  -7.18754E+1
  -7.45584E+1  -1.47811E+2
   7.99858E+0   1.22854E+2
  -1.53513E+2   5.08555E+1
   2.79747E+0  -1.32925E+2
