 
 $NMID
 ID=''
 FMTDAT='(2E13.5)'
 TRAMP=   1.00000E+0
 VOLUME=   1.00000E+0
 $END
   5.80653E+5   1.70677E+5
   1.31921E+6   9.76282E+5
   1.40525E+6   7.70999E+5
   1.30428E+6   7.31980E+5
   1.38122E+6   7.23549E+5
   1.42923E+6   5.73731E+5
   1.39375E+6   5.01772E+5
   1.42621E+6   4.84830E+5
   1.43306E+6   4.07305E+5
   1.39740E+6   3.74360E+5
   1.41023E+6   3.48801E+5
   1.40263E+6   2.79963E+5
   1.37209E+6   2.48587E+5
   1.37529E+6   2.30949E+5
   1.35787E+6   1.87121E+5
   1.32939E+6   1.62612E+5
   1.33073E+6   1.32384E+5
   1.31353E+6   7.61552E+4
   1.28335E+6   3.60655E+4
   1.27581E+6  -8.21925E+3
   1.25169E+6  -5.75437E+4
   1.21935E+6  -8.91922E+4
   1.20456E+6  -1.21250E+5
   1.17758E+6  -1.59268E+5
   1.14332E+6  -1.80499E+5
   1.12012E+6  -2.08072E+5
   1.09383E+6  -2.32332E+5
   1.06483E+6  -2.39727E+5
   1.04014E+6  -2.53049E+5
   1.00870E+6  -2.77656E+5
   9.80143E+5  -2.93270E+5
   9.52220E+5  -3.12577E+5
   9.16626E+5  -3.34597E+5
   8.85011E+5  -3.51579E+5
   8.54982E+5  -3.70224E+5
   8.17615E+5  -3.91854E+5
   7.82212E+5  -4.08636E+5
   7.52200E+5  -4.22282E+5
   7.18003E+5  -4.29775E+5
   6.85334E+5  -4.34401E+5
   6.56343E+5  -4.39014E+5
   6.25671E+5  -4.41144E+5
   5.96325E+5  -4.38994E+5
   5.67783E+5  -4.39462E+5
   5.39952E+5  -4.37871E+5
   5.14021E+5  -4.33385E+5
   4.87599E+5  -4.30867E+5
   4.58961E+5  -4.28568E+5
   4.31637E+5  -4.25058E+5
   4.05379E+5  -4.21783E+5
   3.78258E+5  -4.17354E+5
   3.52351E+5  -4.12609E+5
   3.27787E+5  -4.06810E+5
   3.03501E+5  -3.99188E+5
   2.80577E+5  -3.90208E+5
   2.58944E+5  -3.81610E+5
   2.39338E+5  -3.71527E+5
   2.19433E+5  -3.60068E+5
   2.00091E+5  -3.49362E+5
   1.82667E+5  -3.38718E+5
   1.65489E+5  -3.27119E+5
   1.48622E+5  -3.15686E+5
   1.31969E+5  -3.05016E+5
   1.16514E+5  -2.93566E+5
   1.01486E+5  -2.81932E+5
   8.69668E+4  -2.70278E+5
   7.35639E+4  -2.58911E+5
   6.09070E+4  -2.46972E+5
   4.85168E+4  -2.34983E+5
   3.71839E+4  -2.23781E+5
   2.69657E+4  -2.13205E+5
   1.80752E+4  -2.01124E+5
   8.31555E+3  -1.89434E+5
  -8.48015E+2  -1.78492E+5
  -8.54249E+3  -1.67927E+5
  -1.57273E+4  -1.56958E+5
  -2.38789E+4  -1.46733E+5
  -3.14489E+4  -1.37044E+5
  -3.75796E+4  -1.27788E+5
  -4.39182E+4  -1.18066E+5
  -5.01711E+4  -1.09538E+5
  -5.57770E+4  -1.01095E+5
  -6.01082E+4  -9.29039E+4
  -6.47711E+4  -8.45479E+4
  -6.89331E+4  -7.70074E+4
  -7.24304E+4  -6.98326E+4
  -7.59328E+4  -6.24692E+4
  -7.95195E+4  -5.54663E+4
  -8.31339E+4  -4.89026E+4
  -8.54882E+4  -4.31576E+4
  -8.83834E+4  -3.63378E+4
  -9.21348E+4  -3.07080E+4
  -9.51895E+4  -2.59886E+4
  -9.78721E+4  -2.09949E+4
  -1.00630E+5  -1.64177E+4
  -1.03243E+5  -1.18458E+4
  -1.06039E+5  -7.69307E+3
  -1.08581E+5  -3.74788E+3
  -1.11455E+5   6.20180E+1
  -1.13469E+5   3.56683E+3
  -1.15816E+5   6.73919E+3
  -1.17914E+5   1.02396E+4
  -1.19980E+5   1.27483E+4
  -1.21764E+5   1.55943E+4
  -1.23538E+5   1.80933E+4
  -1.25697E+5   2.09765E+4
  -1.27798E+5   2.35086E+4
  -1.29609E+5   2.53853E+4
  -1.31083E+5   2.74555E+4
  -1.32594E+5   2.98974E+4
  -1.34310E+5   3.19154E+4
  -1.36339E+5   3.35555E+4
  -1.38248E+5   3.53231E+4
  -1.39794E+5   3.73212E+4
  -1.41674E+5   3.89439E+4
  -1.43338E+5   4.01560E+4
  -1.45178E+5   4.15213E+4
  -1.46556E+5   4.26781E+4
  -1.47354E+5   4.38878E+4
  -1.48562E+5   4.53391E+4
  -1.50052E+5   4.66216E+4
  -1.51425E+5   4.80230E+4
  -1.52812E+5   4.91499E+4
  -1.53964E+5   5.00187E+4
  -1.55219E+5   5.07722E+4
  -1.55967E+5   5.13789E+4
  -1.56439E+5   5.23188E+4
  -1.57384E+5   5.31513E+4
  -1.58176E+5   5.36329E+4
  -1.59181E+5   5.41613E+4
  -1.60104E+5   5.43383E+4
  -1.60622E+5   5.41617E+4
  -1.61185E+5   5.41763E+4
  -1.61627E+5   5.43131E+4
  -1.62347E+5   5.44516E+4
  -1.62866E+5   5.42139E+4
  -1.63171E+5   5.42423E+4
  -1.63632E+5   5.41514E+4
  -1.64132E+5   5.35948E+4
  -1.64547E+5   5.31760E+4
  -1.64681E+5   5.26717E+4
  -1.64597E+5   5.19538E+4
  -1.64587E+5   5.14837E+4
  -1.64804E+5   5.10143E+4
  -1.65339E+5   5.04108E+4
  -1.65203E+5   4.95935E+4
  -1.64971E+5   4.86116E+4
  -1.64779E+5   4.76477E+4
  -1.64757E+5   4.66939E+4
  -1.64559E+5   4.56917E+4
  -1.64157E+5   4.45323E+4
  -1.63655E+5   4.37347E+4
  -1.63509E+5   4.28100E+4
  -1.63473E+5   4.21182E+4
  -1.63404E+5   4.05182E+4
  -1.62980E+5   3.95985E+4
  -1.62394E+5   3.85908E+4
  -1.62452E+5   3.78023E+4
  -1.62256E+5   3.66071E+4
  -1.61852E+5   3.53512E+4
  -1.61399E+5   3.42840E+4
  -1.60761E+5   3.31778E+4
  -1.60530E+5   3.22716E+4
  -1.59816E+5   3.07346E+4
  -1.59275E+5   2.96180E+4
  -1.58838E+5   2.86329E+4
  -1.58369E+5   2.77095E+4
  -1.57992E+5   2.63515E+4
  -1.57389E+5   2.53922E+4
  -1.57028E+5   2.42057E+4
  -1.56274E+5   2.33911E+4
  -1.56114E+5   2.21910E+4
  -1.55280E+5   2.11800E+4
  -1.54874E+5   2.00350E+4
  -1.54084E+5   1.86091E+4
  -1.53676E+5   1.80814E+4
  -1.53195E+5   1.71237E+4
  -1.52278E+5   1.59719E+4
  -1.51454E+5   1.45917E+4
  -1.50791E+5   1.40207E+4
  -1.50377E+5   1.29370E+4
  -1.49431E+5   1.15933E+4
  -1.48796E+5   1.03783E+4
  -1.48427E+5   9.64036E+3
  -1.47371E+5   8.49289E+3
  -1.46344E+5   7.42840E+3
  -1.45887E+5   6.60491E+3
  -1.45116E+5   5.69985E+3
  -1.44120E+5   4.60454E+3
  -1.43572E+5   3.90401E+3
  -1.42901E+5   2.77712E+3
  -1.42023E+5   1.56841E+3
  -1.40998E+5   4.60707E+2
  -1.40110E+5  -3.75031E+2
  -1.39074E+5  -1.24903E+3
  -1.38402E+5  -2.52717E+3
  -1.37371E+5  -3.37495E+3
  -1.36273E+5  -4.73504E+3
  -1.35407E+5  -5.55704E+3
  -1.34561E+5  -6.83082E+3
  -1.33711E+5  -7.99067E+3
  -1.32490E+5  -9.06428E+3
  -1.31359E+5  -1.01655E+4
  -1.30235E+5  -1.10827E+4
  -1.29409E+5  -1.17372E+4
  -1.28505E+5  -1.29728E+4
  -1.27473E+5  -1.41779E+4
  -1.26326E+5  -1.48256E+4
  -1.25409E+5  -1.60101E+4
  -1.24439E+5  -1.69465E+4
  -1.23202E+5  -1.80357E+4
  -1.21989E+5  -1.90096E+4
  -1.21162E+5  -1.95537E+4
  -1.20125E+5  -2.07633E+4
  -1.19075E+5  -2.18456E+4
  -1.17590E+5  -2.27393E+4
  -1.16333E+5  -2.32342E+4
  -1.15609E+5  -2.39890E+4
  -1.14293E+5  -2.45059E+4
  -1.13477E+5  -2.52846E+4
  -1.12295E+5  -2.60446E+4
  -1.11138E+5  -2.66767E+4
  -1.10175E+5  -2.74738E+4
  -1.09008E+5  -2.82057E+4
  -1.07644E+5  -2.87855E+4
  -1.06540E+5  -2.94481E+4
  -1.05467E+5  -2.98532E+4
  -1.04486E+5  -3.02697E+4
  -1.03629E+5  -3.09520E+4
  -1.02450E+5  -3.13612E+4
  -1.01185E+5  -3.18516E+4
  -1.00030E+5  -3.22683E+4
  -9.89963E+4  -3.25906E+4
  -9.79255E+4  -3.31091E+4
  -9.66293E+4  -3.36505E+4
  -9.58256E+4  -3.36997E+4
  -9.50437E+4  -3.39605E+4
  -9.36611E+4  -3.42153E+4
  -9.25162E+4  -3.43185E+4
  -9.15731E+4  -3.47348E+4
  -9.05927E+4  -3.47831E+4
  -8.97076E+4  -3.50176E+4
  -8.85771E+4  -3.52089E+4
  -8.76994E+4  -3.54789E+4
  -8.65886E+4  -3.55456E+4
  -8.57563E+4  -3.54833E+4
  -8.47226E+4  -3.56107E+4
  -8.36194E+4  -3.59162E+4
  -8.24200E+4  -3.58117E+4
  -8.16274E+4  -3.57164E+4
  -8.06702E+4  -3.56752E+4
  -7.95984E+4  -3.59409E+4
  -7.84745E+4  -3.57242E+4
  -7.74550E+4  -3.57019E+4
  -7.66821E+4  -3.57084E+4
  -7.59850E+4  -3.53542E+4
  -7.49446E+4  -3.54306E+4
  -7.39964E+4  -3.56218E+4
  -7.30113E+4  -3.51998E+4
  -7.20111E+4  -3.52408E+4
  -7.10884E+4  -3.51561E+4
  -7.00054E+4  -3.50001E+4
  -6.91253E+4  -3.50750E+4
  -6.80314E+4  -3.44908E+4
  -6.72257E+4  -3.42714E+4
  -6.62393E+4  -3.40541E+4
  -6.52455E+4  -3.39682E+4
  -6.40890E+4  -3.36323E+4
  -6.31522E+4  -3.31708E+4
  -6.21942E+4  -3.27879E+4
  -6.12272E+4  -3.23196E+4
  -6.03078E+4  -3.21413E+4
  -5.93041E+4  -3.16444E+4
  -5.83941E+4  -3.12080E+4
  -5.73761E+4  -3.10121E+4
  -5.63734E+4  -3.05178E+4
  -5.50304E+4  -3.02894E+4
  -5.41586E+4  -2.97559E+4
  -5.30006E+4  -2.89549E+4
  -5.21149E+4  -2.88493E+4
  -5.10268E+4  -2.82692E+4
  -5.01591E+4  -2.76013E+4
  -4.90062E+4  -2.70900E+4
  -4.80737E+4  -2.64741E+4
  -4.68229E+4  -2.62162E+4
  -4.56654E+4  -2.55659E+4
  -4.47743E+4  -2.47917E+4
  -4.35802E+4  -2.43538E+4
  -4.29129E+4  -2.35832E+4
  -4.16474E+4  -2.31878E+4
  -4.02562E+4  -2.24008E+4
  -3.92730E+4  -2.20878E+4
  -3.80491E+4  -2.13608E+4
  -3.73171E+4  -2.08561E+4
  -3.60921E+4  -2.02764E+4
  -3.48024E+4  -1.96327E+4
  -3.38126E+4  -1.91304E+4
  -3.28504E+4  -1.86614E+4
  -3.15195E+4  -1.81215E+4
  -3.05590E+4  -1.77732E+4
  -2.96566E+4  -1.70818E+4
  -2.83480E+4  -1.63759E+4
  -2.73762E+4  -1.61769E+4
  -2.63038E+4  -1.54799E+4
  -2.52710E+4  -1.51193E+4
  -2.41541E+4  -1.47797E+4
  -2.30096E+4  -1.42532E+4
  -2.20539E+4  -1.37953E+4
  -2.08814E+4  -1.32033E+4
  -1.98852E+4  -1.29210E+4
  -1.88292E+4  -1.26230E+4
  -1.80404E+4  -1.21132E+4
  -1.71349E+4  -1.18300E+4
  -1.59565E+4  -1.14724E+4
  -1.46183E+4  -1.10777E+4
  -1.39915E+4  -1.06605E+4
  -1.29481E+4  -1.04212E+4
  -1.21700E+4  -1.01222E+4
  -1.12660E+4  -9.88397E+3
  -1.02795E+4  -9.37680E+3
  -9.30696E+3  -9.17921E+3
  -8.37499E+3  -9.08544E+3
  -7.69392E+3  -8.47024E+3
  -6.63016E+3  -8.57846E+3
  -5.70852E+3  -8.03491E+3
  -4.95542E+3  -7.77221E+3
  -4.17630E+3  -7.77054E+3
  -3.49848E+3  -7.62924E+3
  -2.58561E+3  -7.41102E+3
  -1.74871E+3  -7.02782E+3
  -1.09097E+3  -6.90825E+3
  -3.83640E+2  -6.83506E+3
   5.43061E+2  -6.50684E+3
   9.36040E+2  -6.31784E+3
   1.83817E+3  -6.24071E+3
   2.40536E+3  -6.11561E+3
   3.27282E+3  -6.10562E+3
   4.01169E+3  -5.61091E+3
   4.47687E+3  -5.51604E+3
   4.90223E+3  -5.38774E+3
   5.47137E+3  -5.75275E+3
   6.09736E+3  -5.17274E+3
   6.64949E+3  -5.13920E+3
   7.07962E+3  -4.65036E+3
   7.54782E+3  -4.93435E+3
   8.15485E+3  -4.64352E+3
   8.65937E+3  -4.94098E+3
   9.30620E+3  -4.64326E+3
   9.49329E+3  -4.56496E+3
   9.75560E+3  -4.38396E+3
   1.04869E+4  -4.51431E+3
   1.07043E+4  -4.11297E+3
   1.12304E+4  -4.38376E+3
   1.14533E+4  -4.28223E+3
   1.18815E+4  -4.10018E+3
   1.23582E+4  -4.33419E+3
   1.27937E+4  -4.27970E+3
   1.27567E+4  -4.05351E+3
   1.28459E+4  -4.02329E+3
   1.32238E+4  -4.13249E+3
   1.36961E+4  -4.19932E+3
   1.38011E+4  -3.83740E+3
   1.37351E+4  -3.94750E+3
   1.41054E+4  -3.85667E+3
   1.43618E+4  -3.72211E+3
   1.44337E+4  -3.93783E+3
   1.48427E+4  -4.10026E+3
