 
 $NMID
 ID=''
 FMTDAT='(2E13.5)'
 TRAMP=   1.00000E+0
 VOLUME=   1.00000E+0
 $END
   1.58580E+4   1.27807E+4
   3.23950E+4   5.45766E+3
   1.64312E+4  -2.95800E+4
  -2.57056E+4  -1.20040E+4
  -1.77236E+4   2.87292E+4
   2.41972E+4   1.72921E+4
   2.25691E+4  -1.87105E+4
  -1.10733E+4  -1.70023E+4
  -1.71383E+4   1.04041E+4
   2.53610E+3   1.79145E+4
   1.10620E+4  -4.23456E+2
   1.06647E+3  -1.25475E+4
  -8.83952E+3  -1.72677E+3
  -4.75349E+3   8.92470E+3
   4.13878E+3   9.46547E+2
   4.67417E+3  -6.27666E+3
  -9.07144E+2  -3.83112E+2
  -4.06941E+3   3.75196E+3
  -9.23650E+2   1.61192E+3
   3.04381E+3  -3.21084E+2
   1.47591E+3  -1.27975E+3
  -1.31884E+3  -1.05360E+3
  -8.76071E+2   1.26943E+3
   1.12161E+2   1.30941E+3
   2.53830E+2  -4.89661E+2
   1.02969E+3   1.52056E+2
  -1.45454E+2   1.53044E+3
  -2.01797E+3   7.29755E+2
  -4.02483E+2  -8.04422E+1
   6.00561E+2   9.50734E+2
  -7.78809E+2   3.48592E+2
  -8.63996E+2  -6.46702E+2
  -3.85212E+2  -1.92657E+2
  -9.17238E+2  -4.91909E+2
   6.37491E+2  -1.90736E+3
   2.83086E+3  -8.41994E+2
   9.43396E+2   2.19282E+3
  -1.90944E+3   1.14134E+3
  -3.91936E+2  -1.01729E+3
   1.37157E+3  -4.26095E+2
  -1.02065E+3   4.57839E+2
  -1.50976E+3  -1.45812E+3
   1.64782E+3  -1.35067E+3
   2.20816E+3   7.24252E+2
  -4.77383E+2   1.26253E+3
  -1.08359E+3   2.99484E+2
   2.38662E+2   6.55507E+2
  -6.20994E+2   9.50184E+1
  -1.24163E+3  -1.73446E+3
  -1.46041E+2  -1.89042E+3
   1.31146E+3  -6.65322E+1
   1.34901E+3   3.79412E+2
   3.65964E+2  -2.04099E+2
   9.52267E+1  -4.01867E+2
   1.27624E+2   8.94574E+2
  -5.19796E+2   6.01529E+2
  -8.90944E+2  -1.08292E+3
   2.88251E+2  -1.82743E+3
   1.46301E+3  -1.94928E+2
   2.81888E+2   1.31147E+3
  -6.71586E+2   1.86050E+2
   3.12922E+2  -2.88237E+2
  -1.48870E+2   1.07562E+3
  -2.10911E+3   6.58884E+2
  -1.66465E+3  -1.62199E+3
   8.54985E+2  -2.12614E+3
   1.28942E+3  -5.00231E+2
   2.99616E+2   6.18182E+1
   4.30498E+2   7.37880E+1
   1.00491E+3   5.43141E+2
  -9.68677E+0   5.21610E+2
  -3.45324E+2  -8.52722E+2
   4.57479E+2  -2.71113E+2
   2.76789E+2   1.11557E+3
  -6.71114E+2   5.69378E+2
  -3.50812E+2  -6.57654E+2
   5.10660E+1  -5.34093E+2
  -9.26835E+1   9.14590E+2
  -8.36061E+2   4.76255E+2
  -4.95843E+2  -8.64411E+2
   9.28188E+1  -5.87431E+2
   4.73722E+2  -6.62682E+1
  -3.10262E+1  -2.14368E+2
  -5.07139E+1  -3.25132E+2
   3.86939E+2  -3.27412E+2
   6.89243E+2   2.49159E+2
   3.80986E+2   5.08993E+2
  -1.12657E+2   1.17004E+2
   5.42219E+1  -1.18675E+2
   2.43856E+2   4.30029E+2
   3.36990E+2   5.59819E+2
  -1.53668E+2   6.33821E+2
  -5.37400E+2   1.56975E+2
  -8.02431E+2  -3.10496E+2
   1.54336E+2  -6.10120E+2
   8.96905E+2  -2.43176E+2
   2.88224E+2   3.43807E+2
  -1.97212E+2   1.44638E+1
   9.83122E+0  -1.69853E+2
   7.62271E+2   1.37390E+2
   8.31799E+1   8.18878E+2
  -8.80492E+2   4.93370E+2
  -4.04053E+2  -3.65407E+2
   5.01695E+2  -4.01416E+2
   6.23087E+2   5.02282E+1
  -2.00039E+1   3.89760E+2
  -2.59647E+2   4.01779E+2
  -3.63199E+2  -2.79578E+2
   3.30963E+2  -6.45437E+2
   1.17259E+3  -4.16227E+1
   4.17480E+2   7.81723E+2
  -2.23545E+2   8.10950E+2
  -2.76023E+2   4.14040E+2
  -1.31989E+2   2.85433E+2
  -9.65961E+1   4.45074E+2
  -5.93317E+2   6.29564E+1
  -5.80526E+2  -6.88209E+2
   2.02338E+2  -7.64132E+2
   7.31537E+2  -4.64589E+2
   9.20739E+2  -6.80482E+1
   5.55003E+2   6.73387E+2
   2.34174E+2   5.11616E+2
   6.99169E+1   5.08840E+2
  -2.42714E+2   2.35989E+2
  -3.46326E+2   5.96972E+1
   1.55295E+2  -1.80274E+2
   2.59245E+2  -5.65465E+1
   4.31915E+2   1.12370E+2
   4.17327E+2   2.53725E+2
  -1.42146E+2   4.71270E+2
  -3.06790E+2   1.13586E+1
   1.61488E+2  -2.33070E+2
   4.93501E+2  -2.95628E+2
   1.33112E+2   1.38698E+2
   1.66569E+2  -2.59303E+2
   3.17329E+2  -1.49496E+2
   3.24341E+2   2.31672E+2
   2.32263E+2   5.57825E+2
  -3.45718E+2   3.37217E+2
  -2.67234E+2  -1.46836E+2
  -8.94571E+1  -5.24735E+2
   3.74362E+2  -2.01229E+2
   4.23056E+2   3.20341E+2
   7.44732E+1   4.97169E+2
  -3.81241E+2   2.59591E+2
  -4.72996E+2  -1.07601E+2
   2.90768E+1  -4.62741E+2
   2.61871E+1  -6.46159E+0
  -2.26349E+2  -2.97011E+2
  -9.54540E+1  -2.62973E+2
   3.45611E+2  -2.30048E+2
   5.29279E+2   2.86490E+2
  -3.09907E+1   6.62368E+2
  -4.12395E+2   3.00104E+2
  -2.92473E+2   8.49792E+1
   1.29787E+2  -2.83095E+2
   1.15544E+2   2.20332E+2
  -3.24830E+2   2.29374E+2
  -2.33151E+2   6.38314E+1
   1.68096E+2  -2.51184E+2
  -1.19384E+2   4.12936E+1
  -3.47937E+2   7.77214E+1
  -2.54088E+2  -2.21963E+2
   3.95048E+2  -3.00645E+2
   2.72202E+2  -2.36002E+2
   2.62782E+2   1.15511E+2
   3.91214E+1   2.67250E+2
  -3.64620E+2  -4.73439E+1
  -1.75658E+2  -3.69122E+2
   1.17497E+2  -2.83072E+1
   2.32087E+1  -5.27171E+1
  -1.78667E+2   3.64481E+1
  -1.40808E+2   1.21020E+1
  -1.06438E+2   2.36340E+2
   3.05331E+2  -3.59237E+1
  -2.11492E+2   1.01088E+2
  -8.37449E+1   8.00359E+0
  -2.68760E+2  -2.56512E+2
   5.06869E+1  -1.74792E+2
   2.39196E+2   2.09822E+2
   3.43825E+0   2.81655E+2
  -1.75608E+2   3.33298E+1
  -2.62304E+2   5.95764E+1
  -1.25409E+2  -9.66969E+1
   3.62473E+1  -3.21400E+2
   1.22045E+2  -8.08152E+1
   1.15938E+2   4.33407E+0
   9.68878E+1  -1.80399E+2
   4.13552E+2   2.07319E+2
  -2.45147E+2   2.52138E+2
  -5.24915E+2   2.69075E+2
  -2.38161E+2  -3.68282E+2
   3.80880E+1  -4.05605E+2
   3.00575E+2  -1.47042E+2
   7.11014E+1  -4.63181E+1
   1.87301E+2   6.18527E+1
  -5.45144E+1   1.83500E+2
  -1.04801E+2   2.38051E+0
  -1.59661E+2  -9.29677E+1
  -1.79048E+2  -7.73669E+1
  -2.10359E+2  -4.01320E+2
   1.05340E+2  -1.83413E+2
   4.78825E+2   1.02409E+2
  -1.21590E+1   1.84821E+2
   3.91912E+1   1.44115E+2
  -2.66810E+2  -1.41300E+2
  -3.88386E+1  -1.30003E+2
   5.41452E+1  -8.32534E+0
  -1.18769E+2  -1.26981E+2
  -7.20895E+1  -6.80396E+1
   4.44345E+1  -8.72511E+1
   1.08280E+2  -6.33358E+1
   1.81228E+2   3.39687E+2
  -4.15213E+2   2.05751E+2
  -3.88438E+2  -1.70427E+2
   5.46187E+1  -1.38826E+2
   1.16618E+2  -2.74486E+2
   3.15910E+1  -1.51645E+2
   2.52295E+2   1.55956E+2
  -1.00254E+2  -3.09190E+1
   1.05378E+2  -5.54018E+1
   9.22140E+1   2.48250E+2
   7.54412E+1   1.70381E+2
  -1.83976E+2  -1.42585E+1
   6.62301E+1  -1.80247E+2
   8.82745E+1  -5.55357E+1
  -8.83329E+1   1.04099E+2
  -3.81872E+1   2.55016E+2
  -2.94789E+2   1.41921E+2
  -5.25931E+1  -7.77019E+1
  -4.34665E+0  -5.39552E+1
   6.84854E+1  -5.12045E+1
  -6.12813E+1   8.28283E+0
  -1.47887E+2  -7.76849E+1
  -9.54977E+1   1.82670E+2
  -2.40725E+1  -1.63890E+2
   7.56350E+1   6.86208E+1
  -2.40630E+1  -3.44859E+1
   2.57005E+2  -7.06574E+1
   9.33142E+1  -4.21876E+1
   4.02427E+1   5.70786E+1
   3.10055E+1   1.88394E+2
  -1.17374E+2  -1.34347E+2
  -1.11356E+2  -2.36756E+2
  -1.30020E+2  -5.79805E+1
   9.69689E+1   4.46982E+1
  -4.85976E+1   1.22266E+2
  -3.18164E+1   1.32415E+1
  -9.05097E+1   1.09225E+2
   1.17062E+2   2.35742E+2
   1.29451E+2   1.01321E+2
  -6.47095E+1   8.18427E+1
   1.64838E+2  -2.70509E+2
  -9.74271E+0   1.40714E+2
   3.34057E+2  -6.45439E+1
   4.22919E+1   7.30208E+1
  -1.03230E+2   5.87084E+1
   2.03050E+1  -1.09812E+2
  -1.36836E+2  -1.51860E+2
  -2.14825E+2   5.31991E+1
   2.92879E+1   3.53926E+2
  -1.04303E+2  -1.46840E+2
   7.79393E+1  -3.18229E+2
   1.93348E+2  -2.55722E+1
  -5.80046E+1   3.33360E+2
  -5.96216E+1   2.39590E+1
  -5.48945E+1  -1.65942E+2
   6.03297E-1  -2.78503E+2
   1.35642E+2  -1.96325E+1
  -1.46148E+2  -1.05305E+2
   1.21194E+2  -2.67476E+1
   5.22466E+1  -1.10091E+1
   7.00509E+0   2.27029E+1
   6.46252E+1   1.15220E+2
   1.64751E+2  -8.70098E+1
  -1.42974E+2  -1.48092E+2
   1.70197E+2  -1.81260E+2
   2.94268E+2  -1.13027E+2
   1.86226E+2  -7.45422E+1
   1.84433E+2   1.03106E+2
   1.33430E+2  -7.58755E+1
   4.12907E+1  -4.25238E+0
  -1.37207E+2   1.52544E+2
  -1.30148E+2   1.90377E+2
  -8.93366E+1  -1.52263E+2
   3.37247E+1  -2.72660E+2
   1.43225E+2  -1.01938E+2
   2.17508E+2  -1.24852E+2
   1.24084E+2   9.40730E+0
   3.43235E+0   8.68687E+0
   2.06618E+2  -2.23170E+1
   3.35964E+1   9.58722E+1
   1.03224E+1   2.05853E+1
   5.55125E+1   1.80485E+1
   1.94112E+2  -1.88644E+2
  -3.10145E+1   6.19815E+0
   4.57588E+1   4.38714E+2
  -8.05735E+1   9.47741E+1
  -2.60678E+2  -2.46633E+1
   1.63036E+2  -7.46428E+1
   7.58838E+1  -6.49141E+1
   1.63577E+2   1.52846E+2
  -6.34228E+1  -5.05946E+0
  -1.04469E+2   2.04327E+1
   1.13416E+2  -1.66963E+2
   5.92413E+1  -1.45123E+2
   1.02516E+2   8.74703E+1
  -1.47447E+1  -7.60201E+0
   1.31371E+2  -1.16645E+2
  -1.83946E+2  -1.80858E+2
   1.34590E+2   1.31450E+2
  -7.28402E+1  -3.42447E+0
   8.06291E+1   1.49559E+2
  -8.21353E+1   2.56296E+1
   1.76488E+2  -7.57703E+1
  -3.95330E+1  -1.73441E+2
   3.21587E+1   7.07044E+1
   8.46923E+1  -1.12979E+2
  -2.77292E+1  -1.67458E+2
   2.49530E+2  -1.52023E+2
   2.11075E+2  -7.50298E+1
  -3.03214E+1  -4.27612E+2
   1.09508E+1  -9.22484E+1
  -1.23533E+2  -4.97945E+1
   1.16203E+2  -6.44998E+1
  -9.36153E+1   2.51482E+2
   1.46619E+2  -1.36948E+2
  -1.69449E+1   6.08320E+1
  -1.51913E+2  -6.28449E+1
   1.51081E+2  -1.26981E+2
   3.96121E+1  -4.78048E+1
   2.63569E+1  -2.23949E+1
   7.33149E+1  -6.55088E+1
   2.80572E+2  -4.98979E+1
  -3.18834E+2   1.93292E+2
  -1.32341E+2  -2.27418E+1
   4.73944E+1  -1.24530E+1
   1.31864E+2  -2.32480E+1
   2.99056E+2  -4.87256E+1
   3.63744E+1  -7.66551E+1
   3.13327E+1   1.53025E+2
  -1.23128E+1   2.92771E+2
  -3.12420E+1   1.27250E+2
  -9.97031E+1  -1.17853E+2
  -3.37033E+1   2.28973E+2
  -1.54769E+2  -9.00462E+0
  -2.29395E+1   1.07111E+2
  -2.00361E+1  -7.28715E+1
   1.16504E+0   1.40962E+2
   1.16186E+2   2.08168E+0
  -1.56961E+1  -6.51053E+1
   1.57595E+2   1.17198E+2
  -8.09995E+1  -8.34487E+1
   1.92228E+2   1.40738E+2
   1.40849E+1  -6.27478E+0
   1.86366E+2   1.00872E+2
   1.76487E+2  -8.50766E+1
   1.64134E+2   1.23654E+2
  -2.71482E+1   2.82452E+2
  -3.51924E+1  -1.06945E+1
  -2.39703E+2   6.79739E+0
   3.66180E+1  -1.88675E+2
   2.60530E+2   3.77769E+1
  -6.61591E+1   1.50265E+2
   1.84448E+1   1.96144E+2
  -3.39785E+2  -7.29576E+1
   3.41160E+1  -2.74748E+0
