 
 $NMID
 ID=''
 FMTDAT='(2E13.5)'
 TRAMP=   1.00000E+0
 VOLUME=   1.00000E+0
 $END
  -1.51376E+4  -7.89786E+3
  -6.11378E+3   1.09966E+4
   1.69501E+4   5.95023E+2
   2.19161E+3  -1.11748E+4
  -1.39175E+4   3.82594E+3
   4.35499E+3   5.18321E+3
   9.03238E+3  -8.11855E+3
  -4.80295E+3  -9.15338E+1
   7.19631E+2   6.70519E+3
   6.23618E+3  -2.35559E+3
  -5.32820E+3   1.25231E+2
  -4.75950E+3   5.26790E+3
   3.87268E+3  -1.07841E+3
   4.20844E+2  -1.39096E+3
  -2.70460E+3   2.11454E+3
   2.84178E+1  -2.54119E+3
   8.39029E+2  -2.51616E+3
   9.08294E+2   2.23315E+3
   5.34472E+2   5.58223E+2
  -1.03333E+3  -1.66758E+2
  -4.71120E+2   3.42925E+1
   1.24851E+3  -1.67162E+3
   1.35569E+3   6.25113E+2
   2.44760E+2   3.01435E+3
  -7.85137E+2  -1.80300E+3
   9.62444E+2  -3.43593E+3
   2.40003E+3   1.80733E+3
  -1.40948E+3   1.86338E+3
  -3.30168E+3  -2.58228E+3
   1.20444E+3  -1.84333E+3
   1.61397E+3   2.06345E+3
  -2.75650E+3   1.89868E+3
  -2.65442E+3  -9.19045E+2
   1.82351E+2  -1.02771E+3
   1.93412E+2  -3.25538E+2
   3.00002E+2  -9.76056E+2
   1.07194E+3   1.49861E+2
   9.85050E+2   1.83563E+3
  -2.35958E+1   9.02607E+2
  -8.18955E+2  -1.96646E+2
  -7.07829E+2   6.86851E+2
  -2.06233E+2   2.24316E+2
   1.59471E+2  -1.19597E+3
   8.60089E+2  -1.02693E+3
   1.80593E+3  -6.32323E+2
   1.37368E+3   1.24074E+3
  -3.56277E+2   2.68860E+3
  -1.72075E+3   1.02371E+3
  -1.30387E+3  -1.50580E+3
  -5.44413E+2  -8.97733E+2
  -2.34714E+2  -1.31060E+2
  -2.24502E+2  -9.00983E+2
   5.21052E+2  -5.20218E+2
   1.38919E+3   6.54499E+2
   6.69911E+2   5.54927E+1
  -2.37796E+2  -1.20978E+2
  -5.99633E+2   8.82216E+2
  -5.60111E+2  -4.85462E+2
  -1.23087E+2  -1.56011E+3
   1.12591E+3  -5.94271E+2
   1.09548E+3   2.10928E+2
   1.18246E+1   5.25515E+2
  -1.12555E+2   1.10072E+3
  -6.12604E+1   1.19104E+3
  -1.47215E+3   4.20263E+2
  -1.74656E+3  -7.03796E+1
  -5.28914E+2  -1.30591E+3
   4.05948E+2  -1.57287E+3
   5.54099E+2  -3.07948E+2
   4.83069E+2   6.71598E+2
  -5.45903E+2  -6.11896E+1
  -9.85095E+1  -7.21319E+2
   8.98186E+2   1.66618E+1
   4.64252E+2   7.12828E+2
  -4.82573E+2   4.63892E+2
  -1.33891E+2   7.87334E+1
   2.46583E+2  -3.22955E+1
   1.86088E+2   4.66052E+2
  -6.13933E+1   6.92603E+2
   1.97936E+0   3.11733E+2
  -6.80556E+2   7.49608E+1
  -5.48088E+2  -3.69824E+2
  -9.26550E+1  -3.75876E+2
  -3.79091E+1   1.19757E+2
  -4.68485E+2   3.66372E+2
  -2.75178E+2  -3.36551E+2
   3.08030E+2  -5.14400E+2
   4.56469E+2   2.95855E+2
   1.57896E+2   3.18741E+2
   1.31098E+2   1.67088E+2
   6.28692E+2  -7.69858E+1
   5.50703E+2   2.02510E+2
  -1.70374E+2   8.87234E+2
  -9.01021E+2   7.56365E+2
  -3.65159E+2  -2.98353E+2
   9.36695E+1  -5.49309E+2
   1.03039E+2  -3.48667E+1
   7.67345E-1   6.70883E+1
  -1.26334E+2  -3.28273E+2
   2.42933E+2  -6.85046E+1
   7.99591E+2   4.73603E+1
  -3.32511E+1   5.70904E+2
  -3.31012E+2   2.43162E+2
  -2.45904E+2   9.82958E+1
   4.82210E+1  -1.50634E+2
   5.13970E+2  -1.50738E+1
   5.88051E+2   5.10065E+2
  -4.70118E+2   5.02942E+2
  -1.16754E+3  -6.69186E+1
  -8.46953E+1  -6.49586E+2
   9.60372E+2  -6.89429E+2
   7.45211E+2   1.52236E+2
  -5.79093E+1   7.41857E+2
  -1.21127E+2   2.86563E+2
   3.88850E+2   1.92834E+2
   4.50178E+2   6.29168E+2
  -6.54049E+2   4.70727E+2
  -8.34703E+2  -1.46684E+2
  -2.43507E+1  -5.91961E+2
   3.02839E+2  -6.51352E+2
   5.80300E+2  -3.96737E+2
   7.05431E+2   1.17834E+2
   5.66491E+2  -5.82966E+1
   3.00728E+2   1.82699E+2
  -1.85619E+2   3.42316E+2
  -2.68265E+2  -5.24214E+1
   1.49849E+2  -4.72065E+2
   1.82484E+2  -2.24041E+2
   1.33408E+1  -3.54104E+2
   2.05651E+2   3.09203E+1
   2.27210E+2   3.47887E+2
  -2.85146E+2   4.28795E+2
  -4.49538E+2  -2.58778E+2
   2.00777E+2  -4.90244E+2
   1.29224E+2   8.01649E+1
   1.05996E+2   3.36307E+1
  -1.20521E+2  -1.97743E+2
   6.58604E+2  -3.19281E+2
   3.85728E+2   3.25138E+2
  -2.05502E+2   5.65331E+2
  -4.86135E+2   1.34150E+2
  -4.91331E+2  -1.65523E+2
   3.79324E+2  -3.69027E+2
   2.60815E+2   1.04831E+2
   6.80042E+1   2.22705E+2
  -1.91257E+2   4.32541E+2
  -2.33539E+2   1.48530E+1
  -1.92178E+2   1.17680E+2
  -1.37853E+2  -2.24511E+1
  -3.56884E+2  -1.01054E+2
  -1.19169E+2  -4.11266E+2
  -1.15860E+1  -2.03243E+2
   3.32318E+2  -2.60003E+2
   2.17762E+2   3.13609E+2
  -5.84085E+0   7.54729E+1
  -8.58604E+1  -2.59430E+2
   1.58383E+2  -2.05115E+2
  -1.20476E+2   2.01375E+2
   2.23925E+1   3.19862E+2
  -6.41562E+1   1.33981E+2
   1.23356E+1   2.78882E+2
  -1.84990E+2   2.26995E+2
  -1.52880E+2   9.09635E+1
  -4.16718E+2  -3.76092E+0
  -7.16103E+1  -1.89635E+2
   2.05292E+2  -2.09454E+2
   1.31105E+2   3.10298E+2
   3.88027E+0   3.46492E+2
  -1.85975E+1  -1.97787E+0
   5.44065E+1  -2.11464E+2
   5.54674E+1  -1.29257E+2
   4.17824E+2   7.74632E+1
   1.49416E+2   1.29620E+2
  -5.19964E+1   7.05553E+1
   8.75348E+1  -1.91829E+2
   2.21281E+1   5.17829E+1
   4.38916E+1   1.80322E+2
  -1.73190E+2   2.92445E+2
   6.44846E+0  -3.38757E+2
  -7.24876E+1  -3.85776E+2
   2.74095E+2   1.20440E+2
   3.52258E+2   2.49175E+2
  -1.01521E+2   1.12118E+2
  -6.20005E+1  -3.61609E+0
  -2.35166E+2   1.67361E+2
  -2.68237E+2   6.49961E+0
   6.85582E+1  -2.43993E+2
  -1.11715E+2  -3.46191E+2
   2.05100E+2  -1.12554E+2
   5.11657E+2   4.82087E+1
   2.96133E+2   1.35166E+2
  -3.24752E+1   1.35235E+2
  -3.68002E+2   1.64144E+2
  -1.45182E+2  -1.97859E+1
  -7.16594E+1  -2.06918E+2
   4.59025E+1  -1.76515E+2
  -3.08520E+1   1.62294E+2
   8.38815E+0  -4.47490E+1
   1.25614E+2  -4.46030E+1
   3.11212E+1   2.98169E+2
  -1.76226E+2   1.11893E+2
  -2.80280E+2  -6.35104E+1
  -8.40815E+1  -1.83134E+2
   1.02438E+2  -2.00779E+2
   2.46203E+2  -1.17291E+2
  -1.98302E+1  -1.18097E+2
  -1.44484E+2   1.85065E+2
  -7.06757E+1   3.24692E+1
   1.00010E+2   2.57274E+2
   7.20681E+1  -1.86914E+2
  -8.72549E+1   4.31439E+1
  -9.17788E+1  -1.82275E+2
  -2.18084E+1  -1.09326E+2
   1.31316E+2   5.69248E+1
   4.22230E+1   1.54167E+2
  -3.57949E+2   5.32216E+1
   5.79887E+0  -1.87223E+2
  -1.94752E+2   7.27854E+1
  -1.36213E+1  -1.04100E+2
  -2.16216E+1  -2.86886E+2
  -3.83589E+1  -7.79907E+1
  -1.24549E+2  -1.63522E+2
  -1.10320E+2   1.00682E+2
   1.18838E+2  -1.22253E+1
  -3.18081E+2   3.83432E+1
   5.21757E+1  -1.73629E+2
   1.77891E+2   1.09005E+1
   6.35082E+1  -7.04277E+1
   1.67742E+2   1.21050E+1
  -9.38579E+1   3.11552E+0
  -5.07994E+1  -1.59857E+2
  -1.36607E+1  -1.53435E+2
   7.06012E+0   8.55998E+1
   1.54323E+2  -8.33648E+1
  -2.55511E+2   4.63573E+1
  -9.87418E+1  -1.15257E+2
   6.00304E+1  -7.32728E+0
   1.06109E+2   2.69388E+2
  -1.43311E+2   1.96608E+1
  -7.16412E+1  -1.11459E+2
  -1.39503E+2  -1.00311E+2
   1.76082E+2  -1.30696E+2
   1.85224E+2  -5.30438E+1
  -3.82731E+1   1.24056E+2
  -1.62485E+2  -1.61362E+2
  -1.22041E+2  -8.65105E+0
   8.18204E+1  -1.84695E+2
   1.38202E+2   2.43570E+2
   3.60263E+1   1.66853E+1
   7.81104E+1  -2.27112E+2
   2.36729E+2  -4.71575E+1
   2.94552E+1   1.86750E+2
  -1.30103E+2  -7.02791E+1
  -2.12906E+2  -5.91583E+1
  -1.64686E+1  -2.31460E+2
   3.28498E+2  -2.86048E+2
   1.65249E+2  -8.72072E+1
   5.05655E+1  -6.66091E+1
   5.49065E+0  -1.74731E+2
   1.94250E+0  -7.75390E+1
   1.60659E+2  -8.34843E+1
  -2.49722E+2  -7.70511E+1
  -2.95642E+2  -1.18581E+2
  -8.85333E+0  -1.15113E+2
   1.90066E+2  -1.70658E+2
   1.40242E+2   1.73693E+2
  -1.92250E+2   1.65431E+1
  -2.21072E+2  -7.83257E+0
   4.26705E+1  -2.51996E+2
   4.55388E+1  -7.93757E+1
  -1.40438E+2   1.71767E+2
  -6.87235E+1  -5.72156E+1
  -2.78967E+1  -1.28418E+2
  -5.87887E+1  -1.58659E+0
   1.19064E+2  -2.11648E+2
  -4.24559E+1   1.54530E+2
  -9.56858E+1  -1.38684E+2
   1.60037E+1  -2.01245E+2
   1.89908E+2  -2.19210E+2
   5.28710E+1  -2.12177E+2
   1.16318E+2  -1.87378E+2
   1.16687E+2  -1.13876E+2
  -1.27372E+2  -9.65281E+1
  -3.32246E+0   8.47411E+0
   7.76328E+0  -1.01318E+1
  -3.08963E+2   3.91160E+1
  -4.29508E+1  -2.70236E+2
   2.55126E+2  -6.80558E+1
   1.24772E+2  -6.48324E+1
   8.70795E+1  -1.07247E+1
  -7.88480E+1   2.48453E+1
  -1.41713E+2   1.03157E+2
  -6.98549E+1   2.82547E+1
   9.93646E+1   3.41504E+1
  -1.92601E+2  -6.96062E+1
  -2.12689E+2  -7.30468E+1
  -1.53451E+2  -3.40766E+1
  -3.76983E+0  -1.07601E+2
  -7.73072E+1   2.30062E+1
   2.64073E+1  -1.69694E+1
   5.33900E+1  -3.52821E+1
  -1.46459E+2  -3.82029E+2
   1.07421E+2   9.34569E+1
   6.07788E+1   1.92812E+2
  -3.82982E+1   8.61150E+1
  -2.41714E+2  -2.02815E+2
  -6.81331E+1  -1.58619E+1
   6.71631E+1  -2.04561E+2
   6.12548E+0   3.33119E+1
   1.17457E+1  -1.86423E+2
  -9.50638E+1   2.31466E+1
  -1.67323E+2   9.36599E+1
  -1.92986E+2   1.86435E+2
  -9.07546E+1   1.81470E+2
  -1.29404E+2  -2.22341E+2
  -5.90385E+1  -1.62770E+2
  -1.52672E+2  -8.87576E+1
   3.58676E+1   7.14680E+1
  -1.33468E+2   1.56412E+2
  -2.51407E+1  -2.63372E+2
  -1.15963E+0  -1.28501E+2
  -1.01461E+2  -5.26075E+1
  -2.00053E+2   9.08485E+1
  -1.48748E+2  -6.49952E+1
  -8.20174E+1  -2.54397E+2
  -7.49810E+1  -4.68583E+1
  -1.05577E+1  -1.56773E+1
   9.86326E+1   1.26970E+1
  -6.51004E+0  -5.98799E+1
   9.07011E+1  -1.76831E+2
   3.99925E+1   1.38041E+1
   2.32622E+2  -9.69969E+1
   9.41638E+1  -1.17514E+2
  -1.65527E-1  -1.76724E+2
  -3.23638E+1   5.64972E+1
   1.38723E+1   1.95417E+1
  -2.06667E+0  -1.02179E+2
  -7.69959E+1   3.45465E+1
  -7.53232E+0  -2.48555E+2
   1.21781E+2   2.20640E+1
  -3.82818E+1  -1.40176E+2
   3.24222E+2  -2.83959E+1
   5.36724E+1  -2.69815E+1
   1.42328E+1  -1.64880E+2
   6.56400E+1  -1.23476E+2
  -1.03262E+2  -8.31220E+1
  -1.02800E+1  -3.20457E+2
   1.74261E+2  -1.02114E+2
  -7.65750E+1   2.62142E+0
   3.54553E+2   9.85791E+1
  -1.33401E+2   1.85369E+2
   1.24320E+1  -2.17053E+2
   9.06798E+1  -1.74333E+2
   2.27276E+1  -1.31571E+2
  -6.24948E+1  -1.09851E+2
   5.10236E+1  -9.68399E+1
  -2.86508E+1  -6.86863E+1
   1.23191E+2   3.77214E+1
   2.01100E+2   8.98698E+1
   1.61608E+2   1.25458E+2
  -1.49529E+2  -2.09951E+2
  -2.78339E+2  -2.56458E+2
   2.83123E+2   9.61668E+1
   1.78699E+2   4.55336E+1
   1.16579E+2   1.39398E+2
   6.45171E+1  -1.12178E+2
   1.29244E+2   8.36078E+1
