 
 $NMID
 ID=''
 FMTDAT='(2E13.5)'
 TRAMP=   1.00000E+0
 VOLUME=   1.00000E+0
 $END
  -9.47954E+3   1.25766E+4
  -1.99628E+3   3.10498E+4
   3.37154E+4   1.30218E+4
   2.16494E+4  -2.50614E+4
  -2.22751E+4  -2.46084E+4
  -2.77358E+4   8.71092E+3
   3.08887E+3   2.49377E+4
   2.18401E+4   7.23039E+3
   1.18614E+4  -1.56166E+4
  -1.12606E+4  -1.34151E+4
  -1.92044E+4   6.32549E+3
  -1.91181E+3   1.37875E+4
   1.31633E+4   3.38945E+3
   5.82492E+3  -6.83943E+3
  -7.16677E+3  -8.54095E+3
  -6.92166E+3  -1.68169E+3
   9.60539E+2   7.27748E+3
   4.56501E+3   6.07591E+3
   2.29402E+3  -3.16884E+3
  -1.06438E+3  -5.61582E+3
  -2.44299E+3  -5.80640E+2
  -1.16549E+3   2.91591E+3
   1.34872E+3   2.97935E+3
   1.71834E+3  -7.18930E+2
   4.63937E+2  -3.68879E+3
  -1.98749E+2  -8.27198E+2
  -8.48723E+2   2.91571E+3
  -1.07334E+3   1.30364E+3
   9.87943E+2  -7.73166E+2
   1.49282E+3  -1.85067E+2
  -8.23647E+2   4.70557E+2
  -1.52894E+3  -2.41820E+2
  -2.68070E+2  -3.07467E+2
   2.19991E+2  -4.35129E+2
   5.27508E+2  -1.82315E+3
   1.75104E+3  -1.22145E+3
   7.51225E+2   1.28454E+3
  -9.81717E+2   1.42450E+3
  -2.22349E+1  -4.68925E+2
   6.70138E+2  -5.54388E+2
  -8.86711E+2  -9.24012E+1
  -6.13316E+2  -8.18544E+2
   1.17860E+3  -4.70377E+2
   1.71722E+3   4.98560E+1
   4.90307E+2   2.03811E+2
   1.25180E+2   9.16194E+2
  -9.64221E+2   1.67222E+3
  -1.42354E+3   2.03643E+2
  -4.48403E+2  -2.06262E+3
   8.06022E+2  -1.50696E+3
   4.28306E+2  -2.68750E+2
   1.31415E+2  -2.24983E+2
   9.64955E+2  -3.19331E+2
   6.95193E+2   2.93845E+2
  -2.53827E+2   6.04379E+2
  -5.51077E+2  -8.86180E+1
  -3.20455E+2  -3.86295E+2
   3.68858E+1  -9.19626E+2
   1.06229E+3  -9.00351E+2
   5.69355E+2  -5.13845E+2
   2.63230E+2   7.38205E+2
   2.52904E+2   1.45907E+3
  -3.76416E+2   8.85371E+2
  -1.28270E+3  -2.98244E+2
  -1.48285E+3  -1.03982E+3
  -8.83607E+2  -5.71504E+2
   5.36160E+2  -8.85800E+2
   1.56477E+3  -8.92632E+2
   1.26366E+3   9.66241E+1
  -5.42872E+2   7.66107E+2
  -8.10775E+2  -5.22613E+1
   8.19437E+2  -4.12806E+2
   1.22337E+3   6.06325E+2
  -3.51959E+2   6.61763E+2
  -1.12092E+3  -6.92926E+1
  -3.63174E+2  -1.61545E+2
   3.91331E+2   5.47125E+2
   1.79303E+1   6.42644E+2
  -2.69374E+2   2.04794E+1
  -7.55307E+2  -1.90875E+2
  -6.97155E+2  -2.04075E+2
   2.29493E+0  -9.78150E+1
   4.93900E+2   1.54175E+2
   1.21200E+2  -1.32153E+1
  -3.30309E+2  -4.28628E+2
   2.96698E+2  -2.77251E+2
   5.52809E+2   7.11556E+2
   1.07059E+2   7.12664E+2
   7.34843E+1   2.72449E+2
   1.02434E+2   1.65513E+2
   2.34666E+2   4.43841E+2
  -3.43263E+2   8.67611E+2
  -7.68596E+2   5.37426E+2
  -8.68233E+2   1.62488E+1
  -5.85888E+1  -5.88556E+2
   4.91923E+2  -5.10497E+2
   5.88572E+2   2.13211E+2
  -3.39566E+1   7.47028E+2
  -4.23658E+1  -2.26811E+1
   7.41654E+2  -6.21466E+1
   7.29679E+2   6.24794E+2
  -4.04262E+2   1.03911E+3
  -1.14058E+3  -9.98488E+1
  -3.21742E+1  -6.69686E+2
   7.70108E+2   2.68930E+1
   3.76834E+2   8.58062E+2
  -6.64289E+2   4.90918E+2
  -8.80448E+2  -5.67621E+2
  -1.39024E+2  -8.44527E+2
   9.02739E+2  -2.72284E+2
   8.51509E+2   4.67105E+2
   3.87009E+2   5.10677E+2
  -2.35135E+2   3.77442E+2
  -4.38612E+2   6.27607E+2
  -2.47634E+2   4.36732E+2
  -1.61683E+2   1.75171E+2
  -6.24432E+2  -1.89490E+2
  -5.12782E+2  -7.92399E+2
   2.05395E+2  -7.11941E+2
   7.68205E+2   8.10600E+0
   6.85579E+2   5.00140E+2
   3.08716E+2   7.16841E+2
   6.49818E+1   3.23222E+2
  -1.09004E+2   3.81157E+2
  -5.04517E+2   2.48001E+2
  -4.55401E+2  -1.11270E+2
   1.92483E+2  -3.84562E+2
   6.91657E+2  -2.87221E+2
   2.66225E+2   5.72119E+2
  -2.08467E+2   5.98242E+2
  -5.88850E+2   2.81351E+2
  -2.24902E+2  -3.60938E+1
  -4.49112E+1  -3.48062E+2
   1.83899E+2  -1.27509E+2
   1.40938E+2  -1.44534E+2
   1.33894E+2  -8.62395E+1
   1.68628E+2   9.45940E+0
   1.97257E+2   4.08114E+2
  -7.18905E+0   5.18071E+2
  -4.24750E+2   1.15325E+2
  -6.90930E+2  -2.65654E+2
   2.64042E+2  -5.44503E+2
   5.17326E+2   1.40180E+2
   3.05209E+2   4.21370E+2
  -2.30673E+2   2.32779E+2
  -3.06301E+2   4.99422E+1
  -2.96683E+2  -6.49265E+1
  -3.65500E+2  -1.65692E+2
  -1.88484E+2  -3.85897E+2
   1.74840E+2  -2.91153E+2
   4.12025E+2  -1.93988E+2
   5.62077E+2  -1.28088E+2
   3.79638E+2   4.33950E+2
  -1.04195E+2   4.79466E+2
  -2.53215E+2  -3.36203E+1
   3.62930E+1  -3.85542E+2
  -1.38750E+2   5.03978E+1
  -1.29525E+2   1.21768E+2
  -3.67170E+2  -1.56603E+1
  -3.12971E+2  -2.11544E+2
  -4.50051E+1   1.25173E+2
  -1.80968E+2   7.96615E+1
  -2.79401E+2  -1.63957E+2
  -1.17420E+2  -3.17315E+2
   1.66347E+2  -1.89499E+2
   2.14495E+1   6.02465E+1
  -6.25607E+0   8.30287E+1
  -1.13605E+2  -1.05452E+2
  -1.72331E+1  -3.23125E+1
  -3.77214E+1  -1.70082E+2
   1.06616E+2  -7.44363E+1
  -1.61956E+2   2.76177E+2
  -2.77265E+2  -1.99677E+2
  -1.33035E+2  -2.19995E+2
   1.75176E+2  -1.57595E+2
   2.35633E+0   2.56613E+2
  -3.47209E+2   8.53582E+1
  -4.42489E+2  -2.43757E+2
   2.28354E+2  -4.99393E+2
   4.82510E+2   1.54686E+2
   5.72059E+1   2.55921E+2
  -3.91029E+2   1.97018E+2
  -3.11110E+2  -1.56703E+2
  -2.45936E+2  -4.06138E+2
   1.17017E+2  -2.49229E+2
   2.77253E+1  -9.35622E+1
   1.28409E+2  -3.40855E+2
   3.30958E+2  -2.16117E+1
   4.13707E+2   1.22543E+2
   1.22322E+2   5.01742E+2
  -2.80614E+2   3.63028E+2
  -3.81395E+2   2.10654E+1
  -2.14142E+2  -3.60677E+2
   2.64565E+2  -3.10260E+2
   6.11626E+1   5.17597E+0
   2.54238E+1  -2.51290E+1
  -1.34468E+2  -1.22022E+2
   1.18958E+0   1.88344E+1
  -2.35535E+2   1.06072E+2
  -1.65732E+2   7.64930E+1
  -1.02760E+2  -4.72322E+2
  -8.47196E+1  -4.24000E+2
   5.22235E+2  -3.57820E+1
   2.46310E+2   6.55133E+1
  -1.33268E+2  -2.45699E+1
   1.19802E+2   2.31190E+1
   1.78085E+2  -8.83132E+1
  -7.70276E+1  -9.15805E+1
  -5.97221E+1  -1.89122E+2
  -1.55224E+2  -1.35178E+2
  -1.14606E+2  -4.19312E+2
   6.77937E+1  -3.16514E+2
   4.96886E+1   8.32622E+1
  -3.07757E+2   1.77400E+2
  -7.45458E+2  -2.98528E+2
  -3.39280E+2  -6.09229E+2
  -2.35029E+1  -4.00668E+2
   1.84311E+2  -9.93137E+1
   1.29254E+2   4.35218E+0
  -2.45339E+2  -1.57206E+2
   1.22436E+2   9.66093E+1
   1.92845E+2  -5.07975E+1
  -2.52552E+2   2.31111E+2
  -1.72082E+2  -1.45344E+2
  -1.18484E+2  -6.25151E+2
  -1.40092E+2  -4.19406E+2
   1.83320E+1  -1.89350E+2
   1.33546E+0   1.48151E+2
  -3.41865E+2  -4.95688E+1
  -6.47823E+1  -3.24565E+2
   8.89981E+1  -8.84273E+1
   1.72986E+2  -2.12370E+2
  -1.02588E+2   2.78909E+1
  -2.81495E+2  -2.14035E+2
  -1.15115E+1  -1.53690E+2
  -1.03705E+2  -6.28005E+1
  -1.79012E+2   7.25603E+1
  -3.54758E+2  -5.82306E+1
  -3.39981E+1  -2.72444E+2
   2.33131E+2  -2.03239E+2
   2.26792E+2  -1.03985E+2
  -2.26460E+2   3.37061E+2
   9.80313E+0  -8.14230E+1
  -4.54663E+1  -1.11281E+2
   1.17822E+2   3.81282E+1
   2.25838E+2   2.68604E+1
   3.76733E+1  -4.97348E+1
  -2.11314E+2  -6.47350E+1
   1.23609E+2   6.66322E+1
   3.64401E+0  -7.11841E+1
  -8.91059E+1   8.62213E+1
  -2.20689E+2   1.00364E+2
  -3.67920E+1  -2.57730E+2
  -4.44823E+1  -3.93945E+2
   7.49137E+0   5.42329E+1
   1.08547E+2   3.15819E+2
  -1.27926E+2   6.17409E+1
   2.25388E+1   1.74189E+2
  -6.86953E+1   7.54991E+1
  -2.13216E+2  -3.48919E+1
  -2.27651E+2   5.52669E+1
   1.39603E+1  -1.87571E+2
   7.28428E+1  -1.91643E+2
   2.99714E+2   1.05925E+2
   2.04241E+2   3.16262E+2
  -1.66551E+2   2.55369E+1
  -2.85687E+2  -4.58377E+1
   5.89754E+1  -1.75869E+2
   1.81813E+2  -2.87169E+2
   1.65219E+1  -5.00359E+1
   1.31734E+2   2.15041E+2
   1.41812E+2  -2.00118E+2
  -1.38594E+2   9.33779E+1
   1.57812E+2   2.55798E-1
   4.40107E+1   2.94587E+2
  -1.76190E+2  -7.18724E+0
   6.72819E+1  -2.38883E+2
   6.47046E+1   9.64512E+1
  -2.92121E+0  -6.18489E+1
   7.67583E+1   2.29675E+2
  -4.29502E+1  -1.19284E+2
   2.39020E+1   1.48599E+2
  -7.87580E+1  -7.93291E+0
  -8.41577E+1   1.83412E+2
   1.10561E+2  -6.95627E+1
  -1.55539E+2  -2.59082E+2
   1.42268E+2  -1.05921E+2
   3.45453E+2   8.27005E+1
  -1.58289E+2   1.63201E+2
  -4.85700E+1   1.11772E+2
  -1.57055E+2  -1.60336E+2
   8.09330E+1   7.00120E+1
  -1.36997E+0   2.61246E+1
   1.11842E+2   2.92965E+1
   1.06729E+2  -1.75603E+2
   1.66630E+2  -1.79444E+2
   9.50105E+1   2.30060E+1
  -1.15800E+2   1.29008E+2
  -2.54982E+1   2.74328E+2
  -6.66407E+1  -6.64725E+1
   1.58316E+1  -1.25641E+2
  -6.92449E+1  -1.23693E+2
  -1.04476E+2  -5.29277E+1
  -1.61168E+2  -7.09304E+1
  -1.06746E+2  -3.95244E+1
   1.81379E+2  -9.97332E+1
   2.92426E+2  -9.93397E+0
   1.93944E+2   9.64937E+1
  -2.32167E+2   1.76671E+2
   1.63306E+2  -1.33911E+1
  -1.14746E+1   2.38525E+2
   7.96344E+1   2.87440E+1
  -5.83505E+0  -5.75011E+1
  -6.48211E+1  -1.93530E+2
  -2.47989E+1  -3.04810E+2
   3.36179E+1   7.70565E+1
   7.01958E+0  -1.63578E+2
   2.89170E+1   1.21434E+2
  -5.89357E+1   7.03243E+1
   4.99014E+1  -3.04868E+1
  -1.11280E+2  -5.73189E+1
   1.80427E+2   1.34313E+2
  -4.13292E+2   2.70559E+1
   1.85151E+2   1.23731E+1
   9.22636E+0   2.35108E+2
   4.59268E+0   3.80619E+2
  -7.59091E+1   3.28011E+2
  -2.87954E+2   1.86802E+2
  -6.56969E+1  -7.03551E+1
  -1.75603E+1  -4.64866E+1
   3.03056E+2  -2.34495E+1
  -7.26852E+1   2.30156E+1
   2.49234E+2   2.21796E+1
  -4.27031E+1   1.52017E+1
   3.63879E+1   2.03203E+2
   2.66256E+0   1.84917E+2
  -1.13367E+2  -4.75746E+1
  -8.33600E+1  -8.65549E+1
   1.51401E+2  -1.45849E+2
  -1.78864E+1   1.37955E+2
   1.75675E+2   1.91922E+2
  -2.24841E+2   7.01698E+1
  -1.95777E+2  -3.16719E+1
  -4.79236E+1   7.71261E+0
   1.20177E+1   1.19669E+2
  -9.12390E+1  -8.35742E+1
  -1.17780E+2  -1.53957E+2
   2.90754E+2   9.70277E+0
   9.12761E+1   1.74707E+2
   8.63716E+1   1.26098E+2
  -1.47122E+2  -1.23628E+2
   2.68704E+2   1.55869E+1
  -7.55047E+1  -1.03177E+2
  -3.35538E+1  -6.21419E+1
   1.49530E+2   1.63075E+2
   4.73821E+1  -1.39511E+2
   3.08149E+2   2.26058E+1
  -1.40644E+2  -6.81945E+1
   7.48629E+1   7.99458E+1
   2.02925E+1   2.10871E+2
  -2.51959E+2   5.53289E+1
   2.51487E+2  -1.98368E+1
   3.87436E+2  -1.06070E+2
  -1.19640E+2   3.14038E+2
  -1.06545E+2   1.96361E+2
  -4.64612E+1   2.68836E+2
   4.67153E+1  -5.92060E+1
