 
 $NMID
 ID=''
 FMTDAT='(2E13.5)'
 TRAMP=   1.00000E+0
 VOLUME=   1.00000E+0
 $END
   5.13574E+5   3.41302E+4
   1.26755E+6   4.97995E+5
   1.28490E+6   2.76420E+5
   1.15032E+6   3.09635E+5
   1.19919E+6   3.92170E+5
   1.23017E+6   3.38075E+5
   1.19472E+6   3.05490E+5
   1.20080E+6   3.03099E+5
   1.18380E+6   2.77685E+5
   1.16810E+6   2.92848E+5
   1.19680E+6   2.84253E+5
   1.18380E+6   2.37531E+5
   1.15476E+6   2.34604E+5
   1.16441E+6   2.34780E+5
   1.15902E+6   2.09040E+5
   1.14458E+6   1.97509E+5
   1.15479E+6   1.89048E+5
   1.14502E+6   1.74229E+5
   1.12894E+6   1.75613E+5
   1.13239E+6   1.68545E+5
   1.12489E+6   1.57704E+5
   1.11594E+6   1.56414E+5
   1.11753E+6   1.43970E+5
   1.10755E+6   1.30552E+5
   1.09544E+6   1.32405E+5
   1.09685E+6   1.19589E+5
   1.09363E+6   1.01930E+5
   1.08601E+6   9.40209E+4
   1.07817E+6   8.45457E+4
   1.06903E+6   7.11382E+4
   1.06727E+6   6.77914E+4
   1.06535E+6   5.89865E+4
   1.05457E+6   5.07145E+4
   1.04579E+6   4.73485E+4
   1.04139E+6   4.15570E+4
   1.03557E+6   3.34155E+4
   1.03188E+6   2.90260E+4
   1.02500E+6   2.44954E+4
   1.01407E+6   1.91589E+4
   1.00961E+6   1.33171E+4
   1.00503E+6   4.97704E+3
   9.94805E+5  -2.56090E+3
   9.85921E+5  -1.00484E+4
   9.81503E+5  -1.74849E+4
   9.74751E+5  -2.41523E+4
   9.68030E+5  -3.05977E+4
   9.60929E+5  -3.48351E+4
   9.53079E+5  -3.57121E+4
   9.44268E+5  -3.72846E+4
   9.36193E+5  -4.18032E+4
   9.28501E+5  -4.42137E+4
   9.21073E+5  -4.46495E+4
   9.13663E+5  -4.63849E+4
   9.06160E+5  -4.89697E+4
   8.98231E+5  -5.12151E+4
   8.90222E+5  -5.23271E+4
   8.81614E+5  -5.33607E+4
   8.72596E+5  -5.53706E+4
   8.63909E+5  -5.92209E+4
   8.56462E+5  -6.14943E+4
   8.48937E+5  -6.22906E+4
   8.40370E+5  -6.35253E+4
   8.32399E+5  -6.48359E+4
   8.24514E+5  -6.40051E+4
   8.14941E+5  -6.26231E+4
   8.04905E+5  -6.30605E+4
   7.96067E+5  -6.38199E+4
   7.87249E+5  -6.37718E+4
   7.79777E+5  -6.29390E+4
   7.72372E+5  -6.16899E+4
   7.63738E+5  -6.07635E+4
   7.54248E+5  -6.05666E+4
   7.45995E+5  -6.10589E+4
   7.39034E+5  -6.02881E+4
   7.30837E+5  -5.84588E+4
   7.21634E+5  -5.76542E+4
   7.13041E+5  -5.70085E+4
   7.05440E+5  -5.52638E+4
   6.97305E+5  -5.31194E+4
   6.88637E+5  -5.12944E+4
   6.79828E+5  -4.95988E+4
   6.71610E+5  -4.77228E+4
   6.63642E+5  -4.56260E+4
   6.55604E+5  -4.33265E+4
   6.47089E+5  -4.10965E+4
   6.38701E+5  -3.95111E+4
   6.30730E+5  -3.84335E+4
   6.23009E+5  -3.66110E+4
   6.15140E+5  -3.49014E+4
   6.06734E+5  -3.41248E+4
   5.98622E+5  -3.31382E+4
   5.91262E+5  -3.17351E+4
   5.83790E+5  -2.99740E+4
   5.75343E+5  -2.79125E+4
   5.66004E+5  -2.62198E+4
   5.57762E+5  -2.49513E+4
   5.50633E+5  -2.41312E+4
   5.43199E+5  -2.22642E+4
   5.34511E+5  -2.06416E+4
   5.26420E+5  -1.95011E+4
   5.19829E+5  -1.82744E+4
   5.12178E+5  -1.63814E+4
   5.03638E+5  -1.44945E+4
   4.95526E+5  -1.33679E+4
   4.87759E+5  -1.27497E+4
   4.80890E+5  -1.24616E+4
   4.73698E+5  -1.19074E+4
   4.66126E+5  -9.89856E+3
   4.58104E+5  -8.73271E+3
   4.49882E+5  -8.56337E+3
   4.42929E+5  -8.76349E+3
   4.36113E+5  -7.11622E+3
   4.28853E+5  -5.59001E+3
   4.21248E+5  -4.39126E+3
   4.13791E+5  -3.43789E+3
   4.07253E+5  -1.97090E+3
   3.99905E+5  -3.59335E+2
   3.92158E+5   7.23630E+2
   3.84904E+5   1.11523E+3
   3.78059E+5   1.27629E+3
   3.71514E+5   2.13042E+3
   3.64948E+5   2.96515E+3
   3.58427E+5   3.68316E+3
   3.51792E+5   4.72108E+3
   3.45191E+5   5.56691E+3
   3.37773E+5   6.27675E+3
   3.31024E+5   7.02099E+3
   3.24875E+5   7.78924E+3
   3.18435E+5   8.50703E+3
   3.11995E+5   9.44071E+3
   3.06085E+5   1.09731E+4
   2.99642E+5   1.24474E+4
   2.92836E+5   1.32177E+4
   2.87095E+5   1.37634E+4
   2.81190E+5   1.47329E+4
   2.74833E+5   1.55902E+4
   2.68513E+5   1.60233E+4
   2.62902E+5   1.68838E+4
   2.57509E+5   1.74043E+4
   2.51644E+5   1.83918E+4
   2.45493E+5   1.90189E+4
   2.39284E+5   1.92021E+4
   2.33920E+5   1.92707E+4
   2.28572E+5   1.95292E+4
   2.23043E+5   2.00832E+4
   2.17634E+5   2.08705E+4
   2.11611E+5   2.11501E+4
   2.06192E+5   2.12776E+4
   2.01253E+5   2.14283E+4
   1.96037E+5   2.14221E+4
   1.91150E+5   2.13251E+4
   1.85915E+5   2.13391E+4
   1.81105E+5   2.09150E+4
   1.76614E+5   2.09962E+4
   1.71653E+5   2.09633E+4
   1.66776E+5   2.05630E+4
   1.62021E+5   2.01969E+4
   1.57568E+5   2.04408E+4
   1.53106E+5   2.00612E+4
   1.48430E+5   1.94304E+4
   1.44183E+5   1.94563E+4
   1.39939E+5   1.91080E+4
   1.35442E+5   1.88762E+4
   1.31306E+5   1.84289E+4
   1.27418E+5   1.79221E+4
   1.23274E+5   1.72553E+4
   1.19577E+5   1.68381E+4
   1.16071E+5   1.66551E+4
   1.12309E+5   1.64330E+4
   1.08879E+5   1.58411E+4
   1.05033E+5   1.48998E+4
   1.01640E+5   1.45257E+4
   9.83544E+4   1.41199E+4
   9.46883E+4   1.37043E+4
   9.16593E+4   1.32333E+4
   8.87211E+4   1.25179E+4
   8.56670E+4   1.23669E+4
   8.26768E+4   1.14346E+4
   7.98524E+4   1.09091E+4
   7.69144E+4   1.05721E+4
   7.40404E+4   9.80108E+3
   7.13045E+4   9.40542E+3
   6.87984E+4   8.63847E+3
   6.61264E+4   8.24808E+3
   6.36636E+4   7.30515E+3
   6.12604E+4   6.86580E+3
   5.88901E+4   5.96214E+3
   5.63537E+4   5.53171E+3
   5.41314E+4   4.85234E+3
   5.19788E+4   3.98075E+3
   4.98673E+4   3.37673E+3
   4.80193E+4   2.89712E+3
   4.55509E+4   2.34211E+3
   4.37642E+4   1.43512E+3
   4.19859E+4   6.39879E+2
   3.99542E+4   5.18853E+1
   3.81406E+4  -6.69901E+2
   3.62829E+4  -1.26878E+3
   3.45986E+4  -2.07128E+3
   3.28655E+4  -2.84040E+3
   3.11190E+4  -3.50455E+3
   2.97516E+4  -3.90503E+3
   2.76740E+4  -5.13180E+3
   2.67427E+4  -5.94479E+3
   2.51766E+4  -6.47092E+3
   2.36493E+4  -7.32649E+3
   2.22691E+4  -7.85575E+3
   2.11085E+4  -8.88241E+3
   1.98629E+4  -9.71797E+3
   1.84966E+4  -1.04367E+4
   1.71269E+4  -1.11656E+4
   1.59934E+4  -1.20403E+4
   1.50893E+4  -1.27458E+4
   1.37838E+4  -1.34814E+4
   1.30071E+4  -1.42307E+4
   1.19675E+4  -1.49640E+4
   1.09896E+4  -1.57282E+4
   1.01883E+4  -1.65443E+4
   9.15222E+3  -1.73733E+4
   8.58058E+3  -1.81005E+4
   7.47107E+3  -1.85512E+4
   6.61450E+3  -1.94214E+4
   6.08389E+3  -2.01058E+4
   5.54574E+3  -2.07590E+4
   4.83064E+3  -2.17359E+4
   4.03983E+3  -2.21350E+4
   3.36520E+3  -2.30344E+4
   2.98722E+3  -2.33486E+4
   2.14457E+3  -2.40042E+4
   1.84042E+3  -2.47082E+4
   1.37561E+3  -2.54911E+4
   8.42951E+2  -2.59902E+4
   1.09945E+2  -2.64958E+4
  -1.72650E+2  -2.70595E+4
  -4.32439E+2  -2.75326E+4
  -6.12254E+2  -2.81858E+4
  -1.31091E+3  -2.87723E+4
  -1.53285E+3  -2.91349E+4
  -1.82314E+3  -2.96540E+4
  -2.21807E+3  -3.00219E+4
  -2.82719E+3  -3.06759E+4
  -3.01100E+3  -3.12294E+4
  -2.84669E+3  -3.16104E+4
  -2.96354E+3  -3.21308E+4
  -3.40344E+3  -3.23692E+4
  -3.44497E+3  -3.28395E+4
  -3.43194E+3  -3.33536E+4
  -3.70973E+3  -3.38526E+4
  -3.87804E+3  -3.38968E+4
  -3.80014E+3  -3.46848E+4
  -4.13934E+3  -3.48801E+4
  -4.06695E+3  -3.52273E+4
  -4.07350E+3  -3.55567E+4
  -4.14464E+3  -3.57248E+4
  -3.94506E+3  -3.59502E+4
  -4.12037E+3  -3.64922E+4
  -3.68173E+3  -3.65836E+4
  -3.79125E+3  -3.73120E+4
  -3.46848E+3  -3.72314E+4
  -3.39025E+3  -3.77079E+4
  -3.08480E+3  -3.77647E+4
  -3.02034E+3  -3.81944E+4
  -2.85713E+3  -3.84096E+4
  -2.62537E+3  -3.84211E+4
  -2.56209E+3  -3.87152E+4
  -2.11592E+3  -3.89410E+4
  -1.80673E+3  -3.91707E+4
  -1.52192E+3  -3.92854E+4
  -1.05125E+3  -3.94781E+4
  -1.02890E+3  -3.94968E+4
  -4.21827E+2  -3.94483E+4
  -3.58231E+2  -3.97559E+4
   2.43482E+2  -3.98791E+4
   2.28814E+2  -3.99871E+4
   6.65983E+2  -4.01361E+4
   9.87439E+2  -4.02762E+4
   1.28746E+3  -4.03417E+4
   1.82943E+3  -4.06139E+4
   1.75626E+3  -4.03151E+4
   2.35208E+3  -4.03036E+4
   2.84499E+3  -4.04907E+4
   3.20609E+3  -4.05493E+4
   3.46929E+3  -4.08190E+4
   3.82413E+3  -4.05759E+4
   4.08747E+3  -4.07393E+4
   4.79072E+3  -4.05949E+4
   4.85227E+3  -4.04738E+4
   5.20348E+3  -4.06963E+4
   5.40613E+3  -4.07151E+4
   5.81059E+3  -4.06921E+4
   6.43746E+3  -4.04767E+4
   6.71599E+3  -4.01374E+4
   6.90563E+3  -3.99273E+4
   7.34351E+3  -3.99186E+4
   7.54896E+3  -3.98785E+4
   8.07134E+3  -3.99708E+4
   8.38365E+3  -3.97028E+4
   8.88572E+3  -3.98407E+4
   9.18040E+3  -3.97647E+4
   9.51426E+3  -3.94792E+4
   9.74947E+3  -3.92545E+4
   1.03062E+4  -3.91388E+4
   1.05736E+4  -3.87394E+4
   1.08687E+4  -3.89838E+4
   1.13742E+4  -3.84164E+4
   1.13337E+4  -3.85379E+4
   1.18237E+4  -3.80899E+4
   1.23062E+4  -3.79575E+4
   1.27159E+4  -3.77690E+4
   1.30106E+4  -3.74765E+4
   1.34098E+4  -3.74189E+4
   1.35615E+4  -3.71596E+4
   1.41882E+4  -3.67006E+4
   1.43159E+4  -3.62007E+4
   1.47107E+4  -3.59873E+4
   1.50711E+4  -3.57062E+4
   1.55170E+4  -3.57368E+4
   1.56981E+4  -3.53522E+4
   1.61638E+4  -3.49555E+4
   1.64699E+4  -3.48074E+4
   1.67105E+4  -3.44406E+4
   1.69652E+4  -3.41482E+4
   1.74463E+4  -3.39800E+4
   1.76367E+4  -3.35332E+4
   1.79504E+4  -3.31619E+4
   1.81498E+4  -3.29383E+4
   1.84882E+4  -3.26816E+4
   1.91220E+4  -3.21480E+4
   1.91410E+4  -3.18584E+4
   1.94832E+4  -3.15266E+4
   1.97480E+4  -3.12219E+4
   1.99032E+4  -3.09180E+4
   2.04435E+4  -3.04221E+4
   2.05337E+4  -3.00651E+4
   2.07341E+4  -2.96710E+4
   2.11206E+4  -2.94817E+4
   2.13227E+4  -2.91402E+4
   2.17551E+4  -2.86659E+4
   2.19780E+4  -2.81149E+4
   2.22698E+4  -2.78396E+4
   2.20552E+4  -2.76499E+4
   2.25890E+4  -2.71967E+4
   2.26325E+4  -2.68594E+4
   2.29349E+4  -2.65068E+4
   2.29460E+4  -2.59473E+4
   2.32466E+4  -2.58735E+4
   2.34296E+4  -2.53037E+4
   2.34698E+4  -2.47768E+4
   2.37807E+4  -2.47170E+4
   2.38325E+4  -2.42024E+4
   2.39882E+4  -2.37045E+4
   2.41227E+4  -2.33978E+4
   2.44900E+4  -2.30437E+4
   2.44141E+4  -2.26215E+4
   2.46689E+4  -2.24534E+4
   2.46720E+4  -2.17857E+4
   2.47646E+4  -2.16500E+4
   2.46397E+4  -2.11266E+4
   2.49551E+4  -2.06579E+4
   2.52435E+4  -2.03519E+4
   2.52131E+4  -1.99732E+4
   2.51299E+4  -1.94755E+4
   2.50792E+4  -1.89636E+4
   2.54239E+4  -1.89161E+4
   2.53000E+4  -1.86059E+4
   2.51865E+4  -1.81198E+4
   2.51226E+4  -1.78442E+4
