 LCModel (Version 6.3-1N) Copyright: S.W. Provencher.          Ref.: Magn. Reson. Med. 30:672-679 (1993).                
 Slice_N1@20_18  28-Feb-2025 11:41:36
 27 lines in following concentration table = NCONC+1
    Conc.  %SD /Cr+PCr  Metabolite                                         
 2.83E-04   4% 2.5E-04 Mac                                                 
    4.012  27%   3.614 Cr                                                  
    4.869  22%   4.386 PCr                                                 
    7.646  11%   6.888 Ins                                                 
   10.450   7%   9.413 NAA                                                 
    4.175  19%   3.761 Tau                                                 
    1.202  82%   1.083 PCho                                                
    1.012  90%   0.912 GPC                                                 
    7.794  12%   7.021 Glu                                                 
    3.986  19%   3.591 Gln                                                 
    0.000 999%   0.000 Ala                                                 
    2.173  52%   1.958 Asc                                                 
    2.998  33%   2.700 Asp                                                 
    1.172  44%   1.055 GABA                                                
    0.927  75%   0.835 Glc                                                 
    1.746  27%   1.573 GSH                                                 
    0.000 999%   0.000 Lac                                                 
    2.398  23%   2.160 NAAG                                                
    0.716 146%   0.645 PE                                                  
    2.214  13%   1.994 GPC+PCho                                            
   12.848   6%  11.573 NAA+NAAG                                            
   11.780  10%  10.612 Glu+Gln                                             
    8.881   8%   8.000 Cr+PCr                                              
   12.848   6%  11.573 NAA+NAAG                                            
    8.881   8%   8.000 Cr+PCr                                              
   11.780  10%  10.612 Glu+Gln                                             
   6 lines in following misc. output table
  FWHM = 0.024 ppm    S/N =   5                                            
  Data shift = 0.016 ppm                                                   
  Ph: -81 deg       0.0 deg/ppm                                            
  alphaB,S = 1.7E-01,   4.0E-01                                            
   19 spline knots.   Ns = 5(1)                                            
   2 inflections.     1 extrema                                            
  480 points on ppm-axis = NY
      4.100000     4.091866     4.083733     4.075600     4.067466     4.059333     4.051199     4.043066     4.034933     4.026799
      4.018666     4.010532     4.002399     3.994265     3.986132     3.977998     3.969864     3.961731     3.953597     3.945463
      3.937330     3.929196     3.921062     3.912929     3.904795     3.896662     3.888528     3.880394     3.872261     3.864127
      3.855993     3.847860     3.839726     3.831592     3.823459     3.815325     3.807191     3.799058     3.790924     3.782790
      3.774657     3.766523     3.758389     3.750256     3.742122     3.733989     3.725855     3.717721     3.709588     3.701454
      3.693320     3.685187     3.677053     3.668919     3.660786     3.652652     3.644518     3.636385     3.628251     3.620117
      3.611984     3.603850     3.595716     3.587583     3.579449     3.571316     3.563182     3.555048     3.546915     3.538781
      3.530647     3.522514     3.514380     3.506246     3.498113     3.489979     3.481845     3.473712     3.465578     3.457444
      3.449311     3.441177     3.433043     3.424910     3.416776     3.408643     3.400509     3.392375     3.384242     3.376108
      3.367974     3.359841     3.351707     3.343573     3.335440     3.327306     3.319172     3.311039     3.302905     3.294771
      3.286638     3.278504     3.270370     3.262237     3.254103     3.245970     3.237836     3.229702     3.221569     3.213435
      3.205301     3.197168     3.189034     3.180900     3.172767     3.164633     3.156499     3.148366     3.140232     3.132098
      3.123965     3.115831     3.107697     3.099564     3.091430     3.083297     3.075163     3.067029     3.058896     3.050762
      3.042628     3.034495     3.026361     3.018227     3.010094     3.001960     2.993826     2.985693     2.977559     2.969425
      2.961292     2.953158     2.945024     2.936891     2.928757     2.920624     2.912490     2.904356     2.896223     2.888089
      2.879955     2.871822     2.863688     2.855554     2.847421     2.839287     2.831153     2.823020     2.814886     2.806752
      2.798619     2.790485     2.782351     2.774218     2.766084     2.757951     2.749817     2.741683     2.733550     2.725416
      2.717282     2.709149     2.701015     2.692881     2.684748     2.676614     2.668480     2.660347     2.652213     2.644079
      2.635946     2.627812     2.619678     2.611545     2.603411     2.595278     2.587144     2.579010     2.570877     2.562743
      2.554609     2.546476     2.538342     2.530208     2.522075     2.513941     2.505807     2.497674     2.489540     2.481406
      2.473273     2.465139     2.457006     2.448872     2.440738     2.432605     2.424471     2.416337     2.408204     2.400070
      2.391936     2.383803     2.375669     2.367535     2.359402     2.351268     2.343134     2.335001     2.326867     2.318733
      2.310600     2.302466     2.294333     2.286199     2.278065     2.269932     2.261798     2.253664     2.245531     2.237397
      2.229263     2.221130     2.212996     2.204862     2.196729     2.188595     2.180461     2.172328     2.164194     2.156060
      2.147927     2.139793     2.131660     2.123526     2.115392     2.107259     2.099125     2.090991     2.082858     2.074724
      2.066590     2.058457     2.050323     2.042189     2.034056     2.025922     2.017788     2.009655     2.001521     1.993387
      1.985254     1.977120     1.968987     1.960853     1.952719     1.944586     1.936452     1.928318     1.920185     1.912051
      1.903917     1.895784     1.887650     1.879516     1.871383     1.863249     1.855115     1.846982     1.838848     1.830714
      1.822581     1.814447     1.806314     1.798180     1.790046     1.781913     1.773779     1.765645     1.757512     1.749378
      1.741244     1.733111     1.724977     1.716843     1.708710     1.700576     1.692442     1.684309     1.676175     1.668041
      1.659908     1.651774     1.643641     1.635507     1.627373     1.619240     1.611106     1.602972     1.594839     1.586705
      1.578571     1.570438     1.562304     1.554170     1.546037     1.537903     1.529769     1.521636     1.513502     1.505368
      1.497235     1.489101     1.480968     1.472834     1.464700     1.456567     1.448433     1.440299     1.432166     1.424032
      1.415898     1.407765     1.399631     1.391497     1.383364     1.375230     1.367096     1.358963     1.350829     1.342695
      1.334562     1.326428     1.318295     1.310161     1.302027     1.293894     1.285760     1.277626     1.269493     1.261359
      1.253225     1.245092     1.236958     1.228824     1.220691     1.212557     1.204423     1.196290     1.188156     1.180022
      1.171889     1.163755     1.155622     1.147488     1.139354     1.131221     1.123087     1.114953     1.106820     1.098686
      1.090552     1.082419     1.074285     1.066151     1.058018     1.049884     1.041750     1.033617     1.025483     1.017349
      1.009216     1.001082     0.992949     0.984815     0.976681     0.968548     0.960414     0.952280     0.944147     0.936013
      0.927879     0.919746     0.911612     0.903478     0.895345     0.887211     0.879077     0.870944     0.862810     0.854676
      0.846543     0.838409     0.830276     0.822142     0.814008     0.805875     0.797741     0.789607     0.781474     0.773340
      0.765206     0.757073     0.748939     0.740805     0.732672     0.724538     0.716404     0.708271     0.700137     0.692003
      0.683870     0.675736     0.667603     0.659469     0.651335     0.643202     0.635068     0.626934     0.618801     0.610667
      0.602533     0.594400     0.586266     0.578132     0.569999     0.561865     0.553731     0.545598     0.537464     0.529330
      0.521197     0.513063     0.504930     0.496796     0.488662     0.480529     0.472395     0.464261     0.456128     0.447994
      0.439861     0.431727     0.423593     0.415460     0.407326     0.399192     0.391059     0.382925     0.374792     0.366658
      0.358524     0.350391     0.342257     0.334124     0.325990     0.317856     0.309723     0.301589     0.293455     0.285322
      0.277188     0.269055     0.260921     0.252787     0.244654     0.236520     0.228386     0.220253     0.212119     0.203986
 NY phased data points follow
   2.11367E+01  1.27085E+01 -2.44214E+00  2.48997E+00  1.59762E+01  5.35152E+00 -1.73907E+00  1.49302E+01  1.50521E+01  8.52682E+00
  -1.64319E+00 -8.90275E+00 -2.46858E+01 -2.28989E+01 -4.39009E+00 -1.50164E+01 -2.34695E+01 -3.90339E+01 -4.42887E+01 -4.28620E+01
  -6.14865E+01 -5.06840E+01 -2.33965E+01 -1.05879E+01  1.02997E+01  2.88358E+01  3.41215E+01  4.07919E+01  3.71398E+01  4.67049E+01
   4.95489E+01  3.08113E+01  3.78355E+01  4.11652E+01  4.85682E+01  4.39216E+01  2.79563E+01  3.85916E+01  1.45776E+01  3.01660E+00
  -7.68945E+00 -2.61108E+01  3.17233E+00  6.81553E-01  8.88160E+00  2.96560E+01  5.13459E+01  7.94808E+01  5.97365E+01  7.03048E+01
   7.78589E+01  6.63651E+01  6.49818E+01  4.33205E+01  3.38446E+01  3.19179E+01  2.50921E+01  1.27236E+01  1.22084E+01  2.52185E+00
   4.88436E+00  3.40376E+01  3.11209E+01  4.13301E+01  6.69791E+01  7.19320E+01  6.84831E+01  4.92707E+01  1.39058E+01 -1.24640E+00
  -4.59904E+00 -7.21699E+00  1.50536E+01  2.97420E+01  4.57414E+01  6.06609E+01  6.57770E+01  7.12193E+01  6.32438E+01  6.21022E+01
   6.78394E+01  6.40984E+01  5.62263E+01  5.98451E+01  5.22864E+01  4.57292E+01  4.70003E+01  5.10466E+01  6.50923E+01  7.38155E+01
   9.13579E+01  8.13988E+01  8.69454E+01  1.03783E+02  8.32514E+01  9.40936E+01  1.07927E+02  1.13506E+02  1.17361E+02  1.03153E+02
   8.70299E+01  7.72267E+01  8.13453E+01  6.70213E+01  5.73552E+01  6.09283E+01  3.71730E+01  2.21101E+01  5.11250E+00 -2.79120E+01
  -7.86147E+01 -1.18888E+02 -8.67022E+01 -5.12904E+01 -3.12883E+01 -2.27515E+01 -9.91245E+00  4.28984E+00  7.31709E+00  3.58602E+01
   2.45815E+01  3.45723E+01  4.96692E+01  4.20295E+01  6.42240E+01  7.27968E+01  9.01398E+01  1.04714E+02  1.16760E+02  1.28659E+02
   1.58206E+02  1.57439E+02  1.00656E+02  1.74907E+01 -6.37017E+01 -6.42455E+01 -5.55864E+01 -5.01760E+01 -4.45417E+01 -3.68164E+01
  -2.42882E+01 -3.63847E+01 -4.18474E+01 -4.05338E+01 -2.99694E+01 -4.01440E+01 -4.34371E+01 -3.25322E+01 -2.54293E+01 -2.85093E+01
  -3.05005E+01 -1.93730E+01 -1.82693E+01 -1.45571E+01 -1.45777E+01 -3.90133E+00 -7.48850E+00  4.15477E+00  1.69818E+01  7.00577E-01
   6.26266E+00  1.27624E+01  1.79342E+01  1.53331E+01  8.07539E+00  4.75733E+00  8.18759E+00 -1.89380E+00  3.57416E+00  1.71682E+01
   1.28436E+01  2.59213E+01  3.73237E+01  5.17657E+01  3.09734E+01  2.99619E+01  4.69358E+01  3.18666E+01  3.57920E+01  1.63914E+01
  -4.25155E+00 -2.06823E+00 -2.42105E+00 -1.50865E+01 -2.97288E+01 -3.15857E+01 -2.89929E+01 -2.02666E+01 -1.07564E+01 -7.35592E-02
   5.57415E+00  5.44353E-01  1.07271E+01  2.04075E+01  8.02722E+00  1.64299E+01  1.77533E+01  1.19138E+01  2.30017E+01  2.35815E+01
   1.93621E+01  1.93912E+01  1.91400E+01  2.82507E+01  3.94207E+01  2.29781E+01  1.67298E+01  4.83802E+00 -8.98676E+00 -1.79219E+01
  -2.51231E+01 -1.53397E+01 -1.97081E+01 -1.27511E+00  1.69692E+01  3.10614E+01  4.41556E+01  5.86203E+01  5.47016E+01  2.76062E+01
   1.86994E+01  1.72502E+01  2.43983E+01  4.09749E+00  1.66631E+01  2.41499E+01  2.97150E+01  3.09691E+01 -1.06968E+00  1.75562E+01
   4.74358E+00  2.61586E+00  4.98272E+00 -2.85019E+00 -8.72423E+00 -2.63089E+01 -3.53093E+01 -4.69721E+01 -2.79121E+01 -4.68885E+01
  -4.18914E+01 -2.59994E+01 -2.43353E+01 -9.18848E+00 -1.08614E+01  8.48343E+00  2.81827E+00  9.68267E+00  1.13833E+01 -1.46776E+01
  -3.77315E+01 -4.76210E+01 -3.61141E+01 -3.79937E+01 -4.99707E+01 -6.40819E+01 -5.35080E+01 -3.96791E+00  1.18937E+02  2.11920E+02
   1.91062E+02  1.66501E+02  1.51250E+02  1.27421E+02  1.14596E+02  1.07378E+02  1.05992E+02  1.02675E+02  8.67542E+01  8.79246E+01
   9.46402E+01  9.50044E+01  9.73816E+01  9.27529E+01  9.82760E+01  9.78557E+01  9.60792E+01  1.14002E+02  1.17404E+02  9.85601E+01
   9.89366E+01  1.00268E+02  9.16646E+01  9.21658E+01  8.20522E+01  7.76948E+01  8.86255E+01  8.11739E+01  7.54399E+01  7.87415E+01
   5.88707E+01  6.75699E+01  7.08406E+01  4.57773E+01  4.97600E+01  4.62867E+01  3.74922E+01  3.71287E+01  4.23806E+01  3.74582E+01
   3.65798E+01  3.94790E+01  3.22890E+01  4.76147E+01  4.31994E+01  3.69045E+01  4.46510E+01  3.90343E+01  4.32753E+01  4.65203E+01
   4.34041E+01  3.66060E+01  3.59138E+01  4.96859E+01  4.89925E+01  3.54377E+01  4.06551E+01  4.73257E+01  3.23135E+01  2.97744E+01
   3.58394E+01  2.07333E+01  2.43099E+01  2.94106E+01  2.32425E+01  2.97803E+01  2.17059E+01  1.72639E+01  4.10735E+00  7.15374E+00
   3.68917E+01  2.73583E+01  1.76583E+01  1.62285E+01  1.22948E+01  2.53754E+01  3.49213E+01  4.06827E+01  4.45229E+01  5.08912E+01
   6.04184E+01  5.21592E+01  4.90262E+01  6.09285E+01  5.42697E+01  5.52339E+01  7.22714E+01  7.29790E+01  7.53493E+01  7.12508E+01
   5.56474E+01  5.20211E+01  4.70166E+01  4.93385E+01  4.34817E+01  3.12044E+01  3.34581E+01  2.40294E+01  1.61030E+01  1.37183E+01
   2.41528E+01  2.72396E+01  2.44013E+01  3.73929E+01  3.28125E+01  4.38479E+01  5.70527E+01  4.83370E+01  5.44918E+01  6.56626E+01
   5.68802E+01  6.62641E+01  8.47595E+01  7.06535E+01  8.25200E+01  9.29790E+01  8.60398E+01  9.57571E+01  1.04312E+02  9.61167E+01
   9.79838E+01  1.33800E+02  1.32539E+02  1.35175E+02  1.54913E+02  1.49790E+02  1.54092E+02  1.63052E+02  1.68376E+02  1.55014E+02
   1.53718E+02  1.48368E+02  1.29233E+02  1.16197E+02  9.75281E+01  9.75503E+01  9.53553E+01  9.07043E+01  8.42471E+01  7.30989E+01
   7.08857E+01  5.53689E+01  3.76808E+01  3.53303E+01  2.38680E+01  1.50895E+01  1.56556E+01  9.01184E+00  1.93227E+01  1.84134E+01
   4.64476E+00  1.16986E+01  2.44364E+01  1.46208E+01 -2.80419E-01  4.44564E+00  2.02768E+00  8.89176E+00  9.11365E+00  6.76443E+00
   1.80367E+01  1.19017E+01  1.04421E+01  1.16050E+01  6.04561E+00  9.56176E+00  6.83157E+00 -6.96630E-01  7.21864E+00  3.84525E+00
   7.90230E+00  1.72343E+01  1.75010E+01  1.86246E+01  1.00772E+01  1.84885E+01  7.95731E+00  6.55598E+00  2.04182E+01  1.99574E+01
   1.80318E+01  4.05710E+00  1.75765E+01  1.69331E+01  1.19181E+01  1.25495E+01  4.72321E+00  9.08163E+00 -1.21310E+00  1.09146E+01
   2.02573E+01  1.42033E+01  1.72108E+01  1.37249E+01  1.08866E+01  8.98380E+00  7.91159E+00  7.53130E+00  1.10740E+01  4.51759E+00
   8.62669E+00  1.65339E+01  1.31825E+01  1.99883E+01  9.82246E+00  1.13702E+01  1.85491E+01  9.17336E+00  1.06662E+01  1.48113E+01
   2.30875E+01  1.14796E+01  9.24701E+00  2.00906E+01  1.93388E+01  2.54999E+01  1.37237E+01  1.44549E+01  1.87214E+01  9.95028E+00
 NY points of the fit to the data follow
  -8.74949E-02 -6.82029E+00 -1.54690E+01 -2.11219E+01 -1.93105E+01 -7.84894E+00  9.67932E+00  2.04269E+01  1.60015E+01  5.75939E+00
  -1.92754E+00 -6.34652E+00 -8.52333E+00 -9.87297E+00 -1.14955E+01 -1.51366E+01 -1.91424E+01 -2.58416E+01 -3.67455E+01 -4.79050E+01
  -5.44573E+01 -5.19593E+01 -2.81969E+01 -1.81471E-01  1.29283E+01  3.90275E+01  5.61971E+01  5.44073E+01  5.75056E+01  5.82764E+01
   5.91626E+01  5.80790E+01  5.55590E+01  5.31043E+01  4.95331E+01  4.52523E+01  4.09296E+01  3.43011E+01  2.22311E+01  4.27673E+00
  -1.23212E+01 -2.11500E+01 -1.24218E+01  7.76546E+00  2.34604E+01  3.87516E+01  5.13267E+01  5.99489E+01  6.31939E+01  6.38163E+01
   6.27307E+01  5.89139E+01  5.33184E+01  4.38394E+01  3.28806E+01  2.37909E+01  1.73496E+01  1.29683E+01  1.14264E+01  8.17892E+00
   7.95031E+00  2.28741E+01  3.36215E+01  3.91305E+01  5.65419E+01  6.72290E+01  6.50532E+01  5.41699E+01  3.35255E+01  1.19836E+01
  -1.33908E+00  5.52261E+00  2.10551E+01  2.83111E+01  4.10093E+01  5.79149E+01  6.63551E+01  6.98881E+01  7.12558E+01  7.12500E+01
   6.96791E+01  6.42646E+01  5.51123E+01  4.54919E+01  3.75604E+01  3.46164E+01  4.02491E+01  4.84107E+01  5.88297E+01  6.76105E+01
   7.24395E+01  7.71666E+01  8.08133E+01  8.45195E+01  8.80156E+01  9.13273E+01  9.38126E+01  9.46131E+01  9.39238E+01  9.21830E+01
   8.80083E+01  8.54988E+01  8.10742E+01  6.75194E+01  5.68183E+01  5.28070E+01  4.78175E+01  4.29869E+01  2.25100E+01 -2.27106E+01
  -8.10543E+01 -1.12353E+02 -8.24536E+01 -4.67038E+01 -2.61588E+01 -1.12403E+01 -2.53178E+00  5.31778E+00  1.26557E+01  1.96355E+01
   2.62864E+01  3.34105E+01  4.12051E+01  5.00576E+01  6.04075E+01  7.23032E+01  8.53309E+01  9.74817E+01  1.13218E+02  1.35676E+02
   1.54140E+02  1.47049E+02  1.02433E+02  1.30742E+01 -6.55530E+01 -7.10343E+01 -5.50991E+01 -4.62634E+01 -3.82047E+01 -3.60695E+01
  -3.54636E+01 -3.46092E+01 -3.47544E+01 -3.54948E+01 -3.51610E+01 -3.40391E+01 -3.21856E+01 -2.87721E+01 -2.53730E+01 -2.21877E+01
  -1.96828E+01 -1.76207E+01 -1.54123E+01 -1.31126E+01 -9.91118E+00 -6.30544E+00 -3.45857E+00 -2.20372E+00 -2.48080E+00 -2.31417E+00
   1.89711E-01  3.54673E+00  5.28338E+00  3.80117E+00  4.20326E-01 -3.31280E-01  1.22362E+00  2.12250E+00  1.62716E+00  3.39040E+00
   1.20782E+01  2.52614E+01  3.60466E+01  3.73520E+01  2.97202E+01  2.51943E+01  3.14287E+01  3.85329E+01  3.39181E+01  2.04003E+01
   5.35419E+00 -2.99892E+00 -5.78112E+00 -9.43849E+00 -1.09267E+01 -1.11324E+01 -1.08120E+01 -9.86953E+00 -8.75274E+00 -6.59718E+00
  -4.32614E+00 -1.99014E+00  2.97529E+00  7.79319E+00  1.38483E+01  2.24870E+01  2.19015E+01  1.94710E+01  2.59281E+01  2.67791E+01
   2.56216E+01  2.56593E+01  2.60737E+01  3.17949E+01  3.04522E+01  2.39941E+01  1.76189E+01  1.07879E+01  4.06735E+00 -3.73182E+00
  -8.67390E+00 -1.08417E+01 -1.00569E+01 -3.42624E+00  1.17643E+01  2.80752E+01  4.43187E+01  5.67492E+01  5.28909E+01  4.99284E+01
   4.30207E+01  3.33623E+01  3.49929E+01  3.70002E+01  4.01858E+01  4.14531E+01  3.72800E+01  3.09075E+01  2.12690E+01  9.46198E+00
  -2.17953E+00 -1.39627E+01 -2.48502E+01 -3.43797E+01 -4.12480E+01 -4.66663E+01 -4.95700E+01 -4.74104E+01 -4.57299E+01 -4.13937E+01
  -3.40136E+01 -2.93038E+01 -2.25927E+01 -1.27647E+01 -7.51281E+00 -2.99963E+00 -1.77661E+00 -6.77349E+00 -1.03820E+01 -1.94916E+01
  -2.98749E+01 -3.86542E+01 -4.35837E+01 -4.75049E+01 -5.58472E+01 -6.46293E+01 -5.64911E+01 -1.38031E+01  1.01892E+02  1.84213E+02
   1.66662E+02  1.51400E+02  1.31662E+02  1.20490E+02  1.14466E+02  1.09314E+02  1.03987E+02  9.84933E+01  9.36120E+01  8.99263E+01
   8.72032E+01  8.66428E+01  8.70771E+01  8.77078E+01  8.94991E+01  8.97453E+01  9.01045E+01  9.00225E+01  8.90152E+01  8.79758E+01
   8.59522E+01  8.37238E+01  8.14071E+01  7.91896E+01  7.70387E+01  7.45073E+01  7.19106E+01  6.93790E+01  6.63884E+01  6.29352E+01
   5.91785E+01  5.48857E+01  5.09453E+01  4.72554E+01  4.42921E+01  4.30100E+01  4.33464E+01  4.50420E+01  4.74148E+01  4.99550E+01
   5.23785E+01  5.50056E+01  5.77395E+01  6.02301E+01  6.23544E+01  6.43894E+01  6.64142E+01  6.86648E+01  7.11829E+01  7.38291E+01
   7.59528E+01  7.75962E+01  7.90724E+01  8.03504E+01  8.15414E+01  8.21857E+01  8.20867E+01  8.14087E+01  8.00244E+01  7.77443E+01
   7.51016E+01  7.23435E+01  6.89719E+01  6.50015E+01  6.07742E+01  5.54948E+01  4.87942E+01  4.04059E+01  3.06803E+01  2.15483E+01
   1.37750E+01  7.81313E+00  4.03076E+00  3.16161E+00  4.99726E+00  8.97694E+00  1.39376E+01  1.83211E+01  2.16104E+01  2.38108E+01
   2.59027E+01  2.84766E+01  3.22609E+01  3.68695E+01  4.08836E+01  4.42340E+01  4.61916E+01  4.67522E+01  4.69902E+01  4.65598E+01
   4.54042E+01  4.28815E+01  3.92295E+01  3.49245E+01  3.02866E+01  2.66975E+01  2.50012E+01  2.48783E+01  2.60393E+01  2.84027E+01
   3.14395E+01  3.50274E+01  3.89773E+01  4.28749E+01  4.67222E+01  5.00867E+01  5.31341E+01  5.63528E+01  5.93629E+01  6.26569E+01
   6.59068E+01  6.90005E+01  7.23063E+01  7.59619E+01  8.01440E+01  8.46789E+01  8.98499E+01  9.54492E+01  1.01570E+02  1.08558E+02
   1.15665E+02  1.23009E+02  1.30819E+02  1.38915E+02  1.45949E+02  1.50858E+02  1.52505E+02  1.49669E+02  1.42399E+02  1.31651E+02
   1.19746E+02  1.09094E+02  1.00328E+02  9.34238E+01  8.70483E+01  8.08918E+01  7.35958E+01  6.47673E+01  5.52904E+01  4.63321E+01
   3.83554E+01  3.18394E+01  2.72894E+01  2.39887E+01  2.14206E+01  1.96526E+01  1.86143E+01  1.76253E+01  1.66765E+01  1.56044E+01
   1.49291E+01  1.44778E+01  1.43947E+01  1.43591E+01  1.42757E+01  1.41880E+01  1.42565E+01  1.42852E+01  1.40358E+01  1.39172E+01
   1.41649E+01  1.45392E+01  1.43364E+01  1.41669E+01  1.42935E+01  1.42736E+01  1.41765E+01  1.41171E+01  1.44027E+01  1.47817E+01
   1.50372E+01  1.48853E+01  1.45684E+01  1.43040E+01  1.42583E+01  1.43434E+01  1.46567E+01  1.49835E+01  1.50009E+01  1.51872E+01
   1.51831E+01  1.52276E+01  1.52560E+01  1.51545E+01  1.48439E+01  1.46320E+01  1.46140E+01  1.47228E+01  1.50752E+01  1.50502E+01
   1.49925E+01  1.49723E+01  1.47485E+01  1.48709E+01  1.51985E+01  1.53773E+01  1.54340E+01  1.55073E+01  1.55305E+01  1.55882E+01
   1.56678E+01  1.55680E+01  1.53475E+01  1.49960E+01  1.49825E+01  1.49454E+01  1.52075E+01  1.56815E+01  1.61976E+01  1.64337E+01
   1.61299E+01  1.55978E+01  1.52111E+01  1.50962E+01  1.52902E+01  1.54492E+01  1.55038E+01  1.54445E+01  1.53979E+01  1.51892E+01
 NY background values follow
     2.876E+01    2.881E+01    2.887E+01    2.893E+01    2.899E+01    2.905E+01    2.911E+01    2.917E+01    2.923E+01    2.930E+01
     2.936E+01    2.942E+01    2.949E+01    2.955E+01    2.962E+01    2.969E+01    2.976E+01    2.983E+01    2.990E+01    2.997E+01
     3.004E+01    3.012E+01    3.020E+01    3.028E+01    3.036E+01    3.044E+01    3.053E+01    3.062E+01    3.070E+01    3.080E+01
     3.089E+01    3.099E+01    3.108E+01    3.118E+01    3.129E+01    3.139E+01    3.150E+01    3.160E+01    3.171E+01    3.182E+01
     3.194E+01    3.205E+01    3.216E+01    3.228E+01    3.239E+01    3.251E+01    3.263E+01    3.275E+01    3.287E+01    3.299E+01
     3.311E+01    3.323E+01    3.335E+01    3.347E+01    3.359E+01    3.371E+01    3.383E+01    3.395E+01    3.407E+01    3.419E+01
     3.431E+01    3.443E+01    3.455E+01    3.466E+01    3.478E+01    3.489E+01    3.501E+01    3.512E+01    3.523E+01    3.534E+01
     3.545E+01    3.556E+01    3.566E+01    3.577E+01    3.587E+01    3.597E+01    3.607E+01    3.617E+01    3.626E+01    3.635E+01
     3.645E+01    3.653E+01    3.662E+01    3.671E+01    3.679E+01    3.687E+01    3.695E+01    3.702E+01    3.709E+01    3.716E+01
     3.723E+01    3.729E+01    3.735E+01    3.741E+01    3.747E+01    3.752E+01    3.757E+01    3.762E+01    3.766E+01    3.771E+01
     3.775E+01    3.778E+01    3.782E+01    3.785E+01    3.788E+01    3.791E+01    3.794E+01    3.796E+01    3.798E+01    3.800E+01
     3.801E+01    3.803E+01    3.804E+01    3.805E+01    3.806E+01    3.806E+01    3.806E+01    3.806E+01    3.806E+01    3.806E+01
     3.806E+01    3.805E+01    3.804E+01    3.803E+01    3.802E+01    3.800E+01    3.799E+01    3.797E+01    3.795E+01    3.792E+01
     3.790E+01    3.787E+01    3.785E+01    3.781E+01    3.778E+01    3.775E+01    3.771E+01    3.767E+01    3.763E+01    3.759E+01
     3.755E+01    3.750E+01    3.745E+01    3.740E+01    3.735E+01    3.730E+01    3.724E+01    3.718E+01    3.712E+01    3.706E+01
     3.700E+01    3.693E+01    3.686E+01    3.679E+01    3.672E+01    3.665E+01    3.657E+01    3.650E+01    3.642E+01    3.634E+01
     3.626E+01    3.617E+01    3.609E+01    3.600E+01    3.592E+01    3.583E+01    3.574E+01    3.565E+01    3.555E+01    3.546E+01
     3.536E+01    3.527E+01    3.517E+01    3.507E+01    3.497E+01    3.487E+01    3.477E+01    3.467E+01    3.457E+01    3.446E+01
     3.436E+01    3.426E+01    3.415E+01    3.405E+01    3.394E+01    3.383E+01    3.373E+01    3.362E+01    3.351E+01    3.340E+01
     3.330E+01    3.319E+01    3.308E+01    3.297E+01    3.286E+01    3.276E+01    3.265E+01    3.254E+01    3.244E+01    3.233E+01
     3.223E+01    3.212E+01    3.202E+01    3.191E+01    3.181E+01    3.171E+01    3.161E+01    3.151E+01    3.141E+01    3.131E+01
     3.122E+01    3.112E+01    3.103E+01    3.093E+01    3.084E+01    3.075E+01    3.066E+01    3.057E+01    3.047E+01    3.038E+01
     3.029E+01    3.020E+01    3.011E+01    3.002E+01    2.993E+01    2.983E+01    2.974E+01    2.965E+01    2.955E+01    2.946E+01
     2.936E+01    2.926E+01    2.916E+01    2.906E+01    2.896E+01    2.885E+01    2.874E+01    2.863E+01    2.852E+01    2.841E+01
     2.829E+01    2.818E+01    2.805E+01    2.793E+01    2.780E+01    2.768E+01    2.755E+01    2.741E+01    2.728E+01    2.714E+01
     2.700E+01    2.685E+01    2.671E+01    2.656E+01    2.641E+01    2.625E+01    2.610E+01    2.594E+01    2.578E+01    2.561E+01
     2.545E+01    2.528E+01    2.511E+01    2.493E+01    2.476E+01    2.458E+01    2.440E+01    2.421E+01    2.403E+01    2.384E+01
     2.364E+01    2.345E+01    2.325E+01    2.306E+01    2.286E+01    2.266E+01    2.246E+01    2.226E+01    2.206E+01    2.186E+01
     2.166E+01    2.147E+01    2.128E+01    2.109E+01    2.090E+01    2.071E+01    2.053E+01    2.036E+01    2.019E+01    2.002E+01
     1.986E+01    1.971E+01    1.956E+01    1.941E+01    1.928E+01    1.915E+01    1.903E+01    1.892E+01    1.882E+01    1.873E+01
     1.864E+01    1.857E+01    1.851E+01    1.845E+01    1.841E+01    1.837E+01    1.834E+01    1.833E+01    1.832E+01    1.832E+01
     1.833E+01    1.835E+01    1.838E+01    1.841E+01    1.846E+01    1.851E+01    1.857E+01    1.864E+01    1.872E+01    1.881E+01
     1.890E+01    1.900E+01    1.911E+01    1.923E+01    1.936E+01    1.949E+01    1.963E+01    1.978E+01    1.994E+01    2.010E+01
     2.027E+01    2.045E+01    2.063E+01    2.083E+01    2.102E+01    2.122E+01    2.143E+01    2.164E+01    2.186E+01    2.208E+01
     2.231E+01    2.253E+01    2.276E+01    2.300E+01    2.323E+01    2.347E+01    2.371E+01    2.395E+01    2.419E+01    2.443E+01
     2.467E+01    2.491E+01    2.515E+01    2.539E+01    2.563E+01    2.586E+01    2.610E+01    2.633E+01    2.656E+01    2.678E+01
     2.700E+01    2.722E+01    2.743E+01    2.764E+01    2.785E+01    2.805E+01    2.824E+01    2.843E+01    2.862E+01    2.880E+01
     2.898E+01    2.915E+01    2.931E+01    2.947E+01    2.963E+01    2.978E+01    2.992E+01    3.005E+01    3.018E+01    3.031E+01
     3.042E+01    3.053E+01    3.064E+01    3.073E+01    3.082E+01    3.090E+01    3.098E+01    3.105E+01    3.110E+01    3.116E+01
     3.120E+01    3.123E+01    3.126E+01    3.128E+01    3.129E+01    3.130E+01    3.130E+01    3.129E+01    3.127E+01    3.125E+01
     3.122E+01    3.118E+01    3.114E+01    3.109E+01    3.104E+01    3.098E+01    3.091E+01    3.084E+01    3.076E+01    3.068E+01
     3.059E+01    3.049E+01    3.039E+01    3.029E+01    3.018E+01    3.007E+01    2.995E+01    2.983E+01    2.970E+01    2.957E+01
     2.944E+01    2.930E+01    2.916E+01    2.901E+01    2.887E+01    2.871E+01    2.856E+01    2.840E+01    2.824E+01    2.808E+01
     2.791E+01    2.774E+01    2.757E+01    2.740E+01    2.722E+01    2.704E+01    2.686E+01    2.668E+01    2.650E+01    2.632E+01
     2.613E+01    2.594E+01    2.576E+01    2.557E+01    2.538E+01    2.519E+01    2.500E+01    2.481E+01    2.461E+01    2.442E+01
     2.423E+01    2.404E+01    2.385E+01    2.365E+01    2.346E+01    2.327E+01    2.308E+01    2.288E+01    2.269E+01    2.250E+01
     2.231E+01    2.211E+01    2.192E+01    2.173E+01    2.154E+01    2.134E+01    2.115E+01    2.096E+01    2.077E+01    2.057E+01
     2.038E+01    2.019E+01    1.999E+01    1.980E+01    1.961E+01    1.942E+01    1.922E+01    1.903E+01    1.884E+01    1.865E+01
 Mac      Conc. = 2.83E-04
   8.36906E+00  7.97475E+00  7.88493E+00  7.64852E+00  7.16766E+00  6.16077E+00  4.64628E+00  2.69292E+00  9.48270E-01 -2.66259E-01
  -7.94909E-01 -7.55196E-01 -6.88585E-01 -1.11114E+00 -2.33582E+00 -4.06968E+00 -4.93007E+00 -3.47594E+00  6.27321E-01  6.21531E+00
   1.05236E+01  1.35991E+01  1.67773E+01  1.86453E+01  1.95418E+01  2.04546E+01  2.19152E+01  2.38490E+01  2.58715E+01  2.79631E+01
   2.95401E+01  3.05773E+01  3.13352E+01  3.17292E+01  3.14997E+01  3.12595E+01  3.19376E+01  3.39210E+01  3.66475E+01  3.86696E+01
   3.92150E+01  3.87795E+01  3.88613E+01  4.00396E+01  4.15398E+01  4.28839E+01  4.33122E+01  4.27858E+01  4.18519E+01  4.05485E+01
   3.92626E+01  3.81147E+01  3.74577E+01  3.69737E+01  3.66791E+01  3.69182E+01  3.74816E+01  3.86137E+01  4.02267E+01  4.18049E+01
   4.30795E+01  4.43547E+01  4.52725E+01  4.48964E+01  4.39824E+01  4.31307E+01  4.23673E+01  4.20687E+01  4.18953E+01  4.21078E+01
   4.32880E+01  4.57430E+01  4.88197E+01  5.09134E+01  5.17766E+01  5.20692E+01  5.15597E+01  5.07632E+01  5.00079E+01  4.91743E+01
   4.89122E+01  4.87063E+01  4.87345E+01  4.91888E+01  5.00827E+01  5.11450E+01  5.19695E+01  5.27669E+01  5.35698E+01  5.41183E+01
   5.44933E+01  5.49297E+01  5.51287E+01  5.49499E+01  5.42502E+01  5.27267E+01  5.03186E+01  4.76233E+01  4.51878E+01  4.29865E+01
   4.11922E+01  3.93440E+01  3.68526E+01  3.33811E+01  2.90143E+01  2.31873E+01  1.64594E+01  1.01530E+01  6.10286E+00  5.35691E+00
