 
 $NMID
 ID=''
 FMTDAT='(2E13.5)'
 TRAMP=   1.00000E+0
 VOLUME=   1.00000E+0
 $END
   6.92829E+5   8.61643E+4
   1.64280E+6   9.15408E+5
   1.70049E+6   7.08716E+5
   1.57886E+6   7.11888E+5
   1.65367E+6   7.20665E+5
   1.68088E+6   5.81106E+5
   1.63675E+6   5.37202E+5
   1.67132E+6   5.41035E+5
   1.66598E+6   4.81749E+5
   1.62480E+6   4.76555E+5
   1.64035E+6   4.73591E+5
   1.62684E+6   4.27623E+5
   1.59555E+6   4.20918E+5
   1.60073E+6   4.21756E+5
   1.57775E+6   3.98793E+5
   1.54811E+6   3.95475E+5
   1.55557E+6   3.81727E+5
   1.54242E+6   3.44421E+5
   1.51840E+6   3.22955E+5
   1.51985E+6   2.90013E+5
   1.50412E+6   2.54217E+5
   1.48313E+6   2.38696E+5
   1.47740E+6   2.17204E+5
   1.45838E+6   1.88513E+5
   1.43505E+6   1.78868E+5
   1.42372E+6   1.60213E+5
   1.40426E+6   1.46177E+5
   1.38287E+6   1.47874E+5
   1.36599E+6   1.41392E+5
   1.34353E+6   1.23253E+5
   1.32566E+6   1.12943E+5
   1.30976E+6   9.51359E+4
   1.28719E+6   7.46221E+4
   1.26746E+6   5.89307E+4
   1.24904E+6   3.62613E+4
   1.22709E+6   9.06303E+3
   1.20914E+6  -1.16133E+4
   1.19185E+6  -2.93039E+4
   1.16662E+6  -4.37615E+4
   1.14532E+6  -5.47384E+4
   1.12609E+6  -6.48083E+4
   1.10324E+6  -7.30084E+4
   1.08045E+6  -8.00437E+4
   1.06060E+6  -8.83741E+4
   1.03850E+6  -9.40244E+4
   1.01843E+6  -9.81875E+4
   9.98244E+5  -1.05335E+5
   9.76136E+5  -1.12457E+5
   9.53355E+5  -1.21798E+5
   9.31828E+5  -1.31884E+5
   9.09918E+5  -1.41297E+5
   8.88824E+5  -1.49342E+5
   8.67773E+5  -1.58107E+5
   8.46655E+5  -1.65376E+5
   8.25708E+5  -1.71311E+5
   8.04862E+5  -1.75804E+5
   7.84138E+5  -1.78451E+5
   7.63514E+5  -1.80826E+5
   7.42611E+5  -1.84133E+5
   7.22940E+5  -1.87357E+5
   7.03734E+5  -1.90141E+5
   6.84386E+5  -1.92155E+5
   6.65154E+5  -1.94867E+5
   6.45527E+5  -1.96797E+5
   6.25923E+5  -1.99511E+5
   6.05945E+5  -2.01800E+5
   5.86468E+5  -2.04411E+5
   5.67895E+5  -2.06387E+5
   5.49346E+5  -2.08194E+5
   5.32361E+5  -2.09037E+5
   5.14875E+5  -2.09006E+5
   4.96864E+5  -2.08892E+5
   4.79608E+5  -2.09083E+5
   4.63240E+5  -2.08757E+5
   4.46699E+5  -2.07774E+5
   4.29723E+5  -2.07178E+5
   4.13391E+5  -2.06936E+5
   3.97408E+5  -2.06319E+5
   3.81705E+5  -2.05899E+5
   3.65936E+5  -2.05283E+5
   3.50773E+5  -2.04253E+5
   3.35361E+5  -2.03254E+5
   3.20482E+5  -2.01705E+5
   3.06690E+5  -1.99941E+5
   2.93072E+5  -1.97804E+5
   2.79735E+5  -1.95032E+5
   2.65928E+5  -1.92762E+5
   2.53298E+5  -1.90109E+5
   2.40731E+5  -1.87741E+5
   2.28876E+5  -1.84875E+5
   2.16181E+5  -1.82563E+5
   2.04166E+5  -1.80376E+5
   1.92941E+5  -1.78329E+5
   1.81534E+5  -1.75993E+5
   1.70105E+5  -1.73837E+5
   1.59106E+5  -1.71438E+5
   1.48422E+5  -1.69541E+5
   1.38537E+5  -1.67408E+5
   1.28296E+5  -1.64886E+5
   1.18961E+5  -1.62208E+5
   1.09720E+5  -1.59681E+5
   1.00865E+5  -1.56835E+5
   9.23997E+4  -1.54103E+5
   8.42167E+4  -1.51170E+5
   7.60892E+4  -1.48439E+5
   6.82136E+4  -1.45748E+5
   6.05160E+4  -1.43197E+5
   5.37851E+4  -1.40510E+5
   4.70883E+4  -1.37382E+5
   3.97691E+4  -1.35078E+5
   3.32390E+4  -1.32582E+5
   2.69628E+4  -1.30346E+5
   2.09379E+4  -1.27628E+5
   1.54208E+4  -1.25072E+5
   9.88333E+3  -1.22733E+5
   4.64881E+3  -1.20264E+5
  -3.36301E+2  -1.17957E+5
  -4.86695E+3  -1.15688E+5
  -9.57666E+3  -1.13286E+5
  -1.38493E+4  -1.11118E+5
  -1.82356E+4  -1.08769E+5
  -2.20712E+4  -1.06871E+5
  -2.58391E+4  -1.04775E+5
  -2.99049E+4  -1.02436E+5
  -3.36037E+4  -1.00685E+5
  -3.67063E+4  -9.84359E+4
  -3.97759E+4  -9.67660E+4
  -4.28714E+4  -9.46192E+4
  -4.59443E+4  -9.26548E+4
  -4.89033E+4  -9.09749E+4
  -5.11003E+4  -8.94609E+4
  -5.35042E+4  -8.80881E+4
  -5.56312E+4  -8.63816E+4
  -5.80302E+4  -8.47594E+4
  -6.04041E+4  -8.33818E+4
  -6.24545E+4  -8.20887E+4
  -6.42694E+4  -8.06451E+4
  -6.63060E+4  -7.93243E+4
  -6.82031E+4  -7.81540E+4
  -7.01457E+4  -7.72079E+4
  -7.14183E+4  -7.59501E+4
  -7.28816E+4  -7.48690E+4
  -7.44940E+4  -7.34341E+4
  -7.56771E+4  -7.23877E+4
  -7.73776E+4  -7.11389E+4
  -7.83490E+4  -7.04145E+4
  -7.92440E+4  -6.92836E+4
  -8.02841E+4  -6.82627E+4
  -8.11681E+4  -6.71467E+4
  -8.20907E+4  -6.61498E+4
  -8.28763E+4  -6.53577E+4
  -8.36889E+4  -6.42588E+4
  -8.47940E+4  -6.33941E+4
  -8.55534E+4  -6.22180E+4
  -8.61751E+4  -6.17306E+4
  -8.68130E+4  -6.08302E+4
  -8.74470E+4  -5.94605E+4
  -8.79512E+4  -5.86021E+4
  -8.80679E+4  -5.76946E+4
  -8.84311E+4  -5.70001E+4
  -8.91565E+4  -5.61354E+4
  -8.91332E+4  -5.54356E+4
  -8.91673E+4  -5.42946E+4
  -8.91031E+4  -5.35772E+4
  -8.94044E+4  -5.27931E+4
  -8.93899E+4  -5.17815E+4
  -8.95348E+4  -5.08579E+4
  -8.95256E+4  -5.02551E+4
  -8.93363E+4  -4.96027E+4
  -8.91126E+4  -4.87372E+4
  -8.89477E+4  -4.79201E+4
  -8.86701E+4  -4.70455E+4
  -8.85424E+4  -4.64713E+4
  -8.81069E+4  -4.60044E+4
  -8.76257E+4  -4.51477E+4
  -8.72927E+4  -4.44082E+4
  -8.68276E+4  -4.37363E+4
  -8.67167E+4  -4.32266E+4
  -8.59411E+4  -4.29053E+4
  -8.54199E+4  -4.21981E+4
  -8.50732E+4  -4.16134E+4
  -8.44012E+4  -4.11149E+4
  -8.37953E+4  -4.08675E+4
  -8.30304E+4  -4.05149E+4
  -8.23658E+4  -3.96779E+4
  -8.18262E+4  -3.94114E+4
  -8.13109E+4  -3.88158E+4
  -8.04651E+4  -3.84719E+4
  -7.99274E+4  -3.79208E+4
  -7.92823E+4  -3.71901E+4
  -7.87080E+4  -3.72334E+4
  -7.78377E+4  -3.71452E+4
  -7.70312E+4  -3.66389E+4
  -7.61583E+4  -3.63042E+4
  -7.54684E+4  -3.61006E+4
  -7.49819E+4  -3.60726E+4
  -7.39755E+4  -3.54981E+4
  -7.31855E+4  -3.54978E+4
  -7.21573E+4  -3.54435E+4
  -7.15159E+4  -3.51331E+4
  -7.04930E+4  -3.51677E+4
  -6.95736E+4  -3.50027E+4
  -6.86070E+4  -3.49355E+4
  -6.79066E+4  -3.44898E+4
  -6.75779E+4  -3.42387E+4
  -6.64101E+4  -3.43304E+4
  -6.55033E+4  -3.45224E+4
  -6.48453E+4  -3.41444E+4
  -6.40327E+4  -3.41872E+4
  -6.32240E+4  -3.39925E+4
  -6.22950E+4  -3.40769E+4
  -6.13906E+4  -3.39794E+4
  -6.08198E+4  -3.38032E+4
  -5.99482E+4  -3.38324E+4
  -5.91848E+4  -3.39192E+4
  -5.79852E+4  -3.38165E+4
  -5.72362E+4  -3.35347E+4
  -5.64613E+4  -3.34785E+4
  -5.56066E+4  -3.34333E+4
  -5.50728E+4  -3.34099E+4
  -5.42556E+4  -3.31633E+4
  -5.34438E+4  -3.30421E+4
  -5.27391E+4  -3.32145E+4
  -5.20806E+4  -3.29441E+4
  -5.13354E+4  -3.29458E+4
  -5.00699E+4  -3.26092E+4
  -4.95686E+4  -3.25703E+4
  -4.89415E+4  -3.24266E+4
  -4.81712E+4  -3.23620E+4
  -4.74939E+4  -3.24133E+4
  -4.66231E+4  -3.22634E+4
  -4.61409E+4  -3.20398E+4
  -4.51892E+4  -3.17266E+4
  -4.46075E+4  -3.17956E+4
  -4.38308E+4  -3.13240E+4
  -4.33024E+4  -3.12698E+4
  -4.25983E+4  -3.12189E+4
  -4.19296E+4  -3.09850E+4
  -4.11967E+4  -3.06628E+4
  -4.02792E+4  -3.06642E+4
  -3.97379E+4  -3.03615E+4
  -3.91727E+4  -3.01499E+4
  -3.86015E+4  -2.97436E+4
  -3.77073E+4  -2.99346E+4
  -3.72998E+4  -2.96864E+4
  -3.63753E+4  -2.92949E+4
  -3.59957E+4  -2.92399E+4
  -3.52469E+4  -2.87858E+4
  -3.45264E+4  -2.87781E+4
  -3.39653E+4  -2.83072E+4
  -3.32851E+4  -2.81598E+4
  -3.26231E+4  -2.79338E+4
  -3.21214E+4  -2.77030E+4
  -3.11263E+4  -2.72977E+4
  -3.05567E+4  -2.71175E+4
  -2.99587E+4  -2.69262E+4
  -2.94280E+4  -2.66874E+4
  -2.84709E+4  -2.67168E+4
  -2.77476E+4  -2.62660E+4
  -2.73253E+4  -2.61945E+4
  -2.64240E+4  -2.61449E+4
  -2.59739E+4  -2.56472E+4
  -2.51116E+4  -2.56724E+4
  -2.43079E+4  -2.55762E+4
  -2.37925E+4  -2.49385E+4
  -2.32537E+4  -2.47261E+4
  -2.24292E+4  -2.46407E+4
  -2.14896E+4  -2.45181E+4
  -2.09442E+4  -2.41214E+4
  -2.03041E+4  -2.40759E+4
  -1.93415E+4  -2.36120E+4
  -1.90604E+4  -2.34797E+4
  -1.81407E+4  -2.32389E+4
  -1.76758E+4  -2.31460E+4
  -1.68018E+4  -2.29014E+4
  -1.63036E+4  -2.27149E+4
  -1.54435E+4  -2.25464E+4
  -1.48165E+4  -2.22692E+4
  -1.40230E+4  -2.20402E+4
  -1.35217E+4  -2.19355E+4
  -1.28071E+4  -2.16587E+4
  -1.22720E+4  -2.14974E+4
  -1.17314E+4  -2.12478E+4
  -1.11164E+4  -2.11349E+4
  -1.03924E+4  -2.10495E+4
  -9.87073E+3  -2.05975E+4
  -9.08494E+3  -2.04274E+4
  -8.44532E+3  -2.00584E+4
  -8.47290E+3  -1.96400E+4
  -7.64775E+3  -1.95795E+4
  -6.81958E+3  -1.91619E+4
  -6.34330E+3  -1.92609E+4
  -5.68188E+3  -1.88896E+4
  -5.35231E+3  -1.87696E+4
  -4.90800E+3  -1.83022E+4
  -4.49938E+3  -1.79396E+4
  -3.86915E+3  -1.80536E+4
  -3.59925E+3  -1.76534E+4
  -3.03454E+3  -1.73315E+4
  -2.64753E+3  -1.72893E+4
  -1.96052E+3  -1.70662E+4
  -1.52527E+3  -1.66212E+4
  -1.18413E+3  -1.63770E+4
  -7.80237E+2  -1.63266E+4
  -3.12712E+2  -1.58530E+4
   1.75019E+2  -1.55273E+4
   4.60522E+2  -1.53179E+4
   6.36940E+2  -1.50339E+4
   1.12714E+3  -1.45432E+4
   1.44489E+3  -1.44330E+4
   1.77811E+3  -1.43444E+4
   2.11235E+3  -1.37272E+4
   2.27387E+3  -1.36164E+4
   2.80173E+3  -1.32383E+4
   3.07776E+3  -1.30275E+4
   3.41506E+3  -1.27971E+4
   3.45940E+3  -1.24436E+4
   3.87834E+3  -1.20291E+4
   3.96458E+3  -1.20198E+4
   4.39322E+3  -1.16228E+4
   4.49138E+3  -1.12119E+4
   4.62296E+3  -1.06740E+4
   4.87601E+3  -1.06290E+4
   5.14208E+3  -1.01933E+4
   5.42690E+3  -9.67844E+3
   5.53404E+3  -9.66161E+3
   5.91160E+3  -9.49664E+3
   6.08488E+3  -8.71660E+3
   6.08761E+3  -8.37597E+3
   6.77029E+3  -8.52122E+3
   6.47620E+3  -8.20947E+3
   6.96363E+3  -7.75764E+3
   6.99047E+3  -7.41879E+3
   7.22799E+3  -7.21600E+3
   7.01716E+3  -7.11668E+3
   7.06896E+3  -6.68013E+3
   7.52147E+3  -6.48707E+3
   7.63291E+3  -5.84835E+3
   7.61101E+3  -5.72618E+3
   7.81901E+3  -5.56997E+3
   7.86512E+3  -5.32508E+3
   8.19643E+3  -5.06380E+3
   8.21123E+3  -4.81540E+3
   8.06918E+3  -4.32654E+3
   8.35519E+3  -4.05555E+3
   8.27684E+3  -3.98562E+3
   8.58207E+3  -3.60858E+3
   8.51308E+3  -3.00651E+3
   8.45304E+3  -3.19245E+3
   8.43993E+3  -2.55717E+3
   8.65504E+3  -2.49342E+3
   8.60367E+3  -1.91163E+3
   8.73552E+3  -1.71262E+3
   8.81313E+3  -1.79090E+3
   8.75251E+3  -1.47666E+3
   8.87775E+3  -1.16104E+3
   8.91530E+3  -8.69396E+2
   8.48477E+3  -6.63768E+2
   8.71000E+3  -2.63223E+2
   8.78694E+3  -8.36132E+1
   8.77590E+3   1.86897E+2
   8.56190E+3   2.97526E+2
   8.58505E+3   5.70947E+2
   8.42378E+3   5.22287E+2
   8.53242E+3   8.78396E+2
   8.46045E+3   9.26118E+2
   8.41008E+3   1.39684E+3
