 
 $NMID
 ID=''
 FMTDAT='(2E13.5)'
 TRAMP=   1.00000E+0
 VOLUME=   1.00000E+0
 $END
   4.71815E+5   4.48774E+5
   8.03294E+5   1.56290E+6
   9.96791E+5   1.41228E+6
   8.44210E+5   1.33719E+6
   7.64892E+5   1.42708E+6
   7.35149E+5   1.42540E+6
   6.78477E+5   1.44309E+6
   6.98706E+5   1.48338E+6
   6.97346E+5   1.42020E+6
   6.10062E+5   1.40326E+6
   5.72894E+5   1.44949E+6
   5.67317E+5   1.44421E+6
   5.41292E+5   1.43657E+6
   5.35185E+5   1.43257E+6
   5.06255E+5   1.40058E+6
   4.56266E+5   1.39837E+6
   4.41272E+5   1.42097E+6
   4.20542E+5   1.40892E+6
   3.77442E+5   1.40054E+6
   3.50812E+5   1.39803E+6
   3.15763E+5   1.38152E+6
   2.76126E+5   1.38104E+6
   2.57890E+5   1.38158E+6
   2.32584E+5   1.36602E+6
   1.98853E+5   1.35543E+6
   1.88033E+5   1.34597E+6
   1.68571E+5   1.33050E+6
   1.42962E+5   1.32222E+6
   1.27537E+5   1.31053E+6
   1.13828E+5   1.29619E+6
   8.91128E+4   1.28864E+6
   6.82372E+4   1.27241E+6
   4.19197E+4   1.25284E+6
   1.55931E+4   1.24522E+6
  -4.49358E+3   1.23556E+6
  -2.45336E+4   1.21856E+6
  -4.77508E+4   1.20465E+6
  -7.20540E+4   1.18852E+6
  -9.69380E+4   1.17174E+6
  -1.13540E+5   1.16163E+6
  -1.24507E+5   1.14734E+6
  -1.39201E+5   1.12760E+6
  -1.54690E+5   1.10880E+6
  -1.68732E+5   1.09488E+6
  -1.82955E+5   1.08198E+6
  -1.94704E+5   1.06986E+6
  -2.08776E+5   1.05173E+6
  -2.27073E+5   1.03115E+6
  -2.45106E+5   1.01321E+6
  -2.61214E+5   9.98266E+5
  -2.76440E+5   9.82529E+5
  -2.91401E+5   9.64638E+5
  -3.06359E+5   9.47088E+5
  -3.22751E+5   9.30389E+5
  -3.36735E+5   9.13899E+5
  -3.48599E+5   8.97207E+5
  -3.60235E+5   8.80239E+5
  -3.70282E+5   8.62820E+5
  -3.79991E+5   8.45848E+5
  -3.90038E+5   8.30626E+5
  -4.00136E+5   8.15277E+5
  -4.09970E+5   7.99411E+5
  -4.20128E+5   7.82538E+5
  -4.30558E+5   7.65006E+5
  -4.40096E+5   7.47138E+5
  -4.48636E+5   7.29602E+5
  -4.56091E+5   7.12093E+5
  -4.63697E+5   6.95582E+5
  -4.72125E+5   6.79871E+5
  -4.80164E+5   6.64133E+5
  -4.86583E+5   6.47440E+5
  -4.90761E+5   6.31186E+5
  -4.95677E+5   6.16643E+5
  -5.01594E+5   6.01430E+5
  -5.07280E+5   5.85397E+5
  -5.10594E+5   5.69677E+5
  -5.14343E+5   5.54954E+5
  -5.18654E+5   5.39187E+5
  -5.22709E+5   5.22466E+5
  -5.26886E+5   5.06203E+5
  -5.30052E+5   4.90991E+5
  -5.31610E+5   4.75999E+5
  -5.33525E+5   4.60582E+5
  -5.35796E+5   4.44819E+5
  -5.37405E+5   4.29175E+5
  -5.38428E+5   4.15551E+5
  -5.38388E+5   4.02450E+5
  -5.37780E+5   3.88538E+5
  -5.36917E+5   3.74189E+5
  -5.36113E+5   3.60773E+5
  -5.35382E+5   3.48499E+5
  -5.34015E+5   3.36385E+5
  -5.32387E+5   3.23188E+5
  -5.30038E+5   3.09052E+5
  -5.27783E+5   2.95229E+5
  -5.25510E+5   2.82540E+5
  -5.23792E+5   2.71367E+5
  -5.20897E+5   2.59297E+5
  -5.17036E+5   2.45632E+5
  -5.13145E+5   2.33396E+5
  -5.10509E+5   2.22666E+5
  -5.07843E+5   2.11408E+5
  -5.03344E+5   1.99676E+5
  -4.97386E+5   1.88741E+5
  -4.92076E+5   1.78615E+5
  -4.88299E+5   1.68641E+5
  -4.84443E+5   1.58143E+5
  -4.79626E+5   1.47843E+5
  -4.73246E+5   1.37985E+5
  -4.67016E+5   1.28606E+5
  -4.61991E+5   1.18689E+5
  -4.57810E+5   1.09083E+5
  -4.52714E+5   9.92614E+4
  -4.46940E+5   9.00578E+4
  -4.40737E+5   8.07728E+4
  -4.35094E+5   7.12667E+4
  -4.30087E+5   6.15354E+4
  -4.23845E+5   5.25019E+4
  -4.17310E+5   4.49462E+4
  -4.10856E+5   3.76420E+4
  -4.05112E+5   2.95807E+4
  -3.99599E+5   2.12730E+4
  -3.93616E+5   1.32117E+4
  -3.88083E+5   6.22766E+3
  -3.81559E+5  -1.44670E+3
  -3.75121E+5  -8.79538E+3
  -3.68353E+5  -1.59477E+4
  -3.62322E+5  -2.27311E+4
  -3.56497E+5  -2.94470E+4
  -3.50681E+5  -3.60682E+4
  -3.44167E+5  -4.28610E+4
  -3.37378E+5  -4.97547E+4
  -3.30989E+5  -5.59444E+4
  -3.25237E+5  -6.16786E+4
  -3.18852E+5  -6.72627E+4
  -3.12189E+5  -7.26027E+4
  -3.05511E+5  -7.82212E+4
  -2.99503E+5  -8.33137E+4
  -2.93429E+5  -8.85334E+4
  -2.87143E+5  -9.38427E+4
  -2.80616E+5  -9.81858E+4
  -2.73523E+5  -1.02159E+5
  -2.67281E+5  -1.06195E+5
  -2.61315E+5  -1.10428E+5
  -2.55535E+5  -1.14589E+5
  -2.48667E+5  -1.18068E+5
  -2.42027E+5  -1.21103E+5
  -2.35989E+5  -1.24242E+5
  -2.29804E+5  -1.27214E+5
  -2.23696E+5  -1.29857E+5
  -2.17643E+5  -1.32318E+5
  -2.11361E+5  -1.34434E+5
  -2.05753E+5  -1.36688E+5
  -1.99838E+5  -1.38806E+5
  -1.93662E+5  -1.41082E+5
  -1.87842E+5  -1.42360E+5
  -1.82246E+5  -1.44042E+5
  -1.76637E+5  -1.45483E+5
  -1.71050E+5  -1.46966E+5
  -1.65499E+5  -1.48040E+5
  -1.59940E+5  -1.49235E+5
  -1.54523E+5  -1.50261E+5
  -1.49080E+5  -1.51099E+5
  -1.43717E+5  -1.51563E+5
  -1.38494E+5  -1.52050E+5
  -1.33665E+5  -1.51943E+5
  -1.28663E+5  -1.52675E+5
  -1.24152E+5  -1.53139E+5
  -1.18873E+5  -1.53328E+5
  -1.14154E+5  -1.53253E+5
  -1.09543E+5  -1.53069E+5
  -1.05077E+5  -1.53097E+5
  -1.00491E+5  -1.52927E+5
  -9.61986E+4  -1.52381E+5
  -9.21485E+4  -1.52412E+5
  -8.75631E+4  -1.51956E+5
  -8.33282E+4  -1.51806E+5
  -7.85796E+4  -1.51239E+5
  -7.48216E+4  -1.50514E+5
  -7.09539E+4  -1.49865E+5
  -6.71303E+4  -1.49108E+5
  -6.30115E+4  -1.48781E+5
  -5.91014E+4  -1.48144E+5
  -5.52503E+4  -1.47109E+5
  -5.14711E+4  -1.46419E+5
  -4.80089E+4  -1.45212E+5
  -4.44912E+4  -1.44036E+5
  -4.09681E+4  -1.42809E+5
  -3.78667E+4  -1.41491E+5
  -3.48341E+4  -1.40786E+5
  -3.13598E+4  -1.39596E+5
  -2.79964E+4  -1.38508E+5
  -2.47124E+4  -1.37053E+5
  -2.13456E+4  -1.35643E+5
  -1.83579E+4  -1.34046E+5
  -1.54066E+4  -1.32838E+5
  -1.23005E+4  -1.31366E+5
  -9.78319E+3  -1.29950E+5
  -6.61170E+3  -1.28629E+5
  -3.44065E+3  -1.27074E+5
  -7.56276E+2  -1.25330E+5
   1.96315E+3  -1.23686E+5
   4.29035E+3  -1.21822E+5
   7.03764E+3  -1.20046E+5
   9.31106E+3  -1.18434E+5
   1.18672E+4  -1.16730E+5
   1.43994E+4  -1.14842E+5
   1.63146E+4  -1.12668E+5
   1.87605E+4  -1.11263E+5
   2.10156E+4  -1.09312E+5
   2.35970E+4  -1.07201E+5
   2.53031E+4  -1.05403E+5
   2.67901E+4  -1.03623E+5
   2.90045E+4  -1.02044E+5
   3.13372E+4  -9.98818E+4
   3.30179E+4  -9.80066E+4
   3.47865E+4  -9.60964E+4
   3.63231E+4  -9.39572E+4
   3.77067E+4  -9.20977E+4
   3.92936E+4  -9.01755E+4
   4.05768E+4  -8.82488E+4
   4.18193E+4  -8.62882E+4
   4.31517E+4  -8.43499E+4
   4.45531E+4  -8.22815E+4
   4.56903E+4  -8.03442E+4
   4.65122E+4  -7.84517E+4
   4.71537E+4  -7.66155E+4
   4.83708E+4  -7.51080E+4
   4.93050E+4  -7.30635E+4
   5.01050E+4  -7.12540E+4
   5.10286E+4  -6.91998E+4
   5.13910E+4  -6.75689E+4
   5.18328E+4  -6.57001E+4
   5.23525E+4  -6.38229E+4
   5.30530E+4  -6.21438E+4
   5.32445E+4  -6.02066E+4
   5.35378E+4  -5.86756E+4
   5.39277E+4  -5.70340E+4
   5.44000E+4  -5.52387E+4
   5.43896E+4  -5.34335E+4
   5.48543E+4  -5.20588E+4
   5.48535E+4  -5.03842E+4
   5.47387E+4  -4.86679E+4
   5.50691E+4  -4.70202E+4
   5.47815E+4  -4.55688E+4
   5.45562E+4  -4.39687E+4
   5.47807E+4  -4.25847E+4
   5.48295E+4  -4.05563E+4
   5.46119E+4  -3.91520E+4
   5.43991E+4  -3.78881E+4
   5.43672E+4  -3.65774E+4
   5.39134E+4  -3.52384E+4
   5.39501E+4  -3.35395E+4
   5.35324E+4  -3.22523E+4
   5.33725E+4  -3.09082E+4
   5.29434E+4  -2.96086E+4
   5.28464E+4  -2.83292E+4
   5.24756E+4  -2.68132E+4
   5.20655E+4  -2.54263E+4
   5.16598E+4  -2.44294E+4
   5.16087E+4  -2.30074E+4
   5.11883E+4  -2.18255E+4
   5.06318E+4  -2.05360E+4
   5.02092E+4  -1.93012E+4
   4.97196E+4  -1.83500E+4
   4.93960E+4  -1.71219E+4
   4.90670E+4  -1.59112E+4
   4.83219E+4  -1.47048E+4
   4.76810E+4  -1.38501E+4
   4.72576E+4  -1.26658E+4
   4.68126E+4  -1.18362E+4
   4.60586E+4  -1.08216E+4
   4.56103E+4  -9.61562E+3
   4.50507E+4  -8.83139E+3
   4.44958E+4  -7.92984E+3
   4.40444E+4  -7.01782E+3
   4.36658E+4  -6.06779E+3
   4.25897E+4  -5.22055E+3
   4.23695E+4  -4.46976E+3
   4.15379E+4  -3.44240E+3
   4.10009E+4  -2.68940E+3
   4.04052E+4  -1.97578E+3
   3.95037E+4  -1.10219E+3
   3.88896E+4  -7.35700E+2
   3.83046E+4   3.16734E+2
   3.77790E+4   9.69133E+2
   3.71855E+4   1.57070E+3
   3.62430E+4   1.94176E+3
   3.56706E+4   2.56512E+3
   3.51603E+4   3.27715E+3
   3.43543E+4   3.65370E+3
   3.37900E+4   4.53272E+3
   3.32118E+4   4.85193E+3
   3.23717E+4   5.41858E+3
   3.15605E+4   5.77864E+3
   3.10204E+4   6.27168E+3
   3.02225E+4   6.69936E+3
   2.97355E+4   7.11455E+3
   2.90472E+4   7.57723E+3
   2.83761E+4   7.90419E+3
   2.76177E+4   8.12235E+3
   2.71081E+4   8.41236E+3
   2.62248E+4   8.68915E+3
   2.56120E+4   9.21514E+3
   2.50566E+4   9.36100E+3
   2.43962E+4   9.47498E+3
   2.34683E+4   9.86961E+3
   2.29433E+4   9.94813E+3
   2.24927E+4   1.02178E+4
   2.15032E+4   1.05198E+4
   2.07222E+4   1.06402E+4
   2.05729E+4   1.05785E+4
   1.97813E+4   1.09355E+4
   1.91705E+4   1.12419E+4
   1.83869E+4   1.12437E+4
   1.78778E+4   1.14048E+4
   1.71268E+4   1.14790E+4
   1.67491E+4   1.15633E+4
   1.59345E+4   1.15315E+4
   1.54327E+4   1.16915E+4
   1.49968E+4   1.17759E+4
   1.42861E+4   1.15156E+4
   1.36734E+4   1.16553E+4
   1.31736E+4   1.17863E+4
   1.25140E+4   1.19070E+4
   1.18838E+4   1.16768E+4
   1.13303E+4   1.16437E+4
   1.08537E+4   1.14298E+4
   1.06016E+4   1.15924E+4
   9.88400E+3   1.14406E+4
   9.54325E+3   1.10872E+4
   8.89532E+3   1.10412E+4
   8.38496E+3   1.09962E+4
   7.93526E+3   1.08807E+4
   7.39429E+3   1.08614E+4
   7.44473E+3   1.07266E+4
   6.56204E+3   1.04769E+4
   6.24603E+3   1.04811E+4
   5.95966E+3   1.00531E+4
   5.33119E+3   9.84304E+3
   5.22812E+3   9.65862E+3
   4.47206E+3   9.47584E+3
   4.17831E+3   9.26830E+3
   3.84341E+3   9.10675E+3
   3.55512E+3   8.91878E+3
   3.13371E+3   8.80186E+3
   2.74907E+3   8.23897E+3
   2.52513E+3   8.25505E+3
   2.29331E+3   7.74878E+3
   1.85632E+3   7.58473E+3
   1.71929E+3   7.49395E+3
   1.46457E+3   6.96406E+3
   1.18127E+3   6.77570E+3
   7.37059E+2   6.70283E+3
   7.55409E+2   6.38778E+3
   4.41159E+2   5.95721E+3
   4.07085E+2   5.94359E+3
   1.99869E+2   5.37995E+3
   6.27273E+1   5.14829E+3
  -2.68685E+2   4.70525E+3
  -3.74775E+2   4.39014E+3
  -3.98881E+2   4.44651E+3
  -3.68053E+2   4.18744E+3
  -6.45968E+2   3.90921E+3
  -8.73413E+2   3.81330E+3
  -8.05900E+2   3.16638E+3
  -1.10261E+3   2.92173E+3
