 
 $NMID
 ID=''
 FMTDAT='(2E13.5)'
 TRAMP=   1.00000E+0
 VOLUME=   1.00000E+0
 $END
  -9.39011E+3  -9.63373E+3
  -3.31221E+3   1.75425E+3
   3.42155E+3   1.86735E+3
   4.02436E+3  -2.68137E+3
  -1.88648E+3   1.38881E+3
  -1.59081E+3   2.67146E+3
   1.44822E+3  -1.57423E+3
   1.23092E+3  -1.38846E+3
   7.51042E+2   7.51558E+2
   5.14150E+1   1.43904E+3
  -6.47478E+2   2.87725E+3
  -1.04247E+2   5.52748E+2
  -4.81878E+2  -2.29472E+3
  -1.02949E+3   2.91769E+2
  -1.33682E+3   1.69811E+3
  -8.46191E+2  -1.52711E+3
   1.39073E+3  -2.09364E+3
   1.93648E+3  -1.67915E+2
  -5.77498E+2  -2.01877E+2
  -8.49106E+2  -6.37923E+0
   9.36906E+2   9.65219E+2
   8.91107E+2   4.57081E+2
  -7.94966E+1  -4.95392E+2
   5.10018E+2  -3.39242E+2
  -6.34970E+2   1.20715E+3
  -1.61864E+3   9.04210E+2
   2.78667E+2  -9.84979E+2
   1.25447E+3  -1.13175E+2
  -2.95313E+2   9.04242E+2
  -1.23029E+3  -4.78619E+2
  -2.76570E+1  -1.28290E+3
   1.06080E+3   1.53006E+2
   1.02251E+2   6.88595E+2
  -2.15196E+2   4.07987E+1
  -4.47397E+1  -4.57116E+1
  -2.97698E+2  -1.81788E+1
  -5.68151E+2  -3.54099E+2
   1.01268E+2  -1.72471E+2
   6.21335E+2   3.92719E+2
   2.09463E+2   3.65338E+2
   1.46819E+2   2.37282E+2
   1.92427E+2   4.93131E+1
  -1.65543E+2   3.78413E+2
  -5.85746E+2   3.74322E+2
  -3.88475E+2   4.60418E+1
  -2.86730E+2  -5.30377E+2
   3.34579E+2  -8.32265E+2
   6.30140E+2  -4.20058E+2
   6.01961E+2   5.51906E+2
   8.82030E+1   4.69101E+2
   8.10620E+1   5.48763E+1
   2.75971E+2   2.27705E+2
  -2.45890E+2   8.42817E+1
  -3.83263E+2  -9.78282E+1
  -2.12301E+2   9.50978E+0
  -1.92358E+2   5.35898E+1
  -5.43752E+1  -2.14065E+2
   2.89752E+2   1.94448E+1
   5.93939E+1   7.18100E+0
  -7.02721E+1   6.63801E+2
  -3.59454E+2  -8.95488E+1
  -3.08749E+2  -2.99521E+2
  -1.47395E+2   8.76651E+1
  -2.49666E+2  -1.37601E+1
  -7.75274E+1  -2.67226E+2
  -1.11798E+2  -2.37302E+2
   1.27713E+2   1.68923E+2
   1.85426E+2   7.03912E+1
   1.46217E+2   6.85366E+1
  -2.03994E+2   3.50468E+1
  -1.19729E+2  -1.52068E+2
  -4.43913E+1   1.77167E+2
  -8.80840E+1   3.09560E+2
  -9.13080E+1   1.18227E+2
  -2.46974E+2  -2.04755E+2
   4.34989E+1  -2.61877E+1
  -2.12738E+2  -1.77342E+2
  -1.39164E+2   1.24047E+2
  -1.07604E+2   8.00133E+1
  -1.28504E+2  -4.40396E+1
   2.14927E+1  -1.50063E+2
   1.62071E+2   2.89583E+1
  -6.55677E+1   1.16117E+1
  -2.20938E+2   1.84640E+2
  -1.19563E+2  -9.72110E+1
   2.12627E+2  -9.98517E+1
   2.55424E+2  -1.09794E+0
  -5.53014E+1  -8.55106E+1
  -1.92717E+2  -6.65014E+1
  -1.49442E+2  -6.05880E+1
   2.09351E+2  -6.27865E+0
   1.60677E+1  -4.03691E+1
   2.95062E+2  -2.92511E+2
  -1.45027E+2  -3.24370E+2
  -2.89032E+2  -2.70588E+2
  -6.48006E+0  -2.26855E+2
   3.37964E+2   6.85976E+1
   2.55819E+2  -8.68086E+1
   1.19639E+2  -2.41184E+2
  -2.84795E+2  -1.72552E+0
   3.68472E+1  -7.48376E+1
  -1.13814E+2   1.57909E+2
   2.48132E+2   2.42157E+2
   1.09599E+2  -2.24186E+2
  -2.67312E+2  -1.68054E+2
  -1.03012E+2   1.02456E+2
   5.87623E+0   1.12145E+2
   1.14048E+2  -1.31611E+2
   1.89036E+2  -9.57791E+1
  -1.28274E+2  -1.75009E+2
  -1.53251E+2   2.54907E+2
  -1.66145E+2   2.44611E+2
   3.58574E+1   1.52160E+2
   9.71051E+1   1.81571E+2
   1.23809E+2  -9.55225E+1
  -2.04597E+2   2.26482E+0
  -1.36634E+2  -3.28340E+1
   1.49151E+2   3.36000E+1
   1.82128E+2   7.03815E+1
  -1.23894E+2  -1.08671E+2
  -1.12337E+2  -1.87575E+2
  -2.70270E+2   1.08319E+2
  -1.48184E+2   1.06753E+2
   2.32811E+2   2.64532E+2
  -7.67880E+1  -1.14758E+2
   3.14405E+1  -3.79058E+2
  -2.85776E+2  -5.35368E+1
  -6.78759E+1  -2.43765E+1
   3.23142E+2   2.98464E+2
   6.76187E+1   1.72826E+2
   1.27274E+2   2.68155E+0
  -5.14434E+1  -2.91243E+2
  -3.75270E+1   2.99516E+1
  -7.00803E+1   7.03169E+1
  -1.45237E+1  -8.01188E+1
   2.17473E+2   2.59319E+2
   1.98803E+1  -3.80774E+1
  -1.42819E+1   1.49389E+1
  -7.15894E+1  -9.72365E-1
   8.55153E+1   2.31176E+1
   2.27433E+2   2.06166E+2
   6.57599E+1  -3.82845E+1
  -5.11621E+1   6.81799E+1
   1.80987E+2   7.07023E+1
   1.29328E+2   4.70304E+1
  -4.57155E+1   1.25729E+2
  -3.94791E+1  -1.13717E+2
  -8.03731E+1  -1.79417E+2
  -1.01861E+2  -2.09870E+2
  -4.00611E+1  -5.69041E+1
  -1.08751E+2  -1.81038E+2
   1.81214E+1  -1.56527E+2
  -1.41103E+1   5.99113E+1
  -3.68081E+1   6.17204E+1
   1.05781E+2  -1.06540E+2
  -5.67217E+1  -1.34410E+2
  -9.94300E+1  -1.00935E+2
  -6.47954E+1   4.77944E+1
  -1.05497E+2   1.17159E+2
  -8.96541E+1   3.23062E+0
  -1.14415E+2   5.03242E+1
  -1.36011E+2   1.47473E+2
  -2.13205E+2  -2.28134E+1
   7.33869E+1  -1.79290E+2
   2.28781E+2   1.56073E+2
  -1.44701E+2   2.31382E+1
   4.35722E+1  -1.32371E+2
  -2.79705E+1  -1.09748E+2
  -1.64924E+2   1.01847E+2
   2.45118E+1   7.63106E+1
  -6.94208E+1  -2.40861E+1
   4.26589E+1  -2.49016E+2
   7.53212E-1   1.06997E+1
  -1.35895E+2   6.58560E+1
   1.34007E+2   1.12690E+2
   1.25267E+2   5.37774E+1
  -2.26287E+2   4.75830E+1
  -3.11751E+2   9.75699E+1
   2.58986E+1   9.44573E+0
   1.16679E+1   6.02001E+1
  -1.12694E+2  -6.17113E+1
   1.35899E+2  -4.65941E-1
   1.07838E+2   2.98183E+1
  -3.75871E+1  -6.70077E+1
  -3.54247E+1  -3.04686E+1
  -1.30514E+2   1.30255E+1
   5.91565E+1  -4.01457E+1
   6.42847E+1  -1.70343E+2
   2.01472E+2  -9.94779E+1
   2.53033E+2  -2.15857E+1
   5.25452E+1   2.30042E+2
  -5.36697E+1   5.73969E+0
  -6.80733E+1   1.19817E+2
   2.34727E+1   1.34933E+1
   1.16407E+1  -7.27884E+1
   9.14243E+1   2.49616E+1
   4.32965E+1   1.51400E+1
   5.17920E+1   3.12543E+2
  -7.82534E+1  -1.08279E+2
  -1.55351E+1  -1.51274E+1
   3.70736E+1  -2.64123E+2
   8.97526E+1  -8.05922E+1
   1.58411E+2  -1.15048E+1
   5.77609E+1   6.25148E+1
  -7.80024E+1   1.68216E+2
   8.63479E+1  -7.22457E+1
   3.27908E+1   4.70199E+1
  -3.41786E+0   1.28152E+2
   2.26695E+0   1.11477E+2
   2.42575E+2  -2.98711E+1
  -3.98967E+1  -1.44234E+1
  -4.06135E+1   5.17872E+1
   8.99162E+1   1.41333E+2
   1.29125E+2   7.95345E+1
   3.00812E+1  -3.24754E+1
   1.84080E+2  -3.06509E+0
   8.14759E+1  -8.67064E+1
  -1.30656E+1   1.26999E+2
  -1.26410E+2   2.52476E+2
   1.48408E+2   1.07811E-1
   4.54643E+1  -7.69844E+1
  -8.55376E+0  -3.74971E+1
   3.24898E+2  -3.29695E+0
   5.46958E+1   1.55762E+2
   2.18086E+2  -5.06514E+1
   9.95034E+1   1.62880E+2
  -1.41857E+1  -5.48575E+1
   1.04960E+2  -2.11471E+2
  -4.59166E-1   2.49280E+2
  -9.25537E+1  -4.97947E+1
   2.45408E+2  -6.02815E+1
  -1.14210E+2  -9.19695E+1
  -2.74748E+1  -7.81532E+1
   1.85191E+2  -6.77695E+1
   7.93509E+1  -4.63430E+0
  -1.03344E+1  -1.38749E+2
   1.53471E+2   5.92683E+1
   8.95139E+1  -4.87392E+1
   9.14578E+1   9.07556E+1
   2.70041E+1  -2.25566E+2
  -3.47350E+1   6.96042E+1
  -1.13558E+2  -3.73371E+1
  -2.41860E+1   1.13177E+2
  -9.90754E+1  -1.95613E+2
   9.10419E+1  -1.83625E+1
   2.76879E+2  -1.85051E+2
   5.42912E+1  -5.94155E+1
  -1.17677E+2  -1.11633E+2
   1.79284E+2  -3.97139E+1
  -4.25053E+1   1.54875E+2
  -7.59003E+1  -3.94862E+1
   1.75375E+2  -6.40049E+1
  -5.31228E+0  -2.83978E+1
  -7.77422E+0  -4.06289E+1
   1.46985E+2  -1.76776E+1
   4.94288E+1   7.36393E+1
  -2.31626E+2   1.15290E+2
  -2.06126E+2   1.02382E+2
  -3.21396E+2  -1.68046E+2
   1.24832E+2   1.51727E+1
  -5.41036E+1   1.89617E+2
  -1.43185E+2  -6.64595E+1
   7.22221E+1  -1.00308E+2
  -7.06865E+1   3.51865E+1
   4.62189E+1  -1.33411E+2
  -1.09155E+2  -2.47478E+1
  -5.78465E+1   1.92243E+2
  -8.65814E+1  -1.68945E+2
   2.14430E+2  -2.01965E+2
  -3.22738E+1  -3.24393E+1
  -2.05370E+1  -2.25848E+2
  -9.28600E+1  -2.79018E+1
   1.02352E+2  -4.57818E+1
  -6.23899E+0   1.59289E+2
   4.78070E+1  -1.32115E+2
  -1.34924E+2  -7.07902E+1
  -1.30630E+1  -5.77133E+1
  -9.62302E+0  -9.68626E+1
  -4.58574E+0   3.69614E+1
   6.29635E+0   6.52776E-1
   1.64218E+1   1.41692E+2
   6.56473E+1  -2.38434E+1
   1.56607E+1  -1.04933E+2
   6.98974E+1   1.52835E+2
  -1.48060E+2   3.45153E+1
  -1.42542E+2   1.58423E+2
   6.53102E+1  -1.13140E+2
   2.52246E+2  -1.31887E+2
   2.38085E+2   2.87190E+1
  -1.54019E+2  -1.32245E+2
  -7.63332E+0   1.39448E+2
  -2.20072E+1  -1.48770E+2
   5.67864E+1   9.90551E+1
  -1.14503E+2  -1.90492E+2
   1.68242E+2   9.13591E+1
  -2.88688E+1  -7.73315E+1
   5.70649E+1  -1.08548E+1
  -8.92593E+1   5.11760E+1
  -1.00145E+2  -7.55836E+1
  -1.48027E+2   6.70477E+1
  -1.66024E+0   1.34725E+1
  -5.16222E+1  -9.98071E+1
   1.22023E+2   3.97433E+1
  -2.47224E+2   2.34104E+2
   1.07418E+2   7.34638E+1
   1.19982E+2  -1.29703E+1
   6.61321E+1  -2.23545E+1
  -2.07587E+2   2.25436E+2
  -3.54165E+1   7.30461E+0
  -6.56443E+1  -2.73951E+2
  -1.19045E+1   1.15788E+2
  -1.11259E+2   2.22159E+2
   2.18079E+1   9.60574E+1
   1.44863E+2  -1.39310E+2
   2.34152E+2  -1.82953E+1
  -1.62543E+2  -5.49692E+0
  -2.76603E+0   2.66796E+0
   1.08066E+2  -1.19170E+1
   8.97604E+0  -1.27417E+2
   1.01229E+2   1.28863E+2
  -1.61511E+1   9.69975E+1
  -4.89371E+1   1.49633E+2
  -1.21628E+2  -1.40820E+0
  -4.86895E+0  -1.14853E+2
  -8.48393E+1  -1.27739E+1
  -2.98957E+1  -6.65942E+1
  -5.83047E+1   3.77878E+1
   6.05481E+1   5.49736E+1
  -1.01980E+2   8.54809E+1
   3.06419E+1  -1.02527E+1
  -9.66537E+1   9.38969E+0
   1.50988E+2  -6.45346E+1
   4.01576E+1  -1.07538E+2
   3.91204E+1  -1.55008E+2
   1.33694E+2   1.32987E+2
   5.88823E+1   1.97070E+2
   4.54946E+1   3.97176E+1
  -8.01787E+1  -5.09909E+1
  -2.10244E+2  -1.55387E+2
  -4.03925E+0   2.62691E+2
  -5.70023E+0   6.27536E+1
  -1.14706E+2   2.86126E+1
  -1.01187E+1   2.22532E+1
   1.51897E+2  -8.12842E+1
   1.12802E+1  -5.50500E+1
   7.66110E+1   3.87354E+1
   7.01584E+1  -1.16193E+2
  -6.34241E+0  -1.51010E+2
   1.42185E+2   2.69142E+2
   1.32862E+2   7.15222E+1
   1.97893E+2   2.68405E+2
  -3.34261E+1   3.74568E+1
   5.55817E+1   2.02962E+2
   2.80951E+2  -4.78153E+1
   3.32132E+2   4.79734E+1
   5.82024E+0  -2.60635E+2
   2.00505E+0   5.04006E+1
   9.41886E+1  -8.15105E+1
  -1.75900E+2  -1.04717E+2
  -6.92229E+1   2.82264E+0
  -1.86662E+1  -1.56680E+2
  -6.16340E+1   4.63328E+1
  -4.73537E+1  -1.79165E+2
   1.60171E+2   8.50382E+1
   2.80947E+2   1.41873E+2
  -1.04708E+2   2.92942E+1
   5.42605E+1   1.10250E+2
