 LCModel (Version 6.3-1N) Copyright: S.W. Provencher.          Ref.: Magn. Reson. Med. 30:672-679 (1993).                
 Slice_N1@23_18  28-Feb-2025 11:44:01
 27 lines in following concentration table = NCONC+1
    Conc.  %SD /Cr+PCr  Metabolite                                         
 3.67E-04   4% 5.7E-04 Mac                                                 
    5.151  18%   8.000 Cr                                                  
    0.000 999%   0.000 PCr                                                 
    1.311  97%   2.036 Ins                                                 
    0.000 999%   0.000 NAA                                                 
    9.160  18%  14.226 Tau                                                 
    0.000 999%   0.000 PCho                                                
    2.095  17%   3.253 GPC                                                 
    7.843  18%  12.180 Glu                                                 
    3.164  37%   4.914 Gln                                                 
    0.000 999%   0.000 Ala                                                 
    0.000 999%   0.000 Asc                                                 
    2.019  48%   3.135 Asp                                                 
    0.865  65%   1.343 GABA                                                
    0.810  75%   1.259 Glc                                                 
    2.555  28%   3.968 GSH                                                 
   32.163   4%  49.949 Lac                                                 
    6.924  13%  10.754 NAAG                                                
    0.000 999%   0.000 PE                                                  
    2.095  17%   3.253 GPC+PCho                                            
    6.924  13%  10.754 NAA+NAAG                                            
   11.007  16%  17.094 Glu+Gln                                             
    5.151  18%   8.000 Cr+PCr                                              
    6.924  13%  10.754 NAA+NAAG                                            
    5.151  18%   8.000 Cr+PCr                                              
   11.007  16%  17.094 Glu+Gln                                             
   6 lines in following misc. output table
  FWHM = 0.098 ppm    S/N =   4                                            
  Data shift =-0.041 ppm                                                   
  Ph: -83 deg       0.0 deg/ppm                                            
  alphaB,S = 9.1E-02,   2.7E+02                                            
   19 spline knots.   Ns = 9(1)                                            
  (13) 3 infls.   (11) 1 extrs.                                            
  480 points on ppm-axis = NY
      4.100000     4.091866     4.083733     4.075600     4.067466     4.059333     4.051199     4.043066     4.034933     4.026799
      4.018666     4.010532     4.002399     3.994265     3.986132     3.977998     3.969864     3.961731     3.953597     3.945463
      3.937330     3.929196     3.921062     3.912929     3.904795     3.896662     3.888528     3.880394     3.872261     3.864127
      3.855993     3.847860     3.839726     3.831592     3.823459     3.815325     3.807191     3.799058     3.790924     3.782790
      3.774657     3.766523     3.758389     3.750256     3.742122     3.733989     3.725855     3.717721     3.709588     3.701454
      3.693320     3.685187     3.677053     3.668919     3.660786     3.652652     3.644518     3.636385     3.628251     3.620117
      3.611984     3.603850     3.595716     3.587583     3.579449     3.571316     3.563182     3.555048     3.546915     3.538781
      3.530647     3.522514     3.514380     3.506246     3.498113     3.489979     3.481845     3.473712     3.465578     3.457444
      3.449311     3.441177     3.433043     3.424910     3.416776     3.408643     3.400509     3.392375     3.384242     3.376108
      3.367974     3.359841     3.351707     3.343573     3.335440     3.327306     3.319172     3.311039     3.302905     3.294771
      3.286638     3.278504     3.270370     3.262237     3.254103     3.245970     3.237836     3.229702     3.221569     3.213435
      3.205301     3.197168     3.189034     3.180900     3.172767     3.164633     3.156499     3.148366     3.140232     3.132098
      3.123965     3.115831     3.107697     3.099564     3.091430     3.083297     3.075163     3.067029     3.058896     3.050762
      3.042628     3.034495     3.026361     3.018227     3.010094     3.001960     2.993826     2.985693     2.977559     2.969425
      2.961292     2.953158     2.945024     2.936891     2.928757     2.920624     2.912490     2.904356     2.896223     2.888089
      2.879955     2.871822     2.863688     2.855554     2.847421     2.839287     2.831153     2.823020     2.814886     2.806752
      2.798619     2.790485     2.782351     2.774218     2.766084     2.757951     2.749817     2.741683     2.733550     2.725416
      2.717282     2.709149     2.701015     2.692881     2.684748     2.676614     2.668480     2.660347     2.652213     2.644079
      2.635946     2.627812     2.619678     2.611545     2.603411     2.595278     2.587144     2.579010     2.570877     2.562743
      2.554609     2.546476     2.538342     2.530208     2.522075     2.513941     2.505807     2.497674     2.489540     2.481406
      2.473273     2.465139     2.457006     2.448872     2.440738     2.432605     2.424471     2.416337     2.408204     2.400070
      2.391936     2.383803     2.375669     2.367535     2.359402     2.351268     2.343134     2.335001     2.326867     2.318733
      2.310600     2.302466     2.294333     2.286199     2.278065     2.269932     2.261798     2.253664     2.245531     2.237397
      2.229263     2.221130     2.212996     2.204862     2.196729     2.188595     2.180461     2.172328     2.164194     2.156060
      2.147927     2.139793     2.131660     2.123526     2.115392     2.107259     2.099125     2.090991     2.082858     2.074724
      2.066590     2.058457     2.050323     2.042189     2.034056     2.025922     2.017788     2.009655     2.001521     1.993387
      1.985254     1.977120     1.968987     1.960853     1.952719     1.944586     1.936452     1.928318     1.920185     1.912051
      1.903917     1.895784     1.887650     1.879516     1.871383     1.863249     1.855115     1.846982     1.838848     1.830714
      1.822581     1.814447     1.806314     1.798180     1.790046     1.781913     1.773779     1.765645     1.757512     1.749378
      1.741244     1.733111     1.724977     1.716843     1.708710     1.700576     1.692442     1.684309     1.676175     1.668041
      1.659908     1.651774     1.643641     1.635507     1.627373     1.619240     1.611106     1.602972     1.594839     1.586705
      1.578571     1.570438     1.562304     1.554170     1.546037     1.537903     1.529769     1.521636     1.513502     1.505368
      1.497235     1.489101     1.480968     1.472834     1.464700     1.456567     1.448433     1.440299     1.432166     1.424032
      1.415898     1.407765     1.399631     1.391497     1.383364     1.375230     1.367096     1.358963     1.350829     1.342695
      1.334562     1.326428     1.318295     1.310161     1.302027     1.293894     1.285760     1.277626     1.269493     1.261359
      1.253225     1.245092     1.236958     1.228824     1.220691     1.212557     1.204423     1.196290     1.188156     1.180022
      1.171889     1.163755     1.155622     1.147488     1.139354     1.131221     1.123087     1.114953     1.106820     1.098686
      1.090552     1.082419     1.074285     1.066151     1.058018     1.049884     1.041750     1.033617     1.025483     1.017349
      1.009216     1.001082     0.992949     0.984815     0.976681     0.968548     0.960414     0.952280     0.944147     0.936013
      0.927879     0.919746     0.911612     0.903478     0.895345     0.887211     0.879077     0.870944     0.862810     0.854676
      0.846543     0.838409     0.830276     0.822142     0.814008     0.805875     0.797741     0.789607     0.781474     0.773340
      0.765206     0.757073     0.748939     0.740805     0.732672     0.724538     0.716404     0.708271     0.700137     0.692003
      0.683870     0.675736     0.667603     0.659469     0.651335     0.643202     0.635068     0.626934     0.618801     0.610667
      0.602533     0.594400     0.586266     0.578132     0.569999     0.561865     0.553731     0.545598     0.537464     0.529330
      0.521197     0.513063     0.504930     0.496796     0.488662     0.480529     0.472395     0.464261     0.456128     0.447994
      0.439861     0.431727     0.423593     0.415460     0.407326     0.399192     0.391059     0.382925     0.374792     0.366658
      0.358524     0.350391     0.342257     0.334124     0.325990     0.317856     0.309723     0.301589     0.293455     0.285322
      0.277188     0.269055     0.260921     0.252787     0.244654     0.236520     0.228386     0.220253     0.212119     0.203986
 NY phased data points follow
  -3.29821E+01 -6.29537E+01 -4.79897E+01 -2.70595E+01 -2.89639E+01 -2.78623E+01 -4.69003E+01 -3.47446E+01 -3.06064E+01 -4.14879E+01
  -3.38662E+01 -3.91843E+01 -4.43318E+01 -5.60742E+01 -5.62779E+01 -6.37318E+01 -7.66552E+01 -7.10219E+01 -7.24372E+01 -7.14375E+01
  -7.19218E+01 -8.53965E+01 -8.85973E+01 -8.41062E+01 -8.61674E+01 -8.68853E+01 -8.20871E+01 -9.14651E+01 -8.65431E+01 -5.61127E+01
  -5.62051E+01 -5.84829E+01 -4.89174E+01 -4.45359E+01 -5.70047E+01 -7.26391E+01 -6.31878E+01 -6.79956E+01 -8.26570E+01 -8.27553E+01
  -6.32684E+01 -7.54508E+01 -7.85181E+01 -7.59307E+01 -8.47794E+01 -5.14154E+01 -5.05376E+01 -3.86560E+01 -3.21297E+01 -3.24083E+01
  -2.16969E+01 -2.74522E+01 -1.78282E+01 -3.28856E+01 -1.74243E+01 -1.92542E+01 -3.78782E+01 -3.28980E+01 -3.37690E+01 -2.79243E+01
  -3.82569E+01 -2.22074E+01 -1.35445E+01 -1.60330E+01 -7.38985E+00 -9.11462E+00 -2.03599E+01 -3.08767E+01 -2.12870E+01 -3.46310E+01
  -3.58384E+01 -1.71522E+01 -2.66248E+01 -2.89785E+01 -1.17321E+01 -3.00008E+00 -1.78832E+01 -1.86009E+01  3.17702E+00 -3.67117E+00
  -1.70491E+00 -2.36432E-02 -1.50390E+01 -6.89285E+00 -1.72835E+01 -2.39146E+01 -2.98936E+01 -3.45890E+01 -1.91966E+01 -2.43410E+01
  -1.34055E+01 -1.08097E+00  7.37084E-01  5.37747E+00  9.31932E+00  2.39413E+01  1.65256E+01  2.06346E+01  3.57288E+01  1.47552E+01
   1.44595E+01  1.76782E+01  1.94158E+00 -2.79331E-01 -7.54882E+00 -1.95950E+01 -3.61085E+01 -5.05805E+01 -6.32865E+01 -8.86739E+01
  -1.15144E+02 -1.15874E+02 -1.30081E+02 -1.41564E+02 -1.10313E+02 -1.00795E+02 -7.72968E+01 -6.39178E+01 -6.84217E+01 -4.89571E+01
  -5.21068E+01 -4.11466E+01 -1.18359E+01 -1.07098E+01 -1.56076E+01  1.78559E+00  2.40634E+00  1.19341E-01  8.15591E+00  1.73610E+01
   1.42413E+01 -9.91477E+00 -4.80756E+00 -8.02971E+00 -2.96282E+01 -5.43747E+01 -6.87124E+01 -7.21725E+01 -6.61160E+01 -5.54594E+01
  -7.67485E+01 -8.87446E+01 -8.62620E+01 -6.86624E+01 -5.46651E+01 -5.97097E+01 -6.27477E+01 -6.21326E+01 -6.71294E+01 -6.31284E+01
  -5.14596E+01 -5.64030E+01 -4.26244E+01 -4.68936E+01 -4.91426E+01 -3.60160E+01 -2.81717E+01 -3.14190E+01 -4.43036E+01 -3.38271E+01
  -3.55779E+01 -2.63222E+01 -4.13732E+01 -4.14813E+01 -1.51244E+01 -2.85547E+01 -3.75167E+01 -3.88476E+01 -2.66521E+01 -2.66588E+01
  -2.40611E+01 -3.28450E+01 -2.64215E+01 -6.63830E+00 -2.60787E+01 -3.29277E+01 -3.58377E+01 -2.48327E+01 -3.94277E+01 -5.84116E+01
  -3.89693E+01 -4.75508E+01 -6.84315E+01 -7.08974E+01 -6.05683E+01 -4.92627E+01 -5.80388E+01 -7.50778E+01 -7.57154E+01 -6.59830E+01
  -5.24368E+01 -5.44143E+01 -4.52131E+01 -4.84570E+01 -5.32531E+01 -3.87463E+01 -5.33034E+01 -4.43329E+01 -4.26229E+01 -4.51827E+01
  -3.74512E+01 -2.99322E+01 -2.24025E+01 -3.95904E+01 -2.78624E+01 -1.72925E+01 -2.77588E+01 -3.27234E+01 -2.93837E+01 -4.35506E+01
  -5.09883E+01 -3.89819E+01 -4.64821E+01 -3.99765E+01 -2.43345E+01 -1.96848E+01 -2.19922E+01 -1.35921E+01 -8.76739E+00 -1.00796E+01
  -1.14151E+01 -5.73313E+00 -1.94208E+01 -2.92519E+01 -7.92188E+00 -3.46428E+01 -2.29024E+01 -1.40299E+01 -3.18827E+01 -2.52181E+01
  -3.77132E+01 -2.74772E+01 -3.64266E+01 -3.60636E+01 -2.56011E+01 -2.31407E+01 -2.80284E+01 -3.03675E+01 -2.62370E+01 -4.00149E+01
  -3.10322E+01 -4.45871E+01 -3.40835E+01 -2.35955E+01 -2.70991E+01 -2.21239E+01 -2.52492E+01  7.68231E+00 -6.55903E+00 -2.80740E+01
  -2.60934E+01 -2.54117E+01 -2.44906E+01 -1.71048E+01  3.19888E+00  5.68526E+00  2.68082E+01  4.05403E+01  5.48707E+01  6.90171E+01
   9.96583E+01  1.28827E+02  1.16528E+02  1.11496E+02  8.17623E+01  9.22533E+01  1.07449E+02  8.58488E+01  8.99992E+01  7.62336E+01
   6.85563E+01  5.43850E+01  5.81388E+01  7.72427E+01  6.41479E+01  6.56740E+01  6.06727E+01  6.05960E+01  6.63780E+01  6.51913E+01
   5.48722E+01  3.90655E+01  5.05708E+01  5.00013E+01  5.60440E+01  5.96824E+01  5.31276E+01  4.70301E+01  3.26846E+01  4.41222E+01
   2.67259E+01  2.93422E+01  4.31087E+01  2.49635E+01  3.39642E+01  1.76385E+01  6.24100E+00  1.69546E+00  5.22892E+00  2.97390E+01
   1.68566E+01  6.38443E+00  5.79588E+00  2.05020E+01  2.39140E+01  2.19704E+01  4.82754E+01  3.98307E+01  4.36669E+01  5.32954E+01
   3.56382E+01  5.02218E+01  4.04058E+01  2.06832E+01  4.57488E+01  4.40403E+01  3.57857E+01  4.39893E+01  3.76967E+01  3.24061E+01
   1.29246E+01  1.59947E+01  2.92928E+01  2.14180E+01  2.78247E+01  2.39672E+01  3.23224E+01  3.74670E+01  2.75704E+01  2.96569E+01
   2.79719E+01  4.13433E+01  5.17821E+01  4.66439E+01  3.41317E+01  4.21294E+01  4.56732E+01  3.44414E+01  4.45998E+01  2.72969E+01
   1.94282E+01  2.23711E+01  7.46071E+00  8.03228E+00 -3.10495E+00 -1.83157E+01 -3.96114E+01 -7.00124E+01 -8.11506E+01 -1.01317E+02
  -1.45146E+02 -1.73755E+02 -1.87730E+02 -2.00497E+02 -2.04383E+02 -2.08298E+02 -1.97504E+02 -1.79551E+02 -1.78867E+02 -1.63694E+02
  -1.43884E+02 -1.34182E+02 -1.20234E+02 -1.11132E+02 -9.43966E+01 -8.48746E+01 -7.11855E+01 -6.08606E+01 -5.94612E+01 -4.17786E+01
  -4.32940E+01 -3.44120E+01 -2.67551E+01 -1.04717E+01  7.42661E+00 -5.14204E+00  3.00367E+00  1.65524E+01  3.90756E+01  2.73096E+01
   2.61751E+01  4.34960E+01  2.96460E+01  4.52486E+01  4.32736E+01  4.43759E+01  4.16198E+01  5.15766E+01  6.34972E+01  5.06956E+01
   6.47190E+01  4.07588E+01  4.27724E+01  3.41177E+01  8.46694E+00  2.07593E+01  4.23041E+00  4.49105E+00  9.68775E-02  4.60487E-01
  -2.13670E+01 -4.23634E+01 -2.60581E+01 -4.98456E+01 -6.07378E+01 -7.70583E+01 -7.92967E+01 -5.94098E+01 -7.63129E+01 -6.86598E+01
  -6.95791E+01 -9.34290E+01 -8.17386E+01 -6.93481E+01 -6.51977E+01 -6.93150E+01 -8.25748E+01 -7.60258E+01 -7.03901E+01 -6.16835E+01
  -6.56304E+01 -7.36490E+01 -6.81950E+01 -6.79839E+01 -7.60818E+01 -8.32222E+01 -5.83864E+01 -6.50257E+01 -7.15171E+01 -5.83130E+01
  -5.62656E+01 -5.48126E+01 -7.09333E+01 -4.95561E+01 -5.34647E+01 -6.09338E+01 -4.88296E+01 -5.50755E+01 -5.53632E+01 -5.97437E+01
  -4.64126E+01 -6.24708E+01 -5.91704E+01 -4.80454E+01 -5.79566E+01 -5.17690E+01 -5.95951E+01 -5.12072E+01 -4.73366E+01 -4.87812E+01
  -5.46388E+01 -4.60229E+01 -3.93111E+01 -4.34672E+01 -3.49020E+01 -5.96057E+01 -6.04976E+01 -4.01850E+01 -3.95097E+01 -4.71528E+01
  -4.93507E+01 -4.15280E+01 -4.60458E+01 -3.88883E+01 -3.61122E+01 -3.94950E+01 -2.95943E+01 -3.99978E+01 -4.36049E+01 -3.57749E+01
  -5.18282E+01 -3.91307E+01 -3.02560E+01 -4.73852E+01 -3.01523E+01 -2.66519E+01 -3.56095E+01 -3.71892E+01 -4.39512E+01 -3.60598E+01
 NY points of the fit to the data follow
  -9.04626E+01 -8.61826E+01 -8.10134E+01 -7.50419E+01 -6.84885E+01 -6.16405E+01 -5.47819E+01 -4.83684E+01 -4.30284E+01 -3.95440E+01
  -3.82862E+01 -3.97472E+01 -4.34650E+01 -4.91774E+01 -5.61743E+01 -6.27102E+01 -6.82856E+01 -7.23142E+01 -7.49544E+01 -7.64812E+01
  -7.70649E+01 -7.68152E+01 -7.57585E+01 -7.39590E+01 -7.15055E+01 -6.84561E+01 -6.47341E+01 -6.01239E+01 -5.46823E+01 -4.88557E+01
  -4.32853E+01 -3.90905E+01 -3.70285E+01 -3.74485E+01 -3.96282E+01 -4.21366E+01 -4.47365E+01 -4.72112E+01 -4.95161E+01 -5.16626E+01
  -5.36097E+01 -5.52369E+01 -5.64324E+01 -5.71319E+01 -5.72163E+01 -5.63998E+01 -5.43242E+01 -5.08568E+01 -4.63853E+01 -4.17463E+01
  -3.79301E+01 -3.56903E+01 -3.45087E+01 -3.41578E+01 -3.44447E+01 -3.49176E+01 -3.52470E+01 -3.50133E+01 -3.40786E+01 -3.24558E+01
  -3.02482E+01 -2.76489E+01 -2.49839E+01 -2.25823E+01 -2.05694E+01 -1.87553E+01 -1.68806E+01 -1.48942E+01 -1.28951E+01 -1.08885E+01
  -8.88955E+00 -6.84516E+00 -5.00745E+00 -3.53410E+00 -2.93149E+00 -3.04933E+00 -3.88826E+00 -5.19491E+00 -6.71704E+00 -8.35797E+00
  -1.01915E+01 -1.23172E+01 -1.47454E+01 -1.74961E+01 -2.05271E+01 -2.35953E+01 -2.63232E+01 -2.82721E+01 -2.89215E+01 -2.77166E+01
  -2.43230E+01 -1.88524E+01 -1.18752E+01 -4.03119E+00  2.94746E+00  8.81964E+00  1.25772E+01  1.46579E+01  1.56057E+01  1.47226E+01
   1.14612E+01  6.17917E+00 -4.98126E-01 -8.08351E+00 -1.64181E+01 -2.55532E+01 -3.56017E+01 -4.65754E+01 -5.82449E+01 -7.00856E+01
  -8.12852E+01 -9.08422E+01 -9.76939E+01 -1.01180E+02 -1.01254E+02 -9.75221E+01 -9.05519E+01 -8.01679E+01 -6.77987E+01 -5.63782E+01
  -4.67884E+01 -3.82039E+01 -2.97573E+01 -2.16943E+01 -1.50034E+01 -1.00066E+01 -6.62176E+00 -4.63292E+00 -3.87050E+00 -4.25806E+00
  -5.83433E+00 -8.67720E+00 -1.28636E+01 -1.84252E+01 -2.51966E+01 -3.29364E+01 -4.13402E+01 -5.01169E+01 -5.89740E+01 -6.72510E+01
  -7.38297E+01 -7.75695E+01 -7.80876E+01 -7.70668E+01 -7.60832E+01 -7.50749E+01 -7.39859E+01 -7.27497E+01 -7.13092E+01 -6.96211E+01
  -6.76994E+01 -6.55325E+01 -6.31765E+01 -6.07556E+01 -5.83366E+01 -5.60629E+01 -5.39119E+01 -5.17629E+01 -4.95984E+01 -4.75000E+01
  -4.55829E+01 -4.38503E+01 -4.21357E+01 -4.03326E+01 -3.85492E+01 -3.69026E+01 -3.54224E+01 -3.41674E+01 -3.32150E+01 -3.25987E+01
  -3.22730E+01 -3.21489E+01 -3.21867E+01 -3.25123E+01 -3.32381E+01 -3.43281E+01 -3.56474E+01 -3.71011E+01 -3.87970E+01 -4.07945E+01
  -4.29564E+01 -4.47921E+01 -4.57518E+01 -4.59143E+01 -4.55320E+01 -4.47132E+01 -4.35798E+01 -4.21974E+01 -4.06442E+01 -3.88867E+01
  -3.68925E+01 -3.47222E+01 -3.25193E+01 -3.04305E+01 -2.85251E+01 -2.68615E+01 -2.55334E+01 -2.46338E+01 -2.43085E+01 -2.45901E+01
  -2.54051E+01 -2.65319E+01 -2.78518E+01 -2.95085E+01 -3.11981E+01 -3.26837E+01 -3.40820E+01 -3.49837E+01 -3.54189E+01 -3.52674E+01
  -3.44696E+01 -3.32475E+01 -3.17218E+01 -2.99082E+01 -2.76151E+01 -2.46861E+01 -2.11109E+01 -1.69480E+01 -1.24448E+01 -7.89250E+00
  -3.67106E+00 -2.99594E-01  1.67290E+00  1.75691E+00 -7.06369E-02 -3.79386E+00 -9.26562E+00 -1.53980E+01 -2.21500E+01 -2.90359E+01
  -3.56923E+01 -4.22806E+01 -4.86122E+01 -5.44522E+01 -5.93786E+01 -6.30248E+01 -6.51106E+01 -6.54952E+01 -6.41590E+01 -6.12776E+01
  -5.71883E+01 -5.24139E+01 -4.77659E+01 -4.43493E+01 -4.19467E+01 -3.94629E+01 -3.62605E+01 -3.20657E+01 -2.74328E+01 -2.22184E+01
  -1.65655E+01 -1.06125E+01 -4.05364E+00  3.36042E+00  1.19619E+01  2.20224E+01  3.35277E+01  4.62150E+01  5.95236E+01  7.24861E+01
   8.38001E+01  9.19476E+01  9.54155E+01  9.37772E+01  8.93617E+01  8.48392E+01  8.05431E+01  7.65890E+01  7.30422E+01  6.98754E+01
   6.70754E+01  6.46041E+01  6.24702E+01  6.07298E+01  5.93969E+01  5.84779E+01  5.79131E+01  5.75959E+01  5.73540E+01  5.70305E+01
   5.64538E+01  5.55265E+01  5.41177E+01  5.22200E+01  4.98414E+01  4.70095E+01  4.38882E+01  4.05792E+01  3.72190E+01  3.38815E+01
   3.06509E+01  2.76073E+01  2.48368E+01  2.24151E+01  2.04101E+01  1.89151E+01  1.80056E+01  1.77581E+01  1.82154E+01  1.93513E+01
   2.11098E+01  2.33718E+01  2.59705E+01  2.87684E+01  3.16525E+01  3.45387E+01  3.73876E+01  4.01525E+01  4.27767E+01  4.52129E+01
   4.74544E+01  4.94597E+01  5.11920E+01  5.26045E+01  5.36445E+01  5.42488E+01  5.43364E+01  5.38368E+01  5.26920E+01  5.08618E+01
   4.83523E+01  4.51960E+01  4.15039E+01  3.74312E+01  3.31533E+01  2.88785E+01  2.48200E+01  2.11513E+01  1.80610E+01  1.57976E+01
   1.47030E+01  1.52400E+01  1.81207E+01  2.42844E+01  3.26864E+01  4.07813E+01  4.74097E+01  4.98533E+01  4.84278E+01  4.44549E+01
   3.90007E+01  3.23483E+01  2.39889E+01  1.29996E+01 -1.64743E+00 -2.07084E+01 -4.44930E+01 -7.26295E+01 -1.03790E+02 -1.35585E+02
  -1.64516E+02 -1.86320E+02 -1.97106E+02 -1.95285E+02 -1.84398E+02 -1.69315E+02 -1.53269E+02 -1.41292E+02 -1.31834E+02 -1.23669E+02
  -1.16108E+02 -1.08775E+02 -1.01520E+02 -9.43300E+01 -8.72315E+01 -8.02225E+01 -7.33404E+01 -6.65851E+01 -5.99129E+01 -5.32895E+01
  -4.66527E+01 -3.99276E+01 -3.30232E+01 -2.58652E+01 -1.84038E+01 -1.06276E+01 -2.58806E+00  5.59179E+00  1.37310E+01  2.16096E+01
   2.90213E+01  3.58137E+01  4.18295E+01  4.69323E+01  5.10008E+01  5.38743E+01  5.53146E+01  5.51368E+01  5.32068E+01  4.94197E+01
   4.38359E+01  3.66905E+01  2.83584E+01  1.92762E+01  9.93085E+00  7.46190E-01 -7.99995E+00 -1.62102E+01 -2.39305E+01 -3.12397E+01
  -3.81550E+01 -4.46200E+01 -5.05333E+01 -5.57445E+01 -6.01267E+01 -6.36299E+01 -6.63018E+01 -6.82371E+01 -6.95869E+01 -7.04938E+01
  -7.10472E+01 -7.13384E+01 -7.14398E+01 -7.14004E+01 -7.12323E+01 -7.09428E+01 -7.05559E+01 -7.00930E+01 -6.95688E+01 -6.90079E+01
  -6.84195E+01 -6.78120E+01 -6.71893E+01 -6.65697E+01 -6.59447E+01 -6.53018E+01 -6.46505E+01 -6.40103E+01 -6.33760E+01 -6.27136E+01
  -6.20363E+01 -6.13550E+01 -6.06732E+01 -5.99919E+01 -5.93211E+01 -5.86738E+01 -5.80473E+01 -5.74218E+01 -5.67715E+01 -5.60983E+01
  -5.54150E+01 -5.47442E+01 -5.40967E+01 -5.34757E+01 -5.28798E+01 -5.22959E+01 -5.17285E+01 -5.11572E+01 -5.05817E+01 -4.99913E+01
  -4.93839E+01 -4.87528E+01 -4.81155E+01 -4.74930E+01 -4.68902E+01 -4.63027E+01 -4.57123E+01 -4.51141E+01 -4.45010E+01 -4.38826E+01
  -4.32886E+01 -4.27357E+01 -4.22138E+01 -4.17130E+01 -4.12312E+01 -4.07603E+01 -4.02948E+01 -3.98293E+01 -3.93708E+01 -3.89194E+01
  -3.84820E+01 -3.80726E+01 -3.76946E+01 -3.73426E+01 -3.70070E+01 -3.66803E+01 -3.63338E+01 -3.59450E+01 -3.55033E+01 -3.50328E+01
 NY background values follow
    -3.994E+01   -4.061E+01   -4.127E+01   -4.194E+01   -4.261E+01   -4.327E+01   -4.393E+01   -4.459E+01   -4.524E+01   -4.589E+01
    -4.653E+01   -4.717E+01   -4.780E+01   -4.842E+01   -4.903E+01   -4.963E+01   -5.022E+01   -5.080E+01   -5.136E+01   -5.191E+01
    -5.245E+01   -5.297E+01   -5.347E+01   -5.396E+01   -5.443E+01   -5.488E+01   -5.531E+01   -5.572E+01   -5.611E+01   -5.648E+01
    -5.682E+01   -5.714E+01   -5.743E+01   -5.770E+01   -5.795E+01   -5.818E+01   -5.838E+01   -5.856E+01   -5.872E+01   -5.886E+01
    -5.897E+01   -5.906E+01   -5.914E+01   -5.919E+01   -5.922E+01   -5.923E+01   -5.922E+01   -5.919E+01   -5.914E+01   -5.907E+01
    -5.898E+01   -5.887E+01   -5.875E+01   -5.860E+01   -5.844E+01   -5.826E+01   -5.806E+01   -5.785E+01   -5.762E+01   -5.737E+01
    -5.710E+01   -5.682E+01   -5.653E+01   -5.621E+01   -5.589E+01   -5.554E+01   -5.519E+01   -5.482E+01   -5.443E+01   -5.404E+01
    -5.363E+01   -5.321E+01   -5.278E+01   -5.234E+01   -5.188E+01   -5.142E+01   -5.094E+01   -5.046E+01   -4.997E+01   -4.947E+01
    -4.896E+01   -4.844E+01   -4.792E+01   -4.739E+01   -4.685E+01   -4.631E+01   -4.576E+01   -4.521E+01   -4.465E+01   -4.409E+01
    -4.352E+01   -4.295E+01   -4.238E+01   -4.180E+01   -4.123E+01   -4.065E+01   -4.006E+01   -3.948E+01   -3.889E+01   -3.830E+01
    -3.771E+01   -3.712E+01   -3.653E+01   -3.594E+01   -3.535E+01   -3.476E+01   -3.417E+01   -3.358E+01   -3.299E+01   -3.240E+01
    -3.182E+01   -3.123E+01   -3.065E+01   -3.007E+01   -2.949E+01   -2.891E+01   -2.834E+01   -2.777E+01   -2.721E+01   -2.664E+01
    -2.609E+01   -2.553E+01   -2.498E+01   -2.444E+01   -2.390E+01   -2.336E+01   -2.284E+01   -2.232E+01   -2.180E+01   -2.130E+01
    -2.080E+01   -2.031E+01   -1.982E+01   -1.935E+01   -1.889E+01   -1.843E+01   -1.799E+01   -1.755E+01   -1.713E+01   -1.672E+01
    -1.631E+01   -1.593E+01   -1.555E+01   -1.519E+01   -1.483E+01   -1.450E+01   -1.417E+01   -1.387E+01   -1.357E+01   -1.329E+01
    -1.303E+01   -1.278E+01   -1.254E+01   -1.233E+01   -1.212E+01   -1.193E+01   -1.175E+01   -1.158E+01   -1.142E+01   -1.127E+01
    -1.114E+01   -1.101E+01   -1.089E+01   -1.078E+01   -1.068E+01   -1.058E+01   -1.049E+01   -1.041E+01   -1.033E+01   -1.025E+01
    -1.018E+01   -1.011E+01   -1.005E+01   -9.986E+00   -9.925E+00   -9.864E+00   -9.803E+00   -9.742E+00   -9.680E+00   -9.617E+00
    -9.551E+00   -9.482E+00   -9.410E+00   -9.336E+00   -9.259E+00   -9.180E+00   -9.097E+00   -9.012E+00   -8.924E+00   -8.833E+00
    -8.739E+00   -8.642E+00   -8.542E+00   -8.440E+00   -8.334E+00   -8.225E+00   -8.113E+00   -7.998E+00   -7.880E+00   -7.758E+00
    -7.634E+00   -7.506E+00   -7.375E+00   -7.241E+00   -7.104E+00   -6.963E+00   -6.819E+00   -6.672E+00   -6.521E+00   -6.367E+00
    -6.209E+00   -6.048E+00   -5.886E+00   -5.721E+00   -5.556E+00   -5.391E+00   -5.228E+00   -5.066E+00   -4.907E+00   -4.751E+00
    -4.600E+00   -4.453E+00   -4.313E+00   -4.180E+00   -4.054E+00   -3.937E+00   -3.829E+00   -3.732E+00   -3.645E+00   -3.570E+00
    -3.507E+00   -3.458E+00   -3.424E+00   -3.404E+00   -3.400E+00   -3.413E+00   -3.444E+00   -3.493E+00   -3.561E+00   -3.650E+00
    -3.759E+00   -3.889E+00   -4.040E+00   -4.212E+00   -4.405E+00   -4.617E+00   -4.850E+00   -5.102E+00   -5.374E+00   -5.666E+00
    -5.976E+00   -6.306E+00   -6.654E+00   -7.020E+00   -7.405E+00   -7.808E+00   -8.228E+00   -8.666E+00   -9.122E+00   -9.594E+00
    -1.008E+01   -1.059E+01   -1.111E+01   -1.165E+01   -1.220E+01   -1.277E+01   -1.336E+01   -1.396E+01   -1.458E+01   -1.521E+01
    -1.585E+01   -1.651E+01   -1.718E+01   -1.787E+01   -1.856E+01   -1.927E+01   -1.999E+01   -2.072E+01   -2.145E+01   -2.220E+01
    -2.295E+01   -2.371E+01   -2.447E+01   -2.524E+01   -2.601E+01   -2.679E+01   -2.757E+01   -2.835E+01   -2.913E+01   -2.991E+01
    -3.070E+01   -3.148E+01   -3.226E+01   -3.303E+01   -3.381E+01   -3.458E+01   -3.534E+01   -3.610E+01   -3.685E+01   -3.760E+01
    -3.833E+01   -3.906E+01   -3.978E+01   -4.049E+01   -4.120E+01   -4.189E+01   -4.257E+01   -4.324E+01   -4.391E+01   -4.456E+01
    -4.520E+01   -4.583E+01   -4.644E+01   -4.705E+01   -4.764E+01   -4.822E+01   -4.879E+01   -4.934E+01   -4.988E+01   -5.041E+01
    -5.092E+01   -5.142E+01   -5.190E+01   -5.237E+01   -5.282E+01   -5.325E+01   -5.367E+01   -5.408E+01   -5.446E+01   -5.483E+01
    -5.519E+01   -5.552E+01   -5.584E+01   -5.614E+01   -5.643E+01   -5.669E+01   -5.694E+01   -5.717E+01   -5.738E+01   -5.758E+01
    -5.776E+01   -5.792E+01   -5.807E+01   -5.819E+01   -5.830E+01   -5.839E+01   -5.847E+01   -5.852E+01   -5.856E+01   -5.858E+01
    -5.859E+01   -5.857E+01   -5.854E+01   -5.850E+01   -5.843E+01   -5.835E+01   -5.825E+01   -5.813E+01   -5.799E+01   -5.784E+01
    -5.767E+01   -5.748E+01   -5.727E+01   -5.705E+01   -5.682E+01   -5.657E+01   -5.630E+01   -5.603E+01   -5.574E+01   -5.543E+01
    -5.512E+01   -5.480E+01   -5.446E+01   -5.412E+01   -5.377E+01   -5.341E+01   -5.304E+01   -5.266E+01   -5.228E+01   -5.189E+01
    -5.150E+01   -5.110E+01   -5.070E+01   -5.030E+01   -4.989E+01   -4.948E+01   -4.907E+01   -4.866E+01   -4.825E+01   -4.784E+01
    -4.743E+01   -4.703E+01   -4.662E+01   -4.622E+01   -4.581E+01   -4.541E+01   -4.501E+01   -4.461E+01   -4.421E+01   -4.381E+01
    -4.342E+01   -4.302E+01   -4.263E+01   -4.223E+01   -4.184E+01   -4.145E+01   -4.106E+01   -4.067E+01   -4.028E+01   -3.989E+01
    -3.950E+01   -3.912E+01   -3.873E+01   -3.834E+01   -3.796E+01   -3.757E+01   -3.719E+01   -3.680E+01   -3.642E+01   -3.604E+01
    -3.565E+01   -3.527E+01   -3.489E+01   -3.451E+01   -3.412E+01   -3.374E+01   -3.336E+01   -3.298E+01   -3.260E+01   -3.222E+01
    -3.184E+01   -3.146E+01   -3.108E+01   -3.071E+01   -3.033E+01   -2.995E+01   -2.957E+01   -2.919E+01   -2.882E+01   -2.844E+01
    -2.806E+01   -2.769E+01   -2.731E+01   -2.693E+01   -2.656E+01   -2.618E+01   -2.581E+01   -2.543E+01   -2.506E+01   -2.468E+01
    -2.431E+01   -2.393E+01   -2.356E+01   -2.318E+01   -2.281E+01   -2.244E+01   -2.206E+01   -2.169E+01   -2.132E+01   -2.094E+01
    -2.057E+01   -2.020E+01   -1.982E+01   -1.945E+01   -1.908E+01   -1.871E+01   -1.834E+01   -1.796E+01   -1.759E+01   -1.722E+01
    -1.685E+01   -1.648E+01   -1.611E+01   -1.573E+01   -1.536E+01   -1.499E+01   -1.462E+01   -1.425E+01   -1.388E+01   -1.351E+01
 Mac      Conc. = 3.67E-04
  -6.57148E+01 -6.73334E+01 -6.89752E+01 -7.06287E+01 -7.23244E+01 -7.41114E+01 -7.59981E+01 -7.79097E+01 -7.97537E+01 -8.14770E+01
  -8.30035E+01 -8.42553E+01 -8.51828E+01 -8.57702E+01 -8.60267E+01 -8.59580E+01 -8.55768E+01 -8.48793E+01 -8.38453E+01 -8.24567E+01
  -8.06920E+01 -7.85864E+01 -7.61933E+01 -7.36754E+01 -7.12590E+01 -6.91516E+01 -6.74145E+01 -6.59072E+01 -6.45202E+01 -6.32232E+01
  -6.19738E+01 -6.07529E+01 -5.95999E+01 -5.85350E+01 -5.75548E+01 -5.66407E+01 -5.57828E+01 -5.49539E+01 -5.41290E+01 -5.33116E+01
  -5.25114E+01 -5.17371E+01 -5.10195E+01 -5.04302E+01 -5.00355E+01 -4.98616E+01 -4.98505E+01 -4.98940E+01 -4.99514E+01 -5.00539E+01
  -5.02283E+01 -5.04550E+01 -5.06961E+01 -5.08758E+01 -5.09421E+01 -5.08663E+01 -5.06232E+01 -5.02059E+01 -4.96382E+01 -4.89692E+01
  -4.82024E+01 -4.73280E+01 -4.63813E+01 -4.54149E+01 -4.44900E+01 -4.36538E+01 -4.29019E+01 -4.22045E+01 -4.15465E+01 -4.08618E+01
  -4.00651E+01 -3.91295E+01 -3.80642E+01 -3.68785E+01 -3.56431E+01 -3.43948E+01 -3.32090E+01 -3.21474E+01 -3.12908E+01 -3.06243E+01
  -3.00604E+01 -2.95078E+01 -2.89116E+01 -2.82180E+01 -2.74089E+01 -2.65112E+01 -2.55664E+01 -2.46403E+01 -2.37920E+01 -2.30592E+01
  -2.24864E+01 -2.21340E+01 -2.20404E+01 -2.22286E+01 -2.27606E+01 -2.36834E+01 -2.50871E+01 -2.69886E+01 -2.93583E+01 -3.20996E+01
  -3.50806E+01 -3.81720E+01 -4.12556E+01 -4.42424E+01 -4.71045E+01 -4.98226E+01 -5.23564E+01 -5.46447E+01 -5.65709E+01 -5.79711E+01
