 LCModel (Version 6.3-1N) Copyright: S.W. Provencher.          Ref.: Magn. Reson. Med. 30:672-679 (1993).                
 Slice_N1@10_22  28-Feb-2025 11:37:04
 27 lines in following concentration table = NCONC+1
    Conc.  %SD /Cr+PCr  Metabolite                                         
 3.07E-04   4% 3.2E-04 Mac                                                 
    2.700  50%   2.775 Cr                                                  
    5.085  25%   5.225 PCr                                                 
    4.500  20%   4.624 Ins                                                 
   11.372   8%  11.686 NAA                                                 
    4.557  21%   4.683 Tau                                                 
    0.516 184%   0.531 PCho                                                
    0.654 140%   0.673 GPC                                                 
    8.571  12%   8.807 Glu                                                 
    4.186  20%   4.302 Gln                                                 
    4.941  15%   5.077 Ala                                                 
    0.997 130%   1.025 Asc                                                 
    3.270  31%   3.360 Asp                                                 
    0.000 999%   0.000 GABA                                                
    1.301  54%   1.337 Glc                                                 
    0.632  82%   0.649 GSH                                                 
    0.000 999%   0.000 Lac                                                 
    2.049  32%   2.106 NAAG                                                
    0.525 228%   0.539 PE                                                  
    1.171  27%   1.203 GPC+PCho                                            
   13.422   6%  13.792 NAA+NAAG                                            
   12.757  11%  13.109 Glu+Gln                                             
    7.785  10%   8.000 Cr+PCr                                              
   13.422   6%  13.792 NAA+NAAG                                            
    7.785  10%   8.000 Cr+PCr                                              
   12.757  11%  13.109 Glu+Gln                                             
   6 lines in following misc. output table
  FWHM = 0.033 ppm    S/N =   3                                            
  Data shift = 0.057 ppm                                                   
  Ph: -89 deg       0.0 deg/ppm                                            
  alphaB,S = 2.1E-01,   5.8E+00                                            
   19 spline knots.   Ns = 5(1)                                            
  ( 4) 2 infls.   ( 2) 2 extrs.                                            
  480 points on ppm-axis = NY
      4.100000     4.091866     4.083733     4.075600     4.067466     4.059333     4.051199     4.043066     4.034933     4.026799
      4.018666     4.010532     4.002399     3.994265     3.986132     3.977998     3.969864     3.961731     3.953597     3.945463
      3.937330     3.929196     3.921062     3.912929     3.904795     3.896662     3.888528     3.880394     3.872261     3.864127
      3.855993     3.847860     3.839726     3.831592     3.823459     3.815325     3.807191     3.799058     3.790924     3.782790
      3.774657     3.766523     3.758389     3.750256     3.742122     3.733989     3.725855     3.717721     3.709588     3.701454
      3.693320     3.685187     3.677053     3.668919     3.660786     3.652652     3.644518     3.636385     3.628251     3.620117
      3.611984     3.603850     3.595716     3.587583     3.579449     3.571316     3.563182     3.555048     3.546915     3.538781
      3.530647     3.522514     3.514380     3.506246     3.498113     3.489979     3.481845     3.473712     3.465578     3.457444
      3.449311     3.441177     3.433043     3.424910     3.416776     3.408643     3.400509     3.392375     3.384242     3.376108
      3.367974     3.359841     3.351707     3.343573     3.335440     3.327306     3.319172     3.311039     3.302905     3.294771
      3.286638     3.278504     3.270370     3.262237     3.254103     3.245970     3.237836     3.229702     3.221569     3.213435
      3.205301     3.197168     3.189034     3.180900     3.172767     3.164633     3.156499     3.148366     3.140232     3.132098
      3.123965     3.115831     3.107697     3.099564     3.091430     3.083297     3.075163     3.067029     3.058896     3.050762
      3.042628     3.034495     3.026361     3.018227     3.010094     3.001960     2.993826     2.985693     2.977559     2.969425
      2.961292     2.953158     2.945024     2.936891     2.928757     2.920624     2.912490     2.904356     2.896223     2.888089
      2.879955     2.871822     2.863688     2.855554     2.847421     2.839287     2.831153     2.823020     2.814886     2.806752
      2.798619     2.790485     2.782351     2.774218     2.766084     2.757951     2.749817     2.741683     2.733550     2.725416
      2.717282     2.709149     2.701015     2.692881     2.684748     2.676614     2.668480     2.660347     2.652213     2.644079
      2.635946     2.627812     2.619678     2.611545     2.603411     2.595278     2.587144     2.579010     2.570877     2.562743
      2.554609     2.546476     2.538342     2.530208     2.522075     2.513941     2.505807     2.497674     2.489540     2.481406
      2.473273     2.465139     2.457006     2.448872     2.440738     2.432605     2.424471     2.416337     2.408204     2.400070
      2.391936     2.383803     2.375669     2.367535     2.359402     2.351268     2.343134     2.335001     2.326867     2.318733
      2.310600     2.302466     2.294333     2.286199     2.278065     2.269932     2.261798     2.253664     2.245531     2.237397
      2.229263     2.221130     2.212996     2.204862     2.196729     2.188595     2.180461     2.172328     2.164194     2.156060
      2.147927     2.139793     2.131660     2.123526     2.115392     2.107259     2.099125     2.090991     2.082858     2.074724
      2.066590     2.058457     2.050323     2.042189     2.034056     2.025922     2.017788     2.009655     2.001521     1.993387
      1.985254     1.977120     1.968987     1.960853     1.952719     1.944586     1.936452     1.928318     1.920185     1.912051
      1.903917     1.895784     1.887650     1.879516     1.871383     1.863249     1.855115     1.846982     1.838848     1.830714
      1.822581     1.814447     1.806314     1.798180     1.790046     1.781913     1.773779     1.765645     1.757512     1.749378
      1.741244     1.733111     1.724977     1.716843     1.708710     1.700576     1.692442     1.684309     1.676175     1.668041
      1.659908     1.651774     1.643641     1.635507     1.627373     1.619240     1.611106     1.602972     1.594839     1.586705
      1.578571     1.570438     1.562304     1.554170     1.546037     1.537903     1.529769     1.521636     1.513502     1.505368
      1.497235     1.489101     1.480968     1.472834     1.464700     1.456567     1.448433     1.440299     1.432166     1.424032
      1.415898     1.407765     1.399631     1.391497     1.383364     1.375230     1.367096     1.358963     1.350829     1.342695
      1.334562     1.326428     1.318295     1.310161     1.302027     1.293894     1.285760     1.277626     1.269493     1.261359
      1.253225     1.245092     1.236958     1.228824     1.220691     1.212557     1.204423     1.196290     1.188156     1.180022
      1.171889     1.163755     1.155622     1.147488     1.139354     1.131221     1.123087     1.114953     1.106820     1.098686
      1.090552     1.082419     1.074285     1.066151     1.058018     1.049884     1.041750     1.033617     1.025483     1.017349
      1.009216     1.001082     0.992949     0.984815     0.976681     0.968548     0.960414     0.952280     0.944147     0.936013
      0.927879     0.919746     0.911612     0.903478     0.895345     0.887211     0.879077     0.870944     0.862810     0.854676
      0.846543     0.838409     0.830276     0.822142     0.814008     0.805875     0.797741     0.789607     0.781474     0.773340
      0.765206     0.757073     0.748939     0.740805     0.732672     0.724538     0.716404     0.708271     0.700137     0.692003
      0.683870     0.675736     0.667603     0.659469     0.651335     0.643202     0.635068     0.626934     0.618801     0.610667
      0.602533     0.594400     0.586266     0.578132     0.569999     0.561865     0.553731     0.545598     0.537464     0.529330
      0.521197     0.513063     0.504930     0.496796     0.488662     0.480529     0.472395     0.464261     0.456128     0.447994
      0.439861     0.431727     0.423593     0.415460     0.407326     0.399192     0.391059     0.382925     0.374792     0.366658
      0.358524     0.350391     0.342257     0.334124     0.325990     0.317856     0.309723     0.301589     0.293455     0.285322
      0.277188     0.269055     0.260921     0.252787     0.244654     0.236520     0.228386     0.220253     0.212119     0.203986
 NY phased data points follow
   3.95927E+01  2.33857E+01  1.90109E+01  2.01887E+01  2.15753E+01  1.72203E+01  2.29135E+01  3.01805E+01  2.39236E+01  1.30785E+01
   1.19069E+01  7.87132E+00 -1.05909E+01 -1.70459E-01  2.58263E+01  2.04026E+01  3.52910E+00 -2.08684E+01 -5.91035E+01 -3.92707E+01
  -3.49687E+01 -4.90966E+01 -2.41799E+01 -1.93950E+01  1.29852E+01  2.27744E+01  3.31688E+01  5.70884E+01  3.77936E+01  6.12444E+01
   6.57045E+01  5.31661E+01  6.30543E+01  5.68805E+01  7.77216E+01  7.60502E+01  6.35640E+01  6.88375E+01  4.39778E+01  3.06184E+01
   2.07429E+01  1.20401E+01  1.16640E+01  8.06478E+00  2.13385E+01  3.52820E+01  5.39319E+01  9.14840E+01  9.42736E+01  7.68477E+01
   1.04494E+02  1.05183E+02  9.98825E+01  9.43536E+01  8.91970E+01  1.17053E+02  7.65782E+01  6.28899E+01  8.30279E+01  5.18792E+01
   4.83897E+01  5.97889E+01  5.12940E+01  6.80260E+01  9.39700E+01  1.01321E+02  9.75109E+01  7.16873E+01  7.93181E+01  6.42879E+01
   3.37116E+01  3.74438E+01  4.01162E+01  6.04776E+01  6.16046E+01  7.57335E+01  8.58144E+01  8.40125E+01  8.15814E+01  8.52923E+01
   9.29872E+01  6.91230E+01  8.19697E+01  6.83975E+01  4.16089E+01  3.96197E+01  4.71339E+01  6.76872E+01  4.56215E+01  5.80794E+01
   6.88524E+01  6.73672E+01  1.03261E+02  9.26061E+01  9.16526E+01  1.17986E+02  1.12407E+02  1.16500E+02  1.25419E+02  1.11727E+02
   1.06943E+02  1.14220E+02  1.17752E+02  1.17196E+02  7.90647E+01  6.62002E+01  9.85499E+01  8.25290E+01  4.78866E+01  1.26171E+01
  -1.07338E+01 -1.84001E+01 -1.72762E+01 -1.00280E+01 -1.00051E+01  1.90500E+01  2.26020E+01  1.63059E+01  3.84289E+01  4.29475E+01
   4.54483E+01  6.77478E+01  6.03559E+01  4.19848E+01  6.46958E+01  7.91189E+01  7.12396E+01  4.75817E+01  1.13502E+02  1.92200E+02
   1.77152E+02  1.77514E+02  1.33941E+02  7.69726E+01  4.05979E+01 -5.13670E+00 -1.09204E+01  2.50269E+00 -2.54197E+00 -9.04223E+00
  -2.52918E+00 -1.41035E+00 -7.97657E+00 -1.75953E+01 -5.46391E-01  3.84911E+00 -4.98384E+00 -1.13943E+01 -9.94106E+00  1.64606E-01
   5.24751E-02  1.05508E+01  1.35476E+00  4.89220E+00 -1.58943E+00  1.39615E+01  2.31089E+01  1.18336E+01  3.03812E+01  1.38485E+01
   4.35536E+01  3.92428E+01  3.48283E+01  4.80141E+01  2.88713E+01  3.72979E+01  1.09061E+01  3.47091E+01  1.97476E+01  7.62326E+00
   4.65373E+01  4.02340E+01  7.51977E+01  6.77375E+01  5.81321E+01  8.90458E+01  8.39505E+01  8.03241E+01  7.20637E+01  5.56634E+01
   5.29368E+01  4.03693E+01  1.75411E+01  1.80806E+01  2.67523E+01  1.34638E+00 -2.00157E+00  1.14986E+01 -8.36699E+00  1.12493E+01
  -3.88256E+00 -6.69714E+00  2.10714E+01  4.17610E+00  1.83547E+01  5.43773E+00  2.07979E+01  4.08252E+01  4.25822E+01  4.20228E+01
   2.71686E+01  5.49047E+01  4.34380E+01  6.17914E+01  6.58229E+01  4.30169E+01  6.73762E+01  4.92989E+01  1.81552E+01  1.29684E+01
   2.26278E+01  1.24650E+01  1.06893E+01  1.52576E+01  1.90577E+01  5.61796E+01  9.31829E+01  9.70034E+01  8.97317E+01  9.42741E+01
   7.96511E+01  5.86752E+01  2.81861E+01  2.66387E+01  3.49869E+01  2.78286E+01  4.62037E+01  4.54375E+01  3.09757E+01  1.00129E+01
   2.74188E+01  4.39710E+01  1.75406E+01  1.93181E+01 -1.64327E+00 -1.45620E+01  4.29964E+00 -1.89683E+01 -3.33435E+01 -2.47784E+01
  -3.00980E+01 -2.99116E+01 -1.70630E+01 -1.17820E+01 -1.88259E+01  1.03445E+01  1.69270E+01 -9.12516E+00 -4.03729E+00  5.09108E+00
   4.22654E+00 -7.32562E+00  4.01500E+01 -5.64645E+00 -1.18412E+02 -8.14268E+01 -6.74642E+01 -4.82411E+01  5.47173E+01  1.48068E+02
   1.97471E+02  1.97936E+02  1.79214E+02  1.56540E+02  1.61052E+02  1.53054E+02  1.46382E+02  1.45024E+02  1.29599E+02  1.40560E+02
   1.27504E+02  1.00653E+02  1.19913E+02  1.18145E+02  9.74471E+01  1.17850E+02  1.13493E+02  1.03199E+02  1.05871E+02  1.03558E+02
   1.05522E+02  1.05575E+02  1.11359E+02  9.42691E+01  9.67995E+01  1.05419E+02  9.89500E+01  9.44478E+01  1.01428E+02  9.90930E+01
   6.81942E+01  7.43682E+01  6.07406E+01  6.40814E+01  6.86270E+01  3.98270E+01  5.05185E+01  4.02099E+01  3.83351E+01  4.12042E+01
   3.60612E+01  3.48377E+01  3.45193E+01  4.19837E+01  5.08070E+01  6.29400E+01  5.36475E+01  7.07979E+01  8.74419E+01  9.51345E+01
   1.21269E+02  1.38390E+02  1.31684E+02  1.12171E+02  1.06058E+02  9.66290E+01  8.48102E+01  6.16201E+01  5.49416E+01  4.23313E+01
   3.52440E+01  5.72510E+01  4.14326E+01  2.61211E+01  2.75652E+01  3.72319E+00 -1.93700E+01 -1.15383E+01 -2.21101E+01 -2.47704E+01
  -2.83014E+01 -2.87745E+01 -1.25318E+01 -3.23456E+01 -3.58322E+01 -4.59725E+01 -3.50622E+01 -2.57435E+01 -2.03076E+01  1.08384E+01
   1.18780E+01  1.42864E+01  1.16784E+01  3.31520E+01  3.28850E+01  4.63009E+01  7.05618E+01  4.62531E+01  5.62738E+01  5.73239E+01
   6.02202E+01  7.55080E+01  7.70496E+01  6.46406E+01  5.21986E+01  6.11329E+01  6.28882E+01  5.56499E+01  4.66074E+01  5.08491E+01
   5.00128E+01  2.59548E+01  2.56755E+01  4.90776E+01  3.82473E+01  3.50355E+01  4.12528E+01  3.88606E+01  5.24770E+01  5.24790E+01
   6.57849E+01  8.09527E+01  7.63645E+01  7.87971E+01  7.47816E+01  7.79338E+01  9.35317E+01  7.78982E+01  8.82703E+01  1.13897E+02
   1.06909E+02  1.22509E+02  1.21858E+02  1.16625E+02  1.39136E+02  1.53603E+02  1.49207E+02  1.64679E+02  1.89836E+02  1.95333E+02
   1.85057E+02  1.69930E+02  1.63081E+02  1.40602E+02  1.40476E+02  1.22512E+02  1.18889E+02  1.20010E+02  1.02876E+02  1.07551E+02
   7.90367E+01  9.51243E+01  8.86897E+01  7.00035E+01  5.62773E+01  2.93876E+01  4.34846E+01  3.74335E+01  4.76042E+01  3.95326E+01
   4.01285E+01  4.96677E+01  3.47141E+01  2.67861E+01  2.89432E+01  3.43434E+01  3.40835E+01  4.84906E+01  2.87806E+01  2.84212E+01
   3.50045E+01  1.70481E+01  2.19654E+01  3.62167E+01  3.08847E+01  3.21449E+01  4.65723E+01  2.98939E+01  4.46805E+01  2.86968E+01
   1.34405E+01  3.85285E+01  2.92252E+01  2.74434E+01  9.33445E+00  2.06713E+01  4.39846E+01  2.72060E+01  3.90751E+01  3.99631E+01
   2.04700E+01  3.90187E+01  3.80214E+01  2.24223E+01  3.19015E+01  3.16383E+01  3.87346E+01  5.07419E+01  2.93543E+01  1.86603E+01
   3.85873E+01  2.50999E+01  2.17808E+01  2.97130E+01  3.55895E+01  4.53882E+01  3.85641E+01  4.03083E+01  3.43453E+01  4.27482E+01
   3.35679E+01  2.53992E+01  2.58669E+01  1.92326E+01  2.75589E+01  3.05684E+01  4.02119E+01  2.57713E+01  2.59580E+01  2.95751E+01
   3.49309E+01  4.24375E+01  3.59684E+01  4.30914E+01  2.61909E+01  2.34319E+01  3.57523E+01  4.28863E+01  2.88898E+01  2.56812E+01
 NY points of the fit to the data follow
   2.64732E+01  2.23030E+01  1.32090E+01  7.31204E+00  7.51092E+00  1.07663E+01  1.62219E+01  2.22926E+01  2.50837E+01  2.31804E+01
   1.95554E+01  1.62959E+01  1.38421E+01  1.14783E+01  7.47401E+00  5.33196E+00  1.25468E+01 -2.92327E+00 -2.78964E+01 -2.95650E+01
  -3.73360E+01 -4.23028E+01 -2.28354E+01  2.51481E-02  1.81500E+01  3.37702E+01  4.76499E+01  5.74967E+01  6.29480E+01  6.75850E+01
   7.14520E+01  7.36255E+01  7.38125E+01  7.08863E+01  6.91205E+01  6.54206E+01  6.39077E+01  5.93510E+01  4.39352E+01  2.60199E+01
   1.06638E+01 -1.51089E+00 -2.36544E+00  9.87523E+00  2.80503E+01  4.71561E+01  6.41914E+01  7.55072E+01  8.21068E+01  8.53701E+01
   8.65337E+01  8.63547E+01  8.54186E+01  7.90957E+01  7.24810E+01  7.42079E+01  6.69591E+01  5.61523E+01  5.86867E+01  5.59898E+01
   4.99424E+01  5.37835E+01  5.97013E+01  6.48986E+01  7.31380E+01  8.76877E+01  9.49800E+01  8.61993E+01  7.82298E+01  7.11763E+01
   5.80520E+01  5.09672E+01  5.36478E+01  6.00184E+01  6.72265E+01  7.53340E+01  8.33070E+01  9.05531E+01  9.45409E+01  9.81406E+01
   9.98978E+01  9.47625E+01  8.64345E+01  7.42040E+01  6.13453E+01  5.43502E+01  5.24910E+01  5.61405E+01  6.34932E+01  7.15471E+01
   7.87920E+01  8.49650E+01  9.01740E+01  9.41287E+01  9.70876E+01  1.01954E+02  1.04294E+02  1.02054E+02  1.04363E+02  1.09361E+02
   1.06851E+02  1.09966E+02  1.11317E+02  1.00684E+02  8.35211E+01  7.17629E+01  7.53381E+01  6.48728E+01  3.89496E+01  1.85642E+01
  -3.87562E+00 -2.35455E+01 -2.82800E+01 -1.99714E+01 -6.70678E+00  5.80100E+00  1.67320E+01  2.54490E+01  3.27244E+01  3.90723E+01
   4.49403E+01  5.02607E+01  5.59280E+01  6.19307E+01  7.01589E+01  8.21130E+01  9.01210E+01  8.35251E+01  1.21387E+02  1.78442E+02
   1.85362E+02  1.68819E+02  1.37661E+02  7.94868E+01  2.22231E+01 -1.14201E+01 -2.12601E+01 -2.15134E+01 -1.78073E+01 -1.38884E+01
  -1.14545E+01 -9.97534E+00 -9.10529E+00 -8.59115E+00 -8.26599E+00 -7.41192E+00 -5.69957E+00 -3.33737E+00 -1.63431E-01  3.13511E+00
   5.84002E+00  7.81403E+00  9.65479E+00  1.25840E+01  1.64838E+01  2.00648E+01  2.24282E+01  2.26654E+01  2.28609E+01  2.59917E+01
   2.95012E+01  3.13396E+01  3.16326E+01  3.09467E+01  3.00248E+01  2.91736E+01  2.83603E+01  2.37769E+01  1.79308E+01  2.18417E+01
   3.53932E+01  4.63593E+01  5.06686E+01  5.32232E+01  5.61177E+01  6.16973E+01  6.62003E+01  6.81768E+01  6.81851E+01  6.10227E+01
   4.86064E+01  3.72039E+01  2.82550E+01  2.19148E+01  1.75689E+01  1.51066E+01  1.41071E+01  1.22294E+01  1.32502E+01  1.62898E+01
   9.24033E+00  8.29140E+00  1.82333E+01  1.82898E+01  2.13452E+01  2.83713E+01  3.38900E+01  4.06197E+01  4.01794E+01  4.05954E+01
   4.49801E+01  4.74222E+01  4.95367E+01  5.19969E+01  5.50863E+01  5.39500E+01  4.83325E+01  4.28235E+01  3.49396E+01  2.29576E+01
   1.71754E+01  4.47524E+00 -1.67074E-01  1.09883E+01  2.11088E+01  4.02986E+01  6.38571E+01  7.66296E+01  8.19454E+01  8.03065E+01
   7.43449E+01  6.71184E+01  6.24893E+01  6.08658E+01  6.07941E+01  6.07039E+01  5.94947E+01  5.61900E+01  5.08145E+01  4.21234E+01
   3.21810E+01  2.23097E+01  8.88073E+00 -2.79250E+00 -1.17779E+01 -2.26488E+01 -2.86688E+01 -3.02437E+01 -3.44764E+01 -3.42876E+01
  -3.34842E+01 -3.18801E+01 -2.48698E+01 -1.75177E+01 -6.31336E+00  1.93703E+00  5.81539E+00  9.14884E+00  1.01655E+01  8.42699E+00
  -8.74501E+00 -1.52014E+01  2.56472E+01 -2.14463E+01 -1.02941E+02 -1.00354E+02 -8.12812E+01 -4.65729E+01  3.35904E+01  1.13074E+02
   1.58877E+02  1.69252E+02  1.66784E+02  1.57305E+02  1.47984E+02  1.40757E+02  1.34493E+02  1.28698E+02  1.24110E+02  1.20000E+02
   1.16659E+02  1.14621E+02  1.13075E+02  1.11814E+02  1.10507E+02  1.09237E+02  1.08026E+02  1.06862E+02  1.05637E+02  1.04001E+02
   1.02296E+02  1.00575E+02  9.82689E+01  9.60354E+01  9.38259E+01  9.13862E+01  8.93046E+01  8.68279E+01  8.39862E+01  8.10702E+01
   7.74817E+01  7.30807E+01  6.82103E+01  6.30988E+01  5.85116E+01  5.53510E+01  5.38764E+01  5.36894E+01  5.48400E+01  5.69812E+01
   5.95244E+01  6.23152E+01  6.54168E+01  6.84816E+01  7.09872E+01  7.33728E+01  7.59889E+01  7.87551E+01  8.17854E+01  8.47484E+01
   8.75712E+01  9.04790E+01  9.31002E+01  9.53297E+01  9.78577E+01  1.00390E+02  1.01781E+02  1.01563E+02  1.13684E+02  1.21633E+02
   1.17163E+02  1.14180E+02  9.42087E+01  6.14578E+01  3.70072E+01  1.85807E+01  7.57978E+00  5.04203E+00  6.10052E+00  5.75970E+00
   2.43991E+00 -2.11443E+00 -6.54865E+00 -8.99427E+00 -8.58842E+00 -5.61468E+00 -5.64356E-01  4.80468E+00  9.07354E+00  1.29747E+01
   1.59884E+01  1.90758E+01  2.35121E+01  2.86341E+01  3.38408E+01  3.84792E+01  4.25677E+01  4.57234E+01  4.76531E+01  4.92573E+01
   5.01231E+01  4.91119E+01  4.64285E+01  4.25108E+01  3.76416E+01  3.28187E+01  2.90744E+01  2.67206E+01  2.60876E+01  2.67179E+01
   2.88672E+01  3.21760E+01  3.59747E+01  4.03882E+01  4.47599E+01  4.87796E+01  5.27621E+01  5.66126E+01  6.03565E+01  6.38953E+01
   6.75809E+01  7.08709E+01  7.43123E+01  7.81881E+01  8.19666E+01  8.59411E+01  9.09145E+01  9.65004E+01  1.02219E+02  1.08514E+02
   1.15764E+02  1.23599E+02  1.32549E+02  1.42344E+02  1.53030E+02  1.63119E+02  1.70434E+02  1.73074E+02  1.70407E+02  1.63466E+02
   1.53027E+02  1.41271E+02  1.30854E+02  1.22361E+02  1.14751E+02  1.07754E+02  1.00750E+02  9.22376E+01  8.21447E+01  7.21422E+01
   6.24789E+01  5.36516E+01  4.62821E+01  4.06922E+01  3.66011E+01  3.36539E+01  3.17108E+01  3.02734E+01  2.89396E+01  2.78863E+01
   2.73112E+01  2.68252E+01  2.63274E+01  2.63052E+01  2.67757E+01  2.70557E+01  2.68006E+01  2.70534E+01  2.75376E+01  2.76439E+01
   2.78105E+01  2.82341E+01  2.86785E+01  2.89534E+01  2.90942E+01  2.91132E+01  2.92584E+01  2.95889E+01  3.00396E+01  3.05142E+01
   3.11412E+01  3.13388E+01  3.12356E+01  3.13258E+01  3.13034E+01  3.14465E+01  3.18731E+01  3.22667E+01  3.25475E+01  3.29744E+01
   3.33599E+01  3.37409E+01  3.40473E+01  3.39283E+01  3.39656E+01  3.40145E+01  3.38268E+01  3.42107E+01  3.46695E+01  3.47812E+01
   3.48517E+01  3.50688E+01  3.50565E+01  3.52714E+01  3.56085E+01  3.59672E+01  3.61367E+01  3.64775E+01  3.68984E+01  3.71137E+01
   3.73311E+01  3.75369E+01  3.75146E+01  3.73518E+01  3.70420E+01  3.71072E+01  3.75005E+01  3.82066E+01  3.89448E+01  3.94044E+01
   3.94668E+01  3.94123E+01  3.92997E+01  3.90717E+01  3.92178E+01  3.97976E+01  3.98821E+01  3.99552E+01  4.01082E+01  3.99485E+01
 NY background values follow
     4.671E+01    4.690E+01    4.709E+01    4.728E+01    4.747E+01    4.767E+01    4.786E+01    4.805E+01    4.825E+01    4.844E+01
     4.864E+01    4.883E+01    4.903E+01    4.922E+01    4.942E+01    4.961E+01    4.981E+01    5.000E+01    5.020E+01    5.040E+01
     5.059E+01    5.079E+01    5.099E+01    5.118E+01    5.138E+01    5.157E+01    5.177E+01    5.197E+01    5.216E+01    5.236E+01
     5.255E+01    5.275E+01    5.294E+01    5.314E+01    5.333E+01    5.353E+01    5.372E+01    5.391E+01    5.411E+01    5.430E+01
     5.449E+01    5.468E+01    5.487E+01    5.505E+01    5.524E+01    5.543E+01    5.561E+01    5.579E+01    5.597E+01    5.615E+01
     5.633E+01    5.651E+01    5.668E+01    5.686E+01    5.703E+01    5.720E+01    5.736E+01    5.753E+01    5.769E+01    5.785E+01
     5.801E+01    5.816E+01    5.832E+01    5.847E+01    5.862E+01    5.876E+01    5.891E+01    5.905E+01    5.919E+01    5.932E+01
     5.946E+01    5.959E+01    5.972E+01    5.985E+01    5.997E+01    6.010E+01    6.022E+01    6.034E+01    6.045E+01    6.057E+01
     6.068E+01    6.079E+01    6.090E+01    6.100E+01    6.111E+01    6.121E+01    6.131E+01    6.140E+01    6.150E+01    6.159E+01
     6.168E+01    6.177E+01    6.186E+01    6.194E+01    6.202E+01    6.210E+01    6.218E+01    6.225E+01    6.233E+01    6.239E+01
     6.246E+01    6.252E+01    6.259E+01    6.264E+01    6.270E+01    6.275E+01    6.280E+01    6.285E+01    6.289E+01    6.293E+01
     6.297E+01    6.300E+01    6.303E+01    6.305E+01    6.308E+01    6.309E+01    6.311E+01    6.312E+01    6.313E+01    6.313E+01
     6.313E+01    6.313E+01    6.312E+01    6.311E+01    6.309E+01    6.307E+01    6.305E+01    6.302E+01    6.299E+01    6.295E+01
     6.291E+01    6.287E+01    6.282E+01    6.277E+01    6.271E+01    6.266E+01    6.259E+01    6.253E+01    6.246E+01    6.238E+01
     6.231E+01    6.223E+01    6.214E+01    6.205E+01    6.196E+01    6.187E+01    6.177E+01    6.167E+01    6.156E+01    6.145E+01
     6.134E+01    6.122E+01    6.110E+01    6.098E+01    6.085E+01    6.072E+01    6.059E+01    6.046E+01    6.032E+01    6.017E+01
     6.003E+01    5.988E+01    5.973E+01    5.957E+01    5.941E+01    5.925E+01    5.909E+01    5.892E+01    5.875E+01    5.858E+01
     5.841E+01    5.823E+01    5.805E+01    5.787E+01    5.768E+01    5.749E+01    5.730E+01    5.711E+01    5.692E+01    5.672E+01
     5.652E+01    5.632E+01    5.611E+01    5.591E+01    5.570E+01    5.549E+01    5.527E+01    5.506E+01    5.484E+01    5.462E+01
     5.440E+01    5.418E+01    5.395E+01    5.373E+01    5.350E+01    5.327E+01    5.303E+01    5.280E+01    5.257E+01    5.233E+01
     5.209E+01    5.185E+01    5.161E+01    5.137E+01    5.113E+01    5.088E+01    5.063E+01    5.039E+01    5.014E+01    4.989E+01
     4.964E+01    4.939E+01    4.913E+01    4.888E+01    4.863E+01    4.837E+01    4.811E+01    4.785E+01    4.759E+01    4.733E+01
     4.707E+01    4.681E+01    4.654E+01    4.628E+01    4.601E+01    4.574E+01    4.547E+01    4.520E+01    4.492E+01    4.465E+01
     4.437E+01    4.409E+01    4.381E+01    4.353E+01    4.325E+01    4.296E+01    4.268E+01    4.239E+01    4.210E+01    4.181E+01
     4.152E+01    4.122E+01    4.092E+01    4.063E+01    4.033E+01    4.002E+01    3.972E+01    3.942E+01    3.911E+01    3.880E+01
     3.850E+01    3.819E+01    3.788E+01    3.756E+01    3.725E+01    3.694E+01    3.662E+01    3.631E+01    3.599E+01    3.568E+01
     3.536E+01    3.504E+01    3.472E+01    3.440E+01    3.408E+01    3.377E+01    3.345E+01    3.313E+01    3.281E+01    3.249E+01
     3.217E+01    3.185E+01    3.153E+01    3.121E+01    3.089E+01    3.057E+01    3.026E+01    2.995E+01    2.964E+01    2.933E+01
     2.903E+01    2.872E+01    2.843E+01    2.813E+01    2.784E+01    2.756E+01    2.728E+01    2.700E+01    2.673E+01    2.647E+01
     2.621E+01    2.596E+01    2.572E+01    2.548E+01    2.525E+01    2.503E+01    2.481E+01    2.461E+01    2.441E+01    2.422E+01
     2.404E+01    2.387E+01    2.371E+01    2.356E+01    2.341E+01    2.328E+01    2.316E+01    2.305E+01    2.294E+01    2.285E+01
     2.277E+01    2.270E+01    2.264E+01    2.259E+01    2.255E+01    2.252E+01    2.250E+01    2.250E+01    2.250E+01    2.252E+01
     2.254E+01    2.258E+01    2.263E+01    2.269E+01    2.277E+01    2.285E+01    2.295E+01    2.306E+01    2.318E+01    2.331E+01
     2.346E+01    2.362E+01    2.379E+01    2.397E+01    2.416E+01    2.437E+01    2.458E+01    2.480E+01    2.504E+01    2.528E+01
     2.553E+01    2.579E+01    2.606E+01    2.633E+01    2.662E+01    2.691E+01    2.720E+01    2.750E+01    2.781E+01    2.813E+01
     2.845E+01    2.877E+01    2.910E+01    2.943E+01    2.976E+01    3.010E+01    3.044E+01    3.079E+01    3.114E+01    3.148E+01
     3.183E+01    3.218E+01    3.253E+01    3.289E+01    3.324E+01    3.359E+01    3.394E+01    3.430E+01    3.465E+01    3.500E+01
     3.534E+01    3.569E+01    3.604E+01    3.638E+01    3.672E+01    3.706E+01    3.740E+01    3.773E+01    3.806E+01    3.838E+01
     3.871E+01    3.902E+01    3.934E+01    3.964E+01    3.995E+01    4.025E+01    4.054E+01    4.083E+01    4.111E+01    4.138E+01
     4.165E+01    4.192E+01    4.217E+01    4.242E+01    4.266E+01    4.290E+01    4.313E+01    4.335E+01    4.356E+01    4.377E+01
     4.397E+01    4.417E+01    4.436E+01    4.454E+01    4.471E+01    4.488E+01    4.504E+01    4.519E+01    4.533E+01    4.547E+01
     4.560E+01    4.573E+01    4.584E+01    4.595E+01    4.605E+01    4.614E+01    4.623E+01    4.631E+01    4.638E+01    4.644E+01
     4.650E+01    4.655E+01    4.659E+01    4.662E+01    4.665E+01    4.667E+01    4.668E+01    4.669E+01    4.669E+01    4.668E+01
     4.667E+01    4.665E+01    4.663E+01    4.660E+01    4.657E+01    4.653E+01    4.649E+01    4.644E+01    4.639E+01    4.634E+01
     4.628E+01    4.621E+01    4.615E+01    4.608E+01    4.600E+01    4.593E+01    4.585E+01    4.577E+01    4.568E+01    4.560E+01
     4.551E+01    4.542E+01    4.532E+01    4.523E+01    4.513E+01    4.503E+01    4.494E+01    4.483E+01    4.473E+01    4.463E+01
     4.452E+01    4.442E+01    4.431E+01    4.420E+01    4.409E+01    4.398E+01    4.387E+01    4.376E+01    4.365E+01    4.353E+01
     4.342E+01    4.331E+01    4.319E+01    4.308E+01    4.296E+01    4.285E+01    4.273E+01    4.262E+01    4.250E+01    4.239E+01
 Mac      Conc. = 3.07E-04
   2.52729E+01  2.48772E+01  2.49378E+01  2.51433E+01  2.51516E+01  2.46972E+01  2.34812E+01  2.17394E+01  1.99194E+01  1.82462E+01
   1.72331E+01  1.72725E+01  1.79293E+01  1.77340E+01  1.50446E+01  1.25307E+01  1.18251E+01  1.15216E+01  1.31921E+01  1.76416E+01
   2.29142E+01  2.75468E+01  3.15088E+01  3.47971E+01  3.67998E+01  3.81895E+01  4.00019E+01  4.20723E+01  4.41407E+01  4.64553E+01
   4.88981E+01  5.11239E+01  5.27048E+01  5.31723E+01  5.27067E+01  5.23177E+01  5.31913E+01  5.51271E+01  5.72794E+01  5.93704E+01
   6.05148E+01  6.09802E+01  6.16011E+01  6.26035E+01  6.40899E+01  6.57557E+01  6.71464E+01  6.76073E+01  6.72965E+01  6.65185E+01
   6.51726E+01  6.39322E+01  6.29153E+01  6.16881E+01  6.05720E+01  6.04152E+01  6.06640E+01  6.07936E+01  6.20241E+01  6.39722E+01
   6.58115E+01  6.78088E+01  6.91815E+01  6.95889E+01  6.94230E+01  6.91489E+01  6.84283E+01  6.67963E+01  6.55310E+01  6.54553E+01
   6.59751E+01  6.78285E+01  7.05292E+01  7.32517E+01  7.56200E+01  7.68150E+01  7.70770E+01  7.69160E+01  7.64012E+01  7.55519E+01
   7.45058E+01  7.39778E+01  7.37439E+01  7.36181E+01  7.40432E+01  7.49790E+01  7.58387E+01  7.67445E+01  7.77214E+01  7.85449E+01
   7.91307E+01  8.00790E+01  8.10161E+01  8.15006E+01  8.15760E+01  8.08822E+01  7.88977E+01  7.64271E+01  7.41666E+01  7.18642E+01
   6.97823E+01  6.81435E+01  6.68620E+01  6.50435E+01  6.12203E+01  5.52090E+01  4.78026E+01  4.01908E+01  3.35116E+01  2.90208E+01
