 LCModel (Version 6.3-1N) Copyright: S.W. Provencher.          Ref.: Magn. Reson. Med. 30:672-679 (1993).                
 Slice_N1@19_19  28-Feb-2025 11:43:00
 27 lines in following concentration table = NCONC+1
    Conc.  %SD /Cr+PCr  Metabolite                                         
 2.93E-04   3% 2.8E-04 Mac                                                 
    3.988  20%   3.807 Cr                                                  
    4.392  18%   4.193 PCr                                                 
    7.716  10%   7.367 Ins                                                 
   10.140   6%   9.681 NAA                                                 
    5.770  12%   5.509 Tau                                                 
    0.803  91%   0.767 PCho                                                
    1.184  58%   1.130 GPC                                                 
    8.992   9%   8.585 Glu                                                 
    3.343  20%   3.192 Gln                                                 
    0.000 999%   0.000 Ala                                                 
    2.136  45%   2.040 Asc                                                 
    2.670  32%   2.549 Asp                                                 
    0.799  56%   0.763 GABA                                                
    0.293 213%   0.279 Glc                                                 
    1.218  32%   1.163 GSH                                                 
    1.466  37%   1.400 Lac                                                 
    1.342  34%   1.282 NAAG                                                
    0.692 130%   0.660 PE                                                  
    1.987  12%   1.897 GPC+PCho                                            
   11.482   6%  10.963 NAA+NAAG                                            
   12.335   9%  11.777 Glu+Gln                                             
    8.379   7%   8.000 Cr+PCr                                              
   11.482   6%  10.963 NAA+NAAG                                            
    8.379   7%   8.000 Cr+PCr                                              
   12.335   9%  11.777 Glu+Gln                                             
   6 lines in following misc. output table
  FWHM = 0.024 ppm    S/N =   5                                            
  Data shift = 0.024 ppm                                                   
  Ph: -82 deg       0.0 deg/ppm                                            
  alphaB,S = 1.9E-01,   5.6E+00                                            
   19 spline knots.   Ns = 5(1)                                            
  ( 3) 2 infls.   ( 2) 1 extrs.                                            
  480 points on ppm-axis = NY
      4.100000     4.091866     4.083733     4.075600     4.067466     4.059333     4.051199     4.043066     4.034933     4.026799
      4.018666     4.010532     4.002399     3.994265     3.986132     3.977998     3.969864     3.961731     3.953597     3.945463
      3.937330     3.929196     3.921062     3.912929     3.904795     3.896662     3.888528     3.880394     3.872261     3.864127
      3.855993     3.847860     3.839726     3.831592     3.823459     3.815325     3.807191     3.799058     3.790924     3.782790
      3.774657     3.766523     3.758389     3.750256     3.742122     3.733989     3.725855     3.717721     3.709588     3.701454
      3.693320     3.685187     3.677053     3.668919     3.660786     3.652652     3.644518     3.636385     3.628251     3.620117
      3.611984     3.603850     3.595716     3.587583     3.579449     3.571316     3.563182     3.555048     3.546915     3.538781
      3.530647     3.522514     3.514380     3.506246     3.498113     3.489979     3.481845     3.473712     3.465578     3.457444
      3.449311     3.441177     3.433043     3.424910     3.416776     3.408643     3.400509     3.392375     3.384242     3.376108
      3.367974     3.359841     3.351707     3.343573     3.335440     3.327306     3.319172     3.311039     3.302905     3.294771
      3.286638     3.278504     3.270370     3.262237     3.254103     3.245970     3.237836     3.229702     3.221569     3.213435
      3.205301     3.197168     3.189034     3.180900     3.172767     3.164633     3.156499     3.148366     3.140232     3.132098
      3.123965     3.115831     3.107697     3.099564     3.091430     3.083297     3.075163     3.067029     3.058896     3.050762
      3.042628     3.034495     3.026361     3.018227     3.010094     3.001960     2.993826     2.985693     2.977559     2.969425
      2.961292     2.953158     2.945024     2.936891     2.928757     2.920624     2.912490     2.904356     2.896223     2.888089
      2.879955     2.871822     2.863688     2.855554     2.847421     2.839287     2.831153     2.823020     2.814886     2.806752
      2.798619     2.790485     2.782351     2.774218     2.766084     2.757951     2.749817     2.741683     2.733550     2.725416
      2.717282     2.709149     2.701015     2.692881     2.684748     2.676614     2.668480     2.660347     2.652213     2.644079
      2.635946     2.627812     2.619678     2.611545     2.603411     2.595278     2.587144     2.579010     2.570877     2.562743
      2.554609     2.546476     2.538342     2.530208     2.522075     2.513941     2.505807     2.497674     2.489540     2.481406
      2.473273     2.465139     2.457006     2.448872     2.440738     2.432605     2.424471     2.416337     2.408204     2.400070
      2.391936     2.383803     2.375669     2.367535     2.359402     2.351268     2.343134     2.335001     2.326867     2.318733
      2.310600     2.302466     2.294333     2.286199     2.278065     2.269932     2.261798     2.253664     2.245531     2.237397
      2.229263     2.221130     2.212996     2.204862     2.196729     2.188595     2.180461     2.172328     2.164194     2.156060
      2.147927     2.139793     2.131660     2.123526     2.115392     2.107259     2.099125     2.090991     2.082858     2.074724
      2.066590     2.058457     2.050323     2.042189     2.034056     2.025922     2.017788     2.009655     2.001521     1.993387
      1.985254     1.977120     1.968987     1.960853     1.952719     1.944586     1.936452     1.928318     1.920185     1.912051
      1.903917     1.895784     1.887650     1.879516     1.871383     1.863249     1.855115     1.846982     1.838848     1.830714
      1.822581     1.814447     1.806314     1.798180     1.790046     1.781913     1.773779     1.765645     1.757512     1.749378
      1.741244     1.733111     1.724977     1.716843     1.708710     1.700576     1.692442     1.684309     1.676175     1.668041
      1.659908     1.651774     1.643641     1.635507     1.627373     1.619240     1.611106     1.602972     1.594839     1.586705
      1.578571     1.570438     1.562304     1.554170     1.546037     1.537903     1.529769     1.521636     1.513502     1.505368
      1.497235     1.489101     1.480968     1.472834     1.464700     1.456567     1.448433     1.440299     1.432166     1.424032
      1.415898     1.407765     1.399631     1.391497     1.383364     1.375230     1.367096     1.358963     1.350829     1.342695
      1.334562     1.326428     1.318295     1.310161     1.302027     1.293894     1.285760     1.277626     1.269493     1.261359
      1.253225     1.245092     1.236958     1.228824     1.220691     1.212557     1.204423     1.196290     1.188156     1.180022
      1.171889     1.163755     1.155622     1.147488     1.139354     1.131221     1.123087     1.114953     1.106820     1.098686
      1.090552     1.082419     1.074285     1.066151     1.058018     1.049884     1.041750     1.033617     1.025483     1.017349
      1.009216     1.001082     0.992949     0.984815     0.976681     0.968548     0.960414     0.952280     0.944147     0.936013
      0.927879     0.919746     0.911612     0.903478     0.895345     0.887211     0.879077     0.870944     0.862810     0.854676
      0.846543     0.838409     0.830276     0.822142     0.814008     0.805875     0.797741     0.789607     0.781474     0.773340
      0.765206     0.757073     0.748939     0.740805     0.732672     0.724538     0.716404     0.708271     0.700137     0.692003
      0.683870     0.675736     0.667603     0.659469     0.651335     0.643202     0.635068     0.626934     0.618801     0.610667
      0.602533     0.594400     0.586266     0.578132     0.569999     0.561865     0.553731     0.545598     0.537464     0.529330
      0.521197     0.513063     0.504930     0.496796     0.488662     0.480529     0.472395     0.464261     0.456128     0.447994
      0.439861     0.431727     0.423593     0.415460     0.407326     0.399192     0.391059     0.382925     0.374792     0.366658
      0.358524     0.350391     0.342257     0.334124     0.325990     0.317856     0.309723     0.301589     0.293455     0.285322
      0.277188     0.269055     0.260921     0.252787     0.244654     0.236520     0.228386     0.220253     0.212119     0.203986
 NY phased data points follow
  -2.88581E+00  1.77845E+00  3.08426E+00 -3.40462E+00  7.73743E+00  4.52946E+00  1.02130E+01  1.90630E+01  1.54107E+01 -2.42057E+00
  -1.22328E+01 -1.24762E+01 -1.86570E+01 -1.69362E+01 -1.67301E+01 -2.46660E+01 -2.95651E+01 -3.22408E+01 -5.30842E+01 -7.26518E+01
  -7.27327E+01 -5.58316E+01 -2.71790E+01 -1.14776E+01  2.62917E+01  5.80531E+01  3.71646E+01  4.19381E+01  4.99097E+01  3.94778E+01
   4.81136E+01  4.23819E+01  3.29773E+01  4.50461E+01  3.93526E+01  2.71243E+01  4.74498E+01  2.90414E+01  7.50177E+00  6.63287E+00
  -2.75012E+01 -1.53081E+01 -6.16388E+00 -9.87607E+00  1.65201E+01  3.50630E+01  6.08134E+01  6.13100E+01  7.14548E+01  9.01890E+01
   7.27955E+01  6.37575E+01  6.17182E+01  4.77740E+01  2.75510E+01  2.54509E+01  1.97434E+01  1.40385E+01  3.77555E-01 -1.19360E+01
   1.94464E+01  1.37373E+01  1.70495E+01  4.87600E+01  5.97651E+01  7.93918E+01  6.36780E+01  4.71380E+01  2.26012E+01 -2.32280E+01
  -1.42057E+01  2.04204E+01  8.06913E+00  7.90571E+00  6.33253E+01  7.65391E+01  6.51486E+01  6.31095E+01  6.71825E+01  7.88028E+01
   7.46681E+01  7.62195E+01  6.42809E+01  4.06054E+01  1.95793E+01  1.99892E+01  2.91443E+01  3.80720E+01  7.18848E+01  8.85773E+01
   8.00669E+01  8.27660E+01  9.99920E+01  9.05986E+01  8.88991E+01  1.04232E+02  1.09033E+02  1.22275E+02  1.07768E+02  8.40958E+01
   7.75758E+01  8.36683E+01  6.04999E+01  4.00822E+01  4.47333E+01  1.51647E+01  1.11757E+01  1.84712E+01  1.24570E+01 -4.78060E+01
  -1.33791E+02 -1.29788E+02 -9.65448E+01 -6.41701E+01 -3.93769E+01 -2.34425E+01 -1.22181E+01  3.98042E+00  2.05510E+01  1.26519E+01
   2.40887E+01  3.23813E+01  2.85380E+01  3.15839E+01  4.11201E+01  5.65216E+01  7.46850E+01  9.28604E+01  1.02897E+02  1.27843E+02
   1.75836E+02  1.78706E+02  6.17386E+01 -5.80041E+01 -7.71358E+01 -6.54509E+01 -7.02003E+01 -6.41742E+01 -5.49741E+01 -5.24400E+01
  -3.58271E+01 -4.88200E+01 -5.44079E+01 -3.89845E+01 -3.88237E+01 -4.49395E+01 -4.46134E+01 -2.54606E+01 -3.21658E+01 -2.82096E+01
  -2.63199E+01 -4.11351E+01 -1.85297E+01 -3.68883E+00 -1.32711E+01 -2.48969E+01 -7.73787E+00  3.27736E+00 -1.42758E+01 -8.03995E+00
  -3.90770E+00  5.09771E+00  9.11068E+00 -6.92224E+00  9.93396E+00 -4.23005E+00 -2.59442E+01  1.33338E+00  5.00075E+00  6.11753E+00
   3.76483E+00  8.63118E+00  4.96249E+01  4.87497E+01  2.38217E+01  2.60825E+01  1.99370E+01  3.68453E+01  4.80682E+01  1.01723E+01
  -5.15050E-01 -1.75756E+01 -2.84073E+01 -2.11416E+01 -4.69842E+01 -4.00824E+01 -2.71736E+01 -2.65770E+01 -1.35803E+01 -1.71030E+01
  -1.08544E+01 -1.47729E+00 -1.36065E+01 -4.55441E+00  3.18580E+01  2.81643E+01 -8.20149E+00  6.52167E-01  1.50398E+01  3.47800E+00
   7.30599E+00  1.43504E+01  2.98250E+01  3.13862E+01  1.84463E+01  1.35912E+01  2.06916E+00 -6.23430E+00 -2.25631E+01 -2.92866E+01
  -2.86774E+01 -2.83293E+01 -1.22334E+01  9.13060E-02  1.27462E+01  3.55596E+01  5.32786E+01  6.45508E+01  7.25597E+01  5.16043E+01
   3.77999E+01  3.27525E+01  1.35759E+01  2.45118E+01  2.54651E+01  2.57524E+01  2.98479E+01  1.63991E+01  2.35846E+01  1.16115E+01
   1.57498E+01  1.80514E+01 -6.63223E+00  1.37546E+00 -1.56188E+01 -3.50902E+01 -3.71303E+01 -4.38879E+01 -5.68069E+01 -5.98044E+01
  -3.96367E+01 -4.18706E+01 -3.10480E+01 -7.98975E+00 -3.73765E+00  1.89829E-01  4.02277E+00 -1.04126E+01 -8.40796E+00 -1.64081E+01
  -3.62360E+01 -1.93293E+01 -4.25081E+01 -5.04387E+01 -4.24463E+01 -7.10924E+01 -1.17116E+02 -2.54734E+01  1.88956E+02  2.19040E+02
   1.85205E+02  1.72415E+02  1.43829E+02  1.32394E+02  1.13373E+02  1.17753E+02  1.03096E+02  9.12985E+01  8.73903E+01  9.58135E+01
   8.55410E+01  7.68080E+01  8.95950E+01  8.72349E+01  9.00499E+01  6.98180E+01  8.47329E+01  9.41480E+01  7.94934E+01  8.80606E+01
   8.98398E+01  8.05609E+01  7.11408E+01  7.09323E+01  5.41835E+01  6.83461E+01  6.72832E+01  4.63674E+01  5.65964E+01  3.94780E+01
   5.36529E+01  5.76757E+01  2.59703E+01  3.36042E+01  2.91913E+01  2.37889E+01  1.41485E+01  2.19359E+01  3.20237E+01  3.26260E+00
   2.34609E+01  3.31565E+01  4.02789E+01  4.89716E+01  3.67758E+01  5.82092E+01  5.81794E+01  6.20168E+01  6.38277E+01  6.07859E+01
   7.25073E+01  9.08960E+01  9.90716E+01  8.42108E+01  8.29098E+01  8.61348E+01  9.70371E+01  9.57388E+01  1.00866E+02  1.07411E+02
   9.77521E+01  9.78681E+01  8.75804E+01  8.10287E+01  9.96429E+01  1.07546E+02  8.42996E+01  8.49098E+01  8.60362E+01  7.49522E+01
   7.97215E+01  6.80479E+01  4.51604E+01  3.98358E+01  3.69069E+01  3.62409E+01  3.94454E+01  3.41424E+01  4.75173E+01  4.35190E+01
   4.51938E+01  5.45726E+01  4.92964E+01  4.08221E+01  3.46762E+01  6.70014E+01  6.30896E+01  6.04723E+01  6.36294E+01  4.06355E+01
   4.37279E+01  4.70014E+01  4.36625E+01  4.05244E+01  4.58856E+01  3.98494E+01  3.65631E+01  2.33554E+01  2.02997E+01  3.05272E+01
   2.50190E+01  3.44964E+01  2.39872E+01  2.60634E+01  3.69666E+01  4.82807E+01  6.12035E+01  5.29895E+01  5.70366E+01  5.15176E+01
   6.12170E+01  7.69752E+01  6.45774E+01  7.23414E+01  7.97506E+01  7.81375E+01  8.46834E+01  8.79115E+01  9.40417E+01  9.17758E+01
   1.14021E+02  1.12979E+02  1.01171E+02  1.38369E+02  1.25738E+02  1.23513E+02  1.48792E+02  1.41977E+02  1.47903E+02  1.56790E+02
   1.50207E+02  1.28691E+02  1.08948E+02  9.98666E+01  9.05312E+01  7.92476E+01  8.41490E+01  8.20413E+01  6.44037E+01  5.13705E+01
   4.32030E+01  4.06342E+01  2.63484E+01  1.02397E+01  6.73412E-01 -6.65422E+00 -3.30575E+00  2.91268E+00 -2.22175E+00 -8.50931E+00
  -1.85226E+01 -9.90932E+00  4.82736E+00 -9.96464E-01 -2.58167E+00 -8.45013E+00 -3.31033E+00  1.42596E+00  3.47130E+00 -3.29731E+00
  -9.18509E+00 -2.39041E+00 -1.18613E+01 -1.04281E+01  1.04065E+00  2.84382E+00 -7.26269E+00 -4.69941E+00 -8.47005E+00  1.74553E-01
   7.69745E+00 -5.68625E+00 -1.48555E+00 -3.02961E+00  4.81248E+00 -3.56490E+00  8.96921E-01 -1.22822E+00  4.09493E-01  1.16813E+01
  -8.71104E+00  7.98597E+00  5.70507E+00 -1.64778E+00 -9.89745E+00 -3.73457E+00  1.66719E+00 -1.27288E+01  7.71320E+00  3.02073E+00
   3.30893E+00 -1.99628E+00  5.68286E-01 -1.96758E+00 -1.11747E+01  5.48519E+00 -5.80548E-01  5.18696E+00 -1.07599E+00 -6.99759E-01
   5.45340E+00 -1.04849E+01 -1.28258E+01 -5.36113E+00  1.35885E+00 -2.07109E+00 -5.34090E+00  9.22343E-01 -6.56716E-01 -1.46202E+01
  -2.33246E+00 -3.10239E-01 -1.17638E+01  3.52852E+00  6.70786E+00 -5.34324E+00 -5.75025E+00  9.77729E+00  1.09220E+01  1.98361E+00
 NY points of the fit to the data follow
  -7.37487E+00 -1.21537E+01 -1.88170E+01 -2.72146E+01 -2.60484E+01 -3.92284E+00  2.16229E+01  2.64872E+01  1.56021E+01  3.76600E+00
  -5.60628E+00 -1.12522E+01 -1.28296E+01 -1.26595E+01 -1.32957E+01 -1.59984E+01 -2.28951E+01 -3.10376E+01 -4.19884E+01 -6.11800E+01
  -7.31441E+01 -5.44899E+01 -2.37008E+01 -2.72008E+00  2.92683E+01  5.51678E+01  5.26284E+01  5.26467E+01  5.57315E+01  5.57631E+01
   5.59805E+01  5.46519E+01  5.31726E+01  5.16668E+01  4.88840E+01  4.48202E+01  3.87228E+01  3.14430E+01  2.17719E+01  5.33287E+00
  -1.55038E+01 -2.37024E+01 -1.30721E+01  1.44905E+00  1.73556E+01  3.81129E+01  5.52635E+01  6.38755E+01  6.58034E+01  6.62447E+01
   6.31490E+01  5.78154E+01  5.05931E+01  4.02104E+01  2.61392E+01  1.38940E+01  1.30944E+01  1.34700E+01 -4.52349E-01 -7.05959E+00
   1.03253E+01  2.07235E+01  2.34231E+01  4.46573E+01  6.34088E+01  6.60680E+01  6.64546E+01  5.59286E+01  2.35127E+01 -9.35553E+00
  -1.03906E+01  6.24095E+00  1.18413E+01  2.34878E+01  4.79307E+01  6.36879E+01  7.06596E+01  7.44841E+01  7.58790E+01  7.55127E+01
   7.17797E+01  6.20578E+01  4.64995E+01  2.73889E+01  1.32866E+01  1.36766E+01  2.28613E+01  3.81641E+01  5.58434E+01  6.46027E+01
   7.02536E+01  7.45969E+01  7.79213E+01  8.17685E+01  8.59608E+01  8.97001E+01  9.36648E+01  9.66002E+01  9.36947E+01  8.71782E+01
   8.80404E+01  8.82129E+01  7.52791E+01  6.09319E+01  5.09888E+01  3.05191E+01  1.71353E+01  2.91738E+01  2.27244E+01 -4.36903E+01
  -1.20846E+02 -1.29135E+02 -8.72053E+01 -5.67721E+01 -3.20782E+01 -1.56236E+01 -8.76012E+00 -2.18497E+00  4.52297E+00  1.11936E+01
   1.74835E+01  2.38126E+01  3.09782E+01  3.90923E+01  4.86833E+01  6.00907E+01  7.44657E+01  9.49305E+01  1.13051E+02  1.34091E+02
   1.68544E+02  1.69365E+02  6.83682E+01 -6.05366E+01 -9.28472E+01 -7.49316E+01 -6.61874E+01 -4.82650E+01 -4.00074E+01 -3.97734E+01
  -4.03612E+01 -4.12027E+01 -4.17854E+01 -4.14234E+01 -4.11827E+01 -4.12910E+01 -3.95952E+01 -3.63016E+01 -3.31254E+01 -2.97450E+01
  -2.65311E+01 -2.35580E+01 -2.10887E+01 -1.92785E+01 -1.66936E+01 -1.27389E+01 -9.70982E+00 -9.50583E+00 -1.04924E+01 -9.63739E+00
  -5.71431E+00 -1.33172E+00 -1.21536E+00 -5.94975E+00 -9.83355E+00 -9.57198E+00 -7.42036E+00 -5.06680E+00 -4.49800E+00 -4.94855E+00
   7.86634E-02  1.59713E+01  3.31110E+01  3.26160E+01  1.79679E+01  1.36603E+01  2.69301E+01  3.78257E+01  3.03269E+01  1.06948E+01
  -4.80045E+00 -1.04887E+01 -1.35413E+01 -1.60880E+01 -1.69582E+01 -1.78420E+01 -1.77011E+01 -1.66305E+01 -1.53452E+01 -1.43483E+01
  -1.16066E+01 -8.64327E+00 -8.07991E+00 -2.84752E+00  1.04128E+01  1.46758E+01  7.46476E+00  1.05115E+01  1.81124E+01  1.76263E+01
   1.58627E+01  1.43718E+01  2.10965E+01  2.80693E+01  2.21085E+01  1.34173E+01  5.71658E+00 -2.84579E+00 -1.20249E+01 -1.92853E+01
  -2.41399E+01 -2.63454E+01 -2.14317E+01 -1.09814E+01  4.91274E+00  3.18649E+01  5.90247E+01  6.57822E+01  6.49883E+01  5.97805E+01
   4.00347E+01  2.93192E+01  2.91768E+01  3.07297E+01  3.61128E+01  3.83274E+01  3.77196E+01  3.39619E+01  2.57259E+01  1.61162E+01
   5.42699E+00 -6.49333E+00 -1.76213E+01 -2.72531E+01 -3.71456E+01 -4.60745E+01 -5.14460E+01 -5.51108E+01 -5.59832E+01 -5.11518E+01
  -4.48894E+01 -3.80959E+01 -2.74006E+01 -1.84208E+01 -1.06514E+01 -4.30673E+00 -4.87961E+00 -6.91985E+00 -1.22576E+01 -2.04838E+01
  -2.39971E+01 -3.11340E+01 -4.60887E+01 -4.73243E+01 -4.56771E+01 -8.68348E+01 -1.23950E+02 -1.98650E+01  1.51079E+02  1.95334E+02
   1.72929E+02  1.60402E+02  1.30083E+02  1.15167E+02  1.09451E+02  1.05903E+02  1.02248E+02  9.81573E+01  9.44383E+01  9.14751E+01
   8.95548E+01  8.91696E+01  8.99072E+01  9.12690E+01  9.22987E+01  9.29718E+01  9.28031E+01  9.13649E+01  9.04055E+01  8.93471E+01
   8.78292E+01  8.58762E+01  8.34387E+01  8.15180E+01  7.99199E+01  7.79561E+01  7.55974E+01  7.34526E+01  7.12234E+01  6.85765E+01
   6.54127E+01  6.14655E+01  5.74841E+01  5.37765E+01  4.98825E+01  4.69928E+01  4.59823E+01  4.69097E+01  4.96223E+01  5.29198E+01
   5.58718E+01  5.87558E+01  6.20806E+01  6.53016E+01  6.80860E+01  7.07054E+01  7.31220E+01  7.52415E+01  7.77280E+01  8.09173E+01
   8.41050E+01  8.64998E+01  8.82917E+01  8.99050E+01  9.16745E+01  9.31705E+01  9.37696E+01  9.40091E+01  9.37782E+01  9.20741E+01
   8.94747E+01  8.71534E+01  8.45460E+01  8.09126E+01  7.68351E+01  7.25776E+01  6.77573E+01  6.12198E+01  5.18322E+01  4.12762E+01
   3.18155E+01  2.38080E+01  1.77140E+01  1.42938E+01  1.40566E+01  1.71238E+01  2.32245E+01  3.03007E+01  3.68335E+01  4.29826E+01
   4.58746E+01  4.22143E+01  3.53016E+01  3.11469E+01  2.87325E+01  3.08185E+01  3.95842E+01  4.54454E+01  4.74079E+01  4.93827E+01
   4.92033E+01  4.78096E+01  4.51887E+01  4.15700E+01  3.63952E+01  3.08199E+01  2.70125E+01  2.51646E+01  2.49793E+01  2.64258E+01
   2.90446E+01  3.22691E+01  3.60196E+01  4.01098E+01  4.42722E+01  4.80014E+01  5.11507E+01  5.41603E+01  5.69594E+01  5.98561E+01
   6.31554E+01  6.60966E+01  6.89686E+01  7.20885E+01  7.55542E+01  7.95471E+01  8.42298E+01  8.91920E+01  9.44282E+01  1.00969E+02
   1.08260E+02  1.15081E+02  1.22276E+02  1.30522E+02  1.38994E+02  1.46176E+02  1.51264E+02  1.52901E+02  1.49742E+02  1.40947E+02
   1.27754E+02  1.13858E+02  1.02034E+02  9.25841E+01  8.49417E+01  7.88937E+01  7.31852E+01  6.52329E+01  5.54525E+01  4.54698E+01
   3.55647E+01  2.64184E+01  1.97216E+01  1.54197E+01  1.18511E+01  9.12583E+00  7.59948E+00  6.66159E+00  5.69992E+00  4.60553E+00
   3.40683E+00  2.40366E+00  1.87768E+00  1.94372E+00  1.75203E+00  1.21902E+00  1.11967E+00  1.54020E+00  1.28766E+00  3.80640E-01
   2.48327E-01  9.43107E-01  9.94560E-01  3.53365E-01  2.71964E-01  4.21160E-01  2.61691E-01 -9.34644E-02 -3.18952E-01 -2.87086E-02
   4.98117E-01  6.54830E-01  3.10860E-01 -1.10407E-01 -5.35150E-01 -8.29962E-01 -6.59239E-01 -2.74908E-01 -1.73402E-01 -6.80961E-02
   1.42113E-02 -1.60630E-01 -1.01728E-01 -2.76924E-02 -2.27976E-01 -6.91606E-01 -1.14987E+00 -1.22411E+00 -9.12845E-01 -7.79101E-01
  -7.95668E-01 -6.61566E-01 -1.10379E+00 -1.49490E+00 -1.19420E+00 -9.01772E-01 -8.38108E-01 -7.07717E-01 -7.60661E-01 -9.07361E-01
  -7.92204E-01 -6.44795E-01 -9.05926E-01 -1.36973E+00 -1.64290E+00 -1.76168E+00 -1.95277E+00 -1.74819E+00 -1.18027E+00 -4.16344E-01
  -1.89858E-01 -6.82280E-01 -1.48949E+00 -2.07733E+00 -2.06683E+00 -1.79516E+00 -1.77957E+00 -1.71721E+00 -1.55440E+00 -1.82135E+00
 NY background values follow
     2.517E+01    2.524E+01    2.531E+01    2.538E+01    2.546E+01    2.553E+01    2.560E+01    2.568E+01    2.575E+01    2.583E+01
     2.590E+01    2.598E+01    2.606E+01    2.614E+01    2.621E+01    2.629E+01    2.637E+01    2.646E+01    2.654E+01    2.662E+01
     2.671E+01    2.679E+01    2.688E+01    2.697E+01    2.706E+01    2.715E+01    2.724E+01    2.733E+01    2.743E+01    2.752E+01
     2.762E+01    2.772E+01    2.782E+01    2.793E+01    2.803E+01    2.813E+01    2.824E+01    2.835E+01    2.845E+01    2.856E+01
     2.867E+01    2.878E+01    2.889E+01    2.899E+01    2.910E+01    2.921E+01    2.932E+01    2.943E+01    2.953E+01    2.964E+01
     2.975E+01    2.985E+01    2.996E+01    3.006E+01    3.016E+01    3.026E+01    3.036E+01    3.046E+01    3.055E+01    3.065E+01
     3.074E+01    3.083E+01    3.091E+01    3.100E+01    3.108E+01    3.116E+01    3.124E+01    3.131E+01    3.139E+01    3.146E+01
     3.153E+01    3.159E+01    3.166E+01    3.172E+01    3.178E+01    3.183E+01    3.188E+01    3.193E+01    3.198E+01    3.202E+01
     3.207E+01    3.210E+01    3.214E+01    3.217E+01    3.220E+01    3.223E+01    3.225E+01    3.227E+01    3.228E+01    3.230E+01
     3.231E+01    3.231E+01    3.232E+01    3.232E+01    3.231E+01    3.231E+01    3.230E+01    3.229E+01    3.227E+01    3.226E+01
     3.224E+01    3.222E+01    3.219E+01    3.217E+01    3.214E+01    3.211E+01    3.208E+01    3.204E+01    3.201E+01    3.197E+01
     3.193E+01    3.189E+01    3.185E+01    3.181E+01    3.177E+01    3.172E+01    3.168E+01    3.163E+01    3.158E+01    3.154E+01
     3.149E+01    3.144E+01    3.139E+01    3.134E+01    3.129E+01    3.124E+01    3.119E+01    3.114E+01    3.109E+01    3.104E+01
     3.099E+01    3.093E+01    3.088E+01    3.082E+01    3.077E+01    3.071E+01    3.066E+01    3.060E+01    3.054E+01    3.049E+01
     3.043E+01    3.037E+01    3.031E+01    3.025E+01    3.018E+01    3.012E+01    3.006E+01    3.000E+01    2.993E+01    2.987E+01
     2.980E+01    2.973E+01    2.966E+01    2.960E+01    2.953E+01    2.946E+01    2.939E+01    2.932E+01    2.924E+01    2.917E+01
     2.910E+01    2.903E+01    2.895E+01    2.888E+01    2.880E+01    2.873E+01    2.865E+01    2.858E+01    2.850E+01    2.843E+01
     2.835E+01    2.827E+01    2.820E+01    2.812E+01    2.804E+01    2.797E+01    2.789E+01    2.781E+01    2.774E+01    2.766E+01
     2.758E+01    2.751E+01    2.743E+01    2.735E+01    2.728E+01    2.720E+01    2.713E+01    2.705E+01    2.698E+01    2.690E+01
     2.683E+01    2.675E+01    2.668E+01    2.661E+01    2.654E+01    2.646E+01    2.639E+01    2.632E+01    2.625E+01    2.619E+01
     2.612E+01    2.605E+01    2.598E+01    2.592E+01    2.585E+01    2.579E+01    2.573E+01    2.567E+01    2.561E+01    2.555E+01
     2.549E+01    2.543E+01    2.538E+01    2.532E+01    2.527E+01    2.522E+01    2.516E+01    2.511E+01    2.506E+01    2.501E+01
     2.496E+01    2.491E+01    2.486E+01    2.481E+01    2.477E+01    2.472E+01    2.467E+01    2.462E+01    2.458E+01    2.453E+01
     2.448E+01    2.443E+01    2.439E+01    2.434E+01    2.429E+01    2.424E+01    2.419E+01    2.414E+01    2.409E+01    2.404E+01
     2.399E+01    2.394E+01    2.388E+01    2.383E+01    2.378E+01    2.373E+01    2.367E+01    2.362E+01    2.357E+01    2.352E+01
     2.346E+01    2.341E+01    2.337E+01    2.332E+01    2.327E+01    2.322E+01    2.318E+01    2.314E+01    2.310E+01    2.306E+01
     2.303E+01    2.299E+01    2.296E+01    2.293E+01    2.291E+01    2.288E+01    2.286E+01    2.285E+01    2.284E+01    2.283E+01
     2.282E+01    2.282E+01    2.282E+01    2.283E+01    2.284E+01    2.285E+01    2.287E+01    2.289E+01    2.292E+01    2.295E+01
     2.299E+01    2.303E+01    2.308E+01    2.313E+01    2.319E+01    2.326E+01    2.332E+01    2.340E+01    2.348E+01    2.356E+01
     2.366E+01    2.375E+01    2.386E+01    2.397E+01    2.408E+01    2.421E+01    2.434E+01    2.447E+01    2.461E+01    2.476E+01
     2.492E+01    2.508E+01    2.525E+01    2.543E+01    2.561E+01    2.579E+01    2.598E+01    2.618E+01    2.637E+01    2.657E+01
     2.677E+01    2.698E+01    2.718E+01    2.739E+01    2.759E+01    2.779E+01    2.800E+01    2.820E+01    2.840E+01    2.860E+01
     2.879E+01    2.898E+01    2.917E+01    2.935E+01    2.953E+01    2.971E+01    2.987E+01    3.003E+01    3.019E+01    3.033E+01
     3.047E+01    3.060E+01    3.072E+01    3.083E+01    3.094E+01    3.104E+01    3.113E+01    3.121E+01    3.128E+01    3.135E+01
     3.141E+01    3.146E+01    3.150E+01    3.154E+01    3.157E+01    3.159E+01    3.160E+01    3.161E+01    3.161E+01    3.160E+01
     3.158E+01    3.156E+01    3.153E+01    3.149E+01    3.145E+01    3.140E+01    3.134E+01    3.128E+01    3.121E+01    3.113E+01
     3.104E+01    3.095E+01    3.086E+01    3.075E+01    3.064E+01    3.053E+01    3.040E+01    3.028E+01    3.014E+01    3.000E+01
     2.986E+01    2.971E+01    2.955E+01    2.939E+01    2.922E+01    2.905E+01    2.888E+01    2.869E+01    2.851E+01    2.832E+01
     2.812E+01    2.793E+01    2.772E+01    2.752E+01    2.731E+01    2.709E+01    2.687E+01    2.665E+01    2.643E+01    2.620E+01
     2.596E+01    2.573E+01    2.549E+01    2.525E+01    2.501E+01    2.476E+01    2.451E+01    2.426E+01    2.400E+01    2.375E+01
     2.349E+01    2.323E+01    2.297E+01    2.270E+01    2.244E+01    2.217E+01    2.190E+01    2.163E+01    2.136E+01    2.109E+01
     2.082E+01    2.054E+01    2.027E+01    2.000E+01    1.972E+01    1.944E+01    1.917E+01    1.889E+01    1.861E+01    1.834E+01
     1.806E+01    1.779E+01    1.751E+01    1.723E+01    1.696E+01    1.668E+01    1.641E+01    1.613E+01    1.586E+01    1.559E+01
     1.531E+01    1.504E+01    1.476E+01    1.449E+01    1.422E+01    1.394E+01    1.367E+01    1.340E+01    1.313E+01    1.286E+01
     1.258E+01    1.231E+01    1.204E+01    1.177E+01    1.150E+01    1.123E+01    1.096E+01    1.069E+01    1.042E+01    1.015E+01
     9.884E+00    9.616E+00    9.348E+00    9.080E+00    8.812E+00    8.545E+00    8.278E+00    8.011E+00    7.745E+00    7.478E+00
     7.212E+00    6.947E+00    6.681E+00    6.416E+00    6.151E+00    5.886E+00    5.621E+00    5.357E+00    5.092E+00    4.828E+00
     4.564E+00    4.301E+00    4.037E+00    3.774E+00    3.511E+00    3.248E+00    2.985E+00    2.722E+00    2.459E+00    2.197E+00
 Mac      Conc. = 2.93E-04
   4.68819E+00  3.84455E+00  3.61749E+00  3.49529E+00  3.31500E+00  3.00721E+00  2.07125E+00  3.10835E-01 -1.91147E+00 -3.92252E+00
  -5.23931E+00 -5.59854E+00 -5.45755E+00 -5.30867E+00 -5.36368E+00 -6.21265E+00 -8.61416E+00 -1.09569E+01 -9.36100E+00 -3.16866E+00
   2.93013E+00  6.67861E+00  1.08261E+01  1.45970E+01  1.58750E+01  1.63686E+01  1.72828E+01  1.86184E+01  2.04503E+01  2.29700E+01
   2.53654E+01  2.67230E+01  2.77009E+01  2.87303E+01  2.91768E+01  2.86882E+01  2.79114E+01  2.81634E+01  3.05563E+01  3.42595E+01
   3.67626E+01  3.68284E+01  3.58514E+01  3.58003E+01  3.69939E+01  3.89391E+01  4.05554E+01  4.08429E+01  4.02724E+01  3.91698E+01
   3.75521E+01  3.59656E+01  3.47632E+01  3.39669E+01  3.34729E+01  3.34110E+01  3.33664E+01  3.37230E+01  3.53959E+01  3.73342E+01
   3.85328E+01  3.99466E+01  4.18749E+01  4.26617E+01  4.20020E+01  4.08963E+01  3.94806E+01  3.86508E+01  3.86694E+01  3.83101E+01
   3.77892E+01  3.89541E+01  4.23906E+01  4.59562E+01  4.79389E+01  4.89155E+01  4.89857E+01  4.82573E+01  4.72005E+01  4.58994E+01
   4.51568E+01  4.49859E+01  4.45107E+01  4.43048E+01  4.49055E+01  4.60627E+01  4.69655E+01  4.77636E+01  4.88156E+01  4.95281E+01
   4.98692E+01  5.03439E+01  5.06691E+01  5.07021E+01  5.06371E+01  5.00001E+01  4.80639E+01  4.52899E+01  4.23448E+01  3.93402E+01
   3.69026E+01  3.54127E+01  3.35960E+01  3.06962E+01  2.71717E+01  2.28842E+01  1.67318E+01  8.77512E+00  1.10260E+00 -3.18699E+00
