 
 $NMID
 ID=''
 FMTDAT='(2E13.5)'
 TRAMP=   1.00000E+0
 VOLUME=   1.00000E+0
 $END
   7.40125E+5   1.44888E+5
   1.66357E+6   1.07265E+6
   1.73148E+6   8.86358E+5
   1.61873E+6   9.22998E+5
   1.67029E+6   9.58732E+5
   1.63352E+6   8.83016E+5
   1.57552E+6   9.24230E+5
   1.64002E+6   9.55601E+5
   1.62103E+6   8.87350E+5
   1.54771E+6   9.17365E+5
   1.57265E+6   9.59917E+5
   1.57383E+6   9.20359E+5
   1.52833E+6   9.19169E+5
   1.52180E+6   9.40995E+5
   1.50746E+6   9.31699E+5
   1.48432E+6   9.31834E+5
   1.48164E+6   9.37402E+5
   1.45735E+6   9.36823E+5
   1.43948E+6   9.49435E+5
   1.44324E+6   9.41892E+5
   1.41754E+6   9.34743E+5
   1.39628E+6   9.49502E+5
   1.39744E+6   9.48194E+5
   1.37909E+6   9.39911E+5
   1.35363E+6   9.49587E+5
   1.34896E+6   9.45216E+5
   1.33508E+6   9.42207E+5
   1.31762E+6   9.50102E+5
   1.30298E+6   9.48418E+5
   1.28669E+6   9.43702E+5
   1.27561E+6   9.50608E+5
   1.26445E+6   9.45998E+5
   1.24388E+6   9.44619E+5
   1.23254E+6   9.49677E+5
   1.22418E+6   9.41970E+5
   1.20921E+6   9.35313E+5
   1.19911E+6   9.43033E+5
   1.19062E+6   9.43518E+5
   1.17241E+6   9.36571E+5
   1.15876E+6   9.37214E+5
   1.14852E+6   9.38419E+5
   1.13437E+6   9.34099E+5
   1.11998E+6   9.29174E+5
   1.10876E+6   9.28407E+5
   1.09567E+6   9.28476E+5
   1.08403E+6   9.28407E+5
   1.06886E+6   9.26951E+5
   1.05202E+6   9.28362E+5
   1.03870E+6   9.27485E+5
   1.02679E+6   9.24170E+5
   1.01180E+6   9.23404E+5
   9.98550E+5   9.25127E+5
   9.88151E+5   9.23992E+5
   9.74875E+5   9.21881E+5
   9.59581E+5   9.21166E+5
   9.46383E+5   9.21379E+5
   9.33397E+5   9.19892E+5
   9.17622E+5   9.16549E+5
   9.03513E+5   9.13889E+5
   8.93379E+5   9.12481E+5
   8.80832E+5   9.10884E+5
   8.65634E+5   9.09703E+5
   8.51727E+5   9.08936E+5
   8.38800E+5   9.07200E+5
   8.24309E+5   9.04287E+5
   8.09586E+5   9.00431E+5
   7.95416E+5   8.97205E+5
   7.83493E+5   8.93631E+5
   7.71398E+5   8.92333E+5
   7.56673E+5   8.91820E+5
   7.41670E+5   8.89123E+5
   7.28887E+5   8.84455E+5
   7.17218E+5   8.81964E+5
   7.03331E+5   8.80635E+5
   6.88469E+5   8.78025E+5
   6.75645E+5   8.73458E+5
   6.62993E+5   8.70278E+5
   6.49163E+5   8.68064E+5
   6.35332E+5   8.64996E+5
   6.21829E+5   8.61172E+5
   6.08401E+5   8.57787E+5
   5.94786E+5   8.54233E+5
   5.81862E+5   8.50401E+5
   5.68020E+5   8.47203E+5
   5.54132E+5   8.44039E+5
   5.40893E+5   8.40123E+5
   5.28954E+5   8.35724E+5
   5.16082E+5   8.31864E+5
   5.03072E+5   8.28057E+5
   4.91089E+5   8.23142E+5
   4.80258E+5   8.17942E+5
   4.69247E+5   8.13927E+5
   4.56690E+5   8.09896E+5
   4.45029E+5   8.04408E+5
   4.33213E+5   7.98227E+5
   4.23070E+5   7.92489E+5
   4.12991E+5   7.88080E+5
   4.02512E+5   7.83201E+5
   3.91734E+5   7.77378E+5
   3.81551E+5   7.72406E+5
   3.71895E+5   7.67908E+5
   3.60953E+5   7.62874E+5
   3.50076E+5   7.56709E+5
   3.39807E+5   7.50387E+5
   3.31567E+5   7.44265E+5
   3.23278E+5   7.38529E+5
   3.14194E+5   7.33830E+5
   3.04066E+5   7.27797E+5
   2.95140E+5   7.20134E+5
   2.87619E+5   7.12853E+5
   2.80153E+5   7.07584E+5
   2.71298E+5   7.02517E+5
   2.62208E+5   6.96438E+5
   2.53234E+5   6.90014E+5
   2.44623E+5   6.83854E+5
   2.36161E+5   6.78184E+5
   2.26926E+5   6.72044E+5
   2.17973E+5   6.64808E+5
   2.10514E+5   6.57785E+5
   2.04076E+5   6.50811E+5
   1.96822E+5   6.45206E+5
   1.89267E+5   6.39494E+5
   1.81913E+5   6.33179E+5
   1.74330E+5   6.26950E+5
   1.66386E+5   6.20355E+5
   1.59135E+5   6.13405E+5
   1.51935E+5   6.06940E+5
   1.44704E+5   6.00418E+5
   1.37644E+5   5.94347E+5
   1.30214E+5   5.88720E+5
   1.22110E+5   5.83010E+5
   1.14200E+5   5.76343E+5
   1.06779E+5   5.69464E+5
   1.00268E+5   5.63620E+5
   9.31336E+4   5.57506E+5
   8.61795E+4   5.50787E+5
   8.02004E+4   5.44240E+5
   7.38651E+4   5.38785E+5
   6.73937E+4   5.33299E+5
   6.06806E+4   5.26983E+5
   5.43388E+4   5.20394E+5
   4.89377E+4   5.13822E+5
   4.39842E+4   5.07858E+5
   3.82577E+4   5.02319E+5
   3.21753E+4   4.96918E+5
   2.62543E+4   4.90973E+5
   2.11354E+4   4.84355E+5
   1.58427E+4   4.78078E+5
   1.07333E+4   4.72318E+5
   6.62372E+3   4.66317E+5
   1.82306E+3   4.60093E+5
  -2.11321E+3   4.54392E+5
  -5.78367E+3   4.49283E+5
  -9.60386E+3   4.44301E+5
  -1.43584E+4   4.38339E+5
  -1.77764E+4   4.32336E+5
  -2.08866E+4   4.27070E+5
  -2.41370E+4   4.21804E+5
  -2.72352E+4   4.16483E+5
  -3.05051E+4   4.10652E+5
  -3.33344E+4   4.05643E+5
  -3.61319E+4   4.00312E+5
  -3.94969E+4   3.94729E+5
  -4.19000E+4   3.89205E+5
  -4.40682E+4   3.83809E+5
  -4.59700E+4   3.78658E+5
  -4.84037E+4   3.74142E+5
  -5.08734E+4   3.69364E+5
  -5.29289E+4   3.64239E+5
  -5.47110E+4   3.59051E+5
  -5.60607E+4   3.54355E+5
  -5.79469E+4   3.49715E+5
  -5.96974E+4   3.44992E+5
  -6.13660E+4   3.39978E+5
  -6.31163E+4   3.35085E+5
  -6.43693E+4   3.30616E+5
  -6.61266E+4   3.26558E+5
  -6.81499E+4   3.21252E+5
  -6.95578E+4   3.15880E+5
  -7.06516E+4   3.11800E+5
  -7.20542E+4   3.07704E+5
  -7.38883E+4   3.03484E+5
  -7.55533E+4   2.98866E+5
  -7.67515E+4   2.94134E+5
  -7.83227E+4   2.89548E+5
  -7.94042E+4   2.85342E+5
  -8.04565E+4   2.81105E+5
  -8.16825E+4   2.76759E+5
  -8.24225E+4   2.72625E+5
  -8.34305E+4   2.69054E+5
  -8.49291E+4   2.65541E+5
  -8.66956E+4   2.61387E+5
  -8.82073E+4   2.56746E+5
  -8.90166E+4   2.52539E+5
  -9.02342E+4   2.48719E+5
  -9.12434E+4   2.44876E+5
  -9.25533E+4   2.40879E+5
  -9.38953E+4   2.37290E+5
  -9.52889E+4   2.33656E+5
  -9.66274E+4   2.29931E+5
  -9.80746E+4   2.25933E+5
  -9.92556E+4   2.21973E+5
  -9.99569E+4   2.18401E+5
  -1.00900E+5   2.15004E+5
  -1.02014E+5   2.11681E+5
  -1.03406E+5   2.08076E+5
  -1.04405E+5   2.04566E+5
  -1.04971E+5   2.01148E+5
  -1.06006E+5   1.97754E+5
  -1.07314E+5   1.94348E+5
  -1.08175E+5   1.90980E+5
  -1.08781E+5   1.87464E+5
  -1.09722E+5   1.84592E+5
  -1.11038E+5   1.81554E+5
  -1.12242E+5   1.78078E+5
  -1.12671E+5   1.74661E+5
  -1.13279E+5   1.71667E+5
  -1.13552E+5   1.68489E+5
  -1.14197E+5   1.65883E+5
  -1.14705E+5   1.63032E+5
  -1.15317E+5   1.60075E+5
  -1.15733E+5   1.57370E+5
  -1.16003E+5   1.54749E+5
  -1.16931E+5   1.51803E+5
  -1.17227E+5   1.48685E+5
  -1.17363E+5   1.45846E+5
  -1.17283E+5   1.43736E+5
  -1.17691E+5   1.41345E+5
  -1.18662E+5   1.38821E+5
  -1.18625E+5   1.36163E+5
  -1.18687E+5   1.33070E+5
  -1.18637E+5   1.30916E+5
  -1.18698E+5   1.28652E+5
  -1.18774E+5   1.26416E+5
  -1.18666E+5   1.24009E+5
  -1.18534E+5   1.21630E+5
  -1.18738E+5   1.19472E+5
  -1.18590E+5   1.17360E+5
  -1.18317E+5   1.15137E+5
  -1.18374E+5   1.12839E+5
  -1.18040E+5   1.11036E+5
  -1.17789E+5   1.09184E+5
  -1.18087E+5   1.07007E+5
  -1.17777E+5   1.04629E+5
  -1.17357E+5   1.02356E+5
  -1.17102E+5   1.00565E+5
  -1.17237E+5   9.85874E+4
  -1.16872E+5   9.65053E+4
  -1.16272E+5   9.42692E+4
  -1.16170E+5   9.28586E+4
  -1.15869E+5   9.06555E+4
  -1.15946E+5   8.91927E+4
  -1.15794E+5   8.69990E+4
  -1.15095E+5   8.48579E+4
  -1.14723E+5   8.31085E+4
  -1.14386E+5   8.12935E+4
  -1.14468E+5   7.94330E+4
  -1.14314E+5   7.74002E+4
  -1.14122E+5   7.57031E+4
  -1.13897E+5   7.36679E+4
  -1.13793E+5   7.16203E+4
  -1.13610E+5   6.94896E+4
  -1.12934E+5   6.73970E+4
  -1.12722E+5   6.57796E+4
  -1.12183E+5   6.44368E+4
  -1.12120E+5   6.25954E+4
  -1.12184E+5   6.06337E+4
  -1.11760E+5   5.86802E+4
  -1.11165E+5   5.67029E+4
  -1.10793E+5   5.54822E+4
  -1.10554E+5   5.37302E+4
  -1.10353E+5   5.20146E+4
  -1.09685E+5   5.01814E+4
  -1.09666E+5   4.86290E+4
  -1.09305E+5   4.67277E+4
  -1.09254E+5   4.51729E+4
  -1.08954E+5   4.31622E+4
  -1.08263E+5   4.18296E+4
  -1.07699E+5   4.04292E+4
  -1.07719E+5   3.90196E+4
  -1.07327E+5   3.71363E+4
  -1.06736E+5   3.57130E+4
  -1.06039E+5   3.42479E+4
  -1.05807E+5   3.28495E+4
  -1.05461E+5   3.12659E+4
  -1.04867E+5   2.94978E+4
  -1.04046E+5   2.84342E+4
  -1.03575E+5   2.72120E+4
  -1.03229E+5   2.60603E+4
  -1.02687E+5   2.43156E+4
  -1.02182E+5   2.31260E+4
  -1.01581E+5   2.18390E+4
  -1.01363E+5   2.08583E+4
  -1.00630E+5   1.91063E+4
  -9.99663E+4   1.80378E+4
  -9.91054E+4   1.69342E+4
  -9.86849E+4   1.56692E+4
  -9.80705E+4   1.48604E+4
  -9.76179E+4   1.33736E+4
  -9.66301E+4   1.21689E+4
  -9.59773E+4   1.10426E+4
  -9.52141E+4   1.03021E+4
  -9.47876E+4   9.48374E+3
  -9.42488E+4   8.10021E+3
  -9.31769E+4   6.76253E+3
  -9.22799E+4   5.82026E+3
  -9.18048E+4   4.64981E+3
  -9.11010E+4   3.94543E+3
  -9.00888E+4   3.02987E+3
  -8.93729E+4   1.74872E+3
  -8.84961E+4   1.05360E+3
  -8.79513E+4   2.36538E+2
  -8.75008E+4  -9.27265E+2
  -8.64122E+4  -2.06578E+3
  -8.53108E+4  -2.70127E+3
  -8.46048E+4  -3.60217E+3
  -8.37652E+4  -4.50686E+3
  -8.30351E+4  -5.54103E+3
  -8.22112E+4  -6.39088E+3
  -8.11984E+4  -7.23405E+3
  -8.05355E+4  -7.91892E+3
  -7.96341E+4  -8.94213E+3
  -7.86672E+4  -9.64977E+3
  -7.75935E+4  -1.03668E+4
  -7.69514E+4  -1.11642E+4
  -7.59778E+4  -1.17341E+4
  -7.54327E+4  -1.29361E+4
  -7.46812E+4  -1.36812E+4
  -7.33285E+4  -1.45447E+4
  -7.24555E+4  -1.51746E+4
  -7.16507E+4  -1.57268E+4
  -7.08601E+4  -1.62169E+4
  -6.96875E+4  -1.72048E+4
  -6.90745E+4  -1.77101E+4
  -6.84246E+4  -1.81634E+4
  -6.76622E+4  -1.91921E+4
  -6.68678E+4  -1.99246E+4
  -6.57453E+4  -2.06386E+4
  -6.46242E+4  -2.09949E+4
  -6.37536E+4  -2.14923E+4
  -6.32933E+4  -2.21976E+4
  -6.24250E+4  -2.25486E+4
  -6.13091E+4  -2.33588E+4
  -6.03509E+4  -2.37831E+4
  -5.94140E+4  -2.43535E+4
  -5.87988E+4  -2.51139E+4
  -5.77556E+4  -2.53329E+4
  -5.70505E+4  -2.57544E+4
  -5.61981E+4  -2.60378E+4
  -5.56168E+4  -2.66909E+4
  -5.46451E+4  -2.72393E+4
  -5.35609E+4  -2.77853E+4
  -5.24921E+4  -2.81159E+4
  -5.18402E+4  -2.81446E+4
  -5.13061E+4  -2.85764E+4
  -5.00719E+4  -2.88789E+4
  -4.93658E+4  -2.93495E+4
  -4.85499E+4  -2.93759E+4
  -4.78663E+4  -3.00126E+4
  -4.69186E+4  -3.04401E+4
  -4.60845E+4  -3.06859E+4
  -4.54259E+4  -3.07266E+4
  -4.44670E+4  -3.08750E+4
  -4.37937E+4  -3.11674E+4
  -4.30847E+4  -3.11317E+4
  -4.24122E+4  -3.14922E+4
  -4.15197E+4  -3.17225E+4
