 
 $NMID
 ID=''
 FMTDAT='(2E13.5)'
 TRAMP=   1.00000E+0
 VOLUME=   1.00000E+0
 $END
   4.78640E+5   3.28350E+5
   9.25052E+5   1.27253E+6
   1.07455E+6   1.09856E+6
   9.97881E+5   1.02414E+6
   1.07382E+6   1.03102E+6
   1.16694E+6   8.95782E+5
   1.15987E+6   8.06958E+5
   1.19721E+6   7.89131E+5
   1.22733E+6   7.07172E+5
   1.20635E+6   6.54683E+5
   1.22796E+6   6.24644E+5
   1.24218E+6   5.48236E+5
   1.22325E+6   4.97245E+5
   1.23153E+6   4.70095E+5
   1.22782E+6   4.14330E+5
   1.20729E+6   3.71294E+5
   1.21680E+6   3.31377E+5
   1.21439E+6   2.63358E+5
   1.19125E+6   2.07963E+5
   1.18896E+6   1.54013E+5
   1.17691E+6   9.16014E+4
   1.15147E+6   4.49259E+4
   1.13917E+6   8.81122E+2
   1.11749E+6  -5.27731E+4
   1.08621E+6  -8.93499E+4
   1.06621E+6  -1.26322E+5
   1.04259E+6  -1.64658E+5
   1.01336E+6  -1.88603E+5
   9.88857E+5  -2.14013E+5
   9.58223E+5  -2.50137E+5
   9.26811E+5  -2.78072E+5
   8.99147E+5  -3.08221E+5
   8.65105E+5  -3.41225E+5
   8.29348E+5  -3.67942E+5
   7.95150E+5  -3.96265E+5
   7.55724E+5  -4.27563E+5
   7.17466E+5  -4.51348E+5
   6.83765E+5  -4.72060E+5
   6.44754E+5  -4.88525E+5
   6.07933E+5  -5.00817E+5
   5.74607E+5  -5.10735E+5
   5.39337E+5  -5.18883E+5
   5.04886E+5  -5.23158E+5
   4.73568E+5  -5.28827E+5
   4.41195E+5  -5.31325E+5
   4.09664E+5  -5.30796E+5
   3.79543E+5  -5.31440E+5
   3.48315E+5  -5.30789E+5
   3.16390E+5  -5.27793E+5
   2.85520E+5  -5.25392E+5
   2.53800E+5  -5.22122E+5
   2.24801E+5  -5.16230E+5
   1.96553E+5  -5.09183E+5
   1.68929E+5  -5.01017E+5
   1.43561E+5  -4.91479E+5
   1.19984E+5  -4.81163E+5
   9.78045E+4  -4.68909E+5
   7.66498E+4  -4.55466E+5
   5.67340E+4  -4.42124E+5
   3.81458E+4  -4.29021E+5
   2.04567E+4  -4.15077E+5
   3.53485E+3  -4.00351E+5
  -1.23642E+4  -3.85523E+5
  -2.67721E+4  -3.70377E+5
  -4.05253E+4  -3.54453E+5
  -5.37589E+4  -3.38479E+5
  -6.55800E+4  -3.22280E+5
  -7.59959E+4  -3.05544E+5
  -8.58261E+4  -2.89587E+5
  -9.41200E+4  -2.73932E+5
  -1.00791E+5  -2.58397E+5
  -1.07030E+5  -2.42265E+5
  -1.12391E+5  -2.26043E+5
  -1.17054E+5  -2.11243E+5
  -1.20341E+5  -1.96743E+5
  -1.23166E+5  -1.81814E+5
  -1.25645E+5  -1.66960E+5
  -1.27236E+5  -1.52750E+5
  -1.27917E+5  -1.39198E+5
  -1.28164E+5  -1.25917E+5
  -1.28131E+5  -1.12791E+5
  -1.27060E+5  -1.00301E+5
  -1.25634E+5  -8.82212E+4
  -1.23168E+5  -7.66446E+4
  -1.20722E+5  -6.60331E+4
  -1.17772E+5  -5.58034E+4
  -1.14733E+5  -4.57734E+4
  -1.11287E+5  -3.62673E+4
  -1.07043E+5  -2.74490E+4
  -1.02833E+5  -1.93492E+4
  -9.87560E+4  -1.15152E+4
  -9.46606E+4  -4.05809E+3
  -9.02361E+4   2.98854E+3
  -8.58390E+4   9.45713E+3
  -8.09181E+4   1.55033E+4
  -7.64581E+4   2.10929E+4
  -7.20166E+4   2.63250E+4
  -6.79128E+4   3.11967E+4
  -6.32470E+4   3.55143E+4
  -5.87265E+4   3.94043E+4
  -5.43419E+4   4.28045E+4
  -5.02335E+4   4.57374E+4
  -4.59915E+4   4.77234E+4
  -4.18817E+4   5.04591E+4
  -3.75994E+4   5.23474E+4
  -3.40443E+4   5.39676E+4
  -3.02986E+4   5.55657E+4
  -2.72170E+4   5.64275E+4
  -2.38474E+4   5.71888E+4
  -2.05829E+4   5.82945E+4
  -1.72488E+4   5.83405E+4
  -1.44668E+4   5.88942E+4
  -1.21199E+4   5.88563E+4
  -9.97599E+3   5.89731E+4
  -7.77060E+3   5.88443E+4
  -5.63714E+3   5.84865E+4
  -4.20575E+3   5.81221E+4
  -2.76234E+3   5.72688E+4
  -1.67398E+3   5.64631E+4
  -5.38586E+2   5.61705E+4
   5.52982E+2   5.53402E+4
   1.35643E+3   5.44948E+4
   1.53973E+3   5.30665E+4
   2.12407E+3   5.22346E+4
   1.81653E+3   5.11589E+4
   2.05236E+3   5.04482E+4
   2.20419E+3   4.91963E+4
   1.85025E+3   4.83461E+4
   1.53031E+3   4.72807E+4
   6.37627E+2   4.61790E+4
  -2.37092E+2   4.51912E+4
  -1.11318E+3   4.42928E+4
  -1.85112E+3   4.29850E+4
  -2.78921E+3   4.20193E+4
  -3.94248E+3   4.12130E+4
  -5.47200E+3   4.05083E+4
  -6.96720E+3   3.93281E+4
  -8.03816E+3   3.85461E+4
  -9.49744E+3   3.76570E+4
  -1.12392E+4   3.68838E+4
  -1.27340E+4   3.60752E+4
  -1.42803E+4   3.54057E+4
  -1.57159E+4   3.44328E+4
  -1.72770E+4   3.38425E+4
  -1.90523E+4   3.32094E+4
  -2.09377E+4   3.28371E+4
  -2.23715E+4   3.22897E+4
  -2.45515E+4   3.19779E+4
  -2.61146E+4   3.12268E+4
  -2.79250E+4   3.08324E+4
  -2.96563E+4   3.05244E+4
  -3.11612E+4   3.02286E+4
  -3.28650E+4   3.02642E+4
  -3.46059E+4   3.01502E+4
  -3.61970E+4   3.00147E+4
  -3.77233E+4   2.96002E+4
  -3.91261E+4   2.95738E+4
  -4.06878E+4   2.97442E+4
  -4.22227E+4   2.97540E+4
  -4.34318E+4   2.97367E+4
  -4.50321E+4   2.96261E+4
  -4.61246E+4   2.97104E+4
  -4.74641E+4   3.00724E+4
  -4.83899E+4   3.00949E+4
  -4.95119E+4   2.99337E+4
  -5.03457E+4   3.06641E+4
  -5.14559E+4   3.07516E+4
  -5.24859E+4   3.09428E+4
  -5.32549E+4   3.09671E+4
  -5.41119E+4   3.11307E+4
  -5.45920E+4   3.15086E+4
  -5.52882E+4   3.16620E+4
  -5.58510E+4   3.20422E+4
  -5.63602E+4   3.20808E+4
  -5.68652E+4   3.23371E+4
  -5.69992E+4   3.25576E+4
  -5.75747E+4   3.28269E+4
  -5.78607E+4   3.28435E+4
  -5.81034E+4   3.27798E+4
  -5.79257E+4   3.29499E+4
  -5.81512E+4   3.30063E+4
  -5.82323E+4   3.28951E+4
  -5.80112E+4   3.27303E+4
  -5.82100E+4   3.26702E+4
  -5.79870E+4   3.24189E+4
  -5.75042E+4   3.23549E+4
  -5.72913E+4   3.21863E+4
  -5.70654E+4   3.19522E+4
  -5.65966E+4   3.14790E+4
  -5.61568E+4   3.11885E+4
  -5.63060E+4   3.06241E+4
  -5.55498E+4   3.04737E+4
  -5.53653E+4   2.98283E+4
  -5.47100E+4   2.90985E+4
  -5.41257E+4   2.83786E+4
  -5.38166E+4   2.77065E+4
  -5.35128E+4   2.67052E+4
  -5.30348E+4   2.61433E+4
  -5.23639E+4   2.49955E+4
  -5.20072E+4   2.42324E+4
  -5.17146E+4   2.32268E+4
  -5.12288E+4   2.22529E+4
  -5.06763E+4   2.12256E+4
  -5.01554E+4   2.02108E+4
  -4.97305E+4   1.93283E+4
  -4.93928E+4   1.80086E+4
  -4.89253E+4   1.67797E+4
  -4.86003E+4   1.57058E+4
  -4.82125E+4   1.45842E+4
  -4.77518E+4   1.32059E+4
  -4.74961E+4   1.19123E+4
  -4.72114E+4   1.04590E+4
  -4.67036E+4   9.38928E+3
  -4.64311E+4   8.43943E+3
  -4.66035E+4   7.09372E+3
  -4.60912E+4   5.68737E+3
  -4.58210E+4   4.56092E+3
  -4.57678E+4   3.47628E+3
  -4.55566E+4   2.52420E+3
  -4.53233E+4   1.40352E+3
  -4.51296E+4   6.57166E+1
  -4.52576E+4  -1.11846E+3
  -4.49249E+4  -1.93682E+3
  -4.49938E+4  -2.98626E+3
  -4.47126E+4  -4.14818E+3
  -4.48974E+4  -5.11236E+3
  -4.47333E+4  -6.06223E+3
  -4.47290E+4  -6.99736E+3
  -4.45958E+4  -7.82879E+3
  -4.46684E+4  -8.65118E+3
  -4.47088E+4  -9.52990E+3
  -4.45295E+4  -1.03456E+4
  -4.48028E+4  -1.09106E+4
  -4.47066E+4  -1.16321E+4
  -4.46288E+4  -1.24470E+4
  -4.47228E+4  -1.28614E+4
  -4.46748E+4  -1.36517E+4
  -4.47484E+4  -1.40280E+4
  -4.48130E+4  -1.45795E+4
  -4.47648E+4  -1.47794E+4
  -4.44686E+4  -1.53267E+4
  -4.45641E+4  -1.57343E+4
  -4.45366E+4  -1.61212E+4
  -4.46018E+4  -1.63477E+4
  -4.45363E+4  -1.66493E+4
  -4.42115E+4  -1.70306E+4
  -4.42208E+4  -1.68029E+4
  -4.42218E+4  -1.71825E+4
  -4.40913E+4  -1.73886E+4
  -4.36576E+4  -1.77124E+4
  -4.34543E+4  -1.76148E+4
  -4.34662E+4  -1.77590E+4
  -4.30655E+4  -1.79470E+4
  -4.28419E+4  -1.77839E+4
  -4.22484E+4  -1.80867E+4
  -4.23653E+4  -1.79710E+4
  -4.18130E+4  -1.80879E+4
  -4.16519E+4  -1.81391E+4
  -4.13533E+4  -1.81529E+4
  -4.05934E+4  -1.82749E+4
  -4.01929E+4  -1.82663E+4
  -3.99176E+4  -1.84132E+4
  -3.93250E+4  -1.85779E+4
  -3.88512E+4  -1.83473E+4
  -3.83708E+4  -1.80806E+4
  -3.78175E+4  -1.83032E+4
  -3.75329E+4  -1.84595E+4
  -3.68575E+4  -1.86914E+4
  -3.63063E+4  -1.85253E+4
  -3.54481E+4  -1.83324E+4
  -3.48928E+4  -1.84342E+4
  -3.41262E+4  -1.84598E+4
  -3.37700E+4  -1.84369E+4
  -3.29306E+4  -1.85213E+4
  -3.23842E+4  -1.85771E+4
  -3.16975E+4  -1.85044E+4
  -3.11573E+4  -1.85700E+4
  -3.03349E+4  -1.87075E+4
  -2.99152E+4  -1.86104E+4
  -2.89508E+4  -1.86638E+4
  -2.85940E+4  -1.89451E+4
  -2.76297E+4  -1.90039E+4
  -2.69641E+4  -1.88669E+4
  -2.65821E+4  -1.89576E+4
  -2.55233E+4  -1.92220E+4
  -2.51061E+4  -1.93571E+4
  -2.43952E+4  -1.92878E+4
  -2.38009E+4  -1.94357E+4
  -2.33008E+4  -1.90717E+4
  -2.25295E+4  -1.93851E+4
  -2.20701E+4  -1.95961E+4
  -2.13355E+4  -1.95799E+4
  -2.06486E+4  -1.94834E+4
  -2.00833E+4  -1.98616E+4
  -1.96279E+4  -1.98680E+4
  -1.91072E+4  -1.99326E+4
  -1.83386E+4  -2.00845E+4
  -1.79684E+4  -2.02183E+4
  -1.74812E+4  -2.04614E+4
  -1.67932E+4  -2.05267E+4
  -1.64313E+4  -2.04815E+4
  -1.55162E+4  -2.06107E+4
  -1.53315E+4  -2.06415E+4
  -1.49130E+4  -2.06847E+4
  -1.42785E+4  -2.06743E+4
  -1.40500E+4  -2.12113E+4
  -1.35599E+4  -2.12375E+4
  -1.29829E+4  -2.11491E+4
  -1.27484E+4  -2.10443E+4
  -1.21446E+4  -2.13796E+4
  -1.17872E+4  -2.12805E+4
  -1.17088E+4  -2.12236E+4
  -1.11391E+4  -2.14179E+4
  -1.07165E+4  -2.14650E+4
  -1.02334E+4  -2.14348E+4
  -9.97843E+3  -2.14101E+4
  -9.50892E+3  -2.14183E+4
  -9.26734E+3  -2.15955E+4
  -9.07520E+3  -2.14351E+4
  -8.72990E+3  -2.11839E+4
  -8.18723E+3  -2.12773E+4
  -7.88909E+3  -2.11477E+4
  -7.59916E+3  -2.11673E+4
  -7.06264E+3  -2.11432E+4
  -7.13972E+3  -2.09411E+4
  -6.69543E+3  -2.08689E+4
  -6.62659E+3  -2.09858E+4
  -6.18175E+3  -2.07725E+4
  -5.55345E+3  -2.08454E+4
  -5.68732E+3  -2.04207E+4
  -5.27926E+3  -2.02707E+4
  -4.95852E+3  -2.00916E+4
  -4.65695E+3  -2.00365E+4
  -4.41085E+3  -1.98674E+4
  -4.11500E+3  -1.98372E+4
  -4.01715E+3  -1.94748E+4
  -3.41966E+3  -1.94505E+4
  -3.12151E+3  -1.92605E+4
  -2.86219E+3  -1.88565E+4
  -2.94357E+3  -1.87416E+4
  -2.41396E+3  -1.85121E+4
  -2.24323E+3  -1.83305E+4
  -1.84433E+3  -1.83251E+4
  -1.39556E+3  -1.79392E+4
  -1.22437E+3  -1.77273E+4
  -1.29136E+3  -1.73422E+4
  -7.41668E+2  -1.73336E+4
  -3.60203E+2  -1.70427E+4
  -2.89516E+2  -1.69432E+4
  -1.06835E+1  -1.66113E+4
   6.08917E+2  -1.67026E+4
   6.54596E+2  -1.65049E+4
   9.80641E+2  -1.59620E+4
   1.30894E+3  -1.58226E+4
   1.52006E+3  -1.54640E+4
   1.76858E+3  -1.53295E+4
   1.99149E+3  -1.51037E+4
   2.12065E+3  -1.48646E+4
   2.26184E+3  -1.47929E+4
   2.73241E+3  -1.45660E+4
   3.04174E+3  -1.44682E+4
   3.15694E+3  -1.40506E+4
   3.32285E+3  -1.40892E+4
   3.62185E+3  -1.36645E+4
   3.96208E+3  -1.34120E+4
   3.93630E+3  -1.33794E+4
   4.14292E+3  -1.32830E+4
