 
 $NMID
 ID=''
 FMTDAT='(2E13.5)'
 TRAMP=   1.00000E+0
 VOLUME=   1.00000E+0
 $END
   5.48262E+5  -1.15781E+5
   1.43245E+6   1.68146E+5
   1.38269E+6  -2.59813E+4
   1.30447E+6   4.94623E+4
   1.40085E+6   4.66314E+4
   1.36606E+6  -7.02206E+4
   1.29012E+6  -6.45365E+4
   1.33340E+6  -4.87551E+4
   1.33639E+6  -1.15023E+5
   1.29702E+6  -1.39076E+5
   1.29324E+6  -1.49384E+5
   1.27315E+6  -1.74789E+5
   1.26024E+6  -1.84845E+5
   1.26430E+6  -2.17951E+5
   1.23129E+6  -2.48341E+5
   1.20809E+6  -2.46912E+5
   1.21912E+6  -2.68901E+5
   1.19764E+6  -3.00571E+5
   1.17392E+6  -3.01943E+5
   1.17364E+6  -3.17151E+5
   1.15674E+6  -3.41183E+5
   1.13420E+6  -3.50142E+5
   1.12673E+6  -3.63716E+5
   1.11276E+6  -3.79007E+5
   1.09503E+6  -3.85533E+5
   1.07859E+6  -4.06179E+5
   1.06144E+6  -4.20949E+5
   1.04940E+6  -4.24600E+5
   1.03299E+6  -4.36316E+5
   1.00840E+6  -4.51497E+5
   9.97990E+5  -4.56942E+5
   9.87208E+5  -4.67314E+5
   9.64455E+5  -4.74965E+5
   9.46516E+5  -4.78784E+5
   9.34096E+5  -4.88675E+5
   9.16205E+5  -4.98678E+5
   9.00687E+5  -5.03426E+5
   8.85678E+5  -5.08421E+5
   8.66693E+5  -5.13244E+5
   8.50782E+5  -5.17121E+5
   8.34230E+5  -5.21531E+5
   8.15380E+5  -5.25501E+5
   7.97555E+5  -5.29386E+5
   7.81011E+5  -5.32653E+5
   7.63093E+5  -5.32990E+5
   7.47767E+5  -5.35984E+5
   7.32865E+5  -5.37863E+5
   7.16864E+5  -5.33989E+5
   6.99919E+5  -5.30138E+5
   6.83176E+5  -5.31262E+5
   6.67502E+5  -5.30887E+5
   6.52725E+5  -5.26986E+5
   6.37473E+5  -5.24390E+5
   6.22066E+5  -5.22971E+5
   6.06664E+5  -5.20170E+5
   5.92232E+5  -5.15036E+5
   5.77287E+5  -5.09761E+5
   5.61344E+5  -5.05684E+5
   5.44838E+5  -5.02078E+5
   5.31011E+5  -4.96948E+5
   5.17516E+5  -4.90973E+5
   5.02599E+5  -4.86383E+5
   4.88602E+5  -4.81263E+5
   4.76077E+5  -4.73080E+5
   4.62755E+5  -4.64501E+5
   4.47719E+5  -4.58459E+5
   4.33260E+5  -4.52346E+5
   4.20571E+5  -4.44062E+5
   4.09413E+5  -4.36262E+5
   3.97054E+5  -4.29591E+5
   3.84580E+5  -4.21535E+5
   3.72925E+5  -4.12079E+5
   3.61198E+5  -4.04321E+5
   3.49467E+5  -3.97432E+5
   3.38177E+5  -3.88358E+5
   3.27835E+5  -3.79006E+5
   3.17478E+5  -3.70722E+5
   3.06619E+5  -3.62848E+5
   2.96183E+5  -3.53805E+5
   2.87118E+5  -3.43902E+5
   2.78097E+5  -3.35235E+5
   2.68006E+5  -3.27070E+5
   2.58353E+5  -3.18084E+5
   2.50882E+5  -3.08966E+5
   2.42652E+5  -2.99994E+5
   2.33722E+5  -2.91449E+5
   2.25361E+5  -2.83373E+5
   2.18115E+5  -2.74983E+5
   2.10759E+5  -2.66971E+5
   2.02649E+5  -2.58488E+5
   1.95012E+5  -2.50324E+5
   1.88374E+5  -2.42910E+5
   1.81714E+5  -2.35324E+5
   1.74783E+5  -2.27166E+5
   1.67849E+5  -2.19383E+5
   1.61844E+5  -2.12264E+5
   1.55736E+5  -2.05211E+5
   1.49317E+5  -1.98609E+5
   1.43400E+5  -1.91359E+5
   1.38198E+5  -1.84717E+5
   1.32850E+5  -1.77786E+5
   1.27114E+5  -1.71187E+5
   1.22076E+5  -1.64513E+5
   1.17446E+5  -1.58032E+5
   1.12104E+5  -1.51773E+5
   1.06803E+5  -1.46043E+5
   1.02760E+5  -1.40487E+5
   9.86553E+4  -1.34464E+5
   9.35714E+4  -1.28371E+5
   8.83781E+4  -1.23020E+5
   8.47160E+4  -1.18132E+5
   8.12435E+4  -1.13138E+5
   7.68490E+4  -1.07622E+5
   7.28238E+4  -1.02653E+5
   6.92530E+4  -9.77910E+4
   6.60840E+4  -9.28904E+4
   6.20882E+4  -8.81847E+4
   5.81665E+4  -8.34406E+4
   5.49059E+4  -7.89647E+4
   5.14510E+4  -7.48488E+4
   4.83349E+4  -7.09335E+4
   4.48782E+4  -6.70337E+4
   4.19510E+4  -6.28674E+4
   3.91019E+4  -5.90363E+4
   3.59523E+4  -5.53538E+4
   3.23544E+4  -5.14855E+4
   2.98034E+4  -4.79829E+4
   2.71182E+4  -4.45910E+4
   2.42208E+4  -4.11342E+4
   2.10856E+4  -3.76069E+4
   1.87725E+4  -3.43330E+4
   1.64494E+4  -3.11890E+4
   1.37118E+4  -2.82048E+4
   1.10054E+4  -2.49148E+4
   8.77710E+3  -2.20219E+4
   6.49192E+3  -1.88029E+4
   3.91665E+3  -1.62191E+4
   1.41350E+3  -1.35639E+4
  -6.07909E+2  -1.07882E+4
  -2.65261E+3  -8.49532E+3
  -4.93258E+3  -5.62542E+3
  -7.28042E+3  -3.63586E+3
  -9.49412E+3  -1.15325E+3
  -1.17061E+4   1.07953E+3
  -1.34927E+4   3.49906E+3
  -1.54211E+4   5.78915E+3
  -1.75300E+4   8.00218E+3
  -1.92661E+4   1.00139E+4
  -2.12136E+4   1.18933E+4
  -2.28852E+4   1.37141E+4
  -2.49000E+4   1.57281E+4
  -2.65154E+4   1.77845E+4
  -2.80249E+4   1.93192E+4
  -2.97622E+4   2.11863E+4
  -3.16413E+4   2.26728E+4
  -3.31546E+4   2.43251E+4
  -3.44953E+4   2.59876E+4
  -3.59429E+4   2.74514E+4
  -3.73672E+4   2.89811E+4
  -3.87040E+4   3.04232E+4
  -4.00049E+4   3.15852E+4
  -4.12530E+4   3.29161E+4
  -4.27026E+4   3.40433E+4
  -4.37578E+4   3.51106E+4
  -4.46432E+4   3.60578E+4
  -4.57113E+4   3.73575E+4
  -4.70105E+4   3.83343E+4
  -4.79486E+4   3.92709E+4
  -4.89284E+4   4.03470E+4
  -4.97236E+4   4.13276E+4
  -5.05202E+4   4.18371E+4
  -5.13512E+4   4.24976E+4
  -5.18930E+4   4.34417E+4
  -5.28285E+4   4.42639E+4
  -5.34614E+4   4.48024E+4
  -5.41919E+4   4.53068E+4
  -5.46509E+4   4.58419E+4
  -5.54223E+4   4.63237E+4
  -5.60007E+4   4.62962E+4
  -5.65140E+4   4.67163E+4
  -5.69954E+4   4.70236E+4
  -5.77159E+4   4.72336E+4
  -5.81080E+4   4.73194E+4
  -5.85797E+4   4.73299E+4
  -5.88719E+4   4.70737E+4
  -5.96110E+4   4.71117E+4
  -5.99522E+4   4.70789E+4
  -6.06910E+4   4.71042E+4
  -6.07832E+4   4.70483E+4
  -6.12465E+4   4.68302E+4
  -6.18534E+4   4.67348E+4
  -6.19015E+4   4.61020E+4
  -6.26262E+4   4.59284E+4
  -6.27096E+4   4.53427E+4
  -6.29286E+4   4.51970E+4
  -6.37396E+4   4.45884E+4
  -6.40083E+4   4.40574E+4
  -6.43684E+4   4.35221E+4
  -6.49081E+4   4.31499E+4
  -6.53987E+4   4.24061E+4
  -6.60101E+4   4.16248E+4
  -6.63165E+4   4.09246E+4
  -6.65167E+4   4.02348E+4
  -6.69632E+4   4.00620E+4
  -6.74934E+4   3.92172E+4
  -6.77922E+4   3.83791E+4
  -6.82537E+4   3.76851E+4
  -6.82735E+4   3.68288E+4
  -6.85066E+4   3.59884E+4
  -6.92150E+4   3.51123E+4
  -6.94657E+4   3.42053E+4
  -6.93880E+4   3.38093E+4
  -6.96270E+4   3.27362E+4
  -6.99853E+4   3.18865E+4
  -7.06472E+4   3.12161E+4
  -7.07020E+4   3.02540E+4
  -7.06745E+4   2.93043E+4
  -7.06902E+4   2.86472E+4
  -7.08332E+4   2.77180E+4
  -7.10461E+4   2.72071E+4
  -7.11431E+4   2.61460E+4
  -7.11336E+4   2.57812E+4
  -7.13066E+4   2.48283E+4
  -7.11095E+4   2.39052E+4
  -7.10572E+4   2.30752E+4
  -7.07870E+4   2.24002E+4
  -7.08992E+4   2.18116E+4
  -7.07646E+4   2.06958E+4
  -7.10179E+4   2.01675E+4
  -7.08206E+4   1.91977E+4
  -7.07913E+4   1.83022E+4
  -7.04358E+4   1.76698E+4
  -7.04013E+4   1.71825E+4
  -7.01388E+4   1.65057E+4
  -6.98339E+4   1.55696E+4
  -6.95711E+4   1.50754E+4
  -6.93624E+4   1.45252E+4
  -6.92221E+4   1.36620E+4
  -6.87600E+4   1.28093E+4
  -6.85117E+4   1.21505E+4
  -6.81728E+4   1.18657E+4
  -6.78225E+4   1.12453E+4
  -6.74320E+4   1.02621E+4
  -6.71852E+4   9.59104E+3
  -6.66589E+4   8.98171E+3
  -6.63145E+4   8.59269E+3
  -6.59107E+4   7.83274E+3
  -6.54528E+4   6.97055E+3
  -6.48964E+4   6.51187E+3
  -6.44749E+4   5.86508E+3
  -6.43514E+4   5.52398E+3
  -6.36056E+4   4.92781E+3
  -6.31280E+4   4.18543E+3
  -6.26186E+4   3.67053E+3
  -6.18224E+4   3.07978E+3
  -6.13578E+4   2.58710E+3
  -6.10014E+4   2.09577E+3
  -6.02439E+4   1.02056E+3
  -5.96854E+4   6.87240E+2
  -5.90773E+4  -1.22809E+2
  -5.87200E+4  -9.85853E+2
  -5.80565E+4  -1.12367E+3
  -5.73775E+4  -2.03591E+3
  -5.69181E+4  -2.50670E+3
  -5.63635E+4  -2.67666E+3
  -5.56402E+4  -3.42359E+3
  -5.52196E+4  -4.02595E+3
  -5.43827E+4  -4.83508E+3
  -5.36950E+4  -5.19418E+3
  -5.31659E+4  -5.84340E+3
  -5.24788E+4  -6.05283E+3
  -5.17561E+4  -6.47161E+3
  -5.11590E+4  -7.13326E+3
  -5.06647E+4  -7.63888E+3
  -4.97950E+4  -7.88142E+3
  -4.91527E+4  -8.74098E+3
  -4.84943E+4  -8.81710E+3
  -4.76232E+4  -9.69182E+3
  -4.70376E+4  -9.88507E+3
  -4.64041E+4  -1.02655E+4
  -4.56524E+4  -1.05657E+4
  -4.49969E+4  -1.10405E+4
  -4.42155E+4  -1.15070E+4
  -4.35573E+4  -1.18887E+4
  -4.27464E+4  -1.24337E+4
  -4.20623E+4  -1.26601E+4
  -4.10710E+4  -1.28398E+4
  -4.04329E+4  -1.32037E+4
  -4.00868E+4  -1.32213E+4
  -3.90847E+4  -1.38902E+4
  -3.82595E+4  -1.39628E+4
  -3.75587E+4  -1.42520E+4
  -3.69055E+4  -1.44060E+4
  -3.61009E+4  -1.44805E+4
  -3.54585E+4  -1.47644E+4
  -3.44377E+4  -1.50232E+4
  -3.39997E+4  -1.51788E+4
  -3.31421E+4  -1.53988E+4
  -3.25509E+4  -1.55127E+4
  -3.17071E+4  -1.58544E+4
  -3.09521E+4  -1.60056E+4
  -2.99527E+4  -1.58916E+4
  -2.93988E+4  -1.59286E+4
  -2.89929E+4  -1.62173E+4
  -2.79256E+4  -1.64163E+4
  -2.71720E+4  -1.63265E+4
  -2.63846E+4  -1.64114E+4
  -2.57584E+4  -1.65675E+4
  -2.50195E+4  -1.66930E+4
  -2.43098E+4  -1.63760E+4
  -2.35792E+4  -1.63623E+4
  -2.27166E+4  -1.64401E+4
  -2.20451E+4  -1.63299E+4
  -2.13886E+4  -1.64976E+4
  -2.04290E+4  -1.65889E+4
  -1.96713E+4  -1.62659E+4
  -1.92544E+4  -1.64564E+4
  -1.82544E+4  -1.64469E+4
  -1.74474E+4  -1.63758E+4
  -1.69396E+4  -1.62937E+4
  -1.61481E+4  -1.60927E+4
  -1.58170E+4  -1.60499E+4
  -1.48469E+4  -1.59194E+4
  -1.40337E+4  -1.57112E+4
  -1.33855E+4  -1.55186E+4
  -1.27192E+4  -1.55420E+4
  -1.19701E+4  -1.55229E+4
  -1.10590E+4  -1.56325E+4
  -1.04711E+4  -1.53635E+4
  -9.94998E+3  -1.48657E+4
  -9.17332E+3  -1.49880E+4
  -8.69339E+3  -1.48068E+4
  -7.82657E+3  -1.46699E+4
  -7.34808E+3  -1.43232E+4
  -6.73095E+3  -1.42305E+4
  -6.29308E+3  -1.41621E+4
  -5.43873E+3  -1.40973E+4
  -4.82639E+3  -1.39753E+4
  -4.00450E+3  -1.36497E+4
  -3.44831E+3  -1.34299E+4
  -2.95055E+3  -1.34474E+4
  -2.41982E+3  -1.32308E+4
  -1.73568E+3  -1.31383E+4
  -1.23311E+3  -1.30737E+4
  -5.22497E+2  -1.26477E+4
  -9.24370E+1  -1.26324E+4
   4.68774E+2  -1.21778E+4
   1.20622E+3  -1.19454E+4
   1.31809E+3  -1.18200E+4
   1.87403E+3  -1.16305E+4
   2.61340E+3  -1.15758E+4
   2.95319E+3  -1.14206E+4
   3.62938E+3  -1.11208E+4
   4.18194E+3  -1.08740E+4
   4.34237E+3  -1.08099E+4
   4.96495E+3  -1.01722E+4
   5.15615E+3  -1.02224E+4
   5.60262E+3  -9.97557E+3
   5.93953E+3  -9.97626E+3
   6.43469E+3  -9.68182E+3
   6.69031E+3  -9.36889E+3
   7.09898E+3  -9.18384E+3
   7.73037E+3  -8.84840E+3
   7.73502E+3  -8.60471E+3
   8.20822E+3  -8.20860E+3
   8.29651E+3  -8.40906E+3
   8.63400E+3  -8.12815E+3
