 
 $NMID
 ID=''
 FMTDAT='(2E13.5)'
 TRAMP=   1.00000E+0
 VOLUME=   1.00000E+0
 $END
   7.33329E+5   1.80241E+4
   1.75872E+6   6.76507E+5
   1.75030E+6   4.52554E+5
   1.64013E+6   5.43155E+5
   1.75752E+6   5.72129E+5
   1.72660E+6   4.39895E+5
   1.62789E+6   4.63675E+5
   1.69367E+6   5.11549E+5
   1.71435E+6   4.32108E+5
   1.65488E+6   4.13983E+5
   1.65379E+6   4.30015E+5
   1.65016E+6   4.04900E+5
   1.63751E+6   3.96814E+5
   1.64221E+6   3.75883E+5
   1.61050E+6   3.48944E+5
   1.59211E+6   3.56623E+5
   1.61398E+6   3.45185E+5
   1.59205E+6   3.16704E+5
   1.56605E+6   3.23096E+5
   1.57697E+6   3.14261E+5
   1.56350E+6   2.92077E+5
   1.54000E+6   2.90159E+5
   1.54040E+6   2.82010E+5
   1.53122E+6   2.66723E+5
   1.51340E+6   2.64078E+5
   1.50542E+6   2.46066E+5
   1.49372E+6   2.32025E+5
   1.48495E+6   2.30109E+5
   1.47460E+6   2.18265E+5
   1.45558E+6   2.01828E+5
   1.44798E+6   1.99621E+5
   1.44260E+6   1.88864E+5
   1.42417E+6   1.79741E+5
   1.40989E+6   1.76386E+5
   1.40207E+6   1.64328E+5
   1.38987E+6   1.51750E+5
   1.37965E+6   1.49291E+5
   1.36865E+6   1.44141E+5
   1.35263E+6   1.34238E+5
   1.34183E+6   1.27535E+5
   1.33003E+6   1.21207E+5
   1.31450E+6   1.12990E+5
   1.30128E+6   1.03469E+5
   1.29062E+6   9.59162E+4
   1.27649E+6   9.17149E+4
   1.26485E+6   8.54695E+4
   1.25243E+6   7.92054E+4
   1.23764E+6   7.94265E+4
   1.22289E+6   7.83665E+4
   1.20939E+6   7.21131E+4
   1.19557E+6   6.80896E+4
   1.18272E+6   6.84521E+4
   1.17035E+6   6.57904E+4
   1.15676E+6   6.22103E+4
   1.14281E+6   5.98064E+4
   1.12958E+6   5.99896E+4
   1.11596E+6   5.93500E+4
   1.10046E+6   5.60112E+4
   1.08571E+6   5.24951E+4
   1.07423E+6   5.13130E+4
   1.06136E+6   5.09284E+4
   1.04681E+6   4.89682E+4
   1.03320E+6   4.80060E+4
   1.02069E+6   4.99871E+4
   1.00583E+6   5.10158E+4
   9.89440E+5   4.90197E+4
   9.74878E+5   4.81502E+4
   9.62129E+5   4.90930E+4
   9.50048E+5   5.01104E+4
   9.36284E+5   5.07924E+4
   9.22164E+5   5.19786E+4
   9.09051E+5   5.30723E+4
   8.96185E+5   5.30065E+4
   8.83498E+5   5.35527E+4
   8.69736E+5   5.58218E+4
   8.56654E+5   5.71109E+4
   8.43983E+5   5.75601E+4
   8.30951E+5   5.88600E+4
   8.17701E+5   6.13240E+4
   8.05100E+5   6.38565E+4
   7.92260E+5   6.51899E+4
   7.78735E+5   6.63393E+4
   7.66515E+5   6.85161E+4
   7.54856E+5   7.12161E+4
   7.42273E+5   7.30417E+4
   7.29626E+5   7.46437E+4
   7.17784E+5   7.57318E+4
   7.06844E+5   7.74120E+4
   6.94643E+5   7.87701E+4
   6.82684E+5   7.97049E+4
   6.71235E+5   8.02021E+4
   6.60811E+5   8.10730E+4
   6.49531E+5   8.25040E+4
   6.37657E+5   8.39816E+4
   6.25567E+5   8.47595E+4
   6.15267E+5   8.45030E+4
   6.04792E+5   8.53428E+4
   5.94214E+5   8.61567E+4
   5.83537E+5   8.67650E+4
   5.73431E+5   8.72481E+4
   5.63688E+5   8.80615E+4
   5.53331E+5   8.91210E+4
   5.42865E+5   8.95324E+4
   5.32351E+5   8.99898E+4
   5.22572E+5   8.96962E+4
   5.13456E+5   8.91216E+4
   5.04639E+5   8.92549E+4
   4.94788E+5   8.98106E+4
   4.84456E+5   8.98197E+4
   4.74523E+5   8.84507E+4
   4.66508E+5   8.78388E+4
   4.58169E+5   8.81080E+4
   4.48814E+5   8.87397E+4
   4.39028E+5   8.88370E+4
   4.30300E+5   8.86329E+4
   4.21898E+5   8.89702E+4
   4.12642E+5   8.93095E+4
   4.03162E+5   8.90686E+4
   3.94476E+5   8.84369E+4
   3.86223E+5   8.74822E+4
   3.78484E+5   8.72410E+4
   3.70155E+5   8.69848E+4
   3.62172E+5   8.68701E+4
   3.54270E+5   8.64871E+4
   3.45976E+5   8.64890E+4
   3.37373E+5   8.62722E+4
   3.29501E+5   8.60204E+4
   3.21758E+5   8.56214E+4
   3.14133E+5   8.54684E+4
   3.06253E+5   8.59738E+4
   2.98805E+5   8.64876E+4
   2.91047E+5   8.67809E+4
   2.83405E+5   8.68805E+4
   2.76121E+5   8.68166E+4
   2.69151E+5   8.68220E+4
   2.61911E+5   8.70944E+4
   2.54871E+5   8.66545E+4
   2.47921E+5   8.69850E+4
   2.41354E+5   8.73129E+4
   2.34788E+5   8.73634E+4
   2.27805E+5   8.74991E+4
   2.21104E+5   8.67794E+4
   2.14874E+5   8.66008E+4
   2.09032E+5   8.65271E+4
   2.03105E+5   8.69883E+4
   1.96782E+5   8.71967E+4
   1.90723E+5   8.70098E+4
   1.84928E+5   8.70271E+4
   1.79042E+5   8.65272E+4
   1.73703E+5   8.64537E+4
   1.68110E+5   8.61402E+4
   1.63083E+5   8.58438E+4
   1.58302E+5   8.56094E+4
   1.53366E+5   8.56403E+4
   1.47904E+5   8.52132E+4
   1.43156E+5   8.48941E+4
   1.38766E+5   8.46423E+4
   1.34220E+5   8.42505E+4
   1.29725E+5   8.38469E+4
   1.25332E+5   8.34932E+4
   1.21183E+5   8.30932E+4
   1.16928E+5   8.27664E+4
   1.12741E+5   8.20726E+4
   1.08735E+5   8.15395E+4
   1.05190E+5   8.10195E+4
   1.01444E+5   8.02985E+4
   9.77756E+4   7.97783E+4
   9.45256E+4   7.94429E+4
   9.11350E+4   7.89070E+4
   8.78743E+4   7.82692E+4
   8.49251E+4   7.72450E+4
   8.15484E+4   7.65577E+4
   7.89214E+4   7.63041E+4
   7.56015E+4   7.56253E+4
   7.28087E+4   7.47636E+4
   7.01911E+4   7.40210E+4
   6.75674E+4   7.36013E+4
   6.48725E+4   7.27830E+4
   6.20542E+4   7.13274E+4
   5.95948E+4   7.05957E+4
   5.73750E+4   6.98332E+4
   5.46833E+4   6.91822E+4
   5.25989E+4   6.82791E+4
   5.01992E+4   6.72839E+4
   4.79336E+4   6.61207E+4
   4.55252E+4   6.53407E+4
   4.35129E+4   6.42406E+4
   4.11112E+4   6.32059E+4
   3.92156E+4   6.20134E+4
   3.75011E+4   6.11412E+4
   3.54327E+4   6.03382E+4
   3.37510E+4   5.93393E+4
   3.14389E+4   5.83317E+4
   2.97878E+4   5.71865E+4
   2.78890E+4   5.62418E+4
   2.59517E+4   5.50521E+4
   2.46501E+4   5.40252E+4
   2.26393E+4   5.32181E+4
   2.07909E+4   5.22876E+4
   1.92468E+4   5.11439E+4
   1.75179E+4   4.99955E+4
   1.56553E+4   4.90274E+4
   1.42545E+4   4.78235E+4
   1.26837E+4   4.72410E+4
   1.12963E+4   4.60671E+4
   9.80879E+3   4.50901E+4
   8.33266E+3   4.42805E+4
   7.28134E+3   4.30173E+4
   5.90229E+3   4.21507E+4
   4.22853E+3   4.09903E+4
   3.03362E+3   3.99930E+4
   2.14463E+3   3.92984E+4
   9.77826E+2   3.81141E+4
  -2.24786E+2   3.72609E+4
  -1.75050E+3   3.64865E+4
  -2.73170E+3   3.54777E+4
  -3.76416E+3   3.46449E+4
  -4.48528E+3   3.37880E+4
  -5.38575E+3   3.28051E+4
  -6.34888E+3   3.21106E+4
  -7.33152E+3   3.09858E+4
  -8.18668E+3   3.04682E+4
  -8.95972E+3   2.94186E+4
  -9.75747E+3   2.87798E+4
  -1.04160E+4   2.75970E+4
  -1.07866E+4   2.69527E+4
  -1.16705E+4   2.63454E+4
  -1.20068E+4   2.54012E+4
  -1.31200E+4   2.48285E+4
  -1.35776E+4   2.38844E+4
  -1.42797E+4   2.30512E+4
  -1.46721E+4   2.24164E+4
  -1.51519E+4   2.17321E+4
  -1.55689E+4   2.10031E+4
  -1.58789E+4   2.00585E+4
  -1.60631E+4   1.96067E+4
  -1.65165E+4   1.89626E+4
  -1.69027E+4   1.82881E+4
  -1.71346E+4   1.75744E+4
  -1.73962E+4   1.70706E+4
  -1.76831E+4   1.63959E+4
  -1.78119E+4   1.60064E+4
  -1.79148E+4   1.52554E+4
  -1.82343E+4   1.47781E+4
  -1.84084E+4   1.38765E+4
  -1.84331E+4   1.35483E+4
  -1.84756E+4   1.29555E+4
  -1.84554E+4   1.22566E+4
  -1.84720E+4   1.17475E+4
  -1.86161E+4   1.13694E+4
  -1.86252E+4   1.08818E+4
  -1.88043E+4   1.04537E+4
  -1.86178E+4   9.82682E+3
  -1.85781E+4   9.22294E+3
  -1.84185E+4   8.83268E+3
  -1.84511E+4   8.28525E+3
  -1.83815E+4   7.93899E+3
  -1.81657E+4   7.08168E+3
  -1.80163E+4   6.95564E+3
  -1.78071E+4   6.12241E+3
  -1.77716E+4   5.47252E+3
  -1.79015E+4   5.27503E+3
  -1.75075E+4   4.63810E+3
  -1.76451E+4   4.27706E+3
  -1.72395E+4   4.12121E+3
  -1.71284E+4   3.56394E+3
  -1.70119E+4   3.12500E+3
  -1.66944E+4   2.51047E+3
  -1.65484E+4   2.17278E+3
  -1.62811E+4   1.82914E+3
  -1.61381E+4   1.44010E+3
  -1.59879E+4   1.17217E+3
  -1.55232E+4   6.40707E+2
  -1.56194E+4   2.90746E+2
  -1.51788E+4  -4.67952E+1
  -1.50944E+4  -2.78301E+2
  -1.51159E+4  -5.19108E+2
  -1.47640E+4  -1.08114E+3
  -1.44454E+4  -1.31319E+3
  -1.42850E+4  -1.46374E+3
  -1.40404E+4  -1.73741E+3
  -1.39235E+4  -1.98242E+3
  -1.33992E+4  -2.26783E+3
  -1.31642E+4  -2.60321E+3
  -1.29602E+4  -2.89192E+3
  -1.27937E+4  -2.99310E+3
  -1.23892E+4  -3.02715E+3
  -1.21299E+4  -3.47173E+3
  -1.20551E+4  -3.49713E+3
  -1.15063E+4  -3.98455E+3
  -1.13594E+4  -3.76840E+3
  -1.12377E+4  -4.21399E+3
  -1.09765E+4  -3.84183E+3
  -1.07550E+4  -4.13457E+3
  -1.05418E+4  -4.09783E+3
  -1.00415E+4  -4.27630E+3
  -9.91485E+3  -4.25538E+3
  -9.56114E+3  -4.22124E+3
  -9.61433E+3  -4.37499E+3
  -9.05533E+3  -4.48976E+3
  -8.90940E+3  -4.41798E+3
  -8.41092E+3  -4.32591E+3
  -8.23642E+3  -4.07021E+3
  -8.28918E+3  -4.27202E+3
  -7.82284E+3  -4.19575E+3
  -7.42751E+3  -4.26275E+3
  -7.28835E+3  -4.09023E+3
  -6.96871E+3  -4.10426E+3
  -6.57987E+3  -4.07701E+3
  -6.47669E+3  -4.03540E+3
  -6.06355E+3  -3.78893E+3
  -5.84571E+3  -3.76714E+3
  -5.68409E+3  -3.64517E+3
  -5.30984E+3  -3.62832E+3
  -4.93490E+3  -3.65758E+3
  -4.56736E+3  -3.30012E+3
  -4.37078E+3  -3.48618E+3
  -4.10903E+3  -3.40630E+3
  -3.58317E+3  -3.16694E+3
  -3.57781E+3  -3.11694E+3
  -3.19969E+3  -2.73927E+3
  -3.11172E+3  -2.64597E+3
  -2.51372E+3  -2.37148E+3
  -2.29731E+3  -2.13090E+3
  -2.17494E+3  -2.31367E+3
  -1.79724E+3  -2.01769E+3
  -1.38906E+3  -1.83897E+3
  -1.09338E+3  -1.75846E+3
  -8.66358E+2  -1.64335E+3
  -7.42425E+2  -1.27721E+3
  -2.72138E+2  -1.51858E+3
  -2.95481E+2  -1.15041E+3
   1.89791E+2  -1.08057E+3
   2.79194E+2  -7.31120E+2
   4.21085E+2  -6.15745E+2
   4.29999E+2  -6.69591E+2
   8.12498E+2  -4.67953E+2
   1.12017E+3  -4.25340E+2
   1.40784E+3  -1.70371E+2
   1.61430E+3  -2.21332E+2
   1.63998E+3  -1.79443E+1
   1.78654E+3   1.35460E+2
   2.04897E+3   2.53471E+2
   2.30737E+3   2.93076E+2
   2.54327E+3   4.73972E+2
   2.60183E+3   5.35657E+2
   2.67664E+3   8.29956E+2
   2.92979E+3   1.01965E+3
   3.01931E+3   1.05155E+3
   2.98032E+3   1.04216E+3
   3.40659E+3   1.42119E+3
   3.26418E+3   1.25864E+3
   3.57165E+3   1.39167E+3
   3.77534E+3   1.64883E+3
   3.49384E+3   1.68591E+3
   3.86185E+3   2.16948E+3
   3.84713E+3   1.99818E+3
   3.82440E+3   2.13555E+3
   3.95351E+3   2.08593E+3
   4.15736E+3   2.05475E+3
   3.89144E+3   2.33629E+3
   3.97030E+3   2.56714E+3
   4.11417E+3   2.72482E+3
   4.18204E+3   2.74414E+3
   4.14549E+3   3.01570E+3
   4.06516E+3   2.98499E+3
   4.05117E+3   2.95923E+3
