 LCModel (Version 6.3-1N) Copyright: S.W. Provencher.          Ref.: Magn. Reson. Med. 30:672-679 (1993).                
 Slice_N1@13_10  28-Feb-2025 11:40:30
 27 lines in following concentration table = NCONC+1
    Conc.  %SD /Cr+PCr  Metabolite                                         
 3.39E-04   3% 3.5E-04 Mac                                                 
    2.066  77%   2.153 Cr                                                  
    5.610  29%   5.847 PCr                                                 
    4.539  19%   4.731 Ins                                                 
   11.344   7%  11.822 NAA                                                 
    4.574  18%   4.767 Tau                                                 
    0.000 999%   0.000 PCho                                                
    0.945  31%   0.985 GPC                                                 
   12.186   8%  12.700 Glu                                                 
    3.315  24%   3.454 Gln                                                 
    0.000 999%   0.000 Ala                                                 
    1.838  65%   1.915 Asc                                                 
    4.191  22%   4.368 Asp                                                 
    0.000 999%   0.000 GABA                                                
    1.023  64%   1.066 Glc                                                 
    1.591  30%   1.658 GSH                                                 
    0.242 274%   0.253 Lac                                                 
    2.322  28%   2.420 NAAG                                                
    1.462  75%   1.524 PE                                                  
    0.945  31%   0.985 GPC+PCho                                            
   13.666   6%  14.243 NAA+NAAG                                            
   15.501   8%  16.154 Glu+Gln                                             
    7.676   8%   8.000 Cr+PCr                                              
   13.666   6%  14.243 NAA+NAAG                                            
    7.676   8%   8.000 Cr+PCr                                              
   15.501   8%  16.154 Glu+Gln                                             
   6 lines in following misc. output table
  FWHM = 0.041 ppm    S/N =   5                                            
  Data shift = 0.000 ppm                                                   
  Ph: 163 deg       0.0 deg/ppm                                            
  alphaB,S = 9.8E+00,   1.9E+01                                            
   19 spline knots.   Ns = 5(1)                                            
   2 inflections.     1 extrema                                            
  480 points on ppm-axis = NY
      4.100000     4.091866     4.083733     4.075600     4.067466     4.059333     4.051199     4.043066     4.034933     4.026799
      4.018666     4.010532     4.002399     3.994265     3.986132     3.977998     3.969864     3.961731     3.953597     3.945463
      3.937330     3.929196     3.921062     3.912929     3.904795     3.896662     3.888528     3.880394     3.872261     3.864127
      3.855993     3.847860     3.839726     3.831592     3.823459     3.815325     3.807191     3.799058     3.790924     3.782790
      3.774657     3.766523     3.758389     3.750256     3.742122     3.733989     3.725855     3.717721     3.709588     3.701454
      3.693320     3.685187     3.677053     3.668919     3.660786     3.652652     3.644518     3.636385     3.628251     3.620117
      3.611984     3.603850     3.595716     3.587583     3.579449     3.571316     3.563182     3.555048     3.546915     3.538781
      3.530647     3.522514     3.514380     3.506246     3.498113     3.489979     3.481845     3.473712     3.465578     3.457444
      3.449311     3.441177     3.433043     3.424910     3.416776     3.408643     3.400509     3.392375     3.384242     3.376108
      3.367974     3.359841     3.351707     3.343573     3.335440     3.327306     3.319172     3.311039     3.302905     3.294771
      3.286638     3.278504     3.270370     3.262237     3.254103     3.245970     3.237836     3.229702     3.221569     3.213435
      3.205301     3.197168     3.189034     3.180900     3.172767     3.164633     3.156499     3.148366     3.140232     3.132098
      3.123965     3.115831     3.107697     3.099564     3.091430     3.083297     3.075163     3.067029     3.058896     3.050762
      3.042628     3.034495     3.026361     3.018227     3.010094     3.001960     2.993826     2.985693     2.977559     2.969425
      2.961292     2.953158     2.945024     2.936891     2.928757     2.920624     2.912490     2.904356     2.896223     2.888089
      2.879955     2.871822     2.863688     2.855554     2.847421     2.839287     2.831153     2.823020     2.814886     2.806752
      2.798619     2.790485     2.782351     2.774218     2.766084     2.757951     2.749817     2.741683     2.733550     2.725416
      2.717282     2.709149     2.701015     2.692881     2.684748     2.676614     2.668480     2.660347     2.652213     2.644079
      2.635946     2.627812     2.619678     2.611545     2.603411     2.595278     2.587144     2.579010     2.570877     2.562743
      2.554609     2.546476     2.538342     2.530208     2.522075     2.513941     2.505807     2.497674     2.489540     2.481406
      2.473273     2.465139     2.457006     2.448872     2.440738     2.432605     2.424471     2.416337     2.408204     2.400070
      2.391936     2.383803     2.375669     2.367535     2.359402     2.351268     2.343134     2.335001     2.326867     2.318733
      2.310600     2.302466     2.294333     2.286199     2.278065     2.269932     2.261798     2.253664     2.245531     2.237397
      2.229263     2.221130     2.212996     2.204862     2.196729     2.188595     2.180461     2.172328     2.164194     2.156060
      2.147927     2.139793     2.131660     2.123526     2.115392     2.107259     2.099125     2.090991     2.082858     2.074724
      2.066590     2.058457     2.050323     2.042189     2.034056     2.025922     2.017788     2.009655     2.001521     1.993387
      1.985254     1.977120     1.968987     1.960853     1.952719     1.944586     1.936452     1.928318     1.920185     1.912051
      1.903917     1.895784     1.887650     1.879516     1.871383     1.863249     1.855115     1.846982     1.838848     1.830714
      1.822581     1.814447     1.806314     1.798180     1.790046     1.781913     1.773779     1.765645     1.757512     1.749378
      1.741244     1.733111     1.724977     1.716843     1.708710     1.700576     1.692442     1.684309     1.676175     1.668041
      1.659908     1.651774     1.643641     1.635507     1.627373     1.619240     1.611106     1.602972     1.594839     1.586705
      1.578571     1.570438     1.562304     1.554170     1.546037     1.537903     1.529769     1.521636     1.513502     1.505368
      1.497235     1.489101     1.480968     1.472834     1.464700     1.456567     1.448433     1.440299     1.432166     1.424032
      1.415898     1.407765     1.399631     1.391497     1.383364     1.375230     1.367096     1.358963     1.350829     1.342695
      1.334562     1.326428     1.318295     1.310161     1.302027     1.293894     1.285760     1.277626     1.269493     1.261359
      1.253225     1.245092     1.236958     1.228824     1.220691     1.212557     1.204423     1.196290     1.188156     1.180022
      1.171889     1.163755     1.155622     1.147488     1.139354     1.131221     1.123087     1.114953     1.106820     1.098686
      1.090552     1.082419     1.074285     1.066151     1.058018     1.049884     1.041750     1.033617     1.025483     1.017349
      1.009216     1.001082     0.992949     0.984815     0.976681     0.968548     0.960414     0.952280     0.944147     0.936013
      0.927879     0.919746     0.911612     0.903478     0.895345     0.887211     0.879077     0.870944     0.862810     0.854676
      0.846543     0.838409     0.830276     0.822142     0.814008     0.805875     0.797741     0.789607     0.781474     0.773340
      0.765206     0.757073     0.748939     0.740805     0.732672     0.724538     0.716404     0.708271     0.700137     0.692003
      0.683870     0.675736     0.667603     0.659469     0.651335     0.643202     0.635068     0.626934     0.618801     0.610667
      0.602533     0.594400     0.586266     0.578132     0.569999     0.561865     0.553731     0.545598     0.537464     0.529330
      0.521197     0.513063     0.504930     0.496796     0.488662     0.480529     0.472395     0.464261     0.456128     0.447994
      0.439861     0.431727     0.423593     0.415460     0.407326     0.399192     0.391059     0.382925     0.374792     0.366658
      0.358524     0.350391     0.342257     0.334124     0.325990     0.317856     0.309723     0.301589     0.293455     0.285322
      0.277188     0.269055     0.260921     0.252787     0.244654     0.236520     0.228386     0.220253     0.212119     0.203986
 NY phased data points follow
  -8.47490E+01 -9.35970E+01 -8.95581E+01 -9.07882E+01 -9.76001E+01 -1.07749E+02 -1.06653E+02 -8.39441E+01 -1.07541E+02 -8.98894E+01
  -1.01233E+02 -1.18413E+02 -1.20943E+02 -1.30028E+02 -1.17084E+02 -1.32871E+02 -1.14453E+02 -1.31490E+02 -1.54343E+02 -1.58625E+02
  -1.61326E+02 -1.40425E+02 -1.40505E+02 -1.08598E+02 -8.55343E+01 -8.85322E+01 -5.84526E+01 -4.34576E+01 -7.19949E+01 -6.59835E+01
  -4.92746E+01 -5.79721E+01 -5.66007E+01 -5.85651E+01 -5.87823E+01 -5.63880E+01 -6.84601E+01 -7.34074E+01 -8.25643E+01 -1.19294E+02
  -1.16800E+02 -1.20199E+02 -1.24033E+02 -1.10225E+02 -1.00410E+02 -5.32421E+01 -4.86667E+01 -2.87886E+01 -1.34880E+01 -3.17693E+01
  -1.38460E+01 -2.14384E+01 -1.89538E+01 -3.16058E+01 -5.69321E+01 -4.14632E+01 -5.59608E+01 -6.30987E+01 -4.85694E+01 -6.64610E+01
  -5.95032E+01 -5.66403E+01 -4.58742E+01 -1.03423E+01 -2.98024E+01 -2.90567E+01 -1.64653E+01 -3.04252E+01 -4.12644E+01 -5.57855E+01
  -6.53882E+01 -7.89520E+01 -6.84343E+01 -4.73604E+01 -4.27311E+01 -3.05012E+01 -1.34694E+01 -1.13928E+01 -2.18415E+01 -2.46835E+01
  -2.78196E+01 -2.89739E+01 -2.53597E+01 -4.28543E+01 -4.54576E+01 -4.65296E+01 -6.58005E+01 -4.19076E+01 -3.06396E+01 -5.02799E+01
  -4.32119E+01 -1.46890E+01 -9.61456E-01 -3.94691E+00 -2.36617E+00 -7.71836E+00  9.79249E+00  8.68105E+00 -4.44417E+00  1.39052E+01
   2.89109E+00 -1.40772E+01 -3.11586E+01 -4.15863E+01 -3.38113E+01 -5.26966E+01 -7.60482E+01 -9.20058E+01 -1.07567E+02 -1.19759E+02
  -1.39700E+02 -1.48088E+02 -1.51783E+02 -1.72682E+02 -1.42464E+02 -8.95378E+01 -9.35801E+01 -8.35530E+01 -7.02240E+01 -6.53646E+01
  -5.82570E+01 -6.28115E+01 -3.75854E+01 -3.85455E+01 -3.72343E+01 -2.29375E+01 -2.13130E+01  6.56520E+00  2.43678E+01  3.99615E+01
   4.04240E+01  2.97591E+01  4.44886E+00 -3.64860E+01 -9.04470E+01 -1.56375E+02 -1.62032E+02 -1.32562E+02 -1.12588E+02 -1.29478E+02
  -1.36004E+02 -1.24223E+02 -1.37901E+02 -1.35202E+02 -1.24739E+02 -1.14986E+02 -1.10904E+02 -1.05552E+02 -1.15313E+02 -1.16781E+02
  -1.00572E+02 -1.02370E+02 -8.79317E+01 -8.80118E+01 -9.49970E+01 -8.53451E+01 -8.18095E+01 -7.92013E+01 -7.50783E+01 -7.51843E+01
  -7.55477E+01 -7.83640E+01 -8.50596E+01 -7.15016E+01 -6.77530E+01 -6.55903E+01 -5.81597E+01 -6.86313E+01 -6.94842E+01 -6.71866E+01
  -5.68201E+01 -3.77297E+01 -2.99416E+01 -3.70444E+01 -2.76758E+01 -1.27013E+01 -3.38228E+01 -4.20785E+01 -4.16200E+01 -5.17915E+01
  -5.47478E+01 -7.28645E+01 -8.43688E+01 -8.94292E+01 -1.10313E+02 -9.89712E+01 -8.17290E+01 -9.22178E+01 -8.94095E+01 -9.47191E+01
  -8.58795E+01 -7.15529E+01 -6.27467E+01 -5.69608E+01 -8.59846E+01 -6.98546E+01 -5.65793E+01 -5.68341E+01 -5.43823E+01 -7.69350E+01
  -5.87513E+01 -5.77213E+01 -6.58457E+01 -5.49499E+01 -5.79164E+01 -7.81068E+01 -8.30609E+01 -8.92654E+01 -9.71035E+01 -8.75443E+01
  -1.04519E+02 -8.11611E+01 -8.06706E+01 -7.42298E+01 -5.16294E+01 -5.55543E+01 -1.28603E+01 -7.49438E+00  1.97527E+01  1.58710E+01
  -2.31259E+01 -1.40687E+01 -4.06573E+01 -5.02688E+01 -4.11559E+01 -4.51584E+01 -4.67057E+01 -4.65833E+01 -5.15755E+01 -4.25270E+01
  -4.78660E+01 -6.59344E+01 -7.21703E+01 -9.19655E+01 -9.73428E+01 -9.46668E+01 -1.00228E+02 -1.29256E+02 -1.33790E+02 -1.18694E+02
  -1.40358E+02 -1.44675E+02 -1.14733E+02 -1.07967E+02 -1.05610E+02 -8.41927E+01 -8.93027E+01 -8.75422E+01 -8.77644E+01 -9.40937E+01
  -9.43408E+01 -1.01517E+02 -1.22863E+02 -1.30205E+02 -1.19174E+02 -1.33742E+02 -1.05684E+02 -7.03205E+01 -1.27071E+01  6.80715E+01
   1.29801E+02  1.57157E+02  1.13459E+02  1.14362E+02  1.02992E+02  7.00328E+01  7.22762E+01  5.52351E+01  3.90071E+01  4.27316E+01
   5.20417E+01  5.45198E+01  4.57292E+01  2.49948E+01  4.40384E+01  4.48920E+01  3.38141E+01  4.66115E+01  4.13011E+01  4.29689E+01
   3.54093E+01  4.16036E+01  4.22970E+01  2.37244E+01  1.68471E+01  1.63633E+01  2.36705E+01  1.18765E+01 -7.02553E+00  3.97082E+00
   6.67550E-01 -1.81602E+01 -2.96452E+00  5.23609E+00 -1.35265E+01 -2.69002E+01 -2.12804E+01 -2.67275E+01 -2.93987E+01 -3.88030E+01
  -3.90350E+01 -2.12570E+01 -3.26125E+01 -1.76157E+01 -1.27235E+01 -1.12838E+01 -1.79123E+01 -1.67570E+01  9.22715E+00 -4.07573E+00
   7.22009E+00  1.13535E+01  2.15817E+01  2.03878E+01  7.63019E+00  2.65832E+01  2.84022E+01  3.50581E+01  2.97741E+01  4.07483E+01
   5.76390E+01  7.06745E+01  8.13836E+01  7.05031E+01  6.44840E+01  5.20212E+01  4.91208E+01  3.50901E+01  2.26164E+01  2.41333E+01
  -4.02657E+00 -2.67457E+01 -2.41751E+01 -4.09780E+01 -7.00264E+01 -8.07831E+01 -6.78810E+01 -5.40335E+01 -5.60494E+01 -5.21894E+01
  -6.45693E+01 -7.04131E+01 -5.71106E+01 -4.92988E+01 -3.07952E+01 -2.73363E+01 -2.14477E+01 -1.48750E+01 -1.78656E+01 -9.89838E+00
  -3.04058E+01 -2.31078E+01 -5.46661E+00 -2.89046E+01 -2.77548E+01 -3.39413E+01 -2.86277E+01 -2.96966E+01 -4.48192E+01 -3.97182E+01
  -4.89100E+01 -4.29838E+01 -4.01131E+01 -2.13361E+01 -1.87117E+01 -2.60445E+01 -1.82779E+01 -2.33160E+01  8.34785E-01 -3.27569E+00
  -2.09191E+00  4.45417E+00  1.16139E+00  1.42248E+01  4.53665E+00  7.26095E+00  1.91262E+01  3.30873E+01  2.14589E+01  1.28977E+01
   4.41847E+01  4.89120E+01  5.46254E+01  7.67874E+01  7.38304E+01  7.55694E+01  9.24208E+01  9.97175E+01  9.82264E+01  1.13607E+02
   1.19034E+02  8.78700E+01  8.33296E+01  6.43360E+01  4.49532E+01  5.13532E+01  1.68029E+01  1.16073E+01  2.64594E+01  7.74278E+00
  -4.57044E+00 -1.19954E+01 -2.58755E+01 -3.31111E+01 -4.53182E+01 -3.25469E+01 -2.95857E+01 -4.94463E+01 -3.79555E+01 -5.84853E+01
  -5.21662E+01 -4.34644E+01 -5.72825E+01 -3.40415E+01 -5.15238E+01 -4.96919E+01 -3.04267E+01 -4.81566E+01 -5.08416E+01 -4.07886E+01
  -3.92175E+01 -4.25765E+01 -4.96860E+01 -4.93757E+01 -4.48967E+01 -5.25030E+01 -5.24448E+01 -5.09573E+01 -4.72700E+01 -4.89932E+01
  -6.18803E+01 -6.08114E+01 -4.76025E+01 -4.51171E+01 -5.29990E+01 -5.87213E+01 -5.20822E+01 -4.20975E+01 -5.81308E+01 -5.15581E+01
  -3.77521E+01 -4.26227E+01 -4.43908E+01 -3.85174E+01 -3.17682E+01 -5.58985E+01 -4.73012E+01 -3.56703E+01 -4.80441E+01 -4.19436E+01
  -3.92317E+01 -3.98563E+01 -4.45524E+01 -3.72481E+01 -4.82073E+01 -4.65458E+01 -2.89684E+01 -3.83185E+01 -3.62010E+01 -5.36158E+01
  -4.24123E+01 -1.86052E+01 -4.00029E+01 -4.41450E+01 -4.20975E+01 -2.71176E+01 -4.04996E+01 -4.73056E+01 -2.23930E+01 -3.84225E+01
  -3.05074E+01 -4.78936E+01 -6.11036E+01 -3.33634E+01 -3.40305E+01 -2.52511E+01 -2.35960E+01 -2.10412E+01 -3.62491E+01 -4.06598E+01
 NY points of the fit to the data follow
  -8.92239E+01 -9.32222E+01 -9.79074E+01 -1.01505E+02 -1.02621E+02 -1.00795E+02 -9.68305E+01 -9.24250E+01 -9.04039E+01 -9.31919E+01
  -9.99639E+01 -1.06572E+02 -1.10548E+02 -1.12602E+02 -1.13755E+02 -1.14266E+02 -1.17977E+02 -1.26140E+02 -1.35819E+02 -1.44892E+02
  -1.49013E+02 -1.44604E+02 -1.30238E+02 -1.07184E+02 -8.19123E+01 -6.37038E+01 -5.61127E+01 -5.13975E+01 -4.71000E+01 -4.38837E+01
  -4.02535E+01 -3.83088E+01 -3.88151E+01 -4.07654E+01 -4.31278E+01 -4.55337E+01 -5.11594E+01 -6.08633E+01 -7.45888E+01 -9.06129E+01
  -1.06530E+02 -1.17873E+02 -1.19456E+02 -1.08943E+02 -8.89468E+01 -6.72031E+01 -4.98963E+01 -3.65950E+01 -2.86834E+01 -2.56011E+01
  -2.65124E+01 -2.86546E+01 -3.25860E+01 -3.73003E+01 -4.14964E+01 -4.64747E+01 -5.09375E+01 -5.39293E+01 -5.64325E+01 -5.83397E+01
  -5.91072E+01 -5.73970E+01 -5.18890E+01 -4.31111E+01 -3.49928E+01 -2.98738E+01 -2.72244E+01 -2.98384E+01 -3.80270E+01 -4.79736E+01
  -5.72409E+01 -6.23772E+01 -6.05232E+01 -5.23171E+01 -4.24538E+01 -3.44230E+01 -2.66070E+01 -2.01141E+01 -1.70709E+01 -1.77550E+01
  -2.09809E+01 -2.70276E+01 -3.61731E+01 -4.64917E+01 -5.53723E+01 -6.01691E+01 -5.94299E+01 -5.35951E+01 -4.45554E+01 -3.61832E+01
  -2.88261E+01 -2.37667E+01 -2.00381E+01 -1.64808E+01 -1.29171E+01 -9.98909E+00 -8.19234E+00 -6.79730E+00 -5.89208E+00 -6.44944E+00
  -7.27884E+00 -1.01970E+01 -1.53865E+01 -2.35234E+01 -3.36872E+01 -4.56916E+01 -5.94297E+01 -7.48058E+01 -9.27704E+01 -1.11315E+02
  -1.28371E+02 -1.42832E+02 -1.46065E+02 -1.36134E+02 -1.17977E+02 -1.03344E+02 -9.42587E+01 -8.68457E+01 -8.02272E+01 -7.39152E+01
  -6.77312E+01 -6.16276E+01 -5.52591E+01 -4.83271E+01 -4.00483E+01 -3.02385E+01 -1.94125E+01  2.98966E-01  2.39446E+01  4.20885E+01
   4.80056E+01  3.59149E+01  4.22972E+00 -4.43358E+01 -9.85406E+01 -1.38479E+02 -1.47221E+02 -1.32305E+02 -1.23467E+02 -1.20831E+02
  -1.19856E+02 -1.20408E+02 -1.21883E+02 -1.23361E+02 -1.24039E+02 -1.23964E+02 -1.23101E+02 -1.21391E+02 -1.18719E+02 -1.15215E+02
  -1.11863E+02 -1.08579E+02 -1.05058E+02 -1.01352E+02 -9.77945E+01 -9.46616E+01 -9.20859E+01 -8.97636E+01 -8.76025E+01 -8.58412E+01
  -8.39023E+01 -8.16302E+01 -8.00786E+01 -8.04073E+01 -8.27344E+01 -8.55349E+01 -8.72354E+01 -8.68031E+01 -8.40310E+01 -7.92715E+01
  -7.29212E+01 -6.53594E+01 -5.70936E+01 -4.96743E+01 -4.54971E+01 -4.62334E+01 -4.87628E+01 -4.89025E+01 -4.82932E+01 -5.32219E+01
  -6.48442E+01 -7.78434E+01 -8.68913E+01 -9.11029E+01 -9.34129E+01 -9.57196E+01 -9.68374E+01 -9.65301E+01 -9.52192E+01 -9.39683E+01
  -9.13507E+01 -8.72988E+01 -8.27839E+01 -7.76891E+01 -7.26939E+01 -6.74123E+01 -6.27321E+01 -6.08025E+01 -6.10617E+01 -6.03972E+01
  -5.76878E+01 -5.69742E+01 -5.76981E+01 -5.77827E+01 -5.85599E+01 -6.15048E+01 -6.86789E+01 -7.81440E+01 -8.71775E+01 -9.51331E+01
  -1.03313E+02 -1.06456E+02 -1.02131E+02 -8.92760E+01 -6.79677E+01 -4.23739E+01 -1.77882E+01  1.41370E-01  7.72499E+00  3.08924E+00
  -9.18743E+00 -2.00251E+01 -3.03572E+01 -3.49841E+01 -3.51598E+01 -3.50663E+01 -3.58631E+01 -3.86462E+01 -4.41837E+01 -5.21758E+01
  -6.24585E+01 -7.45073E+01 -8.69574E+01 -9.92431E+01 -1.10484E+02 -1.19610E+02 -1.26505E+02 -1.30969E+02 -1.32226E+02 -1.30756E+02
  -1.27128E+02 -1.21122E+02 -1.13470E+02 -1.04896E+02 -9.63615E+01 -8.88366E+01 -8.45696E+01 -8.34858E+01 -8.68162E+01 -9.44375E+01
  -1.00581E+02 -1.02959E+02 -1.14092E+02 -1.29371E+02 -1.38922E+02 -1.35103E+02 -1.15041E+02 -7.74211E+01 -2.12196E+01  4.93731E+01
   1.08498E+02  1.22854E+02  9.95447E+01  8.24459E+01  7.31886E+01  6.63642E+01  6.09364E+01  5.64393E+01  5.24521E+01  4.89811E+01
   4.62691E+01  4.45811E+01  4.36046E+01  4.31283E+01  4.28725E+01  4.24554E+01  4.17474E+01  4.07971E+01  3.95975E+01  3.81229E+01
   3.65468E+01  3.48966E+01  3.28653E+01  3.06148E+01  2.82271E+01  2.59427E+01  2.36988E+01  2.12395E+01  1.84828E+01  1.54826E+01
   1.21462E+01  8.25130E+00  3.82103E+00 -8.18802E-01 -5.25126E+00 -8.84686E+00 -1.12445E+01 -1.21790E+01 -1.13772E+01 -9.21751E+00
  -6.27636E+00 -3.07403E+00  1.62256E-01  3.37551E+00  6.56264E+00  9.60754E+00  1.24512E+01  1.51815E+01  1.79969E+01  2.08455E+01
   2.37422E+01  2.66094E+01  2.92091E+01  3.13151E+01  3.30840E+01  3.46508E+01  3.58068E+01  3.63310E+01  3.60858E+01  3.49756E+01
   3.31266E+01  3.05017E+01  2.72882E+01  2.37955E+01  1.99190E+01  1.51331E+01  9.20411E+00  2.02384E+00 -6.68107E+00 -1.69009E+01
  -2.79447E+01 -3.86078E+01 -4.74831E+01 -5.37904E+01 -5.71969E+01 -5.75712E+01 -5.50730E+01 -5.06205E+01 -4.55347E+01 -4.07758E+01
  -3.71911E+01 -3.45875E+01 -3.23573E+01 -2.97809E+01 -2.65124E+01 -2.25643E+01 -1.84282E+01 -1.49325E+01 -1.24273E+01 -1.10572E+01
  -1.10492E+01 -1.19885E+01 -1.41369E+01 -1.76244E+01 -2.22558E+01 -2.73749E+01 -3.21620E+01 -3.59227E+01 -3.79053E+01 -3.80176E+01
  -3.65485E+01 -3.38792E+01 -3.03100E+01 -2.61550E+01 -2.17651E+01 -1.73668E+01 -1.31511E+01 -9.20603E+00 -5.47819E+00 -1.87123E+00
   1.79391E+00  5.38382E+00  9.07882E+00  1.28632E+01  1.68154E+01  2.11263E+01  2.60113E+01  3.15011E+01  3.75691E+01  4.42754E+01
   5.16604E+01  5.97028E+01  6.84904E+01  7.76667E+01  8.70942E+01  9.61776E+01  1.03730E+02  1.07999E+02  1.07915E+02  1.03169E+02
   9.40821E+01  8.19928E+01  6.89971E+01  5.70247E+01  4.69447E+01  3.83451E+01  3.03530E+01  2.19308E+01  1.26218E+01  2.31691E+00
  -8.49646E+00 -1.86716E+01 -2.75372E+01 -3.47095E+01 -4.01312E+01 -4.38647E+01 -4.65302E+01 -4.85089E+01 -4.98673E+01 -5.08290E+01
  -5.16752E+01 -5.24298E+01 -5.30273E+01 -5.32804E+01 -5.32413E+01 -5.30262E+01 -5.28816E+01 -5.27321E+01 -5.25023E+01 -5.22179E+01
  -5.20022E+01 -5.18539E+01 -5.14984E+01 -5.09947E+01 -5.06212E+01 -5.05333E+01 -5.03630E+01 -4.99760E+01 -4.96016E+01 -4.92051E+01
  -4.87129E+01 -4.81805E+01 -4.77621E+01 -4.75489E+01 -4.75241E+01 -4.74254E+01 -4.71201E+01 -4.66714E+01 -4.61259E+01 -4.55517E+01
  -4.50360E+01 -4.45922E+01 -4.41515E+01 -4.38433E+01 -4.36004E+01 -4.34120E+01 -4.33146E+01 -4.31440E+01 -4.28450E+01 -4.23880E+01
  -4.19183E+01 -4.15115E+01 -4.12811E+01 -4.09986E+01 -4.06686E+01 -4.02703E+01 -3.97357E+01 -3.91258E+01 -3.86688E+01 -3.82652E+01
  -3.78671E+01 -3.75163E+01 -3.72424E+01 -3.70464E+01 -3.70040E+01 -3.68820E+01 -3.65807E+01 -3.59748E+01 -3.52677E+01 -3.44833E+01
  -3.38323E+01 -3.34009E+01 -3.32746E+01 -3.33615E+01 -3.33183E+01 -3.29830E+01 -3.25023E+01 -3.20015E+01 -3.16333E+01 -3.13671E+01
 NY background values follow
    -6.057E+01   -6.050E+01   -6.043E+01   -6.036E+01   -6.030E+01   -6.023E+01   -6.016E+01   -6.009E+01   -6.002E+01   -5.996E+01
    -5.989E+01   -5.982E+01   -5.975E+01   -5.968E+01   -5.962E+01   -5.955E+01   -5.948E+01   -5.941E+01   -5.934E+01   -5.928E+01
    -5.921E+01   -5.914E+01   -5.907E+01   -5.900E+01   -5.893E+01   -5.887E+01   -5.880E+01   -5.873E+01   -5.866E+01   -5.859E+01
    -5.853E+01   -5.846E+01   -5.839E+01   -5.832E+01   -5.825E+01   -5.819E+01   -5.812E+01   -5.805E+01   -5.798E+01   -5.791E+01
    -5.785E+01   -5.778E+01   -5.771E+01   -5.764E+01   -5.757E+01   -5.751E+01   -5.744E+01   -5.737E+01   -5.730E+01   -5.723E+01
    -5.717E+01   -5.710E+01   -5.703E+01   -5.696E+01   -5.689E+01   -5.683E+01   -5.676E+01   -5.669E+01   -5.662E+01   -5.655E+01
    -5.648E+01   -5.642E+01   -5.635E+01   -5.628E+01   -5.621E+01   -5.614E+01   -5.608E+01   -5.601E+01   -5.594E+01   -5.587E+01
    -5.581E+01   -5.574E+01   -5.567E+01   -5.560E+01   -5.553E+01   -5.547E+01   -5.540E+01   -5.533E+01   -5.526E+01   -5.519E+01
    -5.513E+01   -5.506E+01   -5.499E+01   -5.492E+01   -5.485E+01   -5.479E+01   -5.472E+01   -5.465E+01   -5.458E+01   -5.452E+01
    -5.445E+01   -5.438E+01   -5.431E+01   -5.424E+01   -5.418E+01   -5.411E+01   -5.404E+01   -5.397E+01   -5.391E+01   -5.384E+01
    -5.377E+01   -5.370E+01   -5.363E+01   -5.357E+01   -5.350E+01   -5.343E+01   -5.336E+01   -5.330E+01   -5.323E+01   -5.316E+01
    -5.309E+01   -5.302E+01   -5.296E+01   -5.289E+01   -5.282E+01   -5.275E+01   -5.269E+01   -5.262E+01   -5.255E+01   -5.248E+01
    -5.242E+01   -5.235E+01   -5.228E+01   -5.221E+01   -5.215E+01   -5.208E+01   -5.201E+01   -5.194E+01   -5.188E+01   -5.181E+01
    -5.174E+01   -5.167E+01   -5.161E+01   -5.154E+01   -5.147E+01   -5.141E+01   -5.134E+01   -5.127E+01   -5.120E+01   -5.114E+01
    -5.107E+01   -5.100E+01   -5.093E+01   -5.087E+01   -5.080E+01   -5.073E+01   -5.066E+01   -5.060E+01   -5.053E+01   -5.046E+01
    -5.040E+01   -5.033E+01   -5.026E+01   -5.019E+01   -5.013E+01   -5.006E+01   -4.999E+01   -4.993E+01   -4.986E+01   -4.979E+01
    -4.973E+01   -4.966E+01   -4.959E+01   -4.952E+01   -4.946E+01   -4.939E+01   -4.932E+01   -4.926E+01   -4.919E+01   -4.912E+01
    -4.906E+01   -4.899E+01   -4.892E+01   -4.886E+01   -4.879E+01   -4.872E+01   -4.866E+01   -4.859E+01   -4.852E+01   -4.845E+01
    -4.839E+01   -4.832E+01   -4.825E+01   -4.819E+01   -4.812E+01   -4.806E+01   -4.799E+01   -4.792E+01   -4.786E+01   -4.779E+01
    -4.772E+01   -4.766E+01   -4.759E+01   -4.752E+01   -4.746E+01   -4.739E+01   -4.732E+01   -4.726E+01   -4.719E+01   -4.712E+01
    -4.706E+01   -4.699E+01   -4.692E+01   -4.686E+01   -4.679E+01   -4.673E+01   -4.666E+01   -4.659E+01   -4.653E+01   -4.646E+01
    -4.639E+01   -4.633E+01   -4.626E+01   -4.620E+01   -4.613E+01   -4.606E+01   -4.600E+01   -4.593E+01   -4.586E+01   -4.580E+01
    -4.573E+01   -4.567E+01   -4.560E+01   -4.553E+01   -4.547E+01   -4.540E+01   -4.534E+01   -4.527E+01   -4.520E+01   -4.514E+01
    -4.507E+01   -4.501E+01   -4.494E+01   -4.487E+01   -4.481E+01   -4.474E+01   -4.468E+01   -4.461E+01   -4.454E+01   -4.448E+01
    -4.441E+01   -4.435E+01   -4.428E+01   -4.422E+01   -4.415E+01   -4.408E+01   -4.402E+01   -4.395E+01   -4.389E+01   -4.382E+01
    -4.375E+01   -4.369E+01   -4.362E+01   -4.356E+01   -4.349E+01   -4.343E+01   -4.336E+01   -4.329E+01   -4.323E+01   -4.316E+01
    -4.310E+01   -4.303E+01   -4.297E+01   -4.290E+01   -4.284E+01   -4.277E+01   -4.270E+01   -4.264E+01   -4.257E+01   -4.251E+01
    -4.244E+01   -4.238E+01   -4.231E+01   -4.225E+01   -4.218E+01   -4.211E+01   -4.205E+01   -4.198E+01   -4.192E+01   -4.185E+01
    -4.179E+01   -4.172E+01   -4.166E+01   -4.159E+01   -4.152E+01   -4.146E+01   -4.139E+01   -4.133E+01   -4.126E+01   -4.120E+01
    -4.113E+01   -4.107E+01   -4.100E+01   -4.094E+01   -4.087E+01   -4.080E+01   -4.074E+01   -4.067E+01   -4.061E+01   -4.054E+01
    -4.048E+01   -4.041E+01   -4.035E+01   -4.028E+01   -4.022E+01   -4.015E+01   -4.009E+01   -4.002E+01   -3.995E+01   -3.989E+01
    -3.982E+01   -3.976E+01   -3.969E+01   -3.963E+01   -3.956E+01   -3.950E+01   -3.943E+01   -3.937E+01   -3.930E+01   -3.924E+01
    -3.917E+01   -3.911E+01   -3.904E+01   -3.897E+01   -3.891E+01   -3.884E+01   -3.878E+01   -3.871E+01   -3.865E+01   -3.858E+01
    -3.852E+01   -3.845E+01   -3.839E+01   -3.832E+01   -3.826E+01   -3.819E+01   -3.813E+01   -3.806E+01   -3.799E+01   -3.793E+01
    -3.786E+01   -3.780E+01   -3.773E+01   -3.767E+01   -3.760E+01   -3.754E+01   -3.747E+01   -3.741E+01   -3.734E+01   -3.728E+01
    -3.721E+01   -3.715E+01   -3.708E+01   -3.702E+01   -3.695E+01   -3.689E+01   -3.682E+01   -3.675E+01   -3.669E+01   -3.662E+01
    -3.656E+01   -3.649E+01   -3.643E+01   -3.636E+01   -3.630E+01   -3.623E+01   -3.617E+01   -3.610E+01   -3.604E+01   -3.597E+01
    -3.591E+01   -3.584E+01   -3.578E+01   -3.571E+01   -3.565E+01   -3.558E+01   -3.551E+01   -3.545E+01   -3.538E+01   -3.532E+01
    -3.525E+01   -3.519E+01   -3.512E+01   -3.506E+01   -3.499E+01   -3.493E+01   -3.486E+01   -3.480E+01   -3.473E+01   -3.467E+01
    -3.460E+01   -3.454E+01   -3.447E+01   -3.441E+01   -3.434E+01   -3.428E+01   -3.421E+01   -3.414E+01   -3.408E+01   -3.401E+01
    -3.395E+01   -3.388E+01   -3.382E+01   -3.375E+01   -3.369E+01   -3.362E+01   -3.356E+01   -3.349E+01   -3.343E+01   -3.336E+01
    -3.330E+01   -3.323E+01   -3.317E+01   -3.310E+01   -3.304E+01   -3.297E+01   -3.291E+01   -3.284E+01   -3.278E+01   -3.271E+01
    -3.264E+01   -3.258E+01   -3.251E+01   -3.245E+01   -3.238E+01   -3.232E+01   -3.225E+01   -3.219E+01   -3.212E+01   -3.206E+01
    -3.199E+01   -3.193E+01   -3.186E+01   -3.180E+01   -3.173E+01   -3.167E+01   -3.160E+01   -3.154E+01   -3.147E+01   -3.141E+01
    -3.134E+01   -3.128E+01   -3.121E+01   -3.114E+01   -3.108E+01   -3.101E+01   -3.095E+01   -3.088E+01   -3.082E+01   -3.075E+01
    -3.069E+01   -3.062E+01   -3.056E+01   -3.049E+01   -3.043E+01   -3.036E+01   -3.030E+01   -3.023E+01   -3.017E+01   -3.010E+01
    -3.004E+01   -2.997E+01   -2.991E+01   -2.984E+01   -2.978E+01   -2.971E+01   -2.964E+01   -2.958E+01   -2.951E+01   -2.945E+01
    -2.938E+01   -2.932E+01   -2.925E+01   -2.919E+01   -2.912E+01   -2.906E+01   -2.899E+01   -2.893E+01   -2.886E+01   -2.880E+01
 Mac      Conc. = 3.39E-04
  -8.38598E+01 -8.44417E+01 -8.50027E+01 -8.54478E+01 -8.57264E+01 -8.61478E+01 -8.70277E+01 -8.84161E+01 -9.02175E+01 -9.21943E+01
  -9.39200E+01 -9.50051E+01 -9.54738E+01 -9.57558E+01 -9.64870E+01 -9.76113E+01 -9.87843E+01 -9.95911E+01 -9.92387E+01 -9.69938E+01
  -9.25994E+01 -8.70201E+01 -8.18283E+01 -7.80042E+01 -7.52505E+01 -7.29260E+01 -7.12796E+01 -6.99210E+01 -6.81443E+01 -6.59114E+01
  -6.35391E+01 -6.13243E+01 -5.95467E+01 -5.84712E+01 -5.80440E+01 -5.78818E+01 -5.76558E+01 -5.71059E+01 -5.59401E+01 -5.40769E+01
  -5.19392E+01 -5.01791E+01 -4.92578E+01 -4.89628E+01 -4.85451E+01 -4.74961E+01 -4.60649E+01 -4.50135E+01 -4.47804E+01 -4.54300E+01
  -4.67322E+01 -4.82133E+01 -4.96939E+01 -5.10343E+01 -5.20900E+01 -5.26706E+01 -5.28130E+01 -5.25963E+01 -5.18291E+01 -5.05262E+01
  -4.87760E+01 -4.68919E+01 -4.54105E+01 -4.44614E+01 -4.40377E+01 -4.42249E+01 -4.51726E+01 -4.64224E+01 -4.74156E+01 -4.79281E+01
  -4.77625E+01 -4.68212E+01 -4.51384E+01 -4.26291E+01 -3.98348E+01 -3.76580E+01 -3.67426E+01 -3.67942E+01 -3.72980E+01 -3.81143E+01
  -3.90724E+01 -3.98355E+01 -4.03433E+01 -4.04593E+01 -4.03141E+01 -3.98133E+01 -3.89410E+01 -3.78520E+01 -3.68088E+01 -3.59179E+01
  -3.51213E+01 -3.43663E+01 -3.38280E+01 -3.34560E+01 -3.34160E+01 -3.39321E+01 -3.52544E+01 -3.73021E+01 -3.99317E+01 -4.28133E+01
  -4.55732E+01 -4.79946E+01 -5.02638E+01 -5.27006E+01 -5.60502E+01 -6.08487E+01 -6.69995E+01 -7.39417E+01 -8.10089E+01 -8.70746E+01
