 
 $NMID
 ID=''
 FMTDAT='(2E13.5)'
 TRAMP=   1.00000E+0
 VOLUME=   1.00000E+0
 $END
  -5.55479E+5   2.29842E+5
  -1.57254E+6   1.07212E+5
  -1.47063E+6   3.07087E+5
  -1.34526E+6   1.54824E+5
  -1.42719E+6   2.75027E+4
  -1.43886E+6   1.67312E+4
  -1.42101E+6  -2.26382E+4
  -1.44525E+6  -2.37333E+4
  -1.38260E+6  -1.57416E+4
  -1.33452E+6  -9.69628E+4
  -1.36301E+6  -1.51611E+5
  -1.36115E+6  -1.56686E+5
  -1.34465E+6  -1.78406E+5
  -1.33379E+6  -1.81107E+5
  -1.28953E+6  -1.92306E+5
  -1.26746E+6  -2.41078E+5
  -1.28103E+6  -2.72381E+5
  -1.26255E+6  -2.89922E+5
  -1.23935E+6  -3.23278E+5
  -1.22654E+6  -3.46913E+5
  -1.19398E+6  -3.76438E+5
  -1.17395E+6  -4.16443E+5
  -1.16900E+6  -4.36229E+5
  -1.14676E+6  -4.55411E+5
  -1.12104E+6  -4.83754E+5
  -1.10596E+6  -4.93379E+5
  -1.08638E+6  -5.07871E+5
  -1.07102E+6  -5.30409E+5
  -1.05391E+6  -5.41471E+5
  -1.03296E+6  -5.50680E+5
  -1.01621E+6  -5.73707E+5
  -9.96518E+5  -5.91106E+5
  -9.70846E+5  -6.09308E+5
  -9.51680E+5  -6.28032E+5
  -9.33015E+5  -6.42388E+5
  -9.10253E+5  -6.60325E+5
  -8.89674E+5  -6.80896E+5
  -8.68027E+5  -6.95526E+5
  -8.44874E+5  -7.07476E+5
  -8.26783E+5  -7.20092E+5
  -8.07030E+5  -7.28495E+5
  -7.86431E+5  -7.36759E+5
  -7.69258E+5  -7.43772E+5
  -7.51677E+5  -7.50306E+5
  -7.31991E+5  -7.56722E+5
  -7.15237E+5  -7.64520E+5
  -6.95728E+5  -7.72683E+5
  -6.72275E+5  -7.81479E+5
  -6.49329E+5  -7.87382E+5
  -6.28555E+5  -7.93364E+5
  -6.07241E+5  -8.01358E+5
  -5.85534E+5  -8.07924E+5
  -5.64376E+5  -8.13629E+5
  -5.43943E+5  -8.19172E+5
  -5.23280E+5  -8.22964E+5
  -5.01861E+5  -8.25630E+5
  -4.81040E+5  -8.27645E+5
  -4.61687E+5  -8.28520E+5
  -4.43650E+5  -8.28656E+5
  -4.24772E+5  -8.29475E+5
  -4.05649E+5  -8.29793E+5
  -3.86077E+5  -8.29953E+5
  -3.66020E+5  -8.30263E+5
  -3.45450E+5  -8.30091E+5
  -3.24953E+5  -8.27766E+5
  -3.05508E+5  -8.25127E+5
  -2.85583E+5  -8.22361E+5
  -2.65777E+5  -8.19039E+5
  -2.46978E+5  -8.16620E+5
  -2.28077E+5  -8.13651E+5
  -2.08950E+5  -8.09206E+5
  -1.91757E+5  -8.03735E+5
  -1.75526E+5  -7.98772E+5
  -1.57223E+5  -7.94674E+5
  -1.38974E+5  -7.88585E+5
  -1.21814E+5  -7.81884E+5
  -1.05229E+5  -7.76115E+5
  -8.77397E+4  -7.69409E+5
  -6.94388E+4  -7.61990E+5
  -5.16588E+4  -7.54085E+5
  -3.44597E+4  -7.45920E+5
  -1.81001E+4  -7.37948E+5
  -2.08513E+3  -7.29664E+5
   1.43759E+4  -7.21045E+5
   2.98175E+4  -7.11340E+5
   4.44289E+4  -7.01465E+5
   5.81496E+4  -6.91989E+5
   7.16869E+4  -6.82801E+5
   8.47847E+4  -6.72635E+5
   9.65637E+4  -6.62242E+5
   1.08316E+5  -6.52025E+5
   1.21051E+5  -6.42248E+5
   1.33570E+5  -6.31235E+5
   1.45724E+5  -6.19649E+5
   1.56990E+5  -6.08114E+5
   1.68025E+5  -5.96738E+5
   1.79469E+5  -5.85818E+5
   1.90497E+5  -5.74310E+5
   2.01166E+5  -5.62585E+5
   2.10579E+5  -5.50895E+5
   2.19844E+5  -5.39523E+5
   2.29260E+5  -5.27906E+5
   2.37735E+5  -5.15294E+5
   2.45292E+5  -5.02884E+5
   2.52100E+5  -4.91589E+5
   2.59049E+5  -4.80805E+5
   2.66689E+5  -4.69365E+5
   2.74081E+5  -4.56680E+5
   2.79612E+5  -4.44101E+5
   2.84990E+5  -4.32682E+5
   2.90749E+5  -4.21810E+5
   2.97353E+5  -4.09885E+5
   3.03264E+5  -3.97193E+5
   3.08492E+5  -3.84946E+5
   3.13238E+5  -3.73248E+5
   3.18667E+5  -3.61244E+5
   3.23270E+5  -3.49112E+5
   3.27344E+5  -3.36768E+5
   3.29784E+5  -3.24830E+5
   3.32762E+5  -3.13344E+5
   3.36028E+5  -3.02115E+5
   3.39365E+5  -2.90935E+5
   3.42005E+5  -2.79371E+5
   3.44439E+5  -2.67959E+5
   3.46442E+5  -2.56122E+5
   3.47911E+5  -2.44498E+5
   3.49228E+5  -2.33328E+5
   3.50732E+5  -2.21815E+5
   3.51471E+5  -2.11143E+5
   3.52786E+5  -1.99954E+5
   3.53756E+5  -1.88446E+5
   3.54271E+5  -1.76423E+5
   3.54098E+5  -1.65464E+5
   3.54162E+5  -1.55173E+5
   3.53734E+5  -1.44404E+5
   3.52900E+5  -1.33184E+5
   3.51689E+5  -1.23036E+5
   3.51240E+5  -1.12954E+5
   3.50444E+5  -1.02781E+5
   3.49201E+5  -9.21534E+4
   3.47000E+5  -8.20506E+4
   3.44897E+5  -7.25240E+4
   3.43011E+5  -6.35043E+4
   3.41526E+5  -5.40116E+4
   3.39121E+5  -4.46713E+4
   3.36261E+5  -3.56855E+4
   3.33195E+5  -2.69755E+4
   3.30251E+5  -1.85429E+4
   3.27154E+5  -1.01542E+4
   3.23737E+5  -2.40914E+3
   3.20386E+5   5.17482E+3
   3.16878E+5   1.27273E+4
   3.13297E+5   1.99112E+4
   3.09829E+5   2.70839E+4
   3.06142E+5   3.43638E+4
   3.01881E+5   4.10913E+4
   2.98054E+5   4.74002E+4
   2.94261E+5   5.35517E+4
   2.90341E+5   5.99860E+4
   2.85640E+5   6.57943E+4
   2.81450E+5   7.14872E+4
   2.77099E+5   7.67522E+4
   2.72547E+5   8.24355E+4
   2.67984E+5   8.75674E+4
   2.63472E+5   9.16564E+4
   2.59008E+5   9.63990E+4
   2.54929E+5   1.00984E+5
   2.50480E+5   1.05434E+5
   2.45582E+5   1.09407E+5
   2.40846E+5   1.13103E+5
   2.36328E+5   1.16826E+5
   2.31604E+5   1.20559E+5
   2.27389E+5   1.24000E+5
   2.22431E+5   1.27259E+5
   2.17378E+5   1.30308E+5
   2.12706E+5   1.33312E+5
   2.08052E+5   1.36849E+5
   2.03111E+5   1.39797E+5
   1.98031E+5   1.42014E+5
   1.93115E+5   1.44211E+5
   1.88787E+5   1.46518E+5
   1.83886E+5   1.49432E+5
   1.79026E+5   1.51560E+5
   1.74167E+5   1.53599E+5
   1.69554E+5   1.55129E+5
   1.64723E+5   1.56615E+5
   1.59706E+5   1.58297E+5
   1.54936E+5   1.59466E+5
   1.50866E+5   1.60732E+5
   1.46493E+5   1.61840E+5
   1.41951E+5   1.63539E+5
   1.36875E+5   1.64585E+5
   1.31928E+5   1.65277E+5
   1.27361E+5   1.65735E+5
   1.22808E+5   1.66457E+5
   1.18550E+5   1.67248E+5
   1.13642E+5   1.67849E+5
   1.09366E+5   1.68178E+5
   1.04859E+5   1.68711E+5
   1.00223E+5   1.69167E+5
   9.55904E+4   1.69279E+5
   9.10201E+4   1.68866E+5
   8.69899E+4   1.68676E+5
   8.28531E+4   1.68690E+5
   7.86471E+4   1.68782E+5
   7.44856E+4   1.68549E+5
   7.03014E+4   1.67807E+5
   6.63290E+4   1.67386E+5
   6.21801E+4   1.66681E+5
   5.78553E+4   1.65893E+5
   5.39386E+4   1.65484E+5
   4.99823E+4   1.64267E+5
   4.68976E+4   1.63687E+5
   4.30888E+4   1.62915E+5
   3.89033E+4   1.61869E+5
   3.53975E+4   1.60216E+5
   3.21640E+4   1.59133E+5
   2.88222E+4   1.57721E+5
   2.55038E+4   1.56724E+5
   2.23934E+4   1.55244E+5
   1.92783E+4   1.53795E+5
   1.64110E+4   1.52494E+5
   1.33760E+4   1.51053E+5
   1.04577E+4   1.49573E+5
   7.73760E+3   1.47448E+5
   5.19125E+3   1.45657E+5
   2.68275E+3   1.44097E+5
   2.90235E+2   1.42534E+5
  -2.24471E+3   1.40993E+5
  -4.88849E+3   1.39051E+5
  -7.12704E+3   1.36818E+5
  -9.02035E+3   1.34945E+5
  -1.11401E+4   1.33562E+5
  -1.32240E+4   1.31483E+5
  -1.52380E+4   1.29663E+5
  -1.70739E+4   1.27626E+5
  -1.87221E+4   1.25873E+5
  -2.06323E+4   1.23936E+5
  -2.20362E+4   1.21903E+5
  -2.33603E+4   1.19865E+5
  -2.45786E+4   1.17977E+5
  -2.62093E+4   1.16186E+5
  -2.77144E+4   1.14193E+5
  -2.91779E+4   1.12181E+5
  -3.02558E+4   1.09897E+5
  -3.12711E+4   1.08442E+5
  -3.26795E+4   1.06307E+5
  -3.36458E+4   1.04153E+5
  -3.43766E+4   1.02060E+5
  -3.53665E+4   1.00249E+5
  -3.60987E+4   9.84407E+4
  -3.72786E+4   9.63049E+4
  -3.80464E+4   9.42145E+4
  -3.85998E+4   9.22645E+4
  -3.91238E+4   9.02714E+4
  -3.99898E+4   8.83786E+4
  -4.06288E+4   8.65507E+4
  -4.09184E+4   8.46147E+4
  -4.17487E+4   8.26761E+4
  -4.25233E+4   8.06892E+4
  -4.30342E+4   7.85204E+4
  -4.34600E+4   7.65057E+4
  -4.37851E+4   7.43050E+4
  -4.38929E+4   7.25655E+4
  -4.43404E+4   7.09076E+4
  -4.49359E+4   6.90281E+4
  -4.51619E+4   6.70219E+4
  -4.53720E+4   6.51558E+4
  -4.53853E+4   6.33637E+4
  -4.57321E+4   6.15058E+4
  -4.57843E+4   5.95928E+4
  -4.59732E+4   5.77178E+4
  -4.59289E+4   5.57743E+4
  -4.59249E+4   5.41860E+4
  -4.63650E+4   5.26023E+4
  -4.63589E+4   5.04975E+4
  -4.62069E+4   4.88472E+4
  -4.58918E+4   4.72162E+4
  -4.58568E+4   4.55394E+4
  -4.59170E+4   4.42183E+4
  -4.58878E+4   4.22296E+4
  -4.55258E+4   4.08578E+4
  -4.53427E+4   3.90709E+4
  -4.52065E+4   3.78039E+4
  -4.51537E+4   3.59480E+4
  -4.46767E+4   3.42931E+4
  -4.42868E+4   3.29795E+4
  -4.38048E+4   3.18288E+4
  -4.40267E+4   3.05191E+4
  -4.36126E+4   2.91460E+4
  -4.32653E+4   2.78776E+4
  -4.27676E+4   2.63680E+4
  -4.24412E+4   2.55205E+4
  -4.20501E+4   2.38494E+4
  -4.19198E+4   2.28169E+4
  -4.11342E+4   2.14096E+4
  -4.09488E+4   2.05040E+4
  -4.04520E+4   1.92389E+4
  -4.01558E+4   1.76724E+4
  -3.96327E+4   1.68130E+4
  -3.89125E+4   1.58111E+4
  -3.88010E+4   1.48452E+4
  -3.84926E+4   1.38102E+4
  -3.79540E+4   1.26278E+4
  -3.73151E+4   1.16047E+4
  -3.68062E+4   1.08746E+4
  -3.62423E+4   9.86924E+3
  -3.57642E+4   9.18229E+3
  -3.51758E+4   8.12344E+3
  -3.50100E+4   7.49563E+3
  -3.43349E+4   6.79093E+3
  -3.39739E+4   5.81151E+3
  -3.34147E+4   4.86157E+3
  -3.29612E+4   4.38778E+3
  -3.21134E+4   3.37242E+3
  -3.18539E+4   2.50183E+3
  -3.14973E+4   1.83337E+3
  -3.08723E+4   1.11457E+3
  -2.99697E+4   5.60289E+2
  -2.95161E+4  -7.36442E+1
  -2.92554E+4  -7.18993E+2
  -2.88523E+4  -1.18973E+3
  -2.83900E+4  -2.08623E+3
  -2.76858E+4  -2.33382E+3
  -2.71586E+4  -2.90837E+3
  -2.67760E+4  -3.68211E+3
  -2.64630E+4  -4.30700E+3
  -2.58672E+4  -4.85895E+3
  -2.51575E+4  -5.36157E+3
  -2.46029E+4  -5.65433E+3
  -2.44393E+4  -6.02404E+3
  -2.38260E+4  -6.61118E+3
  -2.33649E+4  -6.78829E+3
  -2.30202E+4  -7.26316E+3
  -2.28158E+4  -7.43730E+3
  -2.21631E+4  -8.17824E+3
  -2.17058E+4  -8.52659E+3
  -2.11152E+4  -8.64340E+3
  -2.07733E+4  -8.86781E+3
  -2.02301E+4  -9.17330E+3
  -2.02039E+4  -9.17773E+3
  -1.94553E+4  -9.76114E+3
  -1.92238E+4  -9.69885E+3
  -1.88189E+4  -1.02010E+4
  -1.83428E+4  -1.03427E+4
  -1.79387E+4  -1.06797E+4
  -1.75633E+4  -1.06886E+4
  -1.71642E+4  -1.08369E+4
  -1.66983E+4  -1.11251E+4
  -1.65932E+4  -1.11007E+4
  -1.61537E+4  -1.17740E+4
  -1.55940E+4  -1.14653E+4
  -1.49664E+4  -1.12969E+4
  -1.50606E+4  -1.16188E+4
  -1.45428E+4  -1.17273E+4
  -1.41227E+4  -1.18022E+4
  -1.36475E+4  -1.18547E+4
  -1.36220E+4  -1.16096E+4
  -1.32534E+4  -1.19397E+4
  -1.27582E+4  -1.18885E+4
  -1.22040E+4  -1.19865E+4
  -1.17769E+4  -1.17230E+4
  -1.16334E+4  -1.17015E+4
  -1.14468E+4  -1.18295E+4
  -1.11836E+4  -1.17614E+4
  -1.07553E+4  -1.16913E+4
  -1.03179E+4  -1.19502E+4
