 LCModel (Version 6.3-1N) Copyright: S.W. Provencher.          Ref.: Magn. Reson. Med. 30:672-679 (1993).                
 Slice_N1@10_15  28-Feb-2025 11:36:38
 27 lines in following concentration table = NCONC+1
    Conc.  %SD /Cr+PCr  Metabolite                                         
 3.00E-04   4% 3.2E-04 Mac                                                 
    3.148  39%   3.388 Cr                                                  
    4.285  28%   4.612 PCr                                                 
   10.649  10%  11.460 Ins                                                 
    9.701   8%  10.440 NAA                                                 
    6.382  14%   6.868 Tau                                                 
    0.000 999%   0.000 PCho                                                
    2.428   9%   2.613 GPC                                                 
   10.276  11%  11.059 Glu                                                 
    5.368  16%   5.777 Gln                                                 
    3.025  23%   3.255 Ala                                                 
    4.891  25%   5.263 Asc                                                 
    1.320  82%   1.420 Asp                                                 
    0.237 237%   0.255 GABA                                                
    0.671 114%   0.722 Glc                                                 
    1.014  51%   1.091 GSH                                                 
    0.000 999%   0.000 Lac                                                 
    2.007  29%   2.160 NAAG                                                
    0.000 999%   0.000 PE                                                  
    2.428   9%   2.613 GPC+PCho                                            
   11.708   7%  12.600 NAA+NAAG                                            
   15.644   9%  16.836 Glu+Gln                                             
    7.434   9%   8.000 Cr+PCr                                              
   11.708   7%  12.600 NAA+NAAG                                            
    7.434   9%   8.000 Cr+PCr                                              
   15.644   9%  16.836 Glu+Gln                                             
   6 lines in following misc. output table
  FWHM = 0.024 ppm    S/N =   4                                            
  Data shift = 0.024 ppm                                                   
  Ph:-159 deg       0.0 deg/ppm                                            
  alphaB,S = 1.6E-01,   6.0E+00                                            
   19 spline knots.   Ns = 5(1)                                            
  ( 3) 2 infls.   ( 2) 1 extrs.                                            
  480 points on ppm-axis = NY
      4.100000     4.091866     4.083733     4.075600     4.067466     4.059333     4.051199     4.043066     4.034933     4.026799
      4.018666     4.010532     4.002399     3.994265     3.986132     3.977998     3.969864     3.961731     3.953597     3.945463
      3.937330     3.929196     3.921062     3.912929     3.904795     3.896662     3.888528     3.880394     3.872261     3.864127
      3.855993     3.847860     3.839726     3.831592     3.823459     3.815325     3.807191     3.799058     3.790924     3.782790
      3.774657     3.766523     3.758389     3.750256     3.742122     3.733989     3.725855     3.717721     3.709588     3.701454
      3.693320     3.685187     3.677053     3.668919     3.660786     3.652652     3.644518     3.636385     3.628251     3.620117
      3.611984     3.603850     3.595716     3.587583     3.579449     3.571316     3.563182     3.555048     3.546915     3.538781
      3.530647     3.522514     3.514380     3.506246     3.498113     3.489979     3.481845     3.473712     3.465578     3.457444
      3.449311     3.441177     3.433043     3.424910     3.416776     3.408643     3.400509     3.392375     3.384242     3.376108
      3.367974     3.359841     3.351707     3.343573     3.335440     3.327306     3.319172     3.311039     3.302905     3.294771
      3.286638     3.278504     3.270370     3.262237     3.254103     3.245970     3.237836     3.229702     3.221569     3.213435
      3.205301     3.197168     3.189034     3.180900     3.172767     3.164633     3.156499     3.148366     3.140232     3.132098
      3.123965     3.115831     3.107697     3.099564     3.091430     3.083297     3.075163     3.067029     3.058896     3.050762
      3.042628     3.034495     3.026361     3.018227     3.010094     3.001960     2.993826     2.985693     2.977559     2.969425
      2.961292     2.953158     2.945024     2.936891     2.928757     2.920624     2.912490     2.904356     2.896223     2.888089
      2.879955     2.871822     2.863688     2.855554     2.847421     2.839287     2.831153     2.823020     2.814886     2.806752
      2.798619     2.790485     2.782351     2.774218     2.766084     2.757951     2.749817     2.741683     2.733550     2.725416
      2.717282     2.709149     2.701015     2.692881     2.684748     2.676614     2.668480     2.660347     2.652213     2.644079
      2.635946     2.627812     2.619678     2.611545     2.603411     2.595278     2.587144     2.579010     2.570877     2.562743
      2.554609     2.546476     2.538342     2.530208     2.522075     2.513941     2.505807     2.497674     2.489540     2.481406
      2.473273     2.465139     2.457006     2.448872     2.440738     2.432605     2.424471     2.416337     2.408204     2.400070
      2.391936     2.383803     2.375669     2.367535     2.359402     2.351268     2.343134     2.335001     2.326867     2.318733
      2.310600     2.302466     2.294333     2.286199     2.278065     2.269932     2.261798     2.253664     2.245531     2.237397
      2.229263     2.221130     2.212996     2.204862     2.196729     2.188595     2.180461     2.172328     2.164194     2.156060
      2.147927     2.139793     2.131660     2.123526     2.115392     2.107259     2.099125     2.090991     2.082858     2.074724
      2.066590     2.058457     2.050323     2.042189     2.034056     2.025922     2.017788     2.009655     2.001521     1.993387
      1.985254     1.977120     1.968987     1.960853     1.952719     1.944586     1.936452     1.928318     1.920185     1.912051
      1.903917     1.895784     1.887650     1.879516     1.871383     1.863249     1.855115     1.846982     1.838848     1.830714
      1.822581     1.814447     1.806314     1.798180     1.790046     1.781913     1.773779     1.765645     1.757512     1.749378
      1.741244     1.733111     1.724977     1.716843     1.708710     1.700576     1.692442     1.684309     1.676175     1.668041
      1.659908     1.651774     1.643641     1.635507     1.627373     1.619240     1.611106     1.602972     1.594839     1.586705
      1.578571     1.570438     1.562304     1.554170     1.546037     1.537903     1.529769     1.521636     1.513502     1.505368
      1.497235     1.489101     1.480968     1.472834     1.464700     1.456567     1.448433     1.440299     1.432166     1.424032
      1.415898     1.407765     1.399631     1.391497     1.383364     1.375230     1.367096     1.358963     1.350829     1.342695
      1.334562     1.326428     1.318295     1.310161     1.302027     1.293894     1.285760     1.277626     1.269493     1.261359
      1.253225     1.245092     1.236958     1.228824     1.220691     1.212557     1.204423     1.196290     1.188156     1.180022
      1.171889     1.163755     1.155622     1.147488     1.139354     1.131221     1.123087     1.114953     1.106820     1.098686
      1.090552     1.082419     1.074285     1.066151     1.058018     1.049884     1.041750     1.033617     1.025483     1.017349
      1.009216     1.001082     0.992949     0.984815     0.976681     0.968548     0.960414     0.952280     0.944147     0.936013
      0.927879     0.919746     0.911612     0.903478     0.895345     0.887211     0.879077     0.870944     0.862810     0.854676
      0.846543     0.838409     0.830276     0.822142     0.814008     0.805875     0.797741     0.789607     0.781474     0.773340
      0.765206     0.757073     0.748939     0.740805     0.732672     0.724538     0.716404     0.708271     0.700137     0.692003
      0.683870     0.675736     0.667603     0.659469     0.651335     0.643202     0.635068     0.626934     0.618801     0.610667
      0.602533     0.594400     0.586266     0.578132     0.569999     0.561865     0.553731     0.545598     0.537464     0.529330
      0.521197     0.513063     0.504930     0.496796     0.488662     0.480529     0.472395     0.464261     0.456128     0.447994
      0.439861     0.431727     0.423593     0.415460     0.407326     0.399192     0.391059     0.382925     0.374792     0.366658
      0.358524     0.350391     0.342257     0.334124     0.325990     0.317856     0.309723     0.301589     0.293455     0.285322
      0.277188     0.269055     0.260921     0.252787     0.244654     0.236520     0.228386     0.220253     0.212119     0.203986
 NY phased data points follow
   5.01801E+01  4.11227E+01  5.27634E+01  5.72943E+01  5.16113E+01  4.94967E+01  6.84995E+01  5.53011E+01  5.14456E+01  5.77685E+01
   3.83498E+01  4.21958E+01  3.55497E+01  3.49753E+01  3.64844E+01  4.87894E+01  4.11916E+01  2.80079E+00  5.38155E+00 -1.49816E+01
  -2.17238E+01  2.54901E+01  2.33705E+01  4.88174E+01  1.00519E+02  7.99330E+01  9.34266E+01  9.10273E+01  8.14676E+01  9.10108E+01
   6.52553E+01  8.03628E+01  6.59708E+01  5.76786E+01  6.77065E+01  6.47041E+01  6.41966E+01  2.20850E+01 -5.11221E-01 -1.42406E+01
  -3.18587E+01 -2.85057E+01 -1.51453E+01 -1.25682E+01  1.19698E+01  4.19903E+01  5.13821E+01  6.51386E+01  5.99763E+01  5.17131E+01
   3.54590E+01  3.85337E+01  2.76425E+01 -3.11067E+00 -6.19792E+00 -5.40216E+00 -5.71567E-01 -1.25388E+01 -3.54316E+01 -2.31475E+01
  -8.01175E+00 -2.44760E+01  2.17759E+01  2.72834E+01  2.13410E+01  5.65391E+01  1.56851E+01  3.85599E+00 -2.47712E+01 -2.93698E+01
  -1.93704E+01 -1.51981E+01  1.34639E+01  7.16434E+00  5.04981E+01  5.25343E+01  4.51827E+01  6.15453E+01  6.29166E+01  4.94129E+01
   3.00513E+01  3.39540E+01  1.31521E+01  1.43666E+01 -1.12106E+01 -1.57087E+01 -3.48994E+00  9.13696E+00  5.88451E+01  4.45218E+01
   4.41653E+01  5.04652E+01  6.15769E+01  7.86331E+01  6.27100E+01  9.52210E+01  9.68439E+01  7.45488E+01  8.87445E+01  6.91340E+01
   6.63564E+01  5.72509E+01  2.63516E+01  2.81916E+01  1.11465E+01 -1.69045E+00  1.25861E+00 -5.70768E-01 -5.22887E+01 -1.42592E+02
  -1.79073E+02 -1.44184E+02 -9.61486E+01 -7.84532E+01 -6.31582E+01 -5.93226E+01 -4.00497E+01 -3.31632E+01 -2.33822E+01 -1.05941E+01
  -1.50594E+01  3.89915E+00  9.08460E-01  2.43379E+01  3.11665E+01  4.06104E+01  6.11215E+01  7.23309E+01  1.13567E+02  1.25797E+02
   1.41543E+02  8.33174E+01 -2.24600E+01 -8.98388E+01 -9.32665E+01 -7.54980E+01 -9.27037E+01 -5.10289E+01 -5.55951E+01 -8.51271E+01
  -4.56548E+01 -5.45685E+01 -6.31885E+01 -3.68626E+01 -7.48751E+01 -6.37363E+01 -3.48097E+01 -6.17187E+01 -3.83069E+01 -5.58571E+01
  -4.99132E+01 -3.07106E+01 -6.20991E+01 -3.45228E+01 -2.26057E+01 -3.71765E+01 -2.13303E+01 -2.46743E+01 -3.96256E+01 -1.63388E+01
  -1.39974E+01 -2.13985E+01 -2.35152E+01 -3.36054E+01 -4.23825E+01 -3.34396E+01 -3.80349E+00 -2.82505E+01 -2.63461E+01 -1.87480E+01
  -1.44249E+01  1.17256E+01  2.19061E+01  3.75696E+01  3.53707E+00 -6.61927E+00  8.61082E+00  2.92707E+01  6.17644E+00 -4.23700E+01
  -2.34607E+01 -3.87176E+01 -5.37152E+01 -6.08031E+01 -4.25661E+01 -3.00539E+01 -4.34147E+01 -2.56185E+01 -3.61014E+01 -2.27303E+01
  -3.49031E+01 -5.14560E+01 -2.56592E+01 -2.33777E+01 -8.14276E+00 -1.17344E+01 -2.46629E+01 -2.28165E+01 -1.79368E+01 -1.73730E+01
  -2.17386E+01 -3.19851E+00  1.25155E+01  1.16824E+01  1.95958E+00 -1.13806E+00 -7.81319E-01 -2.19475E+01 -4.28577E+01 -4.47261E+01
  -3.35908E+01 -2.90265E+01 -2.99043E+01 -3.39499E+00  3.37191E+01  5.41084E+01  6.63794E+01  6.04216E+01  5.51663E+01  4.73776E+01
  -6.04389E+00 -1.72538E+01  1.04515E+01 -7.10377E+00  2.34640E+00  2.02980E+00 -2.35117E+01 -9.63801E+00 -3.44306E+00 -1.62558E+01
  -2.16941E+01 -2.03912E+01 -3.11250E+01 -4.35829E+01 -5.75323E+01 -6.22291E+01 -7.42593E+01 -8.81951E+01 -7.19630E+01 -8.42936E+01
  -8.49233E+01 -6.00144E+01 -3.54266E+01 -2.93350E+01 -2.88599E+01 -2.11346E+00 -1.21665E+01 -2.02973E+01 -2.54956E+01 -3.47814E+01
  -3.51003E+01 -4.54149E+01 -4.82359E+01 -5.46875E+01 -5.31734E+01 -7.04363E+01 -7.25652E+01  3.97884E+01  1.74149E+02  1.73764E+02
   1.57776E+02  1.65353E+02  1.32759E+02  1.16936E+02  9.34902E+01  8.38398E+01  7.66682E+01  8.49338E+01  7.52116E+01  5.71005E+01
   8.37578E+01  7.59709E+01  7.10038E+01  6.56824E+01  7.75633E+01  7.67922E+01  6.70854E+01  6.26705E+01  5.08860E+01  8.12832E+01
   6.26982E+01  6.09402E+01  6.42748E+01  5.50624E+01  7.37766E+01  5.54741E+01  4.80438E+01  4.93791E+01  5.34237E+01  3.96434E+01
   3.45916E+01  4.12941E+01  2.15413E+01  2.84905E+01  3.39953E+01  1.90528E+01  2.68391E+01  1.35752E+01  4.37767E+00  3.40462E+01
   1.28886E+01  2.06982E+01  4.09048E+01  1.96296E+01  3.40557E+01  5.23364E+01  5.21660E+01  3.77227E+01  5.93621E+01  6.43809E+01
   5.42405E+01  5.98521E+01  5.25100E+01  6.89930E+01  5.31062E+01  3.63016E+01  3.42203E+01  4.53014E+01  5.42706E+01  2.21901E+01
   2.79723E+01  8.27961E+00 -2.28553E+01  4.28953E+00 -1.99655E+00 -7.05244E+00  3.14127E+00 -2.55873E+01 -3.43113E+01 -1.78281E+01
  -3.28965E+01 -6.69769E+01 -6.71362E+01 -6.88246E+01 -7.51133E+01 -6.28084E+01 -6.50396E+01 -5.40859E+01 -3.78995E+01 -1.33818E+01
  -3.69743E-01 -4.60882E+00  8.75320E+00  6.40648E-01 -5.55356E-01  2.92833E+01  5.28908E+01  5.25560E+01  4.59867E+01  5.14785E+01
   5.40960E+01  4.64473E+01  4.60762E+01  3.91701E+01  4.81300E+01  5.09410E+01  3.21045E+01  3.59152E+01  1.00300E+01  1.46990E+01
   1.72407E+01  1.78974E+01  3.46306E+01  7.10027E-01  2.12080E+01  2.00238E+01  1.57175E+01  3.04232E+01  3.21828E+01  4.51974E+01
   1.58240E+01  3.58492E+01  5.70950E+01  4.49543E+01  5.47707E+01  6.37413E+01  6.84551E+01  6.97050E+01  7.59170E+01  9.86321E+01
   1.04836E+02  9.32928E+01  1.10688E+02  1.05381E+02  1.24188E+02  1.51090E+02  1.42175E+02  1.54730E+02  1.60000E+02  1.66276E+02
   1.68054E+02  1.53350E+02  1.24526E+02  9.51553E+01  8.74730E+01  9.41007E+01  8.56592E+01  7.37901E+01  7.15394E+01  5.28731E+01
   3.39741E+01  3.10780E+01  2.83598E+01  1.04911E+01  2.05940E+01  8.29609E+00 -4.62199E+00  1.13840E+01 -7.29676E+00 -3.30297E+00
   6.09405E+00  2.34649E+00  1.33556E+00  7.87236E+00 -1.66577E+00 -1.13961E+01  3.48354E+00  1.17765E+01  9.87406E+00  2.40115E+00
   1.62329E+01  7.78870E-02 -7.10238E+00  4.59897E+00 -3.04105E+00 -7.43363E+00 -7.38333E+00  1.14411E+01  1.04739E+01  7.29213E+00
  -2.19578E+00 -8.83818E+00  2.19429E+00  3.71116E+00 -4.62732E+00 -5.89568E+00 -1.15303E+01 -1.62215E+01  1.33568E+01  7.10223E+00
  -4.68692E+00  4.70410E+00  9.62308E+00  4.87027E+00  1.14953E+01  1.73534E+01 -5.57868E+00  3.91139E+00  1.38353E+01  1.48541E+01
  -2.87294E-01  1.20371E+01  2.59233E+01  8.58472E-01 -6.81699E-01 -2.11839E+00  2.64883E+00 -5.31619E+00  1.08508E+01  1.58859E+01
   9.29149E+00  3.64078E+00 -1.85979E+01  4.79229E+00  5.00625E+00  8.70699E+00  7.55921E+00  1.19392E+00  1.90412E+01  1.79907E+01
   2.05893E+01  4.85026E+00 -5.96356E+00 -6.10607E+00 -1.17459E+01  8.86746E-01  8.82042E-01 -1.25522E+01 -1.51563E+01 -2.40320E+01
 NY points of the fit to the data follow
   3.78648E+01  2.47363E+01  1.32811E+01  1.26160E+01  3.11960E+01  6.01855E+01  7.51271E+01  6.88025E+01  5.49768E+01  4.32054E+01
   3.45839E+01  3.14639E+01  3.34529E+01  3.54967E+01  3.38922E+01  2.83400E+01  1.91763E+01  5.89156E+00 -9.83996E+00 -2.64890E+01
  -2.68284E+01 -2.49655E+00  2.66517E+01  5.00834E+01  6.97214E+01  7.90169E+01  7.89123E+01  8.21430E+01  8.28614E+01  8.01652E+01
   7.81613E+01  7.62554E+01  7.33728E+01  6.87549E+01  6.20008E+01  5.40181E+01  4.46807E+01  3.03663E+01  1.01029E+01 -1.38466E+01
  -3.13657E+01 -3.08150E+01 -1.52842E+01  1.80327E+00  1.84681E+01  3.85333E+01  5.43428E+01  6.35194E+01  6.89122E+01  7.06783E+01
   6.59566E+01  5.58572E+01  4.02781E+01  2.30057E+01  1.02686E+01  5.05812E+00  4.84904E+00 -5.62040E+00 -2.18339E+01 -1.73548E+01
  -1.42500E+00  6.17872E+00  2.26233E+01  5.02781E+01  6.39581E+01  6.29234E+01  5.09255E+01  1.93355E+01 -2.09204E+01 -3.89679E+01
  -2.86144E+01 -1.69746E+01 -7.10432E+00  1.69716E+01  4.20770E+01  5.32215E+01  5.94289E+01  6.38742E+01  6.46890E+01  6.28274E+01
   5.42632E+01  3.97229E+01  2.11211E+01  3.64260E+00 -3.94369E+00  4.05526E-01  1.27963E+01  2.85590E+01  4.27934E+01  5.06453E+01
   5.68294E+01  6.18369E+01  6.58583E+01  7.04719E+01  7.55520E+01  7.98012E+01  8.22722E+01  8.15254E+01  7.63506E+01  7.27223E+01
   7.10220E+01  6.16696E+01  4.47824E+01  3.03501E+01  1.59702E+01  5.95422E+00  5.71900E+00 -1.95671E+00 -5.44433E+01 -1.34737E+02
  -1.66071E+02 -1.37089E+02 -1.01377E+02 -7.95849E+01 -5.50782E+01 -4.13896E+01 -3.44595E+01 -2.74469E+01 -2.06658E+01 -1.42053E+01
  -7.68992E+00 -6.08000E-01  7.11369E+00  1.61090E+01  2.69844E+01  3.95000E+01  5.27567E+01  6.95673E+01  9.16759E+01  1.10738E+02
   1.16990E+02  7.00005E+01 -2.75090E+01 -9.29348E+01 -9.54325E+01 -8.61767E+01 -8.19591E+01 -6.73652E+01 -6.19649E+01 -6.16677E+01
  -6.17826E+01 -6.19332E+01 -6.21790E+01 -6.22060E+01 -6.16889E+01 -6.02974E+01 -5.78326E+01 -5.44876E+01 -5.10797E+01 -4.80876E+01
  -4.55000E+01 -4.34725E+01 -4.17961E+01 -3.99289E+01 -3.74494E+01 -3.52854E+01 -3.39601E+01 -3.30726E+01 -3.20654E+01 -3.07036E+01
  -2.91648E+01 -2.83101E+01 -2.87813E+01 -2.93563E+01 -2.83430E+01 -2.60626E+01 -2.45339E+01 -2.53138E+01 -2.64325E+01 -2.29068E+01
  -1.22994E+01  7.95936E-01  6.37409E+00 -2.33486E-01 -8.36980E+00 -5.56125E+00  4.01708E+00  7.37143E+00 -1.73208E+00 -1.65766E+01
  -2.70731E+01 -3.23600E+01 -3.64857E+01 -3.87023E+01 -3.85537E+01 -3.85161E+01 -3.81190E+01 -3.72585E+01 -3.58413E+01 -3.45205E+01
  -3.29006E+01 -3.09084E+01 -2.92146E+01 -2.34999E+01 -1.51500E+01 -1.38921E+01 -1.61391E+01 -1.22546E+01 -7.41856E+00 -7.57045E+00
  -7.54847E+00 -2.36334E+00  6.34951E+00  1.10994E+01  7.42286E+00  7.95662E-01 -6.48378E+00 -1.73182E+01 -2.98849E+01 -3.87009E+01
  -4.30442E+01 -4.23450E+01 -3.09889E+01 -1.28962E+01  1.37088E+01  4.24554E+01  5.63078E+01  5.62920E+01  5.00844E+01  3.56872E+01
   2.04003E+01  1.67063E+01  1.55227E+01  1.61310E+01  1.73555E+01  1.58391E+01  1.16337E+01  4.22881E+00 -5.75712E+00 -1.70642E+01
  -2.93259E+01 -4.19055E+01 -5.32116E+01 -6.31696E+01 -7.25570E+01 -7.88618E+01 -8.17627E+01 -8.38281E+01 -8.29600E+01 -7.84959E+01
  -7.36176E+01 -6.42210E+01 -5.05137E+01 -3.71687E+01 -2.58699E+01 -1.96237E+01 -2.03196E+01 -2.53241E+01 -3.10786E+01 -3.79812E+01
  -4.52324E+01 -5.13624E+01 -5.45334E+01 -5.59380E+01 -6.42217E+01 -8.62141E+01 -6.93164E+01  3.10971E+01  1.31106E+02  1.52898E+02
   1.40467E+02  1.31456E+02  1.12403E+02  9.70455E+01  9.18910E+01  8.79612E+01  8.39329E+01  8.01435E+01  7.68155E+01  7.43919E+01
   7.31782E+01  7.26674E+01  7.25392E+01  7.24009E+01  7.20628E+01  7.11526E+01  7.00345E+01  6.89776E+01  6.79225E+01  6.63846E+01
   6.42939E+01  6.20271E+01  5.97598E+01  5.76934E+01  5.53652E+01  5.28363E+01  5.04189E+01  4.78413E+01  4.47610E+01  4.11374E+01
   3.70127E+01  3.27158E+01  2.84094E+01  2.42173E+01  2.13067E+01  2.04793E+01  2.14025E+01  2.35439E+01  2.63191E+01  2.91085E+01
   3.20271E+01  3.52229E+01  3.83854E+01  4.12505E+01  4.38524E+01  4.62421E+01  4.85266E+01  5.12257E+01  5.44024E+01  5.74321E+01
   5.99701E+01  6.22477E+01  6.44295E+01  6.66465E+01  6.87902E+01  7.03381E+01  7.15672E+01  7.31777E+01  7.40493E+01  7.20199E+01
   6.51276E+01  4.70308E+01  2.39999E+01  7.35228E+00 -2.87326E+00 -6.62117E+00 -3.51194E+00 -2.39922E+00 -8.73736E+00 -1.45776E+01
  -2.10824E+01 -2.70283E+01 -3.01378E+01 -2.99962E+01 -2.68407E+01 -2.14131E+01 -1.53224E+01 -1.01853E+01 -6.46403E+00 -3.79679E+00
  -1.42252E+00  1.89533E+00  6.45272E+00  1.14035E+01  1.62284E+01  2.00567E+01  2.21410E+01  2.29673E+01  2.34407E+01  2.32261E+01
   2.17230E+01  1.90159E+01  1.51900E+01  1.03501E+01  5.37806E+00  1.83322E+00  2.85782E-01  3.89163E-01  2.01901E+00  4.94196E+00
   8.67870E+00  1.28901E+01  1.74119E+01  2.17881E+01  2.59390E+01  2.98313E+01  3.34023E+01  3.68261E+01  4.02504E+01  4.38358E+01
   4.74030E+01  5.09157E+01  5.46737E+01  5.86635E+01  6.30448E+01  6.83299E+01  7.41684E+01  8.02459E+01  8.73051E+01  9.51160E+01
   1.02834E+02  1.11039E+02  1.20317E+02  1.29438E+02  1.37223E+02  1.42879E+02  1.44738E+02  1.41252E+02  1.32462E+02  1.20231E+02
   1.07304E+02  9.61295E+01  8.71215E+01  7.99197E+01  7.39390E+01  6.78038E+01  5.98646E+01  5.03581E+01  4.05925E+01  3.09265E+01
   2.23328E+01  1.59519E+01  1.15253E+01  8.08518E+00  5.81576E+00  4.68806E+00  3.96537E+00  3.23290E+00  2.37547E+00  1.52935E+00
   8.51904E-01  5.43425E-01  6.16344E-01  6.92009E-01  7.76131E-01  1.03997E+00  1.31979E+00  1.20025E+00  8.43089E-01  1.16046E+00
   1.87253E+00  2.07808E+00  1.88220E+00  2.06326E+00  2.37499E+00  2.39187E+00  2.31002E+00  2.38585E+00  2.92602E+00  3.50123E+00
   3.65244E+00  3.52011E+00  3.36898E+00  3.20498E+00  3.17884E+00  3.50788E+00  3.82975E+00  4.14151E+00  4.50257E+00  4.79029E+00
   4.91959E+00  5.07479E+00  5.18146E+00  4.91523E+00  4.50865E+00  4.32204E+00  4.56120E+00  4.86855E+00  5.03077E+00  5.16038E+00
   5.16358E+00  4.91310E+00  4.88504E+00  5.28087E+00  5.55298E+00  5.67867E+00  5.87749E+00  5.97210E+00  6.00346E+00  6.13874E+00
   6.15933E+00  5.98826E+00  5.75032E+00  5.48939E+00  5.43786E+00  5.56000E+00  5.94105E+00  6.54053E+00  7.07389E+00  7.05122E+00
   6.63339E+00  6.16207E+00  5.84228E+00  5.86807E+00  5.99200E+00  5.95951E+00  5.95501E+00  6.08659E+00  5.86824E+00  5.57567E+00
 NY background values follow
     8.203E+01    8.106E+01    8.010E+01    7.913E+01    7.817E+01    7.720E+01    7.624E+01    7.527E+01    7.431E+01    7.334E+01
     7.238E+01    7.142E+01    7.046E+01    6.950E+01    6.854E+01    6.758E+01    6.663E+01    6.568E+01    6.473E+01    6.378E+01
     6.284E+01    6.190E+01    6.096E+01    6.003E+01    5.910E+01    5.817E+01    5.725E+01    5.633E+01    5.541E+01    5.450E+01
     5.360E+01    5.270E+01    5.180E+01    5.091E+01    5.003E+01    4.915E+01    4.828E+01    4.741E+01    4.655E+01    4.570E+01
     4.486E+01    4.402E+01    4.319E+01    4.237E+01    4.156E+01    4.076E+01    3.996E+01    3.918E+01    3.840E+01    3.763E+01
     3.687E+01    3.613E+01    3.539E+01    3.467E+01    3.395E+01    3.325E+01    3.255E+01    3.187E+01    3.120E+01    3.055E+01
     2.990E+01    2.927E+01    2.865E+01    2.805E+01    2.745E+01    2.687E+01    2.630E+01    2.575E+01    2.520E+01    2.467E+01
     2.415E+01    2.364E+01    2.315E+01    2.266E+01    2.219E+01    2.173E+01    2.128E+01    2.084E+01    2.042E+01    2.000E+01
     1.960E+01    1.921E+01    1.883E+01    1.846E+01    1.810E+01    1.775E+01    1.742E+01    1.709E+01    1.678E+01    1.647E+01
     1.618E+01    1.590E+01    1.562E+01    1.536E+01    1.511E+01    1.487E+01    1.463E+01    1.441E+01    1.420E+01    1.399E+01
     1.379E+01    1.361E+01    1.343E+01    1.326E+01    1.309E+01    1.294E+01    1.279E+01    1.265E+01    1.251E+01    1.239E+01
     1.226E+01    1.215E+01    1.204E+01    1.194E+01    1.185E+01    1.176E+01    1.167E+01    1.159E+01    1.152E+01    1.145E+01
     1.138E+01    1.132E+01    1.127E+01    1.122E+01    1.117E+01    1.112E+01    1.108E+01    1.105E+01    1.101E+01    1.098E+01
     1.095E+01    1.093E+01    1.090E+01    1.088E+01    1.087E+01    1.085E+01    1.083E+01    1.082E+01    1.081E+01    1.080E+01
     1.079E+01    1.078E+01    1.077E+01    1.076E+01    1.075E+01    1.075E+01    1.074E+01    1.073E+01    1.072E+01    1.071E+01
     1.070E+01    1.069E+01    1.068E+01    1.067E+01    1.066E+01    1.064E+01    1.063E+01    1.061E+01    1.059E+01    1.057E+01
     1.055E+01    1.053E+01    1.051E+01    1.049E+01    1.046E+01    1.044E+01    1.041E+01    1.038E+01    1.035E+01    1.032E+01
     1.029E+01    1.025E+01    1.022E+01    1.018E+01    1.015E+01    1.011E+01    1.007E+01    1.002E+01    9.982E+00    9.937E+00
     9.890E+00    9.843E+00    9.793E+00    9.742E+00    9.690E+00    9.636E+00    9.581E+00    9.524E+00    9.466E+00    9.407E+00
     9.346E+00    9.283E+00    9.220E+00    9.155E+00    9.089E+00    9.021E+00    8.952E+00    8.882E+00    8.810E+00    8.738E+00
     8.664E+00    8.589E+00    8.512E+00    8.435E+00    8.356E+00    8.276E+00    8.195E+00    8.113E+00    8.029E+00    7.945E+00
     7.860E+00    7.773E+00    7.685E+00    7.596E+00    7.506E+00    7.414E+00    7.321E+00    7.226E+00    7.130E+00    7.032E+00
     6.932E+00    6.831E+00    6.728E+00    6.622E+00    6.515E+00    6.406E+00    6.294E+00    6.181E+00    6.065E+00    5.946E+00
     5.825E+00    5.702E+00    5.576E+00    5.448E+00    5.317E+00    5.183E+00    5.046E+00    4.906E+00    4.764E+00    4.618E+00
     4.469E+00    4.317E+00    4.162E+00    4.004E+00    3.844E+00    3.680E+00    3.514E+00    3.346E+00    3.175E+00    3.002E+00
     2.826E+00    2.649E+00    2.469E+00    2.287E+00    2.104E+00    1.918E+00    1.731E+00    1.543E+00    1.353E+00    1.162E+00
     9.689E-01    7.750E-01    5.801E-01    3.842E-01    1.874E-01   -1.025E-02   -2.086E-01   -4.075E-01   -6.070E-01   -8.068E-01
    -1.007E+00   -1.207E+00   -1.407E+00   -1.607E+00   -1.806E+00   -2.004E+00   -2.200E+00   -2.395E+00   -2.587E+00   -2.778E+00
    -2.965E+00   -3.150E+00   -3.332E+00   -3.510E+00   -3.684E+00   -3.854E+00   -4.020E+00   -4.181E+00   -4.337E+00   -4.488E+00
    -4.633E+00   -4.772E+00   -4.905E+00   -5.031E+00   -5.151E+00   -5.263E+00   -5.368E+00   -5.465E+00   -5.555E+00   -5.635E+00
    -5.708E+00   -5.771E+00   -5.826E+00   -5.871E+00   -5.908E+00   -5.935E+00   -5.953E+00   -5.962E+00   -5.962E+00   -5.952E+00
    -5.932E+00   -5.903E+00   -5.864E+00   -5.815E+00   -5.757E+00   -5.688E+00   -5.610E+00   -5.521E+00   -5.422E+00   -5.313E+00
    -5.194E+00   -5.064E+00   -4.923E+00   -4.772E+00   -4.610E+00   -4.438E+00   -4.254E+00   -4.060E+00   -3.854E+00   -3.638E+00
    -3.410E+00   -3.171E+00   -2.922E+00   -2.663E+00   -2.394E+00   -2.116E+00   -1.829E+00   -1.534E+00   -1.230E+00   -9.194E-01
    -6.014E-01   -2.767E-01    5.430E-02    3.912E-01    7.335E-01    1.081E+00    1.433E+00    1.789E+00    2.149E+00    2.512E+00
     2.878E+00    3.247E+00    3.618E+00    3.990E+00    4.364E+00    4.738E+00    5.113E+00    5.488E+00    5.862E+00    6.235E+00
     6.608E+00    6.978E+00    7.347E+00    7.714E+00    8.078E+00    8.440E+00    8.799E+00    9.155E+00    9.509E+00    9.858E+00
     1.020E+01    1.055E+01    1.088E+01    1.122E+01    1.155E+01    1.187E+01    1.219E+01    1.250E+01    1.281E+01    1.312E+01
     1.341E+01    1.370E+01    1.399E+01    1.426E+01    1.453E+01    1.480E+01    1.505E+01    1.530E+01    1.554E+01    1.577E+01
     1.600E+01    1.622E+01    1.642E+01    1.662E+01    1.681E+01    1.700E+01    1.717E+01    1.734E+01    1.750E+01    1.765E+01
     1.779E+01    1.793E+01    1.806E+01    1.818E+01    1.829E+01    1.840E+01    1.849E+01    1.859E+01    1.867E+01    1.874E+01
     1.881E+01    1.887E+01    1.893E+01    1.897E+01    1.901E+01    1.905E+01    1.907E+01    1.909E+01    1.910E+01    1.911E+01
     1.910E+01    1.909E+01    1.908E+01    1.906E+01    1.903E+01    1.900E+01    1.896E+01    1.891E+01    1.886E+01    1.880E+01
     1.874E+01    1.867E+01    1.860E+01    1.852E+01    1.844E+01    1.835E+01    1.826E+01    1.816E+01    1.806E+01    1.796E+01
     1.785E+01    1.773E+01    1.762E+01    1.750E+01    1.737E+01    1.724E+01    1.711E+01    1.698E+01    1.684E+01    1.670E+01
     1.656E+01    1.642E+01    1.627E+01    1.612E+01    1.597E+01    1.582E+01    1.566E+01    1.550E+01    1.534E+01    1.518E+01
     1.502E+01    1.485E+01    1.469E+01    1.452E+01    1.435E+01    1.418E+01    1.401E+01    1.383E+01    1.366E+01    1.348E+01
     1.331E+01    1.313E+01    1.295E+01    1.277E+01    1.260E+01    1.242E+01    1.224E+01    1.206E+01    1.188E+01    1.170E+01
 Mac      Conc. = 3.00E-04
   6.03001E+01  5.90050E+01  5.78892E+01  5.67490E+01  5.51906E+01  5.29298E+01  5.00584E+01  4.69623E+01  4.40656E+01  4.17209E+01
   4.01994E+01  3.92481E+01  3.83837E+01  3.69979E+01  3.44083E+01  3.10539E+01  2.87645E+01  2.99619E+01  3.43298E+01  3.88481E+01
   4.21208E+01  4.53322E+01  4.76837E+01  4.79142E+01  4.75090E+01  4.77164E+01  4.83351E+01  4.93245E+01  5.06532E+01  5.18083E+01
   5.24569E+01  5.26152E+01  5.24482E+01  5.15340E+01  4.99281E+01  4.85188E+01  4.84955E+01  5.01271E+01  5.22865E+01  5.33082E+01
   5.24716E+01  5.10808E+01  5.05079E+01  5.08816E+01  5.16942E+01  5.21186E+01  5.15448E+01  5.00290E+01  4.80452E+01  4.56212E+01
   4.30418E+01  4.09905E+01  3.94913E+01  3.81597E+01  3.69265E+01  3.61809E+01  3.60829E+01  3.69183E+01  3.80641E+01  3.87762E+01
   3.96469E+01  4.05804E+01  4.03124E+01  3.89167E+01  3.72225E+01  3.54403E+01  3.39016E+01  3.28091E+01  3.17801E+01  3.12947E+01
   3.25491E+01  3.51822E+01  3.76236E+01  3.88655E+01  3.93605E+01  3.90852E+01  3.79861E+01  3.64848E+01  3.50584E+01  3.38444E+01
   3.28337E+01  3.19672E+01  3.14247E+01  3.16827E+01  3.23334E+01  3.29928E+01  3.36545E+01  3.42785E+01  3.46114E+01  3.47398E+01
   3.49117E+01  3.50138E+01  3.48846E+01  3.43473E+01  3.32606E+01  3.10499E+01  2.81346E+01  2.50384E+01  2.20117E+01  1.95211E+01
   1.77421E+01  1.55395E+01  1.24589E+01  8.69155E+00  3.61328E+00 -3.35870E+00 -1.14055E+01 -1.84295E+01 -2.23622E+01 -2.29541E+01
