 
 $NMID
 ID=''
 FMTDAT='(2E13.5)'
 TRAMP=   1.00000E+0
 VOLUME=   1.00000E+0
 $END
  -9.94147E+3   1.81750E+3
  -1.38499E+4   1.49760E+4
   1.35191E+4   2.08505E+4
   2.59208E+4  -3.91398E+2
   5.38000E+3  -2.08406E+4
  -1.42959E+4  -1.52844E+4
  -1.39586E+4   5.79000E+3
  -4.28412E+2   1.67752E+4
   1.43402E+4   7.71719E+3
   1.17398E+4  -8.14426E+3
  -6.60264E+3  -1.11807E+4
  -1.41027E+4  -1.84531E+3
  -4.17785E+3   7.88971E+3
   5.11604E+3   7.96083E+3
   5.21224E+3  -2.10750E+3
   9.99373E+2  -9.52334E+3
  -3.09961E+3  -3.74276E+3
  -3.95789E+3   4.98026E+3
  -5.94873E+2   4.19498E+3
   2.56497E+3  -4.28314E+2
   2.08597E+3  -2.65781E+3
  -3.20307E+2  -1.93296E+3
  -2.26221E+3   1.32086E+3
  -1.98998E+3   2.24343E+3
   8.27675E+2  -2.76677E+2
   2.54642E+3  -7.63173E+2
   4.11009E+2   9.10238E+2
  -2.56248E+3   1.72249E+2
  -8.89850E+2  -8.49863E+2
   1.57155E+3   1.32509E+3
   4.21896E+2   1.84973E+3
  -9.66644E+2  -8.47130E+2
  -4.83574E+2  -1.95324E+3
  -3.59041E+2  -5.32894E+2
  -9.71269E+0  -4.99645E+2
   1.66020E+3  -1.02562E+3
   1.43344E+3   3.63678E+2
  -5.23684E+2   1.15588E+3
  -9.24976E+2  -9.65277E+1
   1.02997E+2  -3.64743E+2
   1.86631E+2  -1.65633E+2
  -5.68666E+1  -8.87546E+2
   3.60755E+2  -1.08944E+3
   8.07405E+2  -4.12236E+2
   7.40721E+2   7.50017E+2
   4.59044E+2   1.22568E+3
  -5.95382E+2   1.03519E+3
  -1.68642E+3  -7.50674E+2
  -1.14147E+3  -1.71742E+3
   8.42358E+1  -7.59493E+2
   4.66118E+2  -3.68041E+1
   5.03479E+2  -7.13842E+2
   7.15886E+2  -5.51919E+2
   2.97114E+2   5.32043E+2
  -6.42933E+2   8.19750E+2
  -5.36533E+2  -3.71414E+1
  -2.33012E+2  -1.81687E+2
  -1.53489E+2  -7.27871E+2
   3.89815E+2  -1.22576E+3
   4.75928E+2  -5.43755E+2
   5.78704E+2   6.30288E+2
   3.23419E+2   1.48440E+3
  -4.20816E+2   8.62970E+2
  -1.11280E+3  -2.32932E+1
  -1.36420E+3  -6.77124E+2
  -8.84009E+2  -7.23037E+2
   3.83205E+1  -8.14957E+2
   9.54342E+2  -8.52185E+2
   1.22113E+3   1.29708E+2
  -1.94738E+1   7.83580E+2
  -4.57984E+2  -5.59402E+1
   4.18785E+2  -3.49686E+2
   9.86897E+2   6.22167E+2
  -1.20313E+2   1.03269E+3
  -6.83768E+2   1.87724E+2
   8.89072E+0  -1.95680E+2
   4.24338E+2   3.20125E+2
  -1.19522E+2   7.85431E+2
  -3.52616E+2   5.20871E+2
  -3.06621E+2  -2.51043E+2
  -2.45498E+2  -3.28353E+2
  -1.45820E+2  -1.93640E+2
   4.96128E+1   2.02306E+2
   4.27531E+0  -1.77494E+1
   7.24412E+1  -2.44084E+2
   6.09639E+2  -2.13185E+2
   6.27028E+2   3.50313E+2
   2.13463E+1   4.63718E+2
  -1.35064E+1   1.83422E+2
   2.10549E+2   3.59582E+2
   3.58306E+2   5.29087E+2
   1.43134E+2   8.71806E+2
  -3.79637E+2   2.36480E+2
  -5.74024E+2  -8.54836E+1
  -3.15786E+2  -6.00869E+2
   5.08708E+2  -4.08919E+2
   8.07763E+2  -1.09062E+1
   2.60952E+2   4.68535E+2
   1.12639E+2  -2.14725E+2
   7.62924E+2  -4.61246E+2
   7.44619E+2   6.16700E+2
  -1.01294E+2   1.18139E+3
  -5.94142E+2   1.73442E+2
   2.10127E+1  -9.87820E+2
   7.28335E+2  -2.87585E+2
   6.31795E+1   8.35460E+2
  -4.81218E+2   3.68114E+2
  -7.32285E+2  -4.05875E+2
   7.60016E+1  -9.84920E+2
   1.05966E+3  -5.45463E+2
   9.16543E+2   3.77979E+1
   4.32087E+2   2.96803E+2
  -4.43924E+1   5.20561E+2
  -2.16465E+2   5.00398E+2
  -2.88152E+1   2.35426E+2
  -4.45464E+2   7.69194E+1
  -8.13163E+2   1.30103E+2
  -7.82785E+2  -5.72337E+2
   3.19008E+2  -7.98827E+2
   8.21560E+2  -2.98225E+2
   7.85657E+2   1.41378E+2
   3.78773E+2   5.86509E+2
  -2.95931E+2   4.66989E+2
  -2.70448E+2   5.08610E+2
  -5.89046E+2   6.14075E+1
  -4.72735E+2  -5.66711E+1
   1.79468E+2  -3.29523E+2
   4.45821E+2  -2.31058E+2
   6.78072E+1   2.23308E+2
  -1.98158E+2   5.50000E+2
  -6.12866E+2   4.15671E+2
  -3.49176E+2  -6.58213E+1
  -2.57974E+1  -1.83421E+2
   2.23108E+1  -4.70255E+1
  -2.50574E+2   5.91231E+1
  -2.07182E+1  -2.83181E+1
   3.20946E+2  -2.42841E+1
   4.54234E+2   5.19592E+2
  -1.17310E+2   6.97524E+2
  -5.77606E+2   2.44799E+2
  -6.56200E+2  -1.33560E+2
   1.89662E+2  -8.26893E+1
   4.59838E+2   1.92695E+2
   3.49518E+2   5.36943E+2
  -1.50901E+2   6.23603E+2
  -4.09736E+2   3.17111E+2
  -5.93963E+1   1.76787E+2
  -3.35737E+2  -4.96512E+1
  -2.70753E+2  -1.23705E+2
  -7.69203E+1  -3.13417E+1
   3.62245E+2  -1.60125E+2
   5.88899E+2   1.82479E+2
   4.09561E+2   4.92291E+2
   6.50268E+1   7.56333E+2
  -2.13228E+2   1.76190E+2
   1.33011E+2  -5.10979E+1
  -5.19914E+1   3.33967E+2
  -5.91308E+0   4.70483E+2
  -2.79389E+2   3.33886E+2
  -5.43401E+1  -2.12635E+1
   3.63333E+1   2.07555E+2
  -1.08740E+2   4.10208E+2
  -3.65403E+2   8.46056E+0
  -4.81953E+1  -6.17100E+1
   1.72710E+2  -1.60121E+2
   3.80277E+2   1.31107E+2
   1.99713E+2   2.07045E+2
  -9.91348E+1   1.05099E+2
   8.21497E+1   9.82088E+1
   9.72198E+0   4.43281E+1
   1.10060E+2   1.83479E+2
  -1.44175E+2   3.21741E+2
  -1.19667E+2   5.41477E+1
  -1.30744E+2  -1.83437E+1
   2.41497E+2   4.73419E+1
   2.23382E+2   3.83561E+2
  -2.66234E+2   1.09980E+2
  -3.26899E+2  -1.38116E+2
   2.48490E+2  -5.16425E+2
   4.80475E+2   1.82754E+2
  -1.16069E+2   5.74897E+2
  -3.35810E+1   7.11045E+1
  -2.34744E+2   1.02592E+2
  -3.23716E+2  -4.94210E+1
  -3.52721E+1  -3.53273E+1
  -3.01013E+1  -1.59310E+2
   3.01902E+2  -1.73621E+2
   4.32299E+2   3.33824E+1
   3.75492E+2   2.03225E+2
   3.31319E+2   5.15434E+2
  -3.38372E+2   6.18309E+2
  -6.11839E+2   1.88145E+2
  -3.24865E+2  -3.31253E+2
   9.67347E+1  -2.30541E+2
   2.53365E+2  -1.59924E+2
  -3.31213E+1   7.61611E+1
   4.31641E+1   3.64527E+1
  -1.98698E-1   4.22817E+1
  -9.49996E+1   2.05094E+2
  -1.40303E+2   2.91570E+2
  -3.05929E+2  -9.58708E+1
  -1.84008E+2  -5.63500E+1
   2.84965E+2  -1.65463E+2
   3.14935E+2   9.04465E+1
   4.95991E+1  -1.07315E+2
   9.08255E+1   1.15234E+2
   1.64987E+2  -1.57588E+2
   9.35808E+0   3.33005E+1
   4.74404E+0  -1.00733E+2
  -2.60281E+1  -3.85596E+1
  -7.55610E+1  -4.66678E+2
   3.75871E+2  -7.17184E+1
   3.11134E+2   1.40651E+2
  -7.82608E+1   4.20581E+2
  -6.17591E+2   2.54373E+2
  -2.61230E+2  -2.93304E+2
  -3.75001E+1  -2.43725E+2
   1.04518E+2  -1.24112E+2
   2.23484E+2   1.81346E+2
  -2.26960E+2  -2.56314E+2
   1.12318E+2  -5.45533E+1
   1.87316E+2   5.24453E+1
  -3.72921E+1   3.74865E+2
  -4.22796E+1  -1.81603E+2
   2.00265E+1  -2.32773E+2
  -1.53808E+2  -1.56896E+2
   4.69014E+1  -8.15841E+1
  -9.79327E+1   1.33414E+2
  -1.03727E+2   1.41058E+2
   6.25947E+1  -1.73638E+2
   1.45202E+2   1.91745E+1
   1.67150E+2  -1.04602E+2
  -2.66865E+1   1.72445E+2
  -2.61859E+2  -2.81814E+2
  -1.16971E+2   1.25819E+2
  -1.18683E+2  -3.09160E+2
  -1.46273E+2   2.04619E+2
  -8.96543E+1   1.38698E+2
  -1.59605E+2  -1.44599E+2
   2.00470E+2  -3.58154E+1
   1.60276E+2  -1.85361E+2
   7.23792E+1   3.25530E+2
  -7.77475E+1  -4.62571E+1
   8.23657E+0   5.66450E+1
  -3.70870E-1  -3.75048E+0
   5.37588E+1   1.62355E+2
   4.52571E+1  -1.75105E+1
  -2.25566E+2   6.46793E+1
   4.69316E+1   1.85570E+2
   9.35770E+1  -2.17173E+1
   2.07028E+2   1.17366E+2
  -1.12993E+2   1.60325E+2
  -2.65291E+2  -1.44310E+2
   5.20698E+1  -3.46486E+2
   7.29624E+1  -4.54116E+1
   2.58927E+2   2.24403E+2
   1.10300E+2   1.25004E+2
  -3.37641E+1   9.11922E+1
   1.76685E+1   8.06422E+1
  -1.05586E+2   3.53430E+1
  -3.16926E+2  -7.27371E+1
  -1.14867E+2  -3.15057E+2
   1.37546E+2  -3.20861E+2
   4.33839E+2  -1.59033E+2
   1.83445E+2   1.50522E+2
  -1.87309E+2   2.56592E+2
  -2.66131E+2   2.58476E+1
  -1.71612E+2   9.76160E+0
  -3.54362E+1  -1.73491E+1
   1.97005E+2  -1.00925E+1
   8.33822E+1   1.27578E+2
   1.25108E+2  -1.79798E+2
   5.60783E+1   1.07566E+2
   8.86300E+1  -1.97144E+2
   1.14061E+2   2.45426E+2
  -1.16294E+2  -2.09623E+1
   1.35619E+2  -1.55871E+2
  -2.12725E+1  -1.79404E+1
   1.35919E+2  -6.60684E+1
   1.63905E+2   3.26877E+2
   1.23633E+2  -1.08106E+2
  -2.35231E+2   2.51139E+1
   2.26195E+2   8.01344E+1
  -2.54167E+2   1.48075E+2
  -2.29553E+2  -2.02136E+1
   2.58437E+1  -3.43449E+2
   1.98879E+2  -4.43927E+2
   3.03093E+2   1.41974E+2
   6.50366E+1   1.78861E+2
  -2.11714E+1  -6.37573E+1
  -1.07758E+2  -2.45262E+1
   5.58890E+1   2.50143E+0
   4.37651E+1  -9.13969E+1
   7.24802E+1  -3.89110E+1
   1.08988E+2  -1.85204E+2
   2.20032E+2  -1.53221E+2
   1.84957E+2  -1.05838E+2
   6.73145E+1   5.46263E+1
  -9.82559E+0   5.69540E+1
   4.73061E+1  -1.15661E+2
   6.91774E+1  -2.55355E+2
  -8.10822E+1  -9.77354E+1
  -7.21931E+1   2.37388E+0
  -9.72134E+1  -2.00044E+1
  -1.99287E+2  -7.72951E+1
   2.63056E+2  -3.80302E+2
   1.60370E+2  -5.25838E+1
  -5.15155E+0  -7.94006E+1
  -1.50754E+2   1.12560E+2
   2.31294E+2  -8.61452E+0
   2.68862E+2  -7.45746E+1
   1.68634E+2  -1.19123E+2
  -2.36215E+2   1.31193E+2
  -7.66140E+0  -7.56634E+1
   2.60679E+1  -3.83900E+2
   2.04927E+1  -5.84644E+0
   1.47076E+1  -5.73058E+1
   1.79313E+1   6.25670E+1
  -5.71978E+1  -3.13950E+1
   1.73661E+1  -6.81739E+1
  -1.28245E+1  -8.23750E+1
  -4.66745E+1   1.89353E+2
  -2.11679E+2   2.27732E+1
   8.03479E+1   2.88656E+1
  -2.20465E+1   1.65046E+2
   1.43465E+2   2.30971E+2
  -2.74350E+2   2.96697E+2
  -1.70935E+2  -1.34933E+0
  -4.71368E+1  -2.32296E+2
   1.73232E+2  -1.48062E+2
   2.47850E+2  -5.86970E+1
  -7.62809E+1  -2.34658E+2
   1.00564E+0   4.32610E+1
   6.90747E+1   7.07903E+1
   8.47759E+1  -2.03495E+1
   1.04085E+2   2.20836E+1
  -3.93834E+2   2.76845E+1
  -2.18606E+1  -3.36690E+2
   1.08994E+2  -3.68872E+2
   9.04386E+1   1.42295E+2
   2.84952E+2   5.07479E+1
  -1.59554E+1   1.21367E+2
  -2.26448E+2  -1.31173E+2
   1.69481E+2  -1.28690E+2
   7.11016E+1  -5.31719E+1
  -9.64102E-1   1.69052E+1
  -5.41010E+1  -2.28306E+2
   3.64021E+2  -1.75603E+2
   1.10118E+2  -3.90402E+1
   2.52850E+2  -4.08057E+1
  -7.76498E+1   7.02707E+1
   2.65657E+1  -7.98401E+1
   1.20287E+2  -3.03377E+1
  -4.23946E+1  -3.11963E+2
   1.00624E+2  -1.43093E+2
   8.44699E+1   3.36063E+1
   3.66035E+0   1.58606E+2
   5.08746E+1   6.04331E+1
   4.33783E+1   2.63936E+2
   8.33467E+1   1.84888E+2
  -1.07467E+2  -5.27599E+1
   2.68831E+2   2.25382E-1
   1.98075E+2   5.06047E+1
  -9.82892E+1   6.37326E+1
  -4.28543E+0   7.12461E+1
  -2.02819E+2  -4.11127E+1
   1.45753E+2  -7.74192E+1
