 
 $NMID
 ID=''
 FMTDAT='(2E13.5)'
 TRAMP=   1.00000E+0
 VOLUME=   1.00000E+0
 $END
   8.38964E+3  -8.10626E+3
  -5.32972E+2  -2.41981E+3
   5.96027E+2   1.36521E+3
   6.85853E+3  -2.77754E+3
   6.20523E+2   1.42084E+3
  -1.87908E+3   4.02486E+3
   4.09589E+2  -3.18470E+3
   6.97691E+1  -2.29959E+3
   1.58724E+3   2.46925E+3
   2.53415E+3   6.20325E+2
  -7.28668E+2   7.81659E+2
  -9.35905E+2   2.33339E+3
   7.41957E+2  -7.31249E+2
  -9.85132E+1   5.31534E+2
  -1.33248E+3   2.77239E+3
  -1.69003E+3  -1.46434E+3
  -2.61593E+2  -2.77969E+3
   1.47190E+3   9.13183E+2
   1.29521E+2   3.33583E+2
  -5.81309E+2  -6.38012E+2
   7.26043E+2   6.81538E+2
  -1.73244E+2  -1.34550E+2
  -5.38677E+2  -1.18358E+3
   1.05319E+3   7.74800E+2
  -1.44212E+2   1.49009E+3
  -1.95170E+3  -5.49465E+2
   8.96427E+2  -1.58096E+3
   1.84270E+3   5.26499E+2
  -9.66013E+2   1.46876E+3
  -9.14210E+2  -3.37393E+2
   9.13346E+2  -1.12964E+3
   9.39687E+2   7.51085E+2
  -1.49278E+2   8.20721E+2
  -7.04767E+2   3.22032E+2
  -1.02476E+3   8.23953E+2
  -1.42101E+3  -4.42441E+2
   1.22291E+2  -2.04538E+3
   1.13810E+3  -5.34932E+2
   5.31267E+2   9.04779E+2
  -9.82258E+1  -6.37321E+0
   1.57241E+2   3.33296E+2
   3.32362E+2   8.52617E+2
  -9.14609E+2   1.71948E+2
  -1.07805E+3  -7.05338E+2
  -3.09289E+2  -7.28375E+2
   3.88917E+2  -6.06473E+2
   1.24665E+3  -5.68856E+2
   9.16989E+2   5.03886E+2
  -5.91526E+1   1.23890E+3
  -4.76521E+2   8.78824E+2
  -7.68110E+2   3.23775E+1
  -2.56863E+2  -1.33589E+2
  -3.29674E+2  -6.67256E+1
  -1.54756E+2  -5.42893E+2
   2.58239E+1  -3.77914E+2
   5.16552E+2  -4.09142E+2
   7.77838E+2   4.17227E+2
   3.39796E+2   6.84642E+2
  -7.47693E+2   3.83284E+2
  -6.72275E+2  -4.20349E+2
  -5.25877E+1  -5.12096E+2
   3.01943E+2  -4.47767E+2
   3.96698E+2  -7.23691E+2
   6.14893E+2  -4.29775E+2
   9.04624E+2   5.72211E+2
   5.98883E+2   1.19129E+3
  -3.17118E+2   6.20387E+2
  -8.48692E+2   4.98407E+2
  -8.69366E+2  -1.61038E+2
  -7.67167E+1  -5.24669E+2
   3.53769E+2   2.82657E+1
  -3.55164E+1   2.07071E+2
  -4.75069E+2  -1.72330E+2
  -1.81223E+2  -5.45794E+2
   5.06706E+2  -3.36399E+2
   6.01142E+1   1.37509E+2
  -2.82411E+2  -1.29692E+1
  -7.87149E+1  -3.38825E+2
   2.07273E+2  -3.39335E+2
   1.05775E+2   4.68276E+0
   1.60884E+2   2.18765E+2
   3.63267E+2   2.33108E+2
  -1.04671E+2   2.41709E+1
  -8.92003E+1   5.95996E+1
  -4.01124E+0   2.23144E+2
  -1.51199E+2   1.64343E+2
  -3.33050E+2   2.50849E+2
  -2.75081E+2   3.90378E+1
   8.17928E+1  -3.95651E+2
  -2.42058E+1  -5.64716E+1
   3.86920E+1  -3.92450E+1
  -1.79047E+2  -2.98066E+1
   2.09798E+2  -4.19420E+2
   3.99035E+2   3.84061E+1
   2.38102E+2   2.35738E+2
   1.27899E+2   2.10057E+2
  -1.36822E+2   3.38065E+2
   2.26587E+1  -2.42187E+2
  -1.08264E+2   1.07068E+2
  -2.57353E+2   3.06394E+2
  -2.90294E+2   4.99500E+0
   2.74966E+1  -2.79557E+2
  -3.40693E+1  -2.97271E+2
   1.32086E+2   2.52363E+2
  -1.12306E+2   1.56313E+1
  -2.81823E+2   6.47576E+1
  -3.32808E+2  -1.42582E+2
   8.62651E+1  -3.62174E+2
   4.65264E+2   7.96570E+1
   1.46297E+2   4.08856E+2
  -2.78071E+2   2.65473E+2
  -3.13552E+2  -2.19279E+1
  -1.05510E+2  -1.20599E+2
   6.67522E+0  -1.34950E+2
  -1.20595E+2  -7.72259E+1
  -2.71954E+2  -3.29981E+2
   1.11798E+2  -1.25480E+2
   2.95354E+2   1.27492E+2
   1.84909E+2   3.69573E+2
  -7.16316E+0   1.71256E+2
  -6.37159E+1   3.04023E+2
  -4.15927E+2  -5.52862E+1
   7.21566E+1  -4.41119E+1
   4.73891E+0  -8.79204E+1
   2.66497E+2  -8.16333E+1
   1.96476E+2  -1.82828E+2
   1.70902E+2   1.39857E+2
   2.19809E+2   3.39907E+2
   2.27018E+1   2.91376E+2
  -3.00509E+2   5.93033E+1
  -2.87638E+2  -2.24578E+2
   6.96747E-1  -1.03037E+2
   3.58078E+2   1.93283E+1
   3.56676E+1  -1.44517E+0
   1.02448E+2  -8.63180E+1
   8.94544E+1   1.67919E+1
  -1.67835E+1  -6.65561E+1
  -2.50391E+1   1.84480E+2
  -1.75039E+2  -6.10286E+1
  -5.01349E+1  -1.79225E+2
  -1.18229E+2  -1.91202E+2
   1.73644E+2  -6.12482E+0
   2.11264E+2   3.53150E+2
   2.69682E+2   2.26739E+2
   6.33958E+1   8.77883E+1
   1.75145E+2  -7.10435E+1
   2.19868E+2   6.76732E+1
  -9.90514E-1  -2.03232E+2
   1.28885E+2  -1.75794E+2
  -1.16751E+1  -9.57923E+1
  -6.71219E+1  -1.14242E+1
   8.07188E+1  -7.32779E+1
   3.34208E+1  -7.25325E+1
   1.24009E+1  -2.12679E+2
  -2.00747E+2   2.34479E+2
   5.30493E+1   2.39434E+1
   1.15436E+2  -1.49205E+2
  -1.94568E+2  -5.68386E+1
   1.33575E+2  -8.69135E+1
  -2.37620E+2  -2.41183E+2
  -4.56417E+1  -8.70032E+1
   5.73928E+1  -1.09722E+2
   1.11864E+2   1.37917E+2
  -5.69821E+1   7.08036E+1
  -4.44057E+1   6.96973E+0
  -2.59928E+1   4.39785E+0
  -8.65444E+1  -5.01401E+1
  -1.23848E+2  -7.84785E+1
   1.74315E+2  -1.61372E+2
   5.26977E+1  -2.38802E+1
  -1.13833E+2   3.30948E+1
  -1.19141E+2   6.46078E+1
  -7.49373E+1  -1.83496E+2
  -4.01643E+0  -1.23453E+2
   8.33400E+1  -1.32765E+2
  -1.27755E+1  -7.38053E+1
   8.99874E+1  -3.69801E+1
   1.98431E+2  -4.69046E+1
   1.46948E+1  -1.27372E+2
   6.73711E+0  -1.85693E+0
   2.12716E+2   7.90992E+0
   1.07276E+1  -1.11189E+2
   1.34959E+2   1.01368E+2
   3.96758E+1  -6.82417E+0
  -3.27077E+1  -1.25024E+2
  -1.28761E+1  -1.51801E+2
   1.40586E+1  -9.85335E+1
   1.12548E+2  -1.36932E+2
  -1.21521E+2  -2.26473E+2
  -2.26737E+1   3.75554E+1
   6.49930E+1   2.30411E+2
  -1.95642E+2  -4.94153E+1
  -1.43456E+2  -2.27531E+1
   4.55665E+1   8.28432E+1
   2.27665E+2   2.00155E+1
  -2.02845E+2   1.27112E+1
  -5.95819E+1   1.91030E+2
   3.09430E+2   6.36534E+1
   1.57221E+1  -1.93576E+1
   1.28818E+2  -1.47212E+1
  -1.90527E+2   5.07036E+1
   3.60455E+1  -3.07841E+2
  -1.51366E+2  -1.28377E+2
  -2.19513E+1   1.04946E+2
  -1.40407E+2   2.88893E+2
   4.14100E+1  -2.60323E+1
   8.04333E+1   1.40785E+2
  -2.27249E+2   3.03460E+0
  -5.55199E+1   1.69230E+2
   2.42141E+2   9.97358E+1
   4.76513E+1  -3.38969E+1
  -1.00353E+1   4.19601E+1
   1.21583E+2   1.12405E+1
  -3.18531E+1   2.05297E+0
  -7.49038E+1  -3.17881E+1
   4.19113E+1   3.72378E+0
  -4.50842E+0   1.69797E+2
   1.07138E+2  -7.66253E+1
  -8.24611E+1  -4.28680E+1
   1.28431E+2  -4.39448E+1
  -3.59970E+1  -6.89199E+1
   1.82133E+2   3.34123E+1
   7.80730E+1   6.86802E+1
  -4.31946E+1   1.95011E+1
  -9.33485E+1   1.17376E+2
  -1.29981E+0  -5.14926E+1
  -9.15799E+1  -1.14104E+2
  -1.56059E+2   1.16683E+2
   1.62439E+2   6.89084E+1
  -1.53386E+1   2.48621E+2
  -5.31034E+1  -1.13910E+1
  -5.99392E+0   1.81400E+1
   1.01888E+2   3.38546E+0
   1.19429E+2   7.09582E+1
  -2.49549E+2  -7.33789E+1
   1.13857E+1  -5.41810E+1
   3.38101E+1  -2.23248E+2
   1.83209E+1   3.34672E+2
   2.13074E+1   7.71546E+1
  -3.62581E+1  -1.48575E+1
   1.77814E+2  -1.57625E+2
   1.86754E+2  -3.65640E+1
   1.59833E+2   5.37680E+1
   1.87555E+2  -4.50693E+1
  -4.13916E+1  -6.35080E+1
   6.20993E+1  -9.22795E+1
  -1.58330E+2   2.64779E+1
   2.19966E+2  -2.50666E+1
  -1.25724E+2  -1.32920E+2
  -1.28683E+2   1.86588E+1
   3.51410E+2  -2.98960E+1
   8.06746E+1   8.03727E+1
  -3.40441E+1   6.13758E+1
   1.69046E+1  -9.25979E+1
   1.34102E+2  -1.80692E+2
  -6.68961E+1  -4.61232E+1
  -6.92579E+1  -1.90248E+2
   1.16299E+2  -1.26169E+2
   1.17773E+2  -1.86842E+2
  -8.88067E+1  -1.68082E+2
  -2.72829E+0  -7.14046E+1
  -1.66217E+2   8.48275E+1
   6.26456E+1  -7.74208E+1
   1.75574E+2  -1.51602E+2
   2.28025E+1  -1.04492E+2
   2.12784E+2   1.37438E+2
   1.91315E+0  -7.43369E+1
   1.73477E+2   2.17482E+1
  -5.07145E+1   3.32433E+0
   7.84590E+0  -3.90804E+1
  -9.29969E+1  -4.18750E+2
   6.21690E+1   1.55379E+2
   4.79327E+1  -5.71530E+0
  -2.64596E+1   4.47527E+1
  -1.20939E+2  -2.32882E+1
  -1.75402E+1   1.35909E+2
   1.31843E+2  -3.14565E+1
  -5.59426E+1   1.91254E+2
  -5.97406E+1  -1.44797E+2
   1.55049E+2  -9.34673E+1
  -4.33590E+1   1.24575E+2
  -1.91485E+1  -7.17190E+1
  -1.81890E+2  -1.36606E+2
  -1.29205E+2  -3.76290E+1
  -1.65773E+2   8.63715E+1
  -3.88927E+1   4.43699E+1
  -8.45764E+1  -8.87226E+1
  -6.65229E+1   1.30469E+2
  -9.11508E+1  -8.46246E+1
   1.35517E+2  -3.12420E+2
  -8.97384E+1   5.37135E+1
  -5.15026E+1   1.56277E+2
  -1.77827E+2   1.13055E+1
   2.03159E+2  -5.40372E+1
   9.47153E+1  -1.17226E+2
   4.50432E+2   1.48348E+2
  -1.36017E+1   3.48488E+1
  -1.44748E+2   3.68265E+1
  -6.67493E+0  -8.56172E+1
   6.70825E+1   3.18658E+1
  -1.98916E+2  -1.67484E+2
  -9.01996E+1   1.11725E+2
   3.06252E+2   1.82081E+2
   8.85902E+0   2.51424E+2
  -1.24903E+2  -5.80959E+1
  -2.31495E+2   6.27062E+1
  -5.44538E+1  -3.86447E+1
  -2.48078E+2   1.24832E+2
  -5.03751E+0  -5.58737E+1
  -2.29321E+1   6.94034E+1
   2.14701E+1  -6.14030E+0
  -8.87645E+1   1.09647E+2
   1.13148E+2  -2.41829E+1
  -1.06946E+2   2.40769E+2
   1.40051E+1  -2.96969E+2
  -5.48475E+1   1.20782E+2
  -1.27619E+2  -1.47354E+1
  -7.49300E+1   1.43266E+2
   1.03816E+2  -1.62161E+2
   1.48858E+1   4.41712E+1
  -3.37830E+1  -1.38967E+2
  -2.02166E+2  -1.40575E+2
  -8.30476E+1  -4.62028E+0
   1.18682E+2   6.19553E+1
  -2.99757E+2  -1.49260E+2
   4.50330E+1  -1.35651E+1
  -3.50007E+1   3.94821E+1
   9.37097E+1  -4.44591E+1
  -1.99462E+2   2.12889E+2
   1.26620E+1  -3.08431E+1
  -7.23121E-1   1.02465E+2
   7.64799E+1  -1.19024E+2
   9.55222E+1   2.54183E+1
  -2.17963E+2  -1.02507E+1
  -1.51525E+2   1.15376E+2
   7.70912E+1   8.22694E+1
   2.58039E+2   2.47580E+1
  -1.26603E+2  -1.30458E+2
   4.86712E-1   3.72339E+1
  -2.31237E+2  -2.44463E+2
   4.94317E+0  -7.13181E+1
  -1.06779E+2  -1.95724E+2
   7.84684E+1  -1.81084E+2
  -6.65039E+1  -5.15147E+1
  -1.19129E+2   5.57092E+1
   5.34575E+1   5.74296E+1
  -2.14997E+2   5.13185E+1
  -1.70998E+0  -4.11199E+1
  -4.82293E+1   2.88549E+2
   1.74385E+2  -3.14031E+1
   2.33284E+2  -8.73856E+1
  -2.82897E+1   2.15949E+2
   5.84499E+1   9.57281E+1
  -1.83374E+2   1.12992E+2
  -5.38497E+1  -1.07592E+2
  -1.00556E+2   8.49967E+1
   2.46925E+1   5.62245E+1
   3.75702E+1   4.06070E+1
  -1.23616E+2   1.92952E+2
  -2.25662E+1  -3.14815E+1
  -9.29268E+1   9.66579E+1
  -2.19855E+2  -1.04061E+2
   7.98623E+1  -2.80525E+1
   3.89125E+1  -1.91891E+1
   5.18348E+1  -2.38390E+2
   2.47922E+1  -1.26527E+1
  -9.92118E+1   2.49102E+2
