 
 $NMID
 ID=''
 FMTDAT='(2E13.5)'
 TRAMP=   1.00000E+0
 VOLUME=   1.00000E+0
 $END
  -2.45621E+4   1.46096E+4
   7.80803E+3   2.43983E+4
   3.21362E+4  -1.12431E+4
  -2.04883E+3  -2.99887E+4
  -3.32632E+4   2.38966E+2
  -6.58949E+3   2.38762E+4
   2.58742E+4   8.19036E+3
   1.40913E+4  -1.44129E+4
  -1.22490E+4  -1.23748E+4
  -1.46751E+4   7.64993E+3
   2.57401E+3   1.58165E+4
   1.16017E+4   4.23035E+2
   1.76201E+3  -1.14833E+4
  -9.00900E+3  -3.51484E+3
  -5.47044E+3   5.17589E+3
   4.17689E+3   3.24204E+3
   6.05588E+3  -1.59465E+3
   2.14386E+2  -3.46295E+3
  -4.16310E+3  -1.12688E+3
  -2.14641E+3   1.97856E+3
   1.74176E+3   7.60549E+2
   2.43887E+3  -1.37001E+3
   7.08374E+2  -7.76373E+1
  -2.03290E+3   6.13858E+1
  -1.35658E+3  -1.19495E+3
   2.14055E+3   7.14498E+2
   1.59748E+3   2.53217E+3
  -2.26157E+3  -3.13173E+2
  -1.34643E+3  -2.02587E+3
   1.16651E+3   5.19026E+2
  -3.50135E+2   1.93937E+3
  -1.54361E+3  -9.58832E+1
  -3.56198E+2  -1.60822E+3
  -6.85442E+1  -1.00910E+3
  -1.93445E+2  -9.96596E+2
   1.27768E+3  -4.90083E+2
   1.05210E+3   1.23262E+3
  -6.30089E+2   1.20320E+3
  -4.38172E+2  -5.21064E+2
   2.71183E+2  -5.32084E+2
  -1.03083E+3   5.11246E+2
  -8.13967E+2  -5.73890E+2
   1.18887E+3  -6.63214E+2
   1.55903E+3   2.17031E+2
   4.04917E+2   6.12836E+2
  -3.19371E+2   1.08465E+3
  -9.33762E+2   1.43041E+3
  -1.06142E+3   2.16837E+2
  -4.23296E+2  -1.67430E+3
   5.40630E+2  -1.74881E+3
   3.84896E+2  -3.97435E+2
   1.76016E+2  -9.48957E+1
   7.50647E+2  -7.09002E+1
   5.80793E+2   3.84264E+2
  -4.61247E+1   5.23713E+2
  -4.14673E+2   9.52501E+1
  -7.06161E+2  -3.87979E+2
  -5.37102E+1  -9.53688E+2
   1.32916E+3  -7.05787E+2
   7.52359E+2  -8.46523E+1
   1.24469E+2   6.66424E+2
   4.25934E+1   1.13833E+3
  -2.13302E+2   1.10854E+3
  -1.05730E+3   1.18973E+2
  -1.45032E+3  -1.14783E+3
  -5.38259E+2  -1.10732E+3
   7.96671E+2  -8.22777E+2
   1.48225E+3  -4.43603E+2
   1.21861E+3   4.03664E+2
  -3.25055E+2   6.30698E+2
  -4.05365E+2  -5.65687E+1
   8.50865E+2  -2.01891E+2
   8.55126E+2   6.76784E+2
  -2.54412E+2   6.37302E+2
  -7.52152E+2   2.71299E+1
   1.83036E+1  -1.68083E+2
   1.90684E+2   3.46497E+2
  -1.15835E+2   4.58162E+2
  -2.57952E+2  -2.78256E+1
  -6.04276E+2  -1.54720E+2
  -4.13194E+2  -2.78793E+2
   3.04774E+2  -3.90077E+2
   6.58387E+2  -1.64117E+2
   1.75903E+2   5.20954E+1
  -1.40331E+2  -2.18176E+2
   5.00145E+2  -2.75657E+2
   6.90213E+2   6.59553E+2
   6.72232E+1   4.21509E+2
  -4.62087E+1   1.23936E+2
   2.54782E+2   9.93923E+1
   4.11105E+2   5.60854E+2
  -1.66806E+2   7.54068E+2
  -5.91623E+2   2.64465E+2
  -7.49286E+2  -1.37246E+2
   8.17603E+1  -5.88042E+2
   7.13618E+2  -4.14855E+2
   5.36521E+2   7.75387E+1
  -1.25508E+2   2.56236E+2
  -3.86558E+1  -2.03268E+2
   6.66904E+2   1.79246E+1
   6.86615E+2   5.83932E+2
  -5.42840E+2   7.09215E+2
  -1.17723E+3  -3.56911E+2
   3.99120E+2  -5.44268E+2
   7.21600E+2   8.99630E+1
   1.73485E+2   6.03724E+2
  -4.68548E+2   2.90072E+2
  -5.79910E+2  -6.10715E+2
  -1.51795E+2  -9.85177E+2
   7.78523E+2  -3.07809E+2
   5.13821E+2   3.81763E+2
   2.80883E+2   7.25446E+2
  -4.48896E+2   4.25625E+2
  -3.52734E+2   3.37812E+2
  -2.08366E+2   2.64132E+2
  -1.97949E+2   2.59018E+2
  -4.38090E+2  -3.86093E+2
  -2.31481E+2  -1.00974E+3
   5.27971E+2  -7.03462E+2
   6.96562E+2   2.61241E+2
   5.40094E+2   5.63243E+2
   2.05328E+2   4.80180E+2
   2.12648E+2   1.80021E+2
  -1.77046E+2   2.19296E+2
  -3.85267E+2   3.88038E+1
  -3.39855E+2  -2.50504E+2
   1.56751E+2  -2.35895E+2
   5.38388E+2  -8.42513E+1
   1.36061E+2   3.48369E+2
  -1.72424E+2   4.68465E+2
  -4.92052E+2   4.48062E+1
  -2.62831E+2  -1.69490E+2
  -1.22342E+2  -2.33041E+2
   2.36452E+2  -7.85545E+1
   7.06800E+1  -1.01444E+2
   1.50184E+2  -2.32555E+2
   1.33150E+2   9.81744E+0
   1.27336E+2   5.61829E+2
  -1.66573E+2   3.34656E+2
  -5.01686E+2  -7.56292E+1
  -4.72092E+2  -2.67656E+2
   3.14443E+2  -5.63987E+2
   4.42941E+2   2.46819E+2
   6.91141E+1   4.66919E+2
  -4.13513E+2   1.88036E+2
  -3.09270E+2  -2.01372E+2
  -1.68800E+2  -2.20356E+2
  -2.16877E+2  -1.22352E+2
  -1.12466E+2  -4.53455E+2
   1.17614E+2  -3.06434E+2
   2.95318E+2  -1.57497E+2
   5.56735E+2  -2.14629E+1
   2.12781E+2   5.46632E+2
  -3.41392E+2   2.11823E+2
  -2.60977E+2  -4.77372E+1
  -4.14023E+1  -5.38520E+2
  -2.31181E+2   3.07807E+1
  -3.19492E+2   9.14186E+1
  -3.03473E+2  -2.85520E+0
  -3.24064E+2  -2.09346E+2
  -7.62550E+1   1.50073E+2
  -2.64930E+2   4.94457E+1
  -2.70985E+2  -2.35836E+2
   1.35283E+2  -3.04142E+2
   2.07170E+2  -1.39709E+2
  -3.21993E+1   1.64121E+2
  -6.66189E+1   6.59822E+1
  -8.75229E+1   2.09476E+1
  -1.43585E+2  -6.20913E+1
   4.33532E+0  -8.85406E+1
  -2.49408E+1  -9.49317E+1
  -7.06202E+1   1.72845E+2
  -3.26700E+2  -7.60229E+1
  -9.26500E+1  -1.43031E+2
   1.46198E+1  -1.04349E+2
  -9.64828E+1   2.96743E+2
  -2.51220E+2   2.50930E+2
  -2.52293E+2  -2.08745E+2
   2.71343E+2  -1.89234E+2
   4.78024E+2   1.49994E+2
   1.20719E+2   2.74326E+2
  -6.22181E+2   1.85754E+2
  -2.23236E+2  -3.05592E+2
  -1.34676E+2  -2.93367E+2
   4.13542E+1  -1.65989E+2
   1.40953E+2   1.48862E+2
   2.68196E+2  -2.29765E+2
   2.36774E+2   1.95001E+2
   4.17690E+2   2.53373E+2
  -1.95486E+2   5.96872E+2
  -3.43575E+2   2.61620E+2
  -1.80791E+2  -8.21270E+1
  -7.20415E+1  -1.82105E+2
   2.81407E+2  -3.12729E+2
   1.63685E+2   2.65676E+1
   1.85404E+2   6.87341E+1
  -1.26807E+2  -5.38669E+1
  -6.47869E+1   8.29988E+1
  -2.00518E+2   2.45423E+1
  -1.18186E+2   1.54007E+1
   2.73238E+1  -3.01829E+2
   2.09698E+2  -3.81121E+2
   6.29970E+2   7.15687E+0
   1.60615E+2   1.94307E+2
  -1.53019E+2  -8.60170E+1
   7.81493E+1   2.78176E+1
   2.71194E+2  -9.32000E+1
  -1.93461E+1  -4.31207E+1
  -2.27595E+1  -1.61558E+2
  -6.48514E+1  -1.04395E+2
   4.86742E+1  -1.56193E+2
  -6.91768E+1  -1.51465E+2
  -5.26010E+0   1.20908E+2
  -4.40829E+2   2.05874E+2
  -5.74111E+2  -3.37620E+2
  -2.14235E+2  -5.56008E+2
  -6.12462E+1  -3.94362E+2
   2.03330E+2  -8.25665E+1
   1.40385E+2  -1.08478E+2
  -1.00892E+2  -2.19481E+2
   1.28667E+2  -1.00317E+2
  -9.71122E-1  -1.61734E+2
  -3.71272E+2   2.65803E+0
  -2.53551E+2  -8.27615E+1
  -1.26359E+2  -6.09535E+2
  -6.32285E+1  -4.14421E+2
  -1.10177E+2  -1.19803E+2
  -1.62542E+2   1.65184E+2
  -1.95348E+2  -8.58066E+1
  -6.44983E+1  -3.26824E+2
   1.32308E+2  -2.37260E+2
   1.82993E+2  -2.22931E+2
  -2.21380E+1  -2.92337E+1
  -1.87147E+2   8.96481E+1
   5.33901E+1  -1.50488E+2
  -1.06815E+2  -1.06006E+2
  -1.11289E+1  -5.25814E+1
  -3.08940E+2  -1.31093E+2
   4.66831E+1  -2.90899E+2
   2.38501E+2  -2.98440E+0
   1.00720E+2  -8.44478E+1
  -1.09165E+2   2.29899E+2
  -2.81041E+1  -1.41247E+2
  -1.45285E+2  -6.97056E+1
   1.56158E+2   9.91628E+1
   1.92973E+2   2.53434E+1
  -1.88653E+2  -3.26637E+1
  -1.11010E+2  -2.50933E+1
   1.34281E+2  -7.74035E+1
  -6.69020E+1   7.04376E+1
  -1.87317E+1   6.25883E+1
  -2.31293E+2   6.79885E+1
   3.28902E+1  -4.34102E+2
  -8.73003E+1  -3.62540E+2
  -1.63760E+1   9.54353E+1
   1.14243E+2   1.59453E+2
  -1.19599E+2   1.47953E+2
   1.42266E+2   1.64961E+2
  -9.75312E+1   5.21472E+1
  -2.65925E+2  -7.34904E+1
  -1.35584E+2   9.84237E+1
   4.80556E+1  -7.09111E+1
   6.38361E+1  -1.56814E+2
   1.67353E+2   2.04938E+2
   1.69426E+2   2.95288E+2
   7.51342E+1  -5.93415E+1
  -3.48132E+1  -6.80393E+1
  -1.17578E+2  -1.60540E+2
   1.70496E+2  -9.59002E+1
   7.92790E+1   5.55152E+1
   6.56385E+1   1.15484E+2
   1.84268E+2   1.04158E+2
  -1.93831E+2   3.07806E+0
  -3.73352E+1   1.92600E+2
  -1.47427E+1   7.61062E+1
  -1.10344E+1   1.33547E+1
   1.11929E+2  -3.35583E+1
   2.46135E+1   9.35197E+1
  -2.43706E+1  -5.02375E+1
   1.17435E+2   7.89590E+1
  -1.20365E+2   1.89921E+1
   4.69666E+1   1.47840E+2
  -7.66793E+1   7.03409E+0
   8.45710E+0   5.51181E+1
   5.18532E+1  -1.28593E+2
  -1.86882E+2  -1.11537E+2
  -9.05067E+1   8.23805E+1
   4.33890E+2   5.40911E+1
  -4.61897E+1   6.24160E+1
   8.21616E+1   8.34795E+1
  -7.90504E+1  -6.04118E+1
   1.42911E+2  -1.31873E+2
   2.08067E+2   1.89459E+2
  -2.99415E+1   7.16264E+1
   9.58342E+1  -2.85484E+2
   1.86375E+2   7.26957E+1
   1.10468E+2   8.65923E+1
   6.34399E+1   2.27908E+2
   7.33578E+0   1.30446E+2
   5.62252E+1   9.23436E+1
   8.96072E+1  -1.51851E+2
  -1.79709E+2  -7.86722E+1
   5.58058E+1   1.60407E+2
  -1.66621E+2  -8.01647E+1
  -8.46355E+1  -6.95502E+1
   1.90237E+2  -1.39263E+2
   1.55542E+2   1.24917E+2
   8.70127E+1   8.00711E+1
  -2.29896E+2   4.04349E+1
   1.27086E+2  -7.40660E+1
  -9.57456E+0   3.32259E+2
   9.44544E+1  -4.11046E+1
   5.03105E+1  -1.68814E+2
  -4.59236E+1  -1.68332E+2
  -1.00218E+2  -2.78625E+2
  -9.30028E+1   4.79812E+1
   8.10184E+1  -1.99079E+2
   4.89692E+1   5.34350E+1
  -1.94924E+1  -1.41654E+2
  -1.87489E+1   8.07786E+1
  -1.01732E+2  -5.63384E+1
  -4.09290E+0   1.75043E+2
  -2.55599E+2  -6.46323E+1
   4.23504E+1  -5.40918E+1
  -1.53901E+2   1.28985E+2
  -8.05626E+1   3.81770E+2
  -1.00410E+2   1.00867E+2
  -2.08864E+2   8.05572E+1
  -1.54266E+1  -9.10708E+1
   4.62823E+0   7.58126E+1
   3.07050E+2  -6.15605E+1
  -4.55698E+1   7.02831E+1
   2.42545E+2   7.50735E+1
  -2.57251E+2   6.18537E+1
  -8.68564E+0   2.30816E+2
   2.82269E+1   1.56430E+2
  -5.00046E+0  -1.46373E+2
   4.01226E+1   9.64554E+1
   9.34771E+1   1.06600E+2
  -5.27575E+0   3.64124E+1
   1.07584E+1   1.05420E+2
  -3.38287E+2   3.26879E+2
  -1.56683E+2   3.54124E+1
   5.87649E+1   1.22789E+1
  -2.44574E+1   7.83843E+1
  -1.10328E+2   2.21409E+1
  -1.35447E+2   3.00706E+1
   1.36441E+2   9.67947E+1
   1.26732E+2   7.12899E+1
  -9.68565E+1  -9.74235E+1
   6.04695E+1  -1.71299E+2
   2.06506E+2  -4.71116E+1
   1.23371E+1   2.94003E+1
   1.79487E+1   5.74932E+0
   2.20799E+2   1.34535E+2
   5.46765E+1  -2.41146E+0
   2.80025E+2  -1.12280E+2
  -1.05720E+1   7.51013E+1
  -6.53647E+1  -5.00184E+1
  -3.38063E+1   1.36939E+2
  -1.17570E+2  -1.41816E+2
   2.42163E+2   1.31891E+2
   1.27651E+2  -2.58787E+2
   7.25119E+1   3.43693E+2
  -7.41709E+1   1.41223E+2
  -3.79937E+1   2.36549E+2
   4.01666E+1  -1.14993E+1
