 LCModel (Version 6.3-1N) Copyright: S.W. Provencher.          Ref.: Magn. Reson. Med. 30:672-679 (1993).                
 Slice_N1@16_17  28-Feb-2025 11:38:13
 27 lines in following concentration table = NCONC+1
    Conc.  %SD /Cr+PCr  Metabolite                                         
 3.08E-04   3% 3.0E-04 Mac                                                 
    3.307  25%   3.250 Cr                                                  
    4.834  17%   4.750 PCr                                                 
    7.135  11%   7.012 Ins                                                 
   10.851   6%  10.664 NAA                                                 
    6.924  11%   6.804 Tau                                                 
    1.180  53%   1.159 PCho                                                
    0.615 101%   0.605 GPC                                                 
    7.717  11%   7.584 Glu                                                 
    3.317  20%   3.260 Gln                                                 
    2.965  20%   2.914 Ala                                                 
    1.458  69%   1.433 Asc                                                 
    2.943  31%   2.892 Asp                                                 
    1.017  46%   0.999 GABA                                                
    0.813  81%   0.799 Glc                                                 
    1.291  32%   1.268 GSH                                                 
    2.973  19%   2.921 Lac                                                 
    2.441  20%   2.399 NAAG                                                
    1.608  58%   1.580 PE                                                  
    1.795  14%   1.764 GPC+PCho                                            
   13.292   5%  13.062 NAA+NAAG                                            
   11.034  10%  10.844 Glu+Gln                                             
    8.140   7%   8.000 Cr+PCr                                              
   13.292   5%  13.062 NAA+NAAG                                            
    8.140   7%   8.000 Cr+PCr                                              
   11.034  10%  10.844 Glu+Gln                                             
   6 lines in following misc. output table
  FWHM = 0.024 ppm    S/N =   5                                            
  Data shift = 0.033 ppm                                                   
  Ph:-116 deg       0.0 deg/ppm                                            
  alphaB,S = 1.2E-01,   3.8E-01                                            
   19 spline knots.   Ns = 5(1)                                            
   2 inflections.     1 extrema                                            
  480 points on ppm-axis = NY
      4.100000     4.091866     4.083733     4.075600     4.067466     4.059333     4.051199     4.043066     4.034933     4.026799
      4.018666     4.010532     4.002399     3.994265     3.986132     3.977998     3.969864     3.961731     3.953597     3.945463
      3.937330     3.929196     3.921062     3.912929     3.904795     3.896662     3.888528     3.880394     3.872261     3.864127
      3.855993     3.847860     3.839726     3.831592     3.823459     3.815325     3.807191     3.799058     3.790924     3.782790
      3.774657     3.766523     3.758389     3.750256     3.742122     3.733989     3.725855     3.717721     3.709588     3.701454
      3.693320     3.685187     3.677053     3.668919     3.660786     3.652652     3.644518     3.636385     3.628251     3.620117
      3.611984     3.603850     3.595716     3.587583     3.579449     3.571316     3.563182     3.555048     3.546915     3.538781
      3.530647     3.522514     3.514380     3.506246     3.498113     3.489979     3.481845     3.473712     3.465578     3.457444
      3.449311     3.441177     3.433043     3.424910     3.416776     3.408643     3.400509     3.392375     3.384242     3.376108
      3.367974     3.359841     3.351707     3.343573     3.335440     3.327306     3.319172     3.311039     3.302905     3.294771
      3.286638     3.278504     3.270370     3.262237     3.254103     3.245970     3.237836     3.229702     3.221569     3.213435
      3.205301     3.197168     3.189034     3.180900     3.172767     3.164633     3.156499     3.148366     3.140232     3.132098
      3.123965     3.115831     3.107697     3.099564     3.091430     3.083297     3.075163     3.067029     3.058896     3.050762
      3.042628     3.034495     3.026361     3.018227     3.010094     3.001960     2.993826     2.985693     2.977559     2.969425
      2.961292     2.953158     2.945024     2.936891     2.928757     2.920624     2.912490     2.904356     2.896223     2.888089
      2.879955     2.871822     2.863688     2.855554     2.847421     2.839287     2.831153     2.823020     2.814886     2.806752
      2.798619     2.790485     2.782351     2.774218     2.766084     2.757951     2.749817     2.741683     2.733550     2.725416
      2.717282     2.709149     2.701015     2.692881     2.684748     2.676614     2.668480     2.660347     2.652213     2.644079
      2.635946     2.627812     2.619678     2.611545     2.603411     2.595278     2.587144     2.579010     2.570877     2.562743
      2.554609     2.546476     2.538342     2.530208     2.522075     2.513941     2.505807     2.497674     2.489540     2.481406
      2.473273     2.465139     2.457006     2.448872     2.440738     2.432605     2.424471     2.416337     2.408204     2.400070
      2.391936     2.383803     2.375669     2.367535     2.359402     2.351268     2.343134     2.335001     2.326867     2.318733
      2.310600     2.302466     2.294333     2.286199     2.278065     2.269932     2.261798     2.253664     2.245531     2.237397
      2.229263     2.221130     2.212996     2.204862     2.196729     2.188595     2.180461     2.172328     2.164194     2.156060
      2.147927     2.139793     2.131660     2.123526     2.115392     2.107259     2.099125     2.090991     2.082858     2.074724
      2.066590     2.058457     2.050323     2.042189     2.034056     2.025922     2.017788     2.009655     2.001521     1.993387
      1.985254     1.977120     1.968987     1.960853     1.952719     1.944586     1.936452     1.928318     1.920185     1.912051
      1.903917     1.895784     1.887650     1.879516     1.871383     1.863249     1.855115     1.846982     1.838848     1.830714
      1.822581     1.814447     1.806314     1.798180     1.790046     1.781913     1.773779     1.765645     1.757512     1.749378
      1.741244     1.733111     1.724977     1.716843     1.708710     1.700576     1.692442     1.684309     1.676175     1.668041
      1.659908     1.651774     1.643641     1.635507     1.627373     1.619240     1.611106     1.602972     1.594839     1.586705
      1.578571     1.570438     1.562304     1.554170     1.546037     1.537903     1.529769     1.521636     1.513502     1.505368
      1.497235     1.489101     1.480968     1.472834     1.464700     1.456567     1.448433     1.440299     1.432166     1.424032
      1.415898     1.407765     1.399631     1.391497     1.383364     1.375230     1.367096     1.358963     1.350829     1.342695
      1.334562     1.326428     1.318295     1.310161     1.302027     1.293894     1.285760     1.277626     1.269493     1.261359
      1.253225     1.245092     1.236958     1.228824     1.220691     1.212557     1.204423     1.196290     1.188156     1.180022
      1.171889     1.163755     1.155622     1.147488     1.139354     1.131221     1.123087     1.114953     1.106820     1.098686
      1.090552     1.082419     1.074285     1.066151     1.058018     1.049884     1.041750     1.033617     1.025483     1.017349
      1.009216     1.001082     0.992949     0.984815     0.976681     0.968548     0.960414     0.952280     0.944147     0.936013
      0.927879     0.919746     0.911612     0.903478     0.895345     0.887211     0.879077     0.870944     0.862810     0.854676
      0.846543     0.838409     0.830276     0.822142     0.814008     0.805875     0.797741     0.789607     0.781474     0.773340
      0.765206     0.757073     0.748939     0.740805     0.732672     0.724538     0.716404     0.708271     0.700137     0.692003
      0.683870     0.675736     0.667603     0.659469     0.651335     0.643202     0.635068     0.626934     0.618801     0.610667
      0.602533     0.594400     0.586266     0.578132     0.569999     0.561865     0.553731     0.545598     0.537464     0.529330
      0.521197     0.513063     0.504930     0.496796     0.488662     0.480529     0.472395     0.464261     0.456128     0.447994
      0.439861     0.431727     0.423593     0.415460     0.407326     0.399192     0.391059     0.382925     0.374792     0.366658
      0.358524     0.350391     0.342257     0.334124     0.325990     0.317856     0.309723     0.301589     0.293455     0.285322
      0.277188     0.269055     0.260921     0.252787     0.244654     0.236520     0.228386     0.220253     0.212119     0.203986
 NY phased data points follow
  -1.41462E+02 -1.42072E+02 -1.43153E+02 -1.54842E+02 -1.55012E+02 -1.54903E+02 -1.34249E+02 -1.34542E+02 -1.43697E+02 -1.44907E+02
  -1.48440E+02 -1.55981E+02 -1.58491E+02 -1.57192E+02 -1.74891E+02 -1.61369E+02 -1.69226E+02 -1.78314E+02 -1.76383E+02 -2.10992E+02
  -2.11673E+02 -1.64382E+02 -1.46587E+02 -1.48853E+02 -1.12647E+02 -8.82416E+01 -9.17882E+01 -1.01036E+02 -8.27640E+01 -7.52197E+01
  -9.04912E+01 -8.74909E+01 -9.27843E+01 -8.45785E+01 -8.02086E+01 -8.75569E+01 -8.66068E+01 -9.95990E+01 -1.24431E+02 -1.28310E+02
  -1.36011E+02 -1.30168E+02 -1.20132E+02 -1.33675E+02 -1.04425E+02 -7.48449E+01 -5.72671E+01 -5.25020E+01 -5.53237E+01 -4.77606E+01
  -4.18291E+01 -4.32925E+01 -5.54638E+01 -4.98013E+01 -7.69516E+01 -8.57597E+01 -7.97431E+01 -1.02434E+02 -1.09826E+02 -1.04571E+02
  -7.84182E+01 -8.30244E+01 -8.50804E+01 -5.96352E+01 -5.41196E+01 -5.58129E+01 -4.92734E+01 -5.23522E+01 -8.80212E+01 -1.15827E+02
  -1.13722E+02 -9.91738E+01 -8.32724E+01 -7.53221E+01 -6.82737E+01 -4.80223E+01 -4.20436E+01 -4.45833E+01 -4.31939E+01 -3.84648E+01
  -3.22064E+01 -5.14052E+01 -6.75639E+01 -9.05601E+01 -9.50087E+01 -7.97983E+01 -8.45536E+01 -6.10873E+01 -3.03172E+01 -3.57311E+01
  -4.42808E+01 -2.26157E+01 -2.07244E+01 -1.57403E+01  5.76273E-01 -5.88930E+00  6.43896E+00  5.18349E-01 -6.17376E+00 -2.59098E+00
  -4.39691E+00 -5.47776E+00 -2.61394E+01 -3.51924E+01 -4.94473E+01 -7.21922E+01 -8.67407E+01 -8.99660E+01 -8.95289E+01 -1.32922E+02
  -1.93682E+02 -2.02140E+02 -1.74645E+02 -1.48005E+02 -1.33224E+02 -1.22538E+02 -9.64018E+01 -9.46888E+01 -9.39139E+01 -8.49094E+01
  -7.33509E+01 -5.95573E+01 -6.27133E+01 -4.35132E+01 -4.33339E+01 -2.65704E+01 -8.01502E+00  3.79031E+00  2.64026E+01  3.00631E+01
   7.13520E+01  3.57803E+01 -5.71404E+01 -1.16634E+02 -1.32594E+02 -1.33966E+02 -1.37776E+02 -1.09754E+02 -1.24621E+02 -1.21073E+02
  -1.16955E+02 -1.14822E+02 -1.10785E+02 -1.17902E+02 -1.01983E+02 -1.23242E+02 -1.18002E+02 -1.16469E+02 -1.11026E+02 -1.06059E+02
  -1.13521E+02 -9.66389E+01 -9.74162E+01 -9.87182E+01 -1.04625E+02 -8.55324E+01 -8.46563E+01 -8.61710E+01 -8.79309E+01 -9.26442E+01
  -7.77411E+01 -8.42582E+01 -6.85388E+01 -7.91680E+01 -8.19039E+01 -7.81136E+01 -8.72783E+01 -7.49309E+01 -7.98387E+01 -6.90332E+01
  -5.73710E+01 -5.34765E+01 -3.97693E+01 -3.32739E+01 -5.22127E+01 -5.24165E+01 -3.65733E+01 -3.49227E+01 -4.97885E+01 -7.65282E+01
  -7.48481E+01 -9.00308E+01 -1.03275E+02 -1.01428E+02 -9.67337E+01 -9.54201E+01 -1.09546E+02 -9.82816E+01 -9.39936E+01 -9.50873E+01
  -8.17588E+01 -6.38583E+01 -7.16724E+01 -7.49375E+01 -5.72862E+01 -7.16277E+01 -7.06885E+01 -5.90730E+01 -5.61048E+01 -5.54404E+01
  -6.59849E+01 -6.06116E+01 -4.92015E+01 -4.97944E+01 -5.77902E+01 -6.35937E+01 -6.16049E+01 -7.29867E+01 -9.90765E+01 -8.82530E+01
  -6.95352E+01 -8.49779E+01 -8.59222E+01 -7.35666E+01 -5.57513E+01 -2.94620E+01 -2.12000E+01 -1.32963E+01 -1.64276E+01 -4.30311E+01
  -6.37451E+01 -7.17765E+01 -6.06145E+01 -6.58069E+01 -5.90142E+01 -3.74370E+01 -5.74115E+01 -5.18841E+01 -4.21122E+01 -4.74628E+01
  -5.61534E+01 -6.17157E+01 -5.07387E+01 -8.21854E+01 -8.67847E+01 -9.08434E+01 -1.12107E+02 -1.03099E+02 -1.18879E+02 -1.14016E+02
  -1.02220E+02 -9.31779E+01 -8.23382E+01 -7.49786E+01 -6.92086E+01 -7.96325E+01 -7.44327E+01 -7.87384E+01 -8.29674E+01 -9.82965E+01
  -1.01837E+02 -1.00025E+02 -1.12208E+02 -9.72614E+01 -1.12385E+02 -1.50554E+02 -1.49506E+02 -4.86033E+00  1.24891E+02  1.02663E+02
   9.98708E+01  8.76532E+01  7.01298E+01  6.23075E+01  4.68702E+01  4.50948E+01  3.79522E+01  4.55883E+01  3.04826E+01  2.47615E+01
   3.27340E+01  2.37908E+01  3.83550E+01  4.97573E+01  3.88775E+01  4.00394E+01  4.38247E+01  3.32625E+01  3.32367E+01  3.56360E+01
   1.80557E+01  1.42823E+01  3.62553E+01  2.52970E+01  1.76537E+01  2.52588E+01  2.22710E+01  2.94978E+01  1.54727E+01  1.87079E+01
   2.44330E+01  2.04601E+01  1.37724E+01 -5.97830E+00  2.20736E+00 -1.60798E+00 -1.95812E+00 -4.31649E+00 -1.97924E+01 -2.58258E+01
  -2.78520E+01 -1.23121E+01 -1.26852E+01 -1.50281E+01 -1.10434E+01 -1.09325E+01 -5.36186E+00 -3.48295E+00 -4.03313E+00 -6.20287E+00
  -1.34494E+01 -1.19945E+01 -1.62599E+01 -3.89675E+01 -3.32985E+01 -2.67179E+01 -2.11810E+01 -2.32380E+01 -4.44747E+01 -3.98219E+01
  -4.22506E+01 -4.84896E+01 -6.14359E+01 -6.60774E+01 -6.41804E+01 -8.38439E+01 -8.09148E+01 -8.31283E+01 -1.01439E+02 -9.29309E+01
  -8.84419E+01 -1.07832E+02 -9.60259E+01 -9.30756E+01 -1.09057E+02 -8.66588E+01 -7.44007E+01 -8.22165E+01 -7.34313E+01 -5.23545E+01
  -5.32769E+01 -6.31657E+01 -8.47102E+01 -9.56796E+01 -7.51851E+01 -8.48824E+01 -8.94087E+01 -9.09983E+01 -1.01335E+02 -9.97284E+01
  -9.24919E+01 -7.60502E+01 -8.47470E+01 -8.74297E+01 -7.97980E+01 -8.44271E+01 -9.04529E+01 -1.00234E+02 -9.25869E+01 -8.72278E+01
  -8.78759E+01 -7.17617E+01 -6.77958E+01 -7.25826E+01 -5.98990E+01 -6.13653E+01 -6.49148E+01 -4.31896E+01 -4.25118E+01 -3.88495E+01
  -2.37087E+01 -3.26643E+01 -2.90475E+01 -2.10976E+01 -1.12584E+01  1.67223E+00 -9.68815E-01 -3.25716E+00 -1.05231E+00  6.80124E+00
   1.58116E+01  2.79709E+01  2.78822E+01  4.18292E+01  5.58618E+01  4.88348E+01  6.95092E+01  7.55954E+01  7.32300E+01  7.38711E+01
   6.79695E+01  5.61997E+01  3.19661E+01  2.42821E+01  1.84330E+01  1.68618E+01  1.08641E+01  3.41681E+00 -1.16070E+01 -2.37787E+01
  -2.82850E+01 -4.12341E+01 -4.55236E+01 -6.58460E+01 -6.27621E+01 -6.08024E+01 -6.44459E+01 -5.73572E+01 -6.66889E+01 -5.96378E+01
  -6.94598E+01 -6.77150E+01 -5.71532E+01 -6.47884E+01 -6.59375E+01 -5.84224E+01 -5.95885E+01 -7.01258E+01 -5.99261E+01 -6.56193E+01
  -6.09937E+01 -5.52930E+01 -5.51066E+01 -5.20182E+01 -7.78241E+01 -6.37334E+01 -5.00649E+01 -6.79421E+01 -6.53867E+01 -5.95474E+01
  -5.52534E+01 -5.47941E+01 -6.65550E+01 -5.93448E+01 -5.18222E+01 -6.11365E+01 -5.42376E+01 -5.39769E+01 -4.72737E+01 -5.44854E+01
  -6.58821E+01 -5.57473E+01 -6.68499E+01 -5.33683E+01 -4.64772E+01 -6.28581E+01 -6.04872E+01 -5.50176E+01 -5.07921E+01 -5.82727E+01
  -5.37240E+01 -5.72967E+01 -6.71367E+01 -5.60065E+01 -5.66145E+01 -4.43878E+01 -4.48453E+01 -6.11422E+01 -4.36005E+01 -4.66794E+01
  -6.60357E+01 -5.14726E+01 -4.10621E+01 -5.99626E+01 -5.43795E+01 -5.05514E+01 -6.15491E+01 -4.75471E+01 -5.53340E+01 -5.23775E+01
  -4.49397E+01 -4.37247E+01 -3.63966E+01 -4.76267E+01 -3.65141E+01 -4.31025E+01 -5.21644E+01 -4.67110E+01 -5.46252E+01 -4.96821E+01
 NY points of the fit to the data follow
  -1.55312E+02 -1.57221E+02 -1.60680E+02 -1.65660E+02 -1.65588E+02 -1.49585E+02 -1.32066E+02 -1.29343E+02 -1.36919E+02 -1.43579E+02
  -1.49074E+02 -1.53823E+02 -1.56853E+02 -1.58332E+02 -1.60067E+02 -1.62901E+02 -1.65866E+02 -1.69213E+02 -1.77783E+02 -1.94203E+02
  -1.92397E+02 -1.60015E+02 -1.40618E+02 -1.38032E+02 -1.08040E+02 -9.06187E+01 -9.20967E+01 -8.64000E+01 -8.12597E+01 -7.83510E+01
  -7.84602E+01 -7.94418E+01 -8.02320E+01 -8.24445E+01 -8.67381E+01 -9.20625E+01 -9.71143E+01 -1.03193E+02 -1.12864E+02 -1.28432E+02
  -1.42901E+02 -1.41193E+02 -1.23998E+02 -1.09956E+02 -9.32462E+01 -7.63905E+01 -6.51832E+01 -6.06403E+01 -5.76781E+01 -5.67963E+01
  -5.82795E+01 -6.01688E+01 -6.33584E+01 -6.90906E+01 -7.89032E+01 -9.01824E+01 -9.46924E+01 -9.43755E+01 -1.04366E+02 -1.11262E+02
  -9.42551E+01 -8.45801E+01 -8.78551E+01 -7.00313E+01 -5.32245E+01 -5.09504E+01 -4.79927E+01 -5.39144E+01 -7.69326E+01 -1.02538E+02
  -1.02456E+02 -8.72805E+01 -8.61888E+01 -7.99180E+01 -5.93700E+01 -4.56072E+01 -3.97432E+01 -3.52316E+01 -3.18845E+01 -3.11227E+01
  -3.70211E+01 -4.89526E+01 -6.57694E+01 -8.38153E+01 -9.32099E+01 -8.82702E+01 -8.05116E+01 -6.22014E+01 -5.06422E+01 -4.23539E+01
  -3.51563E+01 -2.91859E+01 -2.38810E+01 -1.87536E+01 -1.42591E+01 -1.03290E+01 -6.12790E+00 -2.41497E+00 -3.86272E+00 -6.37911E+00
  -1.73970E+00 -1.09946E+00 -1.89490E+01 -3.54344E+01 -4.98817E+01 -7.53567E+01 -8.78854E+01 -7.80382E+01 -8.65214E+01 -1.28417E+02
  -1.91888E+02 -1.98894E+02 -1.63606E+02 -1.46756E+02 -1.30114E+02 -1.16720E+02 -1.05836E+02 -9.63149E+01 -8.76422E+01 -8.00095E+01
  -7.24027E+01 -6.44702E+01 -5.60260E+01 -4.66380E+01 -3.56295E+01 -2.27529E+01 -7.71417E+00  7.04045E+00  1.99303E+01  3.93948E+01
   6.34453E+01  4.06839E+01 -5.32583E+01 -1.30302E+02 -1.34582E+02 -1.31410E+02 -1.32198E+02 -1.28709E+02 -1.26547E+02 -1.26138E+02
  -1.24884E+02 -1.24281E+02 -1.24093E+02 -1.23531E+02 -1.22769E+02 -1.21652E+02 -1.18973E+02 -1.15510E+02 -1.12046E+02 -1.08713E+02
  -1.05763E+02 -1.02782E+02 -1.00716E+02 -9.81273E+01 -9.42739E+01 -9.03912E+01 -8.82953E+01 -8.82645E+01 -8.81025E+01 -8.59902E+01
  -8.17258E+01 -7.82974E+01 -7.97531E+01 -8.38899E+01 -8.48330E+01 -8.21879E+01 -7.91517E+01 -7.85820E+01 -8.04928E+01 -7.89313E+01
  -6.73617E+01 -4.88621E+01 -4.00463E+01 -5.00306E+01 -6.06585E+01 -5.45248E+01 -4.09654E+01 -3.91048E+01 -5.27416E+01 -6.87870E+01
  -7.68040E+01 -8.06512E+01 -8.62822E+01 -8.92744E+01 -9.06733E+01 -9.12153E+01 -9.08745E+01 -9.01106E+01 -8.88794E+01 -8.66680E+01
  -8.31391E+01 -8.06081E+01 -7.97596E+01 -7.09039E+01 -5.75095E+01 -5.93252E+01 -6.36443E+01 -5.40210E+01 -4.93672E+01 -5.11180E+01
  -5.42965E+01 -5.46271E+01 -4.60750E+01 -4.67771E+01 -5.44344E+01 -5.93086E+01 -6.39520E+01 -6.95708E+01 -7.71783E+01 -8.23067E+01
  -8.49204E+01 -8.59721E+01 -8.18006E+01 -7.29296E+01 -5.85078E+01 -3.68480E+01 -2.24926E+01 -2.24667E+01 -1.92173E+01 -2.65005E+01
  -3.75550E+01 -3.80122E+01 -3.74317E+01 -3.40398E+01 -3.04973E+01 -3.03965E+01 -3.23219E+01 -3.79281E+01 -4.73386E+01 -5.71426E+01
  -6.84849E+01 -8.02768E+01 -8.99327E+01 -9.83713E+01 -1.06381E+02 -1.10722E+02 -1.10853E+02 -1.12113E+02 -1.08864E+02 -1.02821E+02
  -1.00657E+02 -9.55559E+01 -8.73982E+01 -8.13479E+01 -7.55621E+01 -7.20056E+01 -7.39670E+01 -7.65156E+01 -8.36042E+01 -8.88877E+01
  -9.65421E+01 -1.13460E+02 -1.20919E+02 -1.06766E+02 -1.06657E+02 -1.56677E+02 -1.52182E+02 -1.18705E+01  1.01257E+02  8.95149E+01
   8.93047E+01  8.12237E+01  7.08032E+01  6.29102E+01  5.71023E+01  5.16619E+01  4.59602E+01  4.06213E+01  3.56518E+01  3.18072E+01
   2.95995E+01  2.88085E+01  2.83178E+01  2.93263E+01  2.95587E+01  2.97647E+01  2.95868E+01  2.83823E+01  2.77644E+01  2.60403E+01
   2.37784E+01  2.09433E+01  1.82512E+01  1.57931E+01  1.30060E+01  9.76965E+00  6.75898E+00  3.69958E+00  1.40213E-01 -3.85722E+00
  -8.55428E+00 -1.31224E+01 -1.76947E+01 -2.26211E+01 -2.65702E+01 -2.86506E+01 -2.91122E+01 -2.81876E+01 -2.66030E+01 -2.49634E+01
  -2.31021E+01 -2.07569E+01 -1.83079E+01 -1.61731E+01 -1.40773E+01 -1.23313E+01 -1.07845E+01 -8.94936E+00 -6.48027E+00 -4.05856E+00
  -2.21895E+00 -6.64060E-01  7.52371E-01  2.30396E+00  3.93880E+00  4.71802E+00  5.22659E+00  5.34760E+00  4.45740E+00  3.27806E+00
   1.09653E-02 -1.42866E+01 -3.65463E+01 -5.26725E+01 -6.37316E+01 -7.35419E+01 -6.99121E+01 -7.14146E+01 -7.79775E+01 -8.40481E+01
  -9.01646E+01 -9.54271E+01 -9.88047E+01 -9.94130E+01 -9.69814E+01 -9.17618E+01 -8.49288E+01 -7.84061E+01 -7.20046E+01 -6.48494E+01
  -5.95813E+01 -6.39531E+01 -7.67231E+01 -8.67875E+01 -9.34797E+01 -9.65348E+01 -8.55650E+01 -8.05256E+01 -7.63552E+01 -7.33313E+01
  -7.24773E+01 -7.32151E+01 -7.50974E+01 -7.84564E+01 -8.24427E+01 -8.54357E+01 -8.67050E+01 -8.65664E+01 -8.52382E+01 -8.24436E+01
  -7.89798E+01 -7.47481E+01 -7.00386E+01 -6.54279E+01 -6.07849E+01 -5.63886E+01 -5.22122E+01 -4.82334E+01 -4.42715E+01 -4.00952E+01
  -3.59827E+01 -3.19543E+01 -2.76190E+01 -2.32234E+01 -1.85578E+01 -1.27901E+01 -6.62445E+00 -5.18637E-01  6.80771E+00  1.51133E+01
   2.29042E+01  3.10257E+01  4.04113E+01  4.96584E+01  5.77130E+01  6.41158E+01  6.77340E+01  6.67159E+01  6.06802E+01  5.05324E+01
   3.91532E+01  2.88860E+01  2.00703E+01  1.23401E+01  6.02788E+00  6.60195E-02 -7.63386E+00 -1.65780E+01 -2.57123E+01 -3.48232E+01
  -4.36081E+01 -5.00488E+01 -5.47213E+01 -5.87057E+01 -6.14562E+01 -6.30419E+01 -6.38243E+01 -6.45352E+01 -6.52446E+01 -6.58815E+01
  -6.64563E+01 -6.65205E+01 -6.61714E+01 -6.58852E+01 -6.57375E+01 -6.52744E+01 -6.44251E+01 -6.42569E+01 -6.45191E+01 -6.41280E+01
  -6.28677E+01 -6.23688E+01 -6.24943E+01 -6.20717E+01 -6.14553E+01 -6.09828E+01 -6.09362E+01 -6.07903E+01 -6.00851E+01 -5.91789E+01
  -5.87756E+01 -5.86866E+01 -5.85098E+01 -5.85241E+01 -5.83050E+01 -5.78208E+01 -5.73173E+01 -5.69081E+01 -5.63404E+01 -5.58277E+01
  -5.56320E+01 -5.51880E+01 -5.48066E+01 -5.46818E+01 -5.49781E+01 -5.50124E+01 -5.46071E+01 -5.41172E+01 -5.38312E+01 -5.34669E+01
  -5.31464E+01 -5.32743E+01 -5.31893E+01 -5.25241E+01 -5.20860E+01 -5.17834E+01 -5.13555E+01 -5.10786E+01 -5.08691E+01 -5.04505E+01
  -5.02020E+01 -5.00533E+01 -5.00871E+01 -5.00562E+01 -4.99348E+01 -4.96167E+01 -4.92566E+01 -4.84619E+01 -4.76389E+01 -4.73232E+01
  -4.73681E+01 -4.76513E+01 -4.76963E+01 -4.74256E+01 -4.69736E+01 -4.69114E+01 -4.66874E+01 -4.61434E+01 -4.60721E+01 -4.61602E+01
 NY background values follow
    -1.250E+02   -1.243E+02   -1.237E+02   -1.231E+02   -1.225E+02   -1.219E+02   -1.212E+02   -1.206E+02   -1.200E+02   -1.193E+02
    -1.187E+02   -1.181E+02   -1.174E+02   -1.168E+02   -1.162E+02   -1.155E+02   -1.149E+02   -1.142E+02   -1.136E+02   -1.129E+02
    -1.123E+02   -1.116E+02   -1.110E+02   -1.103E+02   -1.096E+02   -1.090E+02   -1.083E+02   -1.076E+02   -1.070E+02   -1.063E+02
    -1.056E+02   -1.049E+02   -1.043E+02   -1.036E+02   -1.029E+02   -1.022E+02   -1.015E+02   -1.008E+02   -1.002E+02   -9.947E+01
    -9.878E+01   -9.810E+01   -9.741E+01   -9.673E+01   -9.605E+01   -9.536E+01   -9.468E+01   -9.401E+01   -9.333E+01   -9.265E+01
    -9.198E+01   -9.131E+01   -9.065E+01   -8.999E+01   -8.933E+01   -8.867E+01   -8.802E+01   -8.738E+01   -8.673E+01   -8.610E+01
    -8.547E+01   -8.484E+01   -8.422E+01   -8.360E+01   -8.299E+01   -8.239E+01   -8.179E+01   -8.119E+01   -8.060E+01   -8.001E+01
    -7.943E+01   -7.886E+01   -7.829E+01   -7.772E+01   -7.716E+01   -7.660E+01   -7.605E+01   -7.550E+01   -7.496E+01   -7.442E+01
    -7.389E+01   -7.336E+01   -7.283E+01   -7.231E+01   -7.179E+01   -7.128E+01   -7.077E+01   -7.027E+01   -6.977E+01   -6.927E+01
    -6.878E+01   -6.829E+01   -6.781E+01   -6.733E+01   -6.686E+01   -6.638E+01   -6.592E+01   -6.545E+01   -6.500E+01   -6.454E+01
    -6.409E+01   -6.365E+01   -6.321E+01   -6.277E+01   -6.234E+01   -6.191E+01   -6.149E+01   -6.108E+01   -6.067E+01   -6.026E+01
    -5.986E+01   -5.946E+01   -5.907E+01   -5.868E+01   -5.830E+01   -5.793E+01   -5.756E+01   -5.719E+01   -5.683E+01   -5.648E+01
    -5.613E+01   -5.579E+01   -5.545E+01   -5.512E+01   -5.479E+01   -5.447E+01   -5.416E+01   -5.386E+01   -5.356E+01   -5.326E+01
    -5.298E+01   -5.269E+01   -5.242E+01   -5.216E+01   -5.190E+01   -5.164E+01   -5.140E+01   -5.116E+01   -5.093E+01   -5.071E+01
    -5.050E+01   -5.029E+01   -5.009E+01   -4.990E+01   -4.972E+01   -4.955E+01   -4.939E+01   -4.923E+01   -4.908E+01   -4.894E+01
    -4.882E+01   -4.869E+01   -4.858E+01   -4.848E+01   -4.838E+01   -4.829E+01   -4.821E+01   -4.814E+01   -4.807E+01   -4.801E+01
    -4.795E+01   -4.790E+01   -4.785E+01   -4.780E+01   -4.777E+01   -4.773E+01   -4.770E+01   -4.767E+01   -4.764E+01   -4.761E+01
    -4.759E+01   -4.757E+01   -4.755E+01   -4.752E+01   -4.750E+01   -4.748E+01   -4.746E+01   -4.744E+01   -4.741E+01   -4.739E+01
    -4.736E+01   -4.733E+01   -4.729E+01   -4.726E+01   -4.722E+01   -4.718E+01   -4.713E+01   -4.708E+01   -4.703E+01   -4.697E+01
    -4.691E+01   -4.684E+01   -4.677E+01   -4.670E+01   -4.662E+01   -4.653E+01   -4.644E+01   -4.635E+01   -4.625E+01   -4.614E+01
    -4.603E+01   -4.591E+01   -4.579E+01   -4.566E+01   -4.552E+01   -4.538E+01   -4.522E+01   -4.507E+01   -4.490E+01   -4.473E+01
    -4.455E+01   -4.436E+01   -4.417E+01   -4.396E+01   -4.376E+01   -4.355E+01   -4.333E+01   -4.311E+01   -4.289E+01   -4.266E+01
    -4.243E+01   -4.220E+01   -4.197E+01   -4.174E+01   -4.151E+01   -4.128E+01   -4.106E+01   -4.083E+01   -4.061E+01   -4.039E+01
    -4.018E+01   -3.997E+01   -3.976E+01   -3.956E+01   -3.937E+01   -3.918E+01   -3.901E+01   -3.884E+01   -3.868E+01   -3.853E+01
    -3.839E+01   -3.826E+01   -3.814E+01   -3.803E+01   -3.793E+01   -3.785E+01   -3.778E+01   -3.773E+01   -3.769E+01   -3.766E+01
    -3.765E+01   -3.765E+01   -3.768E+01   -3.771E+01   -3.777E+01   -3.784E+01   -3.793E+01   -3.804E+01   -3.817E+01   -3.832E+01
    -3.849E+01   -3.869E+01   -3.890E+01   -3.913E+01   -3.939E+01   -3.967E+01   -3.997E+01   -4.030E+01   -4.065E+01   -4.103E+01
    -4.143E+01   -4.186E+01   -4.231E+01   -4.279E+01   -4.329E+01   -4.381E+01   -4.435E+01   -4.492E+01   -4.550E+01   -4.610E+01
    -4.673E+01   -4.736E+01   -4.802E+01   -4.869E+01   -4.938E+01   -5.008E+01   -5.080E+01   -5.153E+01   -5.227E+01   -5.302E+01
    -5.379E+01   -5.456E+01   -5.535E+01   -5.614E+01   -5.694E+01   -5.774E+01   -5.856E+01   -5.938E+01   -6.020E+01   -6.103E+01
    -6.186E+01   -6.269E+01   -6.352E+01   -6.435E+01   -6.519E+01   -6.601E+01   -6.683E+01   -6.765E+01   -6.846E+01   -6.926E+01
    -7.005E+01   -7.083E+01   -7.159E+01   -7.234E+01   -7.307E+01   -7.379E+01   -7.449E+01   -7.517E+01   -7.583E+01   -7.646E+01
    -7.707E+01   -7.766E+01   -7.822E+01   -7.875E+01   -7.925E+01   -7.972E+01   -8.016E+01   -8.057E+01   -8.094E+01   -8.127E+01
    -8.157E+01   -8.183E+01   -8.205E+01   -8.223E+01   -8.238E+01   -8.250E+01   -8.258E+01   -8.263E+01   -8.264E+01   -8.262E+01
    -8.258E+01   -8.250E+01   -8.239E+01   -8.225E+01   -8.208E+01   -8.188E+01   -8.166E+01   -8.141E+01   -8.114E+01   -8.084E+01
    -8.051E+01   -8.016E+01   -7.979E+01   -7.940E+01   -7.898E+01   -7.854E+01   -7.808E+01   -7.761E+01   -7.711E+01   -7.660E+01
    -7.606E+01   -7.551E+01   -7.495E+01   -7.437E+01   -7.377E+01   -7.317E+01   -7.255E+01   -7.192E+01   -7.128E+01   -7.063E+01
    -6.998E+01   -6.932E+01   -6.865E+01   -6.797E+01   -6.730E+01   -6.662E+01   -6.594E+01   -6.525E+01   -6.457E+01   -6.389E+01
    -6.321E+01   -6.253E+01   -6.186E+01   -6.119E+01   -6.053E+01   -5.988E+01   -5.923E+01   -5.859E+01   -5.797E+01   -5.735E+01
    -5.674E+01   -5.615E+01   -5.557E+01   -5.500E+01   -5.445E+01   -5.390E+01   -5.337E+01   -5.285E+01   -5.235E+01   -5.185E+01
    -5.137E+01   -5.090E+01   -5.044E+01   -5.000E+01   -4.957E+01   -4.915E+01   -4.874E+01   -4.835E+01   -4.796E+01   -4.760E+01
    -4.724E+01   -4.690E+01   -4.656E+01   -4.625E+01   -4.594E+01   -4.565E+01   -4.537E+01   -4.510E+01   -4.484E+01   -4.460E+01
    -4.437E+01   -4.416E+01   -4.395E+01   -4.376E+01   -4.358E+01   -4.341E+01   -4.325E+01   -4.310E+01   -4.297E+01   -4.284E+01
    -4.272E+01   -4.260E+01   -4.250E+01   -4.241E+01   -4.232E+01   -4.224E+01   -4.217E+01   -4.210E+01   -4.204E+01   -4.199E+01
    -4.194E+01   -4.189E+01   -4.185E+01   -4.182E+01   -4.179E+01   -4.176E+01   -4.173E+01   -4.171E+01   -4.169E+01   -4.167E+01
    -4.166E+01   -4.164E+01   -4.163E+01   -4.162E+01   -4.161E+01   -4.160E+01   -4.159E+01   -4.158E+01   -4.158E+01   -4.157E+01
    -4.157E+01   -4.156E+01   -4.156E+01   -4.156E+01   -4.156E+01   -4.156E+01   -4.156E+01   -4.156E+01   -4.156E+01   -4.156E+01
    -4.157E+01   -4.157E+01   -4.157E+01   -4.157E+01   -4.158E+01   -4.158E+01   -4.158E+01   -4.159E+01   -4.159E+01   -4.159E+01
 Mac      Conc. = 3.08E-04
  -1.47017E+02 -1.46884E+02 -1.46493E+02 -1.46092E+02 -1.45930E+02 -1.46440E+02 -1.47461E+02 -1.48777E+02 -1.50033E+02 -1.50874E+02
  -1.51046E+02 -1.50739E+02 -1.50204E+02 -1.49679E+02 -1.49746E+02 -1.51439E+02 -1.52835E+02 -1.51046E+02 -1.45265E+02 -1.39531E+02
  -1.35671E+02 -1.30830E+02 -1.26312E+02 -1.23993E+02 -1.22432E+02 -1.20444E+02 -1.18146E+02 -1.15550E+02 -1.12735E+02 -1.09889E+02
  -1.07768E+02 -1.05906E+02 -1.04203E+02 -1.02956E+02 -1.02587E+02 -1.02592E+02 -1.01564E+02 -9.88887E+01 -9.50715E+01 -9.21972E+01
  -9.13250E+01 -9.12341E+01 -9.03487E+01 -8.85169E+01 -8.62428E+01 -8.42126E+01 -8.33369E+01 -8.31648E+01 -8.32880E+01 -8.39624E+01
  -8.49480E+01 -8.57073E+01 -8.57023E+01 -8.56872E+01 -8.55679E+01 -8.52709E+01 -8.44680E+01 -8.23972E+01 -8.00541E+01 -7.84408E+01
  -7.65818E+01 -7.40975E+01 -7.28424E+01 -7.27030E+01 -7.28984E+01 -7.34485E+01 -7.36203E+01 -7.31377E+01 -7.31532E+01 -7.30211E+01
  -7.14574E+01 -6.78608E+01 -6.45232E+01 -6.23182E+01 -6.07480E+01 -5.96352E+01 -5.93213E+01 -5.95575E+01 -5.98796E+01 -6.00194E+01
  -5.99238E+01 -5.99629E+01 -5.98471E+01 -5.89008E+01 -5.74755E+01 -5.61849E+01 -5.48058E+01 -5.33016E+01 -5.22448E+01 -5.11763E+01
  -5.03622E+01 -4.93520E+01 -4.88605E+01 -4.84628E+01 -4.85774E+01 -4.97283E+01 -5.16796E+01 -5.37369E+01 -5.62888E+01 -5.82559E+01
  -5.94278E+01 -6.10718E+01 -6.37508E+01 -6.67428E+01 -7.03954E+01 -7.58199E+01 -8.27736E+01 -8.94827E+01 -9.34742E+01 -9.42183E+01
