 
 $NMID
 ID=''
 FMTDAT='(2E13.5)'
 TRAMP=   1.00000E+0
 VOLUME=   1.00000E+0
 $END
   2.00821E+5   7.44542E+5
  -2.50680E+5   1.99976E+6
  -6.27434E+4   1.96166E+6
  -1.45518E+5   1.85996E+6
  -1.42130E+5   1.93480E+6
  -3.37945E+4   1.89888E+6
  -4.23763E+4   1.85325E+6
  -4.85728E+4   1.89402E+6
  -1.70828E+4   1.86224E+6
  -5.24508E+4   1.82859E+6
  -6.01606E+4   1.84351E+6
  -4.60737E+4   1.80949E+6
  -7.46453E+4   1.78549E+6
  -8.72654E+4   1.79305E+6
  -9.33205E+4   1.75826E+6
  -1.19412E+5   1.73453E+6
  -1.17502E+5   1.74012E+6
  -1.08248E+5   1.71582E+6
  -1.16298E+5   1.69529E+6
  -9.75305E+4   1.69303E+6
  -8.64074E+4   1.67017E+6
  -9.56018E+4   1.65372E+6
  -8.89256E+4   1.64686E+6
  -8.42407E+4   1.62414E+6
  -9.63184E+4   1.60630E+6
  -9.08733E+4   1.59425E+6
  -9.78146E+4   1.57394E+6
  -1.18448E+5   1.55774E+6
  -1.26366E+5   1.54050E+6
  -1.26521E+5   1.51758E+6
  -1.32732E+5   1.50489E+6
  -1.28642E+5   1.49076E+6
  -1.25858E+5   1.46892E+6
  -1.24227E+5   1.45369E+6
  -1.13708E+5   1.43776E+6
  -1.01226E+5   1.42033E+6
  -9.37715E+4   1.40922E+6
  -8.78638E+4   1.39520E+6
  -8.61089E+4   1.37390E+6
  -8.62164E+4   1.35883E+6
  -8.68111E+4   1.34235E+6
  -8.94821E+4   1.32180E+6
  -9.03571E+4   1.30352E+6
  -9.11403E+4   1.28784E+6
  -9.60097E+4   1.26906E+6
  -9.90080E+4   1.25317E+6
  -9.92065E+4   1.23675E+6
  -1.00899E+5   1.21919E+6
  -9.92532E+4   1.20032E+6
  -9.44572E+4   1.18383E+6
  -9.07326E+4   1.16890E+6
  -8.82877E+4   1.15411E+6
  -8.51906E+4   1.13813E+6
  -8.24436E+4   1.12282E+6
  -8.12894E+4   1.10725E+6
  -8.13787E+4   1.09084E+6
  -8.27160E+4   1.07397E+6
  -8.32752E+4   1.05707E+6
  -8.25077E+4   1.03992E+6
  -8.18156E+4   1.02425E+6
  -8.24623E+4   1.00920E+6
  -8.19428E+4   9.93259E+5
  -8.14841E+4   9.78361E+5
  -8.12344E+4   9.62841E+5
  -7.95706E+4   9.46309E+5
  -7.70394E+4   9.30400E+5
  -7.47267E+4   9.15206E+5
  -7.29034E+4   8.99827E+5
  -7.12684E+4   8.86061E+5
  -7.08624E+4   8.72371E+5
  -7.15826E+4   8.57330E+5
  -7.10937E+4   8.41444E+5
  -6.96356E+4   8.27109E+5
  -6.97402E+4   8.13690E+5
  -7.01231E+4   7.99407E+5
  -6.95790E+4   7.84343E+5
  -6.80143E+4   7.70579E+5
  -6.74549E+4   7.57329E+5
  -6.69283E+4   7.43734E+5
  -6.60326E+4   7.30057E+5
  -6.52686E+4   7.16528E+5
  -6.42694E+4   7.03293E+5
  -6.40309E+4   6.90502E+5
  -6.38260E+4   6.77675E+5
  -6.44827E+4   6.64320E+5
  -6.51041E+4   6.51369E+5
  -6.51846E+4   6.38882E+5
  -6.51325E+4   6.26681E+5
  -6.57197E+4   6.14369E+5
  -6.57930E+4   6.02409E+5
  -6.49044E+4   5.90158E+5
  -6.40317E+4   5.79011E+5
  -6.37827E+4   5.67981E+5
  -6.32920E+4   5.56671E+5
  -6.24828E+4   5.45292E+5
  -6.07173E+4   5.34511E+5
  -5.96125E+4   5.24737E+5
  -5.90356E+4   5.15211E+5
  -5.85597E+4   5.05132E+5
  -5.78455E+4   4.95045E+5
  -5.73645E+4   4.85651E+5
  -5.78190E+4   4.76542E+5
  -5.80845E+4   4.66787E+5
  -5.74692E+4   4.56987E+5
  -5.66345E+4   4.47416E+5
  -5.61324E+4   4.39432E+5
  -5.58356E+4   4.31074E+5
  -5.58441E+4   4.22699E+5
  -5.53776E+4   4.14140E+5
  -5.43061E+4   4.05541E+5
  -5.31370E+4   3.97775E+5
  -5.26695E+4   3.91051E+5
  -5.26111E+4   3.83814E+5
  -5.24590E+4   3.75966E+5
  -5.19508E+4   3.68767E+5
  -5.19172E+4   3.61983E+5
  -5.17906E+4   3.55168E+5
  -5.17319E+4   3.47719E+5
  -5.08867E+4   3.40760E+5
  -4.98789E+4   3.34252E+5
  -4.89473E+4   3.28138E+5
  -4.85466E+4   3.22477E+5
  -4.80562E+4   3.16276E+5
  -4.75577E+4   3.10648E+5
  -4.71077E+4   3.04843E+5
  -4.68933E+4   2.98541E+5
  -4.59370E+4   2.92738E+5
  -4.54141E+4   2.87543E+5
  -4.50479E+4   2.82453E+5
  -4.45077E+4   2.76834E+5
  -4.47208E+4   2.71590E+5
  -4.50012E+4   2.66352E+5
  -4.46453E+4   2.60921E+5
  -4.41065E+4   2.55856E+5
  -4.37151E+4   2.51276E+5
  -4.38217E+4   2.46408E+5
  -4.32886E+4   2.41389E+5
  -4.24231E+4   2.37074E+5
  -4.23167E+4   2.32802E+5
  -4.19398E+4   2.28568E+5
  -4.20226E+4   2.23535E+5
  -4.15063E+4   2.19203E+5
  -4.06673E+4   2.14820E+5
  -3.98895E+4   2.10886E+5
  -4.00368E+4   2.06662E+5
  -3.97217E+4   2.02563E+5
  -3.90890E+4   1.98145E+5
  -3.91278E+4   1.94419E+5
  -3.86778E+4   1.90243E+5
  -3.81819E+4   1.86430E+5
  -3.73767E+4   1.82818E+5
  -3.71504E+4   1.78826E+5
  -3.67253E+4   1.75541E+5
  -3.61131E+4   1.72054E+5
  -3.58356E+4   1.68784E+5
  -3.53648E+4   1.64952E+5
  -3.43901E+4   1.61688E+5
  -3.38040E+4   1.58272E+5
  -3.35226E+4   1.55253E+5
  -3.31878E+4   1.51963E+5
  -3.21763E+4   1.49079E+5
  -3.20650E+4   1.45723E+5
  -3.17176E+4   1.42675E+5
  -3.09731E+4   1.39593E+5
  -3.03431E+4   1.36653E+5
  -2.99106E+4   1.33584E+5
  -2.95909E+4   1.31194E+5
  -2.91805E+4   1.28377E+5
  -2.91060E+4   1.25724E+5
  -2.81230E+4   1.23125E+5
  -2.77648E+4   1.20587E+5
  -2.73615E+4   1.18122E+5
  -2.68680E+4   1.15455E+5
  -2.66609E+4   1.13488E+5
  -2.65423E+4   1.10721E+5
  -2.59421E+4   1.08661E+5
  -2.55920E+4   1.06665E+5
  -2.56255E+4   1.04226E+5
  -2.50443E+4   1.01865E+5
  -2.48688E+4   1.00275E+5
  -2.43174E+4   9.82196E+4
  -2.43637E+4   9.63737E+4
  -2.39831E+4   9.46131E+4
  -2.39152E+4   9.26530E+4
  -2.36782E+4   9.07078E+4
  -2.33905E+4   8.90254E+4
  -2.31266E+4   8.75290E+4
  -2.25363E+4   8.58371E+4
  -2.23133E+4   8.42385E+4
  -2.20608E+4   8.28751E+4
  -2.17332E+4   8.17203E+4
  -2.16533E+4   7.99881E+4
  -2.16574E+4   7.82662E+4
  -2.12316E+4   7.67987E+4
  -2.10620E+4   7.53454E+4
  -2.09939E+4   7.43270E+4
  -2.05879E+4   7.29358E+4
  -2.04413E+4   7.16281E+4
  -2.00927E+4   7.06059E+4
  -2.04021E+4   6.94214E+4
  -2.00884E+4   6.81102E+4
  -1.95378E+4   6.69359E+4
  -1.91803E+4   6.57190E+4
  -1.90335E+4   6.47788E+4
  -1.90649E+4   6.36278E+4
  -1.88595E+4   6.25916E+4
  -1.87384E+4   6.13739E+4
  -1.84634E+4   6.03563E+4
  -1.85825E+4   5.94281E+4
  -1.82411E+4   5.82037E+4
  -1.79531E+4   5.74211E+4
  -1.76068E+4   5.64689E+4
  -1.74121E+4   5.58369E+4
  -1.72085E+4   5.48827E+4
  -1.72781E+4   5.37678E+4
  -1.67811E+4   5.29247E+4
  -1.66817E+4   5.19577E+4
  -1.61899E+4   5.10332E+4
  -1.60761E+4   5.02981E+4
  -1.58366E+4   4.95599E+4
  -1.56483E+4   4.85769E+4
  -1.55397E+4   4.79573E+4
  -1.52439E+4   4.71807E+4
  -1.50495E+4   4.64627E+4
  -1.49100E+4   4.54623E+4
  -1.46957E+4   4.46452E+4
  -1.43105E+4   4.41726E+4
  -1.41794E+4   4.35245E+4
  -1.41502E+4   4.23986E+4
  -1.41327E+4   4.18923E+4
  -1.35682E+4   4.12030E+4
  -1.34276E+4   4.04895E+4
  -1.30763E+4   3.96434E+4
  -1.30649E+4   3.90965E+4
  -1.29999E+4   3.84527E+4
  -1.27164E+4   3.76894E+4
  -1.27582E+4   3.69060E+4
  -1.24844E+4   3.63167E+4
  -1.20599E+4   3.54874E+4
  -1.18959E+4   3.45352E+4
  -1.21156E+4   3.44694E+4
  -1.20656E+4   3.37263E+4
  -1.18738E+4   3.28475E+4
  -1.17691E+4   3.23862E+4
  -1.15891E+4   3.16258E+4
  -1.15831E+4   3.13182E+4
  -1.14116E+4   3.05693E+4
  -1.16530E+4   2.99222E+4
  -1.14798E+4   2.93976E+4
  -1.12563E+4   2.88456E+4
  -1.12088E+4   2.80241E+4
  -1.11555E+4   2.76413E+4
  -1.11187E+4   2.68709E+4
  -1.09430E+4   2.63921E+4
  -1.09861E+4   2.58130E+4
  -1.08966E+4   2.53819E+4
  -1.10698E+4   2.48731E+4
  -1.09849E+4   2.41598E+4
  -1.12269E+4   2.37756E+4
  -1.11703E+4   2.29312E+4
  -1.11743E+4   2.25194E+4
  -1.09804E+4   2.19404E+4
  -1.10264E+4   2.12960E+4
  -1.10603E+4   2.06258E+4
  -1.13198E+4   2.04791E+4
  -1.09124E+4   1.99368E+4
  -1.12848E+4   1.96341E+4
  -1.11819E+4   1.89034E+4
  -1.10994E+4   1.82662E+4
  -1.08864E+4   1.79177E+4
  -1.08411E+4   1.72159E+4
  -1.10725E+4   1.70735E+4
  -1.09194E+4   1.63177E+4
  -1.07612E+4   1.58816E+4
  -1.09558E+4   1.55614E+4
  -1.08175E+4   1.48191E+4
  -1.06716E+4   1.43327E+4
  -1.04431E+4   1.36162E+4
  -1.05279E+4   1.33417E+4
  -1.05655E+4   1.27324E+4
  -1.05029E+4   1.24776E+4
  -1.01289E+4   1.19058E+4
  -1.00686E+4   1.12602E+4
  -1.01823E+4   1.08503E+4
  -1.00977E+4   1.04067E+4
  -1.00361E+4   1.01461E+4
  -9.76287E+3   9.31932E+3
  -9.73341E+3   9.15213E+3
  -9.41363E+3   8.48480E+3
  -9.36699E+3   7.92974E+3
  -9.30423E+3   7.38167E+3
  -9.16808E+3   7.18863E+3
  -8.74327E+3   6.63539E+3
  -8.71438E+3   6.17528E+3
  -8.67108E+3   5.68147E+3
  -8.71980E+3   5.30459E+3
  -8.59209E+3   4.87584E+3
  -8.41068E+3   4.11882E+3
  -8.18359E+3   3.68541E+3
  -8.02703E+3   3.17651E+3
  -7.88737E+3   2.88088E+3
  -7.77623E+3   2.26069E+3
  -7.75248E+3   1.81820E+3
  -7.55367E+3   1.27280E+3
  -7.38847E+3   1.08457E+3
  -7.11667E+3   7.36871E+2
  -7.02795E+3   1.53525E+2
  -6.83685E+3  -2.37698E+2
  -6.78590E+3  -8.48705E+2
  -6.62079E+3  -1.21313E+3
  -6.41189E+3  -1.55218E+3
  -6.48976E+3  -1.97464E+3
  -6.23484E+3  -2.70328E+3
  -5.97257E+3  -2.97599E+3
  -5.55286E+3  -3.59352E+3
  -5.67579E+3  -3.62356E+3
  -5.70644E+3  -4.05390E+3
  -5.52083E+3  -4.75581E+3
  -5.09082E+3  -4.99632E+3
  -5.04109E+3  -5.36561E+3
  -4.77877E+3  -5.79735E+3
  -4.86261E+3  -6.12704E+3
  -4.40985E+3  -6.59945E+3
  -4.57433E+3  -7.08652E+3
  -4.34959E+3  -7.36597E+3
  -4.01254E+3  -7.62317E+3
  -3.97195E+3  -7.96484E+3
  -3.98288E+3  -8.48020E+3
  -3.55621E+3  -8.61339E+3
  -3.46882E+3  -9.02134E+3
  -3.26638E+3  -9.20160E+3
  -3.17569E+3  -9.52271E+3
  -2.89147E+3  -1.00818E+4
  -2.88588E+3  -1.01684E+4
  -2.68393E+3  -1.05590E+4
  -2.42927E+3  -1.08868E+4
  -2.39840E+3  -1.12527E+4
  -2.09287E+3  -1.12741E+4
  -1.96782E+3  -1.15072E+4
  -2.12721E+3  -1.18543E+4
  -1.64826E+3  -1.21494E+4
  -1.51140E+3  -1.23737E+4
  -1.32513E+3  -1.25958E+4
  -1.33839E+3  -1.26828E+4
  -1.11609E+3  -1.28629E+4
  -8.57860E+2  -1.30637E+4
  -8.11850E+2  -1.31253E+4
  -8.79429E+2  -1.32805E+4
  -7.29632E+2  -1.35179E+4
  -6.84208E+2  -1.38455E+4
  -6.53460E+2  -1.37483E+4
  -4.82781E+1  -1.38669E+4
  -2.82811E+1  -1.39082E+4
   2.49838E+2  -1.40993E+4
   4.57874E+2  -1.38006E+4
   4.93656E+2  -1.41159E+4
   7.86121E+2  -1.40726E+4
   5.62143E+2  -1.43958E+4
   9.10352E+2  -1.44166E+4
   9.63215E+2  -1.46005E+4
   1.29007E+3  -1.44261E+4
   1.34516E+3  -1.42763E+4
   1.41352E+3  -1.43617E+4
   1.70628E+3  -1.42703E+4
   1.92875E+3  -1.45718E+4
   2.20339E+3  -1.45387E+4
   2.05817E+3  -1.45589E+4
