 LCModel (Version 6.3-1N) Copyright: S.W. Provencher.          Ref.: Magn. Reson. Med. 30:672-679 (1993).                
 Slice_N1@22_22  28-Feb-2025 11:43:23
 27 lines in following concentration table = NCONC+1
    Conc.  %SD /Cr+PCr  Metabolite                                         
 1.38E-04  24% 5.5E-05 Mac                                                 
   19.878  11%   8.000 Cr                                                  
    0.000 999%   0.000 PCr                                                 
    0.000 999%   0.000 Ins                                                 
    0.000 999%   0.000 NAA                                                 
    0.000 999%   0.000 Tau                                                 
    0.000 999%   0.000 PCho                                                
    4.044  17%   1.628 GPC                                                 
   11.136  27%   4.482 Glu                                                 
    9.834  28%   3.958 Gln                                                 
    8.966  27%   3.608 Ala                                                 
    0.000 999%   0.000 Asc                                                 
   30.718  12%  12.362+Asp                                                 
    0.000 999%   0.000 GABA                                                
    5.482  42%   2.206 Glc                                                 
    8.439  22%   3.396 GSH                                                 
    0.000 999%   0.000 Lac                                                 
    7.708  26%   3.102 NAAG                                                
    0.000 999%   0.000 PE                                                  
    4.044  17%   1.628 GPC+PCho                                            
    7.708  26%   3.102 NAA+NAAG                                            
   20.970  20%   8.439 Glu+Gln                                             
   19.878  11%   8.000 Cr+PCr                                              
    7.708  26%   3.102 NAA+NAAG                                            
   19.878  11%   8.000 Cr+PCr                                              
   20.970  20%   8.439 Glu+Gln                                             
   6 lines in following misc. output table
  FWHM = 0.098 ppm    S/N =   2                                            
  Data shift = 0.057 ppm                                                   
  Ph: -77 deg       0.0 deg/ppm                                            
  alphaB,S = 8.4E-02,   1.4E+02                                            
   19 spline knots.   Ns = 9(1)                                            
  (14) 6 infls.   ( 9) 1 extrs.                                            
  480 points on ppm-axis = NY
      4.100000     4.091866     4.083733     4.075600     4.067466     4.059333     4.051199     4.043066     4.034933     4.026799
      4.018666     4.010532     4.002399     3.994265     3.986132     3.977998     3.969864     3.961731     3.953597     3.945463
      3.937330     3.929196     3.921062     3.912929     3.904795     3.896662     3.888528     3.880394     3.872261     3.864127
      3.855993     3.847860     3.839726     3.831592     3.823459     3.815325     3.807191     3.799058     3.790924     3.782790
      3.774657     3.766523     3.758389     3.750256     3.742122     3.733989     3.725855     3.717721     3.709588     3.701454
      3.693320     3.685187     3.677053     3.668919     3.660786     3.652652     3.644518     3.636385     3.628251     3.620117
      3.611984     3.603850     3.595716     3.587583     3.579449     3.571316     3.563182     3.555048     3.546915     3.538781
      3.530647     3.522514     3.514380     3.506246     3.498113     3.489979     3.481845     3.473712     3.465578     3.457444
      3.449311     3.441177     3.433043     3.424910     3.416776     3.408643     3.400509     3.392375     3.384242     3.376108
      3.367974     3.359841     3.351707     3.343573     3.335440     3.327306     3.319172     3.311039     3.302905     3.294771
      3.286638     3.278504     3.270370     3.262237     3.254103     3.245970     3.237836     3.229702     3.221569     3.213435
      3.205301     3.197168     3.189034     3.180900     3.172767     3.164633     3.156499     3.148366     3.140232     3.132098
      3.123965     3.115831     3.107697     3.099564     3.091430     3.083297     3.075163     3.067029     3.058896     3.050762
      3.042628     3.034495     3.026361     3.018227     3.010094     3.001960     2.993826     2.985693     2.977559     2.969425
      2.961292     2.953158     2.945024     2.936891     2.928757     2.920624     2.912490     2.904356     2.896223     2.888089
      2.879955     2.871822     2.863688     2.855554     2.847421     2.839287     2.831153     2.823020     2.814886     2.806752
      2.798619     2.790485     2.782351     2.774218     2.766084     2.757951     2.749817     2.741683     2.733550     2.725416
      2.717282     2.709149     2.701015     2.692881     2.684748     2.676614     2.668480     2.660347     2.652213     2.644079
      2.635946     2.627812     2.619678     2.611545     2.603411     2.595278     2.587144     2.579010     2.570877     2.562743
      2.554609     2.546476     2.538342     2.530208     2.522075     2.513941     2.505807     2.497674     2.489540     2.481406
      2.473273     2.465139     2.457006     2.448872     2.440738     2.432605     2.424471     2.416337     2.408204     2.400070
      2.391936     2.383803     2.375669     2.367535     2.359402     2.351268     2.343134     2.335001     2.326867     2.318733
      2.310600     2.302466     2.294333     2.286199     2.278065     2.269932     2.261798     2.253664     2.245531     2.237397
      2.229263     2.221130     2.212996     2.204862     2.196729     2.188595     2.180461     2.172328     2.164194     2.156060
      2.147927     2.139793     2.131660     2.123526     2.115392     2.107259     2.099125     2.090991     2.082858     2.074724
      2.066590     2.058457     2.050323     2.042189     2.034056     2.025922     2.017788     2.009655     2.001521     1.993387
      1.985254     1.977120     1.968987     1.960853     1.952719     1.944586     1.936452     1.928318     1.920185     1.912051
      1.903917     1.895784     1.887650     1.879516     1.871383     1.863249     1.855115     1.846982     1.838848     1.830714
      1.822581     1.814447     1.806314     1.798180     1.790046     1.781913     1.773779     1.765645     1.757512     1.749378
      1.741244     1.733111     1.724977     1.716843     1.708710     1.700576     1.692442     1.684309     1.676175     1.668041
      1.659908     1.651774     1.643641     1.635507     1.627373     1.619240     1.611106     1.602972     1.594839     1.586705
      1.578571     1.570438     1.562304     1.554170     1.546037     1.537903     1.529769     1.521636     1.513502     1.505368
      1.497235     1.489101     1.480968     1.472834     1.464700     1.456567     1.448433     1.440299     1.432166     1.424032
      1.415898     1.407765     1.399631     1.391497     1.383364     1.375230     1.367096     1.358963     1.350829     1.342695
      1.334562     1.326428     1.318295     1.310161     1.302027     1.293894     1.285760     1.277626     1.269493     1.261359
      1.253225     1.245092     1.236958     1.228824     1.220691     1.212557     1.204423     1.196290     1.188156     1.180022
      1.171889     1.163755     1.155622     1.147488     1.139354     1.131221     1.123087     1.114953     1.106820     1.098686
      1.090552     1.082419     1.074285     1.066151     1.058018     1.049884     1.041750     1.033617     1.025483     1.017349
      1.009216     1.001082     0.992949     0.984815     0.976681     0.968548     0.960414     0.952280     0.944147     0.936013
      0.927879     0.919746     0.911612     0.903478     0.895345     0.887211     0.879077     0.870944     0.862810     0.854676
      0.846543     0.838409     0.830276     0.822142     0.814008     0.805875     0.797741     0.789607     0.781474     0.773340
      0.765206     0.757073     0.748939     0.740805     0.732672     0.724538     0.716404     0.708271     0.700137     0.692003
      0.683870     0.675736     0.667603     0.659469     0.651335     0.643202     0.635068     0.626934     0.618801     0.610667
      0.602533     0.594400     0.586266     0.578132     0.569999     0.561865     0.553731     0.545598     0.537464     0.529330
      0.521197     0.513063     0.504930     0.496796     0.488662     0.480529     0.472395     0.464261     0.456128     0.447994
      0.439861     0.431727     0.423593     0.415460     0.407326     0.399192     0.391059     0.382925     0.374792     0.366658
      0.358524     0.350391     0.342257     0.334124     0.325990     0.317856     0.309723     0.301589     0.293455     0.285322
      0.277188     0.269055     0.260921     0.252787     0.244654     0.236520     0.228386     0.220253     0.212119     0.203986
 NY phased data points follow
   2.24272E+02  2.30085E+02  2.32121E+02  2.30533E+02  2.20707E+02  2.22285E+02  2.01795E+02  1.83652E+02  1.55359E+02  1.05764E+02
   7.63965E+01  1.67457E-01 -5.69896E+01 -1.22929E+02 -1.78762E+02 -2.01214E+02 -2.39309E+02 -2.48234E+02 -2.57686E+02 -2.43700E+02
  -2.34701E+02 -2.33679E+02 -2.10635E+02 -1.91226E+02 -1.78100E+02 -1.61859E+02 -1.45447E+02 -1.41521E+02 -1.40286E+02 -1.36019E+02
  -1.23441E+02 -1.34756E+02 -1.44896E+02 -1.37688E+02 -1.33329E+02 -1.47365E+02 -1.43908E+02 -1.15834E+02 -1.33010E+02 -1.35422E+02
  -1.32260E+02 -1.37511E+02 -1.30452E+02 -1.28436E+02 -1.04071E+02 -9.64723E+01 -9.33321E+01 -8.47540E+01 -9.71607E+01 -8.22802E+01
  -8.08916E+01 -9.33228E+01 -7.86562E+01 -9.79595E+01 -9.15127E+01 -7.58125E+01 -9.70878E+01 -9.12231E+01 -8.41073E+01 -8.93981E+01
  -8.43727E+01 -7.54166E+01 -8.21513E+01 -6.85413E+01 -7.51654E+01 -7.60047E+01 -5.08850E+01 -6.63156E+01 -5.55515E+01 -7.09602E+01
  -7.59274E+01 -5.28219E+01 -6.61295E+01 -5.35543E+01 -5.08341E+01 -4.46867E+01 -3.07023E+01 -3.72482E+01 -4.29921E+01 -4.54866E+01
  -4.81930E+01 -5.18048E+01 -4.15150E+01 -4.60990E+01 -5.29483E+01 -4.40026E+01 -3.85487E+01 -2.53809E+01 -2.96029E+01 -3.13573E+01
  -2.77573E+01 -3.81715E+01 -2.88157E+01 -2.76836E+01 -2.97211E+01 -3.53407E+01 -4.53634E+01 -4.52305E+01 -5.25012E+01 -6.09600E+01
  -6.91569E+01 -6.38406E+01 -7.57306E+01 -9.68538E+01 -1.17104E+02 -1.14392E+02 -8.47056E+01 -1.03168E+02 -1.20719E+02 -1.06228E+02
  -8.40732E+01 -8.40746E+01 -8.57894E+01 -6.95268E+01 -6.87191E+01 -5.39296E+01 -4.84803E+01 -4.41366E+01 -3.24516E+01 -3.88005E+01
  -2.51576E+01 -1.63827E+01 -2.62211E+01 -2.70330E+01 -2.75600E+01 -2.83990E+01 -5.82563E+01 -7.12344E+01 -3.98638E+01 -3.65718E+01
  -5.00997E+01 -8.65506E+01 -1.08184E+02 -1.19570E+02 -1.30391E+02 -1.11689E+02 -1.26067E+02 -1.11492E+02 -9.90200E+01 -1.05497E+02
  -9.72734E+01 -1.05093E+02 -7.70925E+01 -8.27602E+01 -9.51312E+01 -7.71879E+01 -8.24367E+01 -7.56233E+01 -6.23939E+01 -6.67848E+01
  -7.49552E+01 -4.32319E+01 -4.63289E+01 -5.43565E+01 -3.09997E+01 -5.62736E+01 -5.36770E+01 -4.76831E+01 -4.51072E+01 -4.41424E+01
  -4.80606E+01 -3.10745E+01 -4.47301E+01 -4.09001E+01 -3.51701E+01 -1.98042E+01 -2.73647E+01 -4.46705E+01 -2.13263E+01 -2.70671E+01
  -1.41457E+01 -1.69980E+01 -2.81156E+01 -3.39265E+01 -4.02963E+01 -1.89228E+01 -3.81443E+01 -5.24227E+01 -4.51802E+01 -4.45963E+01
  -3.99242E+01 -4.29727E+01 -5.80389E+01 -5.69062E+01 -4.60686E+01 -5.05203E+01 -4.46239E+01 -3.74801E+01 -3.10895E+01 -3.12186E+01
  -4.02694E+01 -2.65996E+01 -1.05987E+01 -2.45755E+01 -1.63207E+01 -5.21168E+00 -2.88846E+01 -2.55747E+01 -2.39585E+01 -2.78613E+01
  -6.92132E+00  6.28234E-01 -9.75234E+00 -1.01168E+01 -3.86883E+00 -4.98680E+00 -7.23794E+00 -7.84839E+00 -1.58648E+01 -2.26486E+01
  -8.76961E+00 -7.29802E+00 -8.01298E+00 -3.47331E+00 -7.55590E+00  8.81807E+00  1.06437E+01 -2.35709E+00 -1.00894E+00 -1.82593E+01
  -2.23514E+01 -1.39337E+01 -3.15828E+01 -2.12770E+01 -1.59530E+01 -2.75713E+01 -2.94997E+01 -3.32849E+01 -2.76762E+01 -2.98813E+01
  -2.99458E+01 -5.05375E+01 -6.07658E+01 -5.06920E+01 -4.68994E+01 -3.33970E+01 -3.53546E+01 -4.01757E+01 -3.68970E+01 -3.43922E+01
  -3.71703E+01 -2.19956E+01 -8.46994E+00 -2.44990E+00 -4.36317E+00 -9.15686E+00  6.05090E+00  5.44737E-01 -4.60480E-01  9.75124E+00
   2.53849E+01  4.64962E+01  7.50582E+01  4.98119E+01  1.56184E+01  6.19426E+01  7.38499E+01  9.54893E+01  1.23060E+02  1.16845E+02
   1.17594E+02  1.05618E+02  9.32908E+01  7.97925E+01  7.73835E+01  7.39388E+01  7.13672E+01  6.63514E+01  6.74329E+01  5.26396E+01
   4.68697E+01  5.66096E+01  4.14387E+01  6.07688E+01  4.70626E+01  2.90314E+01  4.25646E+01  4.57538E+01  5.14027E+01  3.54980E+01
   4.00244E+01  3.95986E+01  2.94077E+01  3.91080E+01  3.98646E+01  2.33979E+01  2.03443E+01  3.16234E+01  1.87311E+01  8.66820E+00
   1.04950E+01  1.87752E+01  2.05309E+00 -7.06565E+00  1.61760E+01  6.76084E+00  1.11946E+01  2.02859E+01  1.41789E+01  1.73237E+01
   1.82933E+01  2.66821E+01  2.74233E+01  2.45688E+01  2.34069E+01  3.39511E+01  3.53163E+01  3.06213E+01  4.02685E+01  2.68800E+01
   2.14938E+01  2.82370E+01  2.85875E+01  2.81996E+01  1.82496E+01  2.47426E+00 -4.88577E+00 -8.27194E-01 -1.10178E+01 -2.78081E+01
  -4.50623E+01 -6.21199E+01 -5.27010E+01 -3.86871E+01 -5.80537E+01 -5.62354E+01 -3.54620E+01 -3.74540E+01 -3.47288E+01 -3.50779E+01
  -3.44155E+01 -3.59719E+01 -4.01776E+01 -5.68192E+01 -5.30780E+01 -3.83067E+01 -6.27649E+01 -4.99424E+01 -2.32628E+01 -2.27630E+01
  -2.95410E+01 -2.52404E+01 -2.13525E+01 -2.98165E+01 -2.25171E+01 -1.69029E+01 -9.27860E+00 -1.57748E+01 -2.11156E+01 -2.23657E+01
  -2.22303E+01 -2.04637E+01 -2.83617E+01 -1.77823E+01 -2.16324E+01 -3.44427E+01 -3.45052E+01 -2.31025E+01 -2.42964E+01 -2.11867E+01
  -1.11985E+01 -2.49803E+01 -1.70950E+01 -1.64406E+01 -1.22127E+01  9.17481E+00  2.65069E+00 -3.39891E+00 -2.26822E-01  6.25268E+00
   2.70702E+01  2.24275E+01  2.03917E+01  4.36583E+01  2.59545E+01  2.72481E+01  4.02155E+01  2.84985E+01  3.65568E+01  4.68789E+01
   3.81996E+01  2.39892E+01  2.97613E+01  1.98279E+01  1.85935E+01  2.08063E+01  1.14252E+01  1.27375E+01  3.60502E+00 -3.06491E+00
  -2.22879E+01 -1.48504E+01 -1.18629E+01 -3.33120E+01 -3.34165E+01 -3.37584E+01 -2.27219E+01 -3.10343E+01 -5.32515E+01 -4.91643E+01
  -3.23748E+01 -4.01447E+01 -4.54899E+01 -3.37412E+01 -3.48366E+01 -3.92248E+01 -4.46945E+01 -3.09840E+01 -2.50472E+01 -2.18421E+01
  -2.28419E+01 -2.45626E+01 -1.19733E+01 -2.56219E+01 -2.81232E+01 -2.44303E+01 -2.87708E+01 -2.47725E+01 -1.01095E+01 -8.91007E-01
  -1.29732E+01 -2.79804E+01 -3.20814E+01 -2.66521E+01 -1.42732E+01 -1.17653E+01 -2.84747E+01 -1.19366E+01 -1.54294E+01 -2.45512E+01
  -9.71925E+00 -1.19456E+01 -2.49906E+01 -3.30416E+01  3.23875E+00 -1.64341E+01 -1.70333E+01 -2.74129E-01 -2.82723E+01 -1.28669E+01
  -1.23649E+01  8.50569E-01 -7.62509E+00 -1.58682E+01 -1.21631E+01 -1.71692E+01 -4.41134E-01 -1.47920E+01 -1.26501E+01  6.43816E+00
   4.43162E+00 -1.07524E+01 -3.47422E+00 -3.75240E+00 -1.20340E+01 -1.24983E+01  3.78143E+00  1.31388E+01 -3.08127E+00  9.13438E+00
  -1.11453E+01  6.20066E-01  1.64451E+00 -5.99994E+00  2.29441E+01  7.34956E+00 -2.09498E+00 -1.65829E+01  5.93271E+00  4.03783E+00
  -5.59833E+00  1.30807E+01  6.98825E+00  1.30899E+01  2.83163E+00  2.24249E+00  4.41044E+00  7.58995E+00  2.62575E+00  7.86869E+00
 NY points of the fit to the data follow
   1.16324E+02  1.07614E+02  9.86168E+01  8.93316E+01  7.97658E+01  6.98096E+01  5.93545E+01  4.83201E+01  3.68357E+01  2.47359E+01
   1.15425E+01 -3.58497E+00 -2.19735E+01 -4.75392E+01 -7.99545E+01 -1.08041E+02 -1.26904E+02 -1.36829E+02 -1.41739E+02 -1.43799E+02
  -1.41380E+02 -1.34144E+02 -1.23302E+02 -1.10969E+02 -9.91540E+01 -8.89834E+01 -8.09187E+01 -7.52996E+01 -7.26607E+01 -7.41739E+01
  -7.92667E+01 -9.05840E+01 -1.02000E+02 -1.12528E+02 -1.21612E+02 -1.27089E+02 -1.30181E+02 -1.31487E+02 -1.31277E+02 -1.29209E+02
  -1.25351E+02 -1.20614E+02 -1.15697E+02 -1.11217E+02 -1.08126E+02 -1.07001E+02 -1.06757E+02 -1.05242E+02 -1.01265E+02 -9.58331E+01
  -9.07356E+01 -8.84417E+01 -8.67424E+01 -8.51606E+01 -8.35180E+01 -8.20085E+01 -8.07775E+01 -7.95136E+01 -7.79968E+01 -7.63257E+01
  -7.48274E+01 -7.34084E+01 -7.17489E+01 -6.98879E+01 -6.83142E+01 -6.73931E+01 -6.68571E+01 -6.66144E+01 -6.67164E+01 -6.70358E+01
  -6.77977E+01 -6.90103E+01 -7.02560E+01 -7.12683E+01 -7.18883E+01 -7.21923E+01 -7.25601E+01 -7.30101E+01 -7.34715E+01 -7.39701E+01
  -7.43079E+01 -7.44186E+01 -7.42724E+01 -7.38629E+01 -7.32074E+01 -7.22614E+01 -7.09321E+01 -6.92996E+01 -6.73912E+01 -6.51543E+01
  -6.27707E+01 -6.03436E+01 -5.78709E+01 -5.52534E+01 -5.22129E+01 -4.86822E+01 -4.43869E+01 -3.86507E+01 -3.09185E+01 -2.00668E+01
  -1.50491E+01 -2.16225E+01 -3.57751E+01 -5.15464E+01 -6.51517E+01 -7.59770E+01 -8.52732E+01 -9.39753E+01 -1.01520E+02 -1.06782E+02
  -1.09393E+02 -1.09634E+02 -1.07865E+02 -1.04460E+02 -1.00194E+02 -9.62020E+01 -9.28395E+01 -8.88749E+01 -8.17797E+01 -6.94064E+01
  -5.39893E+01 -3.52079E+01 -7.16722E+00  2.24181E+01  3.64125E+01  3.38050E+01  2.14191E+01  6.57536E+00 -6.84780E+00 -1.86722E+01
  -3.11217E+01 -4.44779E+01 -5.73722E+01 -6.90260E+01 -7.86409E+01 -8.66793E+01 -9.32444E+01 -9.89033E+01 -1.04921E+02 -1.12742E+02
  -1.22223E+02 -1.30021E+02 -1.31213E+02 -1.27448E+02 -1.23597E+02 -1.19650E+02 -1.15023E+02 -1.08482E+02 -1.00510E+02 -9.32695E+01
  -8.78058E+01 -8.29501E+01 -7.53470E+01 -6.43465E+01 -5.28360E+01 -4.51651E+01 -4.20011E+01 -4.14373E+01 -4.16215E+01 -4.21571E+01
  -4.35241E+01 -4.56270E+01 -4.72242E+01 -4.62624E+01 -4.24563E+01 -3.90157E+01 -3.51457E+01 -3.02960E+01 -2.58653E+01 -2.20455E+01
  -2.04747E+01 -2.10574E+01 -2.11008E+01 -2.07436E+01 -2.10595E+01 -2.29548E+01 -2.59324E+01 -2.91530E+01 -3.23257E+01 -3.53058E+01
  -3.87235E+01 -4.19688E+01 -4.37796E+01 -4.42369E+01 -4.29673E+01 -4.08832E+01 -3.80207E+01 -3.47465E+01 -3.23002E+01 -3.04521E+01
  -2.95536E+01 -2.89730E+01 -2.79589E+01 -2.65406E+01 -2.43001E+01 -2.09997E+01 -1.68672E+01 -1.21470E+01 -7.99990E+00 -5.15934E+00
  -3.91798E+00 -3.98097E+00 -5.07157E+00 -7.61412E+00 -1.12457E+01 -1.48321E+01 -1.81289E+01 -1.96358E+01 -1.82800E+01 -1.50442E+01
  -9.76938E+00 -3.68614E+00  1.83992E+00  6.20281E+00  9.32741E+00  1.13703E+01  1.23784E+01  1.24305E+01  1.12468E+01  8.75725E+00
   5.10620E+00  4.24111E-01 -5.29640E+00 -1.23765E+01 -2.02558E+01 -2.91536E+01 -3.92568E+01 -4.86703E+01 -5.80299E+01 -6.61790E+01
  -7.16782E+01 -7.52212E+01 -7.58363E+01 -7.40748E+01 -6.99809E+01 -6.37943E+01 -5.61944E+01 -4.78631E+01 -3.93491E+01 -3.12543E+01
  -2.39931E+01 -1.82310E+01 -1.47568E+01 -1.63375E+01 -1.95058E+01 -1.78931E+01 -1.06251E+01  4.41026E-01  1.18668E+01  2.25559E+01
   3.24847E+01  4.19624E+01  5.13389E+01  5.96335E+01  6.64513E+01  7.17561E+01  7.55829E+01  7.80343E+01  7.93090E+01  7.99768E+01
   8.07015E+01  8.15892E+01  8.16323E+01  7.89190E+01  7.44375E+01  7.00455E+01  6.60773E+01  6.25963E+01  5.96027E+01  5.70907E+01
   5.50235E+01  5.33343E+01  5.19149E+01  5.06432E+01  4.94358E+01  4.82338E+01  4.69914E+01  4.56894E+01  4.42722E+01  4.27255E+01
   4.10170E+01  3.91748E+01  3.72367E+01  3.52811E+01  3.33939E+01  3.15801E+01  2.98995E+01  2.83690E+01  2.70299E+01  2.58997E+01
   2.49877E+01  2.42896E+01  2.37874E+01  2.34638E+01  2.33348E+01  2.34014E+01  2.36448E+01  2.40497E+01  2.45897E+01  2.52495E+01
   2.60141E+01  2.68580E+01  2.77589E+01  2.87195E+01  2.97136E+01  3.07197E+01  3.17541E+01  3.28617E+01  3.40774E+01  3.54874E+01
   3.72143E+01  3.94270E+01  4.15448E+01  3.95738E+01  3.41007E+01  2.40889E+01  1.09411E+01 -2.49906E+00 -1.45914E+01 -2.50348E+01
  -3.40531E+01 -4.17542E+01 -4.80073E+01 -5.26043E+01 -5.54781E+01 -5.68888E+01 -5.72948E+01 -5.71392E+01 -5.67628E+01 -5.62459E+01
  -5.51960E+01 -5.29210E+01 -4.92405E+01 -4.52005E+01 -4.06113E+01 -3.66882E+01 -3.36276E+01 -3.11335E+01 -2.91057E+01 -2.75473E+01
  -2.64618E+01 -2.58094E+01 -2.55012E+01 -2.54408E+01 -2.55308E+01 -2.56936E+01 -2.58813E+01 -2.60348E+01 -2.61050E+01 -2.60416E+01
  -2.58182E+01 -2.54245E+01 -2.48703E+01 -2.41780E+01 -2.33549E+01 -2.24010E+01 -2.13261E+01 -2.01393E+01 -1.88447E+01 -1.74518E+01
  -1.59856E+01 -1.44361E+01 -1.28070E+01 -1.10974E+01 -9.29046E+00 -7.34887E+00 -5.27332E+00 -3.05506E+00 -6.65716E-01  1.93318E+00
   4.73711E+00  7.72337E+00  1.08072E+01  1.38664E+01  1.67016E+01  1.91135E+01  2.09371E+01  2.21207E+01  2.26898E+01  2.26864E+01
   2.21868E+01  2.12572E+01  1.99211E+01  1.81645E+01  1.60199E+01  1.35169E+01  1.06797E+01  7.57839E+00  4.31138E+00  9.47490E-01
  -2.43314E+00 -5.74204E+00 -8.86939E+00 -1.17339E+01 -1.42998E+01 -1.65705E+01 -1.85786E+01 -2.03374E+01 -2.18622E+01 -2.31702E+01
  -2.42789E+01 -2.51816E+01 -2.58741E+01 -2.63729E+01 -2.67139E+01 -2.69307E+01 -2.70234E+01 -2.70158E+01 -2.69279E+01 -2.67885E+01
  -2.66031E+01 -2.63801E+01 -2.61198E+01 -2.58318E+01 -2.55153E+01 -2.51578E+01 -2.47669E+01 -2.43502E+01 -2.39215E+01 -2.34848E+01
  -2.30546E+01 -2.26070E+01 -2.21314E+01 -2.16355E+01 -2.11262E+01 -2.06074E+01 -2.00693E+01 -1.95189E+01 -1.89506E+01 -1.83730E+01
  -1.77869E+01 -1.72099E+01 -1.66410E+01 -1.60679E+01 -1.54923E+01 -1.49053E+01 -1.43032E+01 -1.37041E+01 -1.31126E+01 -1.25190E+01
  -1.19179E+01 -1.13109E+01 -1.06919E+01 -1.00770E+01 -9.46019E+00 -8.84911E+00 -8.22976E+00 -7.61723E+00 -7.00984E+00 -6.41554E+00
  -5.83573E+00 -5.27523E+00 -4.72980E+00 -4.18295E+00 -3.62352E+00 -3.05120E+00 -2.47917E+00 -1.93616E+00 -1.42897E+00 -9.48511E-01
  -4.76028E-01 -1.79258E-02  4.22179E-01  8.43625E-01  1.23978E+00  1.59506E+00  1.93049E+00  2.24544E+00  2.54834E+00  2.85174E+00
   3.15694E+00  3.45707E+00  3.74316E+00  4.01574E+00  4.27971E+00  4.52607E+00  4.73973E+00  4.92385E+00  5.09071E+00  5.23731E+00
 NY background values follow
     1.350E+02    1.280E+02    1.211E+02    1.141E+02    1.071E+02    1.002E+02    9.333E+01    8.648E+01    7.968E+01    7.293E+01
     6.624E+01    5.961E+01    5.305E+01    4.656E+01    4.016E+01    3.385E+01    2.762E+01    2.150E+01    1.549E+01    9.587E+00
     3.801E+00   -1.860E+00   -7.391E+00   -1.279E+01   -1.804E+01   -2.314E+01   -2.810E+01   -3.289E+01   -3.751E+01   -4.197E+01
    -4.624E+01   -5.033E+01   -5.425E+01   -5.798E+01   -6.155E+01   -6.495E+01   -6.819E+01   -7.127E+01   -7.419E+01   -7.697E+01
    -7.960E+01   -8.208E+01   -8.443E+01   -8.664E+01   -8.873E+01   -9.069E+01   -9.253E+01   -9.425E+01   -9.585E+01   -9.735E+01
    -9.875E+01   -1.000E+02   -1.012E+02   -1.023E+02   -1.034E+02   -1.043E+02   -1.051E+02   -1.059E+02   -1.066E+02   -1.073E+02
    -1.078E+02   -1.083E+02   -1.088E+02   -1.092E+02   -1.095E+02   -1.098E+02   -1.101E+02   -1.103E+02   -1.104E+02   -1.106E+02
    -1.106E+02   -1.107E+02   -1.107E+02   -1.106E+02   -1.106E+02   -1.105E+02   -1.104E+02   -1.102E+02   -1.100E+02   -1.098E+02
    -1.096E+02   -1.094E+02   -1.091E+02   -1.089E+02   -1.086E+02   -1.083E+02   -1.081E+02   -1.078E+02   -1.075E+02   -1.072E+02
    -1.069E+02   -1.066E+02   -1.063E+02   -1.061E+02   -1.058E+02   -1.055E+02   -1.052E+02   -1.049E+02   -1.046E+02   -1.043E+02
    -1.040E+02   -1.037E+02   -1.034E+02   -1.030E+02   -1.027E+02   -1.023E+02   -1.019E+02   -1.015E+02   -1.011E+02   -1.006E+02
    -1.002E+02   -9.967E+01   -9.915E+01   -9.862E+01   -9.805E+01   -9.746E+01   -9.683E+01   -9.618E+01   -9.550E+01   -9.478E+01
    -9.402E+01   -9.324E+01   -9.241E+01   -9.156E+01   -9.067E+01   -8.976E+01   -8.882E+01   -8.785E+01   -8.685E+01   -8.584E+01
    -8.480E+01   -8.374E+01   -8.267E+01   -8.158E+01   -8.047E+01   -7.934E+01   -7.821E+01   -7.706E+01   -7.591E+01   -7.475E+01
    -7.358E+01   -7.241E+01   -7.123E+01   -7.005E+01   -6.887E+01   -6.770E+01   -6.652E+01   -6.535E+01   -6.419E+01   -6.303E+01
    -6.189E+01   -6.075E+01   -5.962E+01   -5.851E+01   -5.740E+01   -5.630E+01   -5.520E+01   -5.412E+01   -5.304E+01   -5.197E+01
    -5.091E+01   -4.985E+01   -4.880E+01   -4.775E+01   -4.671E+01   -4.567E+01   -4.464E+01   -4.361E+01   -4.258E+01   -4.156E+01
    -4.054E+01   -3.952E+01   -3.850E+01   -3.749E+01   -3.647E+01   -3.546E+01   -3.445E+01   -3.344E+01   -3.242E+01   -3.141E+01
    -3.039E+01   -2.938E+01   -2.836E+01   -2.734E+01   -2.632E+01   -2.531E+01   -2.429E+01   -2.328E+01   -2.226E+01   -2.125E+01
    -2.024E+01   -1.924E+01   -1.824E+01   -1.724E+01   -1.625E+01   -1.526E+01   -1.427E+01   -1.330E+01   -1.233E+01   -1.136E+01
    -1.040E+01   -9.454E+00   -8.512E+00   -7.578E+00   -6.654E+00   -5.738E+00   -4.832E+00   -3.937E+00   -3.052E+00   -2.177E+00
    -1.315E+00   -4.648E-01    3.722E-01    1.195E+00    2.002E+00    2.792E+00    3.565E+00    4.319E+00    5.053E+00    5.766E+00
     6.457E+00    7.125E+00    7.768E+00    8.386E+00    8.977E+00    9.541E+00    1.008E+01    1.058E+01    1.105E+01    1.150E+01
     1.191E+01    1.228E+01    1.262E+01    1.292E+01    1.319E+01    1.341E+01    1.360E+01    1.375E+01    1.385E+01    1.391E+01
     1.393E+01    1.390E+01    1.383E+01    1.372E+01    1.356E+01    1.337E+01    1.314E+01    1.287E+01    1.256E+01    1.222E+01
     1.184E+01    1.143E+01    1.098E+01    1.051E+01    1.000E+01    9.467E+00    8.904E+00    8.313E+00    7.696E+00    7.054E+00
     6.388E+00    5.699E+00    4.987E+00    4.255E+00    3.503E+00    2.733E+00    1.944E+00    1.139E+00    3.185E-01   -5.167E-01
    -1.365E+00   -2.226E+00   -3.098E+00   -3.979E+00   -4.868E+00   -5.764E+00   -6.665E+00   -7.569E+00   -8.475E+00   -9.383E+00
    -1.029E+01   -1.119E+01   -1.210E+01   -1.299E+01   -1.388E+01   -1.476E+01   -1.564E+01   -1.650E+01   -1.735E+01   -1.819E+01
    -1.901E+01   -1.981E+01   -2.060E+01   -2.137E+01   -2.212E+01   -2.284E+01   -2.355E+01   -2.422E+01   -2.487E+01   -2.550E+01
    -2.609E+01   -2.666E+01   -2.719E+01   -2.770E+01   -2.818E+01   -2.864E+01   -2.907E+01   -2.947E+01   -2.985E+01   -3.020E+01
    -3.053E+01   -3.084E+01   -3.112E+01   -3.139E+01   -3.163E+01   -3.185E+01   -3.205E+01   -3.224E+01   -3.240E+01   -3.255E+01
    -3.268E+01   -3.279E+01   -3.289E+01   -3.297E+01   -3.304E+01   -3.309E+01   -3.313E+01   -3.316E+01   -3.318E+01   -3.318E+01
    -3.318E+01   -3.316E+01   -3.314E+01   -3.310E+01   -3.306E+01   -3.301E+01   -3.295E+01   -3.289E+01   -3.282E+01   -3.274E+01
    -3.266E+01   -3.258E+01   -3.249E+01   -3.239E+01   -3.230E+01   -3.220E+01   -3.211E+01   -3.201E+01   -3.191E+01   -3.181E+01
    -3.171E+01   -3.161E+01   -3.152E+01   -3.143E+01   -3.134E+01   -3.125E+01   -3.117E+01   -3.109E+01   -3.102E+01   -3.096E+01
    -3.090E+01   -3.085E+01   -3.080E+01   -3.076E+01   -3.072E+01   -3.069E+01   -3.066E+01   -3.063E+01   -3.060E+01   -3.058E+01
    -3.056E+01   -3.053E+01   -3.051E+01   -3.048E+01   -3.045E+01   -3.043E+01   -3.039E+01   -3.036E+01   -3.031E+01   -3.027E+01
    -3.022E+01   -3.016E+01   -3.010E+01   -3.002E+01   -2.994E+01   -2.986E+01   -2.976E+01   -2.965E+01   -2.953E+01   -2.940E+01
    -2.926E+01   -2.911E+01   -2.894E+01   -2.876E+01   -2.858E+01   -2.837E+01   -2.816E+01   -2.793E+01   -2.770E+01   -2.744E+01
    -2.718E+01   -2.691E+01   -2.662E+01   -2.632E+01   -2.600E+01   -2.568E+01   -2.534E+01   -2.498E+01   -2.462E+01   -2.424E+01
    -2.385E+01   -2.344E+01   -2.303E+01   -2.260E+01   -2.215E+01   -2.169E+01   -2.122E+01   -2.074E+01   -2.024E+01   -1.973E+01
    -1.920E+01   -1.866E+01   -1.811E+01   -1.755E+01   -1.697E+01   -1.638E+01   -1.578E+01   -1.517E+01   -1.455E+01   -1.392E+01
    -1.328E+01   -1.263E+01   -1.197E+01   -1.130E+01   -1.063E+01   -9.945E+00   -9.254E+00   -8.556E+00   -7.851E+00   -7.141E+00
    -6.424E+00   -5.702E+00   -4.976E+00   -4.244E+00   -3.509E+00   -2.769E+00   -2.026E+00   -1.281E+00   -5.323E-01    2.182E-01
     9.709E-01    1.725E+00    2.481E+00    3.238E+00    3.997E+00    4.758E+00    5.519E+00    6.282E+00    7.047E+00    7.813E+00
     8.579E+00    9.347E+00    1.012E+01    1.089E+01    1.166E+01    1.243E+01    1.320E+01    1.397E+01    1.475E+01    1.552E+01
     1.630E+01    1.707E+01    1.785E+01    1.863E+01    1.940E+01    2.018E+01    2.096E+01    2.173E+01    2.251E+01    2.329E+01
 Mac      Conc. = 1.38E-04
   1.23077E+02  1.15603E+02  1.08066E+02  1.00506E+02  9.30930E+01  8.59040E+01  7.89373E+01  7.21983E+01  6.56823E+01  5.93612E+01
   5.32070E+01  4.72048E+01  4.13418E+01  3.56094E+01  3.00157E+01  2.45545E+01  1.91970E+01  1.39310E+01  8.76506E+00  3.71813E+00
  -1.22481E+00 -6.11507E+00 -1.09924E+01 -1.58236E+01 -2.05084E+01 -2.50158E+01 -2.93879E+01 -3.36549E+01 -3.78065E+01 -4.18134E+01
  -4.56251E+01 -4.92261E+01 -5.26470E+01 -5.59305E+01 -5.91051E+01 -6.21870E+01 -6.51979E+01 -6.81340E+01 -7.09840E+01 -7.37348E+01
  -7.63826E+01 -7.89485E+01 -8.14409E+01 -8.38211E+01 -8.60236E+01 -8.80378E+01 -8.98672E+01 -9.15037E+01 -9.29735E+01 -9.43119E+01
  -9.55439E+01 -9.67072E+01 -9.78027E+01 -9.88246E+01 -9.97704E+01 -1.00671E+02 -1.01520E+02 -1.02250E+02 -1.02814E+02 -1.03213E+02
  -1.03469E+02 -1.03637E+02 -1.03745E+02 -1.03816E+02 -1.03872E+02 -1.03930E+02 -1.03990E+02 -1.04041E+02 -1.04088E+02 -1.04118E+02
  -1.04103E+02 -1.04045E+02 -1.03921E+02 -1.03725E+02 -1.03462E+02 -1.03171E+02 -1.02856E+02 -1.02511E+02 -1.02133E+02 -1.01730E+02
  -1.01297E+02 -1.00878E+02 -1.00501E+02 -1.00203E+02 -1.00006E+02 -9.99123E+01 -9.98949E+01 -9.99480E+01 -1.00094E+02 -1.00346E+02
  -1.00719E+02 -1.01251E+02 -1.02002E+02 -1.03018E+02 -1.04266E+02 -1.05638E+02 -1.07020E+02 -1.08318E+02 -1.09462E+02 -1.10398E+02
  -1.11103E+02 -1.11561E+02 -1.11775E+02 -1.11741E+02 -1.11472E+02 -1.11000E+02 -1.10343E+02 -1.09521E+02 -1.08530E+02 -1.07354E+02
