 
 $NMID
 ID=''
 FMTDAT='(2E13.5)'
 TRAMP=   1.00000E+0
 VOLUME=   1.00000E+0
 $END
  -1.07834E+4   1.06924E+4
  -1.26345E+4   2.80860E+4
   2.02320E+4   2.48158E+4
   2.36379E+4  -4.90532E+3
  -6.12794E+3  -2.21025E+4
  -2.19580E+4  -1.04567E+4
  -1.36867E+4   9.81945E+3
   2.20223E+3   1.74340E+4
   1.40406E+4   4.54560E+3
   8.05472E+3  -1.35447E+4
  -8.81769E+3  -1.48606E+4
  -1.20494E+4   1.21791E+1
  -1.81687E+3   1.08233E+4
   6.95150E+3   6.08668E+3
   8.70980E+3  -5.34900E+3
   3.45370E+3  -7.84305E+3
  -4.92531E+3   3.82482E+2
  -5.68514E+3   6.30655E+3
   6.54768E+2   4.29635E+3
   3.86444E+3   1.37060E+3
   1.02056E+3  -1.62182E+3
  -2.31000E+3  -3.80657E+3
  -3.08090E+3  -6.15962E+2
  -2.16068E+3   2.12271E+3
   8.93044E+2   7.17454E+1
   4.09961E+3  -1.21959E+3
   2.08474E+3  -8.06756E+2
  -2.03115E+3  -1.51046E+3
  -1.78321E+3  -4.87713E+2
   7.75800E+2   2.03842E+3
   1.92560E+3   1.60390E+3
   9.81501E+2  -5.41635E+2
  -7.68018E+2  -1.16438E+3
  -1.90805E+3  -1.36837E+3
  -1.63417E+2  -5.98211E+2
   2.72783E+3   1.30925E+3
   1.27426E+3   1.90509E+3
  -1.42839E+3  -6.24157E+2
  -9.51192E+2  -1.65914E+3
  -2.45668E+2   1.26151E+2
  -8.10715E+2   4.60312E+2
   5.39219E+2  -1.42936E+3
   2.06522E+3  -1.41901E+3
   1.09926E+3   8.17753E+0
  -2.01444E+2   7.37760E+2
   4.54213E+1   8.82268E+2
  -7.16816E+1   1.40177E+3
  -1.01944E+3  -4.16173E+2
  -6.74881E+2  -2.07777E+3
   2.07229E+2  -1.11144E+3
   6.52822E+2  -5.46840E+1
   4.81402E+2  -1.21221E+2
   8.88574E+2   6.09376E+1
   2.70411E+2   1.87199E+2
  -1.99589E+2   3.03616E+2
  -1.08299E+3  -1.21284E+2
  -7.74544E+2  -4.66276E+2
   2.84128E+2  -9.14877E+2
   1.41348E+3  -5.57734E+2
   1.11992E+3   1.58426E+1
   7.85124E+1   4.65717E+2
  -2.23241E+2   9.32537E+2
  -3.76836E+2   1.15836E+3
  -1.44297E+3   3.51621E+2
  -1.23249E+3  -1.10800E+3
  -3.80687E+2  -1.62403E+3
   3.10696E+2  -1.19434E+3
   1.02330E+3  -3.55361E+2
   9.37570E+2   7.41134E+2
   4.34883E+1   5.16560E+2
  -2.05076E+2  -3.76115E+2
   1.71860E+2  -3.92925E+2
   2.52367E+2   5.31860E+2
  -7.40868E+1   1.11434E+3
  -4.72186E+2   2.31920E+2
   3.03096E+2  -4.91942E+2
   1.65770E+2  -3.48043E+0
  -1.69009E+2   5.90035E+2
  -6.06977E+2   2.58100E+2
  -2.92423E+2  -1.27655E+2
   6.89547E+1  -2.33489E+2
   3.71404E+2  -3.38320E+2
   2.69642E+2   4.26685E+0
  -8.25568E+1  -2.54384E+2
  -1.07156E+2  -1.02618E+2
   6.87069E+2   8.93408E+1
   6.46321E+2   4.18518E+2
   2.28157E+2   5.22744E+2
   7.96669E+0   2.49251E+2
  -1.92465E+2   1.89933E+1
   2.99514E+2   8.09699E+2
  -1.14125E+2   8.99291E+2
  -3.61764E+2   5.56589E+2
  -6.23760E+2  -3.85414E+2
   4.17101E+0  -8.80068E+2
   5.38154E+2  -2.98323E+2
   5.15275E+2   2.53371E+2
  -1.07859E+2   1.82390E+2
   3.62768E+2  -5.42163E+2
   6.78132E+2   1.89614E+0
  -3.06345E+1   8.83730E+2
  -6.73595E+2   7.41330E+2
  -4.64079E+2  -2.99966E+1
   1.78130E+2  -4.77418E+2
   6.62591E+2  -1.88801E+2
   3.91682E+2   3.16299E+2
  -3.39971E+2   5.55194E+2
  -7.71854E+2  -1.64552E+2
  -2.70996E+2  -9.02159E+2
   1.07839E+3  -6.39075E+2
   8.68497E+2   3.91822E+2
   1.53696E+2   7.26655E+2
  -5.97215E+2   1.18526E+2
  -2.52878E+2   4.44801E+2
  -1.41723E+2   4.11505E+2
  -3.78652E+2   1.58152E+2
  -8.47310E+2  -2.56485E+2
  -4.05872E+2  -8.51099E+2
   3.48961E+2  -7.34584E+2
   8.45884E+2  -3.92432E+1
   4.10036E+2   4.40681E+2
   1.94598E+2   5.80356E+2
  -1.69035E+2   6.32999E+2
  -4.71100E+2   3.39547E+2
  -3.45330E+2   1.05403E+2
  -1.87934E+2  -1.31363E+2
   1.54706E+2  -5.94089E+0
   2.93259E+2  -1.35066E+2
   2.10577E+2   3.26472E+2
  -1.49621E+0   6.10580E+2
  -6.48195E+2   3.58838E+2
  -4.99705E+2  -2.11273E+2
   1.31384E+2  -4.90940E+2
   1.68284E+1   8.13928E+1
  -5.87877E+1   7.78357E+1
   3.49930E+2  -2.73090E+2
   3.58666E+2  -1.10855E+2
   1.52327E+2   5.29396E+2
  -2.07182E+2   5.93912E+2
  -4.86881E+2  -1.39699E+2
  -4.59593E+2  -2.71874E+2
   3.31676E+2  -2.84097E+2
   5.87357E+2   3.73250E+2
   1.38490E+2   5.24858E+2
  -4.84030E+2   4.52952E+2
  -3.87987E+2   1.35641E+1
  -3.05337E+2   1.53959E+2
  -3.29074E+2  -1.56513E+2
  -1.46999E+2  -1.49784E+2
  -1.24186E+2  -2.94765E+2
   1.37836E+2  -2.45125E+2
   3.62076E+2  -7.08220E+1
   3.37229E+2   2.55927E+2
   1.97446E+1   6.16487E+2
  -2.92355E+2   4.39648E+2
   7.03817E+1   9.07434E+0
   2.11470E+1   3.03040E+2
  -5.32792E+2   3.27567E+2
  -4.62524E+2  -2.93750E+2
  -1.53176E+2  -1.07658E+1
  -3.13516E+2   2.64233E+2
  -1.55725E+2   1.86921E+2
  -1.54157E+2  -6.36585E+1
  -1.89140E+2  -3.42975E+2
   1.74618E+2  -1.57142E+2
   2.23719E+2  -1.51924E+2
  -7.87398E+1   9.47715E+1
  -3.79775E+2   2.34887E+2
   6.72322E+1   6.13949E+0
  -3.23679E+1  -2.55903E+2
  -1.22826E+2   1.33363E+2
   1.71907E+1   1.13839E+2
  -1.17678E+2   1.69372E+2
  -1.47750E+2  -8.95375E+1
  -7.20238E+1  -1.22417E+2
   7.92081E+0   4.52718E+1
  -4.53480E+2   1.97184E+2
  -3.32420E+2  -3.29235E+1
   3.04605E+2  -2.10356E+2
   3.60582E+2   1.44764E+2
   1.19834E+2   2.66150E+2
  -3.78118E+2   2.42469E+2
  -4.26788E+2  -1.81231E+1
  -2.20218E+2  -1.48214E+2
  -9.48585E+1  -3.40896E+2
  -1.11804E+2  -1.50254E+2
   1.15209E+2  -2.84182E+2
   4.10428E+2  -3.63298E+2
   3.90982E+2   7.57666E+1
   2.43506E+2   6.42498E+2
  -1.54455E+2   6.92303E+2
  -6.67407E+2  -4.44181E+1
  -3.77919E+2  -2.61108E+2
  -6.12515E+1  -2.52810E+2
   5.75590E+1   1.30735E+2
   1.31231E+2   3.73705E+1
  -1.40265E+2   3.64291E+1
  -3.07309E+1   3.45406E+2
  -2.19920E+2   2.13179E+2
  -2.74410E+2   1.77800E+2
  -2.67892E+2  -1.28182E+2
  -1.52869E+2  -3.49693E+2
   3.40046E+2  -1.69048E+2
   3.45065E+2   3.29987E+1
  -3.05080E+1   1.21487E+2
  -9.91605E+1   1.97850E+2
  -1.75054E+2  -1.28779E+2
  -1.64661E+2   1.05336E+2
  -6.39812E+1   1.60612E+2
  -1.76483E+2  -1.32523E+1
  -1.05500E+2  -2.98275E+2
   2.64018E+2   7.27671E+1
   1.91692E+2   4.44201E+2
  -2.30815E+2   2.79704E+2
  -5.16853E+2   1.19400E+1
  -1.67940E+2  -5.73040E+2
  -4.99319E+1  -3.52921E+2
  -3.04362E+1  -6.68354E+1
   1.60405E+2  -4.39066E+1
  -1.08979E+2   1.16967E+2
  -2.70618E+1   8.22902E+1
   7.78162E+1   1.27735E+2
  -1.57478E+2   2.86415E+2
  -2.74941E+2   1.85913E+2
  -2.59890E+2  -1.66959E+2
   1.86822E+1  -1.43939E+2
   1.13915E+2  -8.99673E+1
   8.19573E+1   2.20835E+2
  -4.08138E+2   8.25128E+1
  -1.22193E+2  -6.95501E+1
  -3.81224E+1  -1.80604E+2
   1.92507E+2  -3.41701E+1
  -8.44180E+1   8.57736E+1
  -2.51683E+2   1.10121E+2
  -8.17127E+1  -2.70094E+2
  -7.09325E+1   7.08868E+1
   8.81799E+1  -9.98935E+0
   4.51192E+0  -1.12635E+2
  -7.85268E+0   5.94969E+1
   6.06525E+1  -1.62404E+2
   1.96949E+2   5.60357E+1
  -4.73044E+1   1.76538E+2
   1.11231E+1   2.27270E+2
   1.34997E+2  -3.42894E+2
   2.63511E+1  -2.60708E+2
  -5.29303E+1  -3.85004E+1
   2.78750E+0  -7.82248E+1
  -4.32336E+1  -1.93437E+2
   1.19731E+2   2.76002E+1
   1.83465E+2  -5.66062E+0
  -1.79139E+1   1.46426E+2
  -3.59627E+2   3.23381E+1
  -1.39794E+2  -1.52279E+2
  -1.13722E+2  -3.93463E+2
   5.03561E+2  -2.81809E+2
   2.58498E+2  -2.93446E+1
   2.09303E+2   1.17692E+2
   6.87723E+1  -7.79762E+1
   1.26624E+2   1.13653E+2
  -1.44210E+2   2.43690E+2
  -1.74436E+2   5.79993E-1
  -4.46122E+2  -3.02901E+2
   1.95697E+2  -3.89835E+2
   3.41860E+2  -2.96965E+2
   3.79080E+2   2.45547E+2
   1.04318E+2   2.42052E+2
  -2.43744E+2   1.50784E+2
  -1.69332E+2  -2.57529E+2
   1.91653E+2  -1.49723E+2
   3.58207E+1  -1.21747E+2
   1.15323E+2  -8.55605E+1
  -4.96586E+1  -1.06514E+2
   2.20362E+2   1.59694E+2
   1.19230E+2   1.34742E+2
  -3.11420E+2   1.32670E+2
   7.96542E+1   1.53329E+1
   6.80317E+1  -2.81299E+1
  -7.54259E+0  -1.67163E+2
   1.24270E+2   1.39286E+2
   5.66734E+1  -3.06504E+1
   5.21968E+1  -1.40331E+2
  -1.06189E+2   1.01685E+2
   2.57517E+2  -2.64945E+1
   8.67691E+0   2.30541E+2
  -2.93942E+2  -1.17442E+2
  -1.34092E+2  -3.22302E+2
   1.42616E+2  -7.56494E+1
   2.16394E+2  -6.47674E+1
  -1.69888E+2   2.47410E+2
  -4.03860E+1   2.86654E+2
  -2.72800E+2   2.31229E+1
  -1.08736E+1  -1.18979E+2
  -3.24538E+2  -3.77214E+1
   1.94871E+2  -1.49910E+2
   2.58502E+2  -3.07829E+2
  -2.08753E+1  -1.10589E+2
   1.39083E+2  -5.67117E+1
  -8.31270E+1  -2.69636E+1
  -1.61390E+1   1.84846E+2
   1.03312E+2  -2.91426E+1
   2.11619E+2  -2.48569E+2
   2.55651E+2  -2.53045E+2
  -1.18408E+1   1.64802E+2
  -1.61862E+2  -3.13276E+1
  -7.13469E+1  -1.21472E+2
   6.81436E+1  -1.53918E+1
   3.78089E+2  -1.37018E+2
   2.30021E+2   6.19925E+1
   2.10110E+2  -4.85716E+1
   6.72508E+1   6.87348E+1
   9.40080E+1  -1.53369E+1
  -5.67307E+1  -5.04911E+0
  -5.28229E+0   9.99983E+1
  -1.15269E+2  -2.29139E+2
  -7.70592E+1  -2.44085E+2
   2.52445E+2  -1.02233E+2
  -1.24750E+2   1.89330E+2
   1.75483E+2   6.87742E+1
   1.44144E+1  -1.98482E+2
   1.09114E+2  -1.52388E+2
  -1.54049E+2  -2.28163E+2
  -7.18495E+1  -1.76278E+2
  -1.23861E+2  -1.44549E+2
  -3.96363E+0  -5.64760E+1
   2.70311E+2  -4.97294E+0
  -6.12124E+1   1.69247E+2
  -1.16503E+2   2.22249E+2
  -1.09019E+2  -2.14605E+1
   9.74154E+1  -2.84373E+2
  -1.61187E+1  -7.72700E+1
   5.73561E+1  -1.66714E+1
   1.11967E+2  -1.59270E+2
   7.31007E+1  -8.15203E+0
   2.30712E+2  -1.34571E+2
  -1.35125E+2   1.64957E+2
  -1.41373E+2   1.39654E+0
  -1.26011E+2  -1.46575E+2
  -8.67925E+1  -3.58121E+2
  -7.48215E+1  -3.46140E+2
   5.50231E+1   9.32204E+1
  -1.62380E+2   2.24031E+1
  -7.52132E+1   5.61546E+1
  -5.01617E+1   1.15824E+2
   2.36183E+2  -2.01521E+2
  -3.32429E+1  -3.98180E+1
   2.01173E+2  -3.97876E+1
   3.05936E+1  -6.16137E+1
   1.68694E+2  -2.24841E+1
   3.39083E+2  -8.28875E+1
   3.83779E+1   1.01502E+2
  -1.05775E+2  -1.01754E+2
  -3.57427E+0  -3.05877E+2
  -1.30380E+2  -3.88327E+1
   9.00678E+1   5.25670E+1
  -6.74675E+1   1.06916E+1
  -4.96880E+1  -2.06584E+2
  -1.10301E+2  -1.65190E+2
  -7.33008E+0  -1.51933E+2
  -1.05710E+2   1.27047E+2
  -1.54090E+2   3.00690E+2
  -2.48144E+2   2.21848E+0
   6.37248E+0  -1.98709E+2
   2.36642E+2  -9.77533E+1
   3.11570E+2   1.40025E+2
   2.70182E+1   1.18401E+2
  -1.02242E+2  -3.29450E+1
   8.67897E+1  -1.86708E+2
