 LCModel (Version 6.3-1N) Copyright: S.W. Provencher.          Ref.: Magn. Reson. Med. 30:672-679 (1993).                
 Slice_N1@18_17  28-Feb-2025 11:39:10
 27 lines in following concentration table = NCONC+1
    Conc.  %SD /Cr+PCr  Metabolite                                         
 2.17E-04   7% 1.9E-04 Mac                                                 
    4.368  41%   3.735 Cr                                                  
    4.987  34%   4.265 PCr                                                 
    6.271  17%   5.363 Ins                                                 
    9.918  10%   8.482 NAA                                                 
    7.208  15%   6.164 Tau                                                 
    0.778 158%   0.666 PCho                                                
    1.165  99%   0.996 GPC                                                 
    8.635  14%   7.384 Glu                                                 
    1.876  50%   1.604 Gln                                                 
    0.000 999%   0.000 Ala                                                 
    1.858  83%   1.589 Asc                                                 
    2.629  46%   2.248 Asp                                                 
    0.849  75%   0.726 GABA                                                
    0.628 132%   0.537 Glc                                                 
    1.986  27%   1.698 GSH                                                 
    6.071  14%   5.192 Lac                                                 
    1.549  50%   1.325 NAAG                                                
    1.236 117%   1.057 PE                                                  
    1.943  20%   1.662 GPC+PCho                                            
   11.467   8%   9.806 NAA+NAAG                                            
   10.511  14%   8.988 Glu+Gln                                             
    9.355   9%   8.000 Cr+PCr                                              
   11.467   8%   9.806 NAA+NAAG                                            
    9.355   9%   8.000 Cr+PCr                                              
   10.511  14%   8.988 Glu+Gln                                             
   6 lines in following misc. output table
  FWHM = 0.033 ppm    S/N =   3                                            
  Data shift = 0.024 ppm                                                   
  Ph:-101 deg       0.0 deg/ppm                                            
  alphaB,S = 1.3E-01,   1.3E+01                                            
   19 spline knots.   Ns = 5(1)                                            
  ( 4) 2 infls.   ( 1) 1 extrs.                                            
  480 points on ppm-axis = NY
      4.100000     4.091866     4.083733     4.075600     4.067466     4.059333     4.051199     4.043066     4.034933     4.026799
      4.018666     4.010532     4.002399     3.994265     3.986132     3.977998     3.969864     3.961731     3.953597     3.945463
      3.937330     3.929196     3.921062     3.912929     3.904795     3.896662     3.888528     3.880394     3.872261     3.864127
      3.855993     3.847860     3.839726     3.831592     3.823459     3.815325     3.807191     3.799058     3.790924     3.782790
      3.774657     3.766523     3.758389     3.750256     3.742122     3.733989     3.725855     3.717721     3.709588     3.701454
      3.693320     3.685187     3.677053     3.668919     3.660786     3.652652     3.644518     3.636385     3.628251     3.620117
      3.611984     3.603850     3.595716     3.587583     3.579449     3.571316     3.563182     3.555048     3.546915     3.538781
      3.530647     3.522514     3.514380     3.506246     3.498113     3.489979     3.481845     3.473712     3.465578     3.457444
      3.449311     3.441177     3.433043     3.424910     3.416776     3.408643     3.400509     3.392375     3.384242     3.376108
      3.367974     3.359841     3.351707     3.343573     3.335440     3.327306     3.319172     3.311039     3.302905     3.294771
      3.286638     3.278504     3.270370     3.262237     3.254103     3.245970     3.237836     3.229702     3.221569     3.213435
      3.205301     3.197168     3.189034     3.180900     3.172767     3.164633     3.156499     3.148366     3.140232     3.132098
      3.123965     3.115831     3.107697     3.099564     3.091430     3.083297     3.075163     3.067029     3.058896     3.050762
      3.042628     3.034495     3.026361     3.018227     3.010094     3.001960     2.993826     2.985693     2.977559     2.969425
      2.961292     2.953158     2.945024     2.936891     2.928757     2.920624     2.912490     2.904356     2.896223     2.888089
      2.879955     2.871822     2.863688     2.855554     2.847421     2.839287     2.831153     2.823020     2.814886     2.806752
      2.798619     2.790485     2.782351     2.774218     2.766084     2.757951     2.749817     2.741683     2.733550     2.725416
      2.717282     2.709149     2.701015     2.692881     2.684748     2.676614     2.668480     2.660347     2.652213     2.644079
      2.635946     2.627812     2.619678     2.611545     2.603411     2.595278     2.587144     2.579010     2.570877     2.562743
      2.554609     2.546476     2.538342     2.530208     2.522075     2.513941     2.505807     2.497674     2.489540     2.481406
      2.473273     2.465139     2.457006     2.448872     2.440738     2.432605     2.424471     2.416337     2.408204     2.400070
      2.391936     2.383803     2.375669     2.367535     2.359402     2.351268     2.343134     2.335001     2.326867     2.318733
      2.310600     2.302466     2.294333     2.286199     2.278065     2.269932     2.261798     2.253664     2.245531     2.237397
      2.229263     2.221130     2.212996     2.204862     2.196729     2.188595     2.180461     2.172328     2.164194     2.156060
      2.147927     2.139793     2.131660     2.123526     2.115392     2.107259     2.099125     2.090991     2.082858     2.074724
      2.066590     2.058457     2.050323     2.042189     2.034056     2.025922     2.017788     2.009655     2.001521     1.993387
      1.985254     1.977120     1.968987     1.960853     1.952719     1.944586     1.936452     1.928318     1.920185     1.912051
      1.903917     1.895784     1.887650     1.879516     1.871383     1.863249     1.855115     1.846982     1.838848     1.830714
      1.822581     1.814447     1.806314     1.798180     1.790046     1.781913     1.773779     1.765645     1.757512     1.749378
      1.741244     1.733111     1.724977     1.716843     1.708710     1.700576     1.692442     1.684309     1.676175     1.668041
      1.659908     1.651774     1.643641     1.635507     1.627373     1.619240     1.611106     1.602972     1.594839     1.586705
      1.578571     1.570438     1.562304     1.554170     1.546037     1.537903     1.529769     1.521636     1.513502     1.505368
      1.497235     1.489101     1.480968     1.472834     1.464700     1.456567     1.448433     1.440299     1.432166     1.424032
      1.415898     1.407765     1.399631     1.391497     1.383364     1.375230     1.367096     1.358963     1.350829     1.342695
      1.334562     1.326428     1.318295     1.310161     1.302027     1.293894     1.285760     1.277626     1.269493     1.261359
      1.253225     1.245092     1.236958     1.228824     1.220691     1.212557     1.204423     1.196290     1.188156     1.180022
      1.171889     1.163755     1.155622     1.147488     1.139354     1.131221     1.123087     1.114953     1.106820     1.098686
      1.090552     1.082419     1.074285     1.066151     1.058018     1.049884     1.041750     1.033617     1.025483     1.017349
      1.009216     1.001082     0.992949     0.984815     0.976681     0.968548     0.960414     0.952280     0.944147     0.936013
      0.927879     0.919746     0.911612     0.903478     0.895345     0.887211     0.879077     0.870944     0.862810     0.854676
      0.846543     0.838409     0.830276     0.822142     0.814008     0.805875     0.797741     0.789607     0.781474     0.773340
      0.765206     0.757073     0.748939     0.740805     0.732672     0.724538     0.716404     0.708271     0.700137     0.692003
      0.683870     0.675736     0.667603     0.659469     0.651335     0.643202     0.635068     0.626934     0.618801     0.610667
      0.602533     0.594400     0.586266     0.578132     0.569999     0.561865     0.553731     0.545598     0.537464     0.529330
      0.521197     0.513063     0.504930     0.496796     0.488662     0.480529     0.472395     0.464261     0.456128     0.447994
      0.439861     0.431727     0.423593     0.415460     0.407326     0.399192     0.391059     0.382925     0.374792     0.366658
      0.358524     0.350391     0.342257     0.334124     0.325990     0.317856     0.309723     0.301589     0.293455     0.285322
      0.277188     0.269055     0.260921     0.252787     0.244654     0.236520     0.228386     0.220253     0.212119     0.203986
 NY phased data points follow
  -3.83718E+01 -2.71923E+01 -1.59094E+01 -2.42845E+01 -3.94597E+01 -3.85551E+01 -3.40027E+01 -3.46863E+01 -2.66169E+01 -3.19166E+01
  -4.72858E+01 -4.50020E+01 -4.87279E+01 -5.27003E+01 -5.79398E+01 -6.74122E+01 -5.90180E+01 -5.15344E+01 -7.78465E+01 -1.03356E+02
  -9.39478E+01 -8.49939E+01 -7.29197E+01 -6.04578E+01 -3.43125E+01 -6.48424E+00 -1.21583E+01 -2.94722E+00  1.77871E+01  9.85153E+00
  -1.21245E+00  2.87573E+00 -9.16901E-01  4.11043E-01  5.39935E+00  1.06036E+01  4.26541E+00 -1.39327E+01 -2.51396E+01 -3.77866E+01
  -4.61699E+01 -5.86708E+01 -4.23064E+01 -3.65263E+01 -3.82806E+01 -5.55908E+00  7.23781E+00  1.61286E+01  2.94467E+01  3.19559E+01
   2.61483E+01  3.56978E+01  2.58109E+01  1.09243E+01  1.58611E+01  1.77181E+00 -1.26120E+00 -5.55562E+00 -1.74987E+01 -2.64186E+01
  -1.01859E+01 -7.11185E+00 -6.43559E+00  2.00772E+01  1.72346E+01  2.62260E+01  3.10860E+01  2.01438E+01  1.79708E+00 -1.91459E+01
  -2.40743E+01 -1.76169E+01 -8.77504E+00 -7.08387E+00  8.22973E+00  2.21972E+01  3.52685E+01  2.70508E+01  2.94983E+01  4.06978E+01
   2.47852E+01  2.34638E+01  1.62359E+01  5.36234E+00 -5.68274E+00 -9.12714E+00 -7.33055E+00  3.31727E+00  1.66457E+01  1.71063E+01
   3.25381E+01  4.43044E+01  5.61096E+01  5.46805E+01  5.32519E+01  6.62129E+01  7.45175E+01  7.11044E+01  6.16744E+01  6.81918E+01
   5.56669E+01  4.95137E+01  4.62719E+01  3.32057E+01  2.25843E+01 -6.06133E+00 -1.59947E+01 -2.15668E+01 -3.03143E+01 -5.34378E+01
  -1.04108E+02 -1.37018E+02 -1.22811E+02 -8.59368E+01 -6.92204E+01 -5.53426E+01 -4.44801E+01 -3.11728E+01 -2.61178E+01 -2.30814E+01
  -4.79579E+00 -1.44561E+00  6.02239E+00  1.03599E+01  2.24037E+01  3.85555E+01  4.21386E+01  5.61129E+01  6.74532E+01  8.04484E+01
   1.11891E+02  1.20949E+02  5.99737E+01 -9.21354E+00 -4.30519E+01 -5.64239E+01 -6.91697E+01 -6.87230E+01 -5.50888E+01 -6.22878E+01
  -6.26020E+01 -5.63261E+01 -5.06217E+01 -7.02700E+01 -7.29104E+01 -5.80551E+01 -6.63433E+01 -6.22831E+01 -6.84368E+01 -5.17905E+01
  -5.39260E+01 -6.15915E+01 -4.48720E+01 -5.17635E+01 -4.70469E+01 -5.16102E+01 -4.04259E+01 -2.71432E+01 -3.99523E+01 -3.39544E+01
  -2.15060E+01 -3.21213E+01 -3.29519E+01 -2.66420E+01 -3.47837E+01 -2.60803E+01 -2.53869E+01 -2.21079E+01 -3.23909E+01 -3.92281E+01
  -1.86382E+01 -1.00756E+01  8.20900E+00  1.48706E+01  4.27539E+00 -2.61519E+00  5.64480E+00  4.65010E+00 -4.46213E+00 -1.06202E+01
  -1.37364E+01 -1.41437E+01 -4.19686E+01 -4.36438E+01 -4.72189E+01 -5.27148E+01 -4.32952E+01 -5.74853E+01 -4.12233E+01 -3.03999E+01
  -4.64678E+01 -4.55346E+01 -3.34626E+01 -2.51305E+01 -1.82768E+01 -2.54184E+01 -3.15922E+01 -1.39554E+01 -1.27730E+01 -1.40079E+01
  -1.51514E+01 -1.93695E+01 -4.56280E+00 -4.74442E-01 -1.97844E+01 -2.92416E+01 -2.09363E+01 -3.57629E+01 -5.85847E+01 -6.64359E+01
  -6.82813E+01 -6.53795E+01 -6.36633E+01 -5.30927E+01 -3.74638E+01 -2.38400E+01 -1.30337E+00  7.10477E+00  7.47722E+00  2.35291E+01
  -1.51032E+00 -2.58186E+01 -2.14079E+01 -3.59806E+01 -3.28883E+01 -2.17735E+01 -1.44703E+01 -1.65743E+01 -1.16181E+01 -1.23646E+01
  -2.14139E+01 -1.45556E+00 -1.45704E+01 -2.72225E+01 -3.10896E+01 -4.62383E+01 -4.05883E+01 -4.91009E+01 -5.72294E+01 -6.41676E+01
  -6.56392E+01 -4.70727E+01 -4.42912E+01 -4.10133E+01 -3.43343E+01 -4.00256E+01 -3.01709E+01 -2.79153E+01 -4.59476E+01 -5.75270E+01
  -5.73056E+01 -6.66155E+01 -7.41179E+01 -6.65101E+01 -7.61909E+01 -8.17133E+01 -1.07925E+02 -7.03581E+01  6.04613E+01  1.04965E+02
   1.02114E+02  1.18658E+02  1.13139E+02  9.61364E+01  7.90357E+01  6.27864E+01  6.61544E+01  6.57739E+01  5.65160E+01  5.32384E+01
   5.64511E+01  6.58287E+01  5.25427E+01  5.38715E+01  4.15840E+01  4.21440E+01  5.35743E+01  3.64085E+01  5.18858E+01  4.49007E+01
   3.67987E+01  3.63283E+01  4.05965E+01  4.16829E+01  1.99411E+01  2.87798E+01  3.01763E+01  3.49334E+01  3.03912E+01  6.03201E+00
   1.05779E+01  7.49241E+00 -4.42191E+00  2.64260E+00 -1.08658E+01 -1.35765E+01 -5.24815E+00 -2.70458E+01 -2.91768E+01 -2.60773E+01
  -1.81823E+01 -8.69679E+00 -9.23555E+00 -9.15590E+00 -1.92521E+01 -2.00054E+01 -2.03645E+01 -3.10664E+01 -2.94059E+01 -2.02416E+01
  -2.23302E+01 -1.52470E+01 -2.67988E+00  2.73432E+00 -8.23859E+00 -8.75463E+00  1.34011E+00  3.03676E+00  3.19820E+00  1.81988E+00
   1.51453E+01  7.42084E+00  1.43874E+01  7.48110E+00  5.02375E+00  3.42836E+01  3.69053E+01  6.24194E+01  7.12111E+01  8.72228E+01
   8.80544E+01  6.07010E+01  5.73425E+01  5.07212E+01  5.23233E+01  4.76265E+01  4.24017E+01  4.64342E+01  6.12033E+01  5.02149E+01
   4.79066E+01  4.56357E+01  2.97205E+01  3.87528E+01  1.56057E+01  1.23849E+01  1.90180E+01  1.68336E+00 -8.57675E+00 -1.88483E+01
  -2.13869E+01 -1.32363E+01 -8.15579E+00 -2.45863E+01 -3.28333E+01 -1.25583E+01 -9.15396E+00 -3.11229E+01 -2.03206E+01 -4.82152E+00
  -1.01405E+01 -1.13643E+01 -9.42767E+00 -9.61823E+00 -4.75765E+00  7.27518E+00  1.72324E+01  1.89860E+01  1.52503E+01  2.96421E+01
   2.34137E+01  2.80151E+01  3.69387E+01  3.60415E+01  5.48622E+01  4.68284E+01  5.09278E+01  4.93684E+01  5.27860E+01  5.98666E+01
   5.51564E+01  6.65673E+01  7.26970E+01  8.66032E+01  8.36069E+01  8.33380E+01  9.49179E+01  1.06765E+02  1.11093E+02  1.11498E+02
   1.06727E+02  8.16039E+01  7.66855E+01  7.30662E+01  6.86441E+01  5.73444E+01  4.57091E+01  5.45371E+01  4.46684E+01  2.48709E+01
   6.03293E+00 -1.57865E+00  1.34401E+00 -6.48538E+00 -1.70015E+01 -3.05692E+01 -3.24994E+01 -2.67176E+01 -2.49182E+01 -2.56732E+01
  -2.53104E+01 -2.85568E+01 -4.17635E+01 -3.29479E+01 -3.62047E+01 -2.59806E+01 -2.59652E+01 -4.18620E+01 -2.19328E+01 -3.77486E+01
  -3.07326E+01 -2.29219E+01 -2.46996E+01 -2.51257E+01 -3.35117E+01 -2.97989E+01 -3.83845E+01 -1.98415E+01 -3.05543E+01 -3.16800E+01
  -2.63066E+01 -1.77211E+01 -1.87510E+01 -3.80729E+01 -2.36527E+01 -3.29829E+01 -1.81028E+01 -2.05428E+01 -1.48000E+01 -1.10074E+01
  -2.30944E+01 -1.54212E+01 -2.77943E+01 -2.99663E+01 -3.63072E+01 -1.84351E+01 -2.04565E+01 -2.37944E+01 -3.03541E+01 -3.19509E+01
  -2.34768E+01 -3.10244E+01 -1.90375E+01 -3.40055E+01 -2.86531E+01 -3.64503E+01 -3.43558E+01 -3.21935E+01 -3.12081E+01 -5.40146E+00
  -2.15629E+01 -2.01625E+01 -2.41607E+01 -2.91651E+01 -2.20404E+01 -2.12010E+01 -3.03317E+01 -2.31946E+01 -2.25525E+01 -3.12975E+01
  -2.82360E+01 -3.03770E+01 -3.24748E+00 -1.52258E+01 -2.23691E+01 -1.64036E+01 -1.88479E+01 -2.07726E+01 -2.76209E+01 -1.58165E+01
 NY points of the fit to the data follow
  -5.19629E+01 -5.01116E+01 -4.91524E+01 -4.93179E+01 -4.78915E+01 -4.14383E+01 -3.12315E+01 -2.47216E+01 -2.56037E+01 -3.05027E+01
  -3.60988E+01 -4.12778E+01 -4.54120E+01 -4.83276E+01 -5.10246E+01 -5.47124E+01 -5.80904E+01 -6.20913E+01 -7.07655E+01 -8.27718E+01
  -9.01642E+01 -8.44565E+01 -6.89429E+01 -5.20442E+01 -3.05331E+01 -7.95135E+00  4.25747E+00  9.85321E+00  1.45243E+01  1.69671E+01
   1.72934E+01  1.65341E+01  1.52867E+01  1.33449E+01  1.03101E+01  5.94112E+00  1.22357E+00 -4.05075E+00 -1.27592E+01 -2.63164E+01
  -4.06699E+01 -4.71356E+01 -4.28998E+01 -3.39782E+01 -2.30635E+01 -9.71688E+00  3.12216E+00  1.26273E+01  1.81759E+01  2.08247E+01
   2.11041E+01  1.91585E+01  1.53230E+01  9.29919E+00  1.46168E+00 -5.00418E+00 -8.17081E+00 -1.04551E+01 -1.45627E+01 -1.86518E+01
  -1.66194E+01 -9.96737E+00 -5.24372E+00  1.42559E+00  1.18686E+01  1.96981E+01  2.36603E+01  2.22310E+01  1.17631E+01 -3.43515E+00
  -1.26359E+01 -1.17400E+01 -7.69655E+00 -2.97839E+00  6.77204E+00  1.87805E+01  2.73504E+01  3.28938E+01  3.62443E+01  3.70235E+01
   3.36175E+01  2.43279E+01  1.04284E+01 -5.32536E+00 -1.72738E+01 -2.03033E+01 -1.52904E+01 -4.48630E+00  7.87702E+00  1.75440E+01
   2.53674E+01  3.17874E+01  3.71934E+01  4.20737E+01  4.64113E+01  5.05707E+01  5.50469E+01  5.86756E+01  6.02079E+01  6.10905E+01
   6.24147E+01  6.24176E+01  5.60815E+01  4.32047E+01  2.69020E+01  8.17824E+00 -4.22491E+00 -7.04771E+00 -1.87118E+01 -5.31665E+01
  -9.37903E+01 -1.10817E+02 -1.01386E+02 -8.53718E+01 -7.02814E+01 -5.62932E+01 -4.47727E+01 -3.53584E+01 -2.72218E+01 -1.98972E+01
  -1.29727E+01 -6.01182E+00  1.32025E+00  9.34030E+00  1.84582E+01  2.94873E+01  4.30710E+01  5.54208E+01  6.68181E+01  8.55265E+01
   1.08609E+02  1.10190E+02  6.47325E+01 -7.21005E+00 -5.55530E+01 -7.09022E+01 -7.45443E+01 -7.32646E+01 -6.88553E+01 -6.51974E+01
  -6.31989E+01 -6.22739E+01 -6.22436E+01 -6.24365E+01 -6.24396E+01 -6.22108E+01 -6.10734E+01 -5.89852E+01 -5.66150E+01 -5.42305E+01
  -5.18869E+01 -4.95957E+01 -4.75089E+01 -4.54570E+01 -4.29450E+01 -4.01002E+01 -3.77333E+01 -3.65799E+01 -3.62934E+01 -3.54905E+01
  -3.33628E+01 -3.08760E+01 -3.00942E+01 -3.16593E+01 -3.35786E+01 -3.38871E+01 -3.27446E+01 -3.15452E+01 -3.12741E+01 -3.04463E+01
  -2.54385E+01 -1.53789E+01 -5.87270E+00 -3.86877E+00 -7.90804E+00 -9.08310E+00 -4.14376E+00  9.75454E-02 -2.97513E+00 -1.22590E+01
  -2.19839E+01 -2.89245E+01 -3.41334E+01 -3.81529E+01 -4.05226E+01 -4.17461E+01 -4.20843E+01 -4.18716E+01 -4.11777E+01 -3.93373E+01
  -3.69066E+01 -3.47194E+01 -3.19467E+01 -2.68729E+01 -1.96049E+01 -1.52483E+01 -1.52243E+01 -1.32929E+01 -9.51345E+00 -8.65706E+00
  -1.03882E+01 -1.21045E+01 -1.19043E+01 -1.22434E+01 -1.64623E+01 -2.24050E+01 -2.80475E+01 -3.38406E+01 -3.93338E+01 -4.40304E+01
  -4.76021E+01 -4.94255E+01 -4.89199E+01 -4.37420E+01 -3.29159E+01 -1.75899E+01 -4.69820E-01  1.20091E+01  1.79247E+01  1.86144E+01
   1.30483E+01  6.17961E+00  2.60989E+00  1.04732E+00  7.91045E-01  3.76639E-01 -1.48912E+00 -5.20902E+00 -1.10378E+01 -1.84900E+01
  -2.68769E+01 -3.56583E+01 -4.42862E+01 -5.23669E+01 -5.96356E+01 -6.57650E+01 -6.98478E+01 -7.16298E+01 -7.09816E+01 -6.74625E+01
  -6.29995E+01 -5.86238E+01 -5.36701E+01 -4.93923E+01 -4.62272E+01 -4.39134E+01 -4.35238E+01 -4.50249E+01 -4.83049E+01 -5.26057E+01
  -5.81814E+01 -6.79011E+01 -7.38051E+01 -7.23899E+01 -7.86077E+01 -9.89969E+01 -1.06103E+02 -6.01726E+01  1.92611E+01  6.97716E+01
   8.38950E+01  8.66145E+01  8.23850E+01  7.50646E+01  6.84584E+01  6.29815E+01  5.80950E+01  5.35285E+01  4.93908E+01  4.58324E+01
   4.31632E+01  4.15003E+01  4.05900E+01  4.03677E+01  4.05329E+01  4.06232E+01  4.05642E+01  4.02137E+01  3.96255E+01  3.87927E+01
   3.75134E+01  3.59182E+01  3.42103E+01  3.25154E+01  3.07784E+01  2.88913E+01  2.69491E+01  2.50165E+01  2.29286E+01  2.05743E+01
   1.79608E+01  1.52096E+01  1.24527E+01  9.70974E+00  7.27712E+00  5.67490E+00  5.16614E+00  5.67300E+00  6.90414E+00  8.52680E+00
   1.03863E+01  1.24834E+01  1.47434E+01  1.70176E+01  1.92308E+01  2.13231E+01  2.32919E+01  2.52945E+01  2.74908E+01  2.98058E+01
   3.19673E+01  3.38724E+01  3.56226E+01  3.72772E+01  3.87954E+01  4.00263E+01  4.08821E+01  4.13458E+01  4.12739E+01  4.06590E+01
   3.97723E+01  3.86307E+01  3.69644E+01  3.48565E+01  3.25637E+01  2.99272E+01  2.64929E+01  2.19675E+01  1.66116E+01  1.11835E+01
   6.31885E+00  2.42511E+00 -9.38231E-02 -7.70968E-01  7.46082E-01  4.50356E+00  1.02028E+01  1.64613E+01  2.27428E+01  3.04198E+01
   3.79424E+01  4.02812E+01  3.17047E+01  1.25317E+01 -9.30459E+00 -2.76099E+01 -3.64139E+01 -3.26702E+01 -2.43948E+01 -1.76694E+01
  -1.22182E+01 -8.76724E+00 -7.25753E+00 -7.24071E+00 -8.19910E+00 -9.36384E+00 -1.00526E+01 -9.97266E+00 -9.10653E+00 -7.46669E+00
  -5.17288E+00 -2.40092E+00  7.14349E-01  3.95721E+00  7.16625E+00  1.02663E+01  1.31958E+01  1.59671E+01  1.86481E+01  2.13020E+01
   2.39490E+01  2.65892E+01  2.92607E+01  3.20268E+01  3.49829E+01  3.82793E+01  4.19429E+01  4.58961E+01  5.02756E+01  5.51505E+01
   6.02375E+01  6.54407E+01  7.09641E+01  7.66221E+01  8.18256E+01  8.60583E+01  8.87445E+01  8.90640E+01  8.63754E+01  8.08550E+01
   7.35515E+01  6.57927E+01  5.84459E+01  5.18386E+01  4.60268E+01  4.06631E+01  3.50439E+01  2.87865E+01  2.20710E+01  1.52165E+01
   8.56953E+00  2.71713E+00 -2.01041E+00 -5.84003E+00 -8.89572E+00 -1.11530E+01 -1.27593E+01 -1.39989E+01 -1.50971E+01 -1.61291E+01
  -1.70696E+01 -1.78158E+01 -1.83296E+01 -1.87413E+01 -1.91309E+01 -1.93908E+01 -1.95184E+01 -1.97510E+01 -2.01682E+01 -2.04886E+01
  -2.05197E+01 -2.05291E+01 -2.07624E+01 -2.10115E+01 -2.11195E+01 -2.12273E+01 -2.14475E+01 -2.16936E+01 -2.17907E+01 -2.17342E+01
  -2.17183E+01 -2.18607E+01 -2.21005E+01 -2.23692E+01 -2.26050E+01 -2.27292E+01 -2.27645E+01 -2.27789E+01 -2.27696E+01 -2.27553E+01
  -2.28007E+01 -2.28541E+01 -2.28876E+01 -2.30195E+01 -2.33064E+01 -2.36152E+01 -2.37876E+01 -2.38330E+01 -2.38452E+01 -2.38670E+01
  -2.39235E+01 -2.40787E+01 -2.42595E+01 -2.42893E+01 -2.42217E+01 -2.41896E+01 -2.41752E+01 -2.41766E+01 -2.42107E+01 -2.42282E+01
  -2.42430E+01 -2.43322E+01 -2.44871E+01 -2.46570E+01 -2.47986E+01 -2.48748E+01 -2.48453E+01 -2.46688E+01 -2.43941E+01 -2.42204E+01
  -2.42773E+01 -2.45075E+01 -2.47322E+01 -2.48301E+01 -2.48330E+01 -2.48304E+01 -2.48253E+01 -2.47629E+01 -2.47205E+01 -2.47455E+01
 NY background values follow
    -2.127E+01   -2.108E+01   -2.089E+01   -2.070E+01   -2.051E+01   -2.032E+01   -2.013E+01   -1.994E+01   -1.975E+01   -1.955E+01
    -1.936E+01   -1.916E+01   -1.896E+01   -1.876E+01   -1.856E+01   -1.835E+01   -1.815E+01   -1.794E+01   -1.773E+01   -1.751E+01
    -1.730E+01   -1.708E+01   -1.686E+01   -1.664E+01   -1.641E+01   -1.618E+01   -1.595E+01   -1.571E+01   -1.547E+01   -1.523E+01
    -1.499E+01   -1.474E+01   -1.448E+01   -1.423E+01   -1.397E+01   -1.371E+01   -1.344E+01   -1.318E+01   -1.291E+01   -1.264E+01
    -1.237E+01   -1.210E+01   -1.182E+01   -1.155E+01   -1.127E+01   -1.100E+01   -1.072E+01   -1.045E+01   -1.017E+01   -9.896E+00
    -9.622E+00   -9.349E+00   -9.078E+00   -8.807E+00   -8.538E+00   -8.272E+00   -8.007E+00   -7.744E+00   -7.485E+00   -7.228E+00
    -6.974E+00   -6.723E+00   -6.476E+00   -6.232E+00   -5.991E+00   -5.754E+00   -5.520E+00   -5.290E+00   -5.064E+00   -4.842E+00
    -4.623E+00   -4.408E+00   -4.197E+00   -3.990E+00   -3.788E+00   -3.589E+00   -3.395E+00   -3.205E+00   -3.019E+00   -2.837E+00
    -2.660E+00   -2.488E+00   -2.320E+00   -2.157E+00   -1.999E+00   -1.845E+00   -1.696E+00   -1.553E+00   -1.414E+00   -1.280E+00
    -1.151E+00   -1.028E+00   -9.091E-01   -7.957E-01   -6.872E-01   -5.837E-01   -4.851E-01   -3.912E-01   -3.021E-01   -2.177E-01
    -1.380E-01   -6.278E-02    7.886E-03    7.409E-02    1.359E-01    1.933E-01    2.465E-01    2.954E-01    3.401E-01    3.807E-01
     4.173E-01    4.498E-01    4.785E-01    5.032E-01    5.240E-01    5.412E-01    5.545E-01    5.643E-01    5.704E-01    5.730E-01
     5.720E-01    5.677E-01    5.599E-01    5.486E-01    5.339E-01    5.157E-01    4.940E-01    4.689E-01    4.403E-01    4.082E-01
     3.727E-01    3.336E-01    2.911E-01    2.450E-01    1.955E-01    1.425E-01    8.593E-02    2.587E-02   -3.769E-02   -1.048E-01
    -1.754E-01   -2.495E-01   -3.272E-01   -4.084E-01   -4.931E-01   -5.814E-01   -6.733E-01   -7.686E-01   -8.676E-01   -9.701E-01
    -1.076E+00   -1.186E+00   -1.299E+00   -1.415E+00   -1.535E+00   -1.657E+00   -1.783E+00   -1.912E+00   -2.043E+00   -2.178E+00
    -2.314E+00   -2.454E+00   -2.596E+00   -2.740E+00   -2.886E+00   -3.035E+00   -3.185E+00   -3.337E+00   -3.492E+00   -3.648E+00
    -3.805E+00   -3.964E+00   -4.125E+00   -4.286E+00   -4.449E+00   -4.613E+00   -4.779E+00   -4.945E+00   -5.111E+00   -5.279E+00
    -5.447E+00   -5.616E+00   -5.784E+00   -5.953E+00   -6.122E+00   -6.291E+00   -6.459E+00   -6.626E+00   -6.792E+00   -6.958E+00
    -7.122E+00   -7.284E+00   -7.445E+00   -7.604E+00   -7.761E+00   -7.916E+00   -8.068E+00   -8.218E+00   -8.364E+00   -8.508E+00
    -8.649E+00   -8.786E+00   -8.919E+00   -9.049E+00   -9.175E+00   -9.296E+00   -9.413E+00   -9.526E+00   -9.633E+00   -9.736E+00
    -9.833E+00   -9.926E+00   -1.001E+01   -1.010E+01   -1.018E+01   -1.025E+01   -1.032E+01   -1.039E+01   -1.046E+01   -1.052E+01
    -1.059E+01   -1.065E+01   -1.071E+01   -1.077E+01   -1.082E+01   -1.088E+01   -1.094E+01   -1.100E+01   -1.106E+01   -1.112E+01
    -1.119E+01   -1.125E+01   -1.132E+01   -1.139E+01   -1.146E+01   -1.154E+01   -1.162E+01   -1.171E+01   -1.180E+01   -1.189E+01
    -1.199E+01   -1.209E+01   -1.221E+01   -1.232E+01   -1.244E+01   -1.257E+01   -1.270E+01   -1.283E+01   -1.297E+01   -1.312E+01
    -1.327E+01   -1.342E+01   -1.358E+01   -1.375E+01   -1.391E+01   -1.408E+01   -1.426E+01   -1.444E+01   -1.462E+01   -1.481E+01
    -1.500E+01   -1.519E+01   -1.539E+01   -1.559E+01   -1.580E+01   -1.600E+01   -1.622E+01   -1.643E+01   -1.665E+01   -1.687E+01
    -1.709E+01   -1.731E+01   -1.754E+01   -1.776E+01   -1.799E+01   -1.821E+01   -1.843E+01   -1.865E+01   -1.887E+01   -1.907E+01
    -1.928E+01   -1.947E+01   -1.966E+01   -1.983E+01   -2.000E+01   -2.016E+01   -2.030E+01   -2.044E+01   -2.055E+01   -2.066E+01
    -2.075E+01   -2.082E+01   -2.087E+01   -2.091E+01   -2.092E+01   -2.092E+01   -2.090E+01   -2.085E+01   -2.078E+01   -2.068E+01
    -2.056E+01   -2.042E+01   -2.025E+01   -2.006E+01   -1.985E+01   -1.962E+01   -1.936E+01   -1.909E+01   -1.880E+01   -1.850E+01
    -1.817E+01   -1.783E+01   -1.748E+01   -1.711E+01   -1.674E+01   -1.635E+01   -1.595E+01   -1.554E+01   -1.512E+01   -1.469E+01
    -1.426E+01   -1.382E+01   -1.338E+01   -1.293E+01   -1.248E+01   -1.203E+01   -1.158E+01   -1.113E+01   -1.067E+01   -1.022E+01
    -9.777E+00   -9.333E+00   -8.893E+00   -8.458E+00   -8.026E+00   -7.600E+00   -7.178E+00   -6.762E+00   -6.352E+00   -5.948E+00
    -5.551E+00   -5.160E+00   -4.777E+00   -4.401E+00   -4.033E+00   -3.673E+00   -3.322E+00   -2.980E+00   -2.647E+00   -2.323E+00
    -2.010E+00   -1.707E+00   -1.415E+00   -1.133E+00   -8.633E-01   -6.050E-01   -3.588E-01   -1.249E-01    9.616E-02    3.042E-01
     4.989E-01    6.800E-01    8.477E-01    1.002E+00    1.143E+00    1.271E+00    1.385E+00    1.487E+00    1.575E+00    1.650E+00
     1.712E+00    1.761E+00    1.798E+00    1.821E+00    1.832E+00    1.830E+00    1.816E+00    1.789E+00    1.749E+00    1.697E+00
     1.632E+00    1.555E+00    1.466E+00    1.364E+00    1.250E+00    1.124E+00    9.863E-01    8.362E-01    6.741E-01    5.001E-01
     3.143E-01    1.169E-01   -9.148E-02   -3.105E-01   -5.395E-01   -7.783E-01   -1.026E+00   -1.283E+00   -1.548E+00   -1.821E+00
    -2.101E+00   -2.388E+00   -2.681E+00   -2.980E+00   -3.285E+00   -3.595E+00   -3.910E+00   -4.228E+00   -4.550E+00   -4.876E+00
    -5.204E+00   -5.535E+00   -5.867E+00   -6.200E+00   -6.535E+00   -6.870E+00   -7.205E+00   -7.539E+00   -7.873E+00   -8.205E+00
    -8.535E+00   -8.864E+00   -9.190E+00   -9.515E+00   -9.837E+00   -1.016E+01   -1.048E+01   -1.079E+01   -1.111E+01   -1.142E+01
    -1.173E+01   -1.204E+01   -1.234E+01   -1.265E+01   -1.295E+01   -1.325E+01   -1.355E+01   -1.384E+01   -1.413E+01   -1.443E+01
    -1.471E+01   -1.500E+01   -1.528E+01   -1.557E+01   -1.585E+01   -1.612E+01   -1.640E+01   -1.667E+01   -1.694E+01   -1.721E+01
    -1.748E+01   -1.774E+01   -1.800E+01   -1.826E+01   -1.852E+01   -1.877E+01   -1.902E+01   -1.928E+01   -1.953E+01   -1.977E+01
    -2.002E+01   -2.027E+01   -2.051E+01   -2.075E+01   -2.099E+01   -2.123E+01   -2.147E+01   -2.171E+01   -2.195E+01   -2.219E+01
    -2.242E+01   -2.266E+01   -2.290E+01   -2.313E+01   -2.336E+01   -2.360E+01   -2.383E+01   -2.407E+01   -2.430E+01   -2.454E+01
 Mac      Conc. = 2.17E-04
  -3.65152E+01 -3.67803E+01 -3.69120E+01 -3.69768E+01 -3.71044E+01 -3.74771E+01 -3.81786E+01 -3.91375E+01 -4.01767E+01 -4.10835E+01
  -4.17207E+01 -4.20514E+01 -4.21342E+01 -4.20588E+01 -4.21517E+01 -4.28166E+01 -4.36221E+01 -4.33691E+01 -4.13954E+01 -3.83674E+01
  -3.53470E+01 -3.24137E+01 -2.95550E+01 -2.73602E+01 -2.59070E+01 -2.46989E+01 -2.34100E+01 -2.19611E+01 -2.03510E+01 -1.87068E+01
  -1.72463E+01 -1.60210E+01 -1.49559E+01 -1.41206E+01 -1.36700E+01 -1.35338E+01 -1.32253E+01 -1.22089E+01 -1.04866E+01 -8.70018E+00
  -7.54649E+00 -7.06245E+00 -6.68722E+00 -5.97894E+00 -4.93635E+00 -3.85202E+00 -3.09881E+00 -2.80946E+00 -2.89989E+00 -3.31480E+00
  -3.97719E+00 -4.67683E+00 -5.16091E+00 -5.39967E+00 -5.53740E+00 -5.56233E+00 -5.28343E+00 -4.52791E+00 -3.42425E+00 -2.29408E+00
  -1.18804E+00  1.07330E-02  9.97094E-01  1.40577E+00  1.33245E+00  1.01260E+00  7.18565E-01  6.14061E-01  5.48748E-01  5.43906E-01
   1.07033E+00  2.45378E+00  4.30090E+00  5.93233E+00  7.13110E+00  7.93081E+00  8.29277E+00  8.23450E+00  7.95135E+00  7.67053E+00
   7.45106E+00  7.26565E+00  7.17267E+00  7.35146E+00  7.85412E+00  8.50920E+00  9.22508E+00  9.98322E+00  1.06598E+01  1.12157E+01
   1.16764E+01  1.20467E+01  1.23062E+01  1.23710E+01  1.21540E+01  1.14879E+01  1.03108E+01  8.75569E+00  6.99116E+00  5.25936E+00
   3.76141E+00  2.27423E+00  4.34617E-01 -1.78764E+00 -4.40240E+00 -7.76782E+00 -1.20010E+01 -1.64860E+01 -2.01476E+01 -2.22263E+01
