 
 $NMID
 ID=''
 FMTDAT='(2E13.5)'
 TRAMP=   1.00000E+0
 VOLUME=   1.00000E+0
 $END
  -1.27771E+4  -3.10207E+4
  -3.08973E+4  -6.28093E+3
  -1.18141E+4   2.14611E+4
   1.32643E+4   2.14937E+4
   1.70649E+4  -5.75310E+2
   6.84441E+3  -1.67134E+4
  -6.38080E+3  -1.24483E+4
  -1.25389E+4   3.45442E+3
  -3.13982E+3   1.32199E+4
   8.90903E+3   8.50277E+3
   7.00422E+3  -3.60272E+3
  -1.98584E+3  -9.29857E+3
  -6.46473E+3  -3.68209E+3
  -5.83608E+3   4.06056E+3
  -1.32220E+3   4.01957E+3
   4.72315E+3  -7.23426E+2
   4.95166E+3  -2.31466E+3
  -1.05600E+3  -1.80196E+3
  -3.85760E+3  -1.15138E+3
  -1.97907E+3   1.44680E+3
   9.43668E+2   2.41418E+3
   2.64150E+3  -5.25141E+1
   1.22617E+3  -1.00202E+3
  -2.16293E+3  -6.01745E+2
  -1.90695E+3  -6.74092E+2
   1.14640E+3   2.78101E+2
   1.47874E+3   2.21684E+3
  -1.14777E+3   7.30037E+2
  -6.52568E+2  -1.75250E+3
   9.50690E+2  -3.45327E+2
  -3.60075E+1   1.70605E+3
  -1.31730E+3   5.71658E+2
  -5.42423E+2  -1.22326E+3
   2.33639E+2  -1.26391E+3
   1.35857E+1  -1.07401E+3
   7.60597E+2  -5.57317E+2
   1.01368E+3   8.36782E+2
  -2.10516E+2   1.26879E+3
  -5.72969E+2  -2.05800E+2
  -2.07927E+2  -4.49594E+2
  -5.59201E+1  -3.63445E+2
   2.68576E+1  -6.47177E+2
   4.55626E+2  -6.34925E+2
   7.04527E+2  -4.56112E+2
   7.67317E+2   2.71405E+2
   7.21597E+2   1.25605E+3
  -6.78133E+2   1.50540E+3
  -1.66632E+3  -4.39309E+2
  -7.55870E+2  -1.75791E+3
   1.67562E+2  -8.41916E+2
  -7.28841E+1   6.64628E+1
   4.76742E+2  -5.87648E+2
   9.37969E+2  -4.87985E+2
   2.02371E+2   5.41176E+2
  -6.79929E+2   7.71766E+2
  -4.39313E+2   3.16980E+1
  -1.34819E+2  -1.67126E+2
  -1.91537E+2  -4.00952E+2
   4.46472E+2  -1.01410E+3
   7.58735E+2  -5.09279E+2
   8.21236E+2   4.53372E+2
   2.12001E+2   1.44662E+3
  -3.48166E+2   8.84383E+2
  -7.61978E+2   2.13244E+2
  -1.07761E+3  -2.67393E+2
  -9.56013E+2  -8.69800E+2
  -6.71176E+1  -8.07915E+2
   1.03790E+3  -8.50695E+2
   1.24202E+3   3.05113E+2
   2.59456E+1   6.05168E+2
  -2.53706E+2  -2.49922E+2
   6.42780E+2  -3.27109E+2
   9.19765E+2   7.64451E+2
   1.44170E+1   9.81465E+2
  -6.44919E+2   2.09512E+2
   2.38982E+2  -3.80461E+2
   2.69825E+2   8.66693E+1
  -4.03524E+1   5.42805E+2
  -3.42399E+2   5.13274E+2
  -2.27950E+2  -1.73340E+2
  -1.50428E+2  -2.94530E+2
   1.12828E+0  -1.69326E+2
   1.17788E+2   1.40034E+2
   6.54118E+0  -1.08947E+1
   9.85394E+1  -3.64403E+2
   5.51228E+2  -1.89692E+2
   7.03111E+2   1.47755E+2
   3.99851E+2   3.33913E+2
   2.29196E+2   2.38262E+1
   2.98530E+2   2.95533E+2
   3.78479E+2   5.24370E+2
   4.71197E+2   4.46895E+2
  -3.43159E+2   3.46025E+2
  -6.88027E+2  -9.00801E+1
  -3.16757E+2  -7.94041E+2
   5.40209E+2  -6.43557E+2
   7.17661E+2  -1.03228E+2
   1.78133E+1   1.13352E+2
   9.02754E+1  -4.01700E+2
   6.79643E+2  -4.35593E+2
   7.35231E+2   7.38822E+2
  -2.12064E+2   1.07336E+3
  -6.00242E+2  -7.01635E+1
   1.49642E+2  -1.07173E+3
   6.61715E+2  -2.68480E+2
   1.21440E+2   4.51102E+2
  -1.89680E+2   3.89601E+2
  -8.32013E+2  -2.43112E+2
  -1.56707E+2  -9.50370E+2
   7.22146E+2  -7.25204E+2
   1.04663E+3  -1.84714E+2
   5.29983E+2   1.82787E+2
  -1.50397E+2   5.38476E+2
  -2.67277E+2   1.08901E+2
   5.33080E+1   1.87884E+2
  -3.84268E+2   2.26167E+2
  -8.43885E+2   2.89699E+2
  -8.17368E+2  -5.23811E+2
   1.19278E+2  -9.39873E+2
   7.41809E+2  -4.53626E+2
   6.71111E+2  -3.52514E+1
   5.25526E+2   4.49339E+2
  -1.11750E+2   2.68222E+2
  -3.25538E+2   4.61174E+2
  -5.32696E+2   3.47716E+1
  -5.96116E+2  -1.94003E+2
   2.57134E+1  -2.85938E+2
   2.45260E+2  -1.55752E+2
   1.61335E+2  -2.65047E+0
   1.84738E+1   3.68018E+2
  -6.02491E+2   3.94500E+2
  -4.97636E+2   2.30354E+0
  -1.80356E+2  -2.38664E+2
   2.08561E+2  -2.33596E+2
  -3.24919E+2   1.32232E+2
  -2.85775E+2  -1.52295E+2
   1.74453E+2  -2.74247E+2
   4.70410E+2   4.63307E+2
  -1.17881E+2   7.04958E+2
  -5.62235E+2   1.51162E+2
  -4.61913E+2  -1.45482E+2
   4.81611E+1  -1.19835E+2
   3.37027E+2   8.18879E+0
   4.64399E+2   5.50447E+2
   3.96879E+0   4.68503E+2
  -3.84149E+2   3.43247E+2
  -2.73488E+2   1.58050E+2
  -3.02187E+2  -5.81269E+1
  -6.86309E+1  -1.29313E+2
  -1.15114E+1  -1.12782E+2
   6.58934E+1  -3.81884E+2
   6.01970E+2   3.40204E+1
   3.58574E+2   2.78340E+2
   2.01417E+2   6.39107E+2
  -1.62212E+2   1.93733E+2
   1.34193E+2  -1.48621E+2
   1.05188E+2   3.72857E+2
   1.69973E+2   3.16956E+2
  -1.48386E+2   3.41733E+2
   7.64625E+1   2.49946E+1
   1.48996E+2   2.08293E+2
  -1.77432E+2   3.48002E+2
  -4.13041E+2   3.64051E+1
  -1.24227E+2  -1.79787E+2
   2.08460E+2  -4.35834E+2
   2.95281E+2  -2.05452E+1
   3.60836E+2   2.12626E+2
  -1.73925E+1   1.41828E+2
   2.55725E+1   2.04640E+2
   2.80125E+1  -4.57561E+1
   1.06503E+2   1.07386E+2
  -1.15660E+2   2.55756E+2
  -3.70989E+1   2.24888E+2
  -2.42948E+2  -9.70419E+1
   5.34190E+1  -2.19195E+2
   1.93537E+2   3.11581E+2
  -1.75775E+2   2.36705E+2
  -3.05232E+2  -1.25200E+2
   1.91924E+2  -4.21884E+2
   2.91867E+2   4.02792E+0
   2.67132E+2   3.21094E+2
   9.00472E+1   2.63268E+2
  -2.00152E+2   2.91095E+2
  -3.72173E+2  -1.29063E+1
  -3.86628E+1  -1.55317E+2
  -9.28458E+1  -6.71469E+1
   1.76185E+2  -7.33853E+1
   2.63434E+2  -8.11175E+0
   1.70935E+2  -9.11890E+1
   3.55864E+2   4.22331E+2
  -6.32510E+1   7.66231E+2
  -4.05321E+2   4.50119E+2
  -4.45716E+2  -3.03506E+2
  -1.39824E+2  -3.90767E+2
   1.87984E+2  -1.28693E+2
   4.73243E+1   1.14581E+2
  -1.48280E+1   1.71473E+2
   3.92724E+1   1.16839E+2
   5.57228E+1   2.40183E+2
  -1.54783E+2   1.40072E+2
  -2.31461E+2   1.36439E+2
  -2.30557E+2  -9.10404E+1
   2.95316E+2  -1.65051E+2
   2.47191E+2   1.08800E+2
  -5.54650E+1  -2.11131E+2
   1.30167E+2   2.38719E+2
   1.06035E+2  -1.41025E+2
  -6.55602E+1   4.65767E+1
   3.72577E+1  -2.55011E+1
  -3.99767E+1   6.06142E+1
  -4.51228E+0  -4.13845E+2
   2.90206E+2  -1.27345E+2
   3.26966E+2   1.14085E+2
   1.68730E+2   3.30560E+2
  -3.54342E+2   3.09585E+2
  -3.86440E+2  -3.45558E+1
  -1.77653E+2  -1.68124E+2
  -6.90558E+1  -2.51054E+2
   5.16939E+1   7.03411E+1
  -1.20243E+2  -2.54555E+2
   6.56128E+0  -2.44524E+2
   1.19008E+2   1.91169E+1
   1.58060E+1   1.39242E+2
   1.04734E+1  -6.33861E+1
  -1.27639E+2   8.12445E+1
  -1.90778E+2  -1.92570E+2
   4.66834E+0  -6.36123E+1
  -1.81990E+2   3.42953E+1
  -1.60917E+2   3.47244E+2
   4.13482E+1  -1.22982E+2
   5.58813E+0  -5.67297E+1
   3.14656E+1  -1.21421E+2
   7.12867E+1   3.07077E+2
  -2.78804E+2   1.82562E+1
  -8.93771E+1   5.36647E+1
   1.99694E+1  -2.37562E+2
  -1.89541E+2   2.97410E+2
   5.37331E+1   1.91293E+2
  -7.27575E+1  -2.07662E+2
   1.38274E+1  -1.33073E+1
  -6.27967E+1  -4.86180E+1
   2.10274E+2   1.26674E+2
  -3.89955E+1   1.08267E+1
  -8.28965E+0   4.77580E+1
  -2.20732E+2  -6.51776E+1
   1.18531E+2   1.93984E+2
  -1.60456E+2  -9.33882E+1
  -3.39441E+2   4.51234E+1
  -7.26337E+0   1.85824E+1
   2.15445E+2  -2.03024E+2
   2.29524E+2   8.60654E+1
  -1.21584E+2   1.03950E+2
  -2.33895E+2  -1.87796E+2
  -6.26720E+1  -2.81907E+2
  -3.53393E+1  -2.71490E+2
   4.06154E+2   2.58266E+1
   1.64406E+2   1.36949E+2
  -3.43423E-1   1.64385E+2
  -1.05825E+2   5.87537E+1
   1.95031E+1   3.77897E+1
  -3.08016E+2  -1.76876E+2
  -2.80239E+2  -2.66299E+2
  -2.61189E+1  -3.03682E+2
   1.72224E+2  -2.42775E+2
   2.25550E+2  -2.56013E+1
  -5.42512E+1   3.21930E+2
  -2.66148E+2   1.50643E+2
  -2.61446E+2   6.81623E+1
  -3.03277E+2   9.84151E+1
   1.13842E+2  -1.25504E+1
   8.55109E+1  -5.83213E+1
   7.97727E+1  -1.32178E+2
   1.01888E+2  -1.36422E+2
   1.79455E+2  -2.19743E+2
   1.27891E+2   2.79756E+2
  -1.46244E+2   3.41523E+1
  -1.93068E+1  -8.06039E+1
  -9.40498E+1  -9.73424E+1
  -2.46767E+1  -1.52845E+2
   1.16358E+2   3.59299E+2
   2.28837E+2   1.64922E+2
  -1.76876E+2   1.71226E+1
   2.11521E+2   3.32486E+1
  -2.13878E+2  -8.85861E+0
  -2.16011E+2  -4.52278E+1
  -1.47206E+2  -1.51416E+2
   9.94681E+0  -2.86554E+2
   5.76141E+1  -1.41035E+2
   2.72880E+2   9.61770E+1
   6.99101E+1   6.78115E+1
  -1.23625E+2  -7.57016E+1
  -6.07253E+1  -8.20674E+1
   3.70495E+1  -1.30858E+2
  -2.23340E+2  -7.12129E+1
   2.12636E+1  -1.51511E+2
   1.72495E+2  -3.08118E+2
  -1.24030E+1  -1.14349E+2
  -1.26758E+2  -1.48329E+1
   2.43185E+1  -9.82190E+1
  -9.23397E+1   2.59108E+1
  -1.42683E+2  -3.71277E+2
  -7.93173E+1  -9.50965E+1
   3.21699E+1   1.26594E+2
  -8.67482E+1   1.91792E+2
  -1.41397E+2  -1.33583E+2
   1.00091E+2  -2.43962E+2
  -9.30292E+1  -1.73723E+2
  -1.06458E+2   3.05925E+1
  -2.94915E+2  -5.48390E+1
   1.49386E+1   7.05920E+1
   1.70342E+2   5.25363E+1
   9.00384E+1  -2.14243E+2
  -2.58671E+2   1.16492E+2
   3.39554E+1   1.58324E+2
  -1.37302E+2  -1.41860E+2
   5.10794E+1  -8.52656E+1
  -8.74520E+1   7.77682E+1
   5.41443E+1   9.42219E+1
   4.65903E+1   1.04926E+2
   4.78746E+1  -9.64239E+1
  -4.85514E+0  -1.73798E+2
  -2.12419E+2   1.70982E+2
  -5.83718E+1   1.53407E+2
   4.39476E+1  -7.61944E+1
   6.88783E+1   8.11802E+1
   5.26609E+1   1.53903E+2
  -8.39066E+1   2.66844E+2
  -1.93168E+2   9.99196E+1
  -6.28079E+1  -1.85651E+2
   8.66922E+1  -5.98766E+1
   1.14909E+2   6.31134E+1
   4.51702E+1  -2.24376E+2
  -5.41960E+1   5.16049E+1
   6.43876E+1  -1.30166E+2
  -4.58676E+1   1.79730E+1
   4.47645E+1   9.21038E-1
  -4.20190E+2   8.20570E+1
  -5.98831E+1  -2.56381E+2
   1.19559E+2  -3.53347E+2
  -3.06482E+1   3.12300E+1
   3.94976E+2   1.28340E+2
  -1.12593E+2   2.17971E+2
  -2.16102E+2  -8.38024E+1
   1.41195E+2  -2.57976E+1
   1.15392E+2   3.63132E+1
  -8.85785E+1  -1.11836E+2
  -3.35687E+1  -1.15974E+2
   2.58348E+1  -4.01356E+2
   7.22576E+1  -2.46683E+2
   2.03802E+2   7.86102E+1
  -1.00552E+2   3.09018E+2
  -9.35028E+1  -1.40893E+1
   8.82224E+1  -7.14133E+0
  -8.87814E+1  -3.07447E+2
   1.59650E+1  -1.90570E+2
  -3.20742E+1  -1.21253E+2
  -1.78876E+2  -7.96972E+1
   1.55337E+2   1.10901E+2
  -2.18823E+1   3.31843E+2
   9.50443E+1   4.28922E+1
  -7.39351E+1  -2.76174E+1
   1.79977E+2  -3.07900E+1
   3.39148E+1  -6.92141E+1
  -5.38367E+1  -2.23245E+1
   1.94583E+1   8.47379E+1
  -7.32152E+1  -9.33527E+1
   5.05317E+1   6.95547E+1
