 LCModel (Version 6.3-1N) Copyright: S.W. Provencher.          Ref.: Magn. Reson. Med. 30:672-679 (1993).                
 Slice_N1@11_21  28-Feb-2025 11:39:11
 27 lines in following concentration table = NCONC+1
    Conc.  %SD /Cr+PCr  Metabolite                                         
 2.88E-04   6% 3.3E-04 Mac                                                 
    2.970  35%   3.382 Cr                                                  
    4.055  25%   4.618 PCr                                                 
    3.601  26%   4.101 Ins                                                 
    8.870  10%  10.102 NAA                                                 
    5.767  17%   6.568 Tau                                                 
    0.115 694%   0.131 PCho                                                
    0.594 129%   0.676 GPC                                                 
    9.800  13%  11.162 Glu                                                 
    2.722  32%   3.100 Gln                                                 
    0.000 999%   0.000 Ala                                                 
    0.000 999%   0.000 Asc                                                 
    2.126  45%   2.421 Asp                                                 
    0.000 999%   0.000 GABA                                                
    0.655  97%   0.746 Glc                                                 
    0.760  65%   0.866 GSH                                                 
    2.173  35%   2.475 Lac                                                 
    1.374  43%   1.565 NAAG                                                
    3.076  39%   3.503 PE                                                  
    0.709  42%   0.808 GPC+PCho                                            
   10.245  10%  11.667 NAA+NAAG                                            
   12.522  12%  14.262 Glu+Gln                                             
    7.024  12%   8.000 Cr+PCr                                              
   10.245  10%  11.667 NAA+NAAG                                            
    7.024  12%   8.000 Cr+PCr                                              
   12.522  12%  14.262 Glu+Gln                                             
   6 lines in following misc. output table
  FWHM = 0.024 ppm    S/N =   4                                            
  Data shift = 0.041 ppm                                                   
  Ph: -91 deg       0.0 deg/ppm                                            
  alphaB,S = 1.5E-01,   3.2E+00                                            
   19 spline knots.   Ns = 5(1)                                            
  ( 3) 2 infls.   ( 4) 2 extrs.                                            
  480 points on ppm-axis = NY
      4.100000     4.091866     4.083733     4.075600     4.067466     4.059333     4.051199     4.043066     4.034933     4.026799
      4.018666     4.010532     4.002399     3.994265     3.986132     3.977998     3.969864     3.961731     3.953597     3.945463
      3.937330     3.929196     3.921062     3.912929     3.904795     3.896662     3.888528     3.880394     3.872261     3.864127
      3.855993     3.847860     3.839726     3.831592     3.823459     3.815325     3.807191     3.799058     3.790924     3.782790
      3.774657     3.766523     3.758389     3.750256     3.742122     3.733989     3.725855     3.717721     3.709588     3.701454
      3.693320     3.685187     3.677053     3.668919     3.660786     3.652652     3.644518     3.636385     3.628251     3.620117
      3.611984     3.603850     3.595716     3.587583     3.579449     3.571316     3.563182     3.555048     3.546915     3.538781
      3.530647     3.522514     3.514380     3.506246     3.498113     3.489979     3.481845     3.473712     3.465578     3.457444
      3.449311     3.441177     3.433043     3.424910     3.416776     3.408643     3.400509     3.392375     3.384242     3.376108
      3.367974     3.359841     3.351707     3.343573     3.335440     3.327306     3.319172     3.311039     3.302905     3.294771
      3.286638     3.278504     3.270370     3.262237     3.254103     3.245970     3.237836     3.229702     3.221569     3.213435
      3.205301     3.197168     3.189034     3.180900     3.172767     3.164633     3.156499     3.148366     3.140232     3.132098
      3.123965     3.115831     3.107697     3.099564     3.091430     3.083297     3.075163     3.067029     3.058896     3.050762
      3.042628     3.034495     3.026361     3.018227     3.010094     3.001960     2.993826     2.985693     2.977559     2.969425
      2.961292     2.953158     2.945024     2.936891     2.928757     2.920624     2.912490     2.904356     2.896223     2.888089
      2.879955     2.871822     2.863688     2.855554     2.847421     2.839287     2.831153     2.823020     2.814886     2.806752
      2.798619     2.790485     2.782351     2.774218     2.766084     2.757951     2.749817     2.741683     2.733550     2.725416
      2.717282     2.709149     2.701015     2.692881     2.684748     2.676614     2.668480     2.660347     2.652213     2.644079
      2.635946     2.627812     2.619678     2.611545     2.603411     2.595278     2.587144     2.579010     2.570877     2.562743
      2.554609     2.546476     2.538342     2.530208     2.522075     2.513941     2.505807     2.497674     2.489540     2.481406
      2.473273     2.465139     2.457006     2.448872     2.440738     2.432605     2.424471     2.416337     2.408204     2.400070
      2.391936     2.383803     2.375669     2.367535     2.359402     2.351268     2.343134     2.335001     2.326867     2.318733
      2.310600     2.302466     2.294333     2.286199     2.278065     2.269932     2.261798     2.253664     2.245531     2.237397
      2.229263     2.221130     2.212996     2.204862     2.196729     2.188595     2.180461     2.172328     2.164194     2.156060
      2.147927     2.139793     2.131660     2.123526     2.115392     2.107259     2.099125     2.090991     2.082858     2.074724
      2.066590     2.058457     2.050323     2.042189     2.034056     2.025922     2.017788     2.009655     2.001521     1.993387
      1.985254     1.977120     1.968987     1.960853     1.952719     1.944586     1.936452     1.928318     1.920185     1.912051
      1.903917     1.895784     1.887650     1.879516     1.871383     1.863249     1.855115     1.846982     1.838848     1.830714
      1.822581     1.814447     1.806314     1.798180     1.790046     1.781913     1.773779     1.765645     1.757512     1.749378
      1.741244     1.733111     1.724977     1.716843     1.708710     1.700576     1.692442     1.684309     1.676175     1.668041
      1.659908     1.651774     1.643641     1.635507     1.627373     1.619240     1.611106     1.602972     1.594839     1.586705
      1.578571     1.570438     1.562304     1.554170     1.546037     1.537903     1.529769     1.521636     1.513502     1.505368
      1.497235     1.489101     1.480968     1.472834     1.464700     1.456567     1.448433     1.440299     1.432166     1.424032
      1.415898     1.407765     1.399631     1.391497     1.383364     1.375230     1.367096     1.358963     1.350829     1.342695
      1.334562     1.326428     1.318295     1.310161     1.302027     1.293894     1.285760     1.277626     1.269493     1.261359
      1.253225     1.245092     1.236958     1.228824     1.220691     1.212557     1.204423     1.196290     1.188156     1.180022
      1.171889     1.163755     1.155622     1.147488     1.139354     1.131221     1.123087     1.114953     1.106820     1.098686
      1.090552     1.082419     1.074285     1.066151     1.058018     1.049884     1.041750     1.033617     1.025483     1.017349
      1.009216     1.001082     0.992949     0.984815     0.976681     0.968548     0.960414     0.952280     0.944147     0.936013
      0.927879     0.919746     0.911612     0.903478     0.895345     0.887211     0.879077     0.870944     0.862810     0.854676
      0.846543     0.838409     0.830276     0.822142     0.814008     0.805875     0.797741     0.789607     0.781474     0.773340
      0.765206     0.757073     0.748939     0.740805     0.732672     0.724538     0.716404     0.708271     0.700137     0.692003
      0.683870     0.675736     0.667603     0.659469     0.651335     0.643202     0.635068     0.626934     0.618801     0.610667
      0.602533     0.594400     0.586266     0.578132     0.569999     0.561865     0.553731     0.545598     0.537464     0.529330
      0.521197     0.513063     0.504930     0.496796     0.488662     0.480529     0.472395     0.464261     0.456128     0.447994
      0.439861     0.431727     0.423593     0.415460     0.407326     0.399192     0.391059     0.382925     0.374792     0.366658
      0.358524     0.350391     0.342257     0.334124     0.325990     0.317856     0.309723     0.301589     0.293455     0.285322
      0.277188     0.269055     0.260921     0.252787     0.244654     0.236520     0.228386     0.220253     0.212119     0.203986
 NY phased data points follow
  -4.62286E+01 -4.53612E+01 -3.45017E+01 -4.06394E+01 -6.23629E+01 -5.92203E+01 -2.90112E+01 -4.62297E+01 -4.24815E+01 -3.60823E+01
  -6.74690E+01 -6.15623E+01 -5.92107E+01 -6.69599E+01 -6.19547E+01 -6.84600E+01 -7.08071E+01 -5.79741E+01 -6.55002E+01 -9.98102E+01
  -1.35994E+02 -1.05114E+02 -8.67945E+01 -9.92058E+01 -5.03698E+01 -2.58895E+01 -1.00348E+01 -1.09878E+00 -6.80941E+00  4.26108E-01
   7.16080E-01 -2.53464E+00  2.16484E+00  1.44050E+01 -1.50064E+00  5.85762E+00  1.21545E+01  5.74834E+00 -1.34383E-01 -2.44116E+01
  -4.01482E+01 -7.06057E+01 -5.76241E+01 -2.49111E+01 -2.78384E+01 -9.08467E+00  2.33222E+01  4.07990E+01  5.52624E+01  5.67352E+01
   4.66315E+01  5.53900E+01  6.31876E+01  5.16179E+01  3.50948E+01  3.56741E+01  3.16163E+01  3.95939E+01  3.82070E+01  5.22909E+00
   1.73391E+01  9.90505E+00  3.10088E+00  1.80415E+01  1.36057E+01  3.97986E+01  4.42477E+01  4.73331E+01  3.60172E+01 -1.87575E+01
  -2.08074E+01  2.79424E+00 -8.00410E+00 -4.66700E+00  1.08686E+01  1.32819E+01  2.71615E+01  1.79613E+01  2.07662E+01  3.78444E+01
   3.98420E+01  3.48583E+01  6.25893E+00 -6.69719E+00 -2.47778E+01 -2.55218E+01 -2.90528E+01 -2.36965E+01  1.45604E+01  9.08461E+00
   1.51043E+01  2.87576E+01  3.42192E+01  3.11311E+01  3.63521E+01  4.91685E+01  4.02442E+01  5.83004E+01  6.24156E+01  5.63058E+01
   5.80250E+01  5.63823E+01  5.33886E+01  2.75240E+01  1.20641E+01  1.10506E+01 -9.51226E+00 -1.46850E+01 -5.79121E+00 -4.63998E+01
  -1.15458E+02 -1.44486E+02 -1.14218E+02 -1.01402E+02 -9.45499E+01 -6.86578E+01 -5.73296E+01 -3.77436E+01 -3.69730E+01 -4.08530E+01
  -2.84424E+01 -1.24023E+01 -9.53115E+00 -1.40877E+00  1.02885E+01  1.53429E+00  8.90431E+00  1.69533E+01  1.78429E+01  4.78205E+01
   1.29642E+02  1.51594E+02  6.91272E+01 -1.52166E+01 -6.45951E+01 -7.32661E+01 -9.19498E+01 -1.03571E+02 -8.49243E+01 -8.00044E+01
  -8.08078E+01 -8.85713E+01 -8.90593E+01 -8.38318E+01 -8.95658E+01 -8.02796E+01 -6.79056E+01 -6.45598E+01 -8.57828E+01 -9.82188E+01
  -7.12406E+01 -7.21334E+01 -8.46484E+01 -8.01300E+01 -5.39957E+01 -5.98450E+01 -6.90829E+01 -4.02038E+01 -6.31150E+01 -6.02373E+01
  -4.19480E+01 -4.46720E+01 -3.43824E+01 -3.85777E+01 -4.32847E+01 -4.84792E+01 -4.84431E+01 -5.70537E+01 -5.26316E+01 -4.03309E+01
  -5.21283E+01 -4.60950E+01 -1.13537E+01 -5.80343E+00 -1.21495E+01 -1.01048E+01 -1.29204E+01  8.61210E+00  2.39736E+00 -1.27405E+01
  -2.86505E+01 -6.33683E+01 -6.76262E+01 -6.18823E+01 -6.19956E+01 -6.11410E+01 -6.36262E+01 -7.53381E+01 -7.31152E+01 -7.71067E+01
  -7.57995E+01 -5.48530E+01 -6.48260E+01 -5.15955E+01 -3.98423E+01 -7.29866E+01 -6.10612E+01 -5.59826E+01 -6.57640E+01 -4.38440E+01
  -5.00842E+01 -4.66277E+01 -3.38580E+01 -1.98661E+01 -2.49915E+01 -3.78396E+01 -4.49066E+01 -7.41203E+01 -6.22586E+01 -7.34434E+01
  -9.22819E+01 -8.59389E+01 -7.72386E+01 -6.62589E+01 -5.77463E+01 -2.81223E+01 -9.97211E+00  2.39317E+01  2.64153E+01  3.54493E-01
  -5.96359E+00 -1.61469E+00 -1.65437E+01 -3.68652E+01 -1.79654E+01 -2.76592E+01 -2.16717E+01 -8.78283E+00 -1.81744E+01 -1.37025E+01
  -1.50586E+01 -3.29475E+01 -3.63068E+01 -2.67668E+01 -5.46444E+01 -6.16557E+01 -6.90854E+01 -9.40453E+01 -9.71931E+01 -1.03226E+02
  -1.12098E+02 -1.09204E+02 -1.09617E+02 -1.07220E+02 -7.21697E+01 -5.65152E+01 -6.18187E+01 -5.44223E+01 -6.12361E+01 -8.15012E+01
  -7.70822E+01 -9.44501E+01 -1.05739E+02 -6.95892E+01 -5.53260E+01 -1.19540E+02 -2.33846E+02 -1.60980E+02 -6.67537E+00  5.19183E+01
   1.07605E+02  1.23728E+02  1.07040E+02  8.26062E+01  7.77284E+01  6.45790E+01  5.38267E+01  6.73403E+01  6.35421E+01  5.17945E+01
   3.54891E+01  4.64973E+01  4.59874E+01  3.01470E+01  4.03860E+01  5.74221E+01  4.42347E+01  2.81899E+01  3.06631E+01  2.56031E+01
   3.14745E+01  1.45267E+01  6.86261E+00  1.86933E+01 -1.68000E+00  4.64676E+00  1.33292E+01 -1.60616E+01 -2.26122E+01 -1.05521E+01
  -3.66768E+00 -2.36840E+01 -4.38794E+01 -4.09725E+01 -5.23450E+01 -5.22014E+01 -6.53325E+01 -6.66397E+01 -6.98091E+01 -9.05463E+01
  -7.54172E+01 -8.40728E+01 -8.82714E+01 -9.31024E+01 -9.02612E+01 -7.92365E+01 -9.66353E+01 -8.84457E+01 -8.52714E+01 -7.98295E+01
  -7.09811E+01 -6.92065E+01 -6.46693E+01 -5.15167E+01 -2.24689E+01 -1.08687E+01  6.08501E+00  1.24379E+01  1.87466E+00  1.51332E+01
   3.69406E+01  3.20669E+01  4.74331E+01  8.57754E+01  7.07922E+01  7.25325E+01  8.49841E+01  6.39451E+01  5.03026E+01  3.78189E+01
   2.75295E+01 -9.85470E-01 -2.41688E+01 -2.35481E+01 -1.09527E+01 -6.00672E+00 -3.28032E+01 -3.82481E+01 -3.05603E+01 -3.98809E+01
  -2.80886E+01 -2.07076E+01 -3.42073E+01 -4.37230E+01 -4.73896E+01 -3.64804E+01 -4.09465E+01 -3.19794E+01 -3.61306E+01 -5.09087E+01
  -2.38050E+01 -3.58905E+01 -2.93156E+01 -2.10878E+01 -2.94378E+01 -2.51910E+01 -3.79489E+01 -3.02224E+01 -3.43985E+01 -2.94383E+01
  -3.24632E+01 -2.64019E+01 -1.08333E+01 -2.20576E+01 -1.34299E+01  4.34710E+00 -4.29135E-01 -4.62126E+00  1.43227E+01  7.46935E-01
   1.25111E+01  1.39234E+01  2.01669E+01  3.33629E+01  8.26890E+00  3.02940E+01  8.59892E+00  2.55962E+01  3.15309E+01  7.25998E+00
   4.56535E+01  4.07485E+01  4.94536E+01  5.72439E+01  7.24342E+01  7.46903E+01  7.01273E+01  8.64533E+01  7.74983E+01  9.35154E+01
   9.82626E+01  8.68904E+01  7.02180E+01  5.99461E+01  5.13282E+01  4.15703E+01  4.77765E+01  4.03105E+01  3.98702E+01  1.84117E+01
   1.24113E+01  1.57948E+01 -1.07820E+01  2.20331E+00 -1.02544E+01 -2.94132E+01 -3.27890E+01 -5.33090E+01 -4.34250E+01 -3.28492E+01
  -2.82124E+01 -4.23646E+01 -3.82132E+01 -2.50483E+01 -3.39310E+01 -4.18536E+01 -4.08746E+01 -3.33948E+01 -4.97807E+01 -3.35064E+01
  -4.79785E+01 -5.10745E+01 -3.78654E+01 -5.49276E+01 -3.75053E+01 -5.17003E+01 -3.24135E+01 -2.86464E+01 -4.93206E+01 -3.51339E+01
  -3.47807E+01 -5.31578E+01 -5.89485E+01 -4.57863E+01 -6.09124E+01 -5.03279E+01 -5.91628E+01 -4.49375E+01 -2.67844E+01 -5.16319E+01
  -5.12178E+01 -5.53223E+01 -4.03932E+01 -4.93186E+01 -5.19803E+01 -5.02432E+01 -5.55415E+01 -4.26280E+01 -4.80587E+01 -4.78753E+01
  -4.78352E+01 -5.29183E+01 -4.27904E+01 -3.68571E+01 -5.63768E+01 -5.03267E+01 -4.59990E+01 -4.13645E+01 -4.00570E+01 -3.97699E+01
  -2.82234E+01 -4.49098E+01 -4.26684E+01 -4.93176E+01 -4.88209E+01 -5.36844E+01 -5.97774E+01 -4.46133E+01 -4.99094E+01 -5.44679E+01
  -5.61916E+01 -5.16070E+01 -5.18497E+01 -4.69388E+01 -3.91632E+01 -3.79273E+01 -5.65176E+01 -4.85430E+01 -4.12088E+01 -5.52186E+01
 NY points of the fit to the data follow
  -4.47303E+01 -4.44948E+01 -4.47929E+01 -5.06005E+01 -5.85644E+01 -5.71040E+01 -4.54554E+01 -3.56426E+01 -3.39041E+01 -3.65020E+01
  -4.18184E+01 -5.00653E+01 -5.89619E+01 -6.63623E+01 -6.91288E+01 -6.72076E+01 -6.82198E+01 -6.01990E+01 -6.09686E+01 -8.95150E+01
  -1.08630E+02 -9.31143E+01 -8.03667E+01 -6.99618E+01 -4.01327E+01 -1.58423E+01 -7.25444E+00 -1.08690E+00  5.80634E+00  1.09151E+01
   1.31763E+01  1.40911E+01  1.52052E+01  1.59749E+01  1.53499E+01  1.50518E+01  1.37699E+01  1.47571E+01  1.11254E+01 -7.78505E+00
  -3.88726E+01 -5.94542E+01 -6.25583E+01 -5.11117E+01 -2.87641E+01 -3.61109E+00  1.46526E+01  2.45075E+01  2.92943E+01  3.02391E+01
   2.94743E+01  2.88454E+01  2.62169E+01  2.28597E+01  1.92807E+01  1.10899E+01  8.45430E+00  1.32618E+01  5.54158E+00 -7.51068E+00
  -4.54623E+00 -2.32070E-03 -3.52597E+00  1.97427E+00  1.50582E+01  2.30228E+01  3.04366E+01  3.94496E+01  3.34070E+01  9.92004E+00
  -4.42784E+00 -2.75803E+00 -3.52906E+00 -4.67139E+00  4.35501E+00  1.72797E+01  2.61792E+01  3.42513E+01  4.41883E+01  4.93115E+01
   5.01308E+01  4.05398E+01  1.92945E+01 -5.85620E+00 -2.29692E+01 -3.15406E+01 -2.65681E+01 -1.33989E+01 -2.19839E+00  6.63710E+00
   1.39596E+01  1.94267E+01  2.36976E+01  2.77321E+01  3.18897E+01  3.42204E+01  3.64549E+01  4.21287E+01  4.25196E+01  4.43510E+01
   5.70809E+01  6.59653E+01  6.08808E+01  4.76227E+01  3.07892E+01  9.74320E+00 -3.55180E+00 -3.76461E+00 -9.50131E+00 -4.73468E+01
  -9.60861E+01 -1.14110E+02 -1.07826E+02 -9.59484E+01 -8.24301E+01 -6.96983E+01 -5.95784E+01 -5.11507E+01 -4.40048E+01 -3.82603E+01
  -3.32920E+01 -2.87024E+01 -2.45628E+01 -2.01388E+01 -1.45765E+01 -9.14140E+00 -3.04046E-01  2.16018E+01  3.42639E+01  6.39831E+01
   1.35159E+02  1.68075E+02  9.10682E+01 -1.02276E+01 -6.02282E+01 -8.12266E+01 -9.01978E+01 -8.84605E+01 -8.35414E+01 -8.05494E+01
  -7.91852E+01 -7.86247E+01 -7.85709E+01 -7.89589E+01 -7.97667E+01 -8.04568E+01 -7.99546E+01 -7.81823E+01 -7.55753E+01 -7.27314E+01
  -6.96568E+01 -6.68193E+01 -6.52247E+01 -6.39768E+01 -6.12820E+01 -5.74610E+01 -5.46325E+01 -5.36955E+01 -5.40435E+01 -5.37909E+01
  -5.04460E+01 -4.57237E+01 -4.46196E+01 -4.74605E+01 -5.03909E+01 -5.07044E+01 -4.94049E+01 -4.96940E+01 -5.35713E+01 -5.94817E+01
  -5.88037E+01 -4.30450E+01 -2.32485E+01 -2.06784E+01 -3.22560E+01 -3.72669E+01 -2.52711E+01 -9.35967E+00 -7.58557E+00 -1.97250E+01
  -3.14117E+01 -3.95179E+01 -4.74567E+01 -5.39069E+01 -5.80020E+01 -6.06643E+01 -6.23675E+01 -6.24299E+01 -6.23625E+01 -6.33200E+01
  -6.06576E+01 -6.00991E+01 -6.60266E+01 -6.28374E+01 -5.01702E+01 -4.66632E+01 -5.08575E+01 -4.82738E+01 -3.99575E+01 -3.56887E+01
  -3.90532E+01 -4.09524E+01 -3.24749E+01 -2.53980E+01 -2.70899E+01 -3.16253E+01 -3.57614E+01 -4.40496E+01 -5.41006E+01 -6.55736E+01
  -8.21631E+01 -8.93280E+01 -9.45887E+01 -9.49385E+01 -7.40987E+01 -3.68285E+01 -9.09062E+00  1.43052E+01  2.64113E+01  1.74864E+01
   3.62471E+00 -6.75336E+00 -1.33199E+01 -1.56813E+01 -1.54066E+01 -1.35056E+01 -1.19871E+01 -1.28258E+01 -1.66173E+01 -2.21035E+01
  -3.10770E+01 -4.21879E+01 -5.25273E+01 -6.38954E+01 -7.71233E+01 -8.71213E+01 -9.70843E+01 -1.05591E+02 -1.08777E+02 -1.09464E+02
  -1.10009E+02 -1.06968E+02 -1.01491E+02 -9.30720E+01 -8.29409E+01 -7.18129E+01 -6.54644E+01 -6.43633E+01 -6.87469E+01 -7.02332E+01
  -6.98356E+01 -7.22743E+01 -9.16915E+01 -7.54076E+01 -6.22869E+01 -1.42817E+02 -2.28944E+02 -1.65564E+02 -3.49303E+01  3.67893E+01
   6.60162E+01  7.82279E+01  7.47403E+01  6.49140E+01  5.68632E+01  5.06263E+01  4.51888E+01  4.02178E+01  3.56815E+01  3.16375E+01
   2.86814E+01  2.69804E+01  2.56612E+01  2.47782E+01  2.41547E+01  2.32619E+01  2.16807E+01  2.01646E+01  1.90534E+01  1.81027E+01
   1.67290E+01  1.44955E+01  1.22472E+01  1.04957E+01  8.60231E+00  6.34017E+00  4.23289E+00  2.32513E+00  5.50496E-01 -1.82212E+00
  -5.14082E+00 -8.72952E+00 -1.28710E+01 -1.83509E+01 -2.41484E+01 -2.88220E+01 -3.18020E+01 -3.26022E+01 -3.17225E+01 -3.01894E+01
  -2.82774E+01 -2.55655E+01 -2.23740E+01 -1.91830E+01 -1.60115E+01 -1.31474E+01 -1.10374E+01 -8.89727E+00 -5.99765E+00 -2.63900E+00
   6.14368E-01  3.44320E+00  5.63669E+00  8.32987E+00  1.13499E+01  1.35569E+01  1.54226E+01  1.75466E+01  1.81469E+01  1.75506E+01
   1.72010E+01  1.65298E+01  1.46808E+01  1.25382E+01  1.08151E+01  9.35128E+00  6.88679E+00  1.40226E+00 -7.18180E+00 -1.71208E+01
  -2.75321E+01 -3.80792E+01 -4.76418E+01 -5.51512E+01 -5.93406E+01 -5.92220E+01 -5.42063E+01 -4.78620E+01 -3.91120E+01 -2.50414E+01
  -1.58067E+01 -1.66517E+01 -2.27578E+01 -3.27936E+01 -4.48698E+01 -4.69259E+01 -4.09030E+01 -3.50890E+01 -2.92447E+01 -2.35728E+01
  -1.97230E+01 -1.78527E+01 -1.73931E+01 -1.93869E+01 -2.40532E+01 -2.95034E+01 -3.41106E+01 -3.75681E+01 -3.94719E+01 -3.96392E+01
  -3.84220E+01 -3.58688E+01 -3.23488E+01 -2.83023E+01 -2.39795E+01 -1.96776E+01 -1.55963E+01 -1.20507E+01 -8.72730E+00 -5.19329E+00
  -1.87664E+00  1.21974E+00  4.54742E+00  7.28370E+00  9.80206E+00  1.35982E+01  1.77670E+01  2.13851E+01  2.61591E+01  3.25118E+01
   3.84594E+01  4.46568E+01  5.27865E+01  6.26242E+01  7.34118E+01  8.50064E+01  9.61450E+01  1.04297E+02  1.06850E+02  1.02059E+02
   9.19398E+01  8.01408E+01  6.87258E+01  5.83006E+01  5.06225E+01  4.53253E+01  3.93469E+01  3.17093E+01  2.29660E+01  1.26752E+01
   1.19359E+00 -8.98269E+00 -1.71781E+01 -2.41197E+01 -2.97427E+01 -3.35789E+01 -3.59184E+01 -3.75210E+01 -3.88647E+01 -4.01791E+01
  -4.17312E+01 -4.29387E+01 -4.34549E+01 -4.36222E+01 -4.41154E+01 -4.43830E+01 -4.37627E+01 -4.35405E+01 -4.44878E+01 -4.50651E+01
  -4.43018E+01 -4.37492E+01 -4.40484E+01 -4.43036E+01 -4.40888E+01 -4.37306E+01 -4.40401E+01 -4.46548E+01 -4.46215E+01 -4.39815E+01
  -4.35696E+01 -4.34771E+01 -4.35181E+01 -4.40008E+01 -4.44172E+01 -4.45585E+01 -4.45497E+01 -4.45673E+01 -4.42451E+01 -4.39241E+01
  -4.38968E+01 -4.37842E+01 -4.34176E+01 -4.33099E+01 -4.38876E+01 -4.46119E+01 -4.47939E+01 -4.47486E+01 -4.48064E+01 -4.45921E+01
  -4.43668E+01 -4.48495E+01 -4.53134E+01 -4.52506E+01 -4.51369E+01 -4.50894E+01 -4.48849E+01 -4.48631E+01 -4.48729E+01 -4.48119E+01
  -4.46740E+01 -4.45896E+01 -4.48698E+01 -4.53255E+01 -4.57042E+01 -4.60254E+01 -4.63499E+01 -4.60242E+01 -4.52902E+01 -4.46721E+01
  -4.45038E+01 -4.49131E+01 -4.56533E+01 -4.58823E+01 -4.57888E+01 -4.61234E+01 -4.62770E+01 -4.58572E+01 -4.60723E+01 -4.66706E+01
 NY background values follow
    -2.034E+01   -1.999E+01   -1.964E+01   -1.929E+01   -1.894E+01   -1.859E+01   -1.824E+01   -1.789E+01   -1.754E+01   -1.719E+01
    -1.684E+01   -1.649E+01   -1.614E+01   -1.579E+01   -1.543E+01   -1.508E+01   -1.473E+01   -1.439E+01   -1.404E+01   -1.369E+01
    -1.334E+01   -1.300E+01   -1.266E+01   -1.231E+01   -1.197E+01   -1.163E+01   -1.129E+01   -1.096E+01   -1.062E+01   -1.029E+01
    -9.961E+00   -9.633E+00   -9.308E+00   -8.985E+00   -8.665E+00   -8.349E+00   -8.037E+00   -7.728E+00   -7.424E+00   -7.125E+00
    -6.830E+00   -6.540E+00   -6.256E+00   -5.978E+00   -5.706E+00   -5.440E+00   -5.181E+00   -4.929E+00   -4.684E+00   -4.447E+00
    -4.217E+00   -3.996E+00   -3.783E+00   -3.579E+00   -3.385E+00   -3.199E+00   -3.023E+00   -2.857E+00   -2.702E+00   -2.556E+00
    -2.422E+00   -2.299E+00   -2.187E+00   -2.085E+00   -1.994E+00   -1.913E+00   -1.842E+00   -1.781E+00   -1.729E+00   -1.687E+00
    -1.655E+00   -1.631E+00   -1.616E+00   -1.610E+00   -1.612E+00   -1.622E+00   -1.641E+00   -1.667E+00   -1.700E+00   -1.742E+00
    -1.790E+00   -1.845E+00   -1.907E+00   -1.975E+00   -2.050E+00   -2.131E+00   -2.218E+00   -2.311E+00   -2.409E+00   -2.512E+00
    -2.621E+00   -2.735E+00   -2.853E+00   -2.976E+00   -3.103E+00   -3.235E+00   -3.372E+00   -3.512E+00   -3.657E+00   -3.805E+00
    -3.958E+00   -4.114E+00   -4.274E+00   -4.437E+00   -4.604E+00   -4.774E+00   -4.947E+00   -5.123E+00   -5.302E+00   -5.484E+00
    -5.669E+00   -5.856E+00   -6.045E+00   -6.237E+00   -6.432E+00   -6.628E+00   -6.826E+00   -7.026E+00   -7.228E+00   -7.431E+00
    -7.636E+00   -7.843E+00   -8.050E+00   -8.259E+00   -8.470E+00   -8.681E+00   -8.894E+00   -9.107E+00   -9.322E+00   -9.537E+00
    -9.754E+00   -9.971E+00   -1.019E+01   -1.041E+01   -1.063E+01   -1.085E+01   -1.107E+01   -1.129E+01   -1.151E+01   -1.173E+01
    -1.195E+01   -1.218E+01   -1.240E+01   -1.262E+01   -1.284E+01   -1.307E+01   -1.329E+01   -1.351E+01   -1.373E+01   -1.395E+01
    -1.418E+01   -1.440E+01   -1.462E+01   -1.484E+01   -1.506E+01   -1.528E+01   -1.550E+01   -1.572E+01   -1.594E+01   -1.616E+01
    -1.638E+01   -1.660E+01   -1.682E+01   -1.704E+01   -1.726E+01   -1.748E+01   -1.770E+01   -1.792E+01   -1.814E+01   -1.836E+01
    -1.858E+01   -1.880E+01   -1.902E+01   -1.924E+01   -1.946E+01   -1.968E+01   -1.990E+01   -2.013E+01   -2.035E+01   -2.057E+01
    -2.079E+01   -2.102E+01   -2.124E+01   -2.147E+01   -2.169E+01   -2.192E+01   -2.214E+01   -2.237E+01   -2.260E+01   -2.282E+01
    -2.305E+01   -2.328E+01   -2.351E+01   -2.374E+01   -2.397E+01   -2.420E+01   -2.443E+01   -2.466E+01   -2.489E+01   -2.512E+01
    -2.535E+01   -2.558E+01   -2.582E+01   -2.605E+01   -2.628E+01   -2.652E+01   -2.675E+01   -2.699E+01   -2.722E+01   -2.746E+01
    -2.769E+01   -2.793E+01   -2.817E+01   -2.840E+01   -2.864E+01   -2.888E+01   -2.912E+01   -2.936E+01   -2.961E+01   -2.985E+01
    -3.010E+01   -3.035E+01   -3.060E+01   -3.086E+01   -3.111E+01   -3.137E+01   -3.163E+01   -3.190E+01   -3.216E+01   -3.244E+01
    -3.271E+01   -3.299E+01   -3.327E+01   -3.356E+01   -3.385E+01   -3.414E+01   -3.444E+01   -3.474E+01   -3.505E+01   -3.536E+01
    -3.568E+01   -3.600E+01   -3.633E+01   -3.666E+01   -3.700E+01   -3.734E+01   -3.768E+01   -3.803E+01   -3.838E+01   -3.874E+01
    -3.909E+01   -3.946E+01   -3.982E+01   -4.019E+01   -4.056E+01   -4.093E+01   -4.130E+01   -4.168E+01   -4.206E+01   -4.244E+01
    -4.282E+01   -4.320E+01   -4.358E+01   -4.397E+01   -4.435E+01   -4.473E+01   -4.512E+01   -4.550E+01   -4.589E+01   -4.627E+01
    -4.666E+01   -4.704E+01   -4.742E+01   -4.780E+01   -4.817E+01   -4.854E+01   -4.890E+01   -4.926E+01   -4.961E+01   -4.995E+01
    -5.028E+01   -5.060E+01   -5.091E+01   -5.121E+01   -5.149E+01   -5.176E+01   -5.202E+01   -5.226E+01   -5.248E+01   -5.268E+01
    -5.287E+01   -5.304E+01   -5.318E+01   -5.331E+01   -5.341E+01   -5.349E+01   -5.355E+01   -5.358E+01   -5.358E+01   -5.356E+01
    -5.351E+01   -5.343E+01   -5.333E+01   -5.320E+01   -5.305E+01   -5.287E+01   -5.267E+01   -5.245E+01   -5.220E+01   -5.194E+01
    -5.166E+01   -5.135E+01   -5.104E+01   -5.070E+01   -5.035E+01   -4.999E+01   -4.961E+01   -4.922E+01   -4.881E+01   -4.840E+01
    -4.798E+01   -4.755E+01   -4.711E+01   -4.666E+01   -4.621E+01   -4.575E+01   -4.528E+01   -4.482E+01   -4.435E+01   -4.388E+01
    -4.341E+01   -4.294E+01   -4.247E+01   -4.200E+01   -4.153E+01   -4.106E+01   -4.059E+01   -4.013E+01   -3.967E+01   -3.920E+01
    -3.875E+01   -3.829E+01   -3.784E+01   -3.739E+01   -3.694E+01   -3.650E+01   -3.606E+01   -3.563E+01   -3.520E+01   -3.478E+01
    -3.436E+01   -3.395E+01   -3.354E+01   -3.314E+01   -3.275E+01   -3.236E+01   -3.198E+01   -3.161E+01   -3.125E+01   -3.089E+01
    -3.054E+01   -3.020E+01   -2.987E+01   -2.955E+01   -2.923E+01   -2.893E+01   -2.863E+01   -2.834E+01   -2.806E+01   -2.779E+01
    -2.752E+01   -2.727E+01   -2.702E+01   -2.679E+01   -2.656E+01   -2.634E+01   -2.613E+01   -2.593E+01   -2.574E+01   -2.555E+01
    -2.538E+01   -2.522E+01   -2.506E+01   -2.492E+01   -2.478E+01   -2.465E+01   -2.454E+01   -2.443E+01   -2.433E+01   -2.424E+01
    -2.416E+01   -2.409E+01   -2.403E+01   -2.398E+01   -2.394E+01   -2.391E+01   -2.389E+01   -2.387E+01   -2.387E+01   -2.388E+01
    -2.389E+01   -2.391E+01   -2.394E+01   -2.398E+01   -2.403E+01   -2.409E+01   -2.416E+01   -2.423E+01   -2.432E+01   -2.441E+01
    -2.451E+01   -2.462E+01   -2.473E+01   -2.486E+01   -2.499E+01   -2.513E+01   -2.528E+01   -2.544E+01   -2.560E+01   -2.577E+01
    -2.595E+01   -2.614E+01   -2.633E+01   -2.653E+01   -2.674E+01   -2.696E+01   -2.718E+01   -2.740E+01   -2.764E+01   -2.788E+01
    -2.812E+01   -2.837E+01   -2.862E+01   -2.888E+01   -2.915E+01   -2.942E+01   -2.969E+01   -2.997E+01   -3.025E+01   -3.053E+01
    -3.082E+01   -3.111E+01   -3.141E+01   -3.170E+01   -3.200E+01   -3.231E+01   -3.261E+01   -3.292E+01   -3.322E+01   -3.353E+01
    -3.384E+01   -3.416E+01   -3.447E+01   -3.478E+01   -3.510E+01   -3.542E+01   -3.573E+01   -3.605E+01   -3.637E+01   -3.669E+01
    -3.701E+01   -3.734E+01   -3.766E+01   -3.798E+01   -3.831E+01   -3.863E+01   -3.896E+01   -3.928E+01   -3.961E+01   -3.994E+01
    -4.026E+01   -4.059E+01   -4.092E+01   -4.125E+01   -4.157E+01   -4.190E+01   -4.223E+01   -4.256E+01   -4.289E+01   -4.321E+01
 Mac      Conc. = 2.88E-04
  -3.99474E+01 -4.03819E+01 -4.03274E+01 -3.97386E+01 -3.90308E+01 -3.86942E+01 -3.91793E+01 -4.03497E+01 -4.23104E+01 -4.43072E+01
  -4.56696E+01 -4.61409E+01 -4.58909E+01 -4.51172E+01 -4.44928E+01 -4.63579E+01 -5.15027E+01 -5.51837E+01 -5.30232E+01 -4.84572E+01
  -4.44538E+01 -3.92523E+01 -3.32083E+01 -2.92433E+01 -2.72414E+01 -2.57932E+01 -2.43065E+01 -2.26618E+01 -2.03805E+01 -1.74507E+01
  -1.48170E+01 -1.25922E+01 -1.04489E+01 -8.65440E+00 -8.20283E+00 -9.22821E+00 -1.05361E+01 -1.01721E+01 -6.96337E+00 -2.88340E+00
  -7.03829E-01 -5.51584E-01 -9.34803E-01 -5.07631E-01  1.23005E+00  3.84202E+00  5.78139E+00  6.83675E+00  7.41324E+00  7.06599E+00
   5.58470E+00  3.95437E+00  2.79829E+00  1.73525E+00  8.67564E-01 -3.79823E-01 -1.59360E+00 -1.08751E+00  5.40269E-01  1.51376E+00
   3.08035E+00  5.74160E+00  8.05782E+00  9.17596E+00  9.40087E+00  8.34546E+00  7.10488E+00  6.43096E+00  5.33326E+00  3.11138E+00
   1.79311E+00  3.36370E+00  6.45741E+00  9.34485E+00  1.18174E+01  1.38187E+01  1.48374E+01  1.48389E+01  1.40552E+01  1.30350E+01
   1.23239E+01  1.11165E+01  9.79022E+00  9.07664E+00  9.31483E+00  9.71763E+00  1.04786E+01  1.14187E+01  1.23359E+01  1.28330E+01
   1.34986E+01  1.42657E+01  1.48497E+01  1.57019E+01  1.65732E+01  1.63378E+01  1.51444E+01  1.31707E+01  9.98894E+00  6.95749E+00
   5.41867E+00  4.33951E+00  2.87345E+00  1.29216E+00 -4.60809E-01 -3.88081E+00 -1.08826E+01 -2.07252E+01 -3.01335E+01 -3.67360E+01
