 
 $NMID
 ID=''
 FMTDAT='(2E13.5)'
 TRAMP=   1.00000E+0
 VOLUME=   1.00000E+0
 $END
  -1.74582E+4   1.90421E+4
  -6.74873E+3   4.74483E+4
   4.91478E+4   2.57843E+4
   3.14597E+4  -3.99200E+4
  -3.43572E+4  -4.28650E+4
  -4.02668E+4   1.89870E+4
   9.22037E+3   4.44262E+4
   3.60191E+4   6.29505E+3
   1.34491E+4  -3.21970E+4
  -2.47086E+4  -2.13186E+4
  -2.84238E+4   1.63004E+4
   6.89455E+3   2.53190E+4
   2.52419E+4  -1.46808E+3
   3.81815E+3  -2.13147E+4
  -1.66164E+4  -1.12978E+4
  -1.04723E+4   9.57523E+3
   6.47617E+3   1.48829E+4
   1.31792E+4   6.24624E+2
   3.28314E+3  -1.20026E+4
  -8.75032E+3  -6.03927E+3
  -6.91369E+3   5.13989E+3
   2.92746E+3   7.69125E+3
   5.99255E+3   2.76640E+3
   1.50538E+3  -4.86848E+3
  -2.96829E+3  -5.62636E+3
  -2.68476E+3   2.17629E+3
  -1.25610E+3   6.83203E+3
   7.75652E+2   6.58008E+2
   2.61722E+3  -4.83671E+3
   1.16680E+3  -1.79483E+3
  -3.01770E+3   2.12074E+3
  -3.11316E+3   1.92410E+3
   1.00530E+3  -2.33591E+2
   2.55933E+3  -1.91946E+3
   9.15600E+2  -1.91788E+3
  -8.56343E+0  -3.20752E+1
  -7.78273E+2   1.79579E+3
  -5.02890E+2   1.56127E+3
   7.43044E+2   3.99470E+2
   6.01267E+2  -7.69321E+2
  -7.35573E+2  -7.36435E+2
  -8.63154E+2  -4.02465E+2
  -3.69328E+2   8.15878E+1
   9.82041E+2   1.00122E+3
   1.83405E+3   6.09108E+2
   1.13689E+3   3.09215E+2
  -1.51948E+3   4.30074E+2
  -3.04827E+3  -3.89932E+2
  -4.81513E+2  -5.32462E+2
   2.08855E+3  -2.02600E+2
   1.13473E+3  -5.46879E+2
  -6.93273E+2  -1.84571E+3
  -5.52884E+2  -9.99525E+1
   3.51656E+2   1.56985E+3
   9.53541E+2   1.32529E+3
   2.22774E+2  -5.69401E+2
  -4.99531E+2  -1.33405E+3
  -1.04471E+3  -5.70181E+2
   2.34112E+2   6.21572E+2
   1.31459E+3   4.81111E+2
   1.18115E+3  -2.28846E+2
   3.31261E+2  -1.71911E+1
  -9.69547E+2   9.89801E+2
  -1.47791E+3   1.05920E+3
  -8.23088E+2   2.28771E+1
   1.87064E+2  -1.04659E+3
   2.09484E+1  -1.14904E+3
   1.34295E+2  -1.14530E+3
   6.35302E+2   4.88535E+2
   4.33050E+2   1.30522E+3
  -2.78322E+2   3.29712E+1
   1.98908E+2  -1.37755E+3
   8.72376E+2  -3.23235E+2
   3.69759E+2   1.19394E+3
  -3.72202E+2   8.03958E+2
  -1.84255E+1  -4.35721E+2
   3.71657E+2  -4.97890E+2
  -6.67289E+1   4.11346E+2
  -8.82267E+2   1.93559E+2
  -5.84853E+2   1.17694E+2
   5.81490E+1   4.44822E+1
   2.15098E+2  -3.81491E+2
  -7.11230E+1  -4.73794E+2
  -2.41267E+2  -3.44734E+2
  -1.05245E+2  -1.97104E+2
   5.52808E+2  -1.47193E+2
   7.65078E+2  -4.31202E+2
   3.40858E+1  -1.15256E+2
  -4.45701E+2   2.71450E+2
  -2.31752E+2   1.73489E+2
   4.62900E+2   1.43423E+1
   3.48886E+2   1.15916E+2
  -2.28778E+2   6.16250E+2
  -1.00063E+3   2.16811E+2
  -7.91586E+2  -5.46645E+2
  -3.47958E+1  -4.31474E+2
   4.98595E+2   7.12517E+1
   1.27372E+2   2.68888E+2
  -3.03066E+2  -2.21130E+2
   2.99152E+2  -3.87802E+2
   7.20055E+2   4.31336E+2
   4.11407E+1   5.96854E+2
  -4.38844E+2   7.24105E+1
  -5.98278E+2  -4.01860E+2
   1.12683E+2  -1.26846E+2
   1.87698E+2   1.71983E+2
   1.87836E+2   2.58188E+2
  -3.51525E+2   2.34130E+2
  -5.77025E+2  -5.63351E+1
  -8.37712E+1  -4.37292E+2
   4.04286E+2  -2.94040E+2
   2.91719E+2   3.32743E+1
   7.46717E+1   5.93613E+2
  -3.00119E+1   3.79405E+2
   3.06291E+2  -1.23757E+1
   3.26502E+2   4.83822E+2
  -3.08084E+2   3.83737E+2
  -4.80185E+2   3.21018E+2
  -5.01694E+2  -3.04424E+2
   1.89498E+2  -4.80197E+2
   1.59410E+2  -7.99657E+1
  -7.54188E+1  -8.77487E+1
   3.01946E+2   2.88158E+1
   2.85384E+2   2.65973E+2
   1.87379E+2   3.07876E+2
  -4.51850E+1   1.23459E+2
   7.75249E+1  -4.71922E+1
  -2.11215E+1  -1.46872E+2
   1.80969E+2   3.90548E+1
   3.40735E+2   2.34729E+2
  -4.50227E+1   3.89463E+2
  -2.45462E+2   2.56646E+2
  -2.28490E+2  -1.49049E+1
  -4.94335E+1  -3.10141E+2
   2.55723E+2  -2.43186E+2
  -2.82788E+0  -4.43945E+1
   1.76289E+1  -3.19547E+2
   1.73734E+2  -3.46174E+2
   4.28731E+2   2.07174E+1
   1.92439E+2   1.58826E+2
  -1.36145E+2   8.90533E+1
  -3.01891E+2  -2.01270E+2
   2.54165E+2  -2.85809E+2
   5.39703E+2   1.33278E+1
   3.32906E+2   1.36669E+2
  -6.93448E+1  -1.83256E+1
  -2.71693E+1   9.64077E+1
  -1.03477E+2   6.68040E+1
   4.78753E+1   1.33524E+2
  -3.51596E+1   6.35281E+1
  -2.21538E+2  -1.81672E+2
  -5.77507E+1  -2.90122E+2
   1.59401E+2  -1.70078E+2
   2.73385E+2  -3.84480E+2
   1.26281E+2   6.11938E+0
  -1.93946E+2   8.64802E+1
   5.47893E+1   6.53286E+0
   1.66899E+2   8.22520E+0
  -1.70750E+1  -6.36715E+1
  -4.43434E+1   1.04878E+2
   6.30511E+0  -1.57938E+2
  -1.96494E+2  -1.35270E+2
   4.21476E+0  -1.12297E+2
  -2.12269E+2  -5.80192E+0
  -3.35824E+2  -2.91045E+1
  -8.41076E+1  -4.07895E+1
   1.58580E+2   1.00723E+2
   1.40597E+2  -9.48919E+1
  -5.03972E+1   1.69292E+2
   4.29910E+1   5.52589E+0
  -2.05182E+2   1.69581E+1
  -1.10085E+2   2.35000E+1
   1.23199E+2  -4.13939E+1
  -6.89705E+1   9.92910E-1
   7.10018E+1   3.02050E+0
   8.42047E+1   1.71080E+2
   3.13556E+2   8.56115E+1
  -1.23705E+2   1.69727E+2
  -5.29408E+1  -4.62631E+1
  -1.90587E+1  -4.63533E+1
   2.40721E+1  -4.62865E+1
  -6.68348E+1   7.99020E+0
   9.18794E+0  -1.57617E+2
  -5.88172E+1   9.33828E+1
  -4.58207E+1  -2.85777E+1
  -1.38872E+2  -1.42166E+1
  -1.06332E+1   1.25362E+2
  -3.66087E+1  -9.60736E+0
   1.72083E+2  -8.45408E+1
  -1.10963E+2  -8.80218E+0
   2.17705E+2   4.89253E+1
   1.94029E+2   1.10232E+2
  -5.62460E+1   5.23150E+1
  -2.34049E+1  -2.50469E+2
  -1.72963E+2  -7.46051E+1
  -1.14461E+2  -8.62661E+1
   2.20168E+1  -4.25120E+1
   2.67954E+0   1.15522E+2
   6.58824E+1  -3.42856E+0
   4.76755E+1  -4.66523E+1
  -1.47920E+1   3.80242E+1
  -1.04245E+1   1.02504E+2
  -5.86048E+1  -6.50099E+1
  -8.70813E+1  -1.12396E+2
   3.00067E+1  -9.89979E+1
   2.79702E+2  -6.97820E+1
   1.76457E+2   5.60249E+1
  -1.50913E+1   2.11083E+2
  -5.48705E+1   9.90080E+1
  -2.24633E+2  -1.33778E+2
  -9.05831E+1   8.89485E+1
  -9.88268E+1   8.35755E+1
   7.36747E+1  -1.06246E+2
  -1.53303E+1   2.08892E+2
  -4.30428E+1   2.60252E+2
  -1.86927E+2   2.58972E+2
  -1.32104E+2  -8.65326E+1
  -5.29965E+1   3.46075E+1
   1.46996E+2   2.56896E+1
  -7.35988E+1   4.28795E+1
  -1.53723E+1   2.74548E+2
  -1.68927E+2   9.38190E+1
   1.60607E+2   9.27267E+1
  -7.65999E+0   5.10079E+1
  -3.87583E+1   4.25419E+1
   1.00524E+2   9.33917E+1
  -6.30175E+1   2.03618E+2
  -8.62896E+1   8.02310E-1
  -1.64777E+2   1.12363E+2
   1.26037E+2   6.02521E+1
  -1.14632E+2   9.80899E+1
  -2.38738E+2   1.23744E+2
   1.10776E+1  -3.19550E+1
  -2.62886E+1  -1.56132E+2
  -9.52607E+1   1.78271E+2
  -1.80192E+2   3.50327E+2
   1.45483E+2  -4.83158E+1
  -3.31147E+1   2.51402E+2
  -7.79148E+0  -2.26555E+2
  -3.31725E+0   1.04115E+2
   1.54857E+2   3.77812E+0
   2.27287E+1   5.87492E+1
  -3.86033E+1  -1.64467E+2
  -6.12792E+1   2.46826E+1
  -6.19915E+1  -1.41283E+2
  -1.36268E+2   2.65299E+2
  -1.37062E+2  -8.20231E+1
  -4.80816E+1  -5.79886E+1
   6.89380E+1  -6.72418E+1
  -8.62507E+1  -1.19592E+2
  -2.11455E+1   2.59876E+2
  -5.65315E+1   3.07393E+2
  -4.24305E+1   1.25791E+2
  -5.92538E+1  -8.49879E+1
   1.21030E+2   7.66274E+1
   1.11130E+2  -3.58869E+0
  -3.53512E+2   1.50247E+2
   3.24341E+1   2.69165E+1
   6.05956E+1   1.30472E+2
  -4.61312E+1   4.08051E+1
  -8.36805E+1  -4.14601E+1
   7.96169E+1  -2.91085E+2
  -8.09210E+0   1.67663E+2
   1.35956E+2   1.86630E+2
  -1.17507E+1   9.94437E+1
   9.74951E+1   2.44926E+2
  -3.46823E+1  -2.29313E+1
  -1.58622E+2   4.33449E+1
  -1.21782E+2  -1.79611E+2
  -2.62115E+1  -5.07675E+1
   1.63597E+2  -2.04789E+2
   1.01452E+2  -2.04710E+1
   9.09448E-1  -1.23062E+2
  -2.23376E+2  -6.41287E+0
  -6.52846E+1   3.68796E+1
  -9.16235E+1   2.21285E+1
  -1.22753E+2   1.30102E+2
  -1.51423E+2  -4.17643E+1
   1.84944E+2  -8.27291E+1
   1.46951E+1   2.50505E+2
  -7.65685E+1  -1.17867E+2
   5.56616E+1   2.00243E+2
  -1.11464E+2   1.06884E+2
   1.78728E+1   2.10599E+2
  -1.95307E+2   5.55772E+1
  -2.04663E-1  -2.10650E+2
  -9.30082E+1   3.96787E+1
   5.20022E+1   7.40013E+1
  -1.56689E+1  -8.77889E+0
  -2.34005E+2   1.92586E+2
  -3.02859E+2  -6.60938E+0
  -2.34810E+2  -7.62297E+0
   1.30473E+2  -9.87154E+1
   1.30337E+2  -1.18474E+1
  -2.07854E+2   8.15660E+0
  -2.44570E+2   3.34476E+1
   3.32258E+1   1.68323E+1
  -2.47419E+1  -1.38620E+2
  -1.25521E+2   2.61860E+2
  -1.68778E+1  -1.84525E+2
  -5.31242E+1  -3.27952E+1
  -8.95552E+1  -1.26838E+2
  -3.63594E+1   1.43931E+2
  -2.42586E+2  -1.32076E+1
  -1.12284E+2  -1.22599E+1
   6.61753E+1   3.52964E+1
   1.82859E+1   3.92310E+0
  -2.82546E+1  -6.97069E+1
   4.23257E+1   1.12435E+2
   1.55626E+2  -2.25662E+1
   6.19750E+1   4.49126E+1
   1.91926E+1   9.47820E+1
   1.56282E+2   1.09652E+2
  -2.19577E+1   3.92745E+1
  -1.87677E+2   4.22384E+1
   5.56455E+1  -7.23963E+1
   1.06482E+2   1.34311E+1
  -2.46066E+1   8.61495E+1
  -3.90051E+1  -4.64108E+1
  -1.88911E+2   3.21029E+2
   2.38679E+2  -4.66103E+1
   5.01721E+1  -3.38080E+1
  -2.04652E+2  -9.40135E+1
   1.90973E+1  -1.07711E+2
   7.55707E+1  -1.18711E+2
  -1.78600E+2  -2.99504E+1
   5.00349E+1  -1.83013E+2
  -5.93727E+0   2.41108E+2
   4.70714E-1  -1.31497E+2
  -9.91816E+1  -2.10121E+1
   2.17182E+2  -1.89738E+2
  -6.27720E+1  -2.26334E+2
   1.28972E+2  -1.78706E+2
   8.26026E+1   3.88456E+1
  -2.00578E+2   9.07006E+1
  -3.34301E+2   4.02755E+1
  -9.95921E+1   3.37752E+2
  -3.20950E+1  -1.39940E+2
  -1.33480E+1  -1.66659E+2
   6.43625E+1  -1.47585E+1
  -4.47482E+1  -7.36869E+1
   6.77992E+1   2.11795E+1
  -3.91746E+1  -5.35100E+1
  -1.64327E+2   2.20567E+1
   3.03059E+0   3.15835E+1
  -1.85779E+1  -2.29007E+2
  -1.46621E+2  -1.07861E+2
   1.08547E+2  -8.25098E+1
  -4.20680E+1   5.18500E+0
  -9.58487E+1  -6.90730E+0
   1.56999E+1  -2.81011E+2
   6.03104E+1  -8.13382E+1
  -1.08297E+2  -2.97967E+2
  -2.89966E+2  -3.50782E+1
   1.33116E+2   9.05724E+0
  -9.01958E+1  -2.89575E+1
   5.31488E+1  -2.39300E+2
   1.35854E+2  -7.42572E+1
   1.14845E+1  -2.58499E+1
  -4.26997E+1   3.79810E+0
  -1.55296E+2   4.72995E+1
   2.24319E+2  -1.46329E+2
  -9.55048E+0  -2.23226E+1
   6.19127E+1  -4.44251E+1
  -3.22419E+1   8.94099E+1
   1.12086E+2   1.46345E+2
   6.28741E+0   1.00320E+1
