 
 $NMID
 ID=''
 FMTDAT='(2E13.5)'
 TRAMP=   1.00000E+0
 VOLUME=   1.00000E+0
 $END
   2.26824E+4   7.35477E+3
   3.73892E+4  -1.17935E+4
  -1.83056E+3  -3.94922E+4
  -3.92117E+4   3.72799E+3
  -3.24344E+3   3.77994E+4
   3.29803E+4   3.70653E+2
   4.52360E+3  -2.71956E+4
  -2.15263E+4  -6.65398E+2
  -3.20468E+3   1.95573E+4
   1.19454E+4   5.61526E+3
   3.51703E+2  -1.04323E+4
  -9.15822E+3  -5.73993E+3
  -3.90195E+3   7.59531E+3
   3.08688E+3   5.75368E+3
   2.67561E+3  -7.01312E+3
  -3.12691E+1  -6.11600E+3
  -1.15416E+3   3.73016E+3
  -1.36663E+3   4.36832E+3
   8.09563E+2  -8.82759E+2
   2.91807E+3  -1.83140E+3
  -4.52967E+2  -6.89206E+2
  -1.57844E+3   7.31385E+2
   7.21843E+2   1.97505E+3
   7.78004E+2   3.26754E+2
  -4.43770E+2  -1.90160E+3
   8.22598E+2   2.20467E+2
   5.72064E+2   2.34011E+3
  -1.42885E+3   6.01425E+2
  -7.94889E+2  -1.34992E+3
   3.84385E+2   1.72910E+2
   8.37218E+1   1.04390E+3
  -4.94611E+2  -2.42135E+2
  -8.61870E+2  -8.55416E+2
  -1.10832E+3  -1.07975E+3
   1.52576E+3  -1.63992E+3
   2.98507E+3  -5.38641E+1
   3.04650E+2   2.28916E+3
  -1.61376E+3   1.23553E+3
   1.77738E+2  -6.95099E+2
   8.35851E+2  -1.39672E+2
  -1.50945E+3  -7.86892E+1
  -7.38261E+2  -1.08916E+3
   2.08202E+3  -5.54667E+2
   1.82668E+3   4.44732E+2
  -1.76677E+2   4.65469E+2
  -5.06147E+2   1.08438E+3
  -4.15134E+2   1.49396E+3
  -1.35562E+3  -3.57295E+2
  -9.23912E+2  -2.19811E+3
   7.07807E+2  -1.38009E+3
   1.12544E+3  -2.13462E+2
   9.03431E+2  -5.58791E+2
   6.15219E+2  -5.19069E+2
   1.26396E+2   6.49796E+2
  -1.17077E+2   1.03785E+3
  -5.05877E+1   1.18767E+2
  -7.89917E+2  -8.20457E+2
  -1.53427E+2  -1.10070E+3
   1.08560E+3  -4.09686E+2
   1.04397E+3   3.49476E+2
  -1.01279E+2   7.11393E+2
  -2.41176E+1   8.63170E+2
  -1.09819E+2   1.00302E+3
  -1.18200E+3   3.24650E+2
  -1.97995E+3  -1.21616E+3
  -4.24197E+2  -1.36140E+3
   1.25861E+3  -1.09460E+3
   1.40700E+3  -8.34094E+2
   4.68834E+2   5.39416E+1
  -2.48510E+2   5.97494E+2
  -1.22396E+2  -1.53350E+2
   7.09913E+2  -7.20446E+2
   3.51757E+2   3.66460E+2
  -3.61775E+2   1.11236E+3
  -6.20341E+2   2.33200E+2
   3.64379E+2  -7.58955E+2
   1.32021E+2  -2.04658E+2
  -4.89641E+2   7.08027E+2
  -3.44901E+2   4.36706E+2
  -2.32265E+0  -6.12377E+2
  -2.83552E+2  -8.14311E+2
  -1.96247E+2  -3.80541E+2
   1.61882E+2  -2.49825E+2
   2.41598E+2  -3.61480E+2
  -1.45701E+2  -7.73761E+2
  -7.54171E+1  -5.55125E+2
   7.25618E+2   1.53895E+2
   2.85106E+2   9.89739E+1
  -1.72793E+2   5.61124E+1
   1.31352E+2   1.03709E+2
   3.74677E+2   3.48269E+2
  -1.35537E+2   7.17074E+2
  -1.05431E+3   5.84154E+1
  -9.67451E+2  -4.46760E+2
   6.47705E+1  -7.37905E+2
   7.87122E+2  -5.09373E+2
   1.35057E+2  -2.71305E+0
  -2.44333E+2  -2.16216E+2
   4.18395E+2  -1.45621E+2
   7.51012E+2   9.30534E+1
   2.61199E+2   3.75963E+2
  -6.05127E+2  -2.37678E+1
  -7.55740E+2  -1.93775E+2
   9.56324E+1  -4.63853E+2
   4.41780E+2  -2.62320E+2
   3.37045E+2   4.21150E+2
  -6.44174E+2   5.34380E+2
  -9.27937E+2  -1.72572E+2
  -2.22898E+2  -1.17975E+3
   8.54027E+2  -6.65490E+2
   9.80096E+2   4.95154E+2
  -1.84585E+1   8.75976E+2
  -4.51618E+2   4.15678E+2
  -2.07147E+2   2.20501E+2
  -2.32105E+2   4.46168E+2
  -8.20810E+2  -4.11570E+1
  -1.10573E+3  -6.18297E+2
  -5.61713E+2  -9.40467E+2
   3.91999E+2  -9.64675E+2
   7.56149E+2  -2.63805E+2
   6.27996E+2   4.37086E+2
   2.79579E+2   5.80115E+2
  -2.62879E+2   5.32318E+2
  -4.23124E+2   3.90448E+2
  -5.04742E+2   1.07986E+2
  -1.44986E+2  -1.88685E+2
  -8.59769E+1  -2.86862E+2
   7.29773E+1  -1.06151E+2
   2.38148E+2   5.41070E+1
  -2.39128E+2   6.64683E+2
  -7.89928E+2   3.96111E+2
  -4.56845E+2  -3.34781E+2
   1.92508E+2  -4.34210E+2
   1.50109E+2   2.53412E+2
  -3.84417E+2  -1.41972E+2
   2.89745E+2  -3.89745E+2
   5.26145E+2   1.41575E+2
   2.63817E+2   6.72609E+2
  -4.72259E+2   4.39002E+2
  -5.30075E+2   9.36144E+1
  -4.80155E+2  -1.65400E+2
   3.02862E+2  -2.54013E+2
   5.30942E+2   9.62311E+1
   1.46927E+2   6.93345E+2
  -3.86199E+2   7.46456E+2
  -7.65838E+2   2.21793E+2
  -2.76315E+2  -3.81105E+2
  -6.16759E+1   7.51544E+1
  -3.75237E+2   8.42527E+1
  -8.41173E+1  -2.75931E+2
   1.86100E+2  -4.39876E+2
   7.02072E+2  -4.84524E+1
   4.61850E+2   7.83417E+2
  -1.40672E+2   7.32141E+2
  -3.59199E+2   7.83406E+1
  -6.05533E+0   2.08165E+2
   6.41011E+1   2.84747E+2
  -1.49361E+2   2.83626E+2
  -5.34724E+1   2.62975E+2
   1.84107E+2   1.98024E+2
  -2.47194E+2   1.19767E+2
  -4.58748E+2   2.99934E+1
  -1.05616E+2  -2.27676E+2
  -4.79219E+1  -3.09611E+2
   6.44097E+1  -3.46979E+2
   2.33364E+2  -1.55468E+2
   2.11023E+2   2.54203E+2
   9.11376E+1   1.62700E+2
  -2.95189E+2  -6.71544E+1
   2.71484E+2  -2.78963E+2
   3.72401E+2   1.60178E+2
   1.17823E+2   2.84447E+2
  -1.86690E+2  -6.28048E+1
  -7.32958E+1   2.31192E+1
   3.73785E+2   2.52798E+2
   7.23689E+1   2.73740E+2
   7.40446E+0   3.27385E+2
  -3.73749E+2  -1.85728E+2
  -7.96589E+1  -1.65387E+2
   3.59946E+2  -5.00060E+1
   5.90860E+1   5.11310E+2
  -1.91227E+1   4.54436E+2
  -3.73059E+2  -2.82652E+1
  -3.60694E+2  -1.23886E+2
   4.40586E+1  -1.05869E+2
  -6.27117E+0  -2.67417E+2
  -3.57816E+0  -4.92324E+2
   2.81756E+2  -3.05948E+2
   4.13243E+2  -2.70666E+1
   3.98004E+2   4.88436E+2
  -9.69093E+1   5.83687E+2
  -7.64343E+2   2.61251E+2
  -5.13559E+2  -1.74280E+2
   1.83985E+0  -1.24110E+2
   1.79242E+2  -1.02568E+2
   1.33486E+2   6.40291E+1
  -1.85844E+2   5.19614E+1
   1.34711E+2   1.74195E+2
  -1.20715E+2   3.50186E+2
  -4.19663E+2   2.42804E+2
  -3.34084E+2  -2.82337E+2
  -8.84363E+1  -3.08888E+2
   2.73862E+2  -1.31093E+2
   2.58898E+2   2.21319E+2
  -6.46037E+1   2.97802E+1
  -2.01234E+0   1.75845E+2
  -8.57074E+1  -1.73219E+1
  -1.47817E+2   1.26516E+2
  -4.22793E+1   1.42637E+2
  -2.09558E+2   2.37427E+2
  -1.20488E+1   7.13432E+1
   3.22318E+2  -1.12447E+2
   3.94158E+2   4.30671E+2
   1.82406E+0   7.64850E+2
  -5.73470E+2   3.15676E+2
  -3.67728E+2  -3.10095E+2
  -1.99997E+2  -3.81673E+2
   1.83762E+2  -2.20507E+2
   2.58461E+2   2.02143E+1
   9.61131E+1  -1.24235E+1
  -3.51849E+1   3.05198E+1
   2.05388E+2   1.51197E+2
   1.99181E+1   6.11377E+2
  -3.77726E+2   3.69917E+2
  -3.29230E+2   7.28510E+1
  -6.10713E+1  -2.98494E+2
   2.71723E+2  -5.47870E+1
   1.14804E+1   2.39349E+2
  -1.54289E+1   6.76227E+1
   2.62303E+1  -1.40518E+2
   6.90400E+1  -6.00502E+1
   2.67768E+2  -1.57439E+2
   1.04705E+2   1.47812E+2
  -1.92556E+2  -1.13889E+2
  -8.00214E+1  -1.85779E+2
  -1.77044E+2   4.69109E+1
   1.80621E+2   3.33015E+2
   1.89503E+1   3.60679E+0
  -2.26016E+2   2.68024E+1
   1.70274E+2  -1.24679E+2
   1.55986E+2   4.97800E+1
   8.41455E+1   2.31860E+2
  -2.24126E+2   8.11101E+1
  -2.99660E+2   6.52771E+0
  -1.13568E+1  -3.51054E+2
   1.48723E+2   2.91812E+0
  -1.57817E+2   2.79982E+2
  -1.40996E+2   3.49569E+1
   1.80537E+2  -2.25061E+2
   3.52754E+1  -5.22282E+0
  -1.40408E+1   2.01034E+2
  -2.17414E+2   2.32843E+2
  -3.86314E+2   7.30512E+1
  -2.53002E+2  -4.67720E+2
   1.32357E+2  -1.36663E+2
   8.59002E+1   1.28015E+2
   2.20936E+2   3.86171E+2
   1.79963E+1   1.48528E+2
   1.05271E+2   8.95122E+1
   3.04304E+1   2.27958E+2
  -3.06959E+2   2.64139E+2
  -2.08478E+2  -1.37775E+2
  -1.81387E+2  -2.63812E+2
   3.15886E+2  -1.96878E+2
   9.85056E+1   7.40346E+0
   1.25620E+2   3.29431E+2
  -3.70450E+2   1.55313E+2
  -1.58472E+2  -1.81769E+2
  -1.03845E+0  -1.07248E+2
   2.90214E+0  -7.61298E+1
  -3.78511E+1   7.19416E+1
  -6.13832E+1   3.33504E+2
  -1.35751E+0   6.22035E+1
   2.49874E+2   2.59433E+2
  -8.02692E+1   1.56874E+2
  -4.23391E+2  -1.16420E+2
  -1.71220E+2  -5.70483E+1
  -4.20265E+1  -2.00123E+2
   3.69587E+1  -1.76600E+2
   1.58126E+2   2.92030E+2
  -7.90400E+0   1.91186E+0
   1.80672E+2  -3.75973E+1
   5.68875E+1   3.87150E+1
   1.07293E+2   1.67472E+2
  -2.75269E+2  -1.38176E+2
  -3.64724E+2  -2.52594E+2
   1.36530E+2  -2.56320E+2
   3.53738E+2  -2.02559E+2
   2.77030E+2   2.96759E+2
   1.03717E+1   2.93239E+2
  -2.25990E+2   1.21430E+2
  -1.41149E+2  -2.73399E+2
  -3.00604E+1   5.62182E+1
   7.68955E+1   7.98877E+1
  -8.21444E+1  -1.03074E+2
   4.09423E+1  -8.30158E+1
  -7.51573E+1   1.23463E+2
  -9.68037E+1   1.31661E+2
  -3.24288E+2   6.07680E+0
  -2.50511E+1   5.98002E+1
   4.39775E+0  -1.33986E+1
   2.71335E+2   1.02601E+1
  -1.25197E+1   2.65271E+2
  -9.48561E+1  -3.92866E+1
  -1.27642E+2   5.01714E+1
   1.11425E+2  -2.37379E+2
   2.06609E+2  -1.28249E+2
  -7.56607E+1   7.90391E+1
   5.64423E+1   3.77962E+1
   1.15486E+2   6.35819E+0
   2.01874E+2   3.11395E+1
   3.62766E+2   1.36850E+2
  -3.11541E+1   1.67127E+2
  -2.97360E+2   2.15535E+2
  -4.80431E+1  -3.03919E+2
  -1.22991E+2  -1.49962E+2
   4.28356E+1  -1.30901E+2
   2.05544E+2   6.90908E+1
   2.65452E+1  -6.67199E+1
  -2.69854E+1  -2.33461E+2
   2.19288E+2   2.13859E+1
   4.29432E+1   4.77424E+1
  -5.34558E+1  -2.18890E+1
  -1.11393E+2  -1.56140E+2
   7.19839E+0  -1.20848E+2
   7.68658E+1   2.97643E+2
   3.01375E+1   2.79218E+2
  -1.37619E+2   1.40678E+2
  -4.03148E+2   4.26981E+1
   1.82907E+2  -2.59934E+2
  -1.73431E+2  -1.63012E+2
   8.70130E+1  -1.25037E+2
   7.87272E+1   6.42494E+1
   2.16213E+2   4.60332E+1
   1.55535E+1   2.05232E+2
  -1.92381E+2   2.81587E+2
  -2.84288E+2   4.35836E+1
  -1.67577E+2  -1.40488E+2
   2.52924E+1  -1.11226E+2
   1.36922E+2  -1.31962E+2
   1.33907E+2   1.50176E+2
   7.40719E+1   1.06468E+1
  -1.00323E+2   2.19501E+2
   1.76890E+2  -2.12741E+2
   6.97974E+1   1.32524E+1
  -1.27672E+2   1.48383E+2
  -9.05325E+0   3.53363E+1
   8.47288E+1  -3.32382E+2
   2.97807E+2   1.39291E+2
   2.12126E+2   1.07048E+2
  -3.90315E+0   2.81142E+2
  -2.09420E+1  -2.12856E+2
  -1.78562E+2  -2.24278E+2
  -1.16889E+2   5.78550E+1
  -4.95564E+1  -1.61813E+1
  -1.72612E+2  -2.66409E+2
   2.76680E+2  -2.59995E+2
   8.87116E+1   1.12882E+2
   1.56955E+2   1.11249E+2
  -2.89365E+2   1.68926E+2
  -1.16365E+2   3.24013E+1
  -4.19871E+1  -3.27357E+2
   2.61672E+2  -5.36761E+1
   3.75808E+1   2.03303E+2
   7.58742E+1  -1.62670E+2
  -1.45133E+2  -3.81839E+1
  -2.86517E+2   1.33318E+2
