 LCModel (Version 6.3-1N) Copyright: S.W. Provencher.          Ref.: Magn. Reson. Med. 30:672-679 (1993).                
 Slice_N1@12_18  28-Feb-2025 11:39:09
 27 lines in following concentration table = NCONC+1
    Conc.  %SD /Cr+PCr  Metabolite                                         
 1.34E-04  12% 1.3E-04 Mac                                                 
    4.659  41%   4.411 Cr                                                  
    3.791  47%   3.589 PCr                                                 
    6.593  19%   6.242 Ins                                                 
    8.893  12%   8.420 NAA                                                 
    6.961  18%   6.591 Tau                                                 
    0.190 793%   0.180 PCho                                                
    2.415  59%   2.287 GPC                                                 
    8.542  17%   8.087 Glu                                                 
    3.353  34%   3.174 Gln                                                 
    0.000 999%   0.000 Ala                                                 
    2.425  74%   2.296 Asc                                                 
    1.860  78%   1.761 Asp                                                 
    1.720  44%   1.629 GABA                                                
    0.836 122%   0.791 Glc                                                 
    2.220  32%   2.102 GSH                                                 
    0.000 999%   0.000 Lac                                                 
    1.683  48%   1.593 NAAG                                                
    0.999 164%   0.946 PE                                                  
    2.606  18%   2.467 GPC+PCho                                            
   10.576  10%  10.014 NAA+NAAG                                            
   11.894  16%  11.262 Glu+Gln                                             
    8.449  12%   8.000 Cr+PCr                                              
   10.576  10%  10.014 NAA+NAAG                                            
    8.449  12%   8.000 Cr+PCr                                              
   11.894  16%  11.262 Glu+Gln                                             
   6 lines in following misc. output table
  FWHM = 0.024 ppm    S/N =   2                                            
  Data shift = 0.033 ppm                                                   
  Ph:-115 deg       0.0 deg/ppm                                            
  alphaB,S = 1.5E-01,   6.1E+00                                            
   19 spline knots.   Ns = 5(1)                                            
  ( 4) 2 infls.   ( 1) 1 extrs.                                            
  480 points on ppm-axis = NY
      4.100000     4.091866     4.083733     4.075600     4.067466     4.059333     4.051199     4.043066     4.034933     4.026799
      4.018666     4.010532     4.002399     3.994265     3.986132     3.977998     3.969864     3.961731     3.953597     3.945463
      3.937330     3.929196     3.921062     3.912929     3.904795     3.896662     3.888528     3.880394     3.872261     3.864127
      3.855993     3.847860     3.839726     3.831592     3.823459     3.815325     3.807191     3.799058     3.790924     3.782790
      3.774657     3.766523     3.758389     3.750256     3.742122     3.733989     3.725855     3.717721     3.709588     3.701454
      3.693320     3.685187     3.677053     3.668919     3.660786     3.652652     3.644518     3.636385     3.628251     3.620117
      3.611984     3.603850     3.595716     3.587583     3.579449     3.571316     3.563182     3.555048     3.546915     3.538781
      3.530647     3.522514     3.514380     3.506246     3.498113     3.489979     3.481845     3.473712     3.465578     3.457444
      3.449311     3.441177     3.433043     3.424910     3.416776     3.408643     3.400509     3.392375     3.384242     3.376108
      3.367974     3.359841     3.351707     3.343573     3.335440     3.327306     3.319172     3.311039     3.302905     3.294771
      3.286638     3.278504     3.270370     3.262237     3.254103     3.245970     3.237836     3.229702     3.221569     3.213435
      3.205301     3.197168     3.189034     3.180900     3.172767     3.164633     3.156499     3.148366     3.140232     3.132098
      3.123965     3.115831     3.107697     3.099564     3.091430     3.083297     3.075163     3.067029     3.058896     3.050762
      3.042628     3.034495     3.026361     3.018227     3.010094     3.001960     2.993826     2.985693     2.977559     2.969425
      2.961292     2.953158     2.945024     2.936891     2.928757     2.920624     2.912490     2.904356     2.896223     2.888089
      2.879955     2.871822     2.863688     2.855554     2.847421     2.839287     2.831153     2.823020     2.814886     2.806752
      2.798619     2.790485     2.782351     2.774218     2.766084     2.757951     2.749817     2.741683     2.733550     2.725416
      2.717282     2.709149     2.701015     2.692881     2.684748     2.676614     2.668480     2.660347     2.652213     2.644079
      2.635946     2.627812     2.619678     2.611545     2.603411     2.595278     2.587144     2.579010     2.570877     2.562743
      2.554609     2.546476     2.538342     2.530208     2.522075     2.513941     2.505807     2.497674     2.489540     2.481406
      2.473273     2.465139     2.457006     2.448872     2.440738     2.432605     2.424471     2.416337     2.408204     2.400070
      2.391936     2.383803     2.375669     2.367535     2.359402     2.351268     2.343134     2.335001     2.326867     2.318733
      2.310600     2.302466     2.294333     2.286199     2.278065     2.269932     2.261798     2.253664     2.245531     2.237397
      2.229263     2.221130     2.212996     2.204862     2.196729     2.188595     2.180461     2.172328     2.164194     2.156060
      2.147927     2.139793     2.131660     2.123526     2.115392     2.107259     2.099125     2.090991     2.082858     2.074724
      2.066590     2.058457     2.050323     2.042189     2.034056     2.025922     2.017788     2.009655     2.001521     1.993387
      1.985254     1.977120     1.968987     1.960853     1.952719     1.944586     1.936452     1.928318     1.920185     1.912051
      1.903917     1.895784     1.887650     1.879516     1.871383     1.863249     1.855115     1.846982     1.838848     1.830714
      1.822581     1.814447     1.806314     1.798180     1.790046     1.781913     1.773779     1.765645     1.757512     1.749378
      1.741244     1.733111     1.724977     1.716843     1.708710     1.700576     1.692442     1.684309     1.676175     1.668041
      1.659908     1.651774     1.643641     1.635507     1.627373     1.619240     1.611106     1.602972     1.594839     1.586705
      1.578571     1.570438     1.562304     1.554170     1.546037     1.537903     1.529769     1.521636     1.513502     1.505368
      1.497235     1.489101     1.480968     1.472834     1.464700     1.456567     1.448433     1.440299     1.432166     1.424032
      1.415898     1.407765     1.399631     1.391497     1.383364     1.375230     1.367096     1.358963     1.350829     1.342695
      1.334562     1.326428     1.318295     1.310161     1.302027     1.293894     1.285760     1.277626     1.269493     1.261359
      1.253225     1.245092     1.236958     1.228824     1.220691     1.212557     1.204423     1.196290     1.188156     1.180022
      1.171889     1.163755     1.155622     1.147488     1.139354     1.131221     1.123087     1.114953     1.106820     1.098686
      1.090552     1.082419     1.074285     1.066151     1.058018     1.049884     1.041750     1.033617     1.025483     1.017349
      1.009216     1.001082     0.992949     0.984815     0.976681     0.968548     0.960414     0.952280     0.944147     0.936013
      0.927879     0.919746     0.911612     0.903478     0.895345     0.887211     0.879077     0.870944     0.862810     0.854676
      0.846543     0.838409     0.830276     0.822142     0.814008     0.805875     0.797741     0.789607     0.781474     0.773340
      0.765206     0.757073     0.748939     0.740805     0.732672     0.724538     0.716404     0.708271     0.700137     0.692003
      0.683870     0.675736     0.667603     0.659469     0.651335     0.643202     0.635068     0.626934     0.618801     0.610667
      0.602533     0.594400     0.586266     0.578132     0.569999     0.561865     0.553731     0.545598     0.537464     0.529330
      0.521197     0.513063     0.504930     0.496796     0.488662     0.480529     0.472395     0.464261     0.456128     0.447994
      0.439861     0.431727     0.423593     0.415460     0.407326     0.399192     0.391059     0.382925     0.374792     0.366658
      0.358524     0.350391     0.342257     0.334124     0.325990     0.317856     0.309723     0.301589     0.293455     0.285322
      0.277188     0.269055     0.260921     0.252787     0.244654     0.236520     0.228386     0.220253     0.212119     0.203986
 NY phased data points follow
   3.44093E+01  3.55879E+01  2.48114E+01  1.28304E+01  2.46021E+01  3.41439E+01  2.63366E+01  3.53317E+01  2.75224E+01  3.56523E+01
   2.63282E+01 -1.78262E+01  4.28272E+00  1.19021E+01  8.23545E-01  7.12766E+00  5.30617E-02  3.79907E-01 -3.23265E+00 -2.44476E+01
  -4.67882E+01 -3.03713E+01 -2.20528E+01 -1.77527E+01  3.89914E-01  2.33529E+01  4.69626E+01  3.81691E+01  4.20224E+01  4.77239E+01
   4.03991E+01  4.40437E+01  6.18924E+01  5.96002E+01  5.41007E+01  5.51986E+01  4.32378E+01  4.78396E+01  1.98333E+01  2.95882E+00
  -2.57063E+00 -6.95930E+00 -5.07787E+00 -2.38085E+01 -4.19625E+00  1.56384E+01  4.19379E+01  5.75672E+01  6.56694E+01  7.36774E+01
   5.96926E+01  7.50152E+01  6.50149E+01  4.51308E+01  3.36009E+01  2.27375E+01  3.20849E+01  1.39124E+01  4.24766E+00  2.57753E+01
   2.22398E+01  2.11918E+01  2.20721E+01  2.92700E+01  5.45382E+01  5.20111E+01  6.97521E+01  6.63637E+01  2.71214E+01  1.79929E+00
   1.09744E+00  2.08574E+01  1.57614E+01  3.14376E+01  3.69726E+01  4.96927E+01  7.14937E+01  6.23638E+01  6.62136E+01  6.51245E+01
   7.08087E+01  6.44576E+01  4.84639E+01  2.69707E+01  2.23593E+01  1.97623E+01 -2.17425E+00  2.81051E+01  4.89464E+01  4.83458E+01
   6.10874E+01  7.67183E+01  7.84211E+01  7.82928E+01  9.23866E+01  7.69113E+01  9.15149E+01  1.12369E+02  9.17808E+01  8.70933E+01
   9.41658E+01  9.90990E+01  8.51895E+01  9.23114E+01  8.60325E+01  5.17772E+01  6.21463E+01  4.90571E+01  2.94045E+01 -1.75533E+01
  -9.19883E+01 -1.05423E+02 -1.00412E+02 -6.65434E+01 -4.78658E+01 -3.73111E+01 -8.23795E+00 -3.86751E+00  5.56767E+00  7.78058E+00
   7.30605E+00  2.11027E+01  3.22760E+01  2.03253E+01  2.80842E+01  4.90969E+01  6.04746E+01  8.32893E+01  8.35515E+01  1.17868E+02
   1.69209E+02  1.38361E+02  7.89666E+01  3.63166E+01 -1.00172E+01 -2.56746E+01 -2.85427E+01 -1.92902E+01 -8.24655E+00 -2.95823E+01
  -1.75787E+01 -1.68259E+01 -3.03628E+01 -2.22962E+01 -2.86759E+01 -3.27620E+01 -2.96299E+01 -2.60685E+01 -2.21652E+01 -2.20189E+01
  -1.99331E+01 -8.96082E+00 -2.42673E+01 -1.91800E+01 -8.56315E+00 -2.29465E+01 -5.23728E+00 -3.03806E+00 -1.34390E+01 -9.18671E+00
   5.30060E-01 -7.26869E+00 -1.21052E+01  1.60313E+00 -1.64094E+00 -8.95604E+00 -8.87583E+00 -6.85907E+00 -7.13675E+00 -4.80801E+00
  -1.18875E+01  1.44377E+01  3.61102E+01  2.93148E+01  2.86834E+01  1.04981E+01  2.25858E+01  2.73793E+01  1.73703E+01  2.00260E+01
   1.53989E+01 -1.35620E+00 -1.24573E+01 -1.44950E+00 -1.98695E+01 -3.32370E+01 -2.28396E+01 -1.26469E+01 -1.90597E+00 -6.35122E-01
  -3.25360E+00 -8.39098E+00 -5.44477E+00  4.55443E+00  7.97165E+00  6.70263E+00 -1.85568E+00 -2.29233E+00  1.22274E+01  1.61526E+01
   2.33380E+01  2.56361E+01  3.15365E+01  2.87351E+01  1.69154E+01  2.24227E+01  1.53242E+01  1.97421E+00 -2.77422E+01 -2.39477E+01
  -2.41530E+01 -4.36674E+01 -1.61621E+01 -1.20635E+01 -1.49334E+01  1.63834E+01  4.45867E+01  3.64588E+01  3.52842E+01  3.42685E+01
   1.83032E+01  6.58301E+00 -1.16636E+00  8.48852E+00  4.64245E+00  1.83229E+01  1.08799E+01  2.76856E+00  2.21964E+01  2.34685E+01
   3.31288E+01  1.50790E+01  1.17216E+01  1.99528E+01  1.70849E+00 -1.00437E+01 -1.93844E+01 -2.93297E+01 -3.23411E+01 -2.24717E+01
  -4.30731E+01 -4.58587E+01 -6.11299E+00 -1.12727E+01 -1.09070E+01  1.28791E+01  6.89047E+00  1.06769E+01  1.46577E+01  1.13661E+00
  -1.92406E+01 -3.63932E+01 -2.59030E+01 -1.24190E+01 -3.47068E+01 -8.03655E+01 -9.05958E+01 -1.32433E+01  8.12433E+01  8.29978E+01
   1.10518E+02  1.49715E+02  1.11121E+02  1.12469E+02  9.52135E+01  6.73728E+01  8.26589E+01  6.83127E+01  6.58227E+01  7.56115E+01
   6.51378E+01  7.00313E+01  7.18768E+01  7.87655E+01  9.04146E+01  7.48662E+01  8.74198E+01  9.01453E+01  9.03089E+01  9.95426E+01
   9.27874E+01  1.05864E+02  8.31074E+01  7.28702E+01  8.04587E+01  6.82233E+01  6.94098E+01  6.71488E+01  6.96944E+01  6.66540E+01
   6.60727E+01  6.89844E+01  5.35874E+01  5.21337E+01  4.85535E+01  4.24112E+01  4.79970E+01  2.56765E+01  2.66061E+01  1.48940E+01
   8.74792E-01  2.56732E+01  1.39658E+01  1.84500E+01  1.48047E+01  5.66781E+00  5.29680E+00 -4.66136E+00 -5.69534E+00 -1.19037E+01
  -2.00903E+01 -4.26270E+01 -3.15854E+01 -4.02807E+01 -6.13101E+01 -6.42863E+01 -6.97884E+01 -4.55299E+01 -3.74773E+01 -3.29351E+01
  -2.31545E+01 -2.85890E+00  8.08870E+00  9.82219E+00  1.94762E+01  2.63667E+01  2.33326E+01  1.14192E+01  3.33203E+01  4.20037E+01
   3.09735E+01  1.12165E+01  9.22966E+00  2.48876E+01  2.05656E+01  2.68076E+01  3.04335E+01  4.14247E+01  6.48351E+01  6.87414E+01
   3.94632E+01  4.77198E+01  7.17382E+01  6.81376E+01  6.96947E+01  6.84029E+01  9.21084E+01  9.37259E+01  9.68704E+01  9.28791E+01
   7.45179E+01  9.05292E+01  7.31078E+01  6.53052E+01  6.23663E+01  5.73144E+01  5.89233E+01  3.55810E+01  2.58738E+01  1.98290E+01
   2.16581E+01  1.81080E+01  1.38544E+01  2.03184E+01  2.06532E+01  2.42052E+01  3.92226E+01  5.34793E+01  3.16679E+01  4.00253E+01
   5.44786E+01  3.73733E+01  5.16596E+01  5.23911E+01  4.85869E+01  4.68751E+01  3.99294E+01  5.55572E+01  6.36448E+01  5.49438E+01
   6.36551E+01  8.30076E+01  8.22393E+01  9.53303E+01  1.06459E+02  1.05996E+02  1.06199E+02  1.17894E+02  1.31396E+02  1.16258E+02
   1.22334E+02  1.19004E+02  1.07442E+02  9.97039E+01  8.21679E+01  8.38128E+01  7.49609E+01  7.10415E+01  6.41201E+01  5.73992E+01
   4.60927E+01  2.56318E+01  2.85127E+01  1.59998E+01  2.93126E+01  2.77438E+01 -6.73754E-01  1.70022E+01 -7.67322E+00  2.23156E+00
   1.50004E+01 -1.45677E+01  2.97214E+01  1.37246E+01 -4.27431E+00  1.64626E+01  1.96753E+00  4.24813E+00  4.46631E+00  1.08777E+01
   1.93179E+00  3.31028E+00 -5.64095E+00 -4.93025E+00  7.31168E+00 -1.58582E+01 -3.93564E+00 -3.61168E+00 -5.47255E+00  2.87783E+00
   1.90008E+00  1.33149E+00  6.83898E+00  1.30895E+01  1.83618E+00  5.19926E+00 -2.00989E+00 -4.54939E+00 -5.17563E+00 -4.53255E+00
   1.18965E+01  1.70946E+01  6.00913E-01 -9.68623E+00  1.24332E+01  8.86652E+00 -2.42582E+00  2.33093E+00  8.22352E+00  9.62770E+00
   7.86977E+00  5.29664E-01 -9.54726E+00 -4.58795E-01  6.76815E+00  6.64321E+00 -1.12238E+01 -9.22638E+00  1.56678E+01  9.33950E+00
  -6.41699E+00  8.83357E+00  5.37663E+00 -7.57689E+00  1.35988E+01  2.00528E+00  2.93780E+00  5.03981E+00  5.93897E+00  1.81868E+01
  -2.42936E+00  1.21751E+01  9.75282E+00 -6.38397E+00  8.75506E+00 -2.36801E+00 -2.74423E+00  9.37027E+00 -7.79101E+00 -6.57184E+00
 NY points of the fit to the data follow
   2.11868E+01  1.57346E+01  7.74745E+00  4.02623E-01  1.20102E+00  1.17390E+01  2.36132E+01  2.90493E+01  2.87916E+01  2.54823E+01
   2.03493E+01  1.55752E+01  1.22732E+01  9.92535E+00  8.36215E+00  8.43119E+00  7.52814E+00  4.52231E+00 -8.10512E+00 -2.58449E+01
  -3.44369E+01 -3.47213E+01 -2.88962E+01 -1.06356E+01  1.75544E+01  3.81942E+01  4.99541E+01  6.02687E+01  6.53374E+01  6.58591E+01
   6.55349E+01  6.45619E+01  6.29102E+01  6.06077E+01  5.81827E+01  5.66692E+01  5.31649E+01  4.60538E+01  3.05316E+01  7.07612E+00
  -1.27357E+01 -1.85268E+01 -1.29100E+01 -3.66073E+00  9.84770E+00  2.54938E+01  3.88808E+01  4.86675E+01  5.52135E+01  5.90760E+01
   6.01462E+01  5.73679E+01  4.89164E+01  3.74961E+01  2.74868E+01  2.35380E+01  2.56548E+01  2.30326E+01  1.45069E+01  1.20580E+01
   1.60061E+01  1.83250E+01  2.32349E+01  3.64582E+01  4.98688E+01  5.86670E+01  6.41676E+01  5.87423E+01  4.10932E+01  2.55222E+01
   2.04580E+01  1.94291E+01  1.94496E+01  2.68417E+01  3.95075E+01  4.98538E+01  5.81010E+01  6.51005E+01  7.13039E+01  7.38327E+01
   7.19527E+01  6.39249E+01  4.87729E+01  3.06142E+01  1.59421E+01  9.90465E+00  1.25850E+01  2.25269E+01  3.45558E+01  4.46587E+01
   5.31703E+01  5.97953E+01  6.49149E+01  6.93746E+01  7.38296E+01  7.81387E+01  8.33006E+01  8.77295E+01  8.99997E+01  9.30574E+01
   9.92416E+01  9.93362E+01  9.33992E+01  8.28895E+01  7.07692E+01  5.88656E+01  6.15878E+01  6.87415E+01  3.88559E+01 -2.62613E+01
  -7.90897E+01 -9.24009E+01 -8.51659E+01 -7.04936E+01 -4.92623E+01 -3.12849E+01 -1.92348E+01 -9.86698E+00 -1.99561E+00  4.98543E+00
   1.14983E+01  1.80045E+01  2.49002E+01  3.23005E+01  4.00937E+01  4.71860E+01  5.25473E+01  6.24432E+01  7.89241E+01  1.13813E+02
   1.50573E+02  1.42752E+02  8.25809E+01  1.97644E+01 -1.43596E+01 -3.33567E+01 -4.11562E+01 -3.70698E+01 -3.15712E+01 -2.79769E+01
  -2.55804E+01 -2.49903E+01 -2.50317E+01 -2.50277E+01 -2.51691E+01 -2.49777E+01 -2.35873E+01 -2.17099E+01 -2.01317E+01 -1.88394E+01
  -1.76912E+01 -1.64158E+01 -1.49988E+01 -1.32431E+01 -1.08726E+01 -8.34138E+00 -6.86724E+00 -6.75191E+00 -7.01078E+00 -6.05687E+00
  -3.54902E+00 -1.34112E+00 -1.21547E+00 -2.53002E+00 -3.34894E+00 -3.44099E+00 -3.78014E+00 -4.64294E+00 -5.15254E+00 -3.27101E+00
   3.60390E+00  1.43519E+01  2.15005E+01  2.04584E+01  1.68066E+01  1.80085E+01  2.44053E+01  2.86742E+01  2.57631E+01  1.74796E+01
   8.72626E+00  1.32231E+00 -4.50939E+00 -7.82224E+00 -9.25511E+00 -1.00864E+01 -1.06892E+01 -1.08087E+01 -1.08325E+01 -1.00995E+01
  -8.30565E+00 -7.28446E+00 -4.64333E+00  2.65757E+00  9.77573E+00  1.21093E+01  1.33426E+01  1.69716E+01  1.95491E+01  1.85291E+01
   1.66452E+01  1.70716E+01  2.05166E+01  2.26675E+01  2.20731E+01  2.01508E+01  1.63770E+01  1.05267E+01  3.48134E+00 -3.29111E+00
  -1.15496E+01 -1.82364E+01 -1.92909E+01 -1.64595E+01 -5.15146E+00  1.23069E+01  3.01365E+01  4.32118E+01  5.05876E+01  5.00790E+01
   4.32548E+01  3.79012E+01  3.51038E+01  3.41291E+01  3.44995E+01  3.34658E+01  3.06704E+01  2.54940E+01  1.79383E+01  1.00523E+01
   1.51965E+00 -7.07615E+00 -1.45859E+01 -2.17418E+01 -2.81316E+01 -3.24517E+01 -3.60159E+01 -3.78878E+01 -3.69539E+01 -3.51282E+01
  -3.18984E+01 -2.67671E+01 -1.99900E+01 -1.35136E+01 -7.09300E+00 -2.35631E+00  1.88941E-01  2.07379E-01 -2.30386E+00 -6.73779E+00
  -1.28233E+01 -1.95065E+01 -2.46683E+01 -2.44491E+01 -4.45477E+01 -8.21718E+01 -8.40213E+01 -2.69419E+01  4.03076E+01  7.81508E+01
   9.87884E+01  1.06295E+02  1.00508E+02  9.25489E+01  8.65153E+01  8.08636E+01  7.55141E+01  6.99994E+01  6.47670E+01  6.04259E+01
   5.69090E+01  5.49312E+01  5.42598E+01  5.48674E+01  5.60326E+01  5.77631E+01  5.93828E+01  6.01225E+01  6.03235E+01  5.98126E+01
   5.88702E+01  5.77151E+01  5.63184E+01  5.48338E+01  5.33458E+01  5.18403E+01  5.02235E+01  4.84089E+01  4.64133E+01  4.42953E+01
   4.20209E+01  3.96730E+01  3.76284E+01  3.62034E+01  3.54687E+01  3.54123E+01  3.58007E+01  3.64355E+01  3.72744E+01  3.82972E+01
   3.93936E+01  4.04680E+01  4.14945E+01  4.24028E+01  4.32329E+01  4.41868E+01  4.52811E+01  4.63947E+01  4.74071E+01  4.82961E+01
   4.91030E+01  4.99212E+01  5.06273E+01  5.11148E+01  5.14239E+01  5.14848E+01  5.10878E+01  5.04468E+01  4.96761E+01  4.86075E+01
   4.72489E+01  4.57962E+01  4.42572E+01  4.23489E+01  3.97354E+01  3.62465E+01  3.21472E+01  2.78968E+01  2.37763E+01  2.00994E+01
   1.72740E+01  1.55886E+01  1.52650E+01  1.61917E+01  1.79072E+01  1.98256E+01  2.15560E+01  2.29021E+01  2.40303E+01  2.53382E+01
   2.69758E+01  2.89193E+01  3.10506E+01  3.30098E+01  3.44360E+01  3.54172E+01  3.61411E+01  3.65133E+01  3.64319E+01  3.58620E+01
   3.47650E+01  3.30363E+01  3.09828E+01  2.91162E+01  2.77172E+01  2.69274E+01  2.67906E+01  2.72853E+01  2.82719E+01  2.96475E+01
   3.12899E+01  3.30377E+01  3.48091E+01  3.65263E+01  3.81340E+01  3.96424E+01  4.11316E+01  4.26262E+01  4.40835E+01  4.55378E+01
   4.70237E+01  4.85054E+01  5.01491E+01  5.20870E+01  5.41600E+01  5.64278E+01  5.90938E+01  6.20291E+01  6.50202E+01  6.83278E+01
   7.20570E+01  7.59592E+01  7.97754E+01  8.31706E+01  8.54918E+01  8.59980E+01  8.43241E+01  8.06711E+01  7.59329E+01  7.09822E+01
   6.63556E+01  6.23168E+01  5.89598E+01  5.58073E+01  5.22620E+01  4.82882E+01  4.39424E+01  3.93563E+01  3.49240E+01  3.11217E+01
   2.79771E+01  2.53661E+01  2.33737E+01  2.19352E+01  2.08592E+01  1.99718E+01  1.91534E+01  1.83782E+01  1.76428E+01  1.70704E+01
   1.66336E+01  1.62530E+01  1.59109E+01  1.56757E+01  1.54912E+01  1.51271E+01  1.47122E+01  1.44838E+01  1.43835E+01  1.41625E+01
   1.38607E+01  1.36405E+01  1.34375E+01  1.31788E+01  1.28369E+01  1.25586E+01  1.24195E+01  1.23211E+01  1.21446E+01  1.18889E+01
   1.15840E+01  1.12092E+01  1.09008E+01  1.06588E+01  1.04585E+01  1.02858E+01  1.01524E+01  9.99247E+00  9.79395E+00  9.62302E+00
   9.41882E+00  9.09908E+00  8.68654E+00  8.32127E+00  8.06923E+00  7.84616E+00  7.64384E+00  7.46337E+00  7.20893E+00  6.86448E+00
   6.59413E+00  6.40941E+00  6.23006E+00  6.04808E+00  5.88332E+00  5.67206E+00  5.46493E+00  5.27250E+00  5.05858E+00  4.79391E+00
   4.46295E+00  4.12843E+00  3.80682E+00  3.54449E+00  3.36995E+00  3.33886E+00  3.32099E+00  3.18476E+00  2.91341E+00  2.53586E+00
   2.17214E+00  1.90613E+00  1.66330E+00  1.40399E+00  1.21132E+00  1.03146E+00  7.20454E-01  4.22077E-01  2.07861E-01  7.80500E-02
 NY background values follow
     3.773E+01    3.766E+01    3.758E+01    3.751E+01    3.744E+01    3.736E+01    3.729E+01    3.722E+01    3.714E+01    3.707E+01
     3.700E+01    3.693E+01    3.686E+01    3.679E+01    3.672E+01    3.665E+01    3.658E+01    3.652E+01    3.645E+01    3.639E+01
     3.632E+01    3.626E+01    3.620E+01    3.614E+01    3.608E+01    3.602E+01    3.597E+01    3.591E+01    3.586E+01    3.581E+01
     3.576E+01    3.571E+01    3.566E+01    3.562E+01    3.557E+01    3.553E+01    3.549E+01    3.545E+01    3.541E+01    3.538E+01
     3.534E+01    3.531E+01    3.527E+01    3.524E+01    3.521E+01    3.517E+01    3.514E+01    3.511E+01    3.508E+01    3.506E+01
     3.503E+01    3.500E+01    3.497E+01    3.495E+01    3.492E+01    3.489E+01    3.487E+01    3.484E+01    3.481E+01    3.479E+01
     3.476E+01    3.473E+01    3.471E+01    3.468E+01    3.465E+01    3.462E+01    3.459E+01    3.457E+01    3.454E+01    3.451E+01
     3.448E+01    3.445E+01    3.442E+01    3.438E+01    3.435E+01    3.432E+01    3.428E+01    3.425E+01    3.421E+01    3.418E+01
     3.414E+01    3.410E+01    3.406E+01    3.402E+01    3.398E+01    3.393E+01    3.389E+01    3.384E+01    3.380E+01    3.375E+01
     3.370E+01    3.365E+01    3.360E+01    3.354E+01    3.349E+01    3.343E+01    3.337E+01    3.331E+01    3.325E+01    3.319E+01
     3.312E+01    3.306E+01    3.299E+01    3.292E+01    3.285E+01    3.278E+01    3.271E+01    3.263E+01    3.256E+01    3.248E+01
     3.240E+01    3.232E+01    3.223E+01    3.215E+01    3.206E+01    3.198E+01    3.189E+01    3.180E+01    3.170E+01    3.161E+01
     3.151E+01    3.142E+01    3.132E+01    3.122E+01    3.111E+01    3.101E+01    3.090E+01    3.080E+01    3.069E+01    3.058E+01
     3.047E+01    3.036E+01    3.025E+01    3.013E+01    3.002E+01    2.990E+01    2.978E+01    2.967E+01    2.955E+01    2.943E+01
     2.931E+01    2.919E+01    2.907E+01    2.894E+01    2.882E+01    2.870E+01    2.857E+01    2.845E+01    2.832E+01    2.820E+01
     2.807E+01    2.795E+01    2.782E+01    2.770E+01    2.757E+01    2.745E+01    2.732E+01    2.720E+01    2.707E+01    2.695E+01
     2.682E+01    2.670E+01    2.657E+01    2.645E+01    2.633E+01    2.620E+01    2.608E+01    2.596E+01    2.584E+01    2.572E+01
     2.560E+01    2.549E+01    2.537E+01    2.525E+01    2.514E+01    2.503E+01    2.491E+01    2.480E+01    2.469E+01    2.459E+01
     2.448E+01    2.438E+01    2.427E+01    2.417E+01    2.407E+01    2.397E+01    2.388E+01    2.378E+01    2.369E+01    2.360E+01
     2.351E+01    2.342E+01    2.333E+01    2.324E+01    2.316E+01    2.308E+01    2.300E+01    2.292E+01    2.285E+01    2.277E+01
     2.270E+01    2.263E+01    2.256E+01    2.249E+01    2.243E+01    2.236E+01    2.230E+01    2.224E+01    2.219E+01    2.213E+01
     2.208E+01    2.203E+01    2.198E+01    2.193E+01    2.188E+01    2.184E+01    2.180E+01    2.175E+01    2.171E+01    2.167E+01
     2.163E+01    2.159E+01    2.156E+01    2.152E+01    2.148E+01    2.144E+01    2.141E+01    2.137E+01    2.133E+01    2.129E+01
     2.126E+01    2.122E+01    2.118E+01    2.114E+01    2.110E+01    2.105E+01    2.101E+01    2.097E+01    2.092E+01    2.087E+01
     2.082E+01    2.077E+01    2.072E+01    2.067E+01    2.061E+01    2.055E+01    2.049E+01    2.043E+01    2.036E+01    2.029E+01
     2.022E+01    2.015E+01    2.007E+01    1.999E+01    1.991E+01    1.983E+01    1.974E+01    1.965E+01    1.955E+01    1.946E+01
     1.936E+01    1.925E+01    1.915E+01    1.903E+01    1.892E+01    1.880E+01    1.868E+01    1.855E+01    1.842E+01    1.829E+01
     1.815E+01    1.801E+01    1.786E+01    1.771E+01    1.756E+01    1.741E+01    1.725E+01    1.709E+01    1.694E+01    1.678E+01
     1.662E+01    1.647E+01    1.631E+01    1.616E+01    1.601E+01    1.586E+01    1.572E+01    1.558E+01    1.544E+01    1.531E+01
     1.518E+01    1.506E+01    1.495E+01    1.484E+01    1.474E+01    1.464E+01    1.456E+01    1.448E+01    1.441E+01    1.435E+01
     1.430E+01    1.426E+01    1.423E+01    1.421E+01    1.420E+01    1.420E+01    1.421E+01    1.423E+01    1.426E+01    1.429E+01
     1.434E+01    1.439E+01    1.445E+01    1.452E+01    1.460E+01    1.469E+01    1.479E+01    1.489E+01    1.500E+01    1.512E+01
     1.525E+01    1.538E+01    1.552E+01    1.567E+01    1.582E+01    1.599E+01    1.616E+01    1.633E+01    1.651E+01    1.670E+01
     1.690E+01    1.710E+01    1.730E+01    1.752E+01    1.773E+01    1.795E+01    1.817E+01    1.840E+01    1.863E+01    1.886E+01
     1.909E+01    1.932E+01    1.956E+01    1.979E+01    2.003E+01    2.026E+01    2.049E+01    2.072E+01    2.095E+01    2.117E+01
     2.139E+01    2.161E+01    2.182E+01    2.203E+01    2.223E+01    2.243E+01    2.262E+01    2.281E+01    2.298E+01    2.315E+01
     2.331E+01    2.347E+01    2.361E+01    2.375E+01    2.388E+01    2.400E+01    2.411E+01    2.421E+01    2.430E+01    2.439E+01
     2.447E+01    2.453E+01    2.459E+01    2.464E+01    2.468E+01    2.471E+01    2.474E+01    2.475E+01    2.476E+01    2.475E+01
     2.474E+01    2.472E+01    2.468E+01    2.464E+01    2.459E+01    2.453E+01    2.446E+01    2.438E+01    2.429E+01    2.419E+01
     2.408E+01    2.396E+01    2.384E+01    2.370E+01    2.355E+01    2.340E+01    2.324E+01    2.307E+01    2.289E+01    2.270E+01
     2.251E+01    2.231E+01    2.210E+01    2.188E+01    2.166E+01    2.144E+01    2.120E+01    2.097E+01    2.072E+01    2.047E+01
     2.022E+01    1.996E+01    1.970E+01    1.943E+01    1.916E+01    1.888E+01    1.860E+01    1.832E+01    1.804E+01    1.775E+01
     1.746E+01    1.716E+01    1.687E+01    1.657E+01    1.627E+01    1.597E+01    1.567E+01    1.536E+01    1.505E+01    1.474E+01
     1.443E+01    1.412E+01    1.381E+01    1.349E+01    1.318E+01    1.286E+01    1.255E+01    1.223E+01    1.191E+01    1.159E+01
     1.127E+01    1.095E+01    1.063E+01    1.031E+01    9.985E+00    9.664E+00    9.343E+00    9.022E+00    8.701E+00    8.381E+00
     8.061E+00    7.742E+00    7.423E+00    7.105E+00    6.787E+00    6.469E+00    6.152E+00    5.835E+00    5.518E+00    5.202E+00
     4.886E+00    4.570E+00    4.254E+00    3.939E+00    3.623E+00    3.308E+00    2.993E+00    2.678E+00    2.363E+00    2.048E+00
     1.733E+00    1.418E+00    1.103E+00    7.879E-01    4.727E-01    1.574E-01   -1.580E-01   -4.736E-01   -7.894E-01   -1.106E+00
 Mac      Conc. = 1.34E-04
   2.81266E+01  2.79791E+01  2.77548E+01  2.73285E+01  2.66427E+01  2.57867E+01  2.48355E+01  2.40204E+01  2.34425E+01  2.31262E+01
   2.29973E+01  2.27997E+01  2.22612E+01  2.11788E+01  2.01599E+01  2.02001E+01  2.13991E+01  2.30132E+01  2.47567E+01  2.66782E+01
   2.83199E+01  2.92919E+01  2.99284E+01  3.04914E+01  3.10644E+01  3.17707E+01  3.26234E+01  3.35134E+01  3.42685E+01  3.49161E+01
   3.54190E+01  3.56281E+01  3.54864E+01  3.52151E+01  3.52537E+01  3.58734E+01  3.69182E+01  3.77930E+01  3.81546E+01  3.82008E+01
   3.82691E+01  3.85968E+01  3.91444E+01  3.97206E+01  4.00371E+01  4.00695E+01  3.98398E+01  3.93003E+01  3.86140E+01  3.79802E+01
   3.74730E+01  3.70236E+01  3.66434E+01  3.63505E+01  3.63226E+01  3.66796E+01  3.71779E+01  3.76892E+01  3.83879E+01  3.90957E+01
   3.95133E+01  3.95527E+01  3.93388E+01  3.89145E+01  3.85060E+01  3.81528E+01  3.77221E+01  3.74427E+01  3.77279E+01  3.86075E+01
   3.96430E+01  4.05626E+01  4.12863E+01  4.17023E+01  4.17558E+01  4.15406E+01  4.12039E+01  4.08440E+01  4.05074E+01  4.01359E+01
   3.99144E+01  3.99089E+01  4.01101E+01  4.03824E+01  4.07480E+01  4.11223E+01  4.14192E+01  4.16549E+01  4.18906E+01  4.20843E+01
   4.22239E+01  4.22951E+01  4.21422E+01  4.16161E+01  4.07645E+01  3.96640E+01  3.84198E+01  3.73411E+01  3.64765E+01  3.55583E+01
   3.45030E+01  3.32470E+01  3.15507E+01  2.90830E+01  2.58856E+01  2.26167E+01  2.00037E+01  1.84528E+01  1.79210E+01  1.83351E+01
