 
 $NMID
 ID=''
 FMTDAT='(2E13.5)'
 TRAMP=   1.00000E+0
 VOLUME=   1.00000E+0
 $END
   5.94402E+4   6.86849E+5
  -4.37618E+5   1.76312E+6
  -1.97751E+5   1.73587E+6
  -3.26560E+5   1.56545E+6
  -4.77178E+5   1.62882E+6
  -4.68252E+5   1.63447E+6
  -5.00146E+5   1.57255E+6
  -5.35428E+5   1.57159E+6
  -5.35463E+5   1.52049E+6
  -6.08762E+5   1.48101E+6
  -6.47806E+5   1.50967E+6
  -6.25592E+5   1.47849E+6
  -6.51842E+5   1.42367E+6
  -6.82306E+5   1.41552E+6
  -6.94167E+5   1.38911E+6
  -7.20942E+5   1.36266E+6
  -7.36396E+5   1.36098E+6
  -7.50431E+5   1.31967E+6
  -7.97531E+5   1.27295E+6
  -8.27991E+5   1.25601E+6
  -8.44294E+5   1.22424E+6
  -8.73672E+5   1.19205E+6
  -8.90392E+5   1.16900E+6
  -9.05114E+5   1.13092E+6
  -9.32683E+5   1.09759E+6
  -9.41346E+5   1.08368E+6
  -9.46463E+5   1.05726E+6
  -9.58756E+5   1.03309E+6
  -9.65161E+5   1.01196E+6
  -9.73515E+5   9.83837E+5
  -9.94011E+5   9.55349E+5
  -1.00251E+6   9.29780E+5
  -1.01231E+6   8.97172E+5
  -1.02913E+6   8.67523E+5
  -1.03966E+6   8.37338E+5
  -1.04961E+6   8.03823E+5
  -1.06588E+6   7.74693E+5
  -1.07673E+6   7.44235E+5
  -1.08111E+6   7.12154E+5
  -1.08728E+6   6.87321E+5
  -1.09057E+6   6.63018E+5
  -1.09346E+6   6.35556E+5
  -1.09381E+6   6.12847E+5
  -1.09412E+6   5.92589E+5
  -1.09548E+6   5.68560E+5
  -1.09866E+6   5.45726E+5
  -1.09919E+6   5.20009E+5
  -1.10138E+6   4.90798E+5
  -1.10223E+6   4.61761E+5
  -1.10213E+6   4.34389E+5
  -1.10250E+6   4.06295E+5
  -1.10306E+6   3.77911E+5
  -1.10283E+6   3.50385E+5
  -1.10213E+6   3.23001E+5
  -1.09936E+6   2.96702E+5
  -1.09586E+6   2.71027E+5
  -1.09201E+6   2.45964E+5
  -1.08668E+6   2.22167E+5
  -1.08050E+6   2.00015E+5
  -1.07562E+6   1.78148E+5
  -1.07032E+6   1.55153E+5
  -1.06418E+6   1.31387E+5
  -1.05806E+6   1.07363E+5
  -1.05112E+6   8.33638E+4
  -1.04303E+6   5.83727E+4
  -1.03335E+6   3.45958E+4
  -1.02378E+6   1.14248E+4
  -1.01492E+6  -1.12532E+4
  -1.00659E+6  -3.30638E+4
  -9.97565E+5  -5.52762E+4
  -9.86848E+5  -7.67453E+4
  -9.75677E+5  -9.67206E+4
  -9.65984E+5  -1.15271E+5
  -9.56266E+5  -1.35161E+5
  -9.43876E+5  -1.54624E+5
  -9.31618E+5  -1.73188E+5
  -9.20269E+5  -1.92035E+5
  -9.08522E+5  -2.11856E+5
  -8.95502E+5  -2.30865E+5
  -8.81915E+5  -2.49738E+5
  -8.67920E+5  -2.68120E+5
  -8.54237E+5  -2.85963E+5
  -8.40421E+5  -3.02432E+5
  -8.26314E+5  -3.18869E+5
  -8.11798E+5  -3.34821E+5
  -7.97029E+5  -3.49119E+5
  -7.83021E+5  -3.62411E+5
  -7.69043E+5  -3.75160E+5
  -7.54863E+5  -3.87649E+5
  -7.40319E+5  -3.98877E+5
  -7.25816E+5  -4.09918E+5
  -7.11362E+5  -4.21152E+5
  -6.96564E+5  -4.32745E+5
  -6.80676E+5  -4.43571E+5
  -6.64583E+5  -4.53085E+5
  -6.48973E+5  -4.62779E+5
  -6.33989E+5  -4.72529E+5
  -6.18179E+5  -4.82150E+5
  -6.01863E+5  -4.90438E+5
  -5.86218E+5  -4.97577E+5
  -5.71334E+5  -5.05094E+5
  -5.55775E+5  -5.12279E+5
  -5.39411E+5  -5.18213E+5
  -5.23578E+5  -5.22849E+5
  -5.08981E+5  -5.27389E+5
  -4.94924E+5  -5.32031E+5
  -4.79510E+5  -5.36292E+5
  -4.63673E+5  -5.40360E+5
  -4.47678E+5  -5.43973E+5
  -4.32532E+5  -5.46552E+5
  -4.17754E+5  -5.49229E+5
  -4.02630E+5  -5.52333E+5
  -3.86724E+5  -5.55569E+5
  -3.70350E+5  -5.58056E+5
  -3.55135E+5  -5.59978E+5
  -3.39559E+5  -5.61533E+5
  -3.24225E+5  -5.62906E+5
  -3.08272E+5  -5.63591E+5
  -2.93733E+5  -5.63255E+5
  -2.79436E+5  -5.62873E+5
  -2.65683E+5  -5.62751E+5
  -2.51603E+5  -5.62926E+5
  -2.36944E+5  -5.62130E+5
  -2.22699E+5  -5.61261E+5
  -2.08404E+5  -5.60579E+5
  -1.93906E+5  -5.58796E+5
  -1.80320E+5  -5.56012E+5
  -1.66705E+5  -5.54112E+5
  -1.53246E+5  -5.51941E+5
  -1.39557E+5  -5.49948E+5
  -1.25815E+5  -5.47485E+5
  -1.11967E+5  -5.44437E+5
  -9.86608E+4  -5.41025E+5
  -8.56453E+4  -5.37449E+5
  -7.28830E+4  -5.33912E+5
  -6.00410E+4  -5.29965E+5
  -4.80274E+4  -5.25397E+5
  -3.60761E+4  -5.21499E+5
  -2.39530E+4  -5.17160E+5
  -1.17109E+4  -5.12245E+5
  -3.12226E+2  -5.06751E+5
   1.05805E+4  -5.01345E+5
   2.11519E+4  -4.95604E+5
   3.15848E+4  -4.90427E+5
   4.19440E+4  -4.85042E+5
   5.20516E+4  -4.79041E+5
   6.18506E+4  -4.72626E+5
   7.11055E+4  -4.66039E+5
   8.04016E+4  -4.59346E+5
   8.85957E+4  -4.52966E+5
   9.68012E+4  -4.46105E+5
   1.04870E+5  -4.39293E+5
   1.12586E+5  -4.32635E+5
   1.20010E+5  -4.25990E+5
   1.27708E+5  -4.19131E+5
   1.34639E+5  -4.11829E+5
   1.41234E+5  -4.04590E+5
   1.47924E+5  -3.97723E+5
   1.54163E+5  -3.90339E+5
   1.60036E+5  -3.83068E+5
   1.65796E+5  -3.75657E+5
   1.71294E+5  -3.68216E+5
   1.76999E+5  -3.60792E+5
   1.81918E+5  -3.52928E+5
   1.86628E+5  -3.45614E+5
   1.90927E+5  -3.38143E+5
   1.94922E+5  -3.30992E+5
   1.99583E+5  -3.23783E+5
   2.03356E+5  -3.16018E+5
   2.06750E+5  -3.08786E+5
   2.10061E+5  -3.01580E+5
   2.13347E+5  -2.94250E+5
   2.16144E+5  -2.87171E+5
   2.19004E+5  -2.79661E+5
   2.21559E+5  -2.72160E+5
   2.24372E+5  -2.65208E+5
   2.26926E+5  -2.57989E+5
   2.29067E+5  -2.50163E+5
   2.30874E+5  -2.42667E+5
   2.32586E+5  -2.35232E+5
   2.34461E+5  -2.28448E+5
   2.36206E+5  -2.21172E+5
   2.37880E+5  -2.13839E+5
   2.39166E+5  -2.06633E+5
   2.39929E+5  -1.99185E+5
   2.40699E+5  -1.92341E+5
   2.41301E+5  -1.84957E+5
   2.41892E+5  -1.78232E+5
   2.42213E+5  -1.71601E+5
   2.42710E+5  -1.65354E+5
   2.43078E+5  -1.58654E+5
   2.43708E+5  -1.51347E+5
   2.43634E+5  -1.44079E+5
   2.43340E+5  -1.37132E+5
   2.43152E+5  -1.30685E+5
   2.42646E+5  -1.24208E+5
   2.42511E+5  -1.17321E+5
   2.42119E+5  -1.10969E+5
   2.41552E+5  -1.04200E+5
   2.41060E+5  -9.74774E+4
   2.39981E+5  -9.09472E+4
   2.39072E+5  -8.44297E+4
   2.37884E+5  -7.81859E+4
   2.36855E+5  -7.22262E+4
   2.35769E+5  -6.63094E+4
   2.34655E+5  -6.00013E+4
   2.32978E+5  -5.41405E+4
   2.31553E+5  -4.81690E+4
   2.29599E+5  -4.26288E+4
   2.28068E+5  -3.69326E+4
   2.26360E+5  -3.10555E+4
   2.24373E+5  -2.58745E+4
   2.22503E+5  -2.03361E+4
   2.20542E+5  -1.54568E+4
   2.18666E+5  -1.00352E+4
   2.16262E+5  -4.64308E+3
   2.13795E+5   9.21417E+1
   2.11270E+5   4.79013E+3
   2.09107E+5   9.31962E+3
   2.06554E+5   1.36856E+4
   2.04115E+5   1.81257E+4
   2.01390E+5   2.21194E+4
   1.98896E+5   2.61283E+4
   1.96285E+5   3.02124E+4
   1.93419E+5   3.42683E+4
   1.90541E+5   3.79863E+4
   1.87878E+5   4.14316E+4
   1.84734E+5   4.48754E+4
   1.82135E+5   4.85765E+4
   1.79348E+5   5.17800E+4
   1.76250E+5   5.49154E+4
   1.73163E+5   5.76687E+4
   1.70400E+5   6.06218E+4
   1.67330E+5   6.34341E+4
   1.64318E+5   6.58214E+4
   1.61320E+5   6.85378E+4
   1.58211E+5   7.09952E+4
   1.55287E+5   7.33979E+4
   1.52215E+5   7.53977E+4
   1.48984E+5   7.77514E+4
   1.46069E+5   7.93151E+4
   1.43214E+5   8.14710E+4
   1.40383E+5   8.33447E+4
   1.36989E+5   8.54234E+4
   1.34261E+5   8.69808E+4
   1.31401E+5   8.84277E+4
   1.28250E+5   9.01084E+4
   1.25348E+5   9.15879E+4
   1.22053E+5   9.32590E+4
   1.19497E+5   9.44931E+4
   1.16303E+5   9.56151E+4
   1.13525E+5   9.69831E+4
   1.10719E+5   9.78818E+4
   1.07982E+5   9.94318E+4
   1.05096E+5   1.00157E+5
   1.02121E+5   1.01228E+5
   9.94778E+4   1.01978E+5
   9.67762E+4   1.03181E+5
   9.35518E+4   1.03889E+5
   9.09573E+4   1.04893E+5
   8.80460E+4   1.05645E+5
   8.52171E+4   1.06611E+5
   8.22552E+4   1.07070E+5
   7.95026E+4   1.07697E+5
   7.72899E+4   1.08098E+5
   7.44313E+4   1.08287E+5
   7.19690E+4   1.08963E+5
   6.91060E+4   1.09174E+5
   6.66497E+4   1.09626E+5
   6.40620E+4   1.09803E+5
   6.13493E+4   1.10226E+5
   5.90598E+4   1.10329E+5
   5.65974E+4   1.10058E+5
   5.41392E+4   1.10307E+5
   5.15269E+4   1.10335E+5
   4.90402E+4   1.10396E+5
   4.62586E+4   1.10315E+5
   4.39213E+4   1.10351E+5
   4.17135E+4   1.09949E+5
   3.92382E+4   1.09731E+5
   3.72711E+4   1.09544E+5
   3.46773E+4   1.09275E+5
   3.24939E+4   1.08767E+5
   3.03924E+4   1.08430E+5
   2.83368E+4   1.08168E+5
   2.59417E+4   1.07541E+5
   2.37698E+4   1.07072E+5
   2.18168E+4   1.06514E+5
   1.97463E+4   1.06072E+5
   1.76658E+4   1.05498E+5
   1.57067E+4   1.04899E+5
   1.38822E+4   1.04278E+5
   1.18123E+4   1.03444E+5
   9.86899E+3   1.02868E+5
   8.07621E+3   1.02131E+5
   6.20262E+3   1.01125E+5
   4.46238E+3   1.00491E+5
   2.84550E+3   9.98905E+4
   8.98656E+2   9.88857E+4
  -6.29345E+2   9.84693E+4
  -2.41341E+3   9.73384E+4
  -4.15561E+3   9.64933E+4
  -5.61753E+3   9.56988E+4
  -7.12052E+3   9.48219E+4
  -8.91878E+3   9.40562E+4
  -1.03306E+4   9.27573E+4
  -1.20515E+4   9.20317E+4
  -1.34168E+4   9.09340E+4
  -1.45791E+4   9.01453E+4
  -1.60415E+4   8.90965E+4
  -1.74775E+4   8.81165E+4
  -1.85311E+4   8.72039E+4
  -1.99966E+4   8.60976E+4
  -2.13779E+4   8.51559E+4
  -2.24443E+4   8.40119E+4
  -2.34532E+4   8.29846E+4
  -2.46622E+4   8.19859E+4
  -2.59903E+4   8.09626E+4
  -2.69740E+4   7.99575E+4
  -2.79682E+4   7.88553E+4
  -2.91939E+4   7.75660E+4
  -3.01985E+4   7.65475E+4
  -3.10629E+4   7.55101E+4
  -3.19439E+4   7.43231E+4
  -3.29273E+4   7.31119E+4
  -3.36196E+4   7.18506E+4
  -3.46512E+4   7.10030E+4
  -3.55840E+4   6.99524E+4
  -3.65772E+4   6.89209E+4
  -3.73513E+4   6.75425E+4
  -3.80440E+4   6.61736E+4
  -3.87383E+4   6.51792E+4
  -3.93102E+4   6.39012E+4
  -4.00650E+4   6.27895E+4
  -4.07914E+4   6.13813E+4
  -4.14016E+4   6.06256E+4
  -4.21741E+4   5.93825E+4
  -4.27008E+4   5.80005E+4
  -4.32883E+4   5.69158E+4
  -4.38829E+4   5.55098E+4
  -4.40670E+4   5.46672E+4
  -4.48583E+4   5.35619E+4
  -4.54432E+4   5.22640E+4
  -4.58420E+4   5.09389E+4
  -4.61621E+4   4.99027E+4
  -4.65006E+4   4.86892E+4
  -4.70708E+4   4.75341E+4
  -4.73465E+4   4.63441E+4
  -4.75201E+4   4.51750E+4
  -4.78222E+4   4.40904E+4
  -4.80683E+4   4.30063E+4
  -4.83411E+4   4.19569E+4
  -4.87568E+4   4.06759E+4
  -4.88672E+4   3.97240E+4
  -4.90184E+4   3.89481E+4
  -4.95511E+4   3.75654E+4
  -4.92790E+4   3.63075E+4
  -4.94924E+4   3.53832E+4
  -4.96394E+4   3.45127E+4
  -4.96147E+4   3.34107E+4
  -4.98906E+4   3.23343E+4
  -5.00650E+4   3.11416E+4
  -4.98784E+4   2.99702E+4
  -5.01276E+4   2.93711E+4
  -4.99469E+4   2.83840E+4
  -5.01572E+4   2.72555E+4
  -4.97182E+4   2.60776E+4
