 
 $NMID
 ID=''
 FMTDAT='(2E13.5)'
 TRAMP=   1.00000E+0
 VOLUME=   1.00000E+0
 $END
   2.17682E+5   7.41875E+5
  -2.22983E+5   2.05249E+6
  -3.52164E+4   2.04750E+6
  -1.33186E+5   1.94888E+6
  -1.95082E+5   1.99196E+6
  -2.03097E+5   1.93956E+6
  -2.78769E+5   1.91522E+6
  -2.86765E+5   1.95644E+6
  -2.79118E+5   1.88634E+6
  -3.74786E+5   1.84479E+6
  -4.10244E+5   1.87760E+6
  -3.99660E+5   1.83326E+6
  -4.56544E+5   1.78677E+6
  -4.93516E+5   1.79201E+6
  -5.03984E+5   1.75614E+6
  -5.42660E+5   1.72094E+6
  -5.72286E+5   1.71624E+6
  -5.99939E+5   1.68008E+6
  -6.43556E+5   1.64921E+6
  -6.62819E+5   1.63611E+6
  -6.88318E+5   1.59708E+6
  -7.29801E+5   1.56955E+6
  -7.48522E+5   1.55421E+6
  -7.68973E+5   1.51790E+6
  -8.05830E+5   1.48437E+6
  -8.19308E+5   1.46640E+6
  -8.37373E+5   1.43630E+6
  -8.65076E+5   1.40959E+6
  -8.81502E+5   1.38248E+6
  -8.96799E+5   1.35071E+6
  -9.24308E+5   1.32518E+6
  -9.40510E+5   1.29911E+6
  -9.58999E+5   1.26545E+6
  -9.80997E+5   1.23870E+6
  -9.94103E+5   1.21100E+6
  -1.01020E+6   1.18076E+6
  -1.03263E+6   1.15704E+6
  -1.04896E+6   1.12919E+6
  -1.06161E+6   1.09581E+6
  -1.07648E+6   1.07052E+6
  -1.08833E+6   1.04372E+6
  -1.09950E+6   1.01304E+6
  -1.10803E+6   9.87021E+5
  -1.11731E+6   9.63009E+5
  -1.12781E+6   9.34534E+5
  -1.13876E+6   9.08410E+5
  -1.14849E+6   8.81216E+5
  -1.15981E+6   8.50848E+5
  -1.16714E+6   8.20670E+5
  -1.17335E+6   7.92628E+5
  -1.18294E+6   7.65174E+5
  -1.19142E+6   7.38416E+5
  -1.19726E+6   7.10703E+5
  -1.20415E+6   6.83391E+5
  -1.21038E+6   6.55941E+5
  -1.21543E+6   6.28324E+5
  -1.21869E+6   6.00320E+5
  -1.22063E+6   5.73417E+5
  -1.22142E+6   5.48496E+5
  -1.22416E+6   5.23517E+5
  -1.22659E+6   4.97353E+5
  -1.22814E+6   4.70981E+5
  -1.22955E+6   4.45857E+5
  -1.23021E+6   4.19035E+5
  -1.22827E+6   3.91450E+5
  -1.22563E+6   3.65960E+5
  -1.22373E+6   3.40920E+5
  -1.22104E+6   3.16214E+5
  -1.21881E+6   2.92090E+5
  -1.21703E+6   2.66634E+5
  -1.21355E+6   2.41297E+5
  -1.20760E+6   2.17418E+5
  -1.20332E+6   1.95818E+5
  -1.20010E+6   1.72818E+5
  -1.19440E+6   1.48614E+5
  -1.18714E+6   1.25203E+5
  -1.18136E+6   1.03057E+5
  -1.17589E+6   8.06121E+4
  -1.16848E+6   5.71769E+4
  -1.15993E+6   3.41242E+4
  -1.15162E+6   1.13907E+4
  -1.14344E+6  -1.02995E+4
  -1.13453E+6  -3.13843E+4
  -1.12489E+6  -5.30538E+4
  -1.11533E+6  -7.46578E+4
  -1.10487E+6  -9.45455E+4
  -1.09458E+6  -1.13610E+5
  -1.08434E+6  -1.32707E+5
  -1.07353E+6  -1.51233E+5
  -1.06227E+6  -1.68358E+5
  -1.05054E+6  -1.84767E+5
  -1.03936E+6  -2.01605E+5
  -1.02831E+6  -2.19018E+5
  -1.01536E+6  -2.35423E+5
  -1.00149E+6  -2.50780E+5
  -9.88476E+5  -2.65108E+5
  -9.76390E+5  -2.79728E+5
  -9.63880E+5  -2.94644E+5
  -9.49892E+5  -3.08878E+5
  -9.36179E+5  -3.21784E+5
  -9.23192E+5  -3.34702E+5
  -9.09782E+5  -3.48178E+5
  -8.94897E+5  -3.60618E+5
  -8.79615E+5  -3.71871E+5
  -8.65712E+5  -3.81748E+5
  -8.52337E+5  -3.91558E+5
  -8.38562E+5  -4.02027E+5
  -8.23196E+5  -4.12505E+5
  -8.07380E+5  -4.21278E+5
  -7.92313E+5  -4.28891E+5
  -7.78464E+5  -4.36608E+5
  -7.63975E+5  -4.45940E+5
  -7.48492E+5  -4.54846E+5
  -7.32846E+5  -4.63049E+5
  -7.16923E+5  -4.70742E+5
  -7.01581E+5  -4.78494E+5
  -6.85581E+5  -4.86238E+5
  -6.68997E+5  -4.92703E+5
  -6.52947E+5  -4.97548E+5
  -6.37726E+5  -5.02437E+5
  -6.23012E+5  -5.08066E+5
  -6.08265E+5  -5.13582E+5
  -5.92745E+5  -5.18550E+5
  -5.77141E+5  -5.23441E+5
  -5.61393E+5  -5.27999E+5
  -5.45007E+5  -5.32166E+5
  -5.29495E+5  -5.35135E+5
  -5.13901E+5  -5.38607E+5
  -4.98500E+5  -5.41793E+5
  -4.82931E+5  -5.45650E+5
  -4.66675E+5  -5.49500E+5
  -4.49936E+5  -5.52857E+5
  -4.33814E+5  -5.54681E+5
  -4.18624E+5  -5.56303E+5
  -4.03100E+5  -5.58483E+5
  -3.87536E+5  -5.59991E+5
  -3.72108E+5  -5.60925E+5
  -3.57765E+5  -5.61588E+5
  -3.42844E+5  -5.62672E+5
  -3.27529E+5  -5.63233E+5
  -3.12528E+5  -5.63424E+5
  -2.97919E+5  -5.62109E+5
  -2.84144E+5  -5.61071E+5
  -2.70461E+5  -5.60923E+5
  -2.56550E+5  -5.60198E+5
  -2.42260E+5  -5.58866E+5
  -2.28014E+5  -5.56538E+5
  -2.14624E+5  -5.54352E+5
  -2.01102E+5  -5.52117E+5
  -1.88548E+5  -5.49300E+5
  -1.75937E+5  -5.46537E+5
  -1.63781E+5  -5.43190E+5
  -1.52110E+5  -5.40069E+5
  -1.40604E+5  -5.37178E+5
  -1.28552E+5  -5.33947E+5
  -1.17021E+5  -5.29795E+5
  -1.06357E+5  -5.25202E+5
  -9.60405E+4  -5.21138E+5
  -8.52768E+4  -5.16701E+5
  -7.45968E+4  -5.12219E+5
  -6.47507E+4  -5.07585E+5
  -5.48473E+4  -5.02452E+5
  -4.45467E+4  -4.97533E+5
  -3.47470E+4  -4.92214E+5
  -2.55140E+4  -4.86492E+5
  -1.67981E+4  -4.80940E+5
  -8.52056E+3  -4.75647E+5
   4.99462E+2  -4.70214E+5
   8.88309E+3  -4.64697E+5
   1.70135E+4  -4.58514E+5
   2.45828E+4  -4.52676E+5
   3.21810E+4  -4.46931E+5
   3.97425E+4  -4.40626E+5
   4.69966E+4  -4.34560E+5
   5.43950E+4  -4.28314E+5
   6.11828E+4  -4.22191E+5
   6.82614E+4  -4.16229E+5
   7.57343E+4  -4.09867E+5
   8.20544E+4  -4.02718E+5
   8.85465E+4  -3.96006E+5
   9.46639E+4  -3.90032E+5
   1.00977E+5  -3.83777E+5
   1.07139E+5  -3.76968E+5
   1.13213E+5  -3.70075E+5
   1.18674E+5  -3.63316E+5
   1.24041E+5  -3.56830E+5
   1.29210E+5  -3.50199E+5
   1.34186E+5  -3.43049E+5
   1.38494E+5  -3.36415E+5
   1.42663E+5  -3.30351E+5
   1.47951E+5  -3.23963E+5
   1.52735E+5  -3.17417E+5
   1.57161E+5  -3.10327E+5
   1.61397E+5  -3.03066E+5
   1.65189E+5  -2.96253E+5
   1.69458E+5  -2.89519E+5
   1.73115E+5  -2.82540E+5
   1.76702E+5  -2.75801E+5
   1.80408E+5  -2.68904E+5
   1.84010E+5  -2.61978E+5
   1.87407E+5  -2.54867E+5
   1.90489E+5  -2.47599E+5
   1.92896E+5  -2.40750E+5
   1.95467E+5  -2.34003E+5
   1.97959E+5  -2.27673E+5
   2.00483E+5  -2.20786E+5
   2.03017E+5  -2.13813E+5
   2.04970E+5  -2.06833E+5
   2.06593E+5  -2.00315E+5
   2.08481E+5  -1.93630E+5
   2.10344E+5  -1.86982E+5
   2.11399E+5  -1.80341E+5
   2.12602E+5  -1.73936E+5
   2.14328E+5  -1.67666E+5
   2.15581E+5  -1.61031E+5
   2.16421E+5  -1.54527E+5
   2.16831E+5  -1.47967E+5
   2.16879E+5  -1.41731E+5
   2.17216E+5  -1.36137E+5
   2.17428E+5  -1.30269E+5
   2.17895E+5  -1.24135E+5
   2.17133E+5  -1.18364E+5
   2.17343E+5  -1.12699E+5
   2.17099E+5  -1.07087E+5
   2.16807E+5  -1.01394E+5
   2.16202E+5  -9.56057E+4
   2.14945E+5  -9.01866E+4
   2.14144E+5  -8.52189E+4
   2.13877E+5  -8.01896E+4
   2.12793E+5  -7.46009E+4
   2.11844E+5  -6.94045E+4
   2.10569E+5  -6.47447E+4
   2.08998E+5  -6.01144E+4
   2.07883E+5  -5.52940E+4
   2.06432E+5  -5.06195E+4
   2.04598E+5  -4.60451E+4
   2.03064E+5  -4.21610E+4
   2.01621E+5  -3.78210E+4
   1.99952E+5  -3.33153E+4
   1.97915E+5  -2.94161E+4
   1.96043E+5  -2.54384E+4
   1.94461E+5  -2.15517E+4
   1.92375E+5  -1.77377E+4
   1.90828E+5  -1.36773E+4
   1.88175E+5  -1.01155E+4
   1.86342E+5  -6.41380E+3
   1.84158E+5  -2.68749E+3
   1.82287E+5   6.87404E+2
   1.79756E+5   4.46421E+3
   1.77508E+5   7.54722E+3
   1.75332E+5   1.04507E+4
   1.73302E+5   1.35183E+4
   1.71108E+5   1.67316E+4
   1.68605E+5   2.00277E+4
   1.66033E+5   2.30473E+4
   1.63933E+5   2.56134E+4
   1.61471E+5   2.83104E+4
   1.58989E+5   3.12656E+4
   1.56867E+5   3.41893E+4
   1.54473E+5   3.67181E+4
   1.51949E+5   3.94002E+4
   1.49438E+5   4.23189E+4
   1.46797E+5   4.49743E+4
   1.44021E+5   4.71699E+4
   1.41414E+5   4.90672E+4
   1.39329E+5   5.14533E+4
   1.36925E+5   5.38028E+4
   1.34197E+5   5.61234E+4
   1.31618E+5   5.80236E+4
   1.28875E+5   5.94566E+4
   1.26289E+5   6.14589E+4
   1.23829E+5   6.32863E+4
   1.21167E+5   6.50601E+4
   1.18529E+5   6.64936E+4
   1.16123E+5   6.80787E+4
   1.13546E+5   6.99765E+4
   1.10818E+5   7.17189E+4
   1.08072E+5   7.29221E+4
   1.05283E+5   7.38400E+4
   1.02918E+5   7.49754E+4
   1.00616E+5   7.64000E+4
   9.77509E+4   7.76552E+4
   9.53943E+4   7.85659E+4
   9.25404E+4   7.92810E+4
   9.02918E+4   8.02209E+4
   8.75899E+4   8.14277E+4
   8.49601E+4   8.19344E+4
   8.20384E+4   8.22568E+4
   7.99335E+4   8.30136E+4
   7.75286E+4   8.36083E+4
   7.51593E+4   8.42663E+4
   7.25654E+4   8.49219E+4
   6.98111E+4   8.50204E+4
   6.76454E+4   8.53257E+4
   6.53985E+4   8.55534E+4
   6.24187E+4   8.58811E+4
   6.03402E+4   8.59493E+4
   5.80715E+4   8.61008E+4
   5.57031E+4   8.65395E+4
   5.33161E+4   8.66974E+4
   5.07751E+4   8.67079E+4
   4.84077E+4   8.63887E+4
   4.66741E+4   8.61909E+4
   4.44812E+4   8.62042E+4
   4.21830E+4   8.63046E+4
   3.99333E+4   8.60017E+4
   3.76803E+4   8.57202E+4
   3.56310E+4   8.55220E+4
   3.36443E+4   8.51298E+4
   3.15707E+4   8.47896E+4
   2.94671E+4   8.42474E+4
   2.77880E+4   8.40789E+4
   2.56810E+4   8.35457E+4
   2.38320E+4   8.33344E+4
   2.17852E+4   8.28025E+4
   1.99775E+4   8.20007E+4
   1.83510E+4   8.16906E+4
   1.65074E+4   8.13543E+4
   1.48486E+4   8.06194E+4
   1.29510E+4   8.00692E+4
   1.11691E+4   7.93149E+4
   9.83312E+3   7.85746E+4
   8.02443E+3   7.77178E+4
   6.42957E+3   7.75266E+4
   4.69249E+3   7.65357E+4
   3.36589E+3   7.56558E+4
   2.28505E+3   7.49064E+4
   6.02610E+2   7.43644E+4
  -9.34036E+2   7.36096E+4
  -2.50866E+3   7.27640E+4
  -3.57891E+3   7.19591E+4
  -4.72755E+3   7.09716E+4
  -6.18763E+3   7.00697E+4
  -7.34881E+3   6.92428E+4
  -8.50680E+3   6.84046E+4
  -9.66701E+3   6.74640E+4
  -1.10323E+4   6.67103E+4
  -1.22874E+4   6.56788E+4
  -1.36090E+4   6.46389E+4
  -1.42860E+4   6.34411E+4
  -1.53623E+4   6.27326E+4
  -1.63970E+4   6.16260E+4
  -1.71950E+4   6.07179E+4
  -1.82849E+4   5.98313E+4
  -1.89608E+4   5.88924E+4
  -1.98564E+4   5.79019E+4
  -2.06790E+4   5.67988E+4
  -2.16337E+4   5.56098E+4
  -2.24310E+4   5.45487E+4
  -2.31554E+4   5.37036E+4
  -2.40707E+4   5.28673E+4
  -2.47893E+4   5.18086E+4
  -2.55246E+4   5.07481E+4
  -2.61099E+4   4.96842E+4
  -2.65671E+4   4.86537E+4
  -2.71008E+4   4.76593E+4
  -2.78053E+4   4.65674E+4
  -2.82852E+4   4.54959E+4
  -2.86233E+4   4.44770E+4
  -2.91411E+4   4.35436E+4
  -2.96745E+4   4.27748E+4
  -3.02843E+4   4.15954E+4
  -3.04129E+4   4.04296E+4
  -3.07121E+4   3.93989E+4
  -3.10366E+4   3.84744E+4
  -3.15830E+4   3.76179E+4
  -3.18281E+4   3.67022E+4
