 LCModel (Version 6.3-1N) Copyright: S.W. Provencher.          Ref.: Magn. Reson. Med. 30:672-679 (1993).                
 Slice_N1@12_16  28-Feb-2025 11:39:47
 27 lines in following concentration table = NCONC+1
    Conc.  %SD /Cr+PCr  Metabolite                                         
 2.09E-04   6% 2.2E-04 Mac                                                 
    3.398  34%   3.557 Cr                                                  
    4.244  26%   4.443 PCr                                                 
    6.498  15%   6.803 Ins                                                 
   10.023   8%  10.493 NAA                                                 
    6.120  14%   6.407 Tau                                                 
    1.927  55%   2.018 PCho                                                
    0.293 352%   0.306 GPC                                                 
    9.796  11%  10.255 Glu                                                 
    4.125  21%   4.318 Gln                                                 
    0.000 999%   0.000 Ala                                                 
    4.500  29%   4.711 Asc                                                 
    1.827  53%   1.913 Asp                                                 
    1.220  43%   1.278 GABA                                                
    0.722  94%   0.756 Glc                                                 
    2.051  26%   2.147 GSH                                                 
    2.696  26%   2.822 Lac                                                 
    2.113  27%   2.212 NAAG                                                
    0.000 999%   0.000 PE                                                  
    2.220  11%   2.324 GPC+PCho                                            
   12.135   7%  12.705 NAA+NAAG                                            
   13.920  10%  14.573 Glu+Gln                                             
    7.642  10%   8.000 Cr+PCr                                              
   12.135   7%  12.705 NAA+NAAG                                            
    7.642  10%   8.000 Cr+PCr                                              
   13.920  10%  14.573 Glu+Gln                                             
   6 lines in following misc. output table
  FWHM = 0.016 ppm    S/N =   4                                            
  Data shift = 0.024 ppm                                                   
  Ph:-154 deg       0.0 deg/ppm                                            
  alphaB,S = 1.9E-01,   3.5E-01                                            
   19 spline knots.   Ns = 5(1)                                            
   3 inflections.     2 extrema                                            
  480 points on ppm-axis = NY
      4.100000     4.091866     4.083733     4.075600     4.067466     4.059333     4.051199     4.043066     4.034933     4.026799
      4.018666     4.010532     4.002399     3.994265     3.986132     3.977998     3.969864     3.961731     3.953597     3.945463
      3.937330     3.929196     3.921062     3.912929     3.904795     3.896662     3.888528     3.880394     3.872261     3.864127
      3.855993     3.847860     3.839726     3.831592     3.823459     3.815325     3.807191     3.799058     3.790924     3.782790
      3.774657     3.766523     3.758389     3.750256     3.742122     3.733989     3.725855     3.717721     3.709588     3.701454
      3.693320     3.685187     3.677053     3.668919     3.660786     3.652652     3.644518     3.636385     3.628251     3.620117
      3.611984     3.603850     3.595716     3.587583     3.579449     3.571316     3.563182     3.555048     3.546915     3.538781
      3.530647     3.522514     3.514380     3.506246     3.498113     3.489979     3.481845     3.473712     3.465578     3.457444
      3.449311     3.441177     3.433043     3.424910     3.416776     3.408643     3.400509     3.392375     3.384242     3.376108
      3.367974     3.359841     3.351707     3.343573     3.335440     3.327306     3.319172     3.311039     3.302905     3.294771
      3.286638     3.278504     3.270370     3.262237     3.254103     3.245970     3.237836     3.229702     3.221569     3.213435
      3.205301     3.197168     3.189034     3.180900     3.172767     3.164633     3.156499     3.148366     3.140232     3.132098
      3.123965     3.115831     3.107697     3.099564     3.091430     3.083297     3.075163     3.067029     3.058896     3.050762
      3.042628     3.034495     3.026361     3.018227     3.010094     3.001960     2.993826     2.985693     2.977559     2.969425
      2.961292     2.953158     2.945024     2.936891     2.928757     2.920624     2.912490     2.904356     2.896223     2.888089
      2.879955     2.871822     2.863688     2.855554     2.847421     2.839287     2.831153     2.823020     2.814886     2.806752
      2.798619     2.790485     2.782351     2.774218     2.766084     2.757951     2.749817     2.741683     2.733550     2.725416
      2.717282     2.709149     2.701015     2.692881     2.684748     2.676614     2.668480     2.660347     2.652213     2.644079
      2.635946     2.627812     2.619678     2.611545     2.603411     2.595278     2.587144     2.579010     2.570877     2.562743
      2.554609     2.546476     2.538342     2.530208     2.522075     2.513941     2.505807     2.497674     2.489540     2.481406
      2.473273     2.465139     2.457006     2.448872     2.440738     2.432605     2.424471     2.416337     2.408204     2.400070
      2.391936     2.383803     2.375669     2.367535     2.359402     2.351268     2.343134     2.335001     2.326867     2.318733
      2.310600     2.302466     2.294333     2.286199     2.278065     2.269932     2.261798     2.253664     2.245531     2.237397
      2.229263     2.221130     2.212996     2.204862     2.196729     2.188595     2.180461     2.172328     2.164194     2.156060
      2.147927     2.139793     2.131660     2.123526     2.115392     2.107259     2.099125     2.090991     2.082858     2.074724
      2.066590     2.058457     2.050323     2.042189     2.034056     2.025922     2.017788     2.009655     2.001521     1.993387
      1.985254     1.977120     1.968987     1.960853     1.952719     1.944586     1.936452     1.928318     1.920185     1.912051
      1.903917     1.895784     1.887650     1.879516     1.871383     1.863249     1.855115     1.846982     1.838848     1.830714
      1.822581     1.814447     1.806314     1.798180     1.790046     1.781913     1.773779     1.765645     1.757512     1.749378
      1.741244     1.733111     1.724977     1.716843     1.708710     1.700576     1.692442     1.684309     1.676175     1.668041
      1.659908     1.651774     1.643641     1.635507     1.627373     1.619240     1.611106     1.602972     1.594839     1.586705
      1.578571     1.570438     1.562304     1.554170     1.546037     1.537903     1.529769     1.521636     1.513502     1.505368
      1.497235     1.489101     1.480968     1.472834     1.464700     1.456567     1.448433     1.440299     1.432166     1.424032
      1.415898     1.407765     1.399631     1.391497     1.383364     1.375230     1.367096     1.358963     1.350829     1.342695
      1.334562     1.326428     1.318295     1.310161     1.302027     1.293894     1.285760     1.277626     1.269493     1.261359
      1.253225     1.245092     1.236958     1.228824     1.220691     1.212557     1.204423     1.196290     1.188156     1.180022
      1.171889     1.163755     1.155622     1.147488     1.139354     1.131221     1.123087     1.114953     1.106820     1.098686
      1.090552     1.082419     1.074285     1.066151     1.058018     1.049884     1.041750     1.033617     1.025483     1.017349
      1.009216     1.001082     0.992949     0.984815     0.976681     0.968548     0.960414     0.952280     0.944147     0.936013
      0.927879     0.919746     0.911612     0.903478     0.895345     0.887211     0.879077     0.870944     0.862810     0.854676
      0.846543     0.838409     0.830276     0.822142     0.814008     0.805875     0.797741     0.789607     0.781474     0.773340
      0.765206     0.757073     0.748939     0.740805     0.732672     0.724538     0.716404     0.708271     0.700137     0.692003
      0.683870     0.675736     0.667603     0.659469     0.651335     0.643202     0.635068     0.626934     0.618801     0.610667
      0.602533     0.594400     0.586266     0.578132     0.569999     0.561865     0.553731     0.545598     0.537464     0.529330
      0.521197     0.513063     0.504930     0.496796     0.488662     0.480529     0.472395     0.464261     0.456128     0.447994
      0.439861     0.431727     0.423593     0.415460     0.407326     0.399192     0.391059     0.382925     0.374792     0.366658
      0.358524     0.350391     0.342257     0.334124     0.325990     0.317856     0.309723     0.301589     0.293455     0.285322
      0.277188     0.269055     0.260921     0.252787     0.244654     0.236520     0.228386     0.220253     0.212119     0.203986
 NY phased data points follow
  -1.92522E+00 -5.25472E+00 -7.42621E+00 -2.07691E+00 -1.38657E+01 -7.82709E+00 -1.13048E+01 -5.65864E+00  8.13611E+00  5.05746E-01
  -1.15511E+01 -1.90703E+01 -1.31954E+01 -3.13608E+01 -2.38118E+01 -3.84137E+01 -4.14083E+01 -2.86459E+01 -6.60848E+01 -7.36141E+01
  -9.16467E+01 -8.35368E+01 -5.43760E+01 -3.95100E+01 -2.46021E+01 -8.22436E+00  6.73167E-01 -1.61009E+01 -5.55910E+00 -2.00594E+00
  -1.50493E+01 -1.77347E+01 -9.34162E+00 -1.59335E+01 -3.11848E+01 -3.86852E+01 -4.72201E+01 -4.13338E+01 -5.11594E+01 -6.94594E+01
  -9.54411E+01 -1.08169E+02 -9.89066E+01 -9.69552E+01 -8.04723E+01 -4.91053E+01 -1.81937E+01  2.39670E+00  4.40047E+00 -1.79897E+00
  -1.05600E+01 -8.70918E+00  2.96133E+00 -4.68466E+00 -1.55018E+01 -3.89206E+01 -3.98241E+01 -2.44701E+01 -4.78246E+01 -5.08503E+01
  -3.46000E+01 -3.15542E+01 -3.03622E+01 -4.37494E-01  1.21778E+01  9.11623E+00  1.91277E+01  3.35264E+00 -1.22910E+01 -4.38382E+01
  -5.51750E+01 -3.35907E+01 -2.31488E+01 -6.99219E+00  3.69108E+00  2.28970E+01  3.84631E+01  3.14265E+01  4.59499E+01  3.50100E+01
   1.57449E+01  3.29183E+01  1.09798E+01  1.53461E+00 -1.52037E+01 -3.39817E+01 -1.62759E+01 -1.85947E+01  1.21719E+01  3.04685E+01
   1.70333E+01  2.17812E+01  4.84342E+01  5.23091E+01  3.58463E+01  5.43978E+01  5.54486E+01  6.61795E+01  7.06062E+01  3.91519E+01
   4.04859E+01  3.94020E+01  2.11919E+01  1.64149E+01 -5.44916E+00 -2.20088E+01 -2.26116E+01 -3.63852E+01 -3.85571E+01 -7.20106E+01
  -1.47597E+02 -1.77563E+02 -1.45489E+02 -1.05792E+02 -8.01515E+01 -5.73637E+01 -4.80713E+01 -3.22706E+01 -1.65556E+01 -3.56964E+01
  -3.37378E+01 -1.75870E+01 -1.45061E+01 -1.56108E+01 -1.74623E+01  2.61861E+01  3.10527E+01  3.19373E+01  6.28512E+01  6.30314E+01
   1.16612E+02  1.28811E+02  4.55120E+01 -5.16911E+01 -1.12451E+02 -1.15462E+02 -1.11814E+02 -1.06386E+02 -8.26665E+01 -7.73292E+01
  -7.67497E+01 -6.77229E+01 -9.03567E+01 -7.67930E+01 -7.36782E+01 -7.63675E+01 -6.48609E+01 -8.42430E+01 -6.51153E+01 -6.10327E+01
  -5.23595E+01 -5.18470E+01 -5.93332E+01 -5.34125E+01 -5.32794E+01 -3.43206E+01 -4.49595E+01 -3.77430E+01 -3.73309E+01 -4.39357E+01
  -3.66408E+01 -3.88605E+01 -2.55597E+01 -3.19481E+01 -4.04462E+01 -3.17786E+01 -3.33904E+01 -4.35376E+01 -4.08978E+01 -3.69231E+01
  -2.80865E+01 -1.70937E+01  2.21727E+00  2.00310E+01 -2.58951E+00 -2.07163E+01 -3.15307E+00  5.52200E+00 -7.55457E+00 -1.93536E+01
  -3.24188E+01 -2.48610E+01 -3.32772E+01 -4.53994E+01 -4.75936E+01 -6.03074E+01 -5.65774E+01 -5.88293E+01 -4.54799E+01 -3.70737E+01
  -2.72450E+01 -3.08598E+01 -3.55884E+01 -2.01558E+01 -2.84762E+01 -1.59075E+01 -2.37309E+01 -3.06747E+01 -7.48421E+00 -5.46674E+00
  -1.45178E+01 -6.86099E+00  1.04599E+01  1.20185E+01 -8.22836E+00 -1.90096E+01 -1.30207E+01 -3.96142E+01 -5.17034E+01 -5.68708E+01
  -5.07830E+01 -4.53067E+01 -4.88141E+01 -1.76292E+01 -3.14014E+01 -1.73659E+01  3.40671E+01  3.53897E+01  2.62944E+01  2.27746E+01
   7.73667E+00 -1.28248E+01 -1.94870E+01 -1.32648E+01 -6.70343E+00 -3.26753E+00  1.66273E+00 -1.04627E+01 -1.93340E+00  1.35823E+00
  -1.46298E+01 -9.88751E+00 -1.58253E+01 -2.14459E+01 -3.62183E+01 -5.22931E+01 -5.49845E+01 -6.34910E+01 -7.36449E+01 -7.27174E+01
  -6.74003E+01 -5.45820E+01 -5.40387E+01 -4.82391E+01 -2.10306E+01 -1.87664E+01 -6.83488E+00 -1.45114E+01 -3.04011E+01 -4.38438E+01
  -5.82918E+01 -5.29926E+01 -5.81326E+01 -4.43944E+01 -5.15669E+01 -7.02595E+01 -1.07802E+02 -6.92300E+01  8.01705E+01  1.48538E+02
   1.65067E+02  1.67391E+02  1.47457E+02  1.23011E+02  1.05934E+02  9.09076E+01  7.11759E+01  7.87165E+01  6.34880E+01  4.60572E+01
   5.96725E+01  5.42256E+01  5.07353E+01  6.08139E+01  6.08830E+01  6.50357E+01  6.26070E+01  7.17185E+01  6.99304E+01  5.59238E+01
   6.15746E+01  5.71533E+01  6.73519E+01  5.47134E+01  5.07285E+01  5.81673E+01  3.80061E+01  4.80893E+01  4.46222E+01  3.84991E+01
   3.63862E+01  3.41995E+01  3.77212E+01  2.17741E+01  1.62402E+01  1.39072E+01  4.68855E+00  2.17226E+00  1.07210E+01  1.53716E+01
   1.16719E+01  1.07803E+01  2.30513E+01  1.78622E+01  1.47407E+01  3.07592E+01  3.44971E+01  4.98563E+01  3.75277E+01  4.89507E+01
   6.28664E+01  3.31557E+01  3.76818E+01  3.26573E+01  2.94431E+01  2.12694E+01  2.27427E+01  3.92112E+01  3.50910E+01  3.83475E+01
   4.20961E+01  5.91828E+01  5.67996E+01  6.26741E+01  6.82949E+01  6.10358E+01  7.93116E+01  7.28111E+01  6.26087E+01  7.05794E+01
   7.33386E+01  6.07003E+01  5.87112E+01  4.95986E+01  4.72983E+01  5.52245E+01  2.75061E+01  3.78338E+01  5.98557E+01  4.63675E+01
   3.90692E+01  3.70879E+01  1.92296E+01  1.24551E+01  1.52029E+01  1.30572E+01  3.42675E+01  3.83207E+01  4.45983E+01  6.19994E+01
   6.49452E+01  6.32587E+01  5.79066E+01  5.31034E+01  4.39774E+01  4.46992E+01  3.18150E+01  2.33700E+01  1.60363E+01 -4.30354E-01
   6.06757E-01 -1.17892E+01 -2.62686E+01 -3.30895E+01 -1.68681E+01 -9.70438E-01 -1.28177E+01 -1.95994E-01  1.50328E+01  1.73658E+01
   2.73467E+01  2.88957E+01  3.01723E+01  3.57950E+01  3.76977E+01  3.87151E+01  4.44749E+01  5.10552E+01  4.48377E+01  4.69423E+01
   6.46784E+01  6.79530E+01  7.32295E+01  7.74555E+01  7.29326E+01  9.43113E+01  9.29635E+01  1.01678E+02  1.34598E+02  1.01134E+02
   8.80370E+01  1.10413E+02  1.02374E+02  7.63738E+01  6.07576E+01  5.95321E+01  3.89599E+01  3.50910E+01  3.86670E+01  3.75153E+01
   2.19135E+01 -8.06231E-01  4.73130E+00 -9.35604E+00 -2.53752E+01 -3.00370E+01 -3.68224E+01 -3.69369E+01 -3.28320E+01 -3.69676E+01
  -3.92497E+01 -1.96273E+01 -2.80263E+01 -3.32378E+01 -2.09766E+01 -2.86283E+01 -2.09780E+01 -1.91173E+01 -2.48234E+01 -1.87912E+01
  -2.40218E+01 -2.11359E+01 -2.09107E+01 -3.31290E+01 -2.05719E+01 -1.72545E+01 -3.05580E+01 -2.77816E+01 -2.40710E+01 -2.23789E+01
  -2.79565E+01 -2.94233E+01 -1.81259E+01 -1.84898E+01 -3.68940E+01 -2.95844E+01 -2.09102E+01 -3.78907E+01 -2.58952E+01 -3.10417E+01
  -3.18919E+01 -9.80728E+00 -1.26599E+01 -2.06246E+01 -1.93304E+01 -1.08353E+01 -2.72420E+01 -1.71511E+01 -1.17075E+01 -1.21619E+01
   1.19532E+00 -2.31854E+01 -2.64142E+01 -2.36589E+01 -1.05867E+01 -1.86814E+01 -2.91833E+01 -9.08794E+00 -3.88726E+00 -1.16600E+01
  -2.30139E+01 -2.55498E+00 -1.53719E+01 -1.82295E+01 -1.08344E+01 -1.80672E+01 -6.94219E+00 -1.05620E+01 -4.90524E+00 -1.32405E+01
  -1.03710E+01 -1.44103E+01 -1.74417E+01 -1.76599E+01 -2.08062E+01 -8.23352E+00 -1.89261E+01 -1.79718E+01 -1.99377E+01 -1.46391E+01
 NY points of the fit to the data follow
  -2.87300E+01 -3.08185E+01 -3.82666E+01 -4.41810E+01 -4.68332E+01 -3.18367E+01 -1.50977E+01 -9.45276E+00 -1.67011E+01 -2.60790E+01
  -3.47272E+01 -4.05080E+01 -3.79326E+01 -3.35378E+01 -3.05778E+01 -3.35724E+01 -3.58624E+01 -4.71947E+01 -5.93983E+01 -7.17843E+01
  -9.06881E+01 -8.11337E+01 -5.67107E+01 -3.64303E+01 -1.22417E+01  1.49603E+01  1.69087E+01  1.04896E+01  1.39781E+01  8.05439E+00
   7.66282E+00  6.04574E+00  3.75768E+00  9.01580E-01 -3.62471E+00 -9.83166E+00 -1.41680E+01 -2.11116E+01 -3.54452E+01 -5.64813E+01
  -8.56033E+01 -1.00621E+02 -9.40822E+01 -7.69565E+01 -6.17443E+01 -3.69002E+01 -1.17039E+01  1.78540E+00  1.27835E+01  1.78186E+01
   1.83979E+01  1.33571E+01  1.11102E+01  1.67939E+00 -1.08264E+01 -2.46044E+01 -3.48117E+01 -3.54981E+01 -4.02311E+01 -4.19674E+01
  -2.87353E+01 -1.99464E+01 -1.80960E+01 -4.25044E+00  1.25092E+01  1.64800E+01  1.77061E+01  1.00117E+01 -1.36653E+01 -4.06567E+01
  -4.56611E+01 -3.61279E+01 -3.11047E+01 -2.16020E+01 -4.12539E-01  1.23104E+01  1.73974E+01  2.35282E+01  2.37860E+01  2.39859E+01
   2.14154E+01  1.14125E+01 -9.75642E-01 -2.13130E+01 -3.64122E+01 -4.21950E+01 -3.46116E+01 -2.23527E+01 -3.63646E+00  8.55647E+00
   1.51131E+01  2.14240E+01  2.42699E+01  2.75304E+01  3.12706E+01  3.61628E+01  3.96282E+01  4.22535E+01  4.25033E+01  3.95933E+01
   3.98132E+01  4.32437E+01  3.65200E+01  2.34569E+01  9.11484E+00 -1.27879E+01 -1.71762E+01 -1.37140E+01 -1.06696E+01 -7.04771E+01
  -1.42309E+02 -1.65864E+02 -1.34698E+02 -1.10170E+02 -8.21723E+01 -5.33416E+01 -4.84609E+01 -4.31750E+01 -3.75832E+01 -3.17957E+01
  -2.62520E+01 -2.01705E+01 -1.37804E+01 -6.52531E+00  1.88057E+00  1.28840E+01  2.64632E+01  3.16183E+01  4.83769E+01  7.21022E+01
   9.78206E+01  1.16811E+02  5.25854E+01 -5.10643E+01 -1.06349E+02 -1.02641E+02 -1.09064E+02 -8.82311E+01 -6.86489E+01 -6.71017E+01
  -6.68041E+01 -6.66687E+01 -6.88573E+01 -6.96188E+01 -7.04329E+01 -7.08851E+01 -7.00732E+01 -6.74898E+01 -6.42865E+01 -6.20645E+01
  -5.91429E+01 -5.72706E+01 -5.51639E+01 -5.38924E+01 -5.14273E+01 -4.85546E+01 -4.59447E+01 -4.48959E+01 -4.50253E+01 -4.45994E+01
  -4.26357E+01 -3.94828E+01 -3.84149E+01 -4.00544E+01 -4.18176E+01 -4.07968E+01 -3.80754E+01 -3.59657E+01 -3.72778E+01 -3.83056E+01
  -3.25642E+01 -1.91122E+01 -3.51201E+00 -3.90054E-01 -1.23046E+01 -1.89765E+01 -1.31313E+01 -3.49147E+00 -1.75777E+00 -1.37001E+01
  -2.94927E+01 -3.93113E+01 -4.48700E+01 -4.93280E+01 -4.77230E+01 -4.77108E+01 -4.71564E+01 -4.70010E+01 -4.53029E+01 -4.22107E+01
  -4.02349E+01 -3.59091E+01 -3.27573E+01 -2.96394E+01 -1.84543E+01 -1.06784E+01 -1.49735E+01 -1.48113E+01 -8.70051E+00 -8.12882E+00
  -1.05376E+01 -1.05470E+01 -6.32427E+00  5.48205E-01  5.71562E-01 -6.01413E+00 -1.16334E+01 -2.10355E+01 -3.07352E+01 -4.12560E+01
  -4.47718E+01 -4.97867E+01 -5.20326E+01 -3.89400E+01 -2.68587E+01 -9.22967E-01  2.85965E+01  4.19962E+01  4.55015E+01  4.23265E+01
   2.63365E+01  8.06096E+00  8.91761E+00  5.01544E+00  9.41393E+00  1.18026E+01  9.47512E+00  5.62505E+00 -3.55415E+00 -1.39823E+01
  -2.40036E+01 -3.52879E+01 -4.62250E+01 -5.38178E+01 -6.19656E+01 -6.95667E+01 -7.23837E+01 -7.39252E+01 -7.60439E+01 -6.81936E+01
  -6.35072E+01 -5.73092E+01 -4.52866E+01 -3.60394E+01 -2.75526E+01 -2.07746E+01 -1.89957E+01 -2.33149E+01 -2.63143E+01 -3.67025E+01
  -4.59889E+01 -6.20952E+01 -6.36345E+01 -6.05434E+01 -5.53278E+01 -7.51342E+01 -1.16608E+02 -7.20762E+01  5.67459E+01  1.37765E+02
   1.43260E+02  1.47483E+02  1.24548E+02  9.09940E+01  8.28976E+01  7.88928E+01  7.43800E+01  6.98797E+01  6.54849E+01  6.09379E+01
   5.93190E+01  5.79217E+01  5.93952E+01  6.08319E+01  6.34374E+01  6.45847E+01  6.60325E+01  6.59598E+01  6.54125E+01  6.52937E+01
   6.33942E+01  6.21332E+01  6.00061E+01  5.84322E+01  5.68782E+01  5.50931E+01  5.32842E+01  5.16618E+01  4.97033E+01  4.74998E+01
   4.50047E+01  4.21007E+01  3.92908E+01  3.63210E+01  3.35546E+01  3.18834E+01  3.17177E+01  3.25023E+01  3.44505E+01  3.66021E+01
   3.86580E+01  4.08145E+01  4.31152E+01  4.53406E+01  4.72825E+01  4.90801E+01  5.05828E+01  5.20049E+01  5.38619E+01  5.60662E+01
   5.79578E+01  5.95768E+01  6.08959E+01  6.20112E+01  6.31297E+01  6.41046E+01  6.42458E+01  6.43073E+01  6.38036E+01  6.23651E+01
   6.06254E+01  5.91378E+01  5.65163E+01  5.37708E+01  5.10051E+01  4.79931E+01  4.39330E+01  3.87166E+01  3.19997E+01  2.49644E+01
   1.89138E+01  1.38423E+01  1.03278E+01  9.15872E+00  1.03610E+01  1.40116E+01  1.81166E+01  2.59604E+01  3.18735E+01  3.84148E+01
   4.07135E+01  2.72874E+01  1.42650E+01  7.99573E-01 -5.41454E+00 -5.33382E+00  8.69076E+00  1.34404E+01  1.90159E+01  2.23374E+01
   2.17572E+01  2.06246E+01  1.87604E+01  1.60854E+01  1.25294E+01  8.86794E+00  6.72319E+00  5.67816E+00  5.88854E+00  7.22095E+00
   9.41094E+00  1.18217E+01  1.46800E+01  1.75135E+01  2.02933E+01  2.29362E+01  2.51886E+01  2.72324E+01  2.91750E+01  3.11080E+01
   3.33601E+01  3.54587E+01  3.75016E+01  3.98350E+01  4.22036E+01  4.50265E+01  4.87177E+01  5.22517E+01  5.62761E+01  6.11499E+01
   6.63006E+01  7.09837E+01  7.64626E+01  8.23797E+01  8.76227E+01  9.22454E+01  9.52809E+01  9.54429E+01  9.16846E+01  8.44273E+01
   7.47619E+01  6.49803E+01  5.68148E+01  5.00763E+01  4.50087E+01  4.07104E+01  3.63144E+01  3.00773E+01  2.32803E+01  1.60575E+01
   8.88405E+00  2.79261E+00 -1.51429E+00 -4.58120E+00 -7.14081E+00 -8.48624E+00 -9.51976E+00 -1.01253E+01 -1.09790E+01 -1.18012E+01
  -1.27720E+01 -1.35450E+01 -1.39764E+01 -1.41354E+01 -1.44020E+01 -1.45409E+01 -1.46652E+01 -1.46706E+01 -1.52315E+01 -1.56840E+01
  -1.55357E+01 -1.52950E+01 -1.55962E+01 -1.59260E+01 -1.58453E+01 -1.59909E+01 -1.62174E+01 -1.65426E+01 -1.66622E+01 -1.63808E+01
  -1.62925E+01 -1.63107E+01 -1.65770E+01 -1.68196E+01 -1.72318E+01 -1.73417E+01 -1.72503E+01 -1.72103E+01 -1.69826E+01 -1.69779E+01
  -1.68641E+01 -1.70981E+01 -1.69673E+01 -1.71480E+01 -1.74878E+01 -1.78661E+01 -1.80259E+01 -1.79794E+01 -1.79097E+01 -1.78388E+01
  -1.78091E+01 -1.79408E+01 -1.82491E+01 -1.82723E+01 -1.80669E+01 -1.80639E+01 -1.79679E+01 -1.78829E+01 -1.80114E+01 -1.80276E+01
  -1.80090E+01 -1.80839E+01 -1.81932E+01 -1.84978E+01 -1.86794E+01 -1.87621E+01 -1.87931E+01 -1.86249E+01 -1.82100E+01 -1.78818E+01
  -1.80437E+01 -1.82559E+01 -1.87863E+01 -1.90060E+01 -1.91270E+01 -1.90351E+01 -1.91887E+01 -1.90259E+01 -1.89290E+01 -1.92519E+01
 NY background values follow
    -9.037E+00   -9.251E+00   -9.466E+00   -9.681E+00   -9.897E+00   -1.011E+01   -1.033E+01   -1.054E+01   -1.076E+01   -1.097E+01
    -1.118E+01   -1.139E+01   -1.160E+01   -1.181E+01   -1.202E+01   -1.222E+01   -1.242E+01   -1.262E+01   -1.282E+01   -1.301E+01
    -1.320E+01   -1.339E+01   -1.357E+01   -1.375E+01   -1.392E+01   -1.409E+01   -1.426E+01   -1.442E+01   -1.457E+01   -1.472E+01
    -1.486E+01   -1.500E+01   -1.513E+01   -1.526E+01   -1.538E+01   -1.550E+01   -1.561E+01   -1.571E+01   -1.581E+01   -1.591E+01
    -1.600E+01   -1.608E+01   -1.616E+01   -1.623E+01   -1.630E+01   -1.636E+01   -1.642E+01   -1.647E+01   -1.652E+01   -1.656E+01
    -1.660E+01   -1.664E+01   -1.666E+01   -1.669E+01   -1.671E+01   -1.672E+01   -1.673E+01   -1.674E+01   -1.674E+01   -1.674E+01
    -1.673E+01   -1.672E+01   -1.670E+01   -1.668E+01   -1.666E+01   -1.663E+01   -1.660E+01   -1.657E+01   -1.653E+01   -1.649E+01
    -1.645E+01   -1.640E+01   -1.636E+01   -1.630E+01   -1.625E+01   -1.620E+01   -1.614E+01   -1.608E+01   -1.602E+01   -1.596E+01
    -1.589E+01   -1.583E+01   -1.576E+01   -1.570E+01   -1.563E+01   -1.556E+01   -1.549E+01   -1.542E+01   -1.535E+01   -1.528E+01
    -1.522E+01   -1.515E+01   -1.508E+01   -1.501E+01   -1.494E+01   -1.487E+01   -1.481E+01   -1.474E+01   -1.467E+01   -1.460E+01
    -1.453E+01   -1.446E+01   -1.439E+01   -1.432E+01   -1.425E+01   -1.418E+01   -1.411E+01   -1.404E+01   -1.396E+01   -1.389E+01
    -1.382E+01   -1.374E+01   -1.366E+01   -1.359E+01   -1.351E+01   -1.343E+01   -1.335E+01   -1.327E+01   -1.318E+01   -1.310E+01
    -1.301E+01   -1.292E+01   -1.284E+01   -1.275E+01   -1.265E+01   -1.256E+01   -1.247E+01   -1.237E+01   -1.227E+01   -1.218E+01
    -1.208E+01   -1.198E+01   -1.187E+01   -1.177E+01   -1.167E+01   -1.156E+01   -1.146E+01   -1.135E+01   -1.124E+01   -1.113E+01
    -1.102E+01   -1.091E+01   -1.080E+01   -1.069E+01   -1.057E+01   -1.046E+01   -1.034E+01   -1.023E+01   -1.011E+01   -9.993E+00
    -9.875E+00   -9.756E+00   -9.636E+00   -9.516E+00   -9.395E+00   -9.274E+00   -9.152E+00   -9.029E+00   -8.906E+00   -8.783E+00
    -8.659E+00   -8.535E+00   -8.410E+00   -8.285E+00   -8.160E+00   -8.034E+00   -7.908E+00   -7.782E+00   -7.656E+00   -7.529E+00
    -7.403E+00   -7.276E+00   -7.149E+00   -7.022E+00   -6.895E+00   -6.767E+00   -6.640E+00   -6.513E+00   -6.386E+00   -6.259E+00
    -6.132E+00   -6.005E+00   -5.879E+00   -5.752E+00   -5.625E+00   -5.499E+00   -5.372E+00   -5.245E+00   -5.118E+00   -4.990E+00
    -4.863E+00   -4.735E+00   -4.607E+00   -4.479E+00   -4.350E+00   -4.221E+00   -4.091E+00   -3.961E+00   -3.831E+00   -3.699E+00
    -3.568E+00   -3.435E+00   -3.302E+00   -3.169E+00   -3.034E+00   -2.899E+00   -2.763E+00   -2.626E+00   -2.488E+00   -2.349E+00
    -2.210E+00   -2.069E+00   -1.928E+00   -1.786E+00   -1.643E+00   -1.499E+00   -1.355E+00   -1.211E+00   -1.066E+00   -9.212E-01
    -7.761E-01   -6.310E-01   -4.860E-01   -3.410E-01   -1.963E-01   -5.185E-02    9.219E-02    2.357E-01    3.787E-01    5.211E-01
     6.626E-01    8.034E-01    9.432E-01    1.082E+00    1.220E+00    1.356E+00    1.491E+00    1.625E+00    1.758E+00    1.889E+00
     2.018E+00    2.145E+00    2.271E+00    2.396E+00    2.518E+00    2.639E+00    2.759E+00    2.876E+00    2.993E+00    3.107E+00
     3.220E+00    3.332E+00    3.442E+00    3.550E+00    3.657E+00    3.763E+00    3.867E+00    3.969E+00    4.071E+00    4.170E+00
     4.268E+00    4.365E+00    4.461E+00    4.555E+00    4.647E+00    4.739E+00    4.829E+00    4.917E+00    5.004E+00    5.090E+00
     5.175E+00    5.258E+00    5.341E+00    5.422E+00    5.503E+00    5.582E+00    5.662E+00    5.740E+00    5.819E+00    5.897E+00
     5.975E+00    6.053E+00    6.132E+00    6.211E+00    6.290E+00    6.369E+00    6.450E+00    6.531E+00    6.613E+00    6.696E+00
     6.780E+00    6.866E+00    6.953E+00    7.042E+00    7.132E+00    7.225E+00    7.319E+00    7.415E+00    7.514E+00    7.614E+00
     7.718E+00    7.823E+00    7.931E+00    8.040E+00    8.151E+00    8.263E+00    8.375E+00    8.488E+00    8.601E+00    8.714E+00
     8.826E+00    8.938E+00    9.048E+00    9.157E+00    9.265E+00    9.370E+00    9.473E+00    9.573E+00    9.670E+00    9.764E+00
     9.855E+00    9.941E+00    1.002E+01    1.010E+01    1.017E+01    1.024E+01    1.030E+01    1.036E+01    1.041E+01    1.045E+01
     1.049E+01    1.052E+01    1.054E+01    1.056E+01    1.057E+01    1.057E+01    1.057E+01    1.056E+01    1.055E+01    1.052E+01
     1.049E+01    1.046E+01    1.042E+01    1.037E+01    1.031E+01    1.025E+01    1.018E+01    1.011E+01    1.003E+01    9.944E+00
     9.852E+00    9.754E+00    9.650E+00    9.540E+00    9.424E+00    9.302E+00    9.174E+00    9.041E+00    8.901E+00    8.756E+00
     8.605E+00    8.448E+00    8.286E+00    8.119E+00    7.946E+00    7.768E+00    7.586E+00    7.398E+00    7.206E+00    7.009E+00
     6.808E+00    6.603E+00    6.394E+00    6.180E+00    5.963E+00    5.742E+00    5.517E+00    5.289E+00    5.058E+00    4.823E+00
     4.585E+00    4.345E+00    4.101E+00    3.856E+00    3.607E+00    3.356E+00    3.103E+00    2.848E+00    2.591E+00    2.332E+00
     2.071E+00    1.809E+00    1.545E+00    1.280E+00    1.014E+00    7.474E-01    4.796E-01    2.112E-01   -5.774E-02   -3.270E-01
    -5.966E-01   -8.662E-01   -1.136E+00   -1.405E+00   -1.674E+00   -1.942E+00   -2.210E+00   -2.477E+00   -2.743E+00   -3.008E+00
    -3.272E+00   -3.534E+00   -3.795E+00   -4.054E+00   -4.311E+00   -4.567E+00   -4.820E+00   -5.070E+00   -5.319E+00   -5.565E+00
    -5.808E+00   -6.048E+00   -6.286E+00   -6.521E+00   -6.754E+00   -6.984E+00   -7.212E+00   -7.437E+00   -7.660E+00   -7.880E+00
    -8.098E+00   -8.314E+00   -8.528E+00   -8.739E+00   -8.949E+00   -9.156E+00   -9.361E+00   -9.564E+00   -9.765E+00   -9.964E+00
    -1.016E+01   -1.036E+01   -1.055E+01   -1.074E+01   -1.093E+01   -1.112E+01   -1.131E+01   -1.149E+01   -1.168E+01   -1.186E+01
    -1.204E+01   -1.222E+01   -1.240E+01   -1.258E+01   -1.275E+01   -1.293E+01   -1.310E+01   -1.327E+01   -1.344E+01   -1.362E+01
    -1.379E+01   -1.395E+01   -1.412E+01   -1.429E+01   -1.446E+01   -1.463E+01   -1.479E+01   -1.496E+01   -1.512E+01   -1.529E+01
    -1.545E+01   -1.562E+01   -1.578E+01   -1.595E+01   -1.611E+01   -1.628E+01   -1.644E+01   -1.661E+01   -1.677E+01   -1.694E+01
 Mac      Conc. = 2.09E-04
  -2.37640E+01 -2.43823E+01 -2.49478E+01 -2.52076E+01 -2.56550E+01 -2.62797E+01 -2.74593E+01 -2.90180E+01 -3.07796E+01 -3.23881E+01
  -3.36258E+01 -3.41076E+01 -3.43465E+01 -3.40680E+01 -3.44982E+01 -3.58218E+01 -3.79375E+01 -3.89340E+01 -3.71878E+01 -3.31535E+01
  -2.97269E+01 -2.68574E+01 -2.37703E+01 -2.21487E+01 -2.19363E+01 -2.16080E+01 -2.09527E+01 -2.03266E+01 -1.89956E+01 -1.76682E+01
  -1.62635E+01 -1.56065E+01 -1.49812E+01 -1.45634E+01 -1.47792E+01 -1.54923E+01 -1.60847E+01 -1.54308E+01 -1.36858E+01 -1.13830E+01
  -1.02319E+01 -1.05563E+01 -1.10485E+01 -1.10845E+01 -1.03464E+01 -9.25201E+00 -8.43910E+00 -8.45880E+00 -9.17518E+00 -1.00337E+01
  -1.15793E+01 -1.27935E+01 -1.35783E+01 -1.39620E+01 -1.45192E+01 -1.47043E+01 -1.45830E+01 -1.41347E+01 -1.27851E+01 -1.16470E+01
  -1.08742E+01 -9.62926E+00 -8.58207E+00 -8.65804E+00 -9.14485E+00 -9.99176E+00 -1.08321E+01 -1.13990E+01 -1.14186E+01 -1.19217E+01
  -1.15644E+01 -1.02446E+01 -7.76490E+00 -5.90034E+00 -4.58996E+00 -3.77897E+00 -3.84268E+00 -4.44631E+00 -5.21603E+00 -5.81955E+00
  -6.46604E+00 -6.61366E+00 -6.98129E+00 -6.83922E+00 -6.14650E+00 -5.38869E+00 -4.47213E+00 -3.80139E+00 -2.96134E+00 -2.67095E+00
  -2.19412E+00 -2.03372E+00 -1.58156E+00 -1.77842E+00 -1.72428E+00 -2.41014E+00 -3.81658E+00 -5.74641E+00 -7.75398E+00 -9.87695E+00
  -1.12926E+01 -1.23330E+01 -1.40649E+01 -1.60303E+01 -1.84104E+01 -2.18863E+01 -2.65852E+01 -3.21075E+01 -3.65709E+01 -3.88018E+01
