 LCModel (Version 6.3-1N) Copyright: S.W. Provencher.          Ref.: Magn. Reson. Med. 30:672-679 (1993).                
 Slice_N1@15_15  28-Feb-2025 11:40:11
 27 lines in following concentration table = NCONC+1
    Conc.  %SD /Cr+PCr  Metabolite                                         
 2.65E-04   5% 2.0E-04 Mac                                                 
    2.718  64%   2.085 Cr                                                  
    7.710  22%   5.915 PCr                                                 
   10.277  11%   7.884 Ins                                                 
   12.025   8%   9.225 NAA                                                 
    6.472  16%   4.965 Tau                                                 
    0.000 999%   0.000 PCho                                                
    2.590  10%   1.987 GPC                                                 
    7.872  15%   6.039 Glu                                                 
    3.387  27%   2.598 Gln                                                 
    7.983  11%   6.124 Ala                                                 
    3.569  39%   2.738 Asc                                                 
    2.948  45%   2.261 Asp                                                 
    1.228  55%   0.942 GABA                                                
    1.376  69%   1.055 Glc                                                 
    1.578  34%   1.210 GSH                                                 
    0.000 999%   0.000 Lac                                                 
    2.834  26%   2.174 NAAG                                                
    0.000 999%   0.000 PE                                                  
    2.590  10%   1.987 GPC+PCho                                            
   14.859   6%  11.400 NAA+NAAG                                            
   11.259  13%   8.638 Glu+Gln                                             
   10.428   8%   8.000 Cr+PCr                                              
   14.859   6%  11.400 NAA+NAAG                                            
   10.428   8%   8.000 Cr+PCr                                              
   11.259  13%   8.638 Glu+Gln                                             
   6 lines in following misc. output table
  FWHM = 0.024 ppm    S/N =   3                                            
  Data shift = 0.024 ppm                                                   
  Ph:-135 deg       0.0 deg/ppm                                            
  alphaB,S = 1.1E-01,   2.1E+01                                            
   19 spline knots.   Ns = 5(1)                                            
  ( 4) 2 infls.   ( 3) 1 extrs.                                            
  480 points on ppm-axis = NY
      4.100000     4.091866     4.083733     4.075600     4.067466     4.059333     4.051199     4.043066     4.034933     4.026799
      4.018666     4.010532     4.002399     3.994265     3.986132     3.977998     3.969864     3.961731     3.953597     3.945463
      3.937330     3.929196     3.921062     3.912929     3.904795     3.896662     3.888528     3.880394     3.872261     3.864127
      3.855993     3.847860     3.839726     3.831592     3.823459     3.815325     3.807191     3.799058     3.790924     3.782790
      3.774657     3.766523     3.758389     3.750256     3.742122     3.733989     3.725855     3.717721     3.709588     3.701454
      3.693320     3.685187     3.677053     3.668919     3.660786     3.652652     3.644518     3.636385     3.628251     3.620117
      3.611984     3.603850     3.595716     3.587583     3.579449     3.571316     3.563182     3.555048     3.546915     3.538781
      3.530647     3.522514     3.514380     3.506246     3.498113     3.489979     3.481845     3.473712     3.465578     3.457444
      3.449311     3.441177     3.433043     3.424910     3.416776     3.408643     3.400509     3.392375     3.384242     3.376108
      3.367974     3.359841     3.351707     3.343573     3.335440     3.327306     3.319172     3.311039     3.302905     3.294771
      3.286638     3.278504     3.270370     3.262237     3.254103     3.245970     3.237836     3.229702     3.221569     3.213435
      3.205301     3.197168     3.189034     3.180900     3.172767     3.164633     3.156499     3.148366     3.140232     3.132098
      3.123965     3.115831     3.107697     3.099564     3.091430     3.083297     3.075163     3.067029     3.058896     3.050762
      3.042628     3.034495     3.026361     3.018227     3.010094     3.001960     2.993826     2.985693     2.977559     2.969425
      2.961292     2.953158     2.945024     2.936891     2.928757     2.920624     2.912490     2.904356     2.896223     2.888089
      2.879955     2.871822     2.863688     2.855554     2.847421     2.839287     2.831153     2.823020     2.814886     2.806752
      2.798619     2.790485     2.782351     2.774218     2.766084     2.757951     2.749817     2.741683     2.733550     2.725416
      2.717282     2.709149     2.701015     2.692881     2.684748     2.676614     2.668480     2.660347     2.652213     2.644079
      2.635946     2.627812     2.619678     2.611545     2.603411     2.595278     2.587144     2.579010     2.570877     2.562743
      2.554609     2.546476     2.538342     2.530208     2.522075     2.513941     2.505807     2.497674     2.489540     2.481406
      2.473273     2.465139     2.457006     2.448872     2.440738     2.432605     2.424471     2.416337     2.408204     2.400070
      2.391936     2.383803     2.375669     2.367535     2.359402     2.351268     2.343134     2.335001     2.326867     2.318733
      2.310600     2.302466     2.294333     2.286199     2.278065     2.269932     2.261798     2.253664     2.245531     2.237397
      2.229263     2.221130     2.212996     2.204862     2.196729     2.188595     2.180461     2.172328     2.164194     2.156060
      2.147927     2.139793     2.131660     2.123526     2.115392     2.107259     2.099125     2.090991     2.082858     2.074724
      2.066590     2.058457     2.050323     2.042189     2.034056     2.025922     2.017788     2.009655     2.001521     1.993387
      1.985254     1.977120     1.968987     1.960853     1.952719     1.944586     1.936452     1.928318     1.920185     1.912051
      1.903917     1.895784     1.887650     1.879516     1.871383     1.863249     1.855115     1.846982     1.838848     1.830714
      1.822581     1.814447     1.806314     1.798180     1.790046     1.781913     1.773779     1.765645     1.757512     1.749378
      1.741244     1.733111     1.724977     1.716843     1.708710     1.700576     1.692442     1.684309     1.676175     1.668041
      1.659908     1.651774     1.643641     1.635507     1.627373     1.619240     1.611106     1.602972     1.594839     1.586705
      1.578571     1.570438     1.562304     1.554170     1.546037     1.537903     1.529769     1.521636     1.513502     1.505368
      1.497235     1.489101     1.480968     1.472834     1.464700     1.456567     1.448433     1.440299     1.432166     1.424032
      1.415898     1.407765     1.399631     1.391497     1.383364     1.375230     1.367096     1.358963     1.350829     1.342695
      1.334562     1.326428     1.318295     1.310161     1.302027     1.293894     1.285760     1.277626     1.269493     1.261359
      1.253225     1.245092     1.236958     1.228824     1.220691     1.212557     1.204423     1.196290     1.188156     1.180022
      1.171889     1.163755     1.155622     1.147488     1.139354     1.131221     1.123087     1.114953     1.106820     1.098686
      1.090552     1.082419     1.074285     1.066151     1.058018     1.049884     1.041750     1.033617     1.025483     1.017349
      1.009216     1.001082     0.992949     0.984815     0.976681     0.968548     0.960414     0.952280     0.944147     0.936013
      0.927879     0.919746     0.911612     0.903478     0.895345     0.887211     0.879077     0.870944     0.862810     0.854676
      0.846543     0.838409     0.830276     0.822142     0.814008     0.805875     0.797741     0.789607     0.781474     0.773340
      0.765206     0.757073     0.748939     0.740805     0.732672     0.724538     0.716404     0.708271     0.700137     0.692003
      0.683870     0.675736     0.667603     0.659469     0.651335     0.643202     0.635068     0.626934     0.618801     0.610667
      0.602533     0.594400     0.586266     0.578132     0.569999     0.561865     0.553731     0.545598     0.537464     0.529330
      0.521197     0.513063     0.504930     0.496796     0.488662     0.480529     0.472395     0.464261     0.456128     0.447994
      0.439861     0.431727     0.423593     0.415460     0.407326     0.399192     0.391059     0.382925     0.374792     0.366658
      0.358524     0.350391     0.342257     0.334124     0.325990     0.317856     0.309723     0.301589     0.293455     0.285322
      0.277188     0.269055     0.260921     0.252787     0.244654     0.236520     0.228386     0.220253     0.212119     0.203986
 NY phased data points follow
  -1.08943E+02 -1.00940E+02 -1.17729E+02 -1.13447E+02 -1.09527E+02 -1.12838E+02 -1.08886E+02 -9.94159E+01 -9.71242E+01 -1.08766E+02
  -1.02394E+02 -1.06789E+02 -1.16874E+02 -1.22088E+02 -1.26604E+02 -1.23564E+02 -1.21201E+02 -1.33299E+02 -1.57786E+02 -1.63579E+02
  -1.92474E+02 -1.80156E+02 -1.36206E+02 -1.37396E+02 -1.13003E+02 -9.17395E+01 -6.95461E+01 -6.86393E+01 -7.14651E+01 -6.22170E+01
  -7.01299E+01 -5.24718E+01 -5.80980E+01 -5.07156E+01 -5.51921E+01 -5.96596E+01 -4.00337E+01 -5.47388E+01 -5.60570E+01 -7.45109E+01
  -9.35673E+01 -1.06653E+02 -1.19632E+02 -1.08852E+02 -1.08864E+02 -1.07560E+02 -8.20440E+01 -6.15861E+01 -5.45037E+01 -3.69726E+01
  -3.34915E+01 -3.45848E+01 -3.23567E+01 -3.74645E+01 -5.25227E+01 -7.18120E+01 -8.11600E+01 -7.49724E+01 -8.77329E+01 -1.04998E+02
  -8.16483E+01 -8.88131E+01 -8.72090E+01 -6.76355E+01 -5.37281E+01 -2.86536E+01 -2.92795E+01 -3.57151E+01 -5.74891E+01 -8.69570E+01
  -1.08499E+02 -1.01474E+02 -9.81655E+01 -1.09759E+02 -8.02405E+01 -4.25032E+01 -3.61299E+01 -3.33660E+01 -2.44347E+01 -3.53509E+01
  -1.86194E+01 -1.30027E+01 -3.18358E+01 -4.39862E+01 -7.11315E+01 -7.22197E+01 -6.22605E+01 -6.10127E+01 -5.03976E+01 -3.47498E+01
  -3.04618E+01 -1.60881E+01 -1.07093E-01  1.99645E+00  4.00056E+00  1.12134E+01  1.40541E+01  5.46956E+00  9.64741E+00  1.76375E+01
   2.21730E+01  9.70678E+00  4.76688E+00 -1.65165E+01 -3.06043E+01 -3.34957E+01 -5.55086E+01 -3.53716E+01 -5.73246E+01 -8.52144E+01
  -1.22417E+02 -1.82870E+02 -1.74009E+02 -1.57285E+02 -1.38675E+02 -1.17143E+02 -1.03649E+02 -9.78376E+01 -9.40311E+01 -8.33998E+01
  -7.42572E+01 -6.97671E+01 -5.36739E+01 -4.40485E+01 -4.14048E+01 -2.80799E+01 -3.10362E+01 -1.03409E+01  5.01972E+00  2.47330E+01
   8.07361E+01  1.16849E+02  6.54161E+01 -3.76651E+01 -9.05365E+01 -1.11976E+02 -1.16029E+02 -1.26191E+02 -1.21967E+02 -1.10607E+02
  -1.11740E+02 -1.06976E+02 -1.05956E+02 -1.23666E+02 -1.29805E+02 -1.00218E+02 -1.15767E+02 -1.09019E+02 -1.05996E+02 -1.14374E+02
  -9.79441E+01 -1.10778E+02 -8.70106E+01 -8.62629E+01 -9.80555E+01 -9.19956E+01 -9.18639E+01 -8.65073E+01 -8.08809E+01 -8.03926E+01
  -9.40765E+01 -7.58855E+01 -6.14202E+01 -6.97619E+01 -6.92493E+01 -7.08947E+01 -8.36238E+01 -7.81809E+01 -8.05749E+01 -8.30860E+01
  -6.87934E+01 -6.71780E+01 -4.08492E+01 -4.14098E+01 -4.94228E+01 -5.57734E+01 -6.24943E+01 -3.30488E+01 -2.78488E+01 -3.88166E+01
  -5.98777E+01 -6.86358E+01 -7.68425E+01 -9.30770E+01 -8.50622E+01 -9.03477E+01 -9.73094E+01 -8.01021E+01 -8.29360E+01 -8.75614E+01
  -6.61942E+01 -7.81297E+01 -8.40879E+01 -6.91396E+01 -5.51892E+01 -4.91237E+01 -5.95966E+01 -4.72345E+01 -5.31777E+01 -5.05068E+01
  -4.08080E+01 -5.96235E+01 -5.49083E+01 -4.93217E+01 -4.47701E+01 -5.12009E+01 -6.14272E+01 -4.83684E+01 -5.95155E+01 -7.65764E+01
  -7.94735E+01 -8.59960E+01 -8.73856E+01 -7.99924E+01 -6.37718E+01 -4.73658E+01 -2.91548E+01 -2.18052E+01 -1.92494E+01 -1.41036E+01
  -3.44207E+01 -5.63910E+01 -5.56399E+01 -4.49511E+01 -5.08716E+01 -5.65527E+01 -5.85074E+01 -6.32020E+01 -4.63777E+01 -5.11054E+01
  -4.37631E+01 -4.29987E+01 -6.95300E+01 -6.33951E+01 -7.94853E+01 -9.33155E+01 -9.39520E+01 -9.95521E+01 -1.06836E+02 -1.05067E+02
  -9.38186E+01 -9.77755E+01 -7.44014E+01 -7.63862E+01 -7.88008E+01 -6.93494E+01 -6.92210E+01 -5.94260E+01 -7.23651E+01 -7.22086E+01
  -7.87424E+01 -7.60935E+01 -8.99606E+01 -9.12940E+01 -7.27160E+01 -1.19679E+02 -1.78095E+02 -1.65933E+02 -6.71996E+00  9.72832E+01
   7.31860E+01  8.83630E+01  1.07824E+02  8.23808E+01  6.23437E+01  7.56291E+01  5.58077E+01  5.02628E+01  5.47628E+01  4.30157E+01
   4.64486E+01  4.44711E+01  4.04283E+01  2.91927E+01  4.13287E+01  4.84503E+01  5.03716E+01  5.11448E+01  4.54243E+01  5.07342E+01
   3.77179E+01  4.15337E+01  5.82390E+01  4.25147E+01  2.82619E+01  3.59663E+01  2.64581E+01  2.77229E+01  3.84268E+01  3.55579E+01
   4.50163E+01  5.25518E+01  4.40036E+01  3.66080E+01  4.10361E+01  3.09693E+01  2.03253E+01  8.00073E+00  5.98487E+00  6.99178E+00
  -1.24784E-01  5.80396E+00 -2.36838E+00  2.42988E+00 -5.89807E+00 -1.25073E+01 -1.65882E+00 -1.73751E+01 -1.09613E+01  1.22076E+00
  -8.54562E+00 -1.16688E+00  1.64285E+00 -1.48700E+01 -1.24720E+01 -2.65568E+01 -3.57338E+01 -3.26735E+01 -3.53293E+01 -1.92251E+01
  -3.08579E+01 -2.73245E+01 -3.44329E+01 -6.93691E+01 -8.72738E+01 -1.13679E+02 -1.28351E+02 -1.61201E+02 -1.65820E+02 -1.40149E+02
  -1.35889E+02 -1.16752E+02 -1.11774E+02 -1.03511E+02 -9.27781E+01 -9.22251E+01 -8.28281E+01 -7.11656E+01 -6.04269E+01 -5.31831E+01
  -3.62249E+01 -2.75952E+01 -5.28943E+00 -1.19819E+01 -3.56009E+01 -2.11789E+01 -3.13032E+01 -2.42468E+01 -2.68507E+01 -4.41165E+01
  -4.52729E+01 -4.96709E+01 -4.36866E+01 -5.95881E+01 -5.85694E+01 -6.74080E+01 -8.00733E+01 -6.38773E+01 -7.18358E+01 -8.02215E+01
  -7.70124E+01 -7.17877E+01 -7.48249E+01 -6.88769E+01 -6.22999E+01 -5.75254E+01 -4.26445E+01 -4.96378E+01 -3.97013E+01 -2.63172E+01
  -3.22548E+01 -2.70421E+01 -3.63501E+01 -4.00600E+01 -2.76414E+01 -2.30932E+01 -8.66414E+00  3.75880E+00  1.24342E-01  1.02889E+01
   2.69812E+01  2.68321E+01  3.71953E+01  4.68631E+01  5.50006E+01  6.60837E+01  6.84553E+01  8.04578E+01  8.61093E+01  9.85422E+01
   9.82903E+01  8.45840E+01  8.22631E+01  5.96385E+01  3.75504E+01  3.56582E+01  2.86019E+01  2.06402E+01  3.03625E+01  1.83628E+01
   7.40751E+00 -1.21538E-01 -2.30703E+01 -3.60467E+01 -4.16354E+01 -3.20460E+01 -3.28290E+01 -2.64119E+01 -4.13799E+01 -5.58049E+01
  -5.21772E+01 -6.23201E+01 -3.93155E+01 -4.35499E+01 -5.11654E+01 -3.62023E+01 -3.23508E+01 -3.20803E+01 -4.40927E+01 -4.42105E+01
  -3.57615E+01 -3.53953E+01 -4.56020E+01 -5.27665E+01 -4.94527E+01 -4.29240E+01 -4.01868E+01 -3.11272E+01 -3.96076E+01 -4.99144E+01
  -4.60270E+01 -4.66906E+01 -3.43195E+01 -3.34697E+01 -3.56230E+01 -4.63497E+01 -4.26804E+01 -3.66524E+01 -4.48470E+01 -3.87875E+01
  -3.41803E+01 -3.01807E+01 -5.24806E+01 -4.74539E+01 -3.28131E+01 -3.37063E+01 -3.32969E+01 -3.09657E+01 -2.87682E+01 -4.48411E+01
  -2.24672E+01 -3.34536E+01 -3.98328E+01 -2.65894E+01 -4.00547E+01 -3.06346E+01 -4.00845E+01 -3.59199E+01 -4.63679E+01 -4.17224E+01
  -2.76877E+01 -4.94565E+01 -2.69434E+01 -2.15968E+01 -3.67356E+01 -3.94283E+01 -3.75977E+01 -3.18767E+01 -3.76049E+01 -3.71559E+01
  -3.75111E+01 -3.72256E+01 -4.06878E+01 -3.59895E+01 -2.83268E+01 -2.90673E+01 -2.82523E+01 -3.58363E+01 -2.88647E+01 -3.40820E+01
 NY points of the fit to the data follow
  -1.10141E+02 -1.15010E+02 -1.24549E+02 -1.35214E+02 -1.38748E+02 -1.29448E+02 -1.12146E+02 -9.88022E+01 -9.51563E+01 -9.75930E+01
  -1.01705E+02 -1.06316E+02 -1.10217E+02 -1.13070E+02 -1.16067E+02 -1.19576E+02 -1.21365E+02 -1.25340E+02 -1.38738E+02 -1.61178E+02
  -1.78924E+02 -1.75274E+02 -1.51140E+02 -1.24136E+02 -1.02791E+02 -8.38748E+01 -6.78438E+01 -5.84276E+01 -5.09027E+01 -4.49806E+01
  -4.26379E+01 -4.21598E+01 -4.27822E+01 -4.52525E+01 -4.94069E+01 -5.48399E+01 -6.04371E+01 -6.69167E+01 -7.75672E+01 -9.38848E+01
  -1.12243E+02 -1.24802E+02 -1.25503E+02 -1.16237E+02 -1.03301E+02 -8.94430E+01 -7.39685E+01 -5.99680E+01 -5.00531E+01 -4.30686E+01
  -3.86903E+01 -3.73155E+01 -4.07068E+01 -5.05241E+01 -6.33279E+01 -7.23475E+01 -7.62471E+01 -8.00128E+01 -8.84730E+01 -9.73004E+01
  -9.84365E+01 -9.33509E+01 -8.70557E+01 -7.62772E+01 -5.85645E+01 -4.12063E+01 -3.15544E+01 -3.38441E+01 -5.09086E+01 -7.42897E+01
  -8.91051E+01 -9.23104E+01 -9.11571E+01 -8.62560E+01 -7.27324E+01 -5.49788E+01 -4.17427E+01 -3.23511E+01 -2.46688E+01 -1.92258E+01
  -1.78392E+01 -2.16689E+01 -3.08588E+01 -4.39556E+01 -5.71875E+01 -6.52690E+01 -6.56996E+01 -5.93643E+01 -4.95655E+01 -3.89436E+01
  -2.99833E+01 -2.18622E+01 -1.49274E+01 -9.15219E+00 -4.20890E+00  8.62624E-01  6.04831E+00  9.97368E+00  1.17006E+01  1.23010E+01
   1.24442E+01  1.14629E+01  5.31910E+00 -6.54228E+00 -2.35546E+01 -4.10734E+01 -4.90035E+01 -4.46307E+01 -4.76561E+01 -8.06121E+01
  -1.33093E+02 -1.68176E+02 -1.71365E+02 -1.58339E+02 -1.44786E+02 -1.28469E+02 -1.11248E+02 -9.80437E+01 -8.73428E+01 -7.80478E+01
  -6.94259E+01 -6.09493E+01 -5.22459E+01 -4.27488E+01 -3.18415E+01 -1.97470E+01 -8.47709E+00 -2.63803E+00  7.30292E+00  3.46139E+01
   7.37861E+01  8.98428E+01  5.05417E+01 -2.68434E+01 -8.95886E+01 -1.17608E+02 -1.30351E+02 -1.38948E+02 -1.36696E+02 -1.31249E+02
  -1.26789E+02 -1.23591E+02 -1.21548E+02 -1.20137E+02 -1.18672E+02 -1.17069E+02 -1.15023E+02 -1.12276E+02 -1.09032E+02 -1.06015E+02
  -1.03548E+02 -1.01315E+02 -9.91684E+01 -9.67536E+01 -9.37266E+01 -9.00138E+01 -8.64424E+01 -8.44537E+01 -8.42604E+01 -8.39802E+01
  -8.16896E+01 -7.79609E+01 -7.54355E+01 -7.56382E+01 -7.69604E+01 -7.71068E+01 -7.62155E+01 -7.63598E+01 -7.78857E+01 -7.79026E+01
  -7.20504E+01 -5.96506E+01 -4.70226E+01 -4.22761E+01 -4.54581E+01 -4.73302E+01 -4.20678E+01 -3.49873E+01 -3.46116E+01 -4.23109E+01
  -5.31018E+01 -6.27483E+01 -7.06335E+01 -7.69063E+01 -8.08140E+01 -8.23299E+01 -8.29772E+01 -8.33845E+01 -8.33205E+01 -8.21416E+01
  -8.09581E+01 -8.03936E+01 -7.87304E+01 -7.33276E+01 -6.43165E+01 -5.69692E+01 -5.35182E+01 -4.93341E+01 -4.28646E+01 -3.94177E+01
  -4.12726E+01 -4.32048E+01 -4.23929E+01 -4.09593E+01 -4.17893E+01 -4.49743E+01 -4.80293E+01 -5.14877E+01 -5.61732E+01 -6.17205E+01
  -6.75594E+01 -7.29908E+01 -7.66540E+01 -7.54790E+01 -6.87515E+01 -5.70849E+01 -4.24915E+01 -2.91602E+01 -2.03243E+01 -1.66465E+01
  -1.76487E+01 -2.13418E+01 -2.34916E+01 -2.32515E+01 -2.30736E+01 -2.33778E+01 -2.57415E+01 -3.06553E+01 -3.77964E+01 -4.71061E+01
  -5.75419E+01 -6.82961E+01 -7.89649E+01 -8.83737E+01 -9.58336E+01 -1.00904E+02 -1.03002E+02 -1.02343E+02 -1.00248E+02 -9.73062E+01
  -9.44717E+01 -9.20083E+01 -8.82874E+01 -8.30066E+01 -7.77341E+01 -7.31385E+01 -7.01450E+01 -6.95037E+01 -7.05366E+01 -7.33578E+01
  -8.15362E+01 -9.41420E+01 -9.91145E+01 -9.72163E+01 -1.05861E+02 -1.36678E+02 -1.60003E+02 -1.27023E+02 -4.21878E+01  3.25731E+01
   6.57570E+01  7.87720E+01  8.67082E+01  8.18135E+01  7.33416E+01  6.57052E+01  5.87855E+01  5.23548E+01  4.63981E+01  4.10999E+01
   3.68580E+01  3.37974E+01  3.19366E+01  3.11539E+01  3.10393E+01  3.13469E+01  3.19025E+01  3.24263E+01  3.22739E+01  3.14343E+01
   3.01382E+01  2.83854E+01  2.64465E+01  2.41849E+01  2.17166E+01  1.91949E+01  1.66128E+01  1.37846E+01  1.06053E+01  7.08825E+00
   3.27108E+00 -7.55293E-01 -4.79674E+00 -8.41569E+00 -1.10357E+01 -1.23675E+01 -1.25023E+01 -1.17209E+01 -1.03993E+01 -8.66848E+00
  -6.58336E+00 -4.30950E+00 -2.09170E+00 -4.18034E-02  1.85768E+00  3.70739E+00  5.73633E+00  8.07223E+00  1.05212E+01  1.28138E+01
   1.49383E+01  1.70348E+01  1.91491E+01  2.11903E+01  2.31032E+01  2.48808E+01  2.64719E+01  2.72821E+01  2.95714E+01  3.40996E+01
   3.63420E+01  2.85247E+01  4.62115E+00 -3.11903E+01 -6.82382E+01 -9.83835E+01 -1.15580E+02 -1.17559E+02 -1.11293E+02 -1.06897E+02
  -1.03994E+02 -1.00749E+02 -9.86686E+01 -9.59072E+01 -9.18998E+01 -8.69812E+01 -8.19372E+01 -7.74619E+01 -7.37480E+01 -7.05915E+01
  -6.73934E+01 -6.36906E+01 -5.94754E+01 -5.51205E+01 -5.12087E+01 -4.81700E+01 -4.60143E+01 -4.44768E+01 -4.35626E+01 -4.34801E+01
  -4.43251E+01 -4.62212E+01 -4.91695E+01 -5.27216E+01 -5.60167E+01 -5.83995E+01 -5.96912E+01 -5.97803E+01 -5.86965E+01 -5.66256E+01
  -5.38102E+01 -5.04094E+01 -4.66588E+01 -4.28223E+01 -3.91225E+01 -3.56221E+01 -3.22284E+01 -2.88294E+01 -2.54049E+01 -2.19729E+01
  -1.86496E+01 -1.52849E+01 -1.16836E+01 -7.73073E+00 -3.41140E+00  1.25063E+00  6.37285E+00  1.21361E+01  1.84121E+01  2.49715E+01
   3.19024E+01  3.94674E+01  4.73618E+01  5.50538E+01  6.18256E+01  6.66626E+01  6.83066E+01  6.60382E+01  6.02384E+01  5.22564E+01
   4.36331E+01  3.54262E+01  2.81442E+01  2.18667E+01  1.60391E+01  9.83729E+00  2.82410E+00 -4.82293E+00 -1.26986E+01 -2.02726E+01
  -2.68831E+01 -3.22465E+01 -3.64801E+01 -3.96954E+01 -4.18772E+01 -4.32869E+01 -4.42800E+01 -4.51398E+01 -4.58696E+01 -4.63979E+01
  -4.66051E+01 -4.65746E+01 -4.64494E+01 -4.62560E+01 -4.59082E+01 -4.55048E+01 -4.52495E+01 -4.50877E+01 -4.47210E+01 -4.41590E+01
  -4.37206E+01 -4.34586E+01 -4.31171E+01 -4.26832E+01 -4.23898E+01 -4.22333E+01 -4.19746E+01 -4.14967E+01 -4.09257E+01 -4.04445E+01
  -4.01363E+01 -3.99624E+01 -3.98492E+01 -3.97035E+01 -3.94355E+01 -3.90386E+01 -3.85908E+01 -3.81715E+01 -3.78022E+01 -3.74597E+01
  -3.71359E+01 -3.68390E+01 -3.66964E+01 -3.66624E+01 -3.66056E+01 -3.64450E+01 -3.61747E+01 -3.58561E+01 -3.55522E+01 -3.53367E+01
  -3.51888E+01 -3.50474E+01 -3.47846E+01 -3.44331E+01 -3.40938E+01 -3.37946E+01 -3.35228E+01 -3.32671E+01 -3.29742E+01 -3.26985E+01
  -3.25229E+01 -3.24719E+01 -3.24343E+01 -3.23858E+01 -3.22815E+01 -3.20532E+01 -3.15749E+01 -3.09847E+01 -3.05338E+01 -3.03738E+01
  -3.04152E+01 -3.04783E+01 -3.04383E+01 -3.03145E+01 -3.01078E+01 -2.98584E+01 -2.96015E+01 -2.94892E+01 -2.94538E+01 -2.92928E+01
 NY background values follow
    -8.255E+01   -8.227E+01   -8.200E+01   -8.172E+01   -8.145E+01   -8.117E+01   -8.089E+01   -8.061E+01   -8.033E+01   -8.005E+01
    -7.977E+01   -7.949E+01   -7.920E+01   -7.892E+01   -7.863E+01   -7.835E+01   -7.806E+01   -7.777E+01   -7.748E+01   -7.718E+01
    -7.689E+01   -7.660E+01   -7.630E+01   -7.600E+01   -7.570E+01   -7.540E+01   -7.510E+01   -7.479E+01   -7.449E+01   -7.418E+01
    -7.387E+01   -7.356E+01   -7.325E+01   -7.293E+01   -7.262E+01   -7.230E+01   -7.198E+01   -7.166E+01   -7.134E+01   -7.102E+01
    -7.070E+01   -7.038E+01   -7.005E+01   -6.973E+01   -6.941E+01   -6.908E+01   -6.876E+01   -6.843E+01   -6.811E+01   -6.778E+01
    -6.746E+01   -6.713E+01   -6.681E+01   -6.648E+01   -6.616E+01   -6.584E+01   -6.552E+01   -6.520E+01   -6.488E+01   -6.456E+01
    -6.424E+01   -6.393E+01   -6.361E+01   -6.330E+01   -6.299E+01   -6.268E+01   -6.237E+01   -6.206E+01   -6.175E+01   -6.145E+01
    -6.114E+01   -6.084E+01   -6.054E+01   -6.024E+01   -5.995E+01   -5.965E+01   -5.936E+01   -5.906E+01   -5.877E+01   -5.848E+01
    -5.819E+01   -5.791E+01   -5.762E+01   -5.734E+01   -5.706E+01   -5.678E+01   -5.650E+01   -5.623E+01   -5.595E+01   -5.568E+01
    -5.541E+01   -5.514E+01   -5.488E+01   -5.461E+01   -5.435E+01   -5.409E+01   -5.383E+01   -5.357E+01   -5.332E+01   -5.307E+01
    -5.282E+01   -5.257E+01   -5.232E+01   -5.208E+01   -5.184E+01   -5.160E+01   -5.137E+01   -5.114E+01   -5.091E+01   -5.068E+01
    -5.045E+01   -5.023E+01   -5.001E+01   -4.980E+01   -4.959E+01   -4.938E+01   -4.917E+01   -4.896E+01   -4.876E+01   -4.857E+01
    -4.837E+01   -4.818E+01   -4.799E+01   -4.781E+01   -4.763E+01   -4.745E+01   -4.728E+01   -4.710E+01   -4.694E+01   -4.677E+01
    -4.661E+01   -4.645E+01   -4.630E+01   -4.615E+01   -4.600E+01   -4.586E+01   -4.571E+01   -4.558E+01   -4.544E+01   -4.531E+01
    -4.518E+01   -4.506E+01   -4.494E+01   -4.482E+01   -4.471E+01   -4.460E+01   -4.449E+01   -4.439E+01   -4.429E+01   -4.419E+01
    -4.410E+01   -4.401E+01   -4.392E+01   -4.384E+01   -4.376E+01   -4.368E+01   -4.361E+01   -4.353E+01   -4.346E+01   -4.340E+01
    -4.333E+01   -4.326E+01   -4.320E+01   -4.314E+01   -4.307E+01   -4.301E+01   -4.295E+01   -4.289E+01   -4.283E+01   -4.277E+01
    -4.271E+01   -4.265E+01   -4.259E+01   -4.253E+01   -4.246E+01   -4.240E+01   -4.234E+01   -4.227E+01   -4.220E+01   -4.213E+01
    -4.206E+01   -4.198E+01   -4.190E+01   -4.183E+01   -4.174E+01   -4.166E+01   -4.157E+01   -4.148E+01   -4.139E+01   -4.130E+01
    -4.120E+01   -4.110E+01   -4.100E+01   -4.089E+01   -4.078E+01   -4.067E+01   -4.055E+01   -4.044E+01   -4.032E+01   -4.019E+01
    -4.006E+01   -3.993E+01   -3.980E+01   -3.966E+01   -3.952E+01   -3.938E+01   -3.923E+01   -3.908E+01   -3.892E+01   -3.876E+01
    -3.860E+01   -3.843E+01   -3.827E+01   -3.809E+01   -3.792E+01   -3.774E+01   -3.756E+01   -3.738E+01   -3.720E+01   -3.702E+01
    -3.683E+01   -3.665E+01   -3.647E+01   -3.628E+01   -3.610E+01   -3.592E+01   -3.574E+01   -3.557E+01   -3.539E+01   -3.522E+01
    -3.506E+01   -3.489E+01   -3.473E+01   -3.457E+01   -3.442E+01   -3.427E+01   -3.413E+01   -3.400E+01   -3.387E+01   -3.374E+01
    -3.362E+01   -3.351E+01   -3.341E+01   -3.332E+01   -3.323E+01   -3.315E+01   -3.308E+01   -3.302E+01   -3.297E+01   -3.293E+01
    -3.290E+01   -3.288E+01   -3.287E+01   -3.288E+01   -3.289E+01   -3.292E+01   -3.296E+01   -3.302E+01   -3.308E+01   -3.317E+01
    -3.326E+01   -3.337E+01   -3.350E+01   -3.364E+01   -3.379E+01   -3.397E+01   -3.416E+01   -3.436E+01   -3.459E+01   -3.483E+01
    -3.509E+01   -3.536E+01   -3.566E+01   -3.597E+01   -3.629E+01   -3.664E+01   -3.699E+01   -3.736E+01   -3.775E+01   -3.814E+01
    -3.855E+01   -3.897E+01   -3.940E+01   -3.984E+01   -4.029E+01   -4.075E+01   -4.122E+01   -4.169E+01   -4.217E+01   -4.266E+01
    -4.315E+01   -4.365E+01   -4.415E+01   -4.466E+01   -4.516E+01   -4.567E+01   -4.619E+01   -4.670E+01   -4.721E+01   -4.772E+01
    -4.823E+01   -4.874E+01   -4.925E+01   -4.975E+01   -5.025E+01   -5.075E+01   -5.124E+01   -5.172E+01   -5.220E+01   -5.266E+01
    -5.313E+01   -5.358E+01   -5.402E+01   -5.445E+01   -5.487E+01   -5.528E+01   -5.567E+01   -5.605E+01   -5.642E+01   -5.678E+01
    -5.711E+01   -5.743E+01   -5.774E+01   -5.802E+01   -5.829E+01   -5.854E+01   -5.877E+01   -5.898E+01   -5.916E+01   -5.933E+01
    -5.947E+01   -5.959E+01   -5.968E+01   -5.975E+01   -5.981E+01   -5.984E+01   -5.985E+01   -5.983E+01   -5.980E+01   -5.975E+01
    -5.968E+01   -5.959E+01   -5.947E+01   -5.934E+01   -5.920E+01   -5.903E+01   -5.885E+01   -5.864E+01   -5.843E+01   -5.819E+01
    -5.794E+01   -5.767E+01   -5.739E+01   -5.709E+01   -5.677E+01   -5.644E+01   -5.610E+01   -5.574E+01   -5.537E+01   -5.498E+01
    -5.459E+01   -5.417E+01   -5.375E+01   -5.332E+01   -5.287E+01   -5.242E+01   -5.196E+01   -5.149E+01   -5.101E+01   -5.052E+01
    -5.003E+01   -4.953E+01   -4.902E+01   -4.851E+01   -4.800E+01   -4.749E+01   -4.697E+01   -4.645E+01   -4.593E+01   -4.541E+01
    -4.489E+01   -4.437E+01   -4.385E+01   -4.333E+01   -4.282E+01   -4.231E+01   -4.180E+01   -4.130E+01   -4.081E+01   -4.032E+01
    -3.984E+01   -3.936E+01   -3.890E+01   -3.844E+01   -3.799E+01   -3.754E+01   -3.710E+01   -3.668E+01   -3.625E+01   -3.584E+01
    -3.544E+01   -3.504E+01   -3.465E+01   -3.427E+01   -3.390E+01   -3.354E+01   -3.319E+01   -3.284E+01   -3.251E+01   -3.218E+01
    -3.187E+01   -3.156E+01   -3.127E+01   -3.098E+01   -3.070E+01   -3.043E+01   -3.018E+01   -2.993E+01   -2.969E+01   -2.947E+01
    -2.925E+01   -2.904E+01   -2.885E+01   -2.866E+01   -2.849E+01   -2.832E+01   -2.816E+01   -2.801E+01   -2.787E+01   -2.774E+01
    -2.761E+01   -2.750E+01   -2.739E+01   -2.728E+01   -2.719E+01   -2.710E+01   -2.701E+01   -2.694E+01   -2.686E+01   -2.680E+01
    -2.674E+01   -2.668E+01   -2.663E+01   -2.658E+01   -2.654E+01   -2.650E+01   -2.646E+01   -2.643E+01   -2.640E+01   -2.637E+01
    -2.635E+01   -2.633E+01   -2.631E+01   -2.629E+01   -2.627E+01   -2.626E+01   -2.625E+01   -2.624E+01   -2.623E+01   -2.622E+01
    -2.622E+01   -2.621E+01   -2.621E+01   -2.621E+01   -2.621E+01   -2.621E+01   -2.621E+01   -2.621E+01   -2.622E+01   -2.622E+01
    -2.623E+01   -2.623E+01   -2.624E+01   -2.624E+01   -2.625E+01   -2.625E+01   -2.626E+01   -2.626E+01   -2.627E+01   -2.627E+01
 Mac      Conc. = 2.65E-04
  -1.01362E+02 -1.01383E+02 -1.01376E+02 -1.01488E+02 -1.01860E+02 -1.02676E+02 -1.03881E+02 -1.05232E+02 -1.06382E+02 -1.07107E+02
  -1.07347E+02 -1.07223E+02 -1.07162E+02 -1.07814E+02 -1.09215E+02 -1.10333E+02 -1.09796E+02 -1.07315E+02 -1.03833E+02 -1.00169E+02
  -9.64239E+01 -9.28815E+01 -9.02021E+01 -8.83639E+01 -8.67588E+01 -8.51102E+01 -8.33126E+01 -8.13101E+01 -7.92697E+01 -7.74211E+01
  -7.58171E+01 -7.44090E+01 -7.34458E+01 -7.31219E+01 -7.30889E+01 -7.25460E+01 -7.09942E+01 -6.87721E+01 -6.67796E+01 -6.56603E+01
  -6.51274E+01 -6.45098E+01 -6.34492E+01 -6.20924E+01 -6.07856E+01 -5.98293E+01 -5.93896E+01 -5.94574E+01 -5.99842E+01 -6.07844E+01
  -6.15332E+01 -6.21327E+01 -6.26260E+01 -6.29976E+01 -6.30562E+01 -6.26460E+01 -6.17517E+01 -6.05305E+01 -5.92071E+01 -5.77100E+01
  -5.61047E+01 -5.48624E+01 -5.43409E+01 -5.43837E+01 -5.46420E+01 -5.48960E+01 -5.51465E+01 -5.54548E+01 -5.55422E+01 -5.47951E+01
  -5.30185E+01 -5.07522E+01 -4.86498E+01 -4.69514E+01 -4.57547E+01 -4.51903E+01 -4.51861E+01 -4.54598E+01 -4.57947E+01 -4.61001E+01
  -4.63305E+01 -4.63728E+01 -4.60114E+01 -4.52882E+01 -4.44057E+01 -4.34627E+01 -4.24829E+01 -4.15310E+01 -4.06990E+01 -3.99558E+01
  -3.92668E+01 -3.86646E+01 -3.82489E+01 -3.81905E+01 -3.87669E+01 -4.00550E+01 -4.18267E+01 -4.37503E+01 -4.55366E+01 -4.71118E+01
  -4.87210E+01 -5.05745E+01 -5.27671E+01 -5.56878E+01 -5.98632E+01 -6.52784E+01 -7.09203E+01 -7.54573E+01 -7.80923E+01 -7.88064E+01
