 LCModel (Version 6.3-1N) Copyright: S.W. Provencher.          Ref.: Magn. Reson. Med. 30:672-679 (1993).                
 Slice_N1@16_11  28-Feb-2025 11:40:11
 27 lines in following concentration table = NCONC+1
    Conc.  %SD /Cr+PCr  Metabolite                                         
 1.91E-04   9% 1.3E-04 Mac                                                 
    6.452  41%   4.548 Cr                                                  
    4.898  53%   3.452 PCr                                                 
    8.498  15%   5.990 Ins                                                 
   12.093   9%   8.524 NAA                                                 
    7.881  17%   5.555 Tau                                                 
    2.057  23%   1.450 PCho                                                
    0.000 999%   0.000 GPC                                                 
   11.786  12%   8.308 Glu                                                 
    3.151  34%   2.221 Gln                                                 
    0.000 999%   0.000 Ala                                                 
    1.234 144%   0.870 Asc                                                 
    2.734  51%   1.927 Asp                                                 
    0.646 115%   0.455 GABA                                                
    0.530 175%   0.374 Glc                                                 
    0.830  76%   0.585 GSH                                                 
   12.226   9%   8.618 Lac                                                 
    0.704 140%   0.496 NAAG                                                
    3.245  56%   2.287 PE                                                  
    2.057  23%   1.450 GPC+PCho                                            
   12.797   9%   9.020 NAA+NAAG                                            
   14.937  12%  10.528 Glu+Gln                                             
   11.350   8%   8.000 Cr+PCr                                              
   12.797   9%   9.020 NAA+NAAG                                            
   11.350   8%   8.000 Cr+PCr                                              
   14.937  12%  10.528 Glu+Gln                                             
   6 lines in following misc. output table
  FWHM = 0.049 ppm    S/N =   3                                            
  Data shift = 0.008 ppm                                                   
  Ph: 175 deg       0.0 deg/ppm                                            
  alphaB,S = 9.6E-02,   4.3E+01                                            
   19 spline knots.   Ns = 5(1)                                            
  ( 7) 5 infls.   ( 4) 2 extrs.                                            
  480 points on ppm-axis = NY
      4.100000     4.091866     4.083733     4.075600     4.067466     4.059333     4.051199     4.043066     4.034933     4.026799
      4.018666     4.010532     4.002399     3.994265     3.986132     3.977998     3.969864     3.961731     3.953597     3.945463
      3.937330     3.929196     3.921062     3.912929     3.904795     3.896662     3.888528     3.880394     3.872261     3.864127
      3.855993     3.847860     3.839726     3.831592     3.823459     3.815325     3.807191     3.799058     3.790924     3.782790
      3.774657     3.766523     3.758389     3.750256     3.742122     3.733989     3.725855     3.717721     3.709588     3.701454
      3.693320     3.685187     3.677053     3.668919     3.660786     3.652652     3.644518     3.636385     3.628251     3.620117
      3.611984     3.603850     3.595716     3.587583     3.579449     3.571316     3.563182     3.555048     3.546915     3.538781
      3.530647     3.522514     3.514380     3.506246     3.498113     3.489979     3.481845     3.473712     3.465578     3.457444
      3.449311     3.441177     3.433043     3.424910     3.416776     3.408643     3.400509     3.392375     3.384242     3.376108
      3.367974     3.359841     3.351707     3.343573     3.335440     3.327306     3.319172     3.311039     3.302905     3.294771
      3.286638     3.278504     3.270370     3.262237     3.254103     3.245970     3.237836     3.229702     3.221569     3.213435
      3.205301     3.197168     3.189034     3.180900     3.172767     3.164633     3.156499     3.148366     3.140232     3.132098
      3.123965     3.115831     3.107697     3.099564     3.091430     3.083297     3.075163     3.067029     3.058896     3.050762
      3.042628     3.034495     3.026361     3.018227     3.010094     3.001960     2.993826     2.985693     2.977559     2.969425
      2.961292     2.953158     2.945024     2.936891     2.928757     2.920624     2.912490     2.904356     2.896223     2.888089
      2.879955     2.871822     2.863688     2.855554     2.847421     2.839287     2.831153     2.823020     2.814886     2.806752
      2.798619     2.790485     2.782351     2.774218     2.766084     2.757951     2.749817     2.741683     2.733550     2.725416
      2.717282     2.709149     2.701015     2.692881     2.684748     2.676614     2.668480     2.660347     2.652213     2.644079
      2.635946     2.627812     2.619678     2.611545     2.603411     2.595278     2.587144     2.579010     2.570877     2.562743
      2.554609     2.546476     2.538342     2.530208     2.522075     2.513941     2.505807     2.497674     2.489540     2.481406
      2.473273     2.465139     2.457006     2.448872     2.440738     2.432605     2.424471     2.416337     2.408204     2.400070
      2.391936     2.383803     2.375669     2.367535     2.359402     2.351268     2.343134     2.335001     2.326867     2.318733
      2.310600     2.302466     2.294333     2.286199     2.278065     2.269932     2.261798     2.253664     2.245531     2.237397
      2.229263     2.221130     2.212996     2.204862     2.196729     2.188595     2.180461     2.172328     2.164194     2.156060
      2.147927     2.139793     2.131660     2.123526     2.115392     2.107259     2.099125     2.090991     2.082858     2.074724
      2.066590     2.058457     2.050323     2.042189     2.034056     2.025922     2.017788     2.009655     2.001521     1.993387
      1.985254     1.977120     1.968987     1.960853     1.952719     1.944586     1.936452     1.928318     1.920185     1.912051
      1.903917     1.895784     1.887650     1.879516     1.871383     1.863249     1.855115     1.846982     1.838848     1.830714
      1.822581     1.814447     1.806314     1.798180     1.790046     1.781913     1.773779     1.765645     1.757512     1.749378
      1.741244     1.733111     1.724977     1.716843     1.708710     1.700576     1.692442     1.684309     1.676175     1.668041
      1.659908     1.651774     1.643641     1.635507     1.627373     1.619240     1.611106     1.602972     1.594839     1.586705
      1.578571     1.570438     1.562304     1.554170     1.546037     1.537903     1.529769     1.521636     1.513502     1.505368
      1.497235     1.489101     1.480968     1.472834     1.464700     1.456567     1.448433     1.440299     1.432166     1.424032
      1.415898     1.407765     1.399631     1.391497     1.383364     1.375230     1.367096     1.358963     1.350829     1.342695
      1.334562     1.326428     1.318295     1.310161     1.302027     1.293894     1.285760     1.277626     1.269493     1.261359
      1.253225     1.245092     1.236958     1.228824     1.220691     1.212557     1.204423     1.196290     1.188156     1.180022
      1.171889     1.163755     1.155622     1.147488     1.139354     1.131221     1.123087     1.114953     1.106820     1.098686
      1.090552     1.082419     1.074285     1.066151     1.058018     1.049884     1.041750     1.033617     1.025483     1.017349
      1.009216     1.001082     0.992949     0.984815     0.976681     0.968548     0.960414     0.952280     0.944147     0.936013
      0.927879     0.919746     0.911612     0.903478     0.895345     0.887211     0.879077     0.870944     0.862810     0.854676
      0.846543     0.838409     0.830276     0.822142     0.814008     0.805875     0.797741     0.789607     0.781474     0.773340
      0.765206     0.757073     0.748939     0.740805     0.732672     0.724538     0.716404     0.708271     0.700137     0.692003
      0.683870     0.675736     0.667603     0.659469     0.651335     0.643202     0.635068     0.626934     0.618801     0.610667
      0.602533     0.594400     0.586266     0.578132     0.569999     0.561865     0.553731     0.545598     0.537464     0.529330
      0.521197     0.513063     0.504930     0.496796     0.488662     0.480529     0.472395     0.464261     0.456128     0.447994
      0.439861     0.431727     0.423593     0.415460     0.407326     0.399192     0.391059     0.382925     0.374792     0.366658
      0.358524     0.350391     0.342257     0.334124     0.325990     0.317856     0.309723     0.301589     0.293455     0.285322
      0.277188     0.269055     0.260921     0.252787     0.244654     0.236520     0.228386     0.220253     0.212119     0.203986
 NY phased data points follow
  -1.12419E+02 -1.16243E+02 -1.20602E+02 -1.24483E+02 -1.23959E+02 -1.27046E+02 -1.09469E+02 -1.00791E+02 -1.09557E+02 -1.18812E+02
  -1.17704E+02 -1.27650E+02 -1.30878E+02 -1.28401E+02 -1.44638E+02 -1.45696E+02 -1.45975E+02 -1.38741E+02 -1.42308E+02 -1.55058E+02
  -1.61916E+02 -1.53860E+02 -1.25442E+02 -1.04653E+02 -7.56580E+01 -5.45796E+01 -4.74427E+01 -4.83943E+01 -4.53690E+01 -5.63811E+01
  -6.37645E+01 -5.25577E+01 -5.32201E+01 -5.91950E+01 -6.64219E+01 -6.25841E+01 -7.39455E+01 -7.67921E+01 -8.14337E+01 -8.07670E+01
  -9.85725E+01 -1.23861E+02 -1.05703E+02 -1.03284E+02 -6.85318E+01 -5.04901E+01 -3.57189E+01 -2.39145E+01 -1.81225E+01 -2.81611E+00
  -2.42965E+01 -2.00384E+01 -4.25371E+01 -4.61556E+01 -6.01532E+01 -7.40164E+01 -6.67835E+01 -7.81278E+01 -6.61455E+01 -8.82510E+01
  -7.75419E+01 -5.85946E+01 -4.23018E+01 -3.72035E+01 -2.77880E+01 -1.38846E+01 -4.51978E+01 -5.23017E+01 -6.55979E+01 -7.93556E+01
  -9.66479E+01 -7.54610E+01 -5.96530E+01 -5.14114E+01 -2.73387E+01 -3.17019E+01 -1.25489E+01 -1.59172E+01 -1.62123E+01 -2.25544E+01
  -1.92125E+01 -2.93840E+01 -5.15275E+01 -4.90885E+01 -6.83955E+01 -6.34891E+01 -6.00241E+01 -4.42968E+01 -2.55126E+01 -1.18338E+01
  -5.92741E+00  3.46663E-01  5.76532E+00  2.86059E+00  1.33107E+01 -4.18540E+00  3.68570E+00  7.27426E+00 -2.09603E+00 -1.72323E+00
  -9.11155E+00 -2.39136E+01 -3.65618E+01 -5.23262E+01 -7.39271E+01 -6.17289E+01 -8.45722E+01 -1.11314E+02 -1.23782E+02 -1.45886E+02
  -1.76744E+02 -2.01787E+02 -1.95906E+02 -1.66208E+02 -1.08151E+02 -8.83464E+01 -7.94892E+01 -7.81036E+01 -6.34519E+01 -5.92182E+01
  -5.78588E+01 -2.76920E+01 -4.67204E+01 -3.46265E+01 -2.76044E+01 -2.45206E+01 -1.06929E+01 -6.75275E+00  3.18744E+01  3.59018E+01
   3.44021E+01  3.12820E+01 -2.52257E+01 -1.05168E+02 -1.77627E+02 -1.99445E+02 -1.57608E+02 -1.33581E+02 -1.34463E+02 -1.42712E+02
  -1.40297E+02 -1.16109E+02 -1.25438E+02 -1.24076E+02 -1.27266E+02 -1.30779E+02 -1.00438E+02 -1.02672E+02 -1.08903E+02 -9.25430E+01
  -9.87582E+01 -9.19241E+01 -8.27730E+01 -1.07767E+02 -9.73181E+01 -8.03859E+01 -7.75796E+01 -7.46532E+01 -8.50072E+01 -7.54891E+01
  -6.63920E+01 -6.41333E+01 -5.67349E+01 -7.08400E+01 -7.37113E+01 -7.01972E+01 -8.01264E+01 -6.37695E+01 -7.15944E+01 -6.27055E+01
  -3.85766E+01 -5.11043E+01 -4.31669E+01 -3.45049E+01 -3.09283E+01 -4.44292E+01 -5.43032E+01 -5.21778E+01 -3.98161E+01 -4.12957E+01
  -7.91658E+01 -9.16026E+01 -9.41335E+01 -1.02418E+02 -9.71627E+01 -8.50513E+01 -1.05569E+02 -8.85565E+01 -6.31386E+01 -9.16824E+01
  -8.77545E+01 -7.14312E+01 -6.25918E+01 -6.30439E+01 -5.43159E+01 -5.30392E+01 -5.64515E+01 -5.53042E+01 -5.23815E+01 -4.96756E+01
  -5.88378E+01 -4.33779E+01 -5.04428E+01 -4.38923E+01 -4.09548E+01 -4.45925E+01 -4.88049E+01 -7.69593E+01 -7.45414E+01 -9.81115E+01
  -9.22241E+01 -8.15624E+01 -8.60101E+01 -6.17071E+01 -5.03144E+01 -2.26281E+01 -8.25382E-01  2.10338E+01  1.33399E+01 -1.14943E+01
  -1.26226E+01 -3.65304E+01 -3.78286E+01 -3.55888E+01 -4.41189E+01 -2.90599E+01 -4.26127E+01 -3.14254E+01 -1.11432E+01 -3.77170E+01
  -3.92097E+01 -3.82913E+01 -5.27855E+01 -7.04856E+01 -6.79153E+01 -7.20275E+01 -9.94496E+01 -9.51453E+01 -9.54937E+01 -9.04880E+01
  -8.52446E+01 -9.21294E+01 -9.04338E+01 -7.85131E+01 -6.21917E+01 -6.37875E+01 -6.01900E+01 -7.59348E+01 -8.41246E+01 -7.32160E+01
  -8.54677E+01 -8.72304E+01 -1.02974E+02 -9.78892E+01 -7.30558E+01 -9.36625E+01 -8.52638E+01 -4.11665E+01  4.77806E+01  1.56218E+02
   1.69429E+02  1.38167E+02  1.04098E+02  7.76413E+01  5.88292E+01  3.52092E+01  4.05545E+01  2.63914E+01  2.52241E+01  4.13137E+01
   2.36037E+01  2.50661E+01  2.11821E+01  1.91810E+01  2.23263E+01  1.97774E+01  3.19405E+01  2.09927E+01  1.56295E+01  9.45891E+00
   1.31777E+01  1.74229E+01  2.91838E+00  6.81148E+00 -7.81713E+00 -8.27737E-01  5.33486E+00 -1.91946E+00  2.36551E+00 -3.20251E+00
   4.78612E+00 -1.05897E+01 -2.10566E+01 -2.91163E+01 -3.79675E+01 -4.25934E+01 -5.60328E+01 -3.07646E+01 -3.25560E+01 -4.07246E+01
  -1.57904E+01 -9.70841E+00 -3.89197E+00  3.43698E+00  1.43425E+01  1.86381E+01  2.53733E+01  4.97037E+01  4.85851E+01  5.16613E+01
   6.42969E+01  6.57064E+01  6.77204E+01  6.51677E+01  8.11524E+01  7.67829E+01  6.71651E+01  7.62040E+01  8.24638E+01  9.51767E+01
   7.33078E+01  6.97468E+01  7.64045E+01  6.55660E+01  7.72087E+01  8.17745E+01  1.12374E+02  1.31789E+02  1.35023E+02  1.46792E+02
   1.39668E+02  1.55249E+02  1.42213E+02  1.14280E+02  9.29584E+01  5.89397E+01  4.97619E+01  2.94697E+01  2.43475E+01  2.34111E+01
   5.12504E+00 -1.20752E+00 -1.84606E+01 -2.09216E+01 -1.34916E+01 -2.24678E+01 -1.98729E+01 -1.67648E+01 -2.10234E+01 -8.35479E+00
  -9.12349E+00 -1.16739E+01 -9.52439E+00 -1.30906E+01 -1.69095E+01 -2.23517E+01 -9.28984E+00 -1.99641E+01 -3.32402E+01 -3.45776E+01
  -2.93829E+01 -2.06792E+01 -2.24854E+01 -2.72669E+01 -3.15788E+01 -8.59586E+00 -2.22411E+01 -2.32582E+01 -8.05172E+00 -2.07576E+01
  -1.48911E+01 -1.48021E+01 -7.70399E+00 -4.69872E+00  5.95738E+00  4.43894E+00  6.70452E+00  2.97039E+01  2.91303E+01  1.48601E+01
   1.57434E+01  3.57881E+01  3.32934E+01  3.77593E+01  4.05564E+01  5.74468E+01  6.49109E+01  6.25489E+01  7.90541E+01  6.28191E+01
   6.20422E+01  5.14609E+01  2.64387E+01  8.43689E+00  7.72682E-01 -1.22799E+01 -2.01328E+01 -1.70441E+01 -2.89714E+01 -2.21701E+01
  -4.48666E+01 -5.16276E+01 -5.84871E+01 -6.68688E+01 -6.08520E+01 -7.53319E+01 -6.05593E+01 -7.38372E+01 -7.51704E+01 -7.20291E+01
  -7.48031E+01 -6.26899E+01 -7.90039E+01 -7.23170E+01 -5.85876E+01 -5.90012E+01 -7.13013E+01 -6.27851E+01 -4.33883E+01 -5.30905E+01
  -5.82822E+01 -5.75448E+01 -4.53419E+01 -3.84291E+01 -5.25438E+01 -5.59178E+01 -5.09878E+01 -5.35097E+01 -5.49560E+01 -5.85681E+01
  -4.83102E+01 -4.46985E+01 -7.18853E+01 -6.07211E+01 -4.52812E+01 -5.23964E+01 -4.75311E+01 -5.51783E+01 -4.67763E+01 -5.54948E+01
  -6.06050E+01 -4.52773E+01 -6.55566E+01 -5.50701E+01 -4.67776E+01 -4.79617E+01 -3.44949E+01 -3.79201E+01 -3.92285E+01 -5.38203E+01
  -5.02338E+01 -5.24697E+01 -6.61557E+01 -5.37838E+01 -5.43719E+01 -3.99076E+01 -3.32462E+01 -5.24452E+01 -4.39212E+01 -4.34393E+01
  -4.88573E+01 -4.38135E+01 -4.23873E+01 -4.60600E+01 -5.29963E+01 -4.23752E+01 -4.79544E+01 -4.38814E+01 -3.46356E+01 -4.36773E+01
  -4.27386E+01 -5.10012E+01 -4.22630E+01 -3.58151E+01 -4.72876E+01 -5.39115E+01 -4.03541E+01 -4.49249E+01 -4.77146E+01 -2.86809E+01
 NY points of the fit to the data follow
  -1.22230E+02 -1.20908E+02 -1.21510E+02 -1.22541E+02 -1.21842E+02 -1.17035E+02 -1.09811E+02 -1.04897E+02 -1.06045E+02 -1.13314E+02
  -1.22335E+02 -1.28915E+02 -1.32346E+02 -1.33768E+02 -1.34381E+02 -1.36020E+02 -1.38986E+02 -1.42398E+02 -1.47548E+02 -1.50684E+02
  -1.50384E+02 -1.43694E+02 -1.27561E+02 -1.02011E+02 -7.28993E+01 -4.93371E+01 -3.74326E+01 -3.62760E+01 -4.03854E+01 -4.44172E+01
  -4.55353E+01 -4.71307E+01 -4.95140E+01 -5.24019E+01 -5.59265E+01 -6.09014E+01 -6.79541E+01 -7.58746E+01 -8.48260E+01 -9.38474E+01
  -1.01572E+02 -1.04668E+02 -1.00691E+02 -8.92676E+01 -7.31362E+01 -5.65327E+01 -4.30094E+01 -3.41531E+01 -2.98896E+01 -3.00747E+01
  -3.31252E+01 -3.84145E+01 -4.41801E+01 -5.15790E+01 -6.19526E+01 -7.18149E+01 -7.93637E+01 -8.44627E+01 -8.52386E+01 -8.16415E+01
  -7.44992E+01 -6.47779E+01 -5.38608E+01 -4.42602E+01 -3.95894E+01 -3.89459E+01 -4.14983E+01 -5.10353E+01 -6.52624E+01 -7.73443E+01
  -8.25706E+01 -7.83176E+01 -6.67906E+01 -5.29565E+01 -4.03174E+01 -2.94547E+01 -2.10159E+01 -1.68505E+01 -1.94911E+01 -2.58446E+01
  -3.51198E+01 -4.69479E+01 -5.94911E+01 -6.99970E+01 -7.51891E+01 -7.28638E+01 -6.33504E+01 -4.97301E+01 -3.57926E+01 -2.50894E+01
  -1.73852E+01 -1.22102E+01 -7.54816E+00 -2.66515E+00  1.39682E+00  5.30604E+00  9.44234E+00  1.19771E+01  1.17011E+01  9.89672E+00
   4.34879E+00 -3.60988E+00 -1.43086E+01 -2.67033E+01 -4.21889E+01 -6.34362E+01 -8.38075E+01 -1.00968E+02 -1.18507E+02 -1.40412E+02
  -1.63824E+02 -1.78071E+02 -1.71147E+02 -1.47009E+02 -1.19638E+02 -1.01522E+02 -9.24048E+01 -8.45300E+01 -7.68933E+01 -6.93444E+01
  -6.16107E+01 -5.33488E+01 -4.41809E+01 -3.39623E+01 -2.23727E+01 -7.89796E+00  1.29009E+01  3.13690E+01  3.80822E+01  3.68677E+01
   2.91861E+01  7.90218E+00 -3.53295E+01 -9.53195E+01 -1.49502E+02 -1.74132E+02 -1.66267E+02 -1.45172E+02 -1.32283E+02 -1.28263E+02
  -1.25314E+02 -1.22771E+02 -1.20489E+02 -1.18301E+02 -1.16098E+02 -1.13653E+02 -1.10933E+02 -1.08037E+02 -1.05118E+02 -1.02300E+02
  -9.95964E+01 -9.70180E+01 -9.45521E+01 -9.22028E+01 -8.98612E+01 -8.75226E+01 -8.52939E+01 -8.36001E+01 -8.26984E+01 -8.20315E+01
  -8.09899E+01 -7.97236E+01 -7.92290E+01 -8.00953E+01 -8.16670E+01 -8.24322E+01 -8.09083E+01 -7.68698E+01 -7.18673E+01 -6.69819E+01
  -6.10314E+01 -5.31526E+01 -4.51110E+01 -4.03903E+01 -4.08362E+01 -4.34124E+01 -4.46085E+01 -4.48460E+01 -4.81978E+01 -5.70804E+01
  -6.85859E+01 -7.75355E+01 -8.18811E+01 -8.31148E+01 -8.34559E+01 -8.37656E+01 -8.34822E+01 -8.32139E+01 -8.30200E+01 -8.13801E+01
  -7.89739E+01 -7.65794E+01 -7.28435E+01 -6.75049E+01 -6.08220E+01 -5.51507E+01 -5.18887E+01 -4.97247E+01 -4.76943E+01 -4.58409E+01
  -4.52548E+01 -4.64849E+01 -4.78044E+01 -4.88809E+01 -5.17405E+01 -5.70406E+01 -6.42461E+01 -7.15981E+01 -7.71703E+01 -8.12335E+01
  -8.31007E+01 -7.94235E+01 -7.14439E+01 -5.79716E+01 -4.01022E+01 -2.05443E+01 -2.90950E+00  9.04154E+00  1.31372E+01  9.79780E+00
   1.41337E+00 -7.74381E+00 -1.45154E+01 -1.92666E+01 -2.16073E+01 -2.47256E+01 -2.96593E+01 -3.61005E+01 -4.35915E+01 -5.15285E+01
  -5.95971E+01 -6.73745E+01 -7.47575E+01 -8.16207E+01 -8.75618E+01 -9.24186E+01 -9.62897E+01 -9.81869E+01 -9.84607E+01 -9.66289E+01
  -9.31220E+01 -8.83963E+01 -8.28232E+01 -7.71258E+01 -7.21754E+01 -6.80142E+01 -6.62893E+01 -6.71410E+01 -7.01890E+01 -7.50810E+01
  -8.28896E+01 -9.97949E+01 -1.11217E+02 -1.12495E+02 -1.08942E+02 -1.01392E+02 -7.98660E+01 -3.46662E+01  2.85139E+01  8.34980E+01
   1.05122E+02  9.29043E+01  6.94200E+01  5.73446E+01  5.16729E+01  4.74314E+01  4.37802E+01  4.05832E+01  3.79785E+01  3.60413E+01
   3.47913E+01  3.41078E+01  3.38250E+01  3.37541E+01  3.36474E+01  3.33525E+01  3.28369E+01  3.21022E+01  3.12776E+01  3.03261E+01
   2.92174E+01  2.80525E+01  2.68813E+01  2.57713E+01  2.46622E+01  2.34379E+01  2.21091E+01  2.06515E+01  1.90694E+01  1.73463E+01
   1.55756E+01  1.39429E+01  1.26842E+01  1.19716E+01  1.19594E+01  1.27439E+01  1.43572E+01  1.66492E+01  1.93139E+01  2.21136E+01
   2.49193E+01  2.77067E+01  3.04839E+01  3.32615E+01  3.59805E+01  3.86545E+01  4.13270E+01  4.40538E+01  4.68402E+01  4.95975E+01
   5.21728E+01  5.45083E+01  5.66233E+01  5.85241E+01  6.01686E+01  6.14965E+01  6.24387E+01  6.29533E+01  6.30838E+01  6.28601E+01
   6.23755E+01  6.16313E+01  6.05425E+01  5.90121E+01  5.70502E+01  5.47002E+01  5.19965E+01  4.91477E+01  4.66531E+01  4.52919E+01
   4.58323E+01  4.89507E+01  5.52533E+01  6.52260E+01  7.39340E+01  7.91636E+01  7.92530E+01  6.94609E+01  4.87525E+01  1.69270E+01
  -2.18569E+01 -5.76510E+01 -7.87526E+01 -7.95568E+01 -6.41576E+01 -4.34760E+01 -2.57122E+01 -1.59561E+01 -1.28062E+01 -1.11178E+01
  -1.04464E+01 -1.07229E+01 -1.17131E+01 -1.30586E+01 -1.43382E+01 -1.51347E+01 -1.51733E+01 -1.44053E+01 -1.29684E+01 -1.11191E+01
  -9.01268E+00 -6.78046E+00 -4.56867E+00 -2.43713E+00 -4.51595E-01  1.34158E+00  2.96998E+00  4.50470E+00  6.03998E+00  7.62457E+00
   9.28667E+00  1.10130E+01  1.28610E+01  1.49596E+01  1.74130E+01  2.01826E+01  2.32569E+01  2.66669E+01  3.04163E+01  3.44455E+01
   3.86041E+01  4.26601E+01  4.63352E+01  4.92134E+01  5.07682E+01  5.04801E+01  4.80942E+01  4.36083E+01  3.73182E+01  2.99258E+01
   2.23291E+01  1.52523E+01  8.97335E+00  3.38243E+00 -1.98420E+00 -7.47869E+00 -1.33103E+01 -1.93816E+01 -2.54679E+01 -3.11165E+01
  -3.59613E+01 -3.98345E+01 -4.27918E+01 -4.50037E+01 -4.66932E+01 -4.80554E+01 -4.91513E+01 -5.00627E+01 -5.08818E+01 -5.16717E+01
  -5.23276E+01 -5.27967E+01 -5.31107E+01 -5.33925E+01 -5.36554E+01 -5.38681E+01 -5.40550E+01 -5.42358E+01 -5.44157E+01 -5.45469E+01
  -5.46114E+01 -5.46440E+01 -5.47196E+01 -5.48221E+01 -5.48778E+01 -5.48614E+01 -5.48267E+01 -5.47992E+01 -5.47089E+01 -5.45906E+01
  -5.44792E+01 -5.44499E+01 -5.44669E+01 -5.44525E+01 -5.43494E+01 -5.41561E+01 -5.39037E+01 -5.36313E+01 -5.34084E+01 -5.32304E+01
  -5.31030E+01 -5.29722E+01 -5.28396E+01 -5.27202E+01 -5.26065E+01 -5.24655E+01 -5.22799E+01 -5.20326E+01 -5.17551E+01 -5.14946E+01
  -5.12705E+01 -5.10609E+01 -5.08331E+01 -5.05464E+01 -5.02247E+01 -4.98674E+01 -4.95587E+01 -4.93068E+01 -4.90667E+01 -4.88268E+01
  -4.86003E+01 -4.83972E+01 -4.81988E+01 -4.79605E+01 -4.76480E+01 -4.72618E+01 -4.68287E+01 -4.63812E+01 -4.59404E+01 -4.55714E+01
  -4.53300E+01 -4.51578E+01 -4.49321E+01 -4.45934E+01 -4.41594E+01 -4.36623E+01 -4.31541E+01 -4.26238E+01 -4.20290E+01 -4.13194E+01
 NY background values follow
    -1.119E+02   -1.111E+02   -1.103E+02   -1.095E+02   -1.086E+02   -1.078E+02   -1.070E+02   -1.062E+02   -1.054E+02   -1.045E+02
    -1.037E+02   -1.029E+02   -1.021E+02   -1.012E+02   -1.004E+02   -9.960E+01   -9.878E+01   -9.796E+01   -9.714E+01   -9.632E+01
    -9.550E+01   -9.468E+01   -9.387E+01   -9.305E+01   -9.223E+01   -9.142E+01   -9.061E+01   -8.980E+01   -8.899E+01   -8.818E+01
    -8.737E+01   -8.656E+01   -8.576E+01   -8.496E+01   -8.416E+01   -8.337E+01   -8.258E+01   -8.180E+01   -8.103E+01   -8.026E+01
    -7.950E+01   -7.874E+01   -7.800E+01   -7.726E+01   -7.653E+01   -7.582E+01   -7.511E+01   -7.442E+01   -7.374E+01   -7.307E+01
    -7.241E+01   -7.177E+01   -7.114E+01   -7.053E+01   -6.994E+01   -6.936E+01   -6.880E+01   -6.825E+01   -6.773E+01   -6.722E+01
    -6.673E+01   -6.626E+01   -6.582E+01   -6.539E+01   -6.498E+01   -6.459E+01   -6.421E+01   -6.386E+01   -6.352E+01   -6.320E+01
    -6.289E+01   -6.260E+01   -6.233E+01   -6.207E+01   -6.183E+01   -6.160E+01   -6.139E+01   -6.119E+01   -6.100E+01   -6.082E+01
    -6.066E+01   -6.051E+01   -6.037E+01   -6.025E+01   -6.013E+01   -6.002E+01   -5.993E+01   -5.984E+01   -5.976E+01   -5.970E+01
    -5.964E+01   -5.958E+01   -5.954E+01   -5.950E+01   -5.947E+01   -5.945E+01   -5.943E+01   -5.941E+01   -5.940E+01   -5.939E+01
    -5.938E+01   -5.938E+01   -5.938E+01   -5.938E+01   -5.937E+01   -5.937E+01   -5.937E+01   -5.937E+01   -5.936E+01   -5.936E+01
    -5.935E+01   -5.933E+01   -5.931E+01   -5.929E+01   -5.926E+01   -5.922E+01   -5.918E+01   -5.913E+01   -5.908E+01   -5.901E+01
    -5.894E+01   -5.885E+01   -5.876E+01   -5.866E+01   -5.855E+01   -5.843E+01   -5.831E+01   -5.818E+01   -5.804E+01   -5.789E+01
    -5.774E+01   -5.758E+01   -5.742E+01   -5.725E+01   -5.707E+01   -5.690E+01   -5.671E+01   -5.653E+01   -5.634E+01   -5.614E+01
    -5.595E+01   -5.575E+01   -5.555E+01   -5.535E+01   -5.514E+01   -5.494E+01   -5.473E+01   -5.453E+01   -5.432E+01   -5.412E+01
    -5.391E+01   -5.371E+01   -5.350E+01   -5.330E+01   -5.310E+01   -5.290E+01   -5.270E+01   -5.250E+01   -5.230E+01   -5.210E+01
    -5.191E+01   -5.171E+01   -5.152E+01   -5.133E+01   -5.113E+01   -5.094E+01   -5.075E+01   -5.057E+01   -5.038E+01   -5.019E+01
    -5.001E+01   -4.983E+01   -4.964E+01   -4.946E+01   -4.928E+01   -4.911E+01   -4.893E+01   -4.875E+01   -4.858E+01   -4.841E+01
    -4.824E+01   -4.807E+01   -4.790E+01   -4.773E+01   -4.756E+01   -4.740E+01   -4.723E+01   -4.707E+01   -4.690E+01   -4.674E+01
    -4.657E+01   -4.640E+01   -4.623E+01   -4.606E+01   -4.589E+01   -4.572E+01   -4.555E+01   -4.537E+01   -4.520E+01   -4.502E+01
    -4.484E+01   -4.465E+01   -4.446E+01   -4.427E+01   -4.408E+01   -4.388E+01   -4.368E+01   -4.348E+01   -4.327E+01   -4.306E+01
    -4.284E+01   -4.262E+01   -4.239E+01   -4.216E+01   -4.193E+01   -4.170E+01   -4.146E+01   -4.122E+01   -4.098E+01   -4.075E+01
    -4.051E+01   -4.027E+01   -4.003E+01   -3.979E+01   -3.956E+01   -3.933E+01   -3.910E+01   -3.887E+01   -3.865E+01   -3.844E+01
    -3.822E+01   -3.802E+01   -3.782E+01   -3.762E+01   -3.743E+01   -3.725E+01   -3.708E+01   -3.692E+01   -3.676E+01   -3.661E+01
    -3.648E+01   -3.635E+01   -3.623E+01   -3.612E+01   -3.602E+01   -3.592E+01   -3.583E+01   -3.574E+01   -3.565E+01   -3.557E+01
    -3.549E+01   -3.541E+01   -3.533E+01   -3.525E+01   -3.517E+01   -3.508E+01   -3.500E+01   -3.490E+01   -3.481E+01   -3.470E+01
    -3.459E+01   -3.448E+01   -3.435E+01   -3.421E+01   -3.407E+01   -3.391E+01   -3.374E+01   -3.356E+01   -3.336E+01   -3.315E+01
    -3.293E+01   -3.268E+01   -3.243E+01   -3.215E+01   -3.186E+01   -3.155E+01   -3.122E+01   -3.087E+01   -3.050E+01   -3.011E+01
    -2.971E+01   -2.928E+01   -2.883E+01   -2.836E+01   -2.787E+01   -2.736E+01   -2.683E+01   -2.627E+01   -2.569E+01   -2.508E+01
    -2.445E+01   -2.380E+01   -2.312E+01   -2.241E+01   -2.168E+01   -2.092E+01   -2.014E+01   -1.932E+01   -1.849E+01   -1.762E+01
    -1.672E+01   -1.580E+01   -1.485E+01   -1.388E+01   -1.290E+01   -1.190E+01   -1.090E+01   -9.880E+00   -8.860E+00   -7.839E+00
    -6.821E+00   -5.807E+00   -4.803E+00   -3.811E+00   -2.833E+00   -1.874E+00   -9.370E-01   -2.446E-02    8.601E-01    1.713E+00
     2.532E+00    3.313E+00    4.054E+00    4.750E+00    5.399E+00    5.997E+00    6.542E+00    7.029E+00    7.456E+00    7.820E+00
     8.118E+00    8.349E+00    8.516E+00    8.621E+00    8.665E+00    8.651E+00    8.580E+00    8.455E+00    8.278E+00    8.050E+00
     7.773E+00    7.450E+00    7.083E+00    6.673E+00    6.222E+00    5.733E+00    5.207E+00    4.646E+00    4.053E+00    3.429E+00
     2.776E+00    2.097E+00    1.392E+00    6.652E-01   -8.269E-02   -8.494E-01   -1.633E+00   -2.431E+00   -3.243E+00   -4.065E+00
    -4.896E+00   -5.736E+00   -6.582E+00   -7.435E+00   -8.294E+00   -9.158E+00   -1.003E+01   -1.090E+01   -1.177E+01   -1.265E+01
    -1.353E+01   -1.441E+01   -1.528E+01   -1.616E+01   -1.704E+01   -1.791E+01   -1.878E+01   -1.965E+01   -2.051E+01   -2.137E+01
    -2.223E+01   -2.307E+01   -2.391E+01   -2.474E+01   -2.556E+01   -2.637E+01   -2.718E+01   -2.797E+01   -2.875E+01   -2.951E+01
    -3.027E+01   -3.101E+01   -3.174E+01   -3.245E+01   -3.315E+01   -3.384E+01   -3.451E+01   -3.517E+01   -3.581E+01   -3.644E+01
    -3.705E+01   -3.765E+01   -3.824E+01   -3.881E+01   -3.936E+01   -3.990E+01   -4.042E+01   -4.092E+01   -4.141E+01   -4.189E+01
    -4.234E+01   -4.278E+01   -4.321E+01   -4.361E+01   -4.400E+01   -4.438E+01   -4.473E+01   -4.507E+01   -4.539E+01   -4.569E+01
    -4.598E+01   -4.624E+01   -4.649E+01   -4.673E+01   -4.694E+01   -4.714E+01   -4.733E+01   -4.750E+01   -4.766E+01   -4.781E+01
    -4.794E+01   -4.806E+01   -4.817E+01   -4.827E+01   -4.835E+01   -4.843E+01   -4.850E+01   -4.855E+01   -4.860E+01   -4.865E+01
    -4.868E+01   -4.871E+01   -4.873E+01   -4.874E+01   -4.875E+01   -4.876E+01   -4.876E+01   -4.876E+01   -4.875E+01   -4.874E+01
    -4.873E+01   -4.872E+01   -4.871E+01   -4.869E+01   -4.867E+01   -4.865E+01   -4.863E+01   -4.861E+01   -4.859E+01   -4.856E+01
    -4.853E+01   -4.851E+01   -4.848E+01   -4.845E+01   -4.842E+01   -4.839E+01   -4.836E+01   -4.832E+01   -4.829E+01   -4.826E+01
    -4.822E+01   -4.819E+01   -4.815E+01   -4.812E+01   -4.808E+01   -4.805E+01   -4.801E+01   -4.798E+01   -4.794E+01   -4.791E+01
 Mac      Conc. = 1.91E-04
  -1.25975E+02 -1.25539E+02 -1.25107E+02 -1.24761E+02 -1.24590E+02 -1.24603E+02 -1.24735E+02 -1.24880E+02 -1.24893E+02 -1.24689E+02
  -1.24294E+02 -1.23837E+02 -1.23329E+02 -1.22673E+02 -1.21934E+02 -1.21003E+02 -1.19488E+02 -1.17070E+02 -1.13797E+02 -1.10196E+02
  -1.06868E+02 -1.04140E+02 -1.01930E+02 -1.00002E+02 -9.82498E+01 -9.66215E+01 -9.48932E+01 -9.29780E+01 -9.10386E+01 -8.92558E+01
  -8.77613E+01 -8.65294E+01 -8.54431E+01 -8.43560E+01 -8.32309E+01 -8.20659E+01 -8.07199E+01 -7.90678E+01 -7.72422E+01 -7.55596E+01
  -7.42921E+01 -7.33733E+01 -7.24848E+01 -7.13890E+01 -7.01961E+01 -6.92149E+01 -6.86366E+01 -6.84638E+01 -6.85522E+01 -6.87199E+01
  -6.88368E+01 -6.88213E+01 -6.85659E+01 -6.80687E+01 -6.73905E+01 -6.65153E+01 -6.53887E+01 -6.40845E+01 -6.27404E+01 -6.15113E+01
  -6.05074E+01 -5.97571E+01 -5.92709E+01 -5.91005E+01 -5.92247E+01 -5.93921E+01 -5.92838E+01 -5.88382E+01 -5.81405E+01 -5.71750E+01
  -5.59602E+01 -5.44992E+01 -5.30425E+01 -5.19442E+01 -5.13931E+01 -5.13246E+01 -5.15338E+01 -5.18608E+01 -5.21722E+01 -5.23470E+01
  -5.23332E+01 -5.21657E+01 -5.18181E+01 -5.13359E+01 -5.07393E+01 -5.00893E+01 -4.94959E+01 -4.90048E+01 -4.86071E+01 -4.82989E+01
  -4.81588E+01 -4.82195E+01 -4.85256E+01 -4.91213E+01 -5.00581E+01 -5.12983E+01 -5.28037E+01 -5.44703E+01 -5.61333E+01 -5.77410E+01
  -5.94001E+01 -6.13865E+01 -6.38573E+01 -6.68021E+01 -7.00543E+01 -7.33832E+01 -7.64894E+01 -7.88979E+01 -8.01051E+01 -7.99256E+01
