 LCModel (Version 6.3-1N) Copyright: S.W. Provencher.          Ref.: Magn. Reson. Med. 30:672-679 (1993).                
 Slice_N1@10_13  28-Feb-2025 11:36:38
 27 lines in following concentration table = NCONC+1
    Conc.  %SD /Cr+PCr  Metabolite                                         
 2.88E-04   4% 3.2E-04 Mac                                                 
    3.189  32%   3.519 Cr                                                  
    4.061  25%   4.481 PCr                                                 
    5.329  16%   5.880 Ins                                                 
    9.013   8%   9.945 NAA                                                 
    7.118  12%   7.854 Tau                                                 
    0.964  79%   1.064 PCho                                                
    0.370 203%   0.408 GPC                                                 
    9.526  11%  10.511 Glu                                                 
    4.917  17%   5.425 Gln                                                 
    0.000 999%   0.000 Ala                                                 
    1.455  80%   1.605 Asc                                                 
    1.594  50%   1.759 Asp                                                 
    0.356 124%   0.393 GABA                                                
    0.653  81%   0.721 Glc                                                 
    0.990  48%   1.093 GSH                                                 
    1.827  35%   2.016 Lac                                                 
    1.215  42%   1.340 NAAG                                                
    2.978  34%   3.286 PE                                                  
    1.334  20%   1.472 GPC+PCho                                            
   10.228   8%  11.285 NAA+NAAG                                            
   14.443   9%  15.937 Glu+Gln                                             
    7.250   9%   8.000 Cr+PCr                                              
   10.228   8%  11.285 NAA+NAAG                                            
    7.250   9%   8.000 Cr+PCr                                              
   14.443   9%  15.937 Glu+Gln                                             
   6 lines in following misc. output table
  FWHM = 0.016 ppm    S/N =   4                                            
  Data shift = 0.024 ppm                                                   
  Ph: 166 deg       0.0 deg/ppm                                            
  alphaB,S = 6.3E-01,   4.1E+00                                            
   19 spline knots.   Ns = 5(1)                                            
  ( 5) 3 infls.   ( 3) 3 extrs.                                            
  480 points on ppm-axis = NY
      4.100000     4.091866     4.083733     4.075600     4.067466     4.059333     4.051199     4.043066     4.034933     4.026799
      4.018666     4.010532     4.002399     3.994265     3.986132     3.977998     3.969864     3.961731     3.953597     3.945463
      3.937330     3.929196     3.921062     3.912929     3.904795     3.896662     3.888528     3.880394     3.872261     3.864127
      3.855993     3.847860     3.839726     3.831592     3.823459     3.815325     3.807191     3.799058     3.790924     3.782790
      3.774657     3.766523     3.758389     3.750256     3.742122     3.733989     3.725855     3.717721     3.709588     3.701454
      3.693320     3.685187     3.677053     3.668919     3.660786     3.652652     3.644518     3.636385     3.628251     3.620117
      3.611984     3.603850     3.595716     3.587583     3.579449     3.571316     3.563182     3.555048     3.546915     3.538781
      3.530647     3.522514     3.514380     3.506246     3.498113     3.489979     3.481845     3.473712     3.465578     3.457444
      3.449311     3.441177     3.433043     3.424910     3.416776     3.408643     3.400509     3.392375     3.384242     3.376108
      3.367974     3.359841     3.351707     3.343573     3.335440     3.327306     3.319172     3.311039     3.302905     3.294771
      3.286638     3.278504     3.270370     3.262237     3.254103     3.245970     3.237836     3.229702     3.221569     3.213435
      3.205301     3.197168     3.189034     3.180900     3.172767     3.164633     3.156499     3.148366     3.140232     3.132098
      3.123965     3.115831     3.107697     3.099564     3.091430     3.083297     3.075163     3.067029     3.058896     3.050762
      3.042628     3.034495     3.026361     3.018227     3.010094     3.001960     2.993826     2.985693     2.977559     2.969425
      2.961292     2.953158     2.945024     2.936891     2.928757     2.920624     2.912490     2.904356     2.896223     2.888089
      2.879955     2.871822     2.863688     2.855554     2.847421     2.839287     2.831153     2.823020     2.814886     2.806752
      2.798619     2.790485     2.782351     2.774218     2.766084     2.757951     2.749817     2.741683     2.733550     2.725416
      2.717282     2.709149     2.701015     2.692881     2.684748     2.676614     2.668480     2.660347     2.652213     2.644079
      2.635946     2.627812     2.619678     2.611545     2.603411     2.595278     2.587144     2.579010     2.570877     2.562743
      2.554609     2.546476     2.538342     2.530208     2.522075     2.513941     2.505807     2.497674     2.489540     2.481406
      2.473273     2.465139     2.457006     2.448872     2.440738     2.432605     2.424471     2.416337     2.408204     2.400070
      2.391936     2.383803     2.375669     2.367535     2.359402     2.351268     2.343134     2.335001     2.326867     2.318733
      2.310600     2.302466     2.294333     2.286199     2.278065     2.269932     2.261798     2.253664     2.245531     2.237397
      2.229263     2.221130     2.212996     2.204862     2.196729     2.188595     2.180461     2.172328     2.164194     2.156060
      2.147927     2.139793     2.131660     2.123526     2.115392     2.107259     2.099125     2.090991     2.082858     2.074724
      2.066590     2.058457     2.050323     2.042189     2.034056     2.025922     2.017788     2.009655     2.001521     1.993387
      1.985254     1.977120     1.968987     1.960853     1.952719     1.944586     1.936452     1.928318     1.920185     1.912051
      1.903917     1.895784     1.887650     1.879516     1.871383     1.863249     1.855115     1.846982     1.838848     1.830714
      1.822581     1.814447     1.806314     1.798180     1.790046     1.781913     1.773779     1.765645     1.757512     1.749378
      1.741244     1.733111     1.724977     1.716843     1.708710     1.700576     1.692442     1.684309     1.676175     1.668041
      1.659908     1.651774     1.643641     1.635507     1.627373     1.619240     1.611106     1.602972     1.594839     1.586705
      1.578571     1.570438     1.562304     1.554170     1.546037     1.537903     1.529769     1.521636     1.513502     1.505368
      1.497235     1.489101     1.480968     1.472834     1.464700     1.456567     1.448433     1.440299     1.432166     1.424032
      1.415898     1.407765     1.399631     1.391497     1.383364     1.375230     1.367096     1.358963     1.350829     1.342695
      1.334562     1.326428     1.318295     1.310161     1.302027     1.293894     1.285760     1.277626     1.269493     1.261359
      1.253225     1.245092     1.236958     1.228824     1.220691     1.212557     1.204423     1.196290     1.188156     1.180022
      1.171889     1.163755     1.155622     1.147488     1.139354     1.131221     1.123087     1.114953     1.106820     1.098686
      1.090552     1.082419     1.074285     1.066151     1.058018     1.049884     1.041750     1.033617     1.025483     1.017349
      1.009216     1.001082     0.992949     0.984815     0.976681     0.968548     0.960414     0.952280     0.944147     0.936013
      0.927879     0.919746     0.911612     0.903478     0.895345     0.887211     0.879077     0.870944     0.862810     0.854676
      0.846543     0.838409     0.830276     0.822142     0.814008     0.805875     0.797741     0.789607     0.781474     0.773340
      0.765206     0.757073     0.748939     0.740805     0.732672     0.724538     0.716404     0.708271     0.700137     0.692003
      0.683870     0.675736     0.667603     0.659469     0.651335     0.643202     0.635068     0.626934     0.618801     0.610667
      0.602533     0.594400     0.586266     0.578132     0.569999     0.561865     0.553731     0.545598     0.537464     0.529330
      0.521197     0.513063     0.504930     0.496796     0.488662     0.480529     0.472395     0.464261     0.456128     0.447994
      0.439861     0.431727     0.423593     0.415460     0.407326     0.399192     0.391059     0.382925     0.374792     0.366658
      0.358524     0.350391     0.342257     0.334124     0.325990     0.317856     0.309723     0.301589     0.293455     0.285322
      0.277188     0.269055     0.260921     0.252787     0.244654     0.236520     0.228386     0.220253     0.212119     0.203986
 NY phased data points follow
   1.00202E+01 -2.12760E+00  1.63276E+00 -3.44560E+00 -1.73148E+01  6.42927E+00  9.42792E+00  5.21300E+00  6.46126E+00  9.40795E+00
  -1.47272E+01 -2.99207E+01 -1.54562E+01 -2.30529E+01 -2.90382E+01 -1.36592E+01 -1.96173E+01 -4.35657E+01 -1.91817E+01 -3.41980E+01
  -7.18467E+01 -4.47463E+01 -3.37622E+01 -7.93911E+00  2.31895E+01  3.67958E+01  5.31648E+01  4.63068E+01  4.59691E+01  4.28763E+01
   5.08118E+01  5.73900E+01  4.66756E+01  4.46064E+01  3.51733E+01  4.31305E+01  5.62915E+01  4.80780E+01  2.16362E+01 -1.87390E+01
  -3.14615E+01 -2.90387E+01 -3.26770E+01 -2.30711E+01 -8.72383E+00  2.66885E+01  5.25805E+01  6.18558E+01  8.90405E+01  6.81834E+01
   5.78009E+01  7.98154E+01  5.74743E+01  5.98010E+01  6.56137E+01  3.73271E+01  4.47431E+01  4.71406E+01  1.43091E+01  1.56774E+01
   3.12559E+01  3.09560E+01  3.27148E+01  3.45422E+01  4.73370E+01  6.21395E+01  7.61895E+01  7.22092E+01  5.14634E+01  2.42320E+01
  -9.07703E+00  1.33500E+01  1.60289E+01  1.10940E+01  7.19138E+01  6.07028E+01  5.64860E+01  8.38881E+01  5.25317E+01  5.84211E+01
   6.54982E+01  6.03106E+01  5.93474E+01  2.04481E+01 -1.28667E+00  4.61454E+00  8.76758E+00  2.16307E+01  3.63454E+01  5.20851E+01
   4.92812E+01  5.22303E+01  8.42586E+01  8.28938E+01  8.87915E+01  1.01256E+02  1.00156E+02  8.88556E+01  7.34598E+01  8.36181E+01
   7.81496E+01  8.42956E+01  6.94489E+01  6.87052E+01  5.29378E+01 -9.55314E+00  8.55409E+00  5.95366E+00 -4.51680E+00 -2.49981E+01
  -1.07544E+02 -1.38622E+02 -1.27108E+02 -9.11571E+01 -6.41417E+01 -5.02015E+01 -2.18527E+01 -1.37462E+01 -8.43733E+00 -1.21996E+01
  -1.45108E+00  2.55156E+01  1.65772E+01  3.00565E+01  4.15064E+01  3.72574E+01  4.55068E+01  5.58500E+01  7.91328E+01  9.40835E+01
   1.56031E+02  1.84218E+02  8.26399E+01 -3.41520E+01 -7.40182E+01 -6.91792E+01 -7.09043E+01 -6.08419E+01 -5.19641E+01 -5.12303E+01
  -5.16028E+01 -5.22917E+01 -5.60784E+01 -5.12600E+01 -5.33230E+01 -6.15883E+01 -3.72487E+01 -4.30121E+01 -4.41294E+01 -1.55020E+01
  -4.10219E+01 -4.18998E+01 -2.38703E+01 -3.45647E+01 -7.27263E+00 -1.88368E+01 -7.94385E+00  1.39008E+00 -2.66668E+01  9.71323E+00
  -1.54696E+01 -1.15958E+01  6.26413E+00 -1.06601E+01 -8.84445E+00 -1.98589E+01 -2.35776E+00 -2.60100E+01 -1.12260E+01  1.58162E+01
   1.46768E+01  2.07441E+01  1.95992E+01  3.71980E+01  2.54483E+01  2.19389E+01  2.35546E+01  3.51262E+01  3.25142E+01  1.53322E+01
   7.50585E+00 -9.15816E+00 -2.47576E+01 -3.04214E+01 -7.97390E+00 -2.30255E+01 -2.14708E+01 -4.62244E-01 -1.09493E+01 -1.36179E+01
  -1.24358E+01 -7.40646E-01 -1.23363E+00 -1.27871E+00  9.44372E+00 -1.75390E-01 -1.57256E+01 -7.97029E+00  1.12805E+01  1.35990E+00
  -1.68326E+01  8.09377E+00  1.87861E+01  2.39509E+01  4.28042E+01  3.51762E+01  2.62771E+01  1.73460E+01  1.21481E+01 -1.30372E+01
  -2.07864E+01 -2.33468E+01 -2.96283E+01 -1.33985E+01  4.03325E+00  4.65662E+01  6.75201E+01  8.05092E+01  8.61557E+01  8.39515E+01
   5.43085E+01  2.14995E+01  2.53222E+01  2.17439E+01  3.63272E+01  2.68029E+01  2.64802E+01  2.55160E+01  2.10281E+01  3.34207E+01
   1.02908E+01  6.34841E+00  6.59583E+00  2.80120E+00 -6.40043E+00 -1.59483E+01 -1.14018E+01 -3.91017E+01 -5.73902E+01 -5.68186E+01
  -6.49636E+01 -5.05608E+01 -3.67119E+01 -1.68786E+01 -7.88976E+00 -2.64579E+00  1.62982E+01  1.87825E+01  1.74075E+01 -1.85066E+01
  -1.27173E+01 -9.79554E+00 -1.25910E+01 -5.52832E+00 -2.50381E+01 -3.20195E+01 -1.21103E+02 -6.86888E+01  8.24743E+01  1.44979E+02
   1.81364E+02  1.78845E+02  1.86677E+02  1.28274E+02  1.09286E+02  1.18056E+02  8.44140E+01  1.13370E+02  1.09226E+02  8.52485E+01
   9.82589E+01  9.97567E+01  8.23603E+01  7.77154E+01  8.48477E+01  7.91871E+01  7.40117E+01  7.06880E+01  6.69482E+01  7.85734E+01
   8.35611E+01  8.31561E+01  5.71968E+01  5.82640E+01  8.31233E+01  6.52120E+01  6.95339E+01  6.50552E+01  7.18792E+01  5.42476E+01
   3.36165E+01  4.70866E+01  3.97910E+01  3.85935E+01  2.15776E+01  3.07595E+01  1.83761E+01  6.14165E+00  1.31887E+01  3.05027E+01
   3.61030E+01  1.62090E+01  3.04331E+01  2.86839E+01  4.16526E+01  4.60834E+01  5.72229E+01  4.21155E+01  4.96732E+01  6.65694E+01
   5.96321E+01  8.67595E+01  5.23803E+01  9.52296E+01  1.20296E+02  1.17125E+02  1.53394E+02  1.46724E+02  1.44363E+02  1.36622E+02
   1.37003E+02  1.07922E+02  1.07836E+02  1.08996E+02  1.04681E+02  1.00989E+02  1.08397E+02  1.14863E+02  9.68272E+01  1.06749E+02
   8.12827E+01  8.19862E+01  5.18676E+01  4.54077E+01  3.96305E+01  5.29874E+00  3.12110E+01  1.68081E+01  1.42600E+01  1.20975E+01
   2.11883E+01  1.02534E+01  1.51650E+01  2.10642E+01 -2.76601E+00  4.22896E+01  5.11713E+01  4.03544E+01  4.83568E+01  5.13975E+01
   2.90424E+01  2.86606E+01  2.21326E+01  9.17232E+00  4.00300E+01  3.05164E+01  2.31714E+01  1.53933E+01  9.78092E+00  1.79153E+01
   1.97498E+01  1.29596E+01  1.74683E+01  2.42016E+01  2.15963E+01  3.38948E+01  3.50349E+01  4.73297E+01  3.47199E+01  3.55753E+01
   5.05588E+01  4.93993E+01  5.15609E+01  5.38711E+01  6.48685E+01  5.63241E+01  6.67312E+01  5.75646E+01  5.26683E+01  6.03665E+01
   6.30736E+01  7.70067E+01  8.20045E+01  1.03985E+02  9.30048E+01  9.00576E+01  1.07509E+02  1.22545E+02  1.40571E+02  1.44437E+02
   1.44051E+02  1.23480E+02  9.48556E+01  8.79523E+01  7.53377E+01  4.75480E+01  6.09947E+01  5.66904E+01  4.55384E+01  2.89743E+01
   1.38350E+01  3.05187E+01  7.16382E+00  2.97943E+00 -7.40446E+00 -1.27750E+01 -6.15706E+00 -1.83193E+01 -1.99395E+01 -2.09995E+01
  -7.43823E+00 -1.27835E+01 -1.57716E+01 -2.33549E+01 -1.50913E+01 -5.70361E+00 -3.15068E+01 -3.53370E+01 -1.88969E+01 -4.48215E+00
  -1.15315E+01 -1.40657E+01 -2.24500E+01 -2.45763E+01 -1.27604E+01 -2.05785E+01 -3.05272E+01 -7.78113E+00 -1.22122E+00 -3.25372E+01
  -3.38223E+01 -2.00797E+01 -1.19881E+00 -9.42724E+00 -1.57611E+01 -1.64469E+01 -4.81079E+00  7.06630E+00 -1.08754E+01 -1.88927E+00
  -2.53454E+01 -2.16237E+01 -1.45900E+01 -9.41835E+00 -1.74966E+00 -2.40209E+01 -1.34670E+01 -2.06017E+01  4.04505E-01  7.71815E-01
  -9.60140E+00  7.88897E-01  7.73708E+00 -1.74002E+00 -2.11947E+01 -6.77581E+00 -1.19286E+01  1.94333E+00 -1.46386E+01 -9.72369E+00
  -3.35411E+00 -1.86266E+01 -9.03794E+00 -2.18097E+01  3.38868E-01 -1.50481E+01  2.43780E+00  7.32518E+00 -2.10556E+01  5.45732E+00
   4.81477E+00  4.70707E-01 -1.09793E+01  4.42591E-01 -3.20656E+00 -1.77166E+01 -4.10038E+00  4.13643E+00  7.10523E+00 -1.29376E+01
 NY points of the fit to the data follow
   1.66849E+00 -7.73773E-01 -6.76712E+00 -1.58594E+01 -2.12643E+01 -1.22127E+01  4.77965E+00  1.43386E+01  1.24255E+01  4.81395E+00
  -5.07762E+00 -1.52345E+01 -2.20846E+01 -2.50538E+01 -2.56322E+01 -2.28156E+01 -1.81436E+01 -1.67497E+01 -1.88068E+01 -3.61875E+01
  -5.72653E+01 -5.03309E+01 -2.91063E+01 -3.34634E+00  2.89334E+01  4.94376E+01  5.09529E+01  5.12722E+01  5.15309E+01  5.10876E+01
   5.18312E+01  5.14578E+01  5.07442E+01  4.94050E+01  4.69768E+01  4.45102E+01  4.29893E+01  3.91218E+01  2.94311E+01  7.33018E+00
  -2.14378E+01 -3.68189E+01 -3.37631E+01 -1.94383E+01  2.38563E+00  2.91770E+01  4.84109E+01  5.84112E+01  6.29243E+01  6.43182E+01
   6.24976E+01  6.10998E+01  5.97471E+01  5.53915E+01  4.79806E+01  3.70804E+01  2.79119E+01  2.66171E+01  1.87792E+01  8.78767E+00
   1.72113E+01  2.46391E+01  2.38056E+01  3.60554E+01  5.32845E+01  6.22330E+01  6.88237E+01  6.87389E+01  5.01840E+01  2.12524E+01
   8.89402E+00  1.39018E+01  1.65684E+01  2.27825E+01  3.95855E+01  5.38085E+01  6.23272E+01  7.00550E+01  7.55162E+01  8.07482E+01
   7.79841E+01  6.74207E+01  4.67224E+01  1.63634E+01 -4.05507E+00 -1.18875E+01 -4.88465E+00  1.31946E+01  3.33066E+01  4.45780E+01
   5.39301E+01  5.90332E+01  6.28970E+01  6.69346E+01  7.12013E+01  7.52330E+01  7.86110E+01  8.22045E+01  8.35807E+01  8.30462E+01
   9.01431E+01  1.00410E+02  9.14589E+01  7.62071E+01  5.75284E+01  2.80167E+01  1.50500E+01  1.62361E+01  1.57165E+01 -2.30196E+01
  -8.93354E+01 -1.22208E+02 -1.07378E+02 -8.37333E+01 -5.81924E+01 -3.44730E+01 -2.44751E+01 -1.68726E+01 -9.73228E+00 -3.28090E+00
   2.62134E+00  8.57339E+00  1.44756E+01  2.09897E+01  2.89514E+01  3.86296E+01  4.92197E+01  6.19531E+01  8.46127E+01  1.12308E+02
   1.60487E+02  1.77223E+02  8.86203E+01 -1.87229E+01 -6.46898E+01 -7.57826E+01 -7.40688E+01 -5.32430E+01 -4.38767E+01 -4.28963E+01
  -4.24479E+01 -4.23895E+01 -4.28345E+01 -4.29752E+01 -4.32898E+01 -4.31731E+01 -4.15949E+01 -3.88454E+01 -3.54697E+01 -3.20204E+01
  -2.88238E+01 -2.61768E+01 -2.44416E+01 -2.28694E+01 -2.02855E+01 -1.72345E+01 -1.49782E+01 -1.39864E+01 -1.34785E+01 -1.24711E+01
  -1.00950E+01 -7.33736E+00 -6.96593E+00 -8.84942E+00 -1.01352E+01 -9.45954E+00 -7.60487E+00 -7.35111E+00 -1.03689E+01 -1.28365E+01
  -8.87070E+00  4.92967E+00  2.11601E+01  2.35676E+01  1.31435E+01  7.74543E+00  1.49786E+01  2.81560E+01  3.17767E+01  1.99794E+01
   5.77205E+00 -3.91762E+00 -1.11841E+01 -1.50525E+01 -1.59343E+01 -1.68819E+01 -1.70775E+01 -1.64972E+01 -1.50942E+01 -1.41462E+01
  -1.31897E+01 -1.18021E+01 -1.31874E+01 -1.18345E+01 -2.02915E+00  3.52435E+00  5.11324E-01  1.91098E+00  7.49115E+00  9.50661E+00
   8.25924E+00  9.61897E+00  1.81271E+01  2.92891E+01  3.30488E+01  3.00251E+01  2.58601E+01  1.74184E+01  4.56285E+00 -7.14438E+00
  -1.63808E+01 -2.67667E+01 -2.72613E+01 -2.06521E+01 -5.47970E+00  2.96996E+01  5.80051E+01  7.16256E+01  7.96248E+01  7.22225E+01
   5.29508E+01  4.24438E+01  3.77197E+01  3.69960E+01  4.07856E+01  4.29932E+01  4.32262E+01  3.99618E+01  3.31152E+01  2.44806E+01
   1.41052E+01  2.46819E+00 -8.69323E+00 -1.90576E+01 -3.05454E+01 -4.06387E+01 -4.78897E+01 -5.50715E+01 -5.91739E+01 -5.77107E+01
  -5.73421E+01 -5.14036E+01 -3.95160E+01 -2.67100E+01 -1.05069E+01  1.61926E+00  7.80122E+00  8.70309E+00  4.75698E+00  1.90472E-01
  -4.00710E+00 -8.53606E+00 -9.15860E+00 -7.71407E+00 -1.02718E+01 -5.35636E+01 -1.11335E+02 -6.58232E+01  5.95544E+01  1.39538E+02
   1.64800E+02  1.67620E+02  1.46507E+02  1.24321E+02  1.17372E+02  1.13217E+02  1.09361E+02  1.05553E+02  1.01716E+02  9.82970E+01
   9.62861E+01  9.52331E+01  9.51094E+01  9.52232E+01  9.54315E+01  9.50985E+01  9.41126E+01  9.29881E+01  9.21667E+01  9.11423E+01
   8.95725E+01  8.75970E+01  8.53397E+01  8.35654E+01  8.17053E+01  7.94894E+01  7.74680E+01  7.54752E+01  7.32300E+01  7.05889E+01
   6.71152E+01  6.32025E+01  5.89974E+01  5.39785E+01  4.92219E+01  4.60516E+01  4.48230E+01  4.54907E+01  4.76106E+01  5.00281E+01
   5.24747E+01  5.53349E+01  5.84086E+01  6.13692E+01  6.40783E+01  6.64020E+01  6.81980E+01  7.00420E+01  7.26457E+01  7.55628E+01
   7.81143E+01  8.02884E+01  8.19645E+01  8.36250E+01  8.55783E+01  8.68818E+01  8.75172E+01  8.79992E+01  8.72793E+01  8.53583E+01
   8.35463E+01  8.14414E+01  7.81264E+01  7.48067E+01  7.16948E+01  6.82329E+01  6.33704E+01  5.58881E+01  4.58701E+01  3.51747E+01
   2.49470E+01  1.56572E+01  8.22966E+00  3.72828E+00  2.63121E+00  5.38496E+00  1.12956E+01  1.92358E+01  2.74829E+01  3.64761E+01
   3.94344E+01  3.25337E+01  2.43470E+01  1.56985E+01  1.01671E+01  1.37326E+01  2.19432E+01  2.71832E+01  3.17749E+01  3.47208E+01
   3.50916E+01  3.42675E+01  3.20925E+01  2.80893E+01  2.23755E+01  1.66617E+01  1.26004E+01  1.01111E+01  9.45385E+00  1.05453E+01
   1.27192E+01  1.57820E+01  1.95302E+01  2.34117E+01  2.73398E+01  3.10319E+01  3.43247E+01  3.72948E+01  4.00211E+01  4.29646E+01
   4.59611E+01  4.87209E+01  5.16123E+01  5.44601E+01  5.72518E+01  6.10338E+01  6.55592E+01  6.98672E+01  7.51476E+01  8.16709E+01
   8.80372E+01  9.45543E+01  1.02652E+02  1.11779E+02  1.21021E+02  1.30126E+02  1.37363E+02  1.40351E+02  1.37322E+02  1.28199E+02
   1.15090E+02  1.01791E+02  9.02817E+01  8.10010E+01  7.42910E+01  6.91106E+01  6.29851E+01  5.46220E+01  4.51917E+01  3.46743E+01
   2.39192E+01  1.50096E+01  8.39273E+00  3.17711E+00 -7.11718E-01 -3.08232E+00 -4.49780E+00 -5.50376E+00 -6.50847E+00 -7.66418E+00
  -8.93665E+00 -9.91656E+00 -1.02879E+01 -1.03944E+01 -1.06000E+01 -1.05994E+01 -1.03040E+01 -1.02324E+01 -1.09762E+01 -1.13263E+01
  -1.06998E+01 -1.02689E+01 -1.04864E+01 -1.05721E+01 -1.03733E+01 -1.03094E+01 -1.04719E+01 -1.08302E+01 -1.06764E+01 -1.00288E+01
  -9.62749E+00 -9.51769E+00 -9.65447E+00 -1.00095E+01 -1.03920E+01 -1.03218E+01 -1.01091E+01 -9.88468E+00 -9.46827E+00 -9.11988E+00
  -8.95385E+00 -8.80194E+00 -8.46704E+00 -8.49693E+00 -8.93654E+00 -9.42457E+00 -9.48454E+00 -9.23364E+00 -8.99721E+00 -8.71718E+00
  -8.47919E+00 -8.75629E+00 -9.07645E+00 -8.81499E+00 -8.51307E+00 -8.31275E+00 -7.96958E+00 -7.81175E+00 -7.77124E+00 -7.56825E+00
  -7.36414E+00 -7.30790E+00 -7.39684E+00 -7.75523E+00 -7.93761E+00 -8.03433E+00 -7.94395E+00 -7.38397E+00 -6.49940E+00 -5.91729E+00
  -5.89239E+00 -6.23514E+00 -6.79414E+00 -6.95966E+00 -6.75148E+00 -6.68873E+00 -6.64667E+00 -6.21915E+00 -6.19560E+00 -6.65102E+00
 NY background values follow
     2.701E+01    2.701E+01    2.701E+01    2.701E+01    2.701E+01    2.701E+01    2.701E+01    2.701E+01    2.701E+01    2.701E+01
     2.701E+01    2.701E+01    2.701E+01    2.700E+01    2.700E+01    2.700E+01    2.700E+01    2.700E+01    2.700E+01    2.700E+01
     2.700E+01    2.700E+01    2.700E+01    2.700E+01    2.700E+01    2.700E+01    2.700E+01    2.700E+01    2.700E+01    2.700E+01
     2.700E+01    2.700E+01    2.700E+01    2.700E+01    2.700E+01    2.700E+01    2.700E+01    2.700E+01    2.700E+01    2.700E+01
     2.700E+01    2.700E+01    2.700E+01    2.700E+01    2.700E+01    2.700E+01    2.700E+01    2.700E+01    2.700E+01    2.700E+01
     2.700E+01    2.700E+01    2.700E+01    2.700E+01    2.700E+01    2.700E+01    2.700E+01    2.700E+01    2.700E+01    2.700E+01
     2.700E+01    2.700E+01    2.700E+01    2.699E+01    2.699E+01    2.699E+01    2.699E+01    2.699E+01    2.699E+01    2.699E+01
     2.698E+01    2.698E+01    2.698E+01    2.698E+01    2.698E+01    2.697E+01    2.697E+01    2.697E+01    2.697E+01    2.697E+01
     2.696E+01    2.696E+01    2.696E+01    2.696E+01    2.696E+01    2.695E+01    2.695E+01    2.695E+01    2.695E+01    2.695E+01
     2.694E+01    2.694E+01    2.694E+01    2.694E+01    2.694E+01    2.693E+01    2.693E+01    2.693E+01    2.693E+01    2.693E+01
     2.693E+01    2.692E+01    2.692E+01    2.692E+01    2.692E+01    2.692E+01    2.692E+01    2.692E+01    2.692E+01    2.692E+01
     2.692E+01    2.692E+01    2.692E+01    2.692E+01    2.692E+01    2.692E+01    2.692E+01    2.692E+01    2.692E+01    2.692E+01
     2.692E+01    2.692E+01    2.692E+01    2.693E+01    2.693E+01    2.693E+01    2.693E+01    2.694E+01    2.694E+01    2.694E+01
     2.694E+01    2.695E+01    2.695E+01    2.695E+01    2.696E+01    2.696E+01    2.696E+01    2.697E+01    2.697E+01    2.697E+01
     2.698E+01    2.698E+01    2.698E+01    2.699E+01    2.699E+01    2.699E+01    2.700E+01    2.700E+01    2.700E+01    2.701E+01
     2.701E+01    2.701E+01    2.702E+01    2.702E+01    2.702E+01    2.703E+01    2.703E+01    2.703E+01    2.703E+01    2.704E+01
     2.704E+01    2.704E+01    2.704E+01    2.704E+01    2.705E+01    2.705E+01    2.705E+01    2.705E+01    2.705E+01    2.705E+01
     2.705E+01    2.705E+01    2.705E+01    2.705E+01    2.705E+01    2.705E+01    2.704E+01    2.704E+01    2.704E+01    2.704E+01
     2.703E+01    2.703E+01    2.702E+01    2.702E+01    2.702E+01    2.701E+01    2.700E+01    2.700E+01    2.699E+01    2.698E+01
     2.698E+01    2.697E+01    2.696E+01    2.695E+01    2.694E+01    2.693E+01    2.692E+01    2.691E+01    2.690E+01    2.689E+01
     2.688E+01    2.687E+01    2.685E+01    2.684E+01    2.682E+01    2.681E+01    2.680E+01    2.678E+01    2.676E+01    2.675E+01
     2.673E+01    2.671E+01    2.670E+01    2.668E+01    2.666E+01    2.664E+01    2.662E+01    2.660E+01    2.658E+01    2.655E+01
     2.653E+01    2.651E+01    2.649E+01    2.646E+01    2.644E+01    2.641E+01    2.638E+01    2.636E+01    2.633E+01    2.630E+01
     2.628E+01    2.625E+01    2.622E+01    2.619E+01    2.616E+01    2.612E+01    2.609E+01    2.606E+01    2.602E+01    2.599E+01
     2.596E+01    2.592E+01    2.588E+01    2.585E+01    2.581E+01    2.577E+01    2.573E+01    2.569E+01    2.565E+01    2.561E+01
     2.557E+01    2.553E+01    2.548E+01    2.544E+01    2.540E+01    2.535E+01    2.531E+01    2.526E+01    2.522E+01    2.517E+01
     2.512E+01    2.507E+01    2.502E+01    2.498E+01    2.493E+01    2.488E+01    2.483E+01    2.478E+01    2.472E+01    2.467E+01
     2.462E+01    2.457E+01    2.451E+01    2.446E+01    2.440E+01    2.435E+01    2.429E+01    2.424E+01    2.418E+01    2.412E+01
     2.407E+01    2.401E+01    2.395E+01    2.389E+01    2.383E+01    2.377E+01    2.371E+01    2.365E+01    2.359E+01    2.352E+01
     2.346E+01    2.339E+01    2.333E+01    2.326E+01    2.320E+01    2.313E+01    2.306E+01    2.300E+01    2.293E+01    2.286E+01
     2.279E+01    2.272E+01    2.265E+01    2.257E+01    2.250E+01    2.243E+01    2.235E+01    2.227E+01    2.220E+01    2.212E+01
     2.204E+01    2.196E+01    2.188E+01    2.180E+01    2.171E+01    2.163E+01    2.154E+01    2.145E+01    2.137E+01    2.128E+01
     2.118E+01    2.109E+01    2.100E+01    2.090E+01    2.080E+01    2.070E+01    2.060E+01    2.050E+01    2.040E+01    2.029E+01
     2.018E+01    2.008E+01    1.996E+01    1.985E+01    1.974E+01    1.962E+01    1.950E+01    1.939E+01    1.926E+01    1.914E+01
     1.902E+01    1.889E+01    1.877E+01    1.864E+01    1.851E+01    1.838E+01    1.825E+01    1.811E+01    1.798E+01    1.784E+01
     1.771E+01    1.757E+01    1.743E+01    1.729E+01    1.715E+01    1.700E+01    1.686E+01    1.671E+01    1.657E+01    1.642E+01
     1.627E+01    1.612E+01    1.597E+01    1.582E+01    1.567E+01    1.552E+01    1.537E+01    1.521E+01    1.506E+01    1.490E+01
     1.475E+01    1.459E+01    1.443E+01    1.427E+01    1.412E+01    1.396E+01    1.380E+01    1.364E+01    1.347E+01    1.331E+01
     1.315E+01    1.299E+01    1.283E+01    1.266E+01    1.250E+01    1.233E+01    1.217E+01    1.201E+01    1.184E+01    1.168E+01
     1.151E+01    1.134E+01    1.118E+01    1.101E+01    1.085E+01    1.068E+01    1.051E+01    1.035E+01    1.018E+01    1.001E+01
     9.846E+00    9.678E+00    9.511E+00    9.344E+00    9.176E+00    9.009E+00    8.841E+00    8.674E+00    8.506E+00    8.338E+00
     8.171E+00    8.003E+00    7.835E+00    7.668E+00    7.500E+00    7.333E+00    7.165E+00    6.998E+00    6.831E+00    6.664E+00
     6.497E+00    6.330E+00    6.163E+00    5.996E+00    5.830E+00    5.663E+00    5.497E+00    5.331E+00    5.164E+00    4.998E+00
     4.833E+00    4.667E+00    4.501E+00    4.335E+00    4.170E+00    4.004E+00    3.839E+00    3.674E+00    3.509E+00    3.344E+00
     3.179E+00    3.014E+00    2.849E+00    2.684E+00    2.520E+00    2.355E+00    2.191E+00    2.026E+00    1.862E+00    1.698E+00
     1.534E+00    1.370E+00    1.206E+00    1.042E+00    8.780E-01    7.142E-01    5.505E-01    3.868E-01    2.232E-01    5.963E-02
    -1.039E-01   -2.674E-01   -4.308E-01   -5.942E-01   -7.576E-01   -9.209E-01   -1.084E+00   -1.248E+00   -1.411E+00   -1.574E+00
    -1.737E+00   -1.900E+00   -2.064E+00   -2.227E+00   -2.390E+00   -2.553E+00   -2.716E+00   -2.880E+00   -3.043E+00   -3.206E+00
 Mac      Conc. = 2.88E-04
   6.71321E+00  6.06949E+00  5.78648E+00  5.94152E+00  6.07310E+00  5.64862E+00  4.41213E+00  2.45027E+00  1.56142E-01 -2.00784E+00
  -3.37723E+00 -3.71722E+00 -3.44662E+00 -2.80777E+00 -3.28753E+00 -5.81209E+00 -9.82357E+00 -1.18702E+01 -8.91011E+00 -3.41519E+00
   1.33784E+00  6.42002E+00  1.12483E+01  1.36970E+01  1.45930E+01  1.53360E+01  1.62667E+01  1.76036E+01  1.97581E+01  2.21908E+01
   2.43273E+01  2.58835E+01  2.72583E+01  2.80657E+01  2.76507E+01  2.63099E+01  2.53709E+01  2.63599E+01  2.94806E+01  3.30140E+01
   3.45183E+01  3.40171E+01  3.33065E+01  3.34495E+01  3.49450E+01  3.70675E+01  3.84909E+01  3.87544E+01  3.82248E+01  3.70071E+01
   3.49962E+01  3.32131E+01  3.20732E+01  3.11457E+01  3.02441E+01  2.95390E+01  2.90482E+01  2.97499E+01  3.15283E+01  3.28685E+01
   3.43468E+01  3.66456E+01  3.81671E+01  3.84052E+01  3.78910E+01  3.65453E+01  3.51673E+01  3.43303E+01  3.34350E+01  3.20817E+01
   3.19827E+01  3.41276E+01  3.75368E+01  4.03537E+01  4.24863E+01  4.37322E+01  4.38003E+01  4.31096E+01  4.20813E+01  4.10155E+01
   4.01624E+01  3.93879E+01  3.84905E+01  3.84159E+01  3.90457E+01  3.98938E+01  4.09631E+01  4.20043E+01  4.28963E+01  4.34034E+01
   4.39309E+01  4.45335E+01  4.50683E+01  4.54287E+01  4.57961E+01  4.49683E+01  4.30870E+01  4.05411E+01  3.74231E+01  3.45484E+01
   3.30020E+01  3.18166E+01  3.00446E+01  2.80612E+01  2.52815E+01  2.04558E+01  1.30518E+01  3.98309E+00 -3.61633E+00 -7.84368E+00
