 
 $NMID
 ID=''
 FMTDAT='(2E13.5)'
 TRAMP=   1.00000E+0
 VOLUME=   1.00000E+0
 $END
   4.11603E+3  -4.83457E+3
  -9.51096E+2  -7.27610E+1
   2.61808E+3   1.36372E+2
   3.73552E+3  -2.69916E+3
  -6.92104E+2   2.87247E+3
  -1.37073E+3   3.20646E+3
  -8.74735E+1  -1.66092E+3
   7.32219E+2  -6.19093E+2
   1.30532E+3   1.04960E+3
   4.31779E+2   6.92742E+2
  -1.58544E+3   1.86376E+3
  -9.12212E+2   8.49081E+2
   3.45318E+1  -1.81139E+3
  -5.65856E+1  -1.80188E+2
  -1.92406E+3   1.09950E+3
  -1.88755E+3  -1.13087E+3
   1.26796E+3  -1.77804E+3
   2.64497E+3  -2.33973E+2
  -2.38970E+2  -2.62079E+2
  -4.96140E+2  -6.20054E+2
   9.70858E+2   2.12087E+2
   4.91124E+1   8.15381E+2
   1.89994E+2   1.01817E+2
   1.21365E+3  -1.02041E+1
  -8.57589E+2   1.20547E+3
  -2.18389E+3   7.55792E+2
  -1.05179E+2  -7.61888E+2
   1.38483E+3   2.54822E+2
  -1.50820E+2   7.55130E+2
  -1.16961E+3  -9.17619E+2
  -3.32459E+2  -1.28573E+3
   6.33898E+2   2.21946E+2
   5.80218E+2   5.30967E+1
   2.58814E+2  -1.86259E+1
  -1.85548E+2   5.78432E+2
  -6.94523E+2  -1.35232E+2
  -3.00951E+2  -1.03934E+3
   8.49219E+2  -7.96262E+1
   1.09063E+3   5.14194E+2
  -2.52315E+2   6.69384E+1
  -1.02784E+1  -1.11844E+1
   6.97548E+2   8.69307E+2
  -2.94542E+2   9.56941E+2
  -1.06265E+3   1.99395E+2
  -6.17174E+2  -5.16535E+2
  -4.52177E+1  -2.11962E+2
   8.93084E+1  -8.03389E+2
   4.88506E+2  -3.70446E+2
   7.51995E+2   3.34835E+2
   6.95109E+2   3.57759E+2
   4.48566E+1   2.10034E+2
  -4.85683E+2   9.91656E+1
  -1.67525E+2   8.53558E+1
   2.74943E+2  -3.53874E+2
  -3.63967E+1  -1.19719E+2
  -3.41457E+2  -5.40066E+2
   1.24265E+2  -1.82060E+2
   5.72034E+2   5.58985E+2
   9.26073E+1   5.92303E+2
  -3.41313E+2   1.73916E+2
  -2.02952E+2  -4.84354E+1
  -3.13066E+2   1.24059E+2
  -3.58541E+2  -1.88599E+1
  -6.39560E+1  -1.85089E+2
   1.50896E+2  -6.04283E+2
   2.59301E+2  -3.75358E+2
   1.43249E+2  -1.48178E+2
   3.47777E+1   3.45503E+2
   7.05984E+1   5.39961E+2
   4.41404E+1  -2.13602E+2
  -7.30120E+1  -5.13559E+2
  -2.65425E+1   1.35850E+2
   1.97458E+1   5.60502E+2
  -7.17098E+0   2.37171E+2
   1.50639E+1  -4.24236E+1
  -2.46774E+2   1.23525E+2
   6.58099E+1   2.71316E+2
  -3.83678E+2   3.56131E+2
  -5.56320E+2   2.05913E+1
  -4.41672E+2   4.03628E+1
   3.70139E+1  -3.13382E+2
   2.27825E+2  -2.08100E+2
   3.63737E+1  -4.68043E+1
   5.91334E+1   2.17024E+2
   1.87654E+2  -2.11546E+2
   2.92296E+2  -1.54520E+2
   2.53953E+1   8.87083E+1
  -1.22587E+2   2.99823E+2
  -2.90421E+2  -7.55319E+1
  -1.46069E+1  -3.57990E+1
   3.49280E+2   3.16950E+2
   2.99781E+1   3.96434E+2
   2.38823E+1  -2.22092E+2
  -3.90282E+2  -2.12739E+2
  -9.43773E+0  -1.52385E+2
  -4.35309E+1  -2.39458E+2
   1.48438E+2  -7.58058E+1
   1.72706E+2   2.07993E+0
   1.07481E+2  -1.19661E+2
   2.73661E+2   5.31446E+1
   1.75484E+2   5.09038E+1
   7.14107E+1   1.73655E+2
  -3.28492E+2   1.35800E+2
  -1.72699E+2  -1.46763E+2
   1.88502E+2  -2.02715E+2
   1.35892E+2  -1.03647E+2
  -3.73207E+0   1.42822E+2
  -1.30609E+2  -6.49940E+1
  -8.22228E+1  -4.03943E+2
   1.73476E+1  -1.75909E+2
   3.64666E+2   2.90992E+1
   2.85428E+2  -5.37007E+1
   1.59554E+2  -1.26044E+2
   1.32472E+2   4.64046E+1
   4.43061E+1   3.75512E+1
  -2.32076E+2  -1.64988E+2
  -1.27268E+2   2.01837E+1
  -1.65395E+2  -5.87992E+1
   3.72276E+1  -2.79380E+2
   7.30105E+1  -1.95416E+2
  -1.65388E+1   1.06826E+2
   6.04437E+1  -4.54431E+1
  -4.34567E+1   7.71963E+0
  -2.31526E+2   1.15445E+2
  -3.42880E+2   1.28933E+2
   7.15533E+1  -3.13266E+2
  -6.90724E+1  -1.72507E+2
  -1.19549E+2   7.74999E+1
   4.24426E+1  -1.27884E+2
  -3.79179E+1   9.94068E+1
   1.77280E+2   2.93008E+2
  -1.23533E+2   1.04309E+2
  -1.67325E+2  -4.27543E+1
  -1.17192E+1   7.47992E-3
  -2.16345E+2   2.18234E+2
  -2.24191E+2   5.56818E+1
   1.91984E+2  -5.40206E+1
   2.34962E+2   8.71526E+1
   1.54634E+1   3.50946E+2
   2.06664E+1  -1.89461E+2
  -2.97021E+2  -8.43612E+1
   1.93030E+1  -2.77957E+2
   2.40312E+2  -4.43242E+1
   1.32265E+2   2.22347E+2
  -9.91846E+1   8.83181E+1
   6.30695E+1   3.31671E+2
  -1.55912E+2  -2.99634E+1
  -2.90302E+1  -1.16439E+2
  -4.53220E+1  -4.02282E+1
   4.05977E+1   3.29646E+1
  -4.19454E+1  -1.34783E+2
   1.58097E+2   7.38402E+1
   6.83049E+1  -6.27547E+1
   1.21477E+2   5.42469E+1
  -1.82373E+0   1.08158E+2
  -1.74053E+2  -3.21577E+1
   8.17748E+1  -7.30440E+0
  -9.53881E+1   1.98162E+2
  -3.77506E+1   1.79356E+2
   8.20963E+1   9.15787E+1
   2.30497E+1   1.23260E+2
   7.13094E+1   4.20103E+1
   9.58403E+1   4.38711E+1
   4.63630E+1   1.48170E+2
   1.97097E+2  -4.31183E+2
  -1.01653E+2  -8.61165E+0
  -7.79836E+1   4.04485E+1
  -9.67219E+0  -7.61260E+1
  -7.93164E+1  -5.90493E+1
  -3.43263E+1   8.85406E+1
   2.89794E+2  -1.67435E+1
   1.17993E+2   6.65704E+1
   3.50112E+1   1.00852E+2
  -9.32981E+1  -1.32113E+2
  -1.33148E+2  -1.58728E+1
   1.83441E+2   5.01665E+1
  -1.44157E+2   1.94569E+2
  -8.32102E+1  -1.48269E+2
   8.06671E+1  -2.12441E+2
   3.09478E+1   3.32406E+1
   1.12075E+2  -4.42062E+1
   3.15696E+1   1.87297E+2
  -4.11458E+1  -3.39452E+1
  -1.45357E+2   2.90363E+1
   8.34280E+1  -8.35388E+1
  -2.96468E+2  -4.98379E+1
   5.27164E+1   9.88003E+1
   7.53151E+0  -1.23214E+2
   4.23419E+1   7.68403E+1
  -7.16574E+1   8.09154E+1
   2.61038E+2  -4.93842E+1
  -1.34150E+2  -8.60314E+0
   4.33082E+1   4.43372E+1
   1.60015E+1   1.51305E+2
   3.30821E+1  -5.32845E+0
  -1.75085E+2   1.60654E+2
  -6.76862E+1  -1.76169E+2
   2.26796E+2  -1.56976E+2
   7.98461E+1  -5.30685E+1
   8.62048E+1   2.04467E+2
  -1.58726E+2   1.26110E+1
   9.56995E-1  -2.68490E+2
   2.31378E+2  -4.03026E+2
   1.88186E+1   1.14843E+2
  -2.70920E+1   1.48345E+2
  -8.53659E+1  -1.85153E+1
   1.90039E+2  -8.60241E+0
  -2.22250E+2   8.86902E+1
   1.02911E+2   2.24814E+2
  -1.11739E+2   1.06785E+2
  -5.21818E+1   1.02798E+2
   1.21381E+2   3.00922E+0
   3.30727E+2   2.45387E+2
   8.46037E+1   1.66341E+2
  -5.19101E+1   8.84243E+1
  -1.08623E+1  -8.51074E+1
  -3.59928E+1  -2.11874E+2
  -1.65013E+0   1.02724E+1
  -3.06956E+0   2.36347E+1
  -2.55842E+1  -1.38243E+2
  -1.58849E+1   1.65494E+2
   4.84355E+0   2.93357E+2
  -6.21390E+0   7.64158E+0
   1.64046E+1   2.16925E+2
  -7.69359E+1  -2.68715E+1
   1.76036E+2   2.44733E+1
   6.46255E+1  -1.63946E+2
   2.47984E+2  -1.22438E+2
  -4.31114E+1   4.02717E+1
  -6.78017E+1  -3.71182E+1
   1.10135E+2  -5.70792E+0
   5.25741E+1   1.15602E+2
  -1.97926E+2  -6.64683E+1
   2.40664E+1  -2.30070E+2
   1.49024E+2  -8.59160E+1
  -1.81980E+2  -1.54071E+2
  -6.17092E+1  -3.00572E+1
  -7.00772E+1   5.37716E+1
   1.91550E+1  -2.48043E+2
   9.51026E+1  -2.80620E+2
   8.69531E+1  -1.25684E+2
  -1.91820E+2  -9.33222E+1
   2.22383E+1   7.29590E+1
   6.42209E+1  -1.32850E+1
   4.45469E+1   1.12579E+2
   2.06131E+2  -3.15151E+2
   2.10676E+1  -2.02213E+2
  -1.34493E+2  -8.02113E+1
   2.34733E+2  -4.68971E+1
   2.58523E+1  -3.20646E+1
   5.10217E+1   9.02637E+1
  -4.86303E+1   1.16011E+2
  -1.85025E+2   8.86307E+1
   1.09335E+2  -1.24053E+2
   1.96741E+2  -8.05595E+1
   1.49444E+2   2.11026E+2
  -2.06986E+2   1.65349E+2
   3.40985E+1   2.04570E-1
  -1.38541E+2  -2.09722E+2
   1.48273E+2   1.85288E+2
  -2.06597E+2   1.71094E+1
   7.12114E+1  -8.83793E+1
   9.30211E+0  -3.06054E+2
   6.08587E+1  -6.81346E+0
   4.79584E+1  -1.13313E+2
  -1.76181E+2  -9.19878E+1
   5.38940E+1  -3.03206E+0
  -3.34815E+2  -8.57984E+0
   6.80574E+0  -5.91899E+1
  -1.23556E+1   4.77722E+0
   9.60865E+1  -1.25183E+2
   2.99344E+1   3.41439E+1
  -7.99931E+1  -1.17348E+2
  -6.46498E+1   2.65662E+2
  -1.04035E+2   3.02560E+1
  -8.88987E+1   1.84805E+0
  -1.75543E+2   1.38863E+2
  -3.79800E+1   1.52215E+2
  -8.48118E+1  -7.09445E+1
   1.33560E+1  -6.09407E+1
  -9.36013E+1   5.20554E+1
  -7.04917E+1   1.03348E+1
   1.91811E+2  -2.38930E+1
   5.03689E+1   3.29687E+2
  -3.39972E+2  -2.05115E+2
  -1.57555E+2   6.68996E+1
   1.31066E+2  -5.37045E+0
  -1.41435E+2  -9.80135E+1
   3.19930E+2  -1.90069E+2
  -1.06972E+2   4.33918E+1
  -8.90784E+1   1.06189E+2
   2.07868E+2  -2.77425E+1
   9.38556E+1  -2.57451E+1
  -1.61039E+2   4.65791E+1
   1.44293E+0  -5.62587E+1
  -1.74452E+2  -3.15480E+1
   2.11066E+2  -1.31759E+2
   2.83326E+1   2.66796E+2
  -4.84310E+1   1.50502E+2
  -1.65927E+2   1.26510E+2
   9.00024E+1  -2.21391E+2
   3.43561E+1  -3.49617E+1
  -2.99660E-3   1.81428E+2
  -8.19137E+1   2.31030E+1
   6.59795E+1  -1.48274E+2
   5.66981E+1   3.72028E+1
   3.74368E+1  -7.28071E+1
  -6.62964E+1   1.70753E+2
   2.35297E+2   1.94657E+1
  -6.61806E+1  -1.71769E+2
   4.67815E+1   2.64075E+2
  -3.70757E+1   9.57828E+1
   1.70617E+2  -9.45580E+1
  -1.63981E+2  -5.55931E+1
  -1.20999E+2  -1.38847E+2
   2.65716E+2   1.09035E+2
   1.61287E+2  -1.64686E+2
   4.32111E+1   4.14588E+1
  -2.40158E+1  -3.00923E+2
   5.49859E+1   9.73021E-1
  -1.72809E+2  -2.86867E+2
  -1.16639E+2  -7.34028E+1
   1.01453E+2   1.40307E+2
   1.00178E+1  -8.33789E+1
  -3.79856E+1   2.47109E+2
   2.44824E+1   4.98112E+1
  -1.46952E+2   7.50051E+1
  -7.64205E+1   3.48539E+1
   1.31968E+1  -2.16385E+2
  -2.08093E+2  -1.05922E+1
  -7.54667E+1  -3.81512E+1
   6.53391E+1   1.22073E+2
  -6.62145E+1  -5.40527E+1
   3.75930E+1   7.67513E+1
  -3.73796E+1   6.42293E+1
   1.43936E+2   3.84210E+2
   3.83990E+1  -8.34918E-2
  -1.41340E+2  -2.52370E+2
  -8.31321E+1  -2.53092E+2
   1.80206E+2  -2.56714E+1
  -3.48950E+1   1.04190E+2
  -1.27447E+2  -2.11735E+2
   8.95678E+1  -2.60543E+1
  -1.39752E+1  -8.47957E+1
  -1.26178E+2   2.39413E+2
  -2.98386E+1  -7.28881E+1
  -1.00553E+2   8.44035E+1
   4.23219E+1  -1.11780E+2
   4.92472E+1   3.79002E+1
   1.99248E+2  -4.79684E+1
  -2.08158E+2   5.51322E+0
  -9.86734E+1  -8.77995E+1
  -3.02615E+1  -1.34015E+2
  -9.43681E+1  -1.68991E+1
  -7.03638E+0  -8.79647E+0
   7.42426E+0  -2.37012E+2
   1.77882E+2   4.37045E+1
   2.03688E+2   1.18760E+2
   1.06266E+2   1.83409E+2
  -4.00321E+0   3.22905E+1
   1.85122E+2  -1.91190E+2
   1.99297E+2  -1.55154E+1
   4.88708E+1   1.22026E+2
   1.33651E+2   3.51843E+0
   1.17525E+2   2.05765E+2
  -1.04290E+2  -1.14359E+1
   2.04916E+2  -4.35958E+1
