 LCModel (Version 6.3-1N) Copyright: S.W. Provencher.          Ref.: Magn. Reson. Med. 30:672-679 (1993).                
 Slice_N1@20_22  28-Feb-2025 11:42:18
 27 lines in following concentration table = NCONC+1
    Conc.  %SD /Cr+PCr  Metabolite                                         
 3.38E-04   3% 3.8E-04 Mac                                                 
    3.301  38%   3.741 Cr                                                  
    3.757  33%   4.259 PCr                                                 
   10.067   9%  11.410 Ins                                                 
   10.164   8%  11.521 NAA                                                 
    5.225  17%   5.922 Tau                                                 
    0.000 999%   0.000 PCho                                                
    1.289  15%   1.461 GPC                                                 
   11.145   9%  12.633 Glu                                                 
    4.081  19%   4.625 Gln                                                 
    0.000 999%   0.000 Ala                                                 
    0.930 123%   1.054 Asc                                                 
    1.674  59%   1.897 Asp                                                 
    0.257 201%   0.292 GABA                                                
    0.755  90%   0.855 Glc                                                 
    0.838  56%   0.950 GSH                                                 
    2.769  24%   3.139 Lac                                                 
    1.712  36%   1.940 NAAG                                                
    0.000 999%   0.000 PE                                                  
    1.289  15%   1.461 GPC+PCho                                            
   11.876   6%  13.461 NAA+NAAG                                            
   15.226   8%  17.258 Glu+Gln                                             
    7.058   9%   8.000 Cr+PCr                                              
   11.876   6%  13.461 NAA+NAAG                                            
    7.058   9%   8.000 Cr+PCr                                              
   15.226   8%  17.258 Glu+Gln                                             
   6 lines in following misc. output table
  FWHM = 0.033 ppm    S/N =   4                                            
  Data shift = 0.041 ppm                                                   
  Ph: -45 deg       0.0 deg/ppm                                            
  alphaB,S = 1.5E-01,   8.0E-01                                            
   19 spline knots.   Ns = 5(1)                                            
  ( 4) 2 infls.   ( 3) 3 extrs.                                            
  480 points on ppm-axis = NY
      4.100000     4.091866     4.083733     4.075600     4.067466     4.059333     4.051199     4.043066     4.034933     4.026799
      4.018666     4.010532     4.002399     3.994265     3.986132     3.977998     3.969864     3.961731     3.953597     3.945463
      3.937330     3.929196     3.921062     3.912929     3.904795     3.896662     3.888528     3.880394     3.872261     3.864127
      3.855993     3.847860     3.839726     3.831592     3.823459     3.815325     3.807191     3.799058     3.790924     3.782790
      3.774657     3.766523     3.758389     3.750256     3.742122     3.733989     3.725855     3.717721     3.709588     3.701454
      3.693320     3.685187     3.677053     3.668919     3.660786     3.652652     3.644518     3.636385     3.628251     3.620117
      3.611984     3.603850     3.595716     3.587583     3.579449     3.571316     3.563182     3.555048     3.546915     3.538781
      3.530647     3.522514     3.514380     3.506246     3.498113     3.489979     3.481845     3.473712     3.465578     3.457444
      3.449311     3.441177     3.433043     3.424910     3.416776     3.408643     3.400509     3.392375     3.384242     3.376108
      3.367974     3.359841     3.351707     3.343573     3.335440     3.327306     3.319172     3.311039     3.302905     3.294771
      3.286638     3.278504     3.270370     3.262237     3.254103     3.245970     3.237836     3.229702     3.221569     3.213435
      3.205301     3.197168     3.189034     3.180900     3.172767     3.164633     3.156499     3.148366     3.140232     3.132098
      3.123965     3.115831     3.107697     3.099564     3.091430     3.083297     3.075163     3.067029     3.058896     3.050762
      3.042628     3.034495     3.026361     3.018227     3.010094     3.001960     2.993826     2.985693     2.977559     2.969425
      2.961292     2.953158     2.945024     2.936891     2.928757     2.920624     2.912490     2.904356     2.896223     2.888089
      2.879955     2.871822     2.863688     2.855554     2.847421     2.839287     2.831153     2.823020     2.814886     2.806752
      2.798619     2.790485     2.782351     2.774218     2.766084     2.757951     2.749817     2.741683     2.733550     2.725416
      2.717282     2.709149     2.701015     2.692881     2.684748     2.676614     2.668480     2.660347     2.652213     2.644079
      2.635946     2.627812     2.619678     2.611545     2.603411     2.595278     2.587144     2.579010     2.570877     2.562743
      2.554609     2.546476     2.538342     2.530208     2.522075     2.513941     2.505807     2.497674     2.489540     2.481406
      2.473273     2.465139     2.457006     2.448872     2.440738     2.432605     2.424471     2.416337     2.408204     2.400070
      2.391936     2.383803     2.375669     2.367535     2.359402     2.351268     2.343134     2.335001     2.326867     2.318733
      2.310600     2.302466     2.294333     2.286199     2.278065     2.269932     2.261798     2.253664     2.245531     2.237397
      2.229263     2.221130     2.212996     2.204862     2.196729     2.188595     2.180461     2.172328     2.164194     2.156060
      2.147927     2.139793     2.131660     2.123526     2.115392     2.107259     2.099125     2.090991     2.082858     2.074724
      2.066590     2.058457     2.050323     2.042189     2.034056     2.025922     2.017788     2.009655     2.001521     1.993387
      1.985254     1.977120     1.968987     1.960853     1.952719     1.944586     1.936452     1.928318     1.920185     1.912051
      1.903917     1.895784     1.887650     1.879516     1.871383     1.863249     1.855115     1.846982     1.838848     1.830714
      1.822581     1.814447     1.806314     1.798180     1.790046     1.781913     1.773779     1.765645     1.757512     1.749378
      1.741244     1.733111     1.724977     1.716843     1.708710     1.700576     1.692442     1.684309     1.676175     1.668041
      1.659908     1.651774     1.643641     1.635507     1.627373     1.619240     1.611106     1.602972     1.594839     1.586705
      1.578571     1.570438     1.562304     1.554170     1.546037     1.537903     1.529769     1.521636     1.513502     1.505368
      1.497235     1.489101     1.480968     1.472834     1.464700     1.456567     1.448433     1.440299     1.432166     1.424032
      1.415898     1.407765     1.399631     1.391497     1.383364     1.375230     1.367096     1.358963     1.350829     1.342695
      1.334562     1.326428     1.318295     1.310161     1.302027     1.293894     1.285760     1.277626     1.269493     1.261359
      1.253225     1.245092     1.236958     1.228824     1.220691     1.212557     1.204423     1.196290     1.188156     1.180022
      1.171889     1.163755     1.155622     1.147488     1.139354     1.131221     1.123087     1.114953     1.106820     1.098686
      1.090552     1.082419     1.074285     1.066151     1.058018     1.049884     1.041750     1.033617     1.025483     1.017349
      1.009216     1.001082     0.992949     0.984815     0.976681     0.968548     0.960414     0.952280     0.944147     0.936013
      0.927879     0.919746     0.911612     0.903478     0.895345     0.887211     0.879077     0.870944     0.862810     0.854676
      0.846543     0.838409     0.830276     0.822142     0.814008     0.805875     0.797741     0.789607     0.781474     0.773340
      0.765206     0.757073     0.748939     0.740805     0.732672     0.724538     0.716404     0.708271     0.700137     0.692003
      0.683870     0.675736     0.667603     0.659469     0.651335     0.643202     0.635068     0.626934     0.618801     0.610667
      0.602533     0.594400     0.586266     0.578132     0.569999     0.561865     0.553731     0.545598     0.537464     0.529330
      0.521197     0.513063     0.504930     0.496796     0.488662     0.480529     0.472395     0.464261     0.456128     0.447994
      0.439861     0.431727     0.423593     0.415460     0.407326     0.399192     0.391059     0.382925     0.374792     0.366658
      0.358524     0.350391     0.342257     0.334124     0.325990     0.317856     0.309723     0.301589     0.293455     0.285322
      0.277188     0.269055     0.260921     0.252787     0.244654     0.236520     0.228386     0.220253     0.212119     0.203986
 NY phased data points follow
   9.02803E+01  8.03662E+01  7.93836E+01  8.91709E+01  8.50242E+01  9.38631E+01  9.15502E+01  8.74341E+01  9.17818E+01  8.26245E+01
   7.15326E+01  6.65105E+01  5.72283E+01  5.29360E+01  5.52951E+01  3.77858E+01  2.25881E+01  2.73386E+01  1.63711E+01 -2.55656E+00
   1.27692E+01  2.25226E+01  1.35696E+01  5.17195E+01  7.40542E+01  6.93082E+01  8.68310E+01  8.14276E+01  9.61708E+01  1.10606E+02
   8.56018E+01  8.92449E+01  8.55190E+01  7.81446E+01  8.62417E+01  7.25275E+01  7.59165E+01  6.87133E+01  5.44080E+01  3.96925E+01
   9.12857E+00  1.27000E+01  2.22874E+01  3.65319E+01  3.56280E+01  5.14547E+01  8.21961E+01  6.56882E+01  7.82747E+01  8.22337E+01
   6.36030E+01  6.92153E+01  6.91870E+01  5.40684E+01  4.50258E+01  3.28389E+01  2.16460E+01  2.68950E+01  3.11809E-01  5.15973E+00
   1.80491E+01  8.54619E+00  2.99251E+01  3.28343E+01  4.12965E+01  4.92000E+01  5.06293E+01  4.06905E+01  1.09194E+01  5.76928E+00
   1.10957E+01  1.06974E+01  6.09185E+00  2.58322E+01  4.47303E+01  4.70816E+01  5.48418E+01  6.25438E+01  5.62267E+01  3.66050E+01
   5.39279E+01  6.31566E+01  5.25563E+01  3.49629E+01  1.72270E+01  3.38045E+01  3.13227E+01  3.58344E+01  4.49734E+01  6.38317E+01
   7.73125E+01  6.93740E+01  9.34751E+01  8.03514E+01  8.01030E+01  1.03317E+02  9.62901E+01  8.27497E+01  7.24225E+01  8.17333E+01
   7.34747E+01  5.40351E+01  4.85569E+01  4.47234E+01  1.41934E+01 -2.10835E+00 -6.49033E+00 -1.41184E+01 -2.40099E+01 -5.56224E+01
  -6.78918E+01 -8.48282E+01 -6.91141E+01 -5.31560E+01 -4.59425E+01 -2.02195E+01 -1.47935E+01 -2.54112E+00  3.71801E+00  2.63132E+01
   2.50685E+01  2.12776E+01  3.16429E+01  3.01560E+01  4.51797E+01  5.39926E+01  7.31657E+01  8.62938E+01  7.98442E+01  9.06935E+01
   1.27994E+02  1.00146E+02  4.07137E+01 -7.59209E+00 -4.62685E+01 -4.40996E+01 -6.94012E+01 -6.83331E+01 -5.34493E+01 -4.74075E+01
  -4.44746E+01 -4.65139E+01 -3.97321E+01 -5.00470E+01 -3.97565E+01 -5.05763E+01 -4.56942E+01 -2.94522E+01 -3.84149E+01 -2.57450E+01
  -2.61326E+01 -3.41295E+01 -2.44808E+01 -1.51839E+01 -1.96452E+01 -1.37316E+01 -6.46352E+00 -8.30512E+00 -1.71546E+01 -2.06350E+01
  -1.12592E+01 -6.16322E+00 -4.68376E+00 -1.11527E+01 -3.65393E+00  8.57825E+00  8.72805E+00  9.91305E-01  5.14635E+00  1.13177E+01
  -1.88672E+00  5.79261E+00  2.88539E+01  4.41097E+01  3.93978E+01  2.32197E+01  2.46783E+01  3.33855E+01  2.58348E+01  1.00992E+01
   8.70994E+00 -4.71252E+00 -2.58686E+01 -1.53932E+01 -9.97087E+00 -1.29599E+01 -1.12794E+01 -1.98012E+01 -1.18318E+01 -1.19560E+01
  -1.27820E+01  4.50421E-01  1.59978E-01  6.03427E+00 -7.25964E-01  3.25629E-02  1.36136E+01 -3.08818E+00  9.11025E-01  6.79479E+00
  -8.10183E+00  6.55901E+00  1.65399E+01  1.15517E+01  9.40962E+00  1.40998E+01  1.13520E+01 -1.41664E+00 -5.40451E+00 -1.81258E+01
  -1.57867E+01 -7.62991E+00  2.10501E-01  4.24243E+00  9.74062E+00  4.68566E+01  5.98153E+01  6.84747E+01  7.93982E+01  5.89850E+01
   4.96493E+01  2.80990E+01  8.85934E+00  2.50900E+01  2.49991E+01  2.86744E+01  3.57440E+01  3.41066E+01  2.63746E+01  1.43355E+01
   3.67456E+01  2.27442E+01 -5.25123E+00 -7.04573E+00 -2.50156E+01 -3.04847E+01 -3.41975E+01 -4.59949E+01 -4.85931E+01 -4.24245E+01
  -4.29043E+01 -4.00909E+01 -4.23311E+01 -3.96856E+01 -2.16526E+01 -1.65983E+01 -8.85945E+00 -1.28004E+00 -1.07278E+01 -1.44742E+01
  -8.86227E+00 -1.99833E+01 -2.34389E+01 -1.86740E+01 -8.24388E+00 -4.44687E+01 -6.19530E+01  2.22157E+01  9.53486E+01  1.65163E+02
   1.79265E+02  1.68969E+02  1.62718E+02  1.36371E+02  1.46569E+02  1.25266E+02  1.20657E+02  1.14823E+02  1.00213E+02  1.09386E+02
   1.07577E+02  1.09762E+02  1.08645E+02  1.13248E+02  1.06044E+02  9.79577E+01  1.01111E+02  9.88428E+01  1.04895E+02  1.11458E+02
   8.40400E+01  9.65366E+01  1.04918E+02  8.47674E+01  1.09973E+02  8.59439E+01  8.91779E+01  1.00785E+02  7.71216E+01  8.48156E+01
   7.30257E+01  6.64734E+01  6.90906E+01  6.01330E+01  4.29590E+01  4.78857E+01  3.92480E+01  1.92798E+01  2.08341E+01  2.69883E+01
   3.92219E+01  2.39958E+01  1.90424E+01  2.56517E+01  1.47934E+01  1.04194E+00  1.24935E+01  2.66252E+01  3.10111E+01  4.06486E+01
   2.09396E+01  2.41516E+01  4.51589E+01  6.14882E+01  7.59730E+01  7.53213E+01  8.07290E+01  7.74105E+01  8.15811E+01  8.24138E+01
   7.08542E+01  7.18080E+01  7.58908E+01  7.24639E+01  6.58707E+01  5.26140E+01  3.35838E+01  3.38861E+01  3.25904E+01  2.89080E+01
   3.56839E+01  3.06674E+01  4.83172E+00 -7.44336E+00 -1.97803E+00 -2.33643E+01 -1.48274E+01 -1.60051E+01 -4.31483E+01 -2.20105E+01
  -1.67683E+01 -2.79050E+01 -3.39536E+01 -3.05632E+01 -2.56017E+01 -1.39804E+01 -6.69021E+00 -1.35626E+01  3.24014E+00  6.94490E+00
   1.57097E+01  4.94111E+00 -4.90764E+00  5.83189E+00 -1.24610E+01 -1.31246E+01 -5.88162E+00 -7.23170E+00 -9.06844E+00 -3.76122E+00
  -7.17685E+00 -1.90551E+00  1.27838E+01  1.64369E+01  1.91819E+01  1.77904E+01  2.31910E+01  1.09063E+01  8.67153E+00  3.05889E+01
   5.17195E+01  4.93042E+01  5.30901E+01  6.34437E+01  5.40192E+01  6.09812E+01  7.40625E+01  8.44416E+01  8.06239E+01  9.51796E+01
   9.57242E+01  9.82450E+01  1.04292E+02  1.05380E+02  1.28343E+02  1.14714E+02  1.40599E+02  1.36047E+02  1.34517E+02  1.55075E+02
   1.29335E+02  1.37187E+02  1.17255E+02  1.07431E+02  9.34518E+01  8.51053E+01  9.03540E+01  6.93988E+01  7.15653E+01  5.36477E+01
   3.98238E+01  3.95690E+01  2.51785E+01  2.50094E+01  2.72866E+01  9.26505E+00  1.52765E+01  3.95299E+00 -4.69688E+00  6.61633E+00
  -1.27484E+01  8.39303E+00 -3.37260E+00 -7.12603E+00  1.65667E+01 -4.14739E+00  7.67045E+00  5.90596E+00 -5.91722E+00  3.98038E+00
   9.50712E+00  5.07854E+00  5.77149E+00  1.21387E+01  6.88416E-01 -2.31985E-01  3.20941E+00  2.11624E+00 -2.05735E+00 -7.96494E+00
  -2.66899E+00  2.76486E+00  6.87253E+00  9.39272E+00  6.85258E+00 -2.14201E+00  5.01830E+00  9.93225E+00 -5.63560E+00  7.35165E+00
   1.75399E+01  1.06051E+01  9.85976E+00  1.22603E+01  1.47106E+01  5.45314E+00  6.44813E+00  4.65707E+00  1.10439E+01  5.18574E+00
  -6.52140E+00  1.92469E+01  1.11987E+01 -6.44056E+00  5.31399E+00  1.51089E+01  3.84747E+00 -3.01543E+00  1.45913E+01  1.07623E+01
   1.07240E+01  1.78874E+01  8.61697E+00  1.28244E+01  1.69583E+01  1.34320E+01  1.75147E+01  1.13558E+01  7.82410E+00  1.14205E+01
   1.02234E+01  1.62098E+01  1.91783E+01  1.99979E+01  9.72637E+00  9.91469E+00  2.71810E+01  1.45910E+01  4.87397E+00  1.81370E+01
 NY points of the fit to the data follow
   6.30661E+01  6.29915E+01  5.55939E+01  4.71152E+01  5.03796E+01  6.85382E+01  8.34418E+01  8.89827E+01  8.56969E+01  7.81599E+01
   7.04685E+01  6.35584E+01  5.82811E+01  5.33680E+01  4.84802E+01  4.14608E+01  3.54533E+01  2.81412E+01  2.13773E+01  7.54876E+00
   4.25475E+00  1.61258E+01  2.39134E+01  4.83597E+01  6.62888E+01  7.88250E+01  8.51358E+01  8.81119E+01  9.02209E+01  9.15388E+01
   9.12179E+01  9.03017E+01  8.88789E+01  8.65625E+01  8.28825E+01  7.70760E+01  7.08694E+01  6.46198E+01  5.77780E+01  4.45715E+01
   2.96762E+01  2.15227E+01  2.22604E+01  3.14181E+01  4.55180E+01  6.43833E+01  7.65727E+01  8.47929E+01  8.66282E+01  8.54340E+01
   8.22330E+01  7.76877E+01  7.13764E+01  6.08996E+01  4.70090E+01  3.71218E+01  3.82745E+01  2.59844E+01  9.36698E+00  1.59948E+01
   1.73664E+01  1.88800E+01  3.24588E+01  4.38298E+01  5.44569E+01  6.09324E+01  6.43992E+01  5.27357E+01  2.10099E+01  2.90378E+00
   2.43155E+00  3.68635E-01  6.53454E+00  2.08356E+01  3.73725E+01  5.26434E+01  6.14087E+01  6.67319E+01  6.81659E+01  6.88701E+01
   6.48459E+01  6.01437E+01  5.08054E+01  3.73487E+01  3.23596E+01  2.65228E+01  3.25297E+01  4.04045E+01  4.98756E+01  5.79685E+01
   6.39727E+01  6.92090E+01  7.36316E+01  7.72731E+01  8.02957E+01  8.37973E+01  8.69523E+01  8.76352E+01  8.05929E+01  7.66807E+01
   7.27149E+01  6.23958E+01  5.21187E+01  4.33870E+01  2.47800E+01  3.30555E+00 -4.63712E+00 -4.32459E+00 -1.38759E+01 -5.10861E+01
  -6.70503E+01 -7.22235E+01 -6.12512E+01 -4.75345E+01 -3.45935E+01 -2.38784E+01 -1.53103E+01 -8.02518E+00 -8.14624E-01  5.73174E+00
   1.22599E+01  1.88813E+01  2.61596E+01  3.43481E+01  4.36006E+01  5.50751E+01  6.85075E+01  7.59673E+01  8.26387E+01  9.20521E+01
   1.19895E+02  1.07877E+02  3.97979E+01 -5.87788E+00 -4.17206E+01 -4.92528E+01 -5.04956E+01 -4.75762E+01 -4.46732E+01 -4.37352E+01
  -4.39427E+01 -4.43990E+01 -4.44599E+01 -4.39179E+01 -4.38879E+01 -4.31975E+01 -4.17009E+01 -3.95883E+01 -3.67875E+01 -3.37455E+01
  -3.05208E+01 -2.72845E+01 -2.47536E+01 -2.28707E+01 -2.03304E+01 -1.75339E+01 -1.53903E+01 -1.43132E+01 -1.35280E+01 -1.19572E+01
  -9.75606E+00 -7.49984E+00 -7.51374E+00 -8.27421E+00 -8.72688E+00 -7.83434E+00 -4.85381E+00 -1.98132E+00 -9.02918E-01 -2.09321E+00
   7.64548E-01  1.17716E+01  2.31479E+01  2.41234E+01  1.71495E+01  1.46852E+01  1.96758E+01  2.58248E+01  2.25645E+01  1.22704E+01
   3.07773E+00 -4.49817E+00 -8.60555E+00 -1.19748E+01 -1.40269E+01 -1.54088E+01 -1.56164E+01 -1.55645E+01 -1.47349E+01 -1.29277E+01
  -1.01405E+01 -8.10897E+00 -8.63549E+00 -2.87475E+00  5.96971E+00  5.50170E+00  7.34510E+00  9.60629E+00  1.31349E+01  1.60570E+01
   1.21437E+01  1.43177E+01  1.78807E+01  1.93642E+01  1.84312E+01  1.38213E+01  9.38226E+00  3.78706E+00 -3.59082E+00 -1.03967E+01
  -1.46413E+01 -1.63333E+01 -8.44479E+00 -2.87220E+00  1.29599E+01  4.16423E+01  5.38833E+01  7.11685E+01  7.48783E+01  6.78914E+01
   5.90261E+01  4.90466E+01  4.40379E+01  4.19149E+01  4.10176E+01  4.07013E+01  3.89240E+01  3.52499E+01  2.91998E+01  2.09593E+01
   1.10520E+01 -6.36599E-01 -1.14245E+01 -2.16798E+01 -3.26973E+01 -4.07270E+01 -4.70397E+01 -5.22854E+01 -5.37039E+01 -5.27769E+01
  -5.14341E+01 -4.62440E+01 -3.93998E+01 -3.21415E+01 -2.10687E+01 -1.57330E+01 -1.00061E+01 -1.08019E+01 -1.42834E+01 -1.52190E+01
  -2.27149E+01 -3.29209E+01 -3.85363E+01 -2.67042E+01 -9.33780E+00 -4.60447E+01 -5.70955E+01  1.63607E+01  8.35974E+01  1.37327E+02
   1.53518E+02  1.52623E+02  1.44264E+02  1.34465E+02  1.26974E+02  1.21315E+02  1.16276E+02  1.12088E+02  1.08224E+02  1.04970E+02
   1.02334E+02  1.00622E+02  9.97480E+01  9.88283E+01  9.85121E+01  9.77601E+01  9.63644E+01  9.47695E+01  9.29002E+01  9.13193E+01
   8.93210E+01  8.69367E+01  8.41757E+01  8.15686E+01  7.90873E+01  7.61859E+01  7.31717E+01  7.01543E+01  6.67907E+01  6.35903E+01
   5.94458E+01  5.51012E+01  5.09265E+01  4.65544E+01  4.23296E+01  3.87123E+01  3.64056E+01  3.58448E+01  3.69256E+01  3.88110E+01
   4.10112E+01  4.34924E+01  4.63715E+01  4.91122E+01  5.20078E+01  5.47016E+01  5.72016E+01  5.92938E+01  6.16291E+01  6.43885E+01
   6.70124E+01  6.93772E+01  7.11921E+01  7.27033E+01  7.42117E+01  7.52551E+01  7.56457E+01  7.58158E+01  7.52421E+01  7.33238E+01
   7.08790E+01  6.82811E+01  6.49269E+01  6.06113E+01  5.57169E+01  5.03311E+01  4.49090E+01  3.77428E+01  2.89420E+01  1.91771E+01
   9.82020E+00  1.48129E+00 -5.04595E+00 -9.37005E+00 -1.08047E+01 -9.21653E+00 -6.24645E+00 -9.11277E-01  4.68250E+00  1.30501E+01
   1.17097E+01  5.39909E+00 -1.03745E-01 -1.24111E+01 -1.19298E+01 -8.88670E+00 -1.33245E+00  4.64157E+00  8.73992E+00  1.14822E+01
   1.26599E+01  1.23323E+01  1.12061E+01  8.67829E+00  5.00628E+00  9.14730E-01 -2.57017E+00 -4.68355E+00 -5.42288E+00 -4.47255E+00
  -2.40173E+00  7.04160E-01  4.59480E+00  9.02332E+00  1.37326E+01  1.81611E+01  2.26829E+01  2.67341E+01  3.07680E+01  3.48139E+01
   3.89205E+01  4.29867E+01  4.70452E+01  5.15066E+01  5.59493E+01  6.09433E+01  6.66985E+01  7.25719E+01  7.91261E+01  8.67222E+01
   9.49100E+01  1.02868E+02  1.11294E+02  1.20049E+02  1.28490E+02  1.35817E+02  1.41453E+02  1.44530E+02  1.43966E+02  1.38445E+02
   1.29088E+02  1.17368E+02  1.06060E+02  9.50345E+01  8.55223E+01  7.75696E+01  6.99352E+01  6.15745E+01  5.22804E+01  4.29238E+01
   3.27926E+01  2.35619E+01  1.61155E+01  1.01532E+01  5.47575E+00  2.01687E+00 -3.43274E-01 -1.65994E+00 -2.77985E+00 -3.43111E+00
  -4.32322E+00 -4.87862E+00 -5.09043E+00 -4.90148E+00 -4.83330E+00 -4.86099E+00 -4.26092E+00 -3.64629E+00 -3.29837E+00 -3.57588E+00
  -3.00631E+00 -2.23386E+00 -1.86306E+00 -1.48877E+00 -1.21587E+00 -5.79567E-01 -1.88492E-01  1.15589E-01  2.83405E-01  9.33531E-01
   1.68809E+00  2.21262E+00  2.64417E+00  2.83336E+00  2.96317E+00  3.12147E+00  3.76559E+00  4.14781E+00  4.77740E+00  5.37103E+00
   5.80020E+00  6.23168E+00  6.66676E+00  7.23022E+00  7.50572E+00  7.60929E+00  7.52527E+00  7.96107E+00  8.34374E+00  8.71650E+00
   9.40498E+00  9.75531E+00  9.81286E+00  1.00953E+01  1.06016E+01  1.10696E+01  1.16525E+01  1.21548E+01  1.24378E+01  1.28755E+01
   1.32438E+01  1.37588E+01  1.38285E+01  1.41746E+01  1.42135E+01  1.45631E+01  1.47299E+01  1.51466E+01  1.59446E+01  1.67926E+01
   1.74575E+01  1.76359E+01  1.75495E+01  1.75089E+01  1.78255E+01  1.82585E+01  1.84804E+01  1.90212E+01  1.95768E+01  1.97427E+01
 NY background values follow
     1.013E+02    1.003E+02    9.927E+01    9.825E+01    9.723E+01    9.621E+01    9.519E+01    9.417E+01    9.315E+01    9.213E+01
     9.112E+01    9.010E+01    8.909E+01    8.808E+01    8.708E+01    8.608E+01    8.508E+01    8.408E+01    8.309E+01    8.210E+01
     8.112E+01    8.014E+01    7.916E+01    7.819E+01    7.723E+01    7.627E+01    7.532E+01    7.437E+01    7.343E+01    7.249E+01
     7.157E+01    7.065E+01    6.974E+01    6.883E+01    6.793E+01    6.704E+01    6.616E+01    6.529E+01    6.442E+01    6.357E+01
     6.272E+01    6.188E+01    6.105E+01    6.023E+01    5.942E+01    5.862E+01    5.783E+01    5.705E+01    5.628E+01    5.552E+01
     5.477E+01    5.403E+01    5.331E+01    5.259E+01    5.189E+01    5.119E+01    5.051E+01    4.984E+01    4.918E+01    4.854E+01
     4.790E+01    4.728E+01    4.668E+01    4.608E+01    4.550E+01    4.493E+01    4.437E+01    4.382E+01    4.328E+01    4.276E+01
     4.225E+01    4.175E+01    4.126E+01    4.078E+01    4.032E+01    3.986E+01    3.942E+01    3.899E+01    3.857E+01    3.816E+01
     3.776E+01    3.737E+01    3.699E+01    3.662E+01    3.627E+01    3.592E+01    3.558E+01    3.526E+01    3.494E+01    3.463E+01
     3.434E+01    3.405E+01    3.377E+01    3.351E+01    3.325E+01    3.300E+01    3.276E+01    3.253E+01    3.231E+01    3.209E+01
     3.189E+01    3.169E+01    3.150E+01    3.132E+01    3.115E+01    3.099E+01    3.083E+01    3.069E+01    3.055E+01    3.041E+01
     3.029E+01    3.017E+01    3.006E+01    2.996E+01    2.986E+01    2.977E+01    2.969E+01    2.961E+01    2.954E+01    2.948E+01
     2.942E+01    2.937E+01    2.932E+01    2.928E+01    2.925E+01    2.922E+01    2.920E+01    2.918E+01    2.916E+01    2.915E+01
     2.915E+01    2.915E+01    2.915E+01    2.916E+01    2.917E+01    2.919E+01    2.921E+01    2.923E+01    2.925E+01    2.928E+01
     2.931E+01    2.935E+01    2.939E+01    2.942E+01    2.947E+01    2.951E+01    2.955E+01    2.960E+01    2.965E+01    2.970E+01
     2.975E+01    2.980E+01    2.986E+01    2.991E+01    2.997E+01    3.002E+01    3.008E+01    3.013E+01    3.019E+01    3.025E+01
     3.030E+01    3.036E+01    3.041E+01    3.047E+01    3.053E+01    3.058E+01    3.063E+01    3.069E+01    3.074E+01    3.079E+01
     3.084E+01    3.089E+01    3.094E+01    3.098E+01    3.102E+01    3.107E+01    3.111E+01    3.114E+01    3.118E+01    3.121E+01
     3.124E+01    3.127E+01    3.130E+01    3.132E+01    3.134E+01    3.136E+01    3.138E+01    3.139E+01    3.140E+01    3.141E+01
     3.142E+01    3.142E+01    3.143E+01    3.143E+01    3.142E+01    3.142E+01    3.141E+01    3.140E+01    3.139E+01    3.137E+01
     3.136E+01    3.134E+01    3.132E+01    3.129E+01    3.127E+01    3.124E+01    3.121E+01    3.117E+01    3.114E+01    3.110E+01
     3.106E+01    3.102E+01    3.097E+01    3.093E+01    3.088E+01    3.082E+01    3.077E+01    3.071E+01    3.064E+01    3.058E+01
     3.051E+01    3.043E+01    3.035E+01    3.027E+01    3.018E+01    3.009E+01    3.000E+01    2.989E+01    2.979E+01    2.967E+01
     2.956E+01    2.943E+01    2.931E+01    2.917E+01    2.903E+01    2.888E+01    2.873E+01    2.857E+01    2.840E+01    2.823E+01
     2.805E+01    2.786E+01    2.766E+01    2.746E+01    2.725E+01    2.703E+01    2.681E+01    2.658E+01    2.634E+01    2.609E+01
     2.584E+01    2.558E+01    2.531E+01    2.504E+01    2.476E+01    2.447E+01    2.417E+01    2.387E+01    2.356E+01    2.324E+01
     2.291E+01    2.258E+01    2.224E+01    2.190E+01    2.154E+01    2.118E+01    2.081E+01    2.044E+01    2.005E+01    1.966E+01
     1.926E+01    1.886E+01    1.845E+01    1.803E+01    1.761E+01    1.718E+01    1.675E+01    1.631E+01    1.587E+01    1.543E+01
     1.498E+01    1.453E+01    1.408E+01    1.363E+01    1.318E+01    1.273E+01    1.228E+01    1.183E+01    1.138E+01    1.093E+01
     1.048E+01    1.004E+01    9.596E+00    9.159E+00    8.726E+00    8.298E+00    7.875E+00    7.457E+00    7.045E+00    6.639E+00
     6.241E+00    5.849E+00    5.466E+00    5.089E+00    4.721E+00    4.361E+00    4.009E+00    3.665E+00    3.330E+00    3.004E+00
     2.686E+00    2.378E+00    2.080E+00    1.791E+00    1.511E+00    1.242E+00    9.827E-01    7.339E-01    4.956E-01    2.680E-01
     5.142E-02   -1.541E-01   -3.482E-01   -5.308E-01   -7.017E-01   -8.607E-01   -1.008E+00   -1.142E+00   -1.264E+00   -1.374E+00
    -1.470E+00   -1.554E+00   -1.625E+00   -1.683E+00   -1.729E+00   -1.763E+00   -1.784E+00   -1.794E+00   -1.791E+00   -1.777E+00
    -1.751E+00   -1.714E+00   -1.665E+00   -1.605E+00   -1.534E+00   -1.451E+00   -1.358E+00   -1.255E+00   -1.140E+00   -1.016E+00
    -8.805E-01   -7.353E-01   -5.800E-01   -4.148E-01   -2.399E-01   -5.531E-02    1.388E-01    3.423E-01    5.550E-01    7.768E-01
     1.007E+00    1.247E+00    1.495E+00    1.750E+00    2.013E+00    2.284E+00    2.561E+00    2.844E+00    3.134E+00    3.429E+00
     3.729E+00    4.035E+00    4.345E+00    4.659E+00    4.977E+00    5.298E+00    5.622E+00    5.949E+00    6.279E+00    6.610E+00
     6.942E+00    7.276E+00    7.611E+00    7.946E+00    8.281E+00    8.616E+00    8.950E+00    9.283E+00    9.615E+00    9.945E+00
     1.027E+01    1.060E+01    1.092E+01    1.124E+01    1.156E+01    1.187E+01    1.218E+01    1.249E+01    1.280E+01    1.310E+01
     1.340E+01    1.369E+01    1.398E+01    1.427E+01    1.455E+01    1.483E+01    1.511E+01    1.538E+01    1.564E+01    1.591E+01
     1.616E+01    1.641E+01    1.666E+01    1.690E+01    1.714E+01    1.737E+01    1.760E+01    1.782E+01    1.803E+01    1.824E+01
     1.845E+01    1.865E+01    1.884E+01    1.902E+01    1.920E+01    1.938E+01    1.955E+01    1.972E+01    1.988E+01    2.003E+01
     2.018E+01    2.033E+01    2.047E+01    2.061E+01    2.075E+01    2.088E+01    2.101E+01    2.113E+01    2.125E+01    2.137E+01
     2.148E+01    2.159E+01    2.170E+01    2.180E+01    2.190E+01    2.200E+01    2.210E+01    2.219E+01    2.229E+01    2.238E+01
     2.247E+01    2.255E+01    2.264E+01    2.272E+01    2.281E+01    2.289E+01    2.297E+01    2.304E+01    2.312E+01    2.320E+01
     2.327E+01    2.334E+01    2.342E+01    2.349E+01    2.356E+01    2.363E+01    2.370E+01    2.377E+01    2.384E+01    2.390E+01
     2.397E+01    2.404E+01    2.411E+01    2.417E+01    2.424E+01    2.431E+01    2.437E+01    2.444E+01    2.451E+01    2.457E+01
 Mac      Conc. = 3.38E-04
   7.79398E+01  7.61478E+01  7.44025E+01  7.28051E+01  7.13014E+01  6.97744E+01  6.77458E+01  6.52869E+01  6.23795E+01  5.94810E+01
   5.68687E+01  5.47292E+01  5.29406E+01  5.14587E+01  5.08061E+01  4.95106E+01  4.72752E+01  4.44693E+01  4.45630E+01  4.77070E+01
   5.05795E+01  5.39563E+01  5.74781E+01  6.03153E+01  6.19779E+01  6.27404E+01  6.32731E+01  6.38188E+01  6.47289E+01  6.61424E+01
   6.72069E+01  6.79011E+01  6.83278E+01  6.86841E+01  6.87801E+01  6.80947E+01  6.68947E+01  6.60496E+01  6.66265E+01  6.84009E+01
   6.98557E+01  6.99552E+01  6.92989E+01  6.85635E+01  6.83896E+01  6.89442E+01  6.91603E+01  6.89153E+01  6.79087E+01  6.64129E+01
   6.44748E+01  6.21402E+01  6.00939E+01  5.82374E+01  5.70039E+01  5.59149E+01  5.48393E+01  5.43653E+01  5.48939E+01  5.55831E+01
   5.58509E+01  5.67837E+01  5.76447E+01  5.77842E+01  5.74256E+01  5.60397E+01  5.44369E+01  5.34064E+01  5.26550E+01  5.18696E+01
   5.07294E+01  5.11703E+01  5.29021E+01  5.48674E+01  5.64743E+01  5.73385E+01  5.74918E+01  5.71310E+01  5.59187E+01  5.47421E+01
   5.37169E+01  5.28678E+01  5.20048E+01  5.12500E+01  5.13211E+01  5.15369E+01  5.18873E+01  5.25921E+01  5.31113E+01  5.36518E+01
   5.38229E+01  5.40358E+01  5.38864E+01  5.35896E+01  5.31130E+01  5.22060E+01  5.02414E+01  4.80047E+01  4.49341E+01  4.15973E+01
   3.85288E+01  3.59956E+01  3.29070E+01  2.93162E+01  2.54111E+01  2.10398E+01  1.55562E+01  8.60610E+00  1.64005E+00 -3.23043E+00
