 LCModel (Version 6.3-1N) Copyright: S.W. Provencher.          Ref.: Magn. Reson. Med. 30:672-679 (1993).                
 Slice_N1@17_15  28-Feb-2025 11:37:41
 27 lines in following concentration table = NCONC+1
    Conc.  %SD /Cr+PCr  Metabolite                                         
 2.51E-04   7% 2.3E-04 Mac                                                 
    3.636  40%   3.342 Cr                                                  
    5.068  28%   4.658 PCr                                                 
    7.621  17%   7.004 Ins                                                 
    9.760  11%   8.971 NAA                                                 
    6.809  19%   6.259 Tau                                                 
    0.758 165%   0.697 PCho                                                
    0.827 145%   0.760 GPC                                                 
   11.272  13%  10.361 Glu                                                 
    1.535  66%   1.411 Gln                                                 
    0.000 999%   0.000 Ala                                                 
    2.033  87%   1.869 Asc                                                 
    1.787  71%   1.642 Asp                                                 
    0.812  86%   0.747 GABA                                                
    0.493 177%   0.454 Glc                                                 
    1.180  44%   1.085 GSH                                                 
    3.347  30%   3.077 Lac                                                 
    1.309  62%   1.203 NAAG                                                
    2.269  69%   2.085 PE                                                  
    1.585  27%   1.457 GPC+PCho                                            
   11.069  10%  10.174 NAA+NAAG                                            
   12.807  14%  11.772 Glu+Gln                                             
    8.704  12%   8.000 Cr+PCr                                              
   11.069  10%  10.174 NAA+NAAG                                            
    8.704  12%   8.000 Cr+PCr                                              
   12.807  14%  11.772 Glu+Gln                                             
   6 lines in following misc. output table
  FWHM = 0.024 ppm    S/N =   3                                            
  Data shift = 0.024 ppm                                                   
  Ph:-130 deg       0.0 deg/ppm                                            
  alphaB,S = 2.4E-01,   3.2E+00                                            
   19 spline knots.   Ns = 5(1)                                            
  ( 3) 2 infls.   ( 3) 1 extrs.                                            
  480 points on ppm-axis = NY
      4.100000     4.091866     4.083733     4.075600     4.067466     4.059333     4.051199     4.043066     4.034933     4.026799
      4.018666     4.010532     4.002399     3.994265     3.986132     3.977998     3.969864     3.961731     3.953597     3.945463
      3.937330     3.929196     3.921062     3.912929     3.904795     3.896662     3.888528     3.880394     3.872261     3.864127
      3.855993     3.847860     3.839726     3.831592     3.823459     3.815325     3.807191     3.799058     3.790924     3.782790
      3.774657     3.766523     3.758389     3.750256     3.742122     3.733989     3.725855     3.717721     3.709588     3.701454
      3.693320     3.685187     3.677053     3.668919     3.660786     3.652652     3.644518     3.636385     3.628251     3.620117
      3.611984     3.603850     3.595716     3.587583     3.579449     3.571316     3.563182     3.555048     3.546915     3.538781
      3.530647     3.522514     3.514380     3.506246     3.498113     3.489979     3.481845     3.473712     3.465578     3.457444
      3.449311     3.441177     3.433043     3.424910     3.416776     3.408643     3.400509     3.392375     3.384242     3.376108
      3.367974     3.359841     3.351707     3.343573     3.335440     3.327306     3.319172     3.311039     3.302905     3.294771
      3.286638     3.278504     3.270370     3.262237     3.254103     3.245970     3.237836     3.229702     3.221569     3.213435
      3.205301     3.197168     3.189034     3.180900     3.172767     3.164633     3.156499     3.148366     3.140232     3.132098
      3.123965     3.115831     3.107697     3.099564     3.091430     3.083297     3.075163     3.067029     3.058896     3.050762
      3.042628     3.034495     3.026361     3.018227     3.010094     3.001960     2.993826     2.985693     2.977559     2.969425
      2.961292     2.953158     2.945024     2.936891     2.928757     2.920624     2.912490     2.904356     2.896223     2.888089
      2.879955     2.871822     2.863688     2.855554     2.847421     2.839287     2.831153     2.823020     2.814886     2.806752
      2.798619     2.790485     2.782351     2.774218     2.766084     2.757951     2.749817     2.741683     2.733550     2.725416
      2.717282     2.709149     2.701015     2.692881     2.684748     2.676614     2.668480     2.660347     2.652213     2.644079
      2.635946     2.627812     2.619678     2.611545     2.603411     2.595278     2.587144     2.579010     2.570877     2.562743
      2.554609     2.546476     2.538342     2.530208     2.522075     2.513941     2.505807     2.497674     2.489540     2.481406
      2.473273     2.465139     2.457006     2.448872     2.440738     2.432605     2.424471     2.416337     2.408204     2.400070
      2.391936     2.383803     2.375669     2.367535     2.359402     2.351268     2.343134     2.335001     2.326867     2.318733
      2.310600     2.302466     2.294333     2.286199     2.278065     2.269932     2.261798     2.253664     2.245531     2.237397
      2.229263     2.221130     2.212996     2.204862     2.196729     2.188595     2.180461     2.172328     2.164194     2.156060
      2.147927     2.139793     2.131660     2.123526     2.115392     2.107259     2.099125     2.090991     2.082858     2.074724
      2.066590     2.058457     2.050323     2.042189     2.034056     2.025922     2.017788     2.009655     2.001521     1.993387
      1.985254     1.977120     1.968987     1.960853     1.952719     1.944586     1.936452     1.928318     1.920185     1.912051
      1.903917     1.895784     1.887650     1.879516     1.871383     1.863249     1.855115     1.846982     1.838848     1.830714
      1.822581     1.814447     1.806314     1.798180     1.790046     1.781913     1.773779     1.765645     1.757512     1.749378
      1.741244     1.733111     1.724977     1.716843     1.708710     1.700576     1.692442     1.684309     1.676175     1.668041
      1.659908     1.651774     1.643641     1.635507     1.627373     1.619240     1.611106     1.602972     1.594839     1.586705
      1.578571     1.570438     1.562304     1.554170     1.546037     1.537903     1.529769     1.521636     1.513502     1.505368
      1.497235     1.489101     1.480968     1.472834     1.464700     1.456567     1.448433     1.440299     1.432166     1.424032
      1.415898     1.407765     1.399631     1.391497     1.383364     1.375230     1.367096     1.358963     1.350829     1.342695
      1.334562     1.326428     1.318295     1.310161     1.302027     1.293894     1.285760     1.277626     1.269493     1.261359
      1.253225     1.245092     1.236958     1.228824     1.220691     1.212557     1.204423     1.196290     1.188156     1.180022
      1.171889     1.163755     1.155622     1.147488     1.139354     1.131221     1.123087     1.114953     1.106820     1.098686
      1.090552     1.082419     1.074285     1.066151     1.058018     1.049884     1.041750     1.033617     1.025483     1.017349
      1.009216     1.001082     0.992949     0.984815     0.976681     0.968548     0.960414     0.952280     0.944147     0.936013
      0.927879     0.919746     0.911612     0.903478     0.895345     0.887211     0.879077     0.870944     0.862810     0.854676
      0.846543     0.838409     0.830276     0.822142     0.814008     0.805875     0.797741     0.789607     0.781474     0.773340
      0.765206     0.757073     0.748939     0.740805     0.732672     0.724538     0.716404     0.708271     0.700137     0.692003
      0.683870     0.675736     0.667603     0.659469     0.651335     0.643202     0.635068     0.626934     0.618801     0.610667
      0.602533     0.594400     0.586266     0.578132     0.569999     0.561865     0.553731     0.545598     0.537464     0.529330
      0.521197     0.513063     0.504930     0.496796     0.488662     0.480529     0.472395     0.464261     0.456128     0.447994
      0.439861     0.431727     0.423593     0.415460     0.407326     0.399192     0.391059     0.382925     0.374792     0.366658
      0.358524     0.350391     0.342257     0.334124     0.325990     0.317856     0.309723     0.301589     0.293455     0.285322
      0.277188     0.269055     0.260921     0.252787     0.244654     0.236520     0.228386     0.220253     0.212119     0.203986
 NY phased data points follow
  -6.71085E+01 -8.22278E+01 -7.56109E+01 -8.21194E+01 -7.82575E+01 -8.13357E+01 -8.37164E+01 -6.17968E+01 -7.40547E+01 -8.19313E+01
  -9.00355E+01 -8.88738E+01 -8.20233E+01 -9.45654E+01 -9.19652E+01 -1.10337E+02 -1.07723E+02 -9.49220E+01 -1.22471E+02 -1.21892E+02
  -1.40634E+02 -1.48624E+02 -9.08531E+01 -9.19058E+01 -8.75299E+01 -2.51008E+01 -2.54603E+01 -5.18574E+01 -3.91051E+01 -3.06268E+01
  -3.91765E+01 -3.19459E+01 -2.48485E+01 -3.23005E+01 -4.00589E+01 -3.34978E+01 -3.41431E+01 -4.78175E+01 -4.72959E+01 -7.02582E+01
  -8.14588E+01 -9.13258E+01 -1.07462E+02 -8.32091E+01 -8.24606E+01 -6.41096E+01 -3.21912E+01 -2.53459E+01 -3.53258E+00  2.67034E+00
  -8.13647E+00 -8.66282E+00 -9.23716E-01 -9.12342E+00 -2.69873E+01 -3.98541E+01 -4.41292E+01 -5.19924E+01 -6.03527E+01 -6.50138E+01
  -5.85991E+01 -3.07827E+01 -4.76147E+01 -4.37906E+01 -8.54025E+00  2.32123E+00  8.78202E+00 -1.09675E+01 -1.72058E+01 -6.32993E+01
  -9.67855E+01 -6.73400E+01 -6.67876E+01 -6.26176E+01 -4.61746E+01 -1.32471E+01  2.37712E+00  3.36193E+00  7.24547E+00 -1.22757E+00
  -1.14155E+00 -5.48817E+00 -3.00594E+00 -1.58426E+01 -3.19417E+01 -4.32251E+01 -5.49135E+01 -3.76087E+01 -1.46176E+01 -2.67088E+00
   6.74764E+00  1.81398E+01  2.26709E+01  3.36497E+01  3.54245E+01  3.17125E+01  4.32770E+01  3.94715E+01  4.10132E+01  5.52328E+01
   4.59589E+01  3.60303E+01  3.93956E+01  1.74639E+01 -9.66740E+00 -2.31645E+01 -4.21101E+01 -4.88265E+01 -5.07197E+01 -7.13773E+01
  -1.13695E+02 -1.65490E+02 -1.68953E+02 -1.35238E+02 -1.08280E+02 -8.96272E+01 -8.21053E+01 -6.51945E+01 -6.39486E+01 -5.49112E+01
  -4.49061E+01 -3.71151E+01 -1.25710E+01 -1.79378E+01 -4.82858E+00 -9.34665E-01  6.12633E-01  1.37240E+01  2.39504E+01  5.86473E+01
   8.72641E+01  1.10261E+02  6.50380E+01 -3.40509E+01 -9.13695E+01 -8.98657E+01 -9.80209E+01 -1.13860E+02 -1.10019E+02 -1.01767E+02
  -8.60469E+01 -9.76697E+01 -9.56934E+01 -1.05173E+02 -1.00528E+02 -9.04935E+01 -1.00151E+02 -8.44157E+01 -9.08979E+01 -8.00733E+01
  -8.55402E+01 -8.86793E+01 -7.63582E+01 -7.90467E+01 -7.21614E+01 -7.45704E+01 -6.30875E+01 -6.47298E+01 -6.94371E+01 -6.50615E+01
  -5.72425E+01 -5.86880E+01 -5.85744E+01 -3.98253E+01 -4.76597E+01 -6.00635E+01 -5.65275E+01 -5.72645E+01 -5.80998E+01 -4.55129E+01
  -4.37940E+01 -3.84400E+01 -2.17719E+01 -7.14333E+00 -2.01804E+01 -3.74623E+01 -1.46515E+01 -1.00013E+01 -7.28947E+00 -2.64539E+01
  -5.25134E+01 -5.29138E+01 -7.16167E+01 -7.60224E+01 -7.31263E+01 -7.38221E+01 -7.39094E+01 -6.39377E+01 -5.77237E+01 -6.42648E+01
  -5.58747E+01 -5.58779E+01 -5.13909E+01 -3.70483E+01 -3.87972E+01 -3.81248E+01 -3.98249E+01 -3.54194E+01 -2.24832E+01 -1.70393E+01
  -2.72161E+01 -5.04727E+01 -4.02487E+01 -3.86804E+01 -4.22254E+01 -4.92952E+01 -5.77406E+01 -4.92243E+01 -8.53259E+01 -8.87071E+01
  -9.57041E+01 -1.03075E+02 -8.78843E+01 -8.89621E+01 -5.71394E+01 -4.96054E+01 -1.89368E+01 -1.72020E+00 -9.51414E-01  1.42298E+01
  -1.52704E+01 -2.32226E+01 -2.30129E+01 -1.82010E+01 -2.90919E+01 -2.18558E+01 -2.42157E+00 -2.70606E+01 -9.33056E+00 -5.67570E+00
  -1.98360E+01 -6.98268E+00 -2.23971E+01 -3.20616E+01 -2.79630E+01 -4.87953E+01 -6.86211E+01 -6.90163E+01 -7.60828E+01 -8.09271E+01
  -9.29752E+01 -9.38116E+01 -6.80583E+01 -6.71358E+01 -6.01530E+01 -5.88265E+01 -5.84867E+01 -5.25749E+01 -6.96402E+01 -6.77426E+01
  -8.07762E+01 -7.89099E+01 -7.97730E+01 -9.06801E+01 -7.57013E+01 -1.12105E+02 -1.48878E+02 -1.18158E+02  2.73760E+01  1.38202E+02
   1.08886E+02  1.20057E+02  1.26477E+02  9.56187E+01  9.08878E+01  6.85399E+01  5.41459E+01  6.34669E+01  6.24941E+01  5.35816E+01
   5.13058E+01  4.74994E+01  4.47437E+01  5.70746E+01  5.59725E+01  5.32413E+01  6.09083E+01  5.36764E+01  5.59778E+01  4.78336E+01
   5.12364E+01  5.68904E+01  4.55557E+01  5.16863E+01  3.70900E+01  3.65889E+01  3.18331E+01  2.92918E+01  3.39630E+01  1.32060E+01
   1.85969E+01  9.64382E+00 -3.24021E+00 -9.64509E+00 -1.28206E+01 -1.61071E+01 -2.97221E+01 -3.33358E+01 -4.95953E+01 -4.78674E+01
  -5.38322E+01 -5.02706E+01 -3.14612E+01 -5.05112E+01 -4.97596E+01 -5.16770E+01 -6.73489E+01 -6.77801E+01 -7.48635E+01 -6.67285E+01
  -6.10858E+01 -6.18995E+01 -5.10992E+01 -5.50159E+01 -5.10085E+01 -5.22496E+01 -5.20634E+01 -3.07665E+01 -1.99771E+01 -2.30889E+01
  -1.43068E+01  2.37782E+01  2.51712E+01  3.55188E+01  5.04596E+01  4.52323E+01  7.34899E+01  7.58492E+01  8.31036E+01  8.80312E+01
   1.06746E+02  9.71713E+01  4.62459E+01  4.90642E+01  3.02773E+01  1.60132E+01  2.58723E+00  4.69869E+00  9.65515E+00 -2.42530E+01
  -9.82819E+00 -5.62911E+00 -1.85555E+01 -2.53190E+01 -3.52537E+01 -3.16208E+01 -2.47471E+01 -1.60600E+01 -1.82506E+01 -1.17126E+01
  -4.90918E+00 -1.34001E+01 -1.24144E+01 -9.45294E+00 -1.31967E+01 -2.01583E+01 -1.80339E+01 -1.67804E+01 -3.80543E+01 -3.97911E+01
  -3.48256E+01 -2.07517E+01 -1.52840E+01 -3.55179E+01 -3.04110E+01 -2.62585E+01  1.74084E+00  8.36611E+00  1.27365E+00  1.51900E+01
   1.44778E+01  1.85315E+01  9.25508E+00  2.41118E+01  2.32862E+01  2.44286E+01  4.30180E+01  3.25740E+01  3.00751E+01  2.82062E+01
   3.93155E+01  4.65864E+01  5.10897E+01  5.93003E+01  7.30078E+01  7.81936E+01  7.69157E+01  9.98637E+01  9.73869E+01  9.07127E+01
   1.11116E+02  1.00342E+02  7.52802E+01  6.23363E+01  4.28391E+01  5.18914E+01  3.21530E+01  2.57775E+01  4.62824E+01  2.09109E+01
   1.73207E+01 -1.17125E+01 -2.06840E+01 -1.40505E+01 -3.52421E+01 -3.26486E+01 -4.17998E+01 -3.54473E+01 -3.43275E+01 -3.85377E+01
  -3.34065E+01 -4.70332E+01 -5.25851E+01 -4.07417E+01 -3.72790E+01 -3.89379E+01 -2.90639E+01 -3.71623E+01 -4.15359E+01 -1.82991E+01
  -3.02250E+01 -3.86343E+01 -2.86663E+01 -4.04866E+01 -1.89751E+01 -4.34856E+01 -5.46665E+01 -2.10071E+01 -3.89078E+01 -3.12189E+01
  -3.64287E+01 -3.07413E+01 -2.99309E+01 -4.57409E+01 -3.07769E+01 -3.80978E+01 -3.14053E+01 -3.57738E+01 -3.71906E+01 -2.55443E+01
  -4.20234E+01 -4.02102E+01 -2.61587E+01 -3.37080E+01 -2.89987E+01 -2.23783E+01 -3.82919E+01 -3.84166E+01 -3.63251E+01 -3.87856E+01
  -2.89588E+01 -2.77072E+01 -3.37441E+01 -2.20314E+01 -2.61921E+01 -4.14935E+01 -3.81698E+01 -3.49120E+01 -4.14049E+01 -4.27264E+01
  -3.01677E+01 -3.97847E+01 -3.26275E+01 -2.63258E+01 -3.39566E+01 -2.72247E+01 -2.87657E+01 -2.22991E+01 -3.05541E+01 -2.98917E+01
  -2.97830E+01 -3.18824E+01 -1.94544E+01 -2.11668E+01 -2.06730E+01 -2.59883E+01 -1.93419E+01 -2.30250E+01 -3.45745E+01 -1.41748E+01
 NY points of the fit to the data follow
  -8.69937E+01 -8.85131E+01 -9.21140E+01 -9.77275E+01 -1.03423E+02 -9.57278E+01 -7.51079E+01 -6.03299E+01 -6.25130E+01 -7.10528E+01
  -7.84047E+01 -8.54552E+01 -9.12624E+01 -9.42632E+01 -9.46494E+01 -9.38970E+01 -9.50614E+01 -9.70038E+01 -1.05716E+02 -1.21498E+02
  -1.37345E+02 -1.31255E+02 -9.86038E+01 -8.28671E+01 -7.32627E+01 -3.96595E+01 -2.70480E+01 -2.90302E+01 -2.37354E+01 -2.12496E+01
  -2.04304E+01 -2.06795E+01 -2.13384E+01 -2.17825E+01 -2.29825E+01 -2.47754E+01 -2.82460E+01 -3.25333E+01 -3.92068E+01 -5.03821E+01
  -6.82411E+01 -8.63190E+01 -9.12165E+01 -8.57445E+01 -7.68941E+01 -6.03065E+01 -4.00141E+01 -2.37854E+01 -1.56766E+01 -1.08701E+01
  -8.17659E+00 -9.08024E+00 -1.16597E+01 -1.62091E+01 -2.45179E+01 -3.62406E+01 -4.50815E+01 -4.86345E+01 -5.41587E+01 -6.79816E+01
  -6.92399E+01 -5.33141E+01 -5.03149E+01 -4.49541E+01 -2.17656E+01 -8.92089E+00 -5.80715E+00 -5.78371E+00 -2.01426E+01 -4.83453E+01
  -6.89758E+01 -6.35649E+01 -5.50737E+01 -5.51753E+01 -4.13858E+01 -2.05557E+01 -8.70698E+00 -1.86047E+00  4.88416E+00  8.15496E+00
   9.08455E+00  1.52886E+00 -1.25354E+01 -3.09534E+01 -5.07676E+01 -5.79577E+01 -5.30820E+01 -4.42299E+01 -2.66197E+01 -1.61334E+01
  -8.31810E+00 -1.46347E+00  3.96897E+00  9.30961E+00  1.46042E+01  1.93559E+01  2.46739E+01  2.99162E+01  3.29955E+01  3.12462E+01
   3.08761E+01  3.46764E+01  3.25006E+01  1.38667E+01  1.12540E+00 -1.19154E+01 -3.36156E+01 -3.64124E+01 -3.37193E+01 -5.87712E+01
  -1.12178E+02 -1.61763E+02 -1.51943E+02 -1.23718E+02 -1.10372E+02 -9.45495E+01 -8.24265E+01 -7.28366E+01 -6.44993E+01 -5.68773E+01
  -4.98476E+01 -4.34293E+01 -3.67850E+01 -2.97188E+01 -2.19513E+01 -1.31846E+01 -1.55622E+00  1.64264E+01  3.65848E+01  6.33271E+01
   9.63093E+01  1.15342E+02  7.23575E+01 -3.23049E+01 -1.00748E+02 -1.02666E+02 -1.02378E+02 -1.02582E+02 -9.73526E+01 -9.41846E+01
  -9.25814E+01 -9.21544E+01 -9.22685E+01 -9.19596E+01 -9.13763E+01 -9.12934E+01 -9.08929E+01 -8.87621E+01 -8.62067E+01 -8.36221E+01
  -8.08072E+01 -7.79973E+01 -7.52540E+01 -7.29547E+01 -7.09504E+01 -6.82048E+01 -6.54035E+01 -6.40872E+01 -6.38102E+01 -6.27318E+01
  -6.01039E+01 -5.71538E+01 -5.58036E+01 -5.72810E+01 -5.94956E+01 -5.92088E+01 -5.77266E+01 -5.63271E+01 -5.56121E+01 -5.56014E+01
  -5.30525E+01 -4.36989E+01 -2.97875E+01 -2.41688E+01 -3.15702E+01 -3.77379E+01 -2.99252E+01 -1.73238E+01 -1.69396E+01 -3.01539E+01
  -4.41884E+01 -5.11042E+01 -5.46034E+01 -5.85008E+01 -6.09650E+01 -6.28479E+01 -6.37604E+01 -6.38817E+01 -6.36694E+01 -6.31523E+01
  -6.10320E+01 -5.90801E+01 -5.72229E+01 -5.40893E+01 -4.53087E+01 -3.58499E+01 -3.91911E+01 -4.04693E+01 -3.18973E+01 -3.05955E+01
  -3.25724E+01 -3.53873E+01 -3.51064E+01 -2.99294E+01 -3.42843E+01 -4.30327E+01 -4.95086E+01 -5.62268E+01 -6.32276E+01 -7.00057E+01
  -7.72108E+01 -8.28502E+01 -8.46862E+01 -7.96501E+01 -6.42473E+01 -4.42745E+01 -1.20542E+01  1.45514E+01  1.99629E+01  2.57834E+01
   1.76743E+01 -8.51405E-01 -5.07061E+00 -8.13966E+00 -7.47773E+00 -6.43177E+00 -7.17511E+00 -8.39422E+00 -1.29453E+01 -1.96057E+01
  -2.76540E+01 -3.69675E+01 -4.68814E+01 -5.63895E+01 -6.51041E+01 -7.43664E+01 -8.18927E+01 -8.69476E+01 -9.08999E+01 -9.09467E+01
  -8.75717E+01 -8.59941E+01 -8.12441E+01 -7.53153E+01 -7.15208E+01 -6.61600E+01 -6.28576E+01 -6.28192E+01 -6.28517E+01 -6.93496E+01
  -7.24337E+01 -7.52994E+01 -8.89744E+01 -9.12099E+01 -9.45489E+01 -1.16727E+02 -1.56857E+02 -1.29684E+02  6.95258E+00  9.27240E+01
   8.35354E+01  8.73700E+01  8.12324E+01  7.21413E+01  6.44894E+01  5.87353E+01  5.41444E+01  4.94160E+01  4.50556E+01  4.12190E+01
   3.81166E+01  3.64113E+01  3.57445E+01  3.63772E+01  3.71057E+01  3.74301E+01  3.81115E+01  3.74483E+01  3.64652E+01  3.57379E+01
   3.46437E+01  3.32668E+01  3.13451E+01  2.94305E+01  2.77079E+01  2.61199E+01  2.41952E+01  2.20785E+01  2.02201E+01  1.81520E+01
   1.56939E+01  1.27811E+01  9.29690E+00  5.97604E+00  2.48296E+00 -1.16417E+00 -3.70627E+00 -4.69854E+00 -4.25066E+00 -2.78348E+00
  -9.23278E-01  9.75534E-01  3.20718E+00  5.79846E+00  8.29725E+00  1.05814E+01  1.28343E+01  1.47914E+01  1.66934E+01  1.89161E+01
   2.15767E+01  2.39643E+01  2.58388E+01  2.75304E+01  2.91496E+01  3.08002E+01  3.22228E+01  3.28851E+01  3.32755E+01  3.31567E+01
   3.19457E+01  3.03018E+01  2.89749E+01  2.69305E+01  2.40437E+01  2.11494E+01  1.81711E+01  1.41948E+01  8.49945E+00  8.57863E-01
  -7.12679E+00 -1.44216E+01 -2.07829E+01 -2.57001E+01 -2.84637E+01 -2.83709E+01 -2.44176E+01 -1.87477E+01 -1.00984E+01 -1.31931E+00
   4.65417E+00 -1.09400E+00 -1.86114E+01 -3.20107E+01 -4.18957E+01 -4.68320E+01 -3.63635E+01 -2.75701E+01 -2.28680E+01 -1.86271E+01
  -1.57310E+01 -1.40442E+01 -1.40165E+01 -1.51541E+01 -1.74161E+01 -2.09193E+01 -2.44935E+01 -2.70898E+01 -2.83441E+01 -2.84997E+01
  -2.75525E+01 -2.55616E+01 -2.29849E+01 -1.97796E+01 -1.62612E+01 -1.28449E+01 -9.56755E+00 -6.45929E+00 -3.49224E+00 -7.06954E-01
   2.17746E+00  5.06456E+00  7.84401E+00  1.06146E+01  1.36479E+01  1.67476E+01  2.01424E+01  2.43059E+01  2.87315E+01  3.33456E+01
   3.90509E+01  4.52029E+01  5.11463E+01  5.77406E+01  6.54752E+01  7.29834E+01  7.95206E+01  8.44710E+01  8.66481E+01  8.46425E+01
   7.82812E+01  6.90285E+01  5.93216E+01  5.07397E+01  4.33284E+01  3.69000E+01  3.16366E+01  2.60695E+01  1.89443E+01  1.09546E+01
   2.91142E+00 -5.15693E+00 -1.26523E+01 -1.80305E+01 -2.22636E+01 -2.58851E+01 -2.83835E+01 -2.99026E+01 -3.09234E+01 -3.19190E+01
  -3.28744E+01 -3.37275E+01 -3.44406E+01 -3.47011E+01 -3.47279E+01 -3.48794E+01 -3.50450E+01 -3.47758E+01 -3.44565E+01 -3.47271E+01
  -3.51332E+01 -3.48254E+01 -3.40887E+01 -3.41307E+01 -3.43474E+01 -3.41066E+01 -3.38439E+01 -3.37641E+01 -3.38787E+01 -3.37852E+01
  -3.32753E+01 -3.27296E+01 -3.26499E+01 -3.27388E+01 -3.27775E+01 -3.28873E+01 -3.28019E+01 -3.24449E+01 -3.21613E+01 -3.19699E+01
  -3.15731E+01 -3.13085E+01 -3.11717E+01 -3.08630E+01 -3.06565E+01 -3.07287E+01 -3.10364E+01 -3.10833E+01 -3.07799E+01 -3.04174E+01
  -3.03031E+01 -3.00439E+01 -2.99241E+01 -3.01437E+01 -3.00323E+01 -2.94997E+01 -2.92639E+01 -2.90445E+01 -2.87658E+01 -2.86032E+01
  -2.84358E+01 -2.81138E+01 -2.79943E+01 -2.80342E+01 -2.81273E+01 -2.81322E+01 -2.81059E+01 -2.78621E+01 -2.74825E+01 -2.67577E+01
  -2.61701E+01 -2.60574E+01 -2.62611E+01 -2.65247E+01 -2.65190E+01 -2.62372E+01 -2.59346E+01 -2.58862E+01 -2.56894E+01 -2.53556E+01
 NY background values follow
    -5.894E+01   -5.864E+01   -5.834E+01   -5.803E+01   -5.773E+01   -5.742E+01   -5.712E+01   -5.681E+01   -5.651E+01   -5.620E+01
    -5.590E+01   -5.559E+01   -5.528E+01   -5.498E+01   -5.467E+01   -5.436E+01   -5.406E+01   -5.375E+01   -5.344E+01   -5.313E+01
    -5.282E+01   -5.252E+01   -5.221E+01   -5.190E+01   -5.159E+01   -5.128E+01   -5.096E+01   -5.065E+01   -5.034E+01   -5.003E+01
    -4.971E+01   -4.940E+01   -4.909E+01   -4.877E+01   -4.846E+01   -4.814E+01   -4.783E+01   -4.751E+01   -4.719E+01   -4.688E+01
    -4.656E+01   -4.625E+01   -4.593E+01   -4.562E+01   -4.530E+01   -4.499E+01   -4.468E+01   -4.436E+01   -4.405E+01   -4.374E+01
    -4.343E+01   -4.312E+01   -4.281E+01   -4.250E+01   -4.219E+01   -4.189E+01   -4.158E+01   -4.128E+01   -4.098E+01   -4.068E+01
    -4.038E+01   -4.008E+01   -3.978E+01   -3.949E+01   -3.920E+01   -3.891E+01   -3.862E+01   -3.833E+01   -3.805E+01   -3.776E+01
    -3.748E+01   -3.720E+01   -3.693E+01   -3.665E+01   -3.638E+01   -3.611E+01   -3.585E+01   -3.558E+01   -3.532E+01   -3.506E+01
    -3.480E+01   -3.455E+01   -3.430E+01   -3.405E+01   -3.381E+01   -3.357E+01   -3.333E+01   -3.309E+01   -3.286E+01   -3.263E+01
    -3.240E+01   -3.218E+01   -3.196E+01   -3.174E+01   -3.153E+01   -3.132E+01   -3.111E+01   -3.091E+01   -3.071E+01   -3.051E+01
    -3.032E+01   -3.013E+01   -2.994E+01   -2.976E+01   -2.957E+01   -2.940E+01   -2.922E+01   -2.905E+01   -2.888E+01   -2.871E+01
    -2.855E+01   -2.839E+01   -2.823E+01   -2.807E+01   -2.792E+01   -2.777E+01   -2.762E+01   -2.748E+01   -2.734E+01   -2.720E+01
    -2.706E+01   -2.693E+01   -2.680E+01   -2.667E+01   -2.654E+01   -2.642E+01   -2.630E+01   -2.618E+01   -2.607E+01   -2.595E+01
    -2.584E+01   -2.574E+01   -2.563E+01   -2.553E+01   -2.542E+01   -2.533E+01   -2.523E+01   -2.513E+01   -2.504E+01   -2.495E+01
    -2.486E+01   -2.478E+01   -2.469E+01   -2.461E+01   -2.453E+01   -2.446E+01   -2.438E+01   -2.431E+01   -2.424E+01   -2.417E+01
    -2.410E+01   -2.403E+01   -2.397E+01   -2.391E+01   -2.385E+01   -2.379E+01   -2.373E+01   -2.368E+01   -2.363E+01   -2.357E+01
    -2.353E+01   -2.348E+01   -2.343E+01   -2.339E+01   -2.335E+01   -2.331E+01   -2.327E+01   -2.323E+01   -2.320E+01   -2.317E+01
    -2.313E+01   -2.310E+01   -2.308E+01   -2.305E+01   -2.303E+01   -2.300E+01   -2.298E+01   -2.296E+01   -2.295E+01   -2.293E+01
    -2.292E+01   -2.290E+01   -2.289E+01   -2.288E+01   -2.287E+01   -2.287E+01   -2.286E+01   -2.286E+01   -2.286E+01   -2.286E+01
    -2.286E+01   -2.286E+01   -2.286E+01   -2.287E+01   -2.287E+01   -2.288E+01   -2.288E+01   -2.289E+01   -2.290E+01   -2.291E+01
    -2.292E+01   -2.294E+01   -2.295E+01   -2.296E+01   -2.298E+01   -2.299E+01   -2.301E+01   -2.302E+01   -2.304E+01   -2.306E+01
    -2.308E+01   -2.309E+01   -2.311E+01   -2.313E+01   -2.315E+01   -2.317E+01   -2.320E+01   -2.322E+01   -2.324E+01   -2.327E+01
    -2.329E+01   -2.332E+01   -2.335E+01   -2.337E+01   -2.340E+01   -2.343E+01   -2.347E+01   -2.350E+01   -2.353E+01   -2.357E+01
    -2.361E+01   -2.365E+01   -2.369E+01   -2.373E+01   -2.377E+01   -2.382E+01   -2.386E+01   -2.391E+01   -2.396E+01   -2.402E+01
    -2.407E+01   -2.413E+01   -2.418E+01   -2.424E+01   -2.430E+01   -2.437E+01   -2.443E+01   -2.450E+01   -2.457E+01   -2.464E+01
    -2.471E+01   -2.479E+01   -2.486E+01   -2.494E+01   -2.502E+01   -2.510E+01   -2.518E+01   -2.526E+01   -2.534E+01   -2.543E+01
    -2.552E+01   -2.561E+01   -2.570E+01   -2.579E+01   -2.588E+01   -2.597E+01   -2.607E+01   -2.617E+01   -2.626E+01   -2.636E+01
    -2.646E+01   -2.656E+01   -2.667E+01   -2.677E+01   -2.687E+01   -2.697E+01   -2.707E+01   -2.717E+01   -2.727E+01   -2.737E+01
    -2.747E+01   -2.756E+01   -2.766E+01   -2.775E+01   -2.783E+01   -2.792E+01   -2.800E+01   -2.807E+01   -2.815E+01   -2.822E+01
    -2.828E+01   -2.834E+01   -2.839E+01   -2.844E+01   -2.848E+01   -2.852E+01   -2.855E+01   -2.858E+01   -2.859E+01   -2.860E+01
    -2.860E+01   -2.860E+01   -2.859E+01   -2.857E+01   -2.854E+01   -2.851E+01   -2.847E+01   -2.842E+01   -2.837E+01   -2.831E+01
    -2.825E+01   -2.818E+01   -2.811E+01   -2.803E+01   -2.795E+01   -2.786E+01   -2.777E+01   -2.767E+01   -2.757E+01   -2.747E+01
    -2.736E+01   -2.725E+01   -2.714E+01   -2.702E+01   -2.691E+01   -2.679E+01   -2.666E+01   -2.654E+01   -2.641E+01   -2.629E+01
    -2.616E+01   -2.603E+01   -2.590E+01   -2.576E+01   -2.563E+01   -2.550E+01   -2.537E+01   -2.523E+01   -2.510E+01   -2.496E+01
    -2.483E+01   -2.470E+01   -2.456E+01   -2.443E+01   -2.430E+01   -2.417E+01   -2.403E+01   -2.390E+01   -2.377E+01   -2.365E+01
    -2.352E+01   -2.339E+01   -2.327E+01   -2.315E+01   -2.302E+01   -2.291E+01   -2.279E+01   -2.267E+01   -2.256E+01   -2.245E+01
    -2.234E+01   -2.224E+01   -2.213E+01   -2.203E+01   -2.193E+01   -2.184E+01   -2.175E+01   -2.165E+01   -2.157E+01   -2.148E+01
    -2.140E+01   -2.132E+01   -2.124E+01   -2.116E+01   -2.109E+01   -2.102E+01   -2.095E+01   -2.089E+01   -2.083E+01   -2.077E+01
    -2.071E+01   -2.066E+01   -2.060E+01   -2.056E+01   -2.051E+01   -2.047E+01   -2.042E+01   -2.039E+01   -2.035E+01   -2.032E+01
    -2.029E+01   -2.026E+01   -2.023E+01   -2.021E+01   -2.019E+01   -2.017E+01   -2.016E+01   -2.014E+01   -2.013E+01   -2.012E+01
    -2.012E+01   -2.011E+01   -2.011E+01   -2.011E+01   -2.011E+01   -2.012E+01   -2.012E+01   -2.013E+01   -2.014E+01   -2.015E+01
    -2.016E+01   -2.017E+01   -2.019E+01   -2.020E+01   -2.022E+01   -2.024E+01   -2.026E+01   -2.028E+01   -2.031E+01   -2.033E+01
    -2.035E+01   -2.038E+01   -2.041E+01   -2.043E+01   -2.046E+01   -2.049E+01   -2.052E+01   -2.055E+01   -2.058E+01   -2.062E+01
    -2.065E+01   -2.068E+01   -2.072E+01   -2.075E+01   -2.079E+01   -2.082E+01   -2.086E+01   -2.090E+01   -2.093E+01   -2.097E+01
    -2.101E+01   -2.105E+01   -2.109E+01   -2.112E+01   -2.116E+01   -2.120E+01   -2.124E+01   -2.128E+01   -2.132E+01   -2.136E+01
    -2.140E+01   -2.144E+01   -2.148E+01   -2.151E+01   -2.155E+01   -2.159E+01   -2.163E+01   -2.167E+01   -2.171E+01   -2.175E+01
    -2.179E+01   -2.183E+01   -2.186E+01   -2.190E+01   -2.194E+01   -2.198E+01   -2.202E+01   -2.206E+01   -2.209E+01   -2.213E+01
    -2.217E+01   -2.221E+01   -2.225E+01   -2.229E+01   -2.232E+01   -2.236E+01   -2.240E+01   -2.244E+01   -2.248E+01   -2.251E+01
 Mac      Conc. = 2.51E-04
  -7.55026E+01 -7.60458E+01 -7.62957E+01 -7.62623E+01 -7.61210E+01 -7.59687E+01 -7.60901E+01 -7.68612E+01 -7.80759E+01 -7.94740E+01
  -8.06687E+01 -8.14075E+01 -8.15866E+01 -8.14538E+01 -8.13767E+01 -8.14010E+01 -8.23089E+01 -8.42745E+01 -8.52293E+01 -8.30810E+01
  -7.82535E+01 -7.42493E+01 -7.12139E+01 -6.71720E+01 -6.41014E+01 -6.27373E+01 -6.16566E+01 -6.02019E+01 -5.84842E+01 -5.65105E+01
  -5.42773E+01 -5.22834E+01 -5.08209E+01 -4.94716E+01 -4.83934E+01 -4.79058E+01 -4.80883E+01 -4.82216E+01 -4.72176E+01 -4.48370E+01
  -4.20453E+01 -4.04162E+01 -4.02729E+01 -4.03046E+01 -3.94943E+01 -3.80521E+01 -3.63214E+01 -3.50502E+01 -3.46839E+01 -3.47923E+01
  -3.52814E+01 -3.61294E+01 -3.71824E+01 -3.79728E+01 -3.83062E+01 -3.85535E+01 -3.87091E+01 -3.87291E+01 -3.80988E+01 -3.65206E+01
  -3.49137E+01 -3.37415E+01 -3.21553E+01 -3.03353E+01 -2.98220E+01 -3.00004E+01 -3.04498E+01 -3.11514E+01 -3.14136E+01 -3.14577E+01
  -3.18578E+01 -3.18019E+01 -3.01829E+01 -2.71587E+01 -2.47605E+01 -2.32487E+01 -2.21736E+01 -2.16111E+01 -2.16481E+01 -2.20980E+01
  -2.25818E+01 -2.27523E+01 -2.29658E+01 -2.32020E+01 -2.31994E+01 -2.24569E+01 -2.14938E+01 -2.06775E+01 -1.96437E+01 -1.85912E+01
  -1.79116E+01 -1.71880E+01 -1.65755E+01 -1.58994E+01 -1.55592E+01 -1.53691E+01 -1.57894E+01 -1.71383E+01 -1.89688E+01 -2.08816E+01
  -2.30421E+01 -2.45592E+01 -2.55566E+01 -2.70742E+01 -2.94004E+01 -3.20339E+01 -3.56384E+01 -4.09695E+01 -4.73265E+01 -5.29155E+01
