 
 $NMID
 ID=''
 FMTDAT='(2E13.5)'
 TRAMP=   1.00000E+0
 VOLUME=   1.00000E+0
 $END
   2.24475E+4   5.17910E+3
   3.40403E+4  -1.38891E+4
  -7.77754E+3  -3.54610E+4
  -3.60948E+4   8.65323E+3
   3.66502E+3   3.55973E+4
   2.99958E+4  -3.82068E+3
  -2.46861E+3  -2.45762E+4
  -1.97628E+4   3.55325E+3
   3.37616E+3   1.86157E+4
   1.16188E+4   2.10673E+3
  -5.27478E+3  -1.11027E+4
  -1.05182E+4  -3.40938E+3
  -6.71843E+1   9.30355E+3
   4.25818E+3   5.39305E+3
  -8.86795E+2  -7.94184E+3
  -1.26023E+3  -5.84311E+3
   1.63497E+3   5.01051E+3
  -3.80714E+2   4.40573E+3
  -1.49173E+3  -2.13352E+3
   1.90619E+3  -2.46387E+3
   1.44220E+3   4.81226E+1
  -8.12583E+2   6.73246E+2
  -3.05094E+2   7.82167E+2
   3.97155E+2  -5.30276E+2
   1.27641E+2  -1.41837E+3
   7.26388E+2   6.35655E+2
  -5.12002E+1   1.90150E+3
  -1.02965E+3   3.93211E+2
   2.13775E+2  -8.65334E+2
   1.37692E+2   2.69211E+2
  -1.21764E+3   3.29657E+2
  -2.32549E+2  -6.60223E+2
   4.51147E+2  -3.92866E+2
  -1.07969E+3  -9.45063E+2
   3.00220E+2  -2.71228E+3
   3.02383E+3  -1.07700E+3
   1.19117E+3   2.58430E+3
  -1.99144E+3   1.29322E+3
  -5.37114E+2  -1.50852E+3
   1.13878E+3  -6.17063E+2
  -1.14749E+3   3.41786E+2
  -1.46135E+3  -1.38974E+3
   1.64739E+3  -1.41682E+3
   2.19731E+3   3.68633E+2
  -1.89824E+2   1.33935E+3
  -9.20781E+2   9.44764E+2
  -4.72542E+2   7.01321E+2
  -1.29245E+3  -2.43565E+2
  -1.03850E+3  -1.65768E+3
   4.42600E+2  -1.67867E+3
   1.09063E+3  -6.76661E+2
   1.06429E+3  -2.88877E+2
   5.78717E+2  -1.37982E+2
   3.49461E+2   4.08450E+2
   4.08931E+2   6.39834E+2
  -2.85176E+2   2.92360E+2
  -1.20717E+3  -2.05916E+2
  -1.62715E+1  -1.21572E+3
   1.38834E+3  -8.83114E+2
   9.71684E+2   8.53688E+2
  -3.74605E+2   1.24921E+3
   3.20084E+2   3.96383E+2
   9.49706E+1   7.13611E+2
  -1.27641E+3   5.70535E+2
  -1.95931E+3  -9.09231E+2
  -1.27656E+2  -2.04311E+3
   1.63659E+3  -1.38775E+3
   1.21088E+3  -3.06419E+2
   5.76156E+2   2.31166E+2
   1.21896E+2   3.23721E+2
   2.13516E+2  -3.75310E+2
   5.57299E+2  -6.19052E+2
   1.87079E+2   3.62646E+2
   1.09165E+1   7.68375E+2
  -2.65013E+2   6.12116E+1
   1.24711E+2  -6.25160E+2
   1.58749E+1  -3.11840E+2
  -1.08831E+2   5.63733E+2
  -2.06649E+2   2.40223E+2
  -3.69299E+2  -6.82616E+2
  -3.44256E+2  -7.91549E+2
   3.89342E+2  -3.88369E+2
   3.16469E+2  -1.73314E+2
   3.87783E+1  -3.67611E+2
  -1.22886E+2  -7.87377E+2
   3.27094E+2  -4.69300E+2
   7.36566E+2   2.86541E+1
   1.64462E+2   1.34862E+2
  -7.71491E+1  -9.77457E+1
   1.58131E+2   9.78800E+1
   3.27091E+2   2.55508E+2
  -2.15042E+2   8.16870E+2
  -1.04282E+3   6.12371E+1
  -8.93473E+2  -4.75049E+2
   2.83024E+1  -7.70807E+2
   8.43752E+2  -5.88795E+2
   5.27959E+2   7.74475E+1
  -7.37258E+1  -3.38163E+1
   1.31179E+2  -1.80821E+2
   6.80277E+2  -6.72941E+0
   2.82019E+2   4.87113E+2
  -6.56547E+2   3.54098E+2
  -7.60400E+2  -1.97233E+2
   1.38035E+2  -7.58406E+2
   6.98709E+2  -4.02771E+2
   4.06548E+2   4.19403E+2
  -5.83268E+2   4.99674E+2
  -6.88996E+2  -2.26525E+2
   3.37801E+1  -8.57173E+2
   1.00520E+3  -2.58016E+2
   8.40074E+2   4.40416E+2
  -1.53215E+2   8.56622E+2
  -3.17257E+2   5.19935E+2
  -2.69568E+2   4.08779E+2
  -1.91238E+2   3.66481E+2
  -8.12280E+2  -1.18613E+2
  -8.82089E+2  -4.58756E+2
  -3.13471E+2  -9.07193E+2
   5.11870E+2  -8.95730E+2
   8.01488E+2  -4.43499E+2
   6.79406E+2   4.03937E+2
   3.58481E+2   5.49213E+2
  -3.84634E+1   3.86706E+2
  -4.06049E+2   2.18472E+2
  -5.25394E+2   2.03152E+2
  -1.25623E+2  -1.10355E+2
  -4.46129E+1  -1.07161E+2
   2.68175E+2  -8.54821E+1
   3.95366E+2   2.14633E+1
  -1.55809E+2   6.79756E+2
  -5.73744E+2   1.46595E+2
  -1.50768E+2  -4.14721E+2
   2.41656E+2  -5.01706E+2
   1.24984E+2   2.27738E+2
  -1.68186E+2  -3.22183E+2
   4.71759E+2  -3.57361E+2
   4.46855E+2   5.48906E+1
   1.95483E+2   6.34953E+2
  -5.01104E+2   3.14274E+2
  -2.30180E+2  -1.02808E+2
  -4.64071E+2  -3.48672E+2
   8.79607E+1  -3.34372E+2
   6.13239E+2   1.78390E+2
   2.58503E+2   7.84123E+2
  -5.24755E+2   6.55175E+2
  -8.31484E+2  -5.38605E+1
  -1.80598E+2  -4.29477E+2
   1.18672E+2  -1.58981E+1
  -3.72063E+2  -4.47707E+1
  -2.04367E+2  -3.81608E+2
   1.13470E+2  -4.83955E+2
   5.23524E+2  -7.03082E+1
   3.30732E+2   5.96709E+2
  -4.44843E+2   7.31739E+2
  -5.45404E+2   1.66545E+2
   1.97212E+2   9.50404E+1
   9.41236E+0   4.25214E+2
  -3.18659E+2   4.06602E+2
  -9.70974E+1   1.57901E+2
   1.84150E+2   1.24300E+2
  -1.83402E+2   1.09672E+2
  -6.24508E+2  -2.13624E+1
  -2.87707E+2  -2.90242E+2
   2.26429E+2  -2.50054E+2
  -5.83020E+1  -1.51523E+2
   2.92589E+2   1.99422E+1
   3.07639E+2   3.65714E+2
   7.23722E+0   2.34527E+2
  -2.97456E+2  -1.03160E+2
   1.07523E+2  -2.09171E+2
   3.03063E+2   1.07751E+2
  -3.97243E+1   4.20399E+2
  -2.55424E+2   5.17245E+1
  -1.40180E+2   1.94406E+2
   4.89638E+2   3.30929E+0
   4.56379E+0   3.15277E+2
  -1.71323E+2   3.68991E+2
  -3.49887E+2  -1.00926E+2
  -7.11523E+1  -1.73295E+2
   2.27416E+2   2.11238E+2
   4.47783E+1   4.77378E+2
  -2.78862E+2   3.49568E+2
  -5.21670E+2   1.29611E+2
  -2.81099E+2  -6.22575E+1
   5.98866E+1  -3.14376E+2
  -6.96835E+1  -2.20755E+2
   3.81409E+1  -2.48656E+2
   2.49403E+2  -1.22433E+2
   5.40889E+2   2.90261E+2
   1.36181E+2   6.16570E+2
  -2.52185E+2   6.19999E+2
  -7.52581E+2   1.77947E+2
  -4.33454E+2  -3.20844E+2
   2.54599E+2  -1.02868E+2
   3.74298E+2  -7.68600E+1
   9.65706E+1   1.74419E+2
  -1.93939E+2   2.45453E+2
  -2.53818E+1   3.21642E+2
  -3.40728E+1   2.25298E+2
  -4.10872E+2   2.20476E+2
  -3.44421E+2  -2.49538E+2
   6.31505E+1  -3.93494E+2
   3.84784E+2   4.04810E+0
   5.79921E+1   3.16287E+2
  -1.39805E+2   2.28903E+2
  -1.68039E+2  -1.18123E+2
  -1.91645E+2  -1.32803E+2
   3.21620E+1   9.12455E+1
  -1.49672E+1   1.86669E+2
  -1.53685E+2   2.92416E+2
   5.11985E+1   1.81288E+1
   3.43835E+2   6.60863E-1
   1.17768E+2   5.50731E+2
  -1.87939E+2   7.52312E+2
  -4.94488E+2   1.20353E+2
  -6.56399E+1  -3.67859E+2
  -1.19759E+2  -4.00279E+2
   2.21070E+2  -1.50663E+2
   4.66333E+2   1.83353E+2
   1.78972E+1   1.37964E+2
   4.10080E+1  -9.30933E+1
   2.58879E+0   3.21074E+2
   1.75604E+1   5.87257E+2
  -4.69831E+2   1.44021E+2
  -1.90614E+2   1.08648E+2
  -4.95890E+1  -1.26612E+2
   1.48789E+2   1.98794E+1
  -2.74689E+1   2.60596E+2
  -1.40143E+2   1.03042E+2
  -1.25951E+2  -1.16866E+1
   7.73348E+1  -4.76506E+0
   1.31875E+2   9.40296E+1
  -2.11707E+1   5.59632E+1
  -1.96693E+2  -1.85230E+2
  -1.10730E+2  -1.57195E+1
  -1.28907E+2   1.26428E+2
   1.36112E+2   3.87687E+2
  -1.00446E+2  -4.69122E+1
  -1.87724E+2  -7.69364E+1
   1.17092E+2  -1.38243E+2
   1.52179E+2   2.18805E+2
   4.64546E+1   4.27421E+2
  -3.81585E+2   1.50471E+2
  -2.33913E+2  -1.73322E+2
  -1.47558E+2  -2.40778E+2
   8.64855E+0  -4.26722E+1
  -5.95241E+1   1.69857E+2
  -9.59282E+1  -5.10909E+0
   1.10644E+2  -9.85894E+1
   1.90837E+2   1.13814E+2
   4.00900E+1   3.48052E+2
  -3.09766E+2   1.12116E+2
  -1.73635E+2  -1.17311E+2
  -1.69501E+2  -2.56750E+2
   2.71744E+2  -2.41835E+2
   2.02039E+2   2.08373E+2
  -9.95185E+1   2.90610E+2
   1.05756E+2   4.16242E+1
   6.72282E+1  -5.01424E+1
  -2.21023E+1   2.51258E+2
  -3.25800E+2   3.88072E+2
  -2.95369E+2  -1.91667E+2
  -1.02931E+2  -5.29987E+2
   3.76391E+2  -1.67522E+2
   1.45239E+2   3.54284E+2
   2.96852E+1   3.88442E+2
  -5.27915E+2  -1.52134E+2
  -1.84355E+2  -2.86825E+2
   2.23738E+1  -1.72795E+2
  -9.35034E+1  -1.26768E+2
  -1.49437E+1   1.24629E+2
  -1.31811E+2   2.66740E+2
   1.08763E+2  -6.68955E+1
   2.06538E+2   3.60125E+2
  -1.27542E+2   2.14731E+2
  -4.48210E+2  -2.04620E+2
  -5.45435E+1  -2.27715E+2
   1.23231E+2  -2.72876E+2
   2.24170E+2  -1.36673E+2
   2.05864E+2   2.74619E+2
  -1.77282E+1   7.51822E+1
   1.15012E+2  -1.49310E+2
  -7.52613E+1   2.01319E+2
  -4.89972E+1   3.02899E+2
  -4.04329E+2  -1.91949E+2
  -1.81710E+2  -5.27074E+2
   1.57927E+2  -2.80351E+2
   4.10028E+2  -1.80155E+2
   2.29959E+2   2.50446E+2
  -8.13658E+1   1.73961E+2
  -5.92670E+1  -7.71720E+0
  -2.09882E+2  -2.86858E+2
   4.73021E+1  -3.26527E+0
   9.63334E+1   1.24161E+2
  -1.64468E+2  -9.75717E+1
   8.86182E+1  -6.78052E+1
  -1.44280E+2   1.84504E+2
  -6.16532E+1   1.55986E+2
  -5.05704E+2   8.77477E+1
   7.72906E+1  -8.32471E+0
   6.02860E+1  -1.14457E+2
   3.65386E+2  -1.61531E+0
  -1.64805E+1   3.04825E+2
  -2.67020E+2   1.88418E+1
  -1.36519E+2  -6.84699E+1
   1.11350E+2  -2.59614E+2
   1.18704E+2  -2.21463E+2
  -6.84264E+0   8.55144E+1
   1.42611E+2   1.01798E+2
   2.68167E+1  -7.93603E+1
   3.00786E+2   1.32165E+2
   1.13348E+2   1.82928E+2
  -1.31996E+2   3.43741E+2
  -1.96941E+2   2.61978E+1
  -5.66689E+0  -3.36546E+2
   8.82447E+1  -2.59396E+2
   6.57875E+1  -3.06650E+1
   5.53596E+1  -8.58624E+1
   3.26045E+1  -1.19453E+2
   8.16979E-1  -2.61917E+2
   1.04668E+2  -3.74356E+1
  -8.35056E+1  -6.77387E+1
  -1.26676E+1  -1.59066E+2
  -1.12776E+2  -1.51651E+2
   8.73466E+1  -1.09808E+2
  -6.96605E+1   4.17299E+2
   6.84471E+1   1.10645E+2
  -1.13759E+2   6.37377E+1
  -3.36721E+2  -2.09460E+2
   2.22820E+2  -1.81766E+2
  -1.11227E+2   1.24829E+1
   4.52702E+1   9.86200E+0
   3.06387E+0   4.49230E+0
   1.50023E+2   1.32138E+1
   1.25637E+1   3.26555E+2
  -1.83130E+2   3.86436E+2
  -2.96963E+2   1.00025E+2
  -1.17257E+2  -3.63423E+2
   2.51645E+2  -2.17001E+2
   1.24701E+2  -6.61510E+1
   3.47373E+0   2.08197E+2
  -2.08148E+2   5.19791E+1
  -6.01848E+1   1.42714E+2
   9.36598E+1  -1.81160E+2
   1.82811E+1   1.48100E+2
  -2.71594E+2  -1.20907E+2
   5.98591E+1   3.71300E+1
   1.19987E+2  -2.48807E+2
   2.19207E+2   9.81803E+1
   1.81268E+1   1.84237E+2
  -1.61734E+2  -4.43080E+1
   3.95991E+0  -3.28744E+2
  -3.16480E+1  -4.41749E+2
   9.38540E+1   8.87315E+1
  -1.33660E+2  -2.24017E+1
  -9.42075E+0  -2.18122E+2
   1.41274E+2  -2.63758E+2
   2.30145E+2   1.84616E+1
   1.19309E+2   2.02953E+2
  -2.53653E+2   2.77480E+1
  -9.03815E+1  -6.89668E+1
   4.95159E+1  -3.40247E+2
   3.22213E+2  -5.22095E+1
  -3.48648E+1   3.79262E+2
  -8.06544E+1  -1.38913E+1
  -2.48744E+2  -1.47423E+2
  -1.12349E+2   6.47996E+1
