 
 $NMID
 ID=''
 FMTDAT='(2E13.5)'
 TRAMP=   1.00000E+0
 VOLUME=   1.00000E+0
 $END
   1.98599E+4   9.17875E+2
   2.55600E+4  -2.15942E+4
  -1.75398E+4  -3.26998E+4
  -3.06668E+4   1.89151E+4
   1.40298E+4   3.65069E+4
   2.86604E+4  -1.18367E+4
  -7.56429E+3  -2.70456E+4
  -1.93684E+4   8.01052E+3
   5.82681E+3   1.96124E+4
   1.47192E+4   1.92188E+2
  -2.28956E+3  -8.54179E+3
  -1.13198E+4  -3.57617E+2
  -1.03175E+3   8.07620E+3
   5.90894E+3   4.37365E+3
  -9.02063E+2  -5.31256E+3
  -4.00696E+3  -5.27335E+3
   1.59754E+3   2.88394E+3
   2.82413E+3   3.54239E+3
  -6.34887E+2  -1.30276E+3
  -4.09856E+2  -2.38967E+3
  -6.02945E+1   3.40304E+2
   2.86023E+2   1.24153E+3
   1.89889E+3  -1.19618E+2
   1.80854E+2  -7.05650E+2
  -1.85148E+3  -5.51671E+2
   9.64876E+2  -7.09753E+1
   2.27118E+3   8.56123E+2
  -3.96126E+2   5.86231E+2
  -1.15599E+3  -1.04315E+3
   1.95080E+2  -7.66745E+2
   1.03461E+2   7.83213E+2
  -6.58648E+2  -8.58947E+1
  -5.32366E+2  -4.74841E+2
  -9.33811E+2  -2.30427E+2
  -8.27550E+2  -2.48904E+3
   1.03884E+3  -2.98243E+3
   1.55636E+3   1.21308E+3
  -2.87209E+2   2.20411E+3
  -8.69983E+2  -9.27711E+2
   2.11924E+2  -1.30126E+3
  -7.16886E+2   7.97812E+2
  -1.81462E+3  -4.29485E+2
   8.19271E+1  -2.37053E+3
   1.61802E+3  -1.06058E+3
   5.48508E+2   7.55819E+2
   1.44417E+2   1.06109E+3
  -2.54192E+1   5.76852E+2
  -1.30043E+3   4.38562E+2
  -1.80466E+3  -1.62551E+2
  -8.94679E+2  -1.42222E+3
  -4.99137E+0  -1.33600E+3
  -6.65865E+1  -6.54483E+2
   2.03838E+2  -3.40824E+2
   1.13561E+2   3.72201E+0
   1.11348E+2   2.77507E+2
  -4.65519E+2   7.83051E+2
  -1.11073E+3   7.87824E+2
  -9.30273E+2  -1.44051E+3
   3.54610E+2  -1.65405E+3
   7.60889E+2  -1.27959E+0
   4.13547E+2   6.11089E+2
   3.71273E+2   2.14026E+2
   5.04015E+2   9.35508E+2
  -1.17508E+3   1.66687E+3
  -2.17503E+3   6.75738E+2
  -1.16562E+3  -1.22244E+3
  -4.08248E+2  -1.44684E+3
   3.28545E+2  -8.06127E+2
   8.96927E+2  -2.99249E+2
   6.94135E+2   9.00029E+1
  -6.08718E+2  -3.06429E+2
  -5.98001E+2  -4.69383E+2
   9.42391E+2   1.85048E+2
   7.21693E+2   8.37653E+2
  -4.09963E+2   4.20939E+2
  -3.09364E+2  -6.82263E+1
   2.75031E+2  -1.01614E+2
   7.15420E+1   5.06425E+2
  -3.19309E+2   4.41649E+2
  -6.03025E+2   1.55979E+2
  -2.08214E+2  -1.46514E+2
  -2.13036E+2  -6.17710E+2
  -8.68455E+1  -3.08348E+2
  -5.19342E+0   9.79946E+1
  -2.21734E+2  -1.42031E+2
   4.31108E+2  -6.42373E+2
   6.12583E+2  -3.09519E+2
   3.25807E+2   4.28838E+2
   2.45757E+1   8.64105E+1
   1.37477E+2  -2.55479E+0
   5.62526E+2  -5.52186E+1
   2.49991E+2   7.98457E+2
  -3.06765E+2   9.63640E+2
  -1.03704E+3   4.03115E+2
  -6.65070E+2  -7.79865E+2
   1.74724E+2  -7.36687E+2
   6.13905E+2  -3.35947E+1
  -1.09630E+2  -8.60278E+1
  -6.99509E+1  -3.38834E+2
   6.45171E+2  -4.00515E+2
   4.20920E+2   5.33840E+2
   1.43890E+2   7.52813E+2
  -6.52611E+2   4.53950E+1
  -2.55209E+2  -6.44917E+2
   1.67862E+2  -6.19942E+2
   7.78502E+2  -1.58758E+2
   3.69832E+0   8.25469E+2
  -7.49122E+2   2.07561E+2
  -6.69490E+2  -9.41539E+2
   7.16879E+2  -8.97520E+2
   1.09715E+3  -3.44351E+1
   6.55449E+2   4.73381E+2
   1.11141E+2   6.48721E+2
   1.89061E+2   3.85640E+2
   1.08935E+2   5.78127E+2
  -4.57897E+2   5.86096E+2
  -7.55668E+2   3.28552E+2
  -8.82552E+2  -3.92421E+2
  -2.61526E+2  -1.15734E+3
   5.37675E+2  -8.98285E+2
   9.87688E+2  -4.20496E+1
   6.77620E+2   3.66482E+2
   4.75999E+2   4.81546E+2
  -4.16889E+1   5.76156E+2
  -4.94466E+2   2.90728E+2
  -4.40959E+2  -3.08183E+1
  -1.50093E+2  -1.98647E+2
   1.49227E+2  -4.87413E+2
   4.92240E+2  -7.08385E+1
   2.57083E+2   5.12883E+2
  -1.00945E+2   5.83740E+2
  -7.56592E+2  -1.22023E+1
  -2.29973E+2  -2.50726E+2
   3.55669E+2  -1.12779E+2
  -7.43542E+1   2.05371E+2
  -2.48741E+1  -2.16393E+2
   2.59188E+2  -1.39379E+1
   6.96004E+2   6.97706E+1
  -1.30084E+1   5.28798E+2
  -4.10467E+2   5.59954E+2
  -7.52045E+2   3.94459E+0
  -9.73472E+1  -6.76585E+2
   7.01432E+2  -2.58673E+2
   5.16328E+2   5.15753E+2
  -6.81893E+1   8.68434E+2
  -3.37766E+2   4.36521E+2
  -1.67141E+2   1.82278E+1
  -2.26169E+2   1.20984E-1
  -3.49842E+2   1.45577E+2
  -2.96145E+2  -4.57150E+2
   1.40765E+2  -4.71459E+2
   4.92265E+2  -3.15841E+2
   7.36168E+2   1.56232E+2
   4.82740E+2   5.80234E+2
   2.04216E+1   3.02177E+2
  -2.21555E+2  -1.00193E+2
   5.17885E+2   1.73001E+2
   2.02901E+2   4.46696E+2
   1.28662E+2   2.05673E+2
  -6.46312E+1  -6.51316E+1
   1.06992E+2   2.95137E+2
  -8.42255E+1   2.36674E+2
  -6.68301E+1   1.07678E+2
  -4.09564E+2  -2.65114E+2
   7.60461E+0  -1.32904E+2
   4.81907E+2  -2.22651E+2
   5.16414E+2   2.91750E+2
   8.40112E+1   1.62575E+2
  -7.86798E+1   2.14474E+2
   1.97185E+2   1.50081E+1
   1.82289E+2  -5.46619E+1
   6.09265E+0   3.46654E+2
  -8.15186E+1   2.82817E+2
  -3.32804E-1   3.15940E+1
   1.15238E+1  -1.53315E+1
   1.74944E+2   1.41869E+2
  -1.29093E+2   3.67501E+2
  -4.41822E+2  -1.32992E+2
  -3.89371E+1  -3.05179E+2
   2.05271E+2  -1.87137E+2
   4.21356E+2   3.98974E+2
  -9.22080E+1   5.30093E+2
  -3.38807E+2   3.48353E+2
  -2.67639E+2  -4.71348E+1
  -2.89796E+2  -2.54094E+1
  -4.84038E+1  -9.91046E+1
  -3.41385E+1  -1.04928E+2
   1.08060E+2  -2.62111E+2
   5.49382E+2   4.81894E+1
   9.51367E+2   1.39579E+2
   1.99109E+2   9.44647E+2
  -4.17195E+2   5.59539E+2
  -3.17087E+2   6.68765E+1
  -1.51786E+2  -1.93358E+2
   1.08959E+2  -7.75605E+1
   6.91289E+1   2.04477E+2
   2.54679E+2  -1.05658E+2
  -1.96919E+1  -1.78176E+1
   1.09668E+2   7.93500E+1
  -1.73381E+2   2.45631E+2
  -3.66107E+2   7.92620E+1
  -2.82590E+2  -1.12680E+2
   2.37232E+2  -5.25563E+2
   3.56355E+2  -2.54426E+2
   4.53395E+2   2.87341E+2
  -2.01991E+2   3.13208E+2
  -3.36935E+2   1.11501E+2
  -1.26029E+2  -2.12555E+2
  -4.74772E+1   2.68385E+2
   4.18662E+1   4.32430E+2
  -8.88662E+1  -3.41963E+2
   2.75647E+2  -2.56161E+2
   4.76694E+2   1.54949E+2
   2.31718E+1   6.02038E+2
  -4.31646E+2   5.79603E+2
  -6.30791E+2   1.36491E+2
  -1.57979E+2  -4.28463E+2
   4.25371E+2  -1.31158E+2
   1.40146E+2  -1.84914E+2
   9.55593E+1   6.10940E+1
   3.24619E+1  -1.25491E+1
   2.00198E+2   9.59264E+1
   3.28381E+2   4.83162E+2
  -2.65655E+2   2.60977E+2
  -5.70104E+2  -9.20879E-1
  -1.98537E+2  -2.66911E+2
   1.49176E+2  -1.17170E+2
   4.13131E+2   4.17750E+2
   1.48396E+1   2.48702E+2
  -1.19788E+2   2.60005E+2
  -9.32526E+1  -2.70442E+2
   5.05674E+1  -2.31118E+2
   1.04043E+2   2.95330E+1
  -2.20312E+2   2.69604E+2
  -1.20414E+1  -5.70733E+1
   2.41657E+2  -1.08394E+1
   6.65653E+1   6.73782E+1
  -2.03944E+2   8.07108E+1
  -9.98160E+1   1.36131E+2
  -1.85875E+1  -1.16952E+2
   3.12787E+2  -3.60580E+2
   2.47665E+2   4.09683E+2
  -1.52686E+2   3.62183E+2
  -3.10759E+2   4.98598E+1
  -2.44996E+2  -1.92771E+2
   4.58658E+2   4.83563E+1
   1.79077E+2   3.40408E+2
  -2.63235E+2   1.06381E+2
  -1.69471E+2  -3.04904E+2
   2.21639E+2  -3.66728E+2
   5.46453E+2   1.67143E+2
   1.50899E+1   2.69642E+2
  -3.20961E+2   3.26394E+2
  -2.61234E+2  -5.05608E+2
   3.60618E+2  -3.15532E+2
   4.75732E+2  -7.10232E+1
   2.57984E+2   2.50090E+2
  -2.65279E+2   1.66826E+2
  -1.19774E+1   1.64208E+2
  -4.60812E+1   1.94387E+2
  -1.89708E+2   1.36703E+2
  -4.82401E+2  -1.16102E+2
  -4.05454E+2  -4.78753E+2
   1.01705E+2  -4.09497E+2
   2.56441E+2  -9.44154E+1
   2.04341E+2   5.78747E+2
  -2.12256E+2   3.18428E+2
  -3.70053E+2  -1.20442E+2
  -2.59257E+2  -4.38406E+2
  -5.09038E+1  -1.95642E+2
   1.08112E+2   1.36173E+2
   5.98237E+1  -2.95773E+1
   2.25733E+2  -1.54131E+2
   1.52674E+2   1.36720E+2
   1.83861E+2   2.81998E+2
  -1.82250E+2   5.78126E+1
  -4.22356E+2  -1.25502E+2
   2.09961E+2  -3.05922E+2
   1.62316E+2  -1.26565E+2
  -1.31574E+1   3.83710E+1
  -1.14102E+1   2.40496E+2
  -1.84276E+2  -2.29995E+1
   2.70356E+2  -2.08657E+2
   4.74236E+1   1.37810E+1
  -2.93847E+2   1.11156E+2
  -2.34882E+2  -1.80400E+2
  -1.64890E+2  -3.68218E+2
   4.97761E+2  -3.53801E+2
   2.48543E+2   1.58351E+2
   8.48815E+1   1.44772E+2
  -2.81432E+2   4.16216E+1
  -1.71052E+2  -2.73037E+2
   1.73416E+1   2.53958E+1
  -6.52614E+1  -1.62151E+2
  -1.12867E+2  -1.42654E+2
   8.99965E+1  -3.85205E+2
   3.28691E+1  -2.44663E+2
   1.94433E+2   1.27365E+2
  -2.60097E+1   2.52743E+2
  -3.71794E+2  -2.18821E+1
   5.89906E+1  -3.23506E+2
   5.03466E+1  -2.48572E+2
   1.35697E+2   2.22077E+2
  -1.76756E+2   6.36993E+1
  -1.99805E+2  -8.33946E+1
   4.71624E+1  -3.97618E+2
   7.81622E+1  -3.11255E+2
  -1.07990E+2  -1.97396E+2
  -2.88655E+2  -6.09971E+1
  -2.31577E+1  -3.95309E+1
   9.45485E+1  -2.72027E+2
   3.56034E+2  -1.49406E+2
   7.46903E+1   6.40240E+0
   3.86533E+1   6.41344E+1
  -8.67514E+1  -2.92433E+2
   2.43439E+1  -5.14271E+1
   4.13277E+1  -1.73107E+1
  -3.16573E+2   1.14928E+2
  -1.12029E+2  -1.10782E+2
  -1.57320E+2  -1.75534E+2
   3.88817E+1  -7.93893E+1
   1.48045E+2   6.48424E+1
  -1.94810E+2  -2.31524E+1
   1.04461E+2  -3.56385E+2
   2.47521E+2  -8.70135E+1
   1.66354E+2   1.01332E+2
   1.55176E+1   3.33459E+2
  -1.70857E+2   4.37286E+1
   9.86422E-1  -2.44520E+2
   3.72612E+1  -3.61492E+2
  -1.36189E+2   5.06015E+1
  -6.35120E+0  -2.49747E+2
   8.13990E+1  -4.09127E+1
  -3.78482E+1  -1.32107E+2
   2.46463E+2   1.85119E+2
   8.35089E+1   1.89465E+2
  -2.77321E+2  -1.70846E-1
  -4.11385E+2  -2.87833E+2
   1.46903E+2  -2.98776E+2
   2.44175E+2  -2.77053E+1
   2.37076E+2   1.56329E+2
   3.55179E+1   1.40354E+2
  -6.78924E+1   1.10150E+2
  -1.82799E+1  -8.77677E+1
   6.31441E+1  -7.54214E+1
  -5.63851E+1  -2.35605E+2
  -1.61039E+2   5.48685E+1
   2.13334E+2  -2.56917E+2
   4.50758E+2  -1.74842E+2
  -8.13317E+1   1.06005E+2
  -1.97885E+2  -8.33732E+1
  -3.34768E+2   5.21699E+1
  -8.34190E+1  -1.33224E+2
   6.85119E+1   4.34043E+1
   8.34812E+1  -1.15180E+2
  -5.81982E+1  -1.85995E+2
   2.19169E+2  -1.30418E+2
   3.95211E+2  -1.05653E+2
   5.22976E+1   1.44824E+2
  -1.36963E+2   2.01447E+2
  -3.31487E+2   6.34907E+1
  -1.42331E+2  -3.44794E+2
   1.93489E+2  -2.68620E+2
   1.41420E+2   8.29628E+1
   9.96107E+1   8.57077E+1
  -1.30654E+2   2.16532E+1
  -1.19357E+2  -2.50135E+2
