 
 $NMID
 ID=''
 FMTDAT='(2E13.5)'
 TRAMP=   1.00000E+0
 VOLUME=   1.00000E+0
 $END
  -1.91046E+5   7.28417E+5
  -1.13102E+6   1.61257E+6
  -9.42136E+5   1.64022E+6
  -1.01083E+6   1.49293E+6
  -1.06830E+6   1.57223E+6
  -9.57317E+5   1.57224E+6
  -9.76726E+5   1.50017E+6
  -1.02723E+6   1.53923E+6
  -9.81148E+5   1.51812E+6
  -1.01611E+6   1.44950E+6
  -1.05100E+6   1.46277E+6
  -1.02065E+6   1.43573E+6
  -1.04939E+6   1.38164E+6
  -1.08217E+6   1.38171E+6
  -1.06784E+6   1.34642E+6
  -1.09042E+6   1.29790E+6
  -1.11195E+6   1.30006E+6
  -1.09921E+6   1.27780E+6
  -1.10953E+6   1.24406E+6
  -1.11195E+6   1.24799E+6
  -1.10015E+6   1.22628E+6
  -1.11253E+6   1.19529E+6
  -1.11891E+6   1.18888E+6
  -1.11289E+6   1.16552E+6
  -1.12556E+6   1.13378E+6
  -1.12566E+6   1.12299E+6
  -1.12714E+6   1.09572E+6
  -1.14513E+6   1.06201E+6
  -1.15103E+6   1.03779E+6
  -1.14562E+6   1.01306E+6
  -1.15520E+6   9.91119E+5
  -1.15464E+6   9.76511E+5
  -1.14868E+6   9.52800E+5
  -1.15003E+6   9.34577E+5
  -1.14268E+6   9.24067E+5
  -1.13372E+6   9.10980E+5
  -1.13428E+6   8.99053E+5
  -1.13053E+6   8.85984E+5
  -1.12403E+6   8.64617E+5
  -1.12499E+6   8.46064E+5
  -1.12229E+6   8.27058E+5
  -1.11807E+6   8.03791E+5
  -1.11614E+6   7.83940E+5
  -1.11399E+6   7.64540E+5
  -1.11131E+6   7.40188E+5
  -1.11081E+6   7.19229E+5
  -1.10843E+6   7.00984E+5
  -1.10436E+6   6.78919E+5
  -1.09714E+6   6.59718E+5
  -1.08985E+6   6.44679E+5
  -1.08465E+6   6.28710E+5
  -1.08016E+6   6.12550E+5
  -1.07316E+6   5.97002E+5
  -1.06760E+6   5.80780E+5
  -1.06280E+6   5.63004E+5
  -1.05668E+6   5.44219E+5
  -1.05103E+6   5.24120E+5
  -1.04457E+6   5.05205E+5
  -1.03741E+6   4.87002E+5
  -1.03150E+6   4.69246E+5
  -1.02601E+6   4.50920E+5
  -1.01963E+6   4.33366E+5
  -1.01399E+6   4.15707E+5
  -1.00723E+6   3.97884E+5
  -9.97904E+5   3.81193E+5
  -9.89201E+5   3.65747E+5
  -9.81376E+5   3.50439E+5
  -9.73228E+5   3.35335E+5
  -9.66275E+5   3.20290E+5
  -9.60578E+5   3.04322E+5
  -9.52612E+5   2.87173E+5
  -9.43490E+5   2.70811E+5
  -9.35909E+5   2.56223E+5
  -9.29955E+5   2.40695E+5
  -9.22094E+5   2.24292E+5
  -9.12984E+5   2.09441E+5
  -9.04861E+5   1.95781E+5
  -8.97453E+5   1.81563E+5
  -8.89392E+5   1.67202E+5
  -8.80224E+5   1.53820E+5
  -8.71841E+5   1.40860E+5
  -8.63362E+5   1.27936E+5
  -8.54996E+5   1.14767E+5
  -8.46104E+5   1.00691E+5
  -8.37416E+5   8.67897E+4
  -8.28784E+5   7.35322E+4
  -8.19852E+5   6.03849E+4
  -8.10899E+5   4.74228E+4
  -8.01827E+5   3.42238E+4
  -7.92532E+5   2.25060E+4
  -7.83061E+5   1.18003E+4
  -7.74174E+5   1.37979E+3
  -7.65608E+5  -9.38168E+3
  -7.56023E+5  -1.92724E+4
  -7.46125E+5  -2.77568E+4
  -7.36721E+5  -3.61877E+4
  -7.28672E+5  -4.42238E+4
  -7.20118E+5  -5.27641E+4
  -7.10614E+5  -6.11982E+4
  -7.01587E+5  -6.92700E+4
  -6.93071E+5  -7.73197E+4
  -6.84477E+5  -8.66524E+4
  -6.74194E+5  -9.54843E+4
  -6.63939E+5  -1.02880E+5
  -6.54829E+5  -1.09797E+5
  -6.45946E+5  -1.16644E+5
  -6.37092E+5  -1.23697E+5
  -6.27836E+5  -1.30630E+5
  -6.18059E+5  -1.36638E+5
  -6.08611E+5  -1.41858E+5
  -6.00116E+5  -1.47005E+5
  -5.91840E+5  -1.53022E+5
  -5.83109E+5  -1.59247E+5
  -5.73782E+5  -1.64968E+5
  -5.64193E+5  -1.70482E+5
  -5.55152E+5  -1.75967E+5
  -5.46162E+5  -1.81670E+5
  -5.36279E+5  -1.86727E+5
  -5.26586E+5  -1.90538E+5
  -5.18139E+5  -1.94196E+5
  -5.10109E+5  -1.98505E+5
  -5.01404E+5  -2.02841E+5
  -4.92852E+5  -2.06669E+5
  -4.84176E+5  -2.10749E+5
  -4.75598E+5  -2.14825E+5
  -4.66181E+5  -2.18231E+5
  -4.57487E+5  -2.21327E+5
  -4.49041E+5  -2.24820E+5
  -4.40392E+5  -2.28498E+5
  -4.32089E+5  -2.31884E+5
  -4.23285E+5  -2.35911E+5
  -4.13724E+5  -2.39680E+5
  -4.04921E+5  -2.42449E+5
  -3.96581E+5  -2.45228E+5
  -3.88059E+5  -2.48246E+5
  -3.79761E+5  -2.50639E+5
  -3.71314E+5  -2.52809E+5
  -3.63697E+5  -2.54682E+5
  -3.55723E+5  -2.57398E+5
  -3.47489E+5  -2.59351E+5
  -3.39271E+5  -2.61191E+5
  -3.31407E+5  -2.62400E+5
  -3.23785E+5  -2.63814E+5
  -3.16299E+5  -2.65387E+5
  -3.08733E+5  -2.67502E+5
  -3.00557E+5  -2.68760E+5
  -2.92655E+5  -2.70004E+5
  -2.85131E+5  -2.70716E+5
  -2.77482E+5  -2.71951E+5
  -2.70376E+5  -2.72500E+5
  -2.62979E+5  -2.73080E+5
  -2.55975E+5  -2.73486E+5
  -2.49443E+5  -2.73785E+5
  -2.43014E+5  -2.74398E+5
  -2.35852E+5  -2.74605E+5
  -2.29546E+5  -2.74544E+5
  -2.23256E+5  -2.74073E+5
  -2.16913E+5  -2.74152E+5
  -2.10868E+5  -2.73653E+5
  -2.04803E+5  -2.73307E+5
  -1.98541E+5  -2.72851E+5
  -1.92549E+5  -2.72305E+5
  -1.86706E+5  -2.71845E+5
  -1.80609E+5  -2.70856E+5
  -1.75019E+5  -2.70025E+5
  -1.69690E+5  -2.68826E+5
  -1.64338E+5  -2.68261E+5
  -1.58926E+5  -2.67258E+5
  -1.53614E+5  -2.66250E+5
  -1.48247E+5  -2.64947E+5
  -1.43021E+5  -2.64002E+5
  -1.38402E+5  -2.62620E+5
  -1.33320E+5  -2.61308E+5
  -1.28471E+5  -2.59956E+5
  -1.23466E+5  -2.58782E+5
  -1.18816E+5  -2.57375E+5
  -1.14135E+5  -2.56079E+5
  -1.09356E+5  -2.54815E+5
  -1.04563E+5  -2.53366E+5
  -1.00126E+5  -2.51535E+5
  -9.61309E+4  -2.50295E+5
  -9.14146E+4  -2.49048E+5
  -8.68532E+4  -2.47367E+5
  -8.25968E+4  -2.45686E+5
  -7.84498E+4  -2.44018E+5
  -7.45459E+4  -2.42101E+5
  -7.04800E+4  -2.40406E+5
  -6.66881E+4  -2.38382E+5
  -6.29272E+4  -2.36280E+5
  -5.94316E+4  -2.34890E+5
  -5.53902E+4  -2.33437E+5
  -5.13060E+4  -2.31760E+5
  -4.74100E+4  -2.29745E+5
  -4.36526E+4  -2.27746E+5
  -4.00385E+4  -2.25752E+5
  -3.65844E+4  -2.23937E+5
  -3.30329E+4  -2.21867E+5
  -2.96165E+4  -2.19764E+5
  -2.59672E+4  -2.17970E+5
  -2.28007E+4  -2.16054E+5
  -1.90119E+4  -2.14171E+5
  -1.59996E+4  -2.11712E+5
  -1.29928E+4  -2.09556E+5
  -1.02886E+4  -2.07460E+5
  -7.34738E+3  -2.05610E+5
  -4.15846E+3  -2.03572E+5
  -1.18329E+3  -2.01143E+5
   1.64580E+3  -1.99100E+5
   4.20654E+3  -1.96653E+5
   7.03167E+3  -1.94421E+5
   9.60362E+3  -1.91988E+5
   1.20666E+4  -1.89703E+5
   1.43329E+4  -1.87255E+5
   1.67480E+4  -1.85329E+5
   1.93287E+4  -1.83074E+5
   2.18753E+4  -1.80362E+5
   2.37972E+4  -1.77572E+5
   2.55904E+4  -1.75273E+5
   2.75177E+4  -1.73097E+5
   2.94570E+4  -1.70772E+5
   3.10423E+4  -1.68125E+5
   3.26663E+4  -1.65631E+5
   3.44682E+4  -1.63429E+5
   3.64654E+4  -1.60904E+5
   3.77770E+4  -1.58381E+5
   3.89423E+4  -1.55728E+5
   4.02477E+4  -1.53473E+5
   4.11536E+4  -1.51275E+5
   4.30115E+4  -1.48873E+5
   4.40892E+4  -1.46512E+5
   4.52333E+4  -1.43816E+5
   4.62699E+4  -1.41567E+5
   4.68732E+4  -1.39126E+5
   4.77411E+4  -1.36921E+5
   4.85592E+4  -1.34743E+5
   4.93219E+4  -1.32430E+5
   4.95740E+4  -1.30064E+5
   5.03322E+4  -1.27688E+5
   5.11016E+4  -1.25541E+5
   5.15724E+4  -1.23227E+5
   5.20965E+4  -1.20970E+5
   5.23854E+4  -1.18795E+5
   5.27805E+4  -1.16713E+5
   5.31951E+4  -1.14655E+5
   5.33759E+4  -1.12447E+5
   5.38132E+4  -1.10162E+5
   5.40867E+4  -1.08161E+5
   5.45981E+4  -1.06203E+5
   5.44821E+4  -1.03939E+5
   5.49545E+4  -1.01870E+5
   5.49085E+4  -1.00069E+5
   5.51826E+4  -9.79798E+4
   5.53252E+4  -9.58569E+4
   5.53658E+4  -9.38313E+4
   5.56993E+4  -9.19680E+4
   5.57571E+4  -9.02385E+4
   5.60575E+4  -8.83199E+4
   5.60758E+4  -8.65582E+4
   5.58274E+4  -8.43736E+4
   5.59194E+4  -8.24599E+4
   5.62327E+4  -8.08492E+4
   5.64477E+4  -7.88626E+4
   5.64784E+4  -7.69367E+4
   5.63339E+4  -7.52332E+4
   5.63798E+4  -7.35742E+4
   5.62307E+4  -7.18577E+4
   5.61178E+4  -7.01187E+4
   5.62467E+4  -6.84714E+4
   5.58827E+4  -6.68737E+4
   5.59699E+4  -6.50215E+4
   5.55480E+4  -6.34066E+4
   5.55824E+4  -6.19627E+4
   5.56232E+4  -6.05632E+4
   5.54824E+4  -5.88964E+4
   5.50026E+4  -5.75631E+4
   5.49140E+4  -5.58241E+4
   5.48417E+4  -5.41119E+4
   5.47276E+4  -5.28205E+4
   5.44803E+4  -5.15858E+4
   5.41348E+4  -5.01861E+4
   5.39715E+4  -4.87644E+4
   5.37748E+4  -4.73678E+4
   5.31935E+4  -4.58833E+4
   5.32236E+4  -4.48159E+4
   5.25144E+4  -4.34322E+4
   5.23265E+4  -4.19795E+4
   5.19650E+4  -4.06878E+4
   5.13697E+4  -3.95917E+4
   5.10327E+4  -3.84467E+4
   5.07654E+4  -3.74198E+4
   5.02613E+4  -3.62567E+4
   5.01967E+4  -3.49648E+4
   4.95527E+4  -3.39908E+4
   4.90329E+4  -3.28598E+4
   4.88117E+4  -3.20537E+4
   4.82297E+4  -3.09268E+4
   4.76136E+4  -2.98286E+4
   4.70093E+4  -2.89548E+4
   4.67917E+4  -2.82805E+4
   4.64358E+4  -2.70313E+4
   4.54488E+4  -2.64147E+4
   4.54252E+4  -2.54834E+4
   4.50322E+4  -2.46674E+4
   4.42275E+4  -2.37846E+4
   4.38962E+4  -2.31247E+4
   4.31555E+4  -2.20176E+4
   4.27731E+4  -2.14625E+4
   4.26072E+4  -2.07794E+4
   4.18539E+4  -1.99937E+4
   4.11858E+4  -1.91813E+4
   4.03902E+4  -1.86531E+4
   4.01180E+4  -1.81464E+4
   3.95344E+4  -1.73580E+4
   3.91088E+4  -1.67926E+4
   3.85593E+4  -1.62001E+4
   3.80973E+4  -1.58153E+4
   3.76263E+4  -1.51519E+4
   3.70703E+4  -1.46227E+4
   3.65752E+4  -1.40891E+4
   3.61045E+4  -1.35294E+4
   3.56689E+4  -1.31887E+4
   3.50264E+4  -1.25839E+4
   3.44902E+4  -1.22845E+4
   3.39281E+4  -1.17698E+4
   3.35112E+4  -1.15498E+4
   3.30532E+4  -1.11007E+4
   3.27073E+4  -1.08794E+4
   3.19938E+4  -1.03269E+4
   3.13514E+4  -9.90568E+3
   3.09588E+4  -9.78918E+3
   3.05156E+4  -9.46242E+3
   2.99761E+4  -9.01636E+3
   2.95750E+4  -8.88438E+3
   2.91147E+4  -8.54302E+3
   2.84926E+4  -8.37719E+3
   2.78648E+4  -7.98603E+3
   2.76719E+4  -7.57732E+3
   2.71626E+4  -7.50295E+3
   2.64101E+4  -7.23635E+3
   2.59717E+4  -6.96258E+3
   2.58992E+4  -6.98029E+3
   2.53472E+4  -6.46687E+3
   2.47976E+4  -6.46547E+3
   2.44054E+4  -6.34011E+3
   2.39852E+4  -6.09594E+3
   2.36431E+4  -6.11511E+3
   2.31502E+4  -5.77278E+3
   2.29091E+4  -5.70645E+3
   2.23218E+4  -5.70545E+3
   2.20667E+4  -5.47768E+3
   2.16546E+4  -5.25655E+3
   2.13690E+4  -5.42125E+3
   2.07850E+4  -5.30473E+3
   2.04150E+4  -5.17059E+3
   2.03029E+4  -4.85256E+3
   2.00270E+4  -5.13081E+3
   1.93827E+4  -4.67969E+3
   1.90299E+4  -4.67708E+3
   1.85874E+4  -4.76507E+3
   1.86597E+4  -4.66176E+3
   1.83066E+4  -4.39488E+3
   1.79919E+4  -4.32169E+3
   1.74648E+4  -4.44924E+3
   1.70922E+4  -4.41599E+3
   1.69878E+4  -4.34272E+3
   1.67794E+4  -3.98706E+3
   1.66567E+4  -4.36955E+3
