 LCModel (Version 6.3-1N) Copyright: S.W. Provencher.          Ref.: Magn. Reson. Med. 30:672-679 (1993).                
 Slice_N1@19_13  28-Feb-2025 11:42:59
 27 lines in following concentration table = NCONC+1
    Conc.  %SD /Cr+PCr  Metabolite                                         
 2.75E-04   4% 2.5E-04 Mac                                                 
    4.012  22%   3.637 Cr                                                  
    4.813  18%   4.363 PCr                                                 
    7.859  11%   7.124 Ins                                                 
   10.398   7%   9.426 NAA                                                 
    6.875  12%   6.233 Tau                                                 
    1.098  79%   0.996 PCho                                                
    0.653 127%   0.592 GPC                                                 
    9.106  11%   8.255 Glu                                                 
    3.261  24%   2.956 Gln                                                 
    0.000 999%   0.000 Ala                                                 
    3.453  34%   3.130 Asc                                                 
    2.085  47%   1.890 Asp                                                 
    1.029  50%   0.933 GABA                                                
    0.533 132%   0.483 Glc                                                 
    2.038  23%   1.847 GSH                                                 
    1.936  33%   1.755 Lac                                                 
    1.932  27%   1.752 NAAG                                                
    1.857  56%   1.683 PE                                                  
    1.752  15%   1.588 GPC+PCho                                            
   12.330   6%  11.177 NAA+NAAG                                            
   12.367  10%  11.211 Glu+Gln                                             
    8.825   8%   8.000 Cr+PCr                                              
   12.330   6%  11.177 NAA+NAAG                                            
    8.825   8%   8.000 Cr+PCr                                              
   12.367  10%  11.211 Glu+Gln                                             
   6 lines in following misc. output table
  FWHM = 0.016 ppm    S/N =   5                                            
  Data shift = 0.024 ppm                                                   
  Ph:-136 deg       0.0 deg/ppm                                            
  alphaB,S = 1.7E-01,   4.0E-01                                            
   19 spline knots.   Ns = 5(1)                                            
   2 inflections.     1 extrema                                            
  480 points on ppm-axis = NY
      4.100000     4.091866     4.083733     4.075600     4.067466     4.059333     4.051199     4.043066     4.034933     4.026799
      4.018666     4.010532     4.002399     3.994265     3.986132     3.977998     3.969864     3.961731     3.953597     3.945463
      3.937330     3.929196     3.921062     3.912929     3.904795     3.896662     3.888528     3.880394     3.872261     3.864127
      3.855993     3.847860     3.839726     3.831592     3.823459     3.815325     3.807191     3.799058     3.790924     3.782790
      3.774657     3.766523     3.758389     3.750256     3.742122     3.733989     3.725855     3.717721     3.709588     3.701454
      3.693320     3.685187     3.677053     3.668919     3.660786     3.652652     3.644518     3.636385     3.628251     3.620117
      3.611984     3.603850     3.595716     3.587583     3.579449     3.571316     3.563182     3.555048     3.546915     3.538781
      3.530647     3.522514     3.514380     3.506246     3.498113     3.489979     3.481845     3.473712     3.465578     3.457444
      3.449311     3.441177     3.433043     3.424910     3.416776     3.408643     3.400509     3.392375     3.384242     3.376108
      3.367974     3.359841     3.351707     3.343573     3.335440     3.327306     3.319172     3.311039     3.302905     3.294771
      3.286638     3.278504     3.270370     3.262237     3.254103     3.245970     3.237836     3.229702     3.221569     3.213435
      3.205301     3.197168     3.189034     3.180900     3.172767     3.164633     3.156499     3.148366     3.140232     3.132098
      3.123965     3.115831     3.107697     3.099564     3.091430     3.083297     3.075163     3.067029     3.058896     3.050762
      3.042628     3.034495     3.026361     3.018227     3.010094     3.001960     2.993826     2.985693     2.977559     2.969425
      2.961292     2.953158     2.945024     2.936891     2.928757     2.920624     2.912490     2.904356     2.896223     2.888089
      2.879955     2.871822     2.863688     2.855554     2.847421     2.839287     2.831153     2.823020     2.814886     2.806752
      2.798619     2.790485     2.782351     2.774218     2.766084     2.757951     2.749817     2.741683     2.733550     2.725416
      2.717282     2.709149     2.701015     2.692881     2.684748     2.676614     2.668480     2.660347     2.652213     2.644079
      2.635946     2.627812     2.619678     2.611545     2.603411     2.595278     2.587144     2.579010     2.570877     2.562743
      2.554609     2.546476     2.538342     2.530208     2.522075     2.513941     2.505807     2.497674     2.489540     2.481406
      2.473273     2.465139     2.457006     2.448872     2.440738     2.432605     2.424471     2.416337     2.408204     2.400070
      2.391936     2.383803     2.375669     2.367535     2.359402     2.351268     2.343134     2.335001     2.326867     2.318733
      2.310600     2.302466     2.294333     2.286199     2.278065     2.269932     2.261798     2.253664     2.245531     2.237397
      2.229263     2.221130     2.212996     2.204862     2.196729     2.188595     2.180461     2.172328     2.164194     2.156060
      2.147927     2.139793     2.131660     2.123526     2.115392     2.107259     2.099125     2.090991     2.082858     2.074724
      2.066590     2.058457     2.050323     2.042189     2.034056     2.025922     2.017788     2.009655     2.001521     1.993387
      1.985254     1.977120     1.968987     1.960853     1.952719     1.944586     1.936452     1.928318     1.920185     1.912051
      1.903917     1.895784     1.887650     1.879516     1.871383     1.863249     1.855115     1.846982     1.838848     1.830714
      1.822581     1.814447     1.806314     1.798180     1.790046     1.781913     1.773779     1.765645     1.757512     1.749378
      1.741244     1.733111     1.724977     1.716843     1.708710     1.700576     1.692442     1.684309     1.676175     1.668041
      1.659908     1.651774     1.643641     1.635507     1.627373     1.619240     1.611106     1.602972     1.594839     1.586705
      1.578571     1.570438     1.562304     1.554170     1.546037     1.537903     1.529769     1.521636     1.513502     1.505368
      1.497235     1.489101     1.480968     1.472834     1.464700     1.456567     1.448433     1.440299     1.432166     1.424032
      1.415898     1.407765     1.399631     1.391497     1.383364     1.375230     1.367096     1.358963     1.350829     1.342695
      1.334562     1.326428     1.318295     1.310161     1.302027     1.293894     1.285760     1.277626     1.269493     1.261359
      1.253225     1.245092     1.236958     1.228824     1.220691     1.212557     1.204423     1.196290     1.188156     1.180022
      1.171889     1.163755     1.155622     1.147488     1.139354     1.131221     1.123087     1.114953     1.106820     1.098686
      1.090552     1.082419     1.074285     1.066151     1.058018     1.049884     1.041750     1.033617     1.025483     1.017349
      1.009216     1.001082     0.992949     0.984815     0.976681     0.968548     0.960414     0.952280     0.944147     0.936013
      0.927879     0.919746     0.911612     0.903478     0.895345     0.887211     0.879077     0.870944     0.862810     0.854676
      0.846543     0.838409     0.830276     0.822142     0.814008     0.805875     0.797741     0.789607     0.781474     0.773340
      0.765206     0.757073     0.748939     0.740805     0.732672     0.724538     0.716404     0.708271     0.700137     0.692003
      0.683870     0.675736     0.667603     0.659469     0.651335     0.643202     0.635068     0.626934     0.618801     0.610667
      0.602533     0.594400     0.586266     0.578132     0.569999     0.561865     0.553731     0.545598     0.537464     0.529330
      0.521197     0.513063     0.504930     0.496796     0.488662     0.480529     0.472395     0.464261     0.456128     0.447994
      0.439861     0.431727     0.423593     0.415460     0.407326     0.399192     0.391059     0.382925     0.374792     0.366658
      0.358524     0.350391     0.342257     0.334124     0.325990     0.317856     0.309723     0.301589     0.293455     0.285322
      0.277188     0.269055     0.260921     0.252787     0.244654     0.236520     0.228386     0.220253     0.212119     0.203986
 NY phased data points follow
   4.37594E+01  2.80431E+01  2.59567E+01  1.10515E+01  1.10048E+01  2.07412E+01  2.75725E+01  2.56085E+01  1.42295E+01  2.38140E+01
   3.72107E+00  8.52140E+00  7.08205E+00  7.62561E+00  6.66380E+00 -1.49490E+01  8.83550E-01 -4.14751E+00 -4.97226E+00 -4.45625E+01
  -6.77684E+01 -1.14141E+01 -1.26058E+00 -1.03074E+00  4.70389E+01  7.47507E+01  5.42031E+01  4.66905E+01  5.13985E+01  6.28129E+01
   6.62388E+01  5.98970E+01  5.80195E+01  6.29764E+01  7.77941E+01  5.97764E+01  5.63598E+01  5.05273E+01  1.43225E+01 -6.13483E-01
  -1.06145E+01 -2.36707E+01 -1.48279E+01  5.78639E-01  1.71744E+01  4.28670E+01  4.92670E+01  8.02366E+01  9.96423E+01  9.27171E+01
   9.98808E+01  9.35819E+01  9.74669E+01  8.22737E+01  6.24417E+01  4.16655E+01  2.76773E+01  5.23813E+01  2.41977E+01  5.64724E+00
   4.62817E+01  2.80961E+01  1.86096E+01  7.09872E+01  8.45323E+01  7.98862E+01  9.66992E+01  8.59977E+01  4.45582E+01  7.48328E+00
   6.76326E+00  3.82831E+01  2.49135E+01  2.52867E+01  6.42675E+01  6.97073E+01  8.21745E+01  8.75439E+01  9.16386E+01  8.84618E+01
   8.87303E+01  8.67398E+01  6.65388E+01  6.23936E+01  3.51823E+01  3.19171E+01  3.55214E+01  4.50660E+01  7.55659E+01  8.68283E+01
   9.46841E+01  1.00698E+02  1.13772E+02  1.12514E+02  1.15077E+02  1.10230E+02  1.26320E+02  1.48666E+02  1.28900E+02  1.22742E+02
   1.24769E+02  1.17484E+02  8.82595E+01  8.23821E+01  7.24726E+01  3.99028E+01  3.77180E+01  3.20023E+01  2.22879E+01 -7.40206E+00
  -8.30225E+01 -1.13049E+02 -6.95185E+01 -5.66965E+01 -3.12280E+01 -3.42809E+00 -4.81905E+00  1.32586E+01  9.81746E+00  1.89758E+01
   2.33433E+01  2.04709E+01  4.67856E+01  6.18324E+01  6.00563E+01  7.81027E+01  9.50977E+01  9.50849E+01  1.25296E+02  1.40819E+02
   1.93011E+02  2.21711E+02  8.76350E+01 -2.42274E+01 -3.64627E+01 -4.05135E+01 -4.13114E+01 -4.01545E+01 -4.11279E+01 -3.06874E+01
  -2.24617E+01 -2.04115E+01 -2.22797E+01 -3.24919E+01 -2.80244E+01 -3.05346E+01 -3.88602E+01 -3.01537E+01 -2.34519E+01 -2.15638E+01
  -1.00574E+01 -9.28048E+00 -1.77968E+01 -1.34817E+01 -1.57223E+01  3.90747E+00  7.81051E+00  3.98203E+00  1.71607E+01  9.73629E-01
   1.00507E+01  7.32993E+00 -1.56895E+00  1.71272E+00  7.17700E+00  1.75526E+01 -1.75769E+00  9.51583E+00  1.14957E+01  1.29235E+01
   3.54146E+01  4.00620E+01  5.15469E+01  6.54104E+01  5.36784E+01  2.02208E+01  3.89984E+01  6.66282E+01  5.98072E+01  2.33937E+01
  -2.26315E+00  7.69152E+00 -8.97452E+00 -2.09994E+01 -1.48341E+01 -7.54155E+00 -1.28652E+01 -1.39324E+01 -7.90934E+00 -2.00830E+00
  -4.90301E+00 -2.41903E-01  1.40034E+01  3.04039E+00  3.93960E+01  3.98315E+01  1.16647E+01  3.78153E+01  2.96618E+01  7.22667E+00
   1.10237E+01  2.66247E+01  3.50045E+01  3.85254E+01  2.89008E+01  2.44038E+01  1.61635E+01  4.79467E+00  3.92795E+00 -1.65242E+01
  -1.49028E+01 -8.80393E+00 -1.56059E+01  1.96378E+00  2.25572E+01  4.61094E+01  7.76826E+01  6.69999E+01  6.25917E+01  5.87238E+01
   2.80916E+01  2.60453E+01  2.56427E+01  2.77245E+01  1.39596E+01  2.94973E+01  4.25079E+01  3.51479E+01  5.18870E+01  4.04067E+01
   5.02461E+01  3.36640E+01  1.07869E+01  1.38959E+01 -6.37164E-01 -1.07851E+01 -2.58918E+01 -3.07653E+01 -3.13706E+01 -2.91255E+01
  -1.82673E+01 -1.35131E+01 -1.74386E+01  4.05661E+00  1.04752E+01  9.41020E+00  1.32363E+01  9.39684E+00  1.30540E+01 -7.14608E+00
  -1.44253E+01 -3.67737E+01 -1.47155E+01 -1.33928E+01 -4.39000E+01 -5.35332E+01 -1.31962E+02 -2.17771E+01  1.80805E+02  2.15882E+02
   1.94820E+02  1.78298E+02  1.63102E+02  1.41279E+02  1.39058E+02  1.29509E+02  1.15406E+02  1.12669E+02  1.06222E+02  1.08103E+02
   1.15105E+02  1.16195E+02  1.13473E+02  1.08437E+02  1.00144E+02  9.87996E+01  1.01014E+02  1.13754E+02  1.20252E+02  1.03948E+02
   8.68422E+01  9.88683E+01  1.11249E+02  1.00746E+02  8.44029E+01  8.58755E+01  9.42852E+01  8.50434E+01  8.57654E+01  7.29661E+01
   7.83722E+01  8.75450E+01  7.31098E+01  6.52085E+01  5.34501E+01  4.97282E+01  4.34114E+01  3.94415E+01  3.04606E+01  4.46686E+01
   4.00473E+01  2.48427E+01  4.07968E+01  4.03402E+01  3.25981E+01  2.23915E+01  3.98119E+01  3.08842E+01  2.61601E+01  3.83653E+01
   4.42282E+01  4.83027E+01  3.00166E+01  4.55353E+01  3.57979E+01  3.79932E+01  4.24123E+01  3.78982E+01  4.75999E+01  5.17328E+01
   7.63323E+01  5.84572E+01  4.75517E+01  4.26126E+01  5.32269E+01  5.89439E+01  4.89089E+01  7.54423E+01  6.61184E+01  6.60223E+01
   6.06489E+01  3.55845E+01  3.56951E+01  3.55700E+01  4.52164E+01  5.77705E+01  5.05032E+01  4.97896E+01  6.15405E+01  7.36968E+01
   8.49402E+01  6.22106E+01  4.92049E+01  4.88590E+01  4.47448E+01  4.60949E+01  4.10076E+01  5.03265E+01  5.19264E+01  5.56951E+01
   5.65535E+01  4.44634E+01  4.21537E+01  4.54347E+01  4.43855E+01  3.11792E+01  2.29453E+01  1.48338E+01  8.85579E+00  2.54057E+01
   3.12210E+01  2.46710E+01  2.56144E+01  2.20769E+01  3.72049E+01  4.42158E+01  3.81084E+01  4.47701E+01  5.45482E+01  5.57719E+01
   4.99525E+01  7.41705E+01  7.62597E+01  6.72464E+01  7.90378E+01  7.96932E+01  8.20253E+01  7.70050E+01  7.74952E+01  9.06581E+01
   1.05662E+02  1.01873E+02  1.04903E+02  1.24898E+02  1.41822E+02  1.55984E+02  1.52359E+02  1.55025E+02  1.58488E+02  1.61638E+02
   1.63370E+02  1.52069E+02  1.24948E+02  1.03902E+02  9.84219E+01  8.59759E+01  9.11032E+01  9.16194E+01  8.14018E+01  6.92779E+01
   6.06080E+01  4.90799E+01  2.51578E+01  2.33448E+01  1.92858E+01  6.92720E+00  1.32638E+00  1.23353E+01  2.21344E+01  1.33261E+01
   8.26831E+00  7.53367E+00  3.11446E+00 -9.16357E-01  1.95392E+01  1.68437E+01 -9.09417E-01  5.18515E+00  5.08349E+00  1.11978E+01
   4.67948E+00  8.84777E-01  7.44688E+00  1.53509E+00  1.44486E+00  5.19306E+00  1.11113E+01  7.21575E+00  3.74911E+00 -4.33830E+00
  -1.42886E+01 -5.86706E+00  6.69140E-01  3.88340E+00  2.34548E+00 -1.64995E+00 -5.22544E+00  4.25117E+00 -2.92423E-01 -8.52763E+00
   1.18060E+01 -1.56528E-01  4.76606E+00  9.87596E+00 -7.25940E+00  1.28609E+01 -1.21015E+00 -2.90984E+00  1.79719E+01  7.32586E+00
   4.44297E+00  4.56930E+00  1.76376E+01  2.01111E+01  9.59893E+00  1.08338E+01  1.50779E+01  7.70985E+00  2.57469E+00  1.27050E+01
  -7.63332E+00 -5.45957E+00  1.25375E+01  2.56131E+00  6.22139E+00  9.37509E+00  1.11809E+01 -1.59562E+00 -3.24662E+00  1.48239E+01
   1.96671E+01  1.91828E+01  4.33342E+00 -5.44793E+00  7.52781E+00  1.16378E+01  4.70243E+00  8.45996E+00 -4.88368E-01  1.64928E+01
 NY points of the fit to the data follow
   1.60628E+01  9.15073E+00  7.45240E-01 -9.07273E+00 -1.09743E+01  1.14811E+01  3.79843E+01  4.07943E+01  2.96311E+01  1.92755E+01
   1.10994E+01  4.09749E+00  2.80079E+00  4.50749E+00  5.27532E+00  6.16361E+00  7.33005E+00 -2.01963E+00 -1.33899E+01 -2.78794E+01
  -5.57146E+01 -2.43581E+01  8.51036E+00  8.19300E+00  4.85107E+01  7.53135E+01  6.94502E+01  7.18704E+01  7.50820E+01  7.54592E+01
   7.52454E+01  7.36070E+01  7.22585E+01  7.06011E+01  6.72860E+01  6.28039E+01  6.04032E+01  5.42596E+01  4.00708E+01  1.88165E+01
  -1.59376E+01 -2.39534E+01 -6.93139E+00  4.46660E+00  1.81685E+01  4.13209E+01  6.36728E+01  7.31001E+01  7.98260E+01  8.54750E+01
   8.39202E+01  8.24363E+01  8.06862E+01  7.18943E+01  6.05838E+01  4.67019E+01  3.58746E+01  3.86990E+01  2.45798E+01  9.18459E+00
   3.19549E+01  3.95815E+01  3.42273E+01  5.85932E+01  8.01455E+01  8.69725E+01  8.94042E+01  8.10551E+01  5.24515E+01  1.28814E+01
   1.15809E+01  3.03548E+01  2.65561E+01  3.52597E+01  6.17812E+01  7.72820E+01  8.40294E+01  9.02777E+01  9.39640E+01  9.72232E+01
   9.74016E+01  8.42062E+01  7.04510E+01  4.48204E+01  2.48754E+01  2.45385E+01  2.88122E+01  4.56768E+01  6.43238E+01  7.36109E+01
   8.09896E+01  8.70344E+01  9.15407E+01  9.57033E+01  1.00317E+02  1.05960E+02  1.09778E+02  1.12797E+02  1.13625E+02  1.06797E+02
   1.09942E+02  1.17985E+02  1.03718E+02  8.41584E+01  7.62299E+01  4.47637E+01  3.64400E+01  4.56111E+01  4.07796E+01  2.83121E+00
  -8.93162E+01 -1.10255E+02 -6.72365E+01 -4.66297E+01 -2.75707E+01 -8.87504E+00  7.99814E-01  9.04356E+00  1.68565E+01  2.39260E+01
   3.03278E+01  3.71582E+01  4.41900E+01  5.18714E+01  6.11570E+01  7.25304E+01  8.50660E+01  9.59138E+01  1.23101E+02  1.58112E+02
   1.91777E+02  2.10612E+02  9.65816E+01 -3.56675E+01 -4.94595E+01 -4.14585E+01 -4.35784E+01 -3.20064E+01 -2.34888E+01 -2.27655E+01
  -2.24033E+01 -2.23014E+01 -2.49880E+01 -2.53138E+01 -2.56586E+01 -2.73422E+01 -2.53616E+01 -2.24410E+01 -1.92379E+01 -1.63055E+01
  -1.38081E+01 -1.08642E+01 -9.06452E+00 -7.44477E+00 -4.56093E+00 -9.21261E-01  1.83446E+00  2.23815E+00  1.81794E+00  2.96527E+00
   5.90221E+00  9.90941E+00  1.02018E+01  6.40374E+00  4.69295E+00  6.27569E+00  9.36874E+00  1.02652E+01  6.70371E+00  5.12129E+00
   1.24844E+01  3.03354E+01  4.67064E+01  4.36274E+01  2.65857E+01  2.46977E+01  4.13957E+01  5.22704E+01  4.65425E+01  2.65224E+01
   1.23979E+01  8.22752E+00  2.63041E+00 -1.14241E+00 -2.34328E+00 -3.43473E+00 -3.12903E+00 -3.21929E+00 -1.39196E+00  1.39257E+00
   1.56083E+00  7.29171E+00  9.89099E+00  1.04854E+01  3.01355E+01  3.35565E+01  2.14876E+01  3.05637E+01  3.52828E+01  3.51897E+01
   3.25054E+01  2.71159E+01  3.73279E+01  4.23112E+01  3.53146E+01  2.81170E+01  2.26262E+01  1.67606E+01  7.31129E+00 -2.03048E+00
  -5.84464E+00 -1.21417E+01 -1.32526E+01  1.59587E+00  9.61174E+00  4.14846E+01  7.21594E+01  7.02145E+01  7.85537E+01  7.21684E+01
   5.05301E+01  4.56825E+01  4.36819E+01  4.49569E+01  5.07810E+01  5.16152E+01  5.15933E+01  4.80615E+01  3.89940E+01  2.92206E+01
   1.84818E+01  6.50456E+00 -5.82610E+00 -1.43641E+01 -2.47136E+01 -3.54178E+01 -3.73328E+01 -4.08865E+01 -4.27584E+01 -3.31310E+01
  -3.01577E+01 -2.56431E+01 -1.22413E+01 -7.46455E+00  2.82621E+00  9.13403E+00  6.87847E+00  7.92663E+00  7.91857E-01 -4.67675E+00
  -1.16292E+01 -2.52580E+01 -2.36237E+01 -3.17513E+01 -3.55889E+01 -6.47723E+01 -1.45630E+02 -2.71395E+01  1.55428E+02  1.75986E+02
   1.67201E+02  1.65956E+02  1.45832E+02  1.31989E+02  1.25729E+02  1.20987E+02  1.15819E+02  1.10000E+02  1.05318E+02  1.00138E+02
   9.78271E+01  9.65778E+01  9.59490E+01  9.77407E+01  9.80051E+01  9.92261E+01  9.94019E+01  9.83859E+01  9.81087E+01  9.70809E+01
   9.52716E+01  9.30553E+01  9.04568E+01  8.83655E+01  8.66082E+01  8.39294E+01  8.14493E+01  7.94010E+01  7.66952E+01  7.38960E+01
   7.04272E+01  6.62596E+01  6.25498E+01  5.80769E+01  5.37373E+01  5.11268E+01  5.01828E+01  5.07602E+01  5.26082E+01  5.48821E+01
   5.68608E+01  5.93575E+01  6.23062E+01  6.49817E+01  6.73766E+01  6.94342E+01  7.12462E+01  7.29263E+01  7.52778E+01  7.83036E+01
   8.05385E+01  8.25238E+01  8.41295E+01  8.54412E+01  8.73680E+01  8.86128E+01  8.86862E+01  8.90723E+01  8.86625E+01  8.66704E+01
   8.46114E+01  8.29453E+01  7.97093E+01  7.61139E+01  7.31870E+01  6.93464E+01  6.46819E+01  5.78280E+01  4.85472E+01  3.91265E+01
   3.07184E+01  2.32930E+01  1.71605E+01  1.40211E+01  1.38454E+01  1.68272E+01  2.24189E+01  2.86339E+01  3.60531E+01  4.21097E+01
   4.78757E+01  4.60340E+01  3.36989E+01  2.97832E+01  2.22640E+01  2.09129E+01  3.15105E+01  3.62702E+01  3.91307E+01  4.24740E+01
   4.32914E+01  4.24802E+01  4.06285E+01  3.74989E+01  3.28344E+01  2.78131E+01  2.51005E+01  2.37842E+01  2.34195E+01  2.51293E+01
   2.73796E+01  3.04218E+01  3.42476E+01  3.77819E+01  4.18736E+01  4.55241E+01  4.86238E+01  5.18018E+01  5.44313E+01  5.74704E+01
   6.08377E+01  6.36334E+01  6.65634E+01  6.96895E+01  7.28000E+01  7.66437E+01  8.17154E+01  8.61031E+01  9.10043E+01  9.78555E+01
   1.04378E+02  1.10425E+02  1.17793E+02  1.26311E+02  1.34146E+02  1.41397E+02  1.47074E+02  1.48600E+02  1.45275E+02  1.36587E+02
   1.24644E+02  1.12816E+02  1.03006E+02  9.46873E+01  8.79279E+01  8.26458E+01  7.67945E+01  6.85069E+01  5.92836E+01  5.02304E+01
   4.04661E+01  3.24965E+01  2.67626E+01  2.23122E+01  1.86840E+01  1.62419E+01  1.49833E+01  1.39111E+01  1.27942E+01  1.15827E+01
   1.03276E+01  9.44598E+00  9.05955E+00  9.09485E+00  8.81835E+00  8.52946E+00  8.67454E+00  8.83742E+00  8.24138E+00  7.45662E+00
   8.13476E+00  8.77754E+00  8.21177E+00  7.85379E+00  8.07390E+00  8.23713E+00  7.93516E+00  7.44041E+00  7.40075E+00  8.08128E+00
   8.34083E+00  8.22108E+00  8.05076E+00  7.60564E+00  7.35059E+00  7.14959E+00  7.42745E+00  7.54851E+00  7.76259E+00  8.02796E+00
   7.98720E+00  7.93544E+00  8.05303E+00  8.10152E+00  7.48369E+00  7.05896E+00  6.97666E+00  7.04387E+00  7.31163E+00  7.25427E+00
   7.37986E+00  7.27509E+00  6.71889E+00  6.89619E+00  7.22748E+00  7.21006E+00  7.40252E+00  7.50409E+00  7.37074E+00  7.46739E+00
   7.53406E+00  7.56293E+00  7.45816E+00  6.95446E+00  6.78613E+00  6.81631E+00  6.62793E+00  7.01212E+00  7.62602E+00  8.15946E+00
   8.04939E+00  7.66278E+00  7.14765E+00  6.79696E+00  7.02869E+00  7.06007E+00  6.87493E+00  7.23116E+00  7.46066E+00  6.91740E+00
 NY background values follow
     4.463E+01    4.465E+01    4.468E+01    4.470E+01    4.473E+01    4.475E+01    4.478E+01    4.480E+01    4.483E+01    4.486E+01
     4.489E+01    4.492E+01    4.495E+01    4.498E+01    4.502E+01    4.505E+01    4.509E+01    4.512E+01    4.516E+01    4.520E+01
     4.524E+01    4.529E+01    4.533E+01    4.538E+01    4.543E+01    4.548E+01    4.553E+01    4.559E+01    4.565E+01    4.571E+01
     4.577E+01    4.583E+01    4.590E+01    4.597E+01    4.604E+01    4.611E+01    4.619E+01    4.626E+01    4.634E+01    4.642E+01
     4.650E+01    4.658E+01    4.666E+01    4.675E+01    4.683E+01    4.692E+01    4.700E+01    4.709E+01    4.718E+01    4.726E+01
     4.735E+01    4.743E+01    4.752E+01    4.761E+01    4.769E+01    4.777E+01    4.786E+01    4.794E+01    4.802E+01    4.810E+01
     4.818E+01    4.826E+01    4.834E+01    4.841E+01    4.848E+01    4.856E+01    4.862E+01    4.869E+01    4.876E+01    4.882E+01
     4.888E+01    4.894E+01    4.900E+01    4.905E+01    4.910E+01    4.915E+01    4.920E+01    4.924E+01    4.928E+01    4.931E+01
     4.935E+01    4.938E+01    4.940E+01    4.943E+01    4.945E+01    4.946E+01    4.948E+01    4.948E+01    4.949E+01    4.949E+01
     4.948E+01    4.948E+01    4.946E+01    4.945E+01    4.943E+01    4.940E+01    4.938E+01    4.935E+01    4.931E+01    4.927E+01
     4.923E+01    4.919E+01    4.914E+01    4.909E+01    4.903E+01    4.898E+01    4.892E+01    4.886E+01    4.879E+01    4.873E+01
     4.866E+01    4.859E+01    4.851E+01    4.844E+01    4.836E+01    4.828E+01    4.820E+01    4.812E+01    4.803E+01    4.795E+01
     4.786E+01    4.777E+01    4.768E+01    4.759E+01    4.750E+01    4.741E+01    4.731E+01    4.722E+01    4.712E+01    4.702E+01
     4.693E+01    4.683E+01    4.673E+01    4.663E+01    4.653E+01    4.642E+01    4.632E+01    4.622E+01    4.612E+01    4.601E+01
     4.591E+01    4.580E+01    4.570E+01    4.559E+01    4.549E+01    4.538E+01    4.527E+01    4.517E+01    4.506E+01    4.495E+01
     4.485E+01    4.474E+01    4.463E+01    4.453E+01    4.442E+01    4.432E+01    4.421E+01    4.410E+01    4.400E+01    4.389E+01
     4.379E+01    4.368E+01    4.358E+01    4.347E+01    4.337E+01    4.327E+01    4.316E+01    4.306E+01    4.296E+01    4.286E+01
     4.276E+01    4.266E+01    4.256E+01    4.246E+01    4.236E+01    4.226E+01    4.216E+01    4.207E+01    4.197E+01    4.188E+01
     4.178E+01    4.169E+01    4.160E+01    4.150E+01    4.141E+01    4.132E+01    4.124E+01    4.115E+01    4.106E+01    4.098E+01
     4.089E+01    4.081E+01    4.073E+01    4.065E+01    4.057E+01    4.049E+01    4.041E+01    4.033E+01    4.026E+01    4.018E+01
     4.011E+01    4.004E+01    3.997E+01    3.990E+01    3.983E+01    3.977E+01    3.970E+01    3.964E+01    3.958E+01    3.952E+01
     3.946E+01    3.940E+01    3.935E+01    3.929E+01    3.924E+01    3.918E+01    3.913E+01    3.908E+01    3.902E+01    3.897E+01
     3.892E+01    3.886E+01    3.881E+01    3.875E+01    3.869E+01    3.863E+01    3.857E+01    3.851E+01    3.844E+01    3.837E+01
     3.830E+01    3.823E+01    3.815E+01    3.807E+01    3.799E+01    3.790E+01    3.781E+01    3.772E+01    3.762E+01    3.751E+01
     3.740E+01    3.729E+01    3.717E+01    3.705E+01    3.692E+01    3.679E+01    3.665E+01    3.651E+01    3.636E+01    3.621E+01
     3.605E+01    3.589E+01    3.573E+01    3.556E+01    3.538E+01    3.520E+01    3.502E+01    3.483E+01    3.464E+01    3.444E+01
     3.424E+01    3.403E+01    3.382E+01    3.360E+01    3.338E+01    3.316E+01    3.293E+01    3.269E+01    3.246E+01    3.221E+01
     3.197E+01    3.172E+01    3.146E+01    3.121E+01    3.095E+01    3.069E+01    3.042E+01    3.016E+01    2.989E+01    2.963E+01
     2.937E+01    2.911E+01    2.885E+01    2.859E+01    2.833E+01    2.808E+01    2.783E+01    2.759E+01    2.735E+01    2.712E+01
     2.689E+01    2.667E+01    2.646E+01    2.625E+01    2.605E+01    2.586E+01    2.568E+01    2.551E+01    2.535E+01    2.520E+01
     2.506E+01    2.494E+01    2.482E+01    2.471E+01    2.462E+01    2.453E+01    2.446E+01    2.439E+01    2.434E+01    2.429E+01
     2.426E+01    2.423E+01    2.421E+01    2.420E+01    2.420E+01    2.420E+01    2.421E+01    2.423E+01    2.426E+01    2.429E+01
     2.433E+01    2.438E+01    2.443E+01    2.449E+01    2.456E+01    2.463E+01    2.470E+01    2.478E+01    2.487E+01    2.496E+01
     2.505E+01    2.515E+01    2.525E+01    2.535E+01    2.546E+01    2.557E+01    2.568E+01    2.580E+01    2.591E+01    2.603E+01
     2.615E+01    2.627E+01    2.639E+01    2.651E+01    2.663E+01    2.676E+01    2.688E+01    2.700E+01    2.712E+01    2.723E+01
     2.735E+01    2.746E+01    2.758E+01    2.769E+01    2.779E+01    2.790E+01    2.800E+01    2.809E+01    2.819E+01    2.827E+01
     2.836E+01    2.844E+01    2.851E+01    2.858E+01    2.864E+01    2.870E+01    2.876E+01    2.881E+01    2.885E+01    2.889E+01
     2.893E+01    2.895E+01    2.898E+01    2.899E+01    2.900E+01    2.901E+01    2.901E+01    2.900E+01    2.899E+01    2.897E+01
     2.895E+01    2.892E+01    2.888E+01    2.884E+01    2.879E+01    2.874E+01    2.868E+01    2.861E+01    2.853E+01    2.845E+01
     2.836E+01    2.827E+01    2.816E+01    2.806E+01    2.794E+01    2.782E+01    2.769E+01    2.756E+01    2.742E+01    2.728E+01
     2.713E+01    2.698E+01    2.682E+01    2.666E+01    2.649E+01    2.631E+01    2.614E+01    2.596E+01    2.577E+01    2.558E+01
     2.539E+01    2.519E+01    2.499E+01    2.479E+01    2.458E+01    2.437E+01    2.416E+01    2.394E+01    2.372E+01    2.350E+01
     2.328E+01    2.306E+01    2.283E+01    2.260E+01    2.237E+01    2.214E+01    2.191E+01    2.167E+01    2.143E+01    2.120E+01
     2.096E+01    2.072E+01    2.047E+01    2.023E+01    1.999E+01    1.974E+01    1.950E+01    1.925E+01    1.901E+01    1.876E+01
     1.851E+01    1.826E+01    1.802E+01    1.777E+01    1.752E+01    1.727E+01    1.703E+01    1.678E+01    1.653E+01    1.628E+01
     1.604E+01    1.579E+01    1.555E+01    1.530E+01    1.506E+01    1.482E+01    1.457E+01    1.433E+01    1.409E+01    1.384E+01
     1.360E+01    1.336E+01    1.312E+01    1.288E+01    1.264E+01    1.240E+01    1.216E+01    1.191E+01    1.167E+01    1.143E+01
     1.119E+01    1.095E+01    1.071E+01    1.047E+01    1.023E+01    9.991E+00    9.750E+00    9.510E+00    9.269E+00    9.027E+00
 Mac      Conc. = 2.75E-04
   2.51468E+01  2.45603E+01  2.44185E+01  2.44506E+01  2.43674E+01  2.37736E+01  2.26864E+01  2.09195E+01  1.88732E+01  1.70884E+01
   1.57296E+01  1.56370E+01  1.57332E+01  1.61926E+01  1.60415E+01  1.38115E+01  1.09393E+01  9.11005E+00  1.20875E+01  1.85240E+01
   2.23110E+01  2.56981E+01  3.04632E+01  3.29264E+01  3.37038E+01  3.43881E+01  3.57556E+01  3.72651E+01  3.90648E+01  4.14319E+01
   4.33839E+01  4.46749E+01  4.56886E+01  4.67866E+01  4.67093E+01  4.56902E+01  4.51064E+01  4.61103E+01  4.91579E+01  5.24990E+01
   5.39143E+01  5.30415E+01  5.25069E+01  5.31953E+01  5.45486E+01  5.66231E+01  5.76220E+01  5.76470E+01  5.70957E+01  5.61870E+01
   5.45963E+01  5.28558E+01  5.23597E+01  5.16896E+01  5.08358E+01  5.05795E+01  5.04061E+01  5.10365E+01  5.30075E+01  5.44316E+01
   5.51610E+01  5.71701E+01  5.89566E+01  5.88040E+01  5.83889E+01  5.73024E+01  5.62011E+01  5.58097E+01  5.54712E+01  5.46344E+01
   5.44070E+01  5.63964E+01  5.98172E+01  6.23008E+01  6.36132E+01  6.49334E+01  6.49478E+01  6.43025E+01  6.35804E+01  6.24785E+01
   6.18950E+01  6.14805E+01  6.07677E+01  6.06498E+01  6.15863E+01  6.23687E+01  6.33624E+01  6.40676E+01  6.49165E+01  6.55110E+01
   6.56910E+01  6.63192E+01  6.67141E+01  6.66301E+01  6.68433E+01  6.61137E+01  6.39974E+01  6.16460E+01  5.88222E+01  5.60575E+01
   5.43706E+01  5.31970E+01  5.09565E+01  4.83133E+01  4.55858E+01  4.09442E+01  3.45594E+01  2.64944E+01  1.97468E+01  1.68975E+01
