 
 $NMID
 ID=''
 FMTDAT='(2E13.5)'
 TRAMP=   1.00000E+0
 VOLUME=   1.00000E+0
 $END
   9.10562E+3  -9.92430E+3
  -4.80454E+3  -1.11621E+3
  -1.62116E+3   5.88484E+3
   6.11400E+3   2.85844E+2
   2.52470E+3   2.29932E+3
  -2.89893E+1   4.39723E+3
  -1.37715E+3  -3.21064E+3
  -3.71606E+3  -2.50724E+3
  -5.29719E+2   3.47807E+3
   2.35856E+3   9.32909E+2
  -5.51525E+2   2.99638E+2
  -1.60088E+3   1.42818E+3
  -2.79253E+2  -1.88305E+3
  -4.37667E+2  -6.08182E+2
  -9.98804E+2   2.34094E+3
  -1.43386E+3  -1.58032E+3
   3.42193E+2  -4.00567E+3
   2.54466E+3  -2.86756E+2
   5.53394E+2   3.79517E+2
  -9.55127E+2   3.19831E+1
   1.71756E+3   8.21132E+2
   1.36879E+3   4.67772E+2
  -1.05642E+3  -3.77568E+2
   4.62919E+2   7.80934E+2
  -2.52561E+2   1.77195E+3
  -2.27104E+3   8.20847E+2
  -1.04211E+2  -1.18542E+3
   1.49035E+3  -3.89998E+2
  -1.00082E+3   1.18677E+3
  -1.89223E+3  -3.38595E+1
  -2.66017E+2  -1.77521E+3
   1.01644E+3  -5.17180E+2
   9.09034E+2   1.92461E+2
   1.72148E+2   3.50429E+2
  -1.08424E+3   4.51113E+2
  -7.50094E+2  -7.81276E+2
   9.11971E+2  -1.54857E+3
   1.66428E+3  -2.64982E+1
   8.50521E+2   5.97668E+2
   1.14324E+2  -1.85344E+2
   3.03411E+2   8.54009E+2
  -2.44405E+2   1.54111E+3
  -7.97995E+2   4.03918E+2
  -5.20093E+2  -3.21700E+2
  -8.44253E+2  -3.26859E+2
  -9.30456E+2  -8.03589E+2
   4.53077E+2  -1.18898E+3
   1.42605E+3   1.71463E+2
   1.60474E+2   9.34016E+2
  -5.99040E+2   4.17795E+1
  -2.61688E+2  -8.09188E+2
   1.31787E+2  -3.35496E+2
  -2.57229E+2   4.91589E+0
  -1.56617E+1  -6.09763E+2
   8.80439E+2  -5.58386E+2
   5.09470E+2   1.05067E+2
   2.18185E+2   5.54175E+2
   1.70558E+1   7.05827E+2
  -1.60192E+2   6.86697E+2
  -6.29058E+2   3.86843E+2
  -6.80567E+2  -1.96600E+2
  -1.69659E+2  -1.83279E+2
   2.05936E+2  -3.98871E+2
   4.14246E+2  -2.07583E+2
   4.35670E+0   3.42528E+2
   2.53806E+2   1.91690E+2
   9.15253E+1   2.49128E+2
  -3.65483E+2   8.70442E+0
  -5.88623E+2  -2.26781E+2
   4.49941E+2  -5.14313E+2
   7.88623E+2  -5.28979E+1
  -5.15717E+1   2.86786E+2
  -1.46459E+2   1.91471E+2
   3.43851E+2  -5.21810E+2
   5.94977E+2   4.48101E+1
   1.16118E+2   3.77161E+2
  -6.42695E+1   1.55643E+2
   1.03764E+2   9.96944E+0
   2.29457E+2   5.93099E+1
  -2.93695E+2   1.38290E+2
   2.70170E+2  -1.94070E+2
   4.68497E+1   2.23940E+2
  -1.90846E+1   4.36023E+1
  -1.69530E+2  -1.29980E+1
   8.67103E+1  -1.94063E+2
   8.59758E+0  -1.30225E+1
  -1.63189E+2  -1.21511E+2
  -7.64886E+1  -1.31797E+2
   3.82500E+2  -2.88845E+2
   5.36160E+1   2.56275E+2
  -4.22296E+1  -1.20855E+2
   6.88877E+0   5.69753E+1
   1.11781E+2   4.21003E+1
   3.19094E+2   1.48555E+2
   1.32913E+2   7.20576E+1
  -1.72345E+2   1.51487E+2
  -4.06597E+2   1.62507E+1
  -1.10712E+2   1.96526E+2
  -8.13910E+1   2.76850E+2
  -2.84395E+2   1.60840E+2
  -2.77844E+2   1.91590E+2
  -2.42583E+1  -3.53828E+2
   1.55365E+2   5.69143E+1
  -9.04917E+1   6.76468E+1
   1.79087E+2   1.17820E+2
  -1.96461E+2   8.07333E+1
   1.48282E+2  -5.02860E+1
   2.26382E+1  -4.20822E+1
   2.81315E+2   2.08593E+1
   3.03910E+1   3.72746E+2
  -2.18500E+2   3.59091E+2
  -5.49552E+1   1.17988E+2
  -1.33601E+2  -1.08399E+2
  -1.09903E+2   1.58472E+2
  -2.01090E+2   1.17174E+2
  -8.94799E+1   5.13954E+1
   3.09677E+1  -1.01668E+2
   1.13952E+2  -5.29340E+1
   3.05871E+1   1.28821E+2
  -1.24664E+2  -1.11190E+2
  -7.92879E+1   5.37620E+1
   1.47439E+2   1.20355E+2
  -1.40821E+1  -1.15864E+2
  -1.28089E+2  -1.61255E+2
   9.09742E+1  -1.85642E+2
   1.65762E+2  -8.05950E+1
   2.83072E+1  -1.20623E+1
  -8.75659E+1   4.71454E-1
   4.59426E+1   2.14752E+2
  -2.41772E+2  -1.88117E+2
  -1.78688E+2  -2.74212E+2
  -1.62693E+1  -1.26317E+2
  -1.27765E+1  -1.21334E+2
  -1.51712E+1  -1.19720E+2
   5.58147E+1   1.99878E+2
  -1.50795E+2  -9.80503E+1
  -1.47886E+2   9.27221E+1
  -9.91500E+1  -1.95441E+2
   2.91668E+0   7.85753E+1
  -3.04532E+1  -3.70178E+2
   6.87792E+1  -1.47239E+2
   8.40294E+1  -6.05059E+1
  -1.78048E+0   1.01171E+2
  -1.28292E+2   1.48769E+2
  -3.14392E+0  -5.41272E+1
  -1.25799E+2   1.56097E+2
   1.91478E+1   1.37101E+2
  -1.04417E+2  -2.07848E+2
  -1.32502E+2   1.30347E+2
  -3.24518E+1   7.18577E+1
  -1.29194E+1  -5.93431E+1
  -5.59161E+1   1.52248E+2
  -1.14988E+2   1.50665E+2
  -2.15574E+2   7.09778E+1
  -6.92646E+1  -6.39884E+1
   1.44721E+2  -1.10078E+2
   5.12366E+1   3.51809E+1
  -2.06390E+2  -1.21196E+1
   1.55825E+2   2.79456E+1
   1.01765E+2   2.75662E+1
  -1.97630E+1  -3.80310E+1
  -5.89580E+1  -1.73241E+2
   4.63041E+1   1.88186E+2
   2.24886E+2   1.35143E+2
   6.36756E+1   9.53001E+1
  -1.81746E+2   2.75829E+2
  -5.91234E+1  -8.14064E+1
   3.41966E+1  -2.66092E+1
  -5.56927E+1   9.32200E+1
   4.45757E+1   1.09211E+2
   3.49696E+1   7.12955E+1
   1.68076E+1   5.53481E+1
  -4.66211E+0   4.23156E+0
   1.40655E+2  -2.02426E+1
   1.04796E+2  -1.82153E+2
   8.43334E+1   2.58903E+2
  -1.65626E+2   7.17723E+1
   7.92335E+0   1.68986E+2
   6.85554E+1   1.39111E+2
   2.60916E+2  -1.40281E+2
  -1.86670E+2  -3.05167E+2
   2.50907E+1   1.96259E+1
   1.11223E+2   1.67474E+2
   1.87736E+2  -2.43507E+1
  -9.66704E+1  -1.37697E+2
  -2.29623E+2  -2.51231E+2
  -3.81714E+1  -1.39720E+2
  -1.64111E+1  -3.06045E+1
   1.07419E+2  -5.09749E+1
  -1.87869E+2  -3.06966E+1
  -6.33381E+0   2.35334E+2
  -8.57469E+1  -6.30366E+1
  -7.04516E+1  -2.11078E+2
   9.82618E+1   9.27014E+1
  -6.08814E+1   1.11850E+2
   1.03948E+2  -2.33564E+1
   9.90847E+1   5.57048E+1
  -1.13227E+2  -4.98527E+1
   4.00776E+0  -1.05768E+2
   1.79941E+2  -9.25202E+1
  -2.23359E+2  -4.31030E+1
  -3.81235E+1  -5.06780E+1
   1.70994E+2   1.78801E+2
  -2.21605E+2   2.56942E+2
   5.61268E+0   1.11326E+2
   1.04259E+2  -9.60947E+0
   2.10223E+1   3.11002E+1
  -2.06475E+2  -1.80928E+2
  -2.09482E+0   1.03025E+2
  -4.26772E+1  -5.30645E+1
   2.33206E+1  -1.46635E+2
   7.52646E+1   9.85071E+1
  -7.78432E+1  -1.23039E+2
  -1.10210E+2   3.10432E-1
   2.37893E+1  -7.81180E+1
   7.60673E+1  -1.59213E+2
   2.70714E+2   1.04745E+2
   9.33256E+1   2.34356E+2
   1.43630E+2   4.90624E+1
  -2.51049E+1  -6.18484E+0
   9.46731E+1  -1.34621E+1
   1.32827E+2   7.06592E+1
   1.98156E+2   6.33335E+1
  -3.20872E+1  -1.04519E+2
   2.16862E+2   4.46183E+1
   4.09371E+1   1.46456E+1
   7.16879E+1  -2.76542E+1
   7.04316E+1  -6.18593E+1
  -8.36392E+1  -1.57920E+2
   2.24542E+2  -1.10124E+2
   7.65526E+0   1.94367E+1
   9.95588E+1  -1.57442E+2
   8.01893E+1  -6.15906E+1
   1.11567E+2  -1.44104E+2
   1.36679E+2   8.94560E+1
  -9.23519E+1   5.22211E+0
  -2.32614E+1  -1.03629E+2
  -2.54861E+1  -2.16508E+1
   1.20477E+1  -2.20411E+2
   1.75683E+2  -1.19398E+2
   1.13396E+2   9.26924E-1
   4.35967E+1  -2.04986E+2
  -3.86039E+1  -1.10958E+2
   1.68489E+2  -1.75529E+2
  -3.88932E+1   3.30366E+1
  -1.29076E+2  -5.39441E+1
   1.72237E+1   2.81407E+1
   6.85532E+1   1.92929E+1
   5.54199E+1   5.16083E+1
  -1.16940E+2  -4.07304E+1
  -8.31209E+1  -2.48838E+2
  -5.30370E+1  -9.86078E+1
  -1.62524E+2  -8.41513E+1
  -4.93583E+1  -5.79903E+1
   1.70601E+0  -2.13933E+2
  -3.79570E+1   6.92849E+1
  -4.11476E+2  -1.71996E+2
  -3.48028E+1  -6.95927E+0
  -1.75303E+2  -1.02869E+2
  -1.03707E+2  -4.38572E+1
   6.12939E+1  -3.11164E+2
   4.34716E+1  -1.19369E+2
   1.02040E+2   2.59712E+2
  -9.25237E+1   4.72124E+1
  -2.12996E+2   5.84671E+0
   1.76289E+2   6.92783E+1
  -1.23738E+2  -5.83603E+1
   9.38379E+1  -2.43100E+2
   1.09280E+2   2.09671E+0
  -1.80954E+2   5.48626E+1
   2.46635E+1   3.77626E+1
  -5.45479E+1   9.08553E+1
  -3.63723E+1   1.96189E+2
  -8.90184E+1   8.69623E+1
   1.42483E+1   2.24546E+1
   7.07242E+1  -5.66266E+1
  -3.77629E+1  -1.52147E+2
   7.65574E+1  -4.26014E+1
  -2.01079E+2  -1.14733E+2
   5.21428E+1   5.94187E+1
  -1.86295E+2   6.56121E+1
  -1.25230E+2  -1.91310E+2
   2.66114E+1   8.40204E+1
  -1.01935E+2   1.84257E+2
  -7.89143E+1  -6.39969E+1
   2.22480E+2   1.11061E+2
  -8.78423E+1   1.00244E+2
   4.23586E+1   1.97259E+2
  -8.78116E+1   8.10353E+1
  -2.39019E+1  -1.07579E+2
  -5.11856E+1   4.80746E+1
  -2.29614E+2  -3.08310E+1
  -5.19505E+1   2.01439E+2
   5.92516E+1   9.15022E+1
   2.59536E+2  -1.37622E+1
   9.13138E+1  -4.35169E+1
  -6.76806E+1  -7.55733E+1
  -6.04239E+1   3.08869E+2
  -2.10039E+2  -9.94078E+1
   1.51958E+2   3.09038E+1
  -2.82200E+1  -2.29823E+1
   2.66754E+2  -4.54660E+0
   1.34373E+2   7.26995E+1
   1.91845E+2  -9.51464E+1
   2.56896E+1  -1.46860E+1
   1.76830E+1   2.80969E+1
   1.02631E+2  -4.78511E+1
   6.08226E+1   9.17044E+1
   4.94602E+1   1.43975E+2
   2.90077E+2   2.79181E+1
  -9.65815E+1  -1.98120E+0
  -2.63692E+1   1.39064E+2
   9.27115E+1   1.23888E+2
   7.09128E+1   9.42692E+1
   1.49857E+2   1.40488E+2
   1.72494E+2   4.97087E+1
  -2.75841E+2  -1.48497E+1
   1.70009E+2  -2.40395E+1
   7.78009E+0  -1.40541E+2
  -2.74796E+1  -6.28230E+1
  -5.66953E+1   2.04278E+1
   1.24400E+2   7.46190E+0
   1.33306E+2  -1.09036E+2
   4.21343E+1  -5.20609E+1
  -8.06345E+1  -7.89120E+1
  -7.51067E+1  -2.76915E+1
   1.39764E+2  -5.14946E+1
   6.05671E+1  -8.48154E+1
  -2.63301E+2   2.13006E+1
   7.72303E+1   1.95630E+2
  -3.84474E+1  -4.98611E+1
  -2.34945E+1   9.25913E+1
   4.25587E+1   1.48655E+2
  -1.33667E+2  -7.01973E+0
   1.55424E+2   2.00865E+2
  -1.53659E+2  -4.22513E+1
  -7.17312E+1  -2.02144E+2
   1.17843E+2  -8.28281E+1
   8.50915E+1   6.84633E+1
   1.71133E+2   8.04522E+1
  -1.46819E+2  -1.08413E+2
  -1.14553E+2   7.07973E+1
   3.51606E+2  -2.51620E+2
  -1.55769E+1  -1.50987E+2
  -1.61813E+2   7.88644E+1
   5.83473E+1   1.43808E+2
   3.40778E+1  -7.87140E+1
   3.21692E+1  -1.45401E+2
  -2.66443E+1   1.70218E+2
   6.57202E+1  -1.58993E+2
  -1.39916E+2  -1.02749E+2
   1.78853E+2  -5.46789E+1
   3.73426E+1   1.93715E+2
   1.65542E+1  -1.04941E+2
  -8.99778E+0  -4.04287E+0
   2.00228E+2   1.83423E+2
  -6.12034E+1   1.07157E+2
   1.75961E+1  -1.30427E+2
   3.21577E+1   7.05947E+1
   5.19299E+1   6.69949E+1
   1.35973E+2   1.88167E+2
  -1.08339E+2  -1.80788E+2
   2.13019E+2   4.80248E+1
  -1.71303E+1  -1.01143E+2
  -1.06989E+2  -1.56503E+2
   4.85641E+1   4.60714E+1
   2.25922E+2   9.36834E+1
