 
 $NMID
 ID=''
 FMTDAT='(2E13.5)'
 TRAMP=   1.00000E+0
 VOLUME=   1.00000E+0
 $END
  -4.70466E+3  -7.82510E+3
  -8.17788E+3   9.02133E+2
   1.58936E+3   5.45291E+3
   5.00466E+3   2.43780E+3
  -9.65540E+2  -2.25311E+3
  -2.29022E+3  -2.37235E+3
   7.70315E+2   3.13756E+2
   1.34447E+3   1.91282E+3
   8.17842E+2   1.08585E+3
  -2.97019E+2   4.67118E+2
  -2.61272E+3   4.91842E+2
  -1.03994E+3  -4.03533E+2
   1.23660E+3  -3.77175E+2
  -1.07695E+3   3.55116E+2
  -1.89397E+3  -1.14249E+3
   1.25075E+3  -1.87311E+3
   2.08572E+3   4.33531E+2
  -2.46527E+2   1.29199E+3
  -5.99605E+2  -6.45632E+2
   3.36362E+2  -7.13314E+2
   3.50704E+2  -1.81725E+2
   3.67391E+2  -1.80484E+2
   2.69164E+2   7.14757E+2
  -5.62715E+2   2.59169E+2
  -2.24898E+2  -1.06695E+3
   7.83946E+2  -6.20317E+2
   5.92228E+2   1.64718E+3
  -1.49326E+3   6.96243E+2
  -8.24371E+2  -1.34980E+3
   1.10178E+3  -2.19969E+2
   2.96648E+2   9.31203E+2
  -6.06586E+2   3.94983E+2
  -6.51902E+2  -7.08576E+2
  -4.60822E+2  -6.35850E+2
   4.93887E+2  -6.19135E+2
   1.26459E+3   4.34912E+2
   7.91457E+2   1.35074E+3
  -5.49499E+2   6.65141E+2
  -3.09100E+2  -5.90891E+2
   1.49877E+2  -2.59051E+2
  -6.46364E+2   1.51129E+2
  -1.03334E+2  -2.73177E+2
   9.12899E+2  -1.28324E+2
   5.84540E+2   4.64303E+2
   5.16463E+2   2.40081E+2
   2.84355E+2   3.06805E+2
  -5.50403E+2   8.82693E+2
  -1.29662E+3   1.23241E+2
  -4.05161E+2  -7.71377E+2
   4.51708E+2  -6.39851E+2
   5.38070E+2  -4.31608E+1
   3.95620E+2   3.45556E+1
   3.55566E+2  -1.88656E+2
   4.28643E+2   1.62985E+2
  -2.10884E+2  -3.59892E+1
  -5.32669E+2   2.72304E+2
  -1.77188E+2  -1.39292E+2
   3.52999E+2  -4.15836E+2
   4.85712E+2  -3.68203E+2
   4.74168E+2   7.21824E+1
  -2.11914E+1   2.56933E+2
  -1.86148E+2  -3.40719E+1
  -5.33643E+2   5.29425E+2
  -8.75745E+2   4.22858E+2
  -6.37347E+2  -2.30939E+2
  -3.21357E+2  -6.22722E+2
   3.05696E+2  -5.19837E+2
   6.01177E+2  -1.57990E+2
   2.66455E+2   1.62788E+2
  -3.11929E+2   1.76255E+2
  -1.93959E+2   1.75308E+2
   3.96631E+2  -1.22832E+2
   6.79274E+1   5.99471E+2
   1.18207E+2   5.59093E+2
  -4.24398E+2  -6.19102E+0
  -2.79759E+2  -2.35496E+2
   1.42867E+2   1.25398E+2
  -1.57976E+2   2.02230E+2
  -3.11985E+2   1.36032E+1
  -9.36249E+1  -2.56529E+2
  -1.39909E+2  -2.96738E+2
  -1.97347E+2  -2.07052E+2
   1.85763E+2   7.75910E+1
   1.73105E+2  -4.33545E+1
  -1.57371E+2  -3.07905E+2
   2.20462E+1  -1.07775E+2
   2.55963E+2   3.51005E+2
   2.81284E+2   2.65911E+2
  -1.06219E+2   1.28945E+2
   1.47333E+2   5.68987E+0
   1.44010E+2   1.84209E+2
  -2.60075E+0   2.39559E+2
  -1.89025E+2   3.72380E+1
  -3.56029E+2  -2.75883E+2
   2.11707E+2  -4.48265E+2
   4.26030E+2  -6.02427E+1
  -1.18008E+2  -1.04159E+2
  -3.67435E+2  -1.07757E+2
  -1.47157E+2  -2.80160E+2
   2.03298E+2   2.19404E+2
  -1.57752E+1   9.37603E+0
  -3.04938E+2   7.06963E+1
  -8.03138E+1  -4.42638E+1
  -3.07105E+1  -3.42862E+2
   1.85054E+2   6.14275E+1
   7.68589E+1   3.36146E+1
  -4.14355E+2   1.72131E+2
  -2.45850E+2  -4.22799E+1
  -7.47124E+0  -3.49918E+2
   2.89328E+2  -9.11200E+1
   2.54856E+2   1.82112E+2
  -2.50311E+2   8.90471E+1
  -2.23873E+2   3.42627E+2
  -4.10198E+2   1.12394E+2
   3.49945E+1   2.12767E+2
  -1.33246E+2   8.36215E+1
  -1.96569E+2  -1.20601E+1
   5.45599E+1  -2.46156E+2
  -6.34505E+1  -2.65029E+2
   3.95595E+2   7.07992E+1
   1.77949E+2   1.84408E+2
   8.70137E+1   2.15994E+2
   4.24950E+1  -2.82092E+1
  -1.62981E+2   8.70241E+1
  -4.73356E+1  -2.45726E+1
  -2.83081E+2  -9.07873E+1
   1.14694E+2   3.38593E+1
   1.81355E+2   1.93856E+2
   6.48378E+1   2.26246E+2
  -3.79016E+1   1.60338E+1
  -2.48211E+2   2.36493E+1
  -3.08429E+2  -1.57002E+2
   8.63089E+1   8.06398E+1
   1.88089E+2  -5.14493E+1
  -2.07861E+1   1.65251E+2
   4.23242E+1  -6.78172E+1
   3.83397E+2   1.54557E+1
   7.28949E+1   2.26609E+2
  -3.61050E+2   2.08635E+2
  -2.43259E+2   1.41709E+2
  -1.01650E+2  -1.65603E+2
   8.80917E+1  -8.81523E+1
  -2.47764E+2  -6.20551E+1
   9.44974E+0   4.79874E+1
  -3.21328E+2  -1.71451E+2
  -8.18199E+1   2.43921E+2
  -1.53039E+2  -2.11303E+2
   2.66132E+2  -1.63910E+2
   3.25320E+2  -5.22243E+1
   8.89199E+1  -1.38861E+1
   2.19652E+2  -1.18133E+2
   8.46847E+1  -2.43276E+1
  -9.17658E+1   8.62224E+1
   6.78106E+1   1.11163E+2
   1.41023E+2   4.16583E+1
   1.20514E+2  -1.34491E+2
   2.46280E+2   8.75546E+0
  -1.18089E+2  -2.66929E+2
   2.44792E+2  -1.29140E+2
  -9.59769E+0  -6.22800E+1
   1.41534E+2  -6.70810E+1
  -1.74040E+2  -1.92056E+2
   3.04628E+0   7.91048E+1
   1.55842E+2  -2.06190E+2
   5.45636E+1  -2.50191E+2
  -4.94028E+1  -1.49886E+2
  -1.09660E+2   6.71194E+1
   5.47081E+1   2.70440E+1
   9.84220E+0  -2.65610E+1
   1.06500E+2  -2.50116E+2
   4.23860E+1  -2.23776E+1
  -3.22598E+1  -5.64539E+1
   7.06186E+1  -2.19372E+2
   1.81024E+2  -1.38257E+1
   7.07641E+1  -2.28327E+2
  -3.49395E+1  -4.95525E+1
  -7.37708E+1  -2.04281E+2
  -1.76694E+2   4.81901E+1
  -1.21175E+2   6.38992E+1
   2.07691E+2  -2.09700E+2
  -1.52597E+1  -1.36935E+2
   5.70833E-1   9.05603E+1
   1.32730E+2  -1.90195E+2
   9.46371E+1  -1.75217E+2
   3.46927E+1  -3.55358E+1
   2.29651E+1  -9.05864E+1
   3.41170E+2   7.69894E+1
  -2.92418E+1  -2.31716E+2
   4.40100E+1  -9.73426E+1
   9.63131E+1   3.73061E+1
  -7.63825E+1  -1.01248E+2
   3.35049E+1   1.38025E+2
   2.10604E+2   1.81770E+2
  -5.73194E+1   6.40812E+1
   1.12903E+2   5.05178E+1
   1.53117E+2   1.42011E+2
  -1.38307E+2   1.28861E+1
  -1.61313E+2   2.70385E+2
  -2.00284E+1  -9.13845E+1
   3.14921E+1  -9.87182E+1
  -7.98839E+1   1.36544E+2
  -4.17588E+1   2.29608E+2
   1.99554E+2  -1.66600E+2
  -1.78683E+2  -1.83441E+1
   1.19666E+2  -2.48283E+2
   2.27355E+2  -1.79647E+2
  -4.50867E+1   1.26808E+2
  -5.08798E+0   1.00423E+2
  -2.78886E+1   3.45317E+1
   1.56070E+2  -1.65560E+2
   7.19814E+1  -9.75558E+1
   1.99282E+2  -1.07036E+2
   6.65340E+1  -9.32019E+1
   1.76583E+2  -3.83766E+1
  -6.25457E+1   6.72537E+0
   4.02222E+1  -2.08029E+0
   1.62304E+1   9.94704E+1
   1.18155E+2  -1.13034E+2
  -8.72556E+1  -1.20723E+2
   1.23255E+2  -1.02443E+0
  -4.56085E+1   6.27893E+1
  -1.38174E+1  -1.08210E+2
   2.12073E+2   1.07141E+2
   1.06026E+2   1.67238E+1
   3.29666E+2  -1.40001E+1
  -6.45324E+1   1.16819E+2
  -2.75028E+1   8.47876E+1
   2.69844E+1  -2.78082E+2
   6.35627E+1  -4.91603E+1
  -6.38766E+0   6.51534E+1
  -9.99396E+1  -4.21555E+1
  -1.31783E+1  -4.04622E+1
   2.63745E+1   5.57503E+1
   2.17071E+2  -5.65785E+0
  -1.51700E+1   1.06617E+2
   5.61932E+1  -9.53612E+1
   9.81485E+1   1.58801E+0
  -5.69299E+1   1.46175E+2
   1.30080E+2   9.36235E+1
  -2.29287E+2  -2.66275E+1
  -2.16652E+2  -2.08285E+2
   1.96892E+2  -1.83430E+2
  -1.38407E+2   1.30965E+2
   1.59547E+2   4.60201E+1
  -5.58312E+1  -1.16508E+2
  -1.96221E+2  -1.34422E+1
  -2.92034E+1  -8.42596E+1
  -5.88503E+1   1.80462E+2
  -6.01255E+1  -5.80864E+1
  -2.12836E+2   5.08144E+1
  -2.18472E+2   2.10430E+1
   3.53256E+1  -2.75056E+1
  -1.34767E+2   7.01456E+1
   3.35510E+1   2.36841E+2
  -1.49216E+2   1.93625E+2
  -1.39704E+2   7.88499E+1
  -1.30667E+2   1.52330E+2
  -1.02633E+1  -5.89295E+1
   1.58516E+2   1.57577E+1
   2.33022E+2   2.92597E+2
  -2.35530E+1  -6.37443E+1
  -5.24332E+1   1.93076E+2
   5.12744E+1  -2.72424E+1
  -7.67462E+1  -6.26559E+1
   1.36444E+2  -3.79219E+1
   9.26049E+1   2.08510E+2
  -8.84042E+1   7.86486E+1
  -1.10761E+2   5.83656E+0
  -9.49994E+1   1.25509E+2
   3.29091E+1   1.64201E+2
   4.17884E+1   1.92708E+2
   6.46011E+1   5.28964E+1
   3.44356E+1  -1.49728E+1
   7.67898E+1  -7.43478E+1
   6.75500E+1  -2.29624E+1
  -7.73690E+1  -1.63595E+1
  -1.04699E+2  -8.45647E+1
   2.01670E+2  -1.52323E+1
   5.63830E+1  -1.43927E+2
   1.31445E+2   9.71252E+1
   4.44670E+1  -4.18691E+0
   8.14703E+1   1.45908E+2
   5.63689E+0  -1.19268E+2
   1.91112E+2   2.30764E+2
  -7.61712E-1  -4.88152E+1
   1.63459E+2  -8.47514E+1
  -1.19393E+1  -1.41074E+2
  -9.46266E+1   9.38256E+1
   2.32751E+2   1.45792E+2
   1.15091E+2   4.49215E+1
  -1.09479E+2   2.97937E+2
  -1.08432E+2  -1.11102E+2
   9.89597E+0   1.24742E+1
   1.33153E+2   1.59025E+1
   1.69903E+2   1.51488E+2
  -3.79721E+1   1.54395E+2
   5.13302E+0  -1.43442E+2
   1.65909E+2  -4.28227E+1
   6.43040E+1   1.93689E+2
   6.98041E+1   5.10519E+1
   6.69688E+1   8.46265E+1
   1.04615E+2   1.13521E+2
   3.12865E+0   1.26049E+2
   1.47864E+2   2.24782E+2
   1.05493E+2  -1.05785E+2
  -2.80539E+1   1.20347E+2
  -6.16222E+1   3.91616E+1
  -5.33101E+1  -7.12951E+1
  -1.04885E+2  -7.16630E+1
  -2.04348E+2  -8.59542E-1
  -3.89390E+1  -1.46038E+2
  -8.09485E+0  -1.15955E+2
   1.38354E+2  -9.79628E-2
   3.91535E+1   6.49163E+1
   8.99263E+1   1.17653E+1
  -9.21399E+1  -1.08201E+2
   6.77040E+1  -1.83162E+2
   5.40463E+1   1.64931E+1
  -1.88772E+2  -5.98393E+1
   1.82889E+2   1.50272E+1
  -7.62223E+1   7.79890E+1
  -4.12509E+1  -7.80646E+1
   5.13814E+1   3.36637E+2
   1.21408E+2   2.00537E+1
   7.89484E+0   1.96270E+1
   2.61403E+2   2.14734E+2
   9.31472E+1   2.59410E+2
  -6.93570E+1   1.26349E+2
   5.24629E+1   1.06592E+2
  -9.21487E+1  -2.85123E+1
   9.84226E+1   1.72333E+2
   1.23959E+2   1.80246E+2
  -1.13417E+1   5.39150E+1
   8.53577E+1  -2.91123E+1
   2.87315E+2  -1.34397E+2
   1.71159E+2   2.78706E+1
   6.05444E+1   1.60704E+2
  -1.69198E+2  -9.99792E+0
  -3.18428E+1  -6.02151E+1
   6.38220E+1  -1.13658E+2
   7.35616E+1   8.39853E+1
   2.93260E+1  -4.60447E+1
   1.15356E+2  -1.12740E+2
   1.67573E+2  -1.72539E+1
  -5.38573E+1   6.14291E+1
  -1.88635E+2   9.98739E+1
   2.63496E+1   5.78493E+1
  -3.04944E+2   5.78643E+0
   3.45124E+1   2.01635E+1
   2.59806E+2  -4.39636E+1
   6.34067E+1   1.50548E+1
   1.77328E+2   1.57569E+2
  -6.85688E+1   1.02959E+2
  -3.13320E+1  -8.71470E+1
  -5.05168E+1   1.89760E+1
  -3.19069E+1  -2.26828E+2
   8.51243E+0   1.81699E+2
  -4.35772E+1  -1.15707E+2
   7.18838E+1  -3.41249E+1
   1.09108E+2   8.88175E+1
  -8.59103E+1   3.97463E+1
  -3.67127E+1   6.30496E+1
  -1.75551E+2  -1.21320E+1
   3.31610E+1   1.26465E+2
   4.52239E+2   1.22699E+2
   2.71013E+2   2.13494E+1
  -4.41854E+1   3.19384E+2
