 LCModel (Version 6.3-1N) Copyright: S.W. Provencher.          Ref.: Magn. Reson. Med. 30:672-679 (1993).                
 Slice_N1@18_11  28-Feb-2025 11:37:19
 27 lines in following concentration table = NCONC+1
    Conc.  %SD /Cr+PCr  Metabolite                                         
 2.89E-04   4% 2.4E-04 Mac                                                 
    4.375  23%   3.697 Cr                                                  
    5.092  19%   4.303 PCr                                                 
    8.111  10%   6.854 Ins                                                 
   12.003   6%  10.143 NAA                                                 
    7.923  10%   6.695 Tau                                                 
    1.002  74%   0.846 PCho                                                
    0.900  79%   0.760 GPC                                                 
   11.425   8%   9.654 Glu                                                 
    5.504  14%   4.651 Gln                                                 
    0.000 999%   0.000 Ala                                                 
    3.861  28%   3.263 Asc                                                 
    3.231  30%   2.730 Asp                                                 
    1.250  41%   1.057 GABA                                                
    0.569 128%   0.481 Glc                                                 
    1.212  38%   1.025 GSH                                                 
    2.126  28%   1.797 Lac                                                 
    2.558  19%   2.162 NAAG                                                
    1.618  59%   1.367 PE                                                  
    1.901  14%   1.607 GPC+PCho                                            
   14.561   5%  12.304 NAA+NAAG                                            
   16.929   7%  14.305 Glu+Gln                                             
    9.467   7%   8.000 Cr+PCr                                              
   14.561   5%  12.304 NAA+NAAG                                            
    9.467   7%   8.000 Cr+PCr                                              
   16.929   7%  14.305 Glu+Gln                                             
   6 lines in following misc. output table
  FWHM = 0.024 ppm    S/N =   6                                            
  Data shift = 0.016 ppm                                                   
  Ph:-168 deg       0.0 deg/ppm                                            
  alphaB,S = 5.8E-01,   5.7E+00                                            
   19 spline knots.   Ns = 5(1)                                            
  ( 4) 2 infls.   ( 4) 1 extrs.                                            
  480 points on ppm-axis = NY
      4.100000     4.091866     4.083733     4.075600     4.067466     4.059333     4.051199     4.043066     4.034933     4.026799
      4.018666     4.010532     4.002399     3.994265     3.986132     3.977998     3.969864     3.961731     3.953597     3.945463
      3.937330     3.929196     3.921062     3.912929     3.904795     3.896662     3.888528     3.880394     3.872261     3.864127
      3.855993     3.847860     3.839726     3.831592     3.823459     3.815325     3.807191     3.799058     3.790924     3.782790
      3.774657     3.766523     3.758389     3.750256     3.742122     3.733989     3.725855     3.717721     3.709588     3.701454
      3.693320     3.685187     3.677053     3.668919     3.660786     3.652652     3.644518     3.636385     3.628251     3.620117
      3.611984     3.603850     3.595716     3.587583     3.579449     3.571316     3.563182     3.555048     3.546915     3.538781
      3.530647     3.522514     3.514380     3.506246     3.498113     3.489979     3.481845     3.473712     3.465578     3.457444
      3.449311     3.441177     3.433043     3.424910     3.416776     3.408643     3.400509     3.392375     3.384242     3.376108
      3.367974     3.359841     3.351707     3.343573     3.335440     3.327306     3.319172     3.311039     3.302905     3.294771
      3.286638     3.278504     3.270370     3.262237     3.254103     3.245970     3.237836     3.229702     3.221569     3.213435
      3.205301     3.197168     3.189034     3.180900     3.172767     3.164633     3.156499     3.148366     3.140232     3.132098
      3.123965     3.115831     3.107697     3.099564     3.091430     3.083297     3.075163     3.067029     3.058896     3.050762
      3.042628     3.034495     3.026361     3.018227     3.010094     3.001960     2.993826     2.985693     2.977559     2.969425
      2.961292     2.953158     2.945024     2.936891     2.928757     2.920624     2.912490     2.904356     2.896223     2.888089
      2.879955     2.871822     2.863688     2.855554     2.847421     2.839287     2.831153     2.823020     2.814886     2.806752
      2.798619     2.790485     2.782351     2.774218     2.766084     2.757951     2.749817     2.741683     2.733550     2.725416
      2.717282     2.709149     2.701015     2.692881     2.684748     2.676614     2.668480     2.660347     2.652213     2.644079
      2.635946     2.627812     2.619678     2.611545     2.603411     2.595278     2.587144     2.579010     2.570877     2.562743
      2.554609     2.546476     2.538342     2.530208     2.522075     2.513941     2.505807     2.497674     2.489540     2.481406
      2.473273     2.465139     2.457006     2.448872     2.440738     2.432605     2.424471     2.416337     2.408204     2.400070
      2.391936     2.383803     2.375669     2.367535     2.359402     2.351268     2.343134     2.335001     2.326867     2.318733
      2.310600     2.302466     2.294333     2.286199     2.278065     2.269932     2.261798     2.253664     2.245531     2.237397
      2.229263     2.221130     2.212996     2.204862     2.196729     2.188595     2.180461     2.172328     2.164194     2.156060
      2.147927     2.139793     2.131660     2.123526     2.115392     2.107259     2.099125     2.090991     2.082858     2.074724
      2.066590     2.058457     2.050323     2.042189     2.034056     2.025922     2.017788     2.009655     2.001521     1.993387
      1.985254     1.977120     1.968987     1.960853     1.952719     1.944586     1.936452     1.928318     1.920185     1.912051
      1.903917     1.895784     1.887650     1.879516     1.871383     1.863249     1.855115     1.846982     1.838848     1.830714
      1.822581     1.814447     1.806314     1.798180     1.790046     1.781913     1.773779     1.765645     1.757512     1.749378
      1.741244     1.733111     1.724977     1.716843     1.708710     1.700576     1.692442     1.684309     1.676175     1.668041
      1.659908     1.651774     1.643641     1.635507     1.627373     1.619240     1.611106     1.602972     1.594839     1.586705
      1.578571     1.570438     1.562304     1.554170     1.546037     1.537903     1.529769     1.521636     1.513502     1.505368
      1.497235     1.489101     1.480968     1.472834     1.464700     1.456567     1.448433     1.440299     1.432166     1.424032
      1.415898     1.407765     1.399631     1.391497     1.383364     1.375230     1.367096     1.358963     1.350829     1.342695
      1.334562     1.326428     1.318295     1.310161     1.302027     1.293894     1.285760     1.277626     1.269493     1.261359
      1.253225     1.245092     1.236958     1.228824     1.220691     1.212557     1.204423     1.196290     1.188156     1.180022
      1.171889     1.163755     1.155622     1.147488     1.139354     1.131221     1.123087     1.114953     1.106820     1.098686
      1.090552     1.082419     1.074285     1.066151     1.058018     1.049884     1.041750     1.033617     1.025483     1.017349
      1.009216     1.001082     0.992949     0.984815     0.976681     0.968548     0.960414     0.952280     0.944147     0.936013
      0.927879     0.919746     0.911612     0.903478     0.895345     0.887211     0.879077     0.870944     0.862810     0.854676
      0.846543     0.838409     0.830276     0.822142     0.814008     0.805875     0.797741     0.789607     0.781474     0.773340
      0.765206     0.757073     0.748939     0.740805     0.732672     0.724538     0.716404     0.708271     0.700137     0.692003
      0.683870     0.675736     0.667603     0.659469     0.651335     0.643202     0.635068     0.626934     0.618801     0.610667
      0.602533     0.594400     0.586266     0.578132     0.569999     0.561865     0.553731     0.545598     0.537464     0.529330
      0.521197     0.513063     0.504930     0.496796     0.488662     0.480529     0.472395     0.464261     0.456128     0.447994
      0.439861     0.431727     0.423593     0.415460     0.407326     0.399192     0.391059     0.382925     0.374792     0.366658
      0.358524     0.350391     0.342257     0.334124     0.325990     0.317856     0.309723     0.301589     0.293455     0.285322
      0.277188     0.269055     0.260921     0.252787     0.244654     0.236520     0.228386     0.220253     0.212119     0.203986
 NY phased data points follow
  -8.95705E+00 -6.57177E+00 -2.41953E+01 -2.34597E+01 -2.29513E+01 -1.61707E+01 -1.22231E+01  1.47232E+00 -1.42185E+01 -1.71138E+01
  -1.23213E+01 -2.44863E+01 -1.84550E+01 -4.22289E+01 -3.78124E+01 -4.30038E+01 -5.61357E+01 -3.53529E+01 -4.40422E+01 -8.15500E+01
  -9.48191E+01 -7.86365E+01 -4.39783E+01 -1.31190E+01  3.45439E+00  4.67903E+01  4.20869E+01  2.81098E+01  4.38748E+01  4.09316E+01
   3.86521E+01  4.40005E+01  4.07915E+01  2.07239E+01  2.43852E+01  2.86282E+01  2.36083E+01  1.07601E+01  8.25604E+00 -3.30755E+01
  -7.17022E+01 -5.36435E+01 -6.69385E+01 -4.72190E+01 -1.46302E+01  5.90487E+00  3.66988E+01  5.55619E+01  5.60850E+01  6.99931E+01
   6.35497E+01  4.63406E+01  6.38893E+01  2.97274E+01  3.19307E+01  2.47783E+01  5.52747E+00  1.88197E+01 -9.15322E+00 -2.41486E+01
  -1.56514E+01  2.52083E+01  1.45685E+01  1.96164E+01  4.94842E+01  4.45161E+01  6.11061E+01  3.16046E+01  7.99933E+00 -1.92596E+01
  -3.16671E+01  3.37539E+00 -3.46991E+00 -2.36017E+00  2.82004E+01  5.44203E+01  5.82521E+01  5.33429E+01  6.96268E+01  7.14376E+01
   6.50187E+01  5.30957E+01  2.53344E+01  1.12036E+01  3.27213E+00 -1.24708E+01 -1.68369E+01  7.85313E+00  4.17861E+01  6.59622E+01
   6.30312E+01  8.00787E+01  8.83532E+01  7.47796E+01  8.74018E+01  7.30607E+01  8.87470E+01  9.54840E+01  8.40712E+01  8.35320E+01
   7.54111E+01  7.89952E+01  4.79595E+01  3.29644E+01  2.53970E+01  1.25287E+01 -1.92073E+01 -2.64999E+01 -2.25676E+01 -6.68128E+01
  -1.09319E+02 -1.66971E+02 -1.41060E+02 -8.01419E+01 -6.15469E+01 -4.03030E+01 -2.45162E+01 -1.45149E+01  2.61486E+00  1.64769E+01
   9.65271E-01  7.15611E+00  9.62897E+00  2.12139E+01  3.22925E+01  4.41647E+01  6.84668E+01  6.83015E+01  9.90842E+01  1.28981E+02
   1.61824E+02  1.65651E+02  5.70856E+01 -7.24415E+01 -1.09641E+02 -1.01820E+02 -9.84310E+01 -8.98655E+01 -7.83045E+01 -6.60032E+01
  -6.06876E+01 -5.28801E+01 -6.39463E+01 -7.48992E+01 -7.19317E+01 -5.07647E+01 -4.60394E+01 -5.09286E+01 -4.38438E+01 -4.88368E+01
  -2.80540E+01 -3.00398E+01 -4.43480E+01 -3.93550E+01 -2.27754E+01 -2.24744E+01 -2.37532E+01 -2.03751E+01 -2.44211E+01 -8.17017E+00
  -2.57216E+01 -9.81921E+00  3.20648E-01 -1.18457E+01 -1.43333E+01 -3.52171E+01 -2.54633E+01 -1.92079E+01 -2.18668E-01  5.66063E+00
  -7.66199E-01  1.09500E+01  3.02754E+01  3.77129E+01  2.43003E+01  1.14161E+01  2.40006E+01  4.81824E+01  1.94620E+01 -5.12987E+00
  -2.33170E+01 -1.74952E+01 -2.54118E+01 -4.21745E+01 -2.14208E+01 -3.75559E+01 -2.23972E+01 -2.85778E+01 -4.91683E+01 -3.09913E+01
  -1.78730E+01 -1.27615E+01 -2.44531E+01 -1.63979E+01  1.72006E+00 -1.19883E+00 -1.57387E+01  4.35534E-01  2.60021E+00  1.74709E+00
  -1.43586E+00 -6.82002E+00  2.52188E+01  2.23839E+01  1.61940E+01  1.05856E+01  9.39383E+00 -5.76764E+00 -3.06447E+01 -2.76823E+01
  -3.88284E+01 -3.07442E+01 -3.06482E+01 -1.35867E+01  2.15115E+01  4.15500E+01  7.32318E+01  7.38729E+01  6.56514E+01  6.09694E+01
   2.62380E+01 -1.28782E+00 -7.71348E-01  8.77013E+00  9.77905E+00 -2.91217E+00  2.28256E+01  1.48305E+01 -8.81743E+00  2.11581E+01
   5.68779E+00  2.65885E+00 -1.26123E+01 -3.59674E+01 -3.55693E+01 -6.40224E+01 -5.83773E+01 -5.94193E+01 -6.48723E+01 -6.24359E+01
  -6.56116E+01 -5.99897E+01 -4.40971E+01 -2.85437E+01 -1.89575E+01  5.19138E+00 -8.80181E+00 -1.64362E+01 -5.67748E+00 -2.12599E+01
  -3.57767E+01 -4.08910E+01 -4.91980E+01 -5.35972E+01 -6.12279E+01 -9.68353E+01 -1.06984E+02 -3.14641E+01  1.62956E+02  2.61923E+02
   1.99004E+02  1.77937E+02  1.69181E+02  1.51092E+02  1.23765E+02  1.06733E+02  9.88105E+01  8.56884E+01  8.77615E+01  8.60856E+01
   9.58149E+01  9.15540E+01  8.79537E+01  8.60112E+01  8.46170E+01  8.78970E+01  8.05373E+01  8.20089E+01  8.51165E+01  7.96855E+01
   8.49600E+01  8.87136E+01  7.43395E+01  8.06582E+01  7.00012E+01  6.77947E+01  8.61496E+01  7.28924E+01  7.59932E+01  8.80438E+01
   7.02879E+01  5.49026E+01  6.39358E+01  4.89962E+01  4.93394E+01  5.94496E+01  4.30343E+01  3.32227E+01  2.23755E+01  3.79441E+01
   5.25159E+01  5.07413E+01  4.89951E+01  6.31364E+01  7.96784E+01  7.40743E+01  8.28720E+01  8.44228E+01  9.63161E+01  1.18267E+02
   1.16805E+02  1.19406E+02  1.11158E+02  1.13461E+02  1.17174E+02  9.53768E+01  9.44596E+01  8.91736E+01  9.46668E+01  9.99619E+01
   8.33944E+01  8.44195E+01  7.15304E+01  5.81304E+01  5.63460E+01  5.96782E+01  4.85219E+01  5.34227E+01  6.87430E+01  5.30484E+01
   5.63748E+01  6.03667E+01  6.37336E+01  5.19992E+01  3.19470E+01  3.91521E+01  5.54282E+01  5.19370E+01  4.83179E+01  6.03729E+01
   4.30946E+01  3.58745E+01  3.90305E+01  3.76699E+01  3.11546E+01  3.45004E+01  5.30267E+01  6.13941E+01  6.91775E+01  6.88802E+01
   6.91958E+01  5.89830E+01  6.64629E+01  6.35399E+01  4.49167E+01  3.96234E+01  2.13289E+01  6.98096E+00  1.25026E+01  2.23314E+01
  -2.56953E-01  4.15348E-01  1.11009E+01  1.70943E+01  1.44926E+01  1.03364E+01  2.92441E+01  1.51709E+01  2.56718E+01  3.27569E+01
   3.01819E+01  4.49769E+01  3.19116E+01  2.23832E+01  4.33288E+01  5.52335E+01  4.81462E+01  6.97655E+01  7.83932E+01  7.29312E+01
   7.25330E+01  9.85972E+01  1.05547E+02  9.10407E+01  1.19499E+02  1.10762E+02  1.23583E+02  1.50533E+02  1.34071E+02  1.39213E+02
   1.44825E+02  1.29751E+02  1.02535E+02  7.63895E+01  5.37148E+01  5.12630E+01  6.19065E+01  4.00570E+01  3.37557E+01  4.93364E+01
   2.14083E+01 -8.18846E-01 -8.05201E+00 -1.60821E+01 -2.29175E+01 -2.87037E+01 -1.98922E+01 -2.73599E+01 -2.72882E+01 -2.95742E+01
  -2.98333E+01 -2.90992E+01 -3.02180E+01 -2.06518E+01 -2.85680E+01 -2.56475E+01 -2.53397E+01 -2.49679E+01 -2.26769E+01 -1.27283E+01
  -1.62952E+01 -2.96294E+01 -1.82568E+01 -2.83541E+01 -2.58348E+01 -2.62275E+01 -2.96747E+01 -2.79390E+01 -2.58045E+01 -3.91888E+00
  -2.24878E+01 -3.47018E+01 -1.46787E+01 -8.56931E+00 -1.90420E+01 -1.35861E+01 -5.49246E+00 -2.51308E+01 -1.61543E+01 -1.18302E+01
  -1.84591E+01 -2.52472E+01 -3.58207E+01 -3.26362E+00 -1.34355E+01 -2.38891E+01 -8.64541E+00 -2.62535E+01 -5.89793E+00 -7.17614E+00
  -2.56680E+01 -2.31629E+01 -1.73640E+01 -1.05512E+01 -1.47583E+01 -7.55570E+00 -2.87367E+01 -2.52073E+01 -4.82549E+00 -1.51248E+01
  -1.35162E+01 -1.83228E+01 -1.74080E+01 -8.97874E+00 -1.06678E+01 -2.71170E+01 -2.17675E+01 -1.15373E+00 -6.85266E+00 -1.59963E+01
  -1.31590E+01 -9.87142E+00 -1.48190E+01 -1.12099E+01 -1.97609E+01 -2.71477E+01 -1.66511E+01 -1.05565E+01 -6.77163E+00 -1.25593E+01
 NY points of the fit to the data follow
  -1.82395E+01 -2.34086E+01 -3.21838E+01 -4.07013E+01 -4.20596E+01 -2.64221E+01 -3.48031E+00  6.50640E+00 -2.40016E+00 -1.61968E+01
  -2.62788E+01 -3.18926E+01 -3.26848E+01 -3.07305E+01 -2.95563E+01 -3.11545E+01 -3.44223E+01 -4.08085E+01 -5.18315E+01 -7.06448E+01
  -8.45559E+01 -7.41055E+01 -4.08137E+01 -1.02640E+01  1.69554E+01  4.49963E+01  4.62416E+01  4.29162E+01  4.63441E+01  4.64037E+01
   4.60692E+01  4.38386E+01  4.13277E+01  3.84207E+01  3.41101E+01  2.89378E+01  2.33005E+01  1.54601E+01  5.11369E-01 -2.49754E+01
  -5.35697E+01 -6.81131E+01 -5.89269E+01 -3.65135E+01 -1.23538E+01  1.42757E+01  3.69648E+01  4.89616E+01  5.31370E+01  5.53630E+01
   5.35512E+01  4.90296E+01  4.44063E+01  3.56622E+01  2.31013E+01  1.02202E+01  2.47457E+00 -8.78718E-01 -7.94330E+00 -1.64795E+01
  -9.84458E+00  7.66158E+00  1.36481E+01  2.39690E+01  4.74382E+01  5.69156E+01  5.61084E+01  4.70395E+01  1.86196E+01 -1.37913E+01
  -2.58958E+01 -1.25643E+01  1.49145E+00  9.20518E+00  2.91106E+01  4.95292E+01  5.82305E+01  6.29951E+01  6.56324E+01  6.61046E+01
   6.20104E+01  4.93658E+01  2.79230E+01  3.31794E+00 -1.63348E+01 -2.10068E+01 -8.61261E+00  9.74200E+00  3.19503E+01  4.61396E+01
   5.28688E+01  5.88201E+01  6.27417E+01  6.71480E+01  7.16489E+01  7.59801E+01  8.02331E+01  8.35016E+01  8.32618E+01  8.07566E+01
   8.15837E+01  8.36159E+01  7.34950E+01  5.15960E+01  3.02787E+01  6.66206E+00 -1.31954E+01 -1.11870E+01 -1.10665E+01 -5.26965E+01
  -1.15344E+02 -1.52267E+02 -1.23807E+02 -8.04444E+01 -5.71276E+01 -3.56874E+01 -2.64883E+01 -1.91241E+01 -1.17797E+01 -4.64218E+00
   2.22487E+00  9.68848E+00  1.78214E+01  2.70716E+01  3.80036E+01  5.11662E+01  6.64226E+01  8.28465E+01  1.02307E+02  1.30215E+02
   1.64398E+02  1.58740E+02  6.77496E+01 -6.54836E+01 -1.22301E+02 -1.01232E+02 -8.87989E+01 -7.13323E+01 -6.25396E+01 -6.19953E+01
  -6.15618E+01 -6.00511E+01 -5.96642E+01 -5.91890E+01 -5.84991E+01 -5.71605E+01 -5.49024E+01 -5.12886E+01 -4.73738E+01 -4.38286E+01
  -4.07690E+01 -3.83427E+01 -3.60356E+01 -3.37790E+01 -3.01441E+01 -2.58702E+01 -2.29003E+01 -2.24629E+01 -2.34417E+01 -2.26447E+01
  -1.86181E+01 -1.38092E+01 -1.29232E+01 -1.73770E+01 -2.18245E+01 -2.11471E+01 -1.78927E+01 -1.63123E+01 -1.75449E+01 -1.70938E+01
  -7.01389E+00  1.28453E+01  2.96526E+01  2.77377E+01  1.24369E+01  7.39671E+00  1.96638E+01  3.07222E+01  2.41857E+01  4.52839E+00
  -1.42184E+01 -2.27977E+01 -2.66398E+01 -3.04089E+01 -3.08076E+01 -3.11273E+01 -3.09098E+01 -3.01867E+01 -2.93885E+01 -2.78930E+01
  -2.54588E+01 -2.31336E+01 -2.09126E+01 -1.47807E+01 -2.58289E+00  5.48577E+00  1.15797E+00  1.43363E+00  1.04299E+01  1.03697E+01
   7.58275E+00  7.91204E+00  1.46016E+01  2.48591E+01  2.26536E+01  1.58283E+01  9.10512E+00 -2.69737E-01 -1.20835E+01 -2.49548E+01
  -3.30924E+01 -3.58296E+01 -3.05887E+01 -1.48707E+01  1.10374E+01  4.30976E+01  7.18913E+01  7.87107E+01  7.17355E+01  6.19038E+01
   3.84921E+01  2.90399E+01  2.87617E+01  3.09556E+01  3.60511E+01  3.76940E+01  3.42329E+01  2.75537E+01  1.65141E+01  3.11688E+00
  -9.95171E+00 -2.38857E+01 -3.63616E+01 -4.69829E+01 -5.64021E+01 -6.36860E+01 -6.71056E+01 -6.74404E+01 -6.78512E+01 -6.47420E+01
  -6.03276E+01 -5.58001E+01 -4.47549E+01 -2.97853E+01 -1.74451E+01 -7.14094E+00 -4.25447E+00 -1.01966E+01 -1.65383E+01 -2.61548E+01
  -3.45864E+01 -4.78969E+01 -6.04402E+01 -6.00522E+01 -6.51051E+01 -9.77145E+01 -1.15443E+02 -2.44731E+01  1.47690E+02  2.24088E+02
   1.97445E+02  1.79222E+02  1.46990E+02  1.29373E+02  1.22812E+02  1.17868E+02  1.12478E+02  1.06772E+02  1.01268E+02  9.67329E+01
   9.40676E+01  9.34631E+01  9.41498E+01  9.54459E+01  9.76970E+01  9.84139E+01  9.91484E+01  9.91051E+01  9.82601E+01  9.75260E+01
   9.53780E+01  9.30920E+01  9.06517E+01  8.84898E+01  8.63287E+01  8.38407E+01  8.12977E+01  7.88933E+01  7.61115E+01  7.27365E+01
   6.88780E+01  6.45863E+01  6.04968E+01  5.63213E+01  5.26973E+01  5.09641E+01  5.12909E+01  5.31909E+01  5.58828E+01  5.85351E+01
   6.10690E+01  6.38302E+01  6.67322E+01  6.94143E+01  7.17643E+01  7.39261E+01  7.57588E+01  7.78257E+01  8.03995E+01  8.31817E+01
   8.54148E+01  8.70209E+01  8.84469E+01  8.97924E+01  9.10735E+01  9.18574E+01  9.18167E+01  9.12223E+01  8.97301E+01  8.72117E+01
   8.45877E+01  8.19251E+01  7.82911E+01  7.40596E+01  6.98638E+01  6.51304E+01  5.85827E+01  4.97991E+01  3.93092E+01  2.93101E+01
   2.07679E+01  1.40677E+01  9.73555E+00  8.46939E+00  1.05378E+01  1.55955E+01  2.23975E+01  2.96014E+01  3.62888E+01  4.15540E+01
   4.16908E+01  3.44336E+01  2.35255E+01  1.59525E+01  1.32136E+01  1.57520E+01  2.51867E+01  3.09865E+01  3.35573E+01  3.50650E+01
   3.41823E+01  3.18879E+01  2.84013E+01  2.37676E+01  1.84097E+01  1.40107E+01  1.14739E+01  1.08343E+01  1.17255E+01  1.37949E+01
   1.68345E+01  2.02960E+01  2.42208E+01  2.81243E+01  3.16775E+01  3.49578E+01  3.79195E+01  4.07514E+01  4.34906E+01  4.64074E+01
   4.93164E+01  5.21742E+01  5.51645E+01  5.84411E+01  6.20143E+01  6.61675E+01  7.11235E+01  7.63996E+01  8.22868E+01  8.91679E+01
   9.61746E+01  1.03177E+02  1.11095E+02  1.19616E+02  1.27201E+02  1.32971E+02  1.35774E+02  1.33972E+02  1.26578E+02  1.14711E+02
   1.01052E+02  8.87294E+01  7.88111E+01  7.11288E+01  6.48101E+01  5.90839E+01  5.19145E+01  4.27180E+01  3.27402E+01  2.27930E+01
   1.36163E+01  6.16430E+00  1.25234E+00 -2.51982E+00 -5.46671E+00 -7.20886E+00 -8.26468E+00 -9.13247E+00 -1.01736E+01 -1.13617E+01
  -1.23874E+01 -1.31587E+01 -1.33845E+01 -1.35833E+01 -1.38566E+01 -1.39777E+01 -1.38347E+01 -1.39528E+01 -1.46716E+01 -1.50063E+01
  -1.46596E+01 -1.42488E+01 -1.46469E+01 -1.49658E+01 -1.48684E+01 -1.49370E+01 -1.51402E+01 -1.54450E+01 -1.53069E+01 -1.48581E+01
  -1.45768E+01 -1.48450E+01 -1.52704E+01 -1.56348E+01 -1.59433E+01 -1.58461E+01 -1.56103E+01 -1.54315E+01 -1.53501E+01 -1.51461E+01
  -1.51476E+01 -1.51553E+01 -1.50453E+01 -1.52403E+01 -1.57168E+01 -1.62619E+01 -1.63399E+01 -1.61027E+01 -1.58751E+01 -1.58629E+01
  -1.58765E+01 -1.61530E+01 -1.65445E+01 -1.63953E+01 -1.60262E+01 -1.59313E+01 -1.58775E+01 -1.58299E+01 -1.59098E+01 -1.58743E+01
  -1.57915E+01 -1.60003E+01 -1.63029E+01 -1.66713E+01 -1.68538E+01 -1.69689E+01 -1.66966E+01 -1.62306E+01 -1.55377E+01 -1.53003E+01
  -1.57036E+01 -1.63597E+01 -1.69010E+01 -1.69752E+01 -1.68006E+01 -1.66899E+01 -1.67683E+01 -1.67304E+01 -1.67735E+01 -1.71330E+01
 NY background values follow
     1.118E+01    1.122E+01    1.127E+01    1.132E+01    1.137E+01    1.142E+01    1.147E+01    1.152E+01    1.157E+01    1.162E+01
     1.167E+01    1.172E+01    1.177E+01    1.182E+01    1.187E+01    1.192E+01    1.197E+01    1.203E+01    1.208E+01    1.213E+01
     1.218E+01    1.223E+01    1.228E+01    1.233E+01    1.238E+01    1.243E+01    1.249E+01    1.254E+01    1.259E+01    1.264E+01
     1.269E+01    1.275E+01    1.280E+01    1.285E+01    1.290E+01    1.296E+01    1.301E+01    1.306E+01    1.312E+01    1.317E+01
     1.322E+01    1.328E+01    1.333E+01    1.339E+01    1.344E+01    1.349E+01    1.355E+01    1.360E+01    1.365E+01    1.371E+01
     1.376E+01    1.382E+01    1.387E+01    1.393E+01    1.398E+01    1.403E+01    1.409E+01    1.414E+01    1.420E+01    1.425E+01
     1.430E+01    1.436E+01    1.441E+01    1.446E+01    1.452E+01    1.457E+01    1.463E+01    1.468E+01    1.473E+01    1.479E+01
     1.484E+01    1.489E+01    1.494E+01    1.500E+01    1.505E+01    1.510E+01    1.515E+01    1.521E+01    1.526E+01    1.531E+01
     1.536E+01    1.542E+01    1.547E+01    1.552E+01    1.557E+01    1.562E+01    1.567E+01    1.573E+01    1.578E+01    1.583E+01
     1.588E+01    1.593E+01    1.598E+01    1.603E+01    1.608E+01    1.613E+01    1.618E+01    1.623E+01    1.628E+01    1.633E+01
     1.638E+01    1.643E+01    1.648E+01    1.653E+01    1.658E+01    1.663E+01    1.668E+01    1.673E+01    1.678E+01    1.683E+01
     1.688E+01    1.693E+01    1.698E+01    1.703E+01    1.708E+01    1.713E+01    1.718E+01    1.723E+01    1.728E+01    1.733E+01
     1.738E+01    1.743E+01    1.748E+01    1.753E+01    1.758E+01    1.763E+01    1.768E+01    1.773E+01    1.778E+01    1.783E+01
     1.788E+01    1.793E+01    1.798E+01    1.803E+01    1.809E+01    1.814E+01    1.819E+01    1.824E+01    1.829E+01    1.834E+01
     1.839E+01    1.844E+01    1.849E+01    1.854E+01    1.859E+01    1.864E+01    1.869E+01    1.874E+01    1.879E+01    1.884E+01
     1.889E+01    1.894E+01    1.899E+01    1.904E+01    1.909E+01    1.914E+01    1.919E+01    1.924E+01    1.929E+01    1.934E+01
     1.939E+01    1.944E+01    1.948E+01    1.953E+01    1.958E+01    1.963E+01    1.968E+01    1.972E+01    1.977E+01    1.982E+01
     1.987E+01    1.991E+01    1.996E+01    2.000E+01    2.005E+01    2.010E+01    2.014E+01    2.019E+01    2.023E+01    2.028E+01
     2.032E+01    2.037E+01    2.041E+01    2.045E+01    2.050E+01    2.054E+01    2.058E+01    2.063E+01    2.067E+01    2.071E+01
     2.075E+01    2.080E+01    2.084E+01    2.088E+01    2.092E+01    2.096E+01    2.100E+01    2.104E+01    2.108E+01    2.112E+01
     2.116E+01    2.120E+01    2.124E+01    2.128E+01    2.132E+01    2.136E+01    2.140E+01    2.144E+01    2.148E+01    2.152E+01
     2.156E+01    2.159E+01    2.163E+01    2.167E+01    2.171E+01    2.174E+01    2.178E+01    2.182E+01    2.185E+01    2.189E+01
     2.192E+01    2.196E+01    2.199E+01    2.203E+01    2.206E+01    2.210E+01    2.213E+01    2.216E+01    2.219E+01    2.222E+01
     2.225E+01    2.228E+01    2.231E+01    2.234E+01    2.237E+01    2.240E+01    2.242E+01    2.245E+01    2.247E+01    2.250E+01
     2.252E+01    2.254E+01    2.256E+01    2.258E+01    2.260E+01    2.262E+01    2.264E+01    2.266E+01    2.267E+01    2.269E+01
     2.270E+01    2.271E+01    2.273E+01    2.274E+01    2.275E+01    2.276E+01    2.276E+01    2.277E+01    2.278E+01    2.278E+01
     2.279E+01    2.279E+01    2.279E+01    2.279E+01    2.279E+01    2.279E+01    2.279E+01    2.278E+01    2.278E+01    2.277E+01
     2.277E+01    2.276E+01    2.275E+01    2.274E+01    2.272E+01    2.271E+01    2.269E+01    2.268E+01    2.266E+01    2.264E+01
     2.262E+01    2.260E+01    2.258E+01    2.255E+01    2.252E+01    2.250E+01    2.247E+01    2.244E+01    2.240E+01    2.237E+01
     2.233E+01    2.229E+01    2.225E+01    2.221E+01    2.217E+01    2.212E+01    2.208E+01    2.203E+01    2.198E+01    2.193E+01
     2.187E+01    2.182E+01    2.176E+01    2.170E+01    2.163E+01    2.157E+01    2.150E+01    2.143E+01    2.136E+01    2.129E+01
     2.121E+01    2.114E+01    2.106E+01    2.097E+01    2.089E+01    2.080E+01    2.071E+01    2.062E+01    2.052E+01    2.042E+01
     2.032E+01    2.022E+01    2.011E+01    2.000E+01    1.989E+01    1.977E+01    1.966E+01    1.953E+01    1.941E+01    1.928E+01
     1.915E+01    1.902E+01    1.888E+01    1.874E+01    1.860E+01    1.846E+01    1.831E+01    1.816E+01    1.800E+01    1.785E+01
     1.769E+01    1.753E+01    1.736E+01    1.719E+01    1.702E+01    1.685E+01    1.668E+01    1.650E+01    1.632E+01    1.614E+01
     1.595E+01    1.577E+01    1.558E+01    1.538E+01    1.519E+01    1.500E+01    1.480E+01    1.460E+01    1.439E+01    1.419E+01
     1.398E+01    1.378E+01    1.357E+01    1.336E+01    1.314E+01    1.293E+01    1.271E+01    1.249E+01    1.227E+01    1.205E+01
     1.183E+01    1.160E+01    1.137E+01    1.115E+01    1.092E+01    1.069E+01    1.046E+01    1.022E+01    9.991E+00    9.756E+00
     9.521E+00    9.284E+00    9.047E+00    8.808E+00    8.569E+00    8.329E+00    8.088E+00    7.846E+00    7.604E+00    7.361E+00
     7.118E+00    6.874E+00    6.630E+00    6.385E+00    6.139E+00    5.894E+00    5.648E+00    5.401E+00    5.154E+00    4.907E+00
     4.660E+00    4.412E+00    4.164E+00    3.916E+00    3.667E+00    3.419E+00    3.170E+00    2.921E+00    2.672E+00    2.423E+00
     2.174E+00    1.925E+00    1.676E+00    1.427E+00    1.178E+00    9.289E-01    6.801E-01    4.314E-01    1.828E-01   -6.553E-02
    -3.138E-01   -5.618E-01   -8.096E-01   -1.057E+00   -1.305E+00   -1.552E+00   -1.799E+00   -2.046E+00   -2.292E+00   -2.539E+00
    -2.785E+00   -3.031E+00   -3.277E+00   -3.523E+00   -3.768E+00   -4.014E+00   -4.259E+00   -4.504E+00   -4.749E+00   -4.993E+00
    -5.238E+00   -5.482E+00   -5.727E+00   -5.971E+00   -6.215E+00   -6.459E+00   -6.702E+00   -6.946E+00   -7.189E+00   -7.433E+00
    -7.676E+00   -7.919E+00   -8.162E+00   -8.405E+00   -8.647E+00   -8.890E+00   -9.132E+00   -9.375E+00   -9.617E+00   -9.859E+00
    -1.010E+01   -1.034E+01   -1.059E+01   -1.083E+01   -1.107E+01   -1.131E+01   -1.155E+01   -1.179E+01   -1.204E+01   -1.228E+01
    -1.252E+01   -1.276E+01   -1.300E+01   -1.324E+01   -1.349E+01   -1.373E+01   -1.397E+01   -1.421E+01   -1.445E+01   -1.469E+01
 Mac      Conc. = 2.89E-04
  -9.61545E+00 -1.00800E+01 -1.02443E+01 -1.02891E+01 -1.05129E+01 -1.13712E+01 -1.30320E+01 -1.51270E+01 -1.71284E+01 -1.86420E+01
  -1.93584E+01 -1.94349E+01 -1.92002E+01 -1.91581E+01 -1.99862E+01 -2.20883E+01 -2.44621E+01 -2.39179E+01 -1.94837E+01 -1.32765E+01
  -8.53159E+00 -4.78995E+00 -9.89403E-01  9.08621E-01  1.36340E+00  2.01909E+00  3.26047E+00  5.08988E+00  7.36299E+00  9.59789E+00
   1.13148E+01  1.24248E+01  1.33890E+01  1.37895E+01  1.33865E+01  1.25504E+01  1.25279E+01  1.44131E+01  1.76440E+01  2.04424E+01
   2.11782E+01  2.04078E+01  1.99673E+01  2.08276E+01  2.25474E+01  2.42267E+01  2.49660E+01  2.44743E+01  2.34373E+01  2.19632E+01
   2.02748E+01  1.87928E+01  1.78536E+01  1.74613E+01  1.70676E+01  1.68856E+01  1.71228E+01  1.83067E+01  2.01976E+01  2.18071E+01
   2.31575E+01  2.47855E+01  2.59125E+01  2.54989E+01  2.43880E+01  2.31794E+01  2.21057E+01  2.16958E+01  2.13403E+01  2.09235E+01
   2.18448E+01  2.46161E+01  2.82012E+01  3.05060E+01  3.16173E+01  3.19267E+01  3.14990E+01  3.05492E+01  2.95005E+01  2.86982E+01
   2.82579E+01  2.78384E+01  2.75632E+01  2.78861E+01  2.88445E+01  2.99639E+01  3.09067E+01  3.19715E+01  3.27941E+01  3.32359E+01
   3.37378E+01  3.40914E+01  3.44404E+01  3.43760E+01  3.39000E+01  3.24376E+01  3.00098E+01  2.71528E+01  2.43953E+01  2.18563E+01
   2.02558E+01  1.87429E+01  1.63801E+01  1.31460E+01  9.13430E+00  3.43140E+00 -4.06643E+00 -1.16078E+01 -1.67237E+01 -1.80640E+01
