 
 $NMID
 ID=''
 FMTDAT='(2E13.5)'
 TRAMP=   1.00000E+0
 VOLUME=   1.00000E+0
 $END
   2.25373E+4  -6.38215E+3
   1.54967E+4  -2.71192E+4
  -2.23452E+4  -1.22368E+4
  -1.42636E+4   3.09135E+4
   2.14495E+4   1.05738E+4
   9.99931E+3  -2.54557E+4
  -1.55310E+4  -1.69677E+3
  -2.74668E+3   1.94442E+4
   1.02473E+4  -1.42433E+2
  -1.07150E+3  -7.47336E+3
  -6.31062E+3   3.04824E+3
  -9.11285E+2   1.55329E+3
   1.18042E+3  -2.49844E+3
  -3.19451E+2  -6.77305E+2
  -1.08151E+3  -1.24007E+3
   7.97924E+2  -1.53793E+3
   2.05591E+3   3.42554E+2
   1.59131E+2   8.53778E+2
  -9.87435E+2   8.13752E+2
   5.45494E+2  -4.79397E+2
   1.46668E+2  -1.65767E+3
   8.66204E+2   4.21749E+2
   1.50451E+3   2.23694E+3
  -1.76319E+3  -3.62275E+2
  -1.11031E+3  -1.70907E+3
   3.13332E+3   1.04073E+3
   7.87662E+2   2.63448E+3
  -3.32237E+3  -3.81599E+2
  -5.83288E+2  -2.93191E+3
   2.02294E+3   1.56677E+1
  -3.19462E+2   2.43924E+3
  -1.91253E+3  -8.78024E+1
  -7.26157E+2  -2.22375E+3
   2.16528E+2  -1.49934E+3
   3.11492E+2  -1.12869E+3
   1.50065E+3  -2.54516E+2
   1.10321E+3   1.57443E+3
  -6.09918E+2   8.20005E+2
  -1.23638E+3  -5.76036E+2
  -1.24299E+1   2.47512E+1
  -3.61735E+2   3.66205E+2
  -1.08529E+3  -6.85563E+2
   2.94787E+2  -7.32533E+2
   1.80195E+3  -7.48102E+1
   1.25504E+3   6.71312E+2
  -3.40959E+2   1.43076E+3
  -1.57635E+3   1.92955E+3
  -1.34115E+3  -3.01094E+2
  -7.45815E+2  -1.66084E+3
  -1.10876E+2  -8.53883E+2
  -3.67637E+1  -1.62752E+2
   6.25901E+2  -5.32819E+2
   8.55773E+2  -1.24154E+2
   1.02681E+2   7.21572E+2
   3.19218E+2   4.34886E+2
   6.17665E+1   3.45116E+2
  -1.09290E+3   5.92153E+2
  -7.54805E+2  -3.75395E+2
   1.09577E+3  -1.33250E+3
   1.66445E+3   9.03489E+1
   3.22115E+2   1.37849E+3
  -8.00908E+1   1.01486E+3
   5.09122E+2   2.65061E+2
  -5.84474E+2   1.09332E+3
  -1.94569E+3   5.42586E+2
  -1.42481E+3  -1.37497E+3
   8.04659E+2  -1.98023E+3
   1.53646E+3  -6.24076E+2
   1.14584E+3   5.80784E+2
   1.22604E+1   4.32220E+1
   8.84490E+1  -5.62841E+2
   5.35742E+2  -3.20526E+1
   6.75936E+2   2.74725E+2
   2.81818E+2   2.87188E+2
   2.26720E+2   3.04738E+2
   9.79063E+1  -1.53539E+2
  -4.59638E+1  -2.54782E+2
  -1.84196E+2  -1.38192E+2
   1.61560E+2   3.81281E+2
  -2.81662E+2   6.99124E+1
  -6.62409E+2  -7.40783E+2
  -5.48254E+1  -1.06335E+3
   5.69856E+2  -3.43915E+2
  -2.61177E+1   4.23043E+2
  -5.72313E+2  -2.77384E+2
   3.32064E+2  -1.05826E+3
   9.84210E+2  -4.08614E+2
   3.07594E+2   4.70286E+2
  -3.76547E+2   3.42497E+2
   2.68997E+2  -4.76782E+2
   7.12094E+2  -1.03530E+2
   2.31034E+1   7.67493E+2
  -2.87897E+2   6.60561E+2
  -6.09985E+2   3.96536E+2
  -6.82925E+2  -1.70185E+2
  -9.88060E+1  -5.90938E+2
   2.61100E+2  -5.53251E+2
   3.89717E+2   4.03557E+1
  -9.57675E+1   1.91380E+2
   1.37602E+2  -2.10353E+2
   5.45453E+2  -1.94052E+2
   3.30289E+2   7.13221E+2
  -2.63665E+2   7.24180E+2
  -5.70972E+2  -3.05669E+2
   1.93131E+2  -5.50769E+2
   6.13227E+2   3.33066E+2
   2.27852E+2   9.89762E+2
  -4.12522E+2   4.87842E+2
  -5.08409E+2  -6.72256E+2
   3.43976E+2  -7.10901E+2
   6.89567E+2  -2.49552E+2
   6.07348E+2   2.62578E+2
   3.05686E+2   7.98940E+2
   8.72550E+1   6.00701E+2
   3.83583E+2   5.50963E+2
   1.21373E+1   3.97220E+2
  -3.26707E+2   2.93274E+2
  -5.04656E+2  -1.51500E+2
  -3.29719E+2  -5.70785E+2
   3.57065E+2  -7.42013E+2
   6.49238E+2  -2.84301E+2
   5.01472E+2   2.13615E+2
   2.93734E+2   1.21271E+2
   1.40623E+2   1.06053E+2
  -4.62492E+1   3.20783E+2
  -8.02597E+1   9.64204E+1
   6.03375E+1  -2.05737E+2
   8.51308E+1  -2.91206E+2
   4.21588E+2  -2.00237E+2
   5.15242E+2   9.17806E+1
   9.07618E+1   3.56145E+2
  -4.18521E+2   1.38992E+2
  -2.08170E+2  -1.89274E+2
  -8.92294E+1  -2.30995E+2
  -9.12638E+1  -8.39350E+1
  -1.48033E+2  -1.80530E+2
   2.32563E+2  -2.29791E+2
   3.75174E+2  -1.75101E+2
   1.75968E+2   2.61654E+2
   6.82210E+1   2.85737E+2
  -7.42723E+2   1.39089E+2
  -3.53954E+2  -3.41077E+2
   3.40341E+2  -5.61881E+2
   3.88188E+2  -7.84192E+1
   1.18447E+2   5.16822E+2
  -1.72804E+2   2.11229E+2
  -2.30491E+2   1.10487E+2
  -1.81268E+2  -1.18773E+1
   6.68213E+1   9.84522E+1
  -1.97646E+2   1.16362E+2
  -1.80688E+2  -1.17083E+2
  -2.80401E+2  -4.66823E+2
   4.26653E+2  -1.61434E+2
   1.14451E+2   4.00989E+2
  -2.12293E+2   2.11249E+2
  -2.68297E+2   1.51476E+2
  -1.42756E+2   1.97282E+2
   1.55689E+2   1.36061E+2
  -1.40767E+2   1.70487E+2
  -1.79294E+2   9.60788E+1
   2.83545E+1   2.94446E+2
  -1.48680E+2   3.68333E+2
  -1.42057E+2   3.73964E+2
  -4.75267E+2   1.91861E+2
  -8.63022E+1  -2.54648E+2
   7.47956E+1  -4.04913E+2
   2.21810E+2  -1.62960E+2
  -9.20585E+0   2.53104E+2
   4.13599E+1   1.75550E+2
  -1.89193E+2   1.26604E+2
   1.82959E+0   3.04301E+2
   8.44552E+1   3.90841E+1
   1.70837E+2   4.24378E+2
  -1.46429E+2   1.09820E+2
  -8.25077E+1   2.61392E+2
   9.86331E+0   8.59432E+1
  -2.37054E+1   3.18646E+2
  -2.54853E+2   3.64575E+2
  -3.02265E+2   1.70523E+2
   2.14746E+1  -1.19297E+2
   6.66167E+1   7.36771E+1
   2.38703E+2   2.29216E+2
  -2.34138E+2   1.86756E+2
  -6.73095E+1   3.21331E+2
   1.26772E+1   2.15077E+2
  -1.35874E+2   1.25173E+2
   1.83559E+2   3.85533E+0
  -1.23779E+2   9.53352E+1
   1.28112E+2  -2.83298E+2
   1.31769E+2  -4.86601E+1
   2.58594E+2   1.48052E+2
   5.26224E+1   3.08400E+2
  -7.12280E+1   1.92831E+2
   1.40258E+0   2.99560E+2
  -8.13647E+1  -1.80686E+2
   1.85491E+2   1.22493E+2
   4.45290E+1   2.42745E+2
   1.36606E+2  -7.81005E+1
   5.02247E+1   9.57453E+1
   3.39022E+1   2.33255E+2
  -1.27397E+2   1.75095E+2
  -1.14168E+2   2.79619E+0
   1.11808E+2  -1.59629E+2
   8.83689E+1  -2.21206E+1
   2.36747E+2   3.86867E+2
   2.65151E+1  -1.62067E+1
  -2.31886E+2   1.28832E+2
  -2.84206E+2  -1.69550E+2
   2.39752E+1   1.33118E+2
   1.74613E+0   2.19081E+2
  -2.43213E+2   2.04953E+2
  -2.66754E+2   8.31086E+1
  -1.52537E+2   1.36622E+1
   1.81480E+2   1.80634E+2
  -8.30510E+1   1.92670E+2
  -9.67635E+1   6.58601E+1
  -9.51764E+1  -1.00063E+2
  -1.19213E+2   2.00064E+2
  -2.27080E+1  -9.31755E+1
  -1.55617E+1   1.95806E+2
  -1.42356E+2  -1.34458E+2
   1.06542E+2   1.00895E+2
  -6.75279E+1   1.44996E+2
   1.05827E+2   2.63377E+2
   1.72007E+2   1.13997E+2
  -2.23555E+2   1.76165E+2
  -1.18523E+2   1.45282E+2
   8.94349E+1   2.74117E+0
   9.00495E+1   1.34706E+2
  -1.33622E+2   4.93746E+1
  -2.04248E+2   9.36119E+1
  -5.88986E+1  -1.59496E+2
  -1.94223E+2  -2.77460E+1
  -3.26978E+1  -3.63923E+1
   8.17321E+1  -3.62569E+1
  -1.21133E+2  -1.78043E+2
   1.46344E+2   1.20129E+2
   6.10557E+1   3.11872E+2
  -3.23554E+0   5.12673E+1
  -2.18563E+2   1.80737E+2
   8.50451E+1  -1.08280E+2
  -5.91141E+0   1.65020E+2
   9.47397E+1   1.43461E+2
   1.66428E+2   1.77984E+2
  -8.86045E+1   1.57665E+2
   1.07051E+2   3.52858E+1
   2.35328E+2  -2.05316E+2
   2.18781E+2  -7.84689E+1
  -3.48009E+1   7.60947E+0
  -2.97793E+1  -5.69904E+1
   1.15705E+2   9.94258E+1
   2.20402E+2   2.35468E+2
  -2.75599E+1   1.29803E+2
  -1.81365E+2  -1.46934E+2
   1.79887E+1   2.15760E+2
   1.43109E+2  -4.70849E+1
   1.72132E+1   9.95702E+1
   7.30006E+1   2.39068E+2
  -2.11107E+2  -1.71918E+1
   9.75382E+1   3.11391E+0
  -1.98873E+2   4.58525E+1
   3.30296E+2   1.37298E+2
   8.79198E+1   8.15786E+1
   1.25617E+2   5.14925E+1
   1.15442E+0  -6.91103E+1
  -9.37742E+1   1.10708E+2
  -3.73040E+1   2.23381E+2
  -3.53110E+1   1.37331E+2
  -4.21657E+1   1.16628E+1
   2.14173E+2  -2.68246E+1
   6.71756E+1  -1.40295E+2
  -4.13339E+1   1.05599E+2
  -1.55949E+2  -1.57327E+2
   1.40400E+2   2.04351E+2
   2.05251E+2   1.98241E+1
   1.58449E+2   1.12031E+2
   1.91527E+2   1.38697E+2
   2.01734E+2   4.45695E+1
   7.41599E+1   3.05426E+1
   1.43489E+2   2.24719E+2
   9.32702E+1  -5.66360E+1
  -3.12388E+1   2.30436E+2
  -8.48951E+1   4.51970E+1
  -4.11743E+1   5.84553E+1
   3.49602E+1  -4.91073E+1
   2.36730E+2  -1.59452E+2
   6.74349E+1   2.08056E+2
   3.35664E+2  -6.49515E+1
   3.08571E+2  -1.98788E+2
   1.32332E+2   1.84005E+2
   1.06673E+0  -3.67585E+2
   2.43900E+0   3.21057E+2
   2.83724E+2   5.31177E+1
   1.34140E+2  -1.69248E+2
  -1.64552E+2  -2.39680E+1
  -1.80870E+2   9.62475E+1
  -4.46172E+1   2.32459E+2
   5.18874E+1   2.52727E+2
   4.83158E+1   1.09403E+2
  -1.54983E+2  -3.75469E+1
   6.09222E+1   9.87662E+0
   6.26003E+1   5.72317E+0
   2.01455E+1  -1.36397E+2
  -1.33127E+2  -1.48504E+2
   1.11950E+2  -3.46656E+1
   3.28909E+1   9.65568E+1
   1.34465E+2   2.31213E+1
   2.36067E+1   8.70674E+0
  -7.51742E+1  -1.85165E+1
   1.25697E+2   1.67144E+2
   8.24321E+1  -3.31770E+1
   1.08869E+2   1.44507E+2
   2.53717E+2  -1.42100E+2
  -1.65071E+1   6.36377E+1
  -8.90567E+1  -1.17777E+2
   1.52354E+2  -3.72845E+1
  -4.96005E+1  -1.81974E+1
   1.52433E+1   7.03895E+1
   3.76834E+1   5.73522E+1
   2.38387E+2   2.02441E+2
  -7.49484E+1  -1.47847E+2
  -2.72313E+1   6.48960E+1
  -1.77322E+2  -4.92589E+1
   2.50287E+2   3.15852E+1
   2.24473E+1   8.21866E+1
   2.90354E+2   1.62633E+1
  -3.51225E+2   2.85116E+1
   2.10246E+2   1.15719E+2
  -8.64735E+1   1.33969E+2
   2.13891E+1  -2.28933E+1
   1.07022E+2   4.78485E+1
   2.29347E+2   6.96503E+1
  -1.34079E-1   8.89262E-1
   8.53121E+0   1.94703E+2
   2.39048E+1  -9.90819E+1
   1.03312E+2   5.50564E+1
   1.23371E+1  -1.19819E+2
  -1.15274E+2  -1.68644E+2
   1.18293E+2  -1.04471E+2
   1.39250E+2   1.21136E+2
   1.15378E+2   1.35124E+2
  -6.16505E+1   1.18346E+2
  -2.61977E+1  -6.81933E+1
  -2.49093E+0   3.64813E+1
  -2.88314E+1  -1.88353E+2
   3.55166E+2  -1.44943E+2
   1.30987E+2   7.02241E+1
   8.55653E+1  -1.07820E+2
  -1.77618E+1   1.95963E+1
  -5.02038E+1   6.34407E+1
  -1.08991E+2   1.83116E+2
   1.17385E+1  -7.94485E+0
   1.14330E+1  -1.10142E+2
  -2.38377E+2  -1.78943E+2
   2.36754E+1   3.01660E+1
   8.25941E+1   2.03233E+1
   2.04739E+2   3.10904E+1
   8.66814E+1  -1.71710E+2
   1.06269E+2  -1.01629E+1
  -2.10045E+2  -8.26113E+0
  -3.28970E+1  -6.93589E+1
   1.61503E+2  -4.38843E+1
   1.27694E+2  -2.73223E+1
   1.29839E+2  -1.12956E+2
  -6.36578E+1  -9.90757E+1
   1.80827E+2  -2.92144E+1
  -8.11469E+1  -5.57124E+1
