 
 $NMID
 ID=''
 FMTDAT='(2E13.5)'
 TRAMP=   1.00000E+0
 VOLUME=   1.00000E+0
 $END
  -3.19024E+5   5.74068E+5
  -1.27775E+6   1.15255E+6
  -1.07573E+6   1.25913E+6
  -1.08888E+6   1.06757E+6
  -1.23463E+6   1.04591E+6
  -1.22500E+6   1.05060E+6
  -1.22245E+6   9.84774E+5
  -1.25336E+6   9.83626E+5
  -1.21314E+6   9.58214E+5
  -1.23475E+6   8.85370E+5
  -1.28144E+6   8.81365E+5
  -1.25926E+6   8.79194E+5
  -1.25072E+6   8.41802E+5
  -1.25534E+6   8.32063E+5
  -1.23874E+6   8.06019E+5
  -1.24910E+6   7.71517E+5
  -1.26964E+6   7.70792E+5
  -1.26068E+6   7.45833E+5
  -1.26716E+6   6.97460E+5
  -1.27932E+6   6.72818E+5
  -1.27821E+6   6.39984E+5
  -1.28949E+6   6.04770E+5
  -1.29359E+6   5.90376E+5
  -1.28520E+6   5.63526E+5
  -1.28658E+6   5.27914E+5
  -1.28419E+6   5.16213E+5
  -1.27727E+6   4.99640E+5
  -1.27782E+6   4.82349E+5
  -1.27183E+6   4.71168E+5
  -1.26105E+6   4.53290E+5
  -1.26321E+6   4.27112E+5
  -1.26165E+6   4.07667E+5
  -1.25776E+6   3.82568E+5
  -1.25815E+6   3.58232E+5
  -1.25282E+6   3.37327E+5
  -1.24791E+6   3.11279E+5
  -1.25110E+6   2.84540E+5
  -1.24825E+6   2.60001E+5
  -1.23927E+6   2.39007E+5
  -1.23505E+6   2.22079E+5
  -1.22759E+6   2.05942E+5
  -1.21842E+6   1.87479E+5
  -1.21111E+6   1.74375E+5
  -1.20516E+6   1.63106E+5
  -1.19665E+6   1.48255E+5
  -1.19001E+6   1.34280E+5
  -1.18316E+6   1.17951E+5
  -1.17606E+6   9.61831E+4
  -1.16700E+6   7.61610E+4
  -1.15838E+6   5.87584E+4
  -1.15061E+6   4.01104E+4
  -1.14329E+6   1.99861E+4
  -1.13494E+6   1.38671E+3
  -1.12703E+6  -1.71485E+4
  -1.11822E+6  -3.44661E+4
  -1.10851E+6  -5.04341E+4
  -1.09827E+6  -6.57749E+4
  -1.08788E+6  -7.97834E+4
  -1.07733E+6  -9.23430E+4
  -1.06851E+6  -1.05878E+5
  -1.05944E+6  -1.19355E+5
  -1.04915E+6  -1.33011E+5
  -1.03872E+6  -1.47840E+5
  -1.02761E+6  -1.63305E+5
  -1.01552E+6  -1.78786E+5
  -1.00259E+6  -1.92900E+5
  -9.90110E+5  -2.06053E+5
  -9.78019E+5  -2.19306E+5
  -9.66875E+5  -2.32850E+5
  -9.55773E+5  -2.46406E+5
  -9.42823E+5  -2.58925E+5
  -9.30581E+5  -2.69506E+5
  -9.19463E+5  -2.79550E+5
  -9.07654E+5  -2.91124E+5
  -8.94309E+5  -3.02430E+5
  -8.81648E+5  -3.13047E+5
  -8.69340E+5  -3.23496E+5
  -8.56217E+5  -3.34895E+5
  -8.41741E+5  -3.46026E+5
  -8.27646E+5  -3.57413E+5
  -8.12792E+5  -3.68842E+5
  -7.98718E+5  -3.78670E+5
  -7.84395E+5  -3.87931E+5
  -7.70146E+5  -3.97429E+5
  -7.55461E+5  -4.06690E+5
  -7.41182E+5  -4.14096E+5
  -7.27735E+5  -4.21115E+5
  -7.14545E+5  -4.28506E+5
  -7.00882E+5  -4.34790E+5
  -6.86962E+5  -4.39848E+5
  -6.73333E+5  -4.45617E+5
  -6.59960E+5  -4.52385E+5
  -6.45726E+5  -4.59254E+5
  -6.30743E+5  -4.65018E+5
  -6.15684E+5  -4.70767E+5
  -6.01054E+5  -4.76334E+5
  -5.87086E+5  -4.82349E+5
  -5.72735E+5  -4.88536E+5
  -5.57904E+5  -4.93738E+5
  -5.43954E+5  -4.98008E+5
  -5.30482E+5  -5.02623E+5
  -5.16582E+5  -5.07416E+5
  -5.02252E+5  -5.11345E+5
  -4.88309E+5  -5.14170E+5
  -4.75724E+5  -5.16867E+5
  -4.63652E+5  -5.19487E+5
  -4.50865E+5  -5.22801E+5
  -4.36948E+5  -5.25967E+5
  -4.23437E+5  -5.28117E+5
  -4.11343E+5  -5.29524E+5
  -3.99172E+5  -5.32047E+5
  -3.86306E+5  -5.35334E+5
  -3.73022E+5  -5.37753E+5
  -3.59780E+5  -5.40169E+5
  -3.46800E+5  -5.42337E+5
  -3.34467E+5  -5.44379E+5
  -3.21284E+5  -5.46148E+5
  -3.08724E+5  -5.47232E+5
  -2.96579E+5  -5.47726E+5
  -2.85298E+5  -5.48151E+5
  -2.74541E+5  -5.49319E+5
  -2.63043E+5  -5.50515E+5
  -2.51358E+5  -5.51244E+5
  -2.40212E+5  -5.51814E+5
  -2.28289E+5  -5.52198E+5
  -2.17030E+5  -5.51807E+5
  -2.05871E+5  -5.51206E+5
  -1.95108E+5  -5.51167E+5
  -1.84170E+5  -5.50925E+5
  -1.73338E+5  -5.50832E+5
  -1.61865E+5  -5.50275E+5
  -1.50422E+5  -5.49456E+5
  -1.39342E+5  -5.47975E+5
  -1.29306E+5  -5.46948E+5
  -1.18770E+5  -5.45416E+5
  -1.08120E+5  -5.43557E+5
  -9.80997E+4  -5.41655E+5
  -8.86123E+4  -5.39965E+5
  -7.84511E+4  -5.38463E+5
  -6.81973E+4  -5.36195E+5
  -5.81106E+4  -5.33304E+5
  -4.90750E+4  -5.30317E+5
  -4.02518E+4  -5.27238E+5
  -3.10922E+4  -5.24888E+5
  -2.21443E+4  -5.22223E+5
  -1.31769E+4  -5.18662E+5
  -4.42074E+3  -5.14746E+5
   4.01793E+3  -5.11027E+5
   1.22091E+4  -5.07089E+5
   1.98465E+4  -5.02970E+5
   2.74891E+4  -4.98973E+5
   3.45735E+4  -4.94875E+5
   4.18008E+4  -4.90938E+5
   4.86715E+4  -4.87079E+5
   5.63903E+4  -4.82843E+5
   6.34771E+4  -4.77935E+5
   6.99022E+4  -4.73450E+5
   7.66065E+4  -4.68835E+5
   8.31305E+4  -4.64190E+5
   8.91818E+4  -4.59131E+5
   9.51681E+4  -4.54525E+5
   1.01575E+5  -4.49632E+5
   1.07454E+5  -4.44636E+5
   1.12964E+5  -4.39116E+5
   1.18378E+5  -4.33757E+5
   1.23205E+5  -4.28962E+5
   1.28435E+5  -4.24023E+5
   1.33972E+5  -4.19170E+5
   1.38818E+5  -4.14039E+5
   1.43518E+5  -4.08538E+5
   1.47920E+5  -4.03431E+5
   1.52177E+5  -3.98215E+5
   1.56797E+5  -3.93210E+5
   1.61200E+5  -3.87656E+5
   1.65053E+5  -3.82580E+5
   1.69690E+5  -3.77418E+5
   1.73859E+5  -3.72339E+5
   1.77991E+5  -3.66535E+5
   1.81956E+5  -3.60577E+5
   1.85364E+5  -3.55252E+5
   1.89116E+5  -3.50260E+5
   1.93168E+5  -3.45178E+5
   1.96943E+5  -3.39380E+5
   2.00394E+5  -3.33865E+5
   2.03683E+5  -3.28621E+5
   2.06711E+5  -3.23091E+5
   2.09398E+5  -3.17463E+5
   2.12058E+5  -3.12510E+5
   2.14600E+5  -3.07302E+5
   2.17657E+5  -3.02807E+5
   2.20488E+5  -2.97666E+5
   2.23697E+5  -2.92147E+5
   2.26087E+5  -2.86434E+5
   2.28465E+5  -2.80712E+5
   2.30498E+5  -2.75424E+5
   2.32922E+5  -2.70030E+5
   2.35217E+5  -2.64803E+5
   2.37572E+5  -2.59469E+5
   2.39436E+5  -2.54068E+5
   2.41780E+5  -2.48472E+5
   2.43943E+5  -2.42776E+5
   2.45600E+5  -2.36955E+5
   2.46604E+5  -2.31515E+5
   2.48071E+5  -2.26603E+5
   2.49880E+5  -2.21350E+5
   2.51278E+5  -2.15758E+5
   2.52322E+5  -2.10155E+5
   2.53382E+5  -2.04610E+5
   2.54357E+5  -1.99497E+5
   2.55524E+5  -1.93993E+5
   2.56276E+5  -1.88152E+5
   2.56541E+5  -1.82876E+5
   2.57146E+5  -1.77910E+5
   2.58321E+5  -1.72911E+5
   2.58808E+5  -1.67019E+5
   2.58940E+5  -1.61606E+5
   2.59027E+5  -1.56106E+5
   2.58551E+5  -1.51589E+5
   2.58720E+5  -1.46427E+5
   2.58434E+5  -1.41426E+5
   2.58231E+5  -1.36445E+5
   2.57944E+5  -1.31639E+5
   2.57435E+5  -1.27159E+5
   2.57252E+5  -1.22134E+5
   2.56810E+5  -1.17059E+5
   2.55630E+5  -1.12018E+5
   2.54800E+5  -1.07852E+5
   2.53847E+5  -1.03509E+5
   2.53291E+5  -9.89015E+4
   2.52293E+5  -9.42337E+4
   2.51054E+5  -8.97852E+4
   2.49713E+5  -8.53086E+4
   2.48669E+5  -8.13660E+4
   2.47474E+5  -7.73390E+4
   2.46074E+5  -7.29785E+4
   2.44545E+5  -6.93699E+4
   2.43283E+5  -6.54717E+4
   2.42061E+5  -6.15305E+4
   2.40544E+5  -5.77346E+4
   2.38905E+5  -5.40170E+4
   2.37175E+5  -5.08069E+4
   2.35893E+5  -4.70264E+4
   2.34360E+5  -4.34515E+4
   2.32774E+5  -3.94250E+4
   2.30730E+5  -3.62942E+4
   2.28883E+5  -3.27461E+4
   2.27444E+5  -2.94446E+4
   2.25306E+5  -2.60158E+4
   2.23643E+5  -2.29365E+4
   2.21602E+5  -1.98799E+4
   2.20229E+5  -1.69187E+4
   2.18470E+5  -1.34397E+4
   2.16484E+5  -1.04386E+4
   2.14303E+5  -7.59290E+3
   2.12352E+5  -4.62225E+3
   2.10422E+5  -1.86980E+3
   2.08610E+5   7.77466E+2
   2.06867E+5   4.04513E+3
   2.04652E+5   7.14466E+3
   2.02734E+5   9.82190E+3
   2.00810E+5   1.27808E+4
   1.98430E+5   1.57925E+4
   1.95936E+5   1.85479E+4
   1.93639E+5   2.09227E+4
   1.91475E+5   2.31143E+4
   1.89879E+5   2.60116E+4
   1.87725E+5   2.87477E+4
   1.85205E+5   3.12742E+4
   1.82835E+5   3.35868E+4
   1.80639E+5   3.59536E+4
   1.78203E+5   3.81854E+4
   1.75963E+5   4.04457E+4
   1.73551E+5   4.25528E+4
   1.71392E+5   4.49875E+4
   1.68904E+5   4.68643E+4
   1.66871E+5   4.92128E+4
   1.64197E+5   5.14780E+4
   1.61572E+5   5.34678E+4
   1.59070E+5   5.51465E+4
   1.56983E+5   5.71531E+4
   1.54448E+5   5.92467E+4
   1.51837E+5   6.09830E+4
   1.49330E+5   6.25420E+4
   1.46992E+5   6.42953E+4
   1.44457E+5   6.62604E+4
   1.42038E+5   6.77648E+4
   1.39251E+5   6.91891E+4
   1.36790E+5   7.03403E+4
   1.34665E+5   7.16165E+4
   1.32406E+5   7.33275E+4
   1.29622E+5   7.47866E+4
   1.27217E+5   7.63922E+4
   1.24686E+5   7.75848E+4
   1.22142E+5   7.85155E+4
   1.20016E+5   7.99147E+4
   1.17328E+5   8.12084E+4
   1.14998E+5   8.21312E+4
   1.12798E+5   8.30456E+4
   1.10375E+5   8.41031E+4
   1.07874E+5   8.53208E+4
   1.05628E+5   8.60653E+4
   1.03422E+5   8.66759E+4
   1.01202E+5   8.76460E+4
   9.87788E+4   8.87043E+4
   9.65790E+4   8.95430E+4
   9.39706E+4   9.01373E+4
   9.16385E+4   9.05927E+4
   8.95477E+4   9.11479E+4
   8.74111E+4   9.20226E+4
   8.52072E+4   9.25266E+4
   8.31284E+4   9.31726E+4
   8.09084E+4   9.36957E+4
   7.86363E+4   9.40945E+4
   7.63326E+4   9.45681E+4
   7.42751E+4   9.47888E+4
   7.21019E+4   9.49874E+4
   7.00610E+4   9.55019E+4
   6.80864E+4   9.57733E+4
   6.59565E+4   9.58672E+4
   6.37765E+4   9.61864E+4
   6.18357E+4   9.63186E+4
   5.97874E+4   9.64634E+4
   5.76583E+4   9.66295E+4
   5.55813E+4   9.63980E+4
   5.36979E+4   9.65421E+4
   5.17962E+4   9.62774E+4
   5.00656E+4   9.63957E+4
   4.78872E+4   9.63193E+4
   4.57106E+4   9.63162E+4
   4.40784E+4   9.60896E+4
   4.21990E+4   9.58391E+4
   4.04009E+4   9.55741E+4
   3.84954E+4   9.54253E+4
   3.67594E+4   9.50235E+4
   3.51666E+4   9.48982E+4
   3.31099E+4   9.47342E+4
   3.16543E+4   9.41798E+4
   2.93642E+4   9.36057E+4
   2.77278E+4   9.32288E+4
   2.59930E+4   9.24418E+4
   2.46685E+4   9.24448E+4
   2.29368E+4   9.18281E+4
   2.12207E+4   9.16937E+4
   1.94011E+4   9.06699E+4
   1.78291E+4   9.02512E+4
   1.60982E+4   8.96293E+4
   1.45823E+4   8.89862E+4
   1.30194E+4   8.81238E+4
   1.16414E+4   8.74798E+4
   1.05029E+4   8.68838E+4
   8.49012E+3   8.63573E+4
   7.14548E+3   8.56773E+4
   5.54037E+3   8.50574E+4
   4.30341E+3   8.39982E+4
   3.01365E+3   8.32355E+4
   1.52330E+3   8.25646E+4
   4.14116E+1   8.14549E+4
  -8.97407E+2   8.07131E+4
  -2.41116E+3   8.02588E+4
  -3.63056E+3   7.94869E+4
  -4.81219E+3   7.85499E+4
  -6.25377E+3   7.76248E+4
  -7.39678E+3   7.66530E+4
  -8.26679E+3   7.60229E+4
  -9.63255E+3   7.51133E+4
  -1.08981E+4   7.40836E+4
  -1.17142E+4   7.31353E+4
