 
 $NMID
 ID=''
 FMTDAT='(2E13.5)'
 TRAMP=   1.00000E+0
 VOLUME=   1.00000E+0
 $END
   6.93561E+5   3.07929E+5
   1.39266E+6   1.45328E+6
   1.51208E+6   1.29541E+6
   1.38503E+6   1.29336E+6
   1.39446E+6   1.35005E+6
   1.36961E+6   1.30161E+6
   1.32016E+6   1.33273E+6
   1.36112E+6   1.36493E+6
   1.33155E+6   1.31336E+6
   1.26068E+6   1.35049E+6
   1.28095E+6   1.38884E+6
   1.26644E+6   1.34694E+6
   1.20851E+6   1.35772E+6
   1.20431E+6   1.38749E+6
   1.18392E+6   1.36875E+6
   1.14197E+6   1.37163E+6
   1.13409E+6   1.39228E+6
   1.11058E+6   1.38859E+6
   1.07770E+6   1.39659E+6
   1.07126E+6   1.40039E+6
   1.04470E+6   1.39576E+6
   1.01534E+6   1.40637E+6
   1.00533E+6   1.41015E+6
   9.80971E+5   1.40597E+6
   9.49415E+5   1.41353E+6
   9.40202E+5   1.41111E+6
   9.18349E+5   1.41058E+6
   8.92083E+5   1.41982E+6
   8.72950E+5   1.41735E+6
   8.52249E+5   1.41194E+6
   8.31129E+5   1.42093E+6
   8.14924E+5   1.41906E+6
   7.90927E+5   1.41540E+6
   7.72340E+5   1.41955E+6
   7.58109E+5   1.41509E+6
   7.41096E+5   1.41091E+6
   7.25406E+5   1.41790E+6
   7.08752E+5   1.41786E+6
   6.86464E+5   1.41167E+6
   6.69997E+5   1.41244E+6
   6.54244E+5   1.41072E+6
   6.34044E+5   1.40576E+6
   6.17447E+5   1.40219E+6
   6.03431E+5   1.40031E+6
   5.84231E+5   1.39689E+6
   5.66748E+5   1.39698E+6
   5.48911E+5   1.39501E+6
   5.27964E+5   1.39209E+6
   5.09041E+5   1.38721E+6
   4.93311E+5   1.38346E+6
   4.76311E+5   1.38100E+6
   4.58478E+5   1.37869E+6
   4.42359E+5   1.37534E+6
   4.25575E+5   1.37244E+6
   4.07999E+5   1.36854E+6
   3.90194E+5   1.36406E+6
   3.72239E+5   1.35901E+6
   3.54795E+5   1.35286E+6
   3.39178E+5   1.34650E+6
   3.24614E+5   1.34208E+6
   3.07831E+5   1.33765E+6
   2.90568E+5   1.33281E+6
   2.73998E+5   1.32785E+6
   2.56927E+5   1.32161E+6
   2.39695E+5   1.31410E+6
   2.24189E+5   1.30593E+6
   2.08760E+5   1.29794E+6
   1.93653E+5   1.28992E+6
   1.78178E+5   1.28495E+6
   1.61107E+5   1.27922E+6
   1.44185E+5   1.27094E+6
   1.29219E+5   1.26151E+6
   1.15345E+5   1.25545E+6
   9.93271E+4   1.24888E+6
   8.27218E+4   1.23985E+6
   6.80487E+4   1.23039E+6
   5.39308E+4   1.22273E+6
   3.83792E+4   1.21448E+6
   2.27026E+4   1.20530E+6
   7.83734E+3   1.19579E+6
  -7.15069E+3   1.18659E+6
  -2.17268E+4   1.17684E+6
  -3.58196E+4   1.16748E+6
  -5.09295E+4   1.15813E+6
  -6.60751E+4   1.14827E+6
  -8.02761E+4   1.13803E+6
  -9.29546E+4   1.12806E+6
  -1.06449E+5   1.11845E+6
  -1.20136E+5   1.10827E+6
  -1.32136E+5   1.09748E+6
  -1.42854E+5   1.08712E+6
  -1.54397E+5   1.07784E+6
  -1.67185E+5   1.06792E+6
  -1.78418E+5   1.05608E+6
  -1.88689E+5   1.04426E+6
  -1.98226E+5   1.03396E+6
  -2.08461E+5   1.02443E+6
  -2.18780E+5   1.01378E+6
  -2.28488E+5   1.00260E+6
  -2.37663E+5   9.92440E+5
  -2.47125E+5   9.82532E+5
  -2.57631E+5   9.71494E+5
  -2.67130E+5   9.59455E+5
  -2.74954E+5   9.47573E+5
  -2.81952E+5   9.36645E+5
  -2.89206E+5   9.26701E+5
  -2.97131E+5   9.16850E+5
  -3.05424E+5   9.05322E+5
  -3.11976E+5   8.92320E+5
  -3.16624E+5   8.81203E+5
  -3.22372E+5   8.71642E+5
  -3.30114E+5   8.61350E+5
  -3.37633E+5   8.49386E+5
  -3.44224E+5   8.37631E+5
  -3.50402E+5   8.26437E+5
  -3.56917E+5   8.15031E+5
  -3.64046E+5   8.03022E+5
  -3.69421E+5   7.90135E+5
  -3.73510E+5   7.78021E+5
  -3.77274E+5   7.67177E+5
  -3.82704E+5   7.56863E+5
  -3.87441E+5   7.45960E+5
  -3.92093E+5   7.34441E+5
  -3.97100E+5   7.23268E+5
  -4.01873E+5   7.11336E+5
  -4.05608E+5   6.98817E+5
  -4.09369E+5   6.87046E+5
  -4.13556E+5   6.75528E+5
  -4.17697E+5   6.64230E+5
  -4.22146E+5   6.52712E+5
  -4.27302E+5   6.40501E+5
  -4.31628E+5   6.27587E+5
  -4.35135E+5   6.15050E+5
  -4.38355E+5   6.03566E+5
  -4.42181E+5   5.91992E+5
  -4.45412E+5   5.79543E+5
  -4.47787E+5   5.67693E+5
  -4.50696E+5   5.56761E+5
  -4.54105E+5   5.45911E+5
  -4.57041E+5   5.33697E+5
  -4.59315E+5   5.21353E+5
  -4.60466E+5   5.10025E+5
  -4.61632E+5   4.99720E+5
  -4.64476E+5   4.88911E+5
  -4.67125E+5   4.77687E+5
  -4.68855E+5   4.66446E+5
  -4.69657E+5   4.54914E+5
  -4.71000E+5   4.43627E+5
  -4.71956E+5   4.33112E+5
  -4.72132E+5   4.22508E+5
  -4.72577E+5   4.12031E+5
  -4.72381E+5   4.02144E+5
  -4.72785E+5   3.93010E+5
  -4.72961E+5   3.83887E+5
  -4.73514E+5   3.73544E+5
  -4.72375E+5   3.63677E+5
  -4.71948E+5   3.54976E+5
  -4.71356E+5   3.45961E+5
  -4.70299E+5   3.36963E+5
  -4.69477E+5   3.28203E+5
  -4.68325E+5   3.19461E+5
  -4.67109E+5   3.10802E+5
  -4.66082E+5   3.01960E+5
  -4.64041E+5   2.93207E+5
  -4.62001E+5   2.85200E+5
  -4.59854E+5   2.77642E+5
  -4.58687E+5   2.70436E+5
  -4.57271E+5   2.62460E+5
  -4.55328E+5   2.54555E+5
  -4.52588E+5   2.47113E+5
  -4.50076E+5   2.40273E+5
  -4.47876E+5   2.33158E+5
  -4.45616E+5   2.25969E+5
  -4.42912E+5   2.18909E+5
  -4.40318E+5   2.11999E+5
  -4.37804E+5   2.05351E+5
  -4.35511E+5   1.98695E+5
  -4.32986E+5   1.90954E+5
  -4.29545E+5   1.83790E+5
  -4.26456E+5   1.78027E+5
  -4.24149E+5   1.72000E+5
  -4.21638E+5   1.65255E+5
  -4.18738E+5   1.58553E+5
  -4.15520E+5   1.52049E+5
  -4.12412E+5   1.45923E+5
  -4.09104E+5   1.40130E+5
  -4.06066E+5   1.34278E+5
  -4.02497E+5   1.28619E+5
  -3.99194E+5   1.23232E+5
  -3.96424E+5   1.18135E+5
  -3.93903E+5   1.12493E+5
  -3.90816E+5   1.06223E+5
  -3.87449E+5   9.98859E+4
  -3.83638E+5   9.45326E+4
  -3.80330E+5   8.90690E+4
  -3.77165E+5   8.35467E+4
  -3.73867E+5   7.78892E+4
  -3.70592E+5   7.28572E+4
  -3.67343E+5   6.73348E+4
  -3.64284E+5   6.17572E+4
  -3.60813E+5   5.60393E+4
  -3.57101E+5   5.08059E+4
  -3.53200E+5   4.62464E+4
  -3.49896E+5   4.15618E+4
  -3.46802E+5   3.65704E+4
  -3.43440E+5   3.15789E+4
  -3.39933E+5   2.64603E+4
  -3.36009E+5   2.21223E+4
  -3.32593E+5   1.73575E+4
  -3.29401E+5   1.28495E+4
  -3.25579E+5   8.39435E+3
  -3.21716E+5   4.01157E+3
  -3.18610E+5   2.06536E+2
  -3.15595E+5  -4.28644E+3
  -3.12172E+5  -9.20992E+3
  -3.07911E+5  -1.32709E+4
  -3.04118E+5  -1.65638E+4
  -3.00466E+5  -2.03417E+4
  -2.97022E+5  -2.35409E+4
  -2.93525E+5  -2.71852E+4
  -2.90004E+5  -3.06253E+4
  -2.86283E+5  -3.36072E+4
  -2.82870E+5  -3.65583E+4
  -2.79700E+5  -4.03635E+4
  -2.75735E+5  -4.34582E+4
  -2.71982E+5  -4.62706E+4
  -2.68361E+5  -4.84963E+4
  -2.65314E+5  -5.11155E+4
  -2.62302E+5  -5.40722E+4
  -2.58436E+5  -5.68630E+4
  -2.54490E+5  -5.95284E+4
  -2.51172E+5  -6.15155E+4
  -2.47877E+5  -6.35667E+4
  -2.44749E+5  -6.56099E+4
  -2.41101E+5  -6.75887E+4
  -2.37772E+5  -6.93642E+4
  -2.34835E+5  -7.13848E+4
  -2.31410E+5  -7.32801E+4
  -2.27937E+5  -7.49036E+4
  -2.24841E+5  -7.66154E+4
  -2.21426E+5  -7.75816E+4
  -2.18190E+5  -7.91692E+4
  -2.15670E+5  -8.11732E+4
  -2.12213E+5  -8.27246E+4
  -2.08903E+5  -8.40983E+4
  -2.05722E+5  -8.50810E+4
  -2.02899E+5  -8.65862E+4
  -1.99604E+5  -8.80748E+4
  -1.96149E+5  -8.92747E+4
  -1.93492E+5  -8.99726E+4
  -1.90883E+5  -9.13247E+4
  -1.88144E+5  -9.22208E+4
  -1.84930E+5  -9.36860E+4
  -1.81600E+5  -9.46662E+4
  -1.78842E+5  -9.52839E+4
  -1.75792E+5  -9.61629E+4
  -1.73467E+5  -9.73572E+4
  -1.70516E+5  -9.86125E+4
  -1.67475E+5  -9.95319E+4
  -1.64667E+5  -1.00490E+5
  -1.61707E+5  -1.01699E+5
  -1.58736E+5  -1.02615E+5
  -1.55368E+5  -1.03647E+5
  -1.52657E+5  -1.03981E+5
  -1.50076E+5  -1.04509E+5
  -1.47479E+5  -1.05467E+5
  -1.44852E+5  -1.06617E+5
  -1.41825E+5  -1.07270E+5
  -1.38800E+5  -1.07796E+5
  -1.36331E+5  -1.08051E+5
  -1.33796E+5  -1.08641E+5
  -1.31041E+5  -1.09334E+5
  -1.28324E+5  -1.09817E+5
  -1.26080E+5  -1.10288E+5
  -1.23396E+5  -1.11190E+5
  -1.20954E+5  -1.11768E+5
  -1.17947E+5  -1.12244E+5
  -1.15261E+5  -1.12300E+5
  -1.12880E+5  -1.12488E+5
  -1.10529E+5  -1.12835E+5
  -1.08198E+5  -1.13229E+5
  -1.05430E+5  -1.13389E+5
  -1.03069E+5  -1.13558E+5
  -1.00668E+5  -1.13698E+5
  -9.83149E+4  -1.14024E+5
  -9.55938E+4  -1.14144E+5
  -9.32180E+4  -1.13791E+5
  -9.12896E+4  -1.13617E+5
  -8.95279E+4  -1.13653E+5
  -8.69870E+4  -1.13989E+5
  -8.45100E+4  -1.13993E+5
  -8.23245E+4  -1.13768E+5
  -8.04686E+4  -1.13485E+5
  -7.81652E+4  -1.13602E+5
  -7.59269E+4  -1.13386E+5
  -7.37781E+4  -1.13121E+5
  -7.18303E+4  -1.13025E+5
  -6.98999E+4  -1.12728E+5
  -6.78642E+4  -1.12572E+5
  -6.53800E+4  -1.12350E+5
  -6.34169E+4  -1.11778E+5
  -6.17137E+4  -1.11167E+5
  -6.00161E+4  -1.11085E+5
  -5.80315E+4  -1.10907E+5
  -5.57359E+4  -1.11000E+5
  -5.35970E+4  -1.10040E+5
  -5.20767E+4  -1.09803E+5
  -5.03686E+4  -1.09498E+5
  -4.80995E+4  -1.08800E+5
  -4.62548E+4  -1.08409E+5
  -4.47618E+4  -1.07787E+5
  -4.30645E+4  -1.07338E+5
  -4.14312E+4  -1.07304E+5
  -3.90918E+4  -1.06862E+5
  -3.73337E+4  -1.05725E+5
  -3.58009E+4  -1.05487E+5
  -3.43205E+4  -1.04781E+5
  -3.23697E+4  -1.04542E+5
  -3.09717E+4  -1.03854E+5
  -2.92232E+4  -1.03141E+5
  -2.79384E+4  -1.02704E+5
  -2.62036E+4  -1.02448E+5
  -2.44908E+4  -1.01613E+5
  -2.29138E+4  -1.00626E+5
  -2.13325E+4  -1.00227E+5
  -1.98644E+4  -9.96519E+4
  -1.86365E+4  -9.93256E+4
  -1.70865E+4  -9.86627E+4
  -1.52115E+4  -9.79220E+4
  -1.38409E+4  -9.70254E+4
  -1.26868E+4  -9.60665E+4
  -1.14299E+4  -9.54809E+4
  -9.80759E+3  -9.50066E+4
  -8.83943E+3  -9.41512E+4
  -7.57696E+3  -9.31564E+4
  -6.11451E+3  -9.28685E+4
  -4.81368E+3  -9.21360E+4
  -3.42559E+3  -9.13287E+4
  -1.97778E+3  -9.02372E+4
  -1.13052E+3  -8.92950E+4
  -9.60568E+1  -8.88812E+4
   1.23125E+3  -8.77935E+4
   2.63049E+3  -8.71993E+4
   3.64360E+3  -8.62411E+4
   4.84382E+3  -8.55450E+4
   6.00363E+3  -8.45639E+4
   6.95330E+3  -8.36504E+4
   8.01117E+3  -8.28969E+4
   8.76087E+3  -8.19628E+4
   1.00172E+4  -8.12476E+4
   1.09772E+4  -8.05676E+4
   1.23495E+4  -7.96789E+4
   1.31811E+4  -7.85332E+4
   1.37905E+4  -7.76927E+4
   1.47405E+4  -7.66022E+4
   1.58199E+4  -7.57233E+4
   1.66374E+4  -7.48862E+4
   1.73865E+4  -7.40224E+4
   1.80401E+4  -7.35253E+4
   1.93061E+4  -7.24205E+4
   2.00016E+4  -7.14043E+4
   2.05588E+4  -7.02869E+4
   2.12763E+4  -6.93637E+4
   2.17929E+4  -6.85356E+4
   2.27068E+4  -6.76341E+4
   2.31944E+4  -6.69236E+4
   2.41069E+4  -6.58792E+4
