 LCModel (Version 6.3-1N) Copyright: S.W. Provencher.          Ref.: Magn. Reson. Med. 30:672-679 (1993).                
 Slice_N1@16_16  28-Feb-2025 11:38:34
 27 lines in following concentration table = NCONC+1
    Conc.  %SD /Cr+PCr  Metabolite                                         
 2.75E-04   6% 2.2E-04 Mac                                                 
    3.627  61%   2.868 Cr                                                  
    6.491  34%   5.132 PCr                                                 
    9.608  13%   7.597 Ins                                                 
   13.183   8%  10.423 NAA                                                 
    6.964  18%   5.506 Tau                                                 
    0.000 999%   0.000 PCho                                                
    2.514  16%   1.988 GPC                                                 
    7.419  18%   5.865 Glu                                                 
    3.317  32%   2.623 Gln                                                 
   10.157  10%   8.031 Ala                                                 
    4.890  35%   3.866 Asc                                                 
    4.204  38%   3.323 Asp                                                 
    2.027  40%   1.603 GABA                                                
    1.737  67%   1.373 Glc                                                 
    2.441  27%   1.930 GSH                                                 
    4.964  20%   3.925 Lac                                                 
    2.889  31%   2.284 NAAG                                                
    0.787 207%   0.623 PE                                                  
    2.514  16%   1.988 GPC+PCho                                            
   16.072   7%  12.707 NAA+NAAG                                            
   10.736  16%   8.488 Glu+Gln                                             
   10.119   9%   8.000 Cr+PCr                                              
   16.072   7%  12.707 NAA+NAAG                                            
   10.119   9%   8.000 Cr+PCr                                              
   10.736  16%   8.488 Glu+Gln                                             
   6 lines in following misc. output table
  FWHM = 0.024 ppm    S/N =   3                                            
  Data shift = 0.033 ppm                                                   
  Ph:-119 deg       0.0 deg/ppm                                            
  alphaB,S = 1.0E-01,   2.3E+01                                            
   19 spline knots.   Ns = 5(1)                                            
  ( 5) 5 infls.   ( 5) 1 extrs.                                            
  480 points on ppm-axis = NY
      4.100000     4.091866     4.083733     4.075600     4.067466     4.059333     4.051199     4.043066     4.034933     4.026799
      4.018666     4.010532     4.002399     3.994265     3.986132     3.977998     3.969864     3.961731     3.953597     3.945463
      3.937330     3.929196     3.921062     3.912929     3.904795     3.896662     3.888528     3.880394     3.872261     3.864127
      3.855993     3.847860     3.839726     3.831592     3.823459     3.815325     3.807191     3.799058     3.790924     3.782790
      3.774657     3.766523     3.758389     3.750256     3.742122     3.733989     3.725855     3.717721     3.709588     3.701454
      3.693320     3.685187     3.677053     3.668919     3.660786     3.652652     3.644518     3.636385     3.628251     3.620117
      3.611984     3.603850     3.595716     3.587583     3.579449     3.571316     3.563182     3.555048     3.546915     3.538781
      3.530647     3.522514     3.514380     3.506246     3.498113     3.489979     3.481845     3.473712     3.465578     3.457444
      3.449311     3.441177     3.433043     3.424910     3.416776     3.408643     3.400509     3.392375     3.384242     3.376108
      3.367974     3.359841     3.351707     3.343573     3.335440     3.327306     3.319172     3.311039     3.302905     3.294771
      3.286638     3.278504     3.270370     3.262237     3.254103     3.245970     3.237836     3.229702     3.221569     3.213435
      3.205301     3.197168     3.189034     3.180900     3.172767     3.164633     3.156499     3.148366     3.140232     3.132098
      3.123965     3.115831     3.107697     3.099564     3.091430     3.083297     3.075163     3.067029     3.058896     3.050762
      3.042628     3.034495     3.026361     3.018227     3.010094     3.001960     2.993826     2.985693     2.977559     2.969425
      2.961292     2.953158     2.945024     2.936891     2.928757     2.920624     2.912490     2.904356     2.896223     2.888089
      2.879955     2.871822     2.863688     2.855554     2.847421     2.839287     2.831153     2.823020     2.814886     2.806752
      2.798619     2.790485     2.782351     2.774218     2.766084     2.757951     2.749817     2.741683     2.733550     2.725416
      2.717282     2.709149     2.701015     2.692881     2.684748     2.676614     2.668480     2.660347     2.652213     2.644079
      2.635946     2.627812     2.619678     2.611545     2.603411     2.595278     2.587144     2.579010     2.570877     2.562743
      2.554609     2.546476     2.538342     2.530208     2.522075     2.513941     2.505807     2.497674     2.489540     2.481406
      2.473273     2.465139     2.457006     2.448872     2.440738     2.432605     2.424471     2.416337     2.408204     2.400070
      2.391936     2.383803     2.375669     2.367535     2.359402     2.351268     2.343134     2.335001     2.326867     2.318733
      2.310600     2.302466     2.294333     2.286199     2.278065     2.269932     2.261798     2.253664     2.245531     2.237397
      2.229263     2.221130     2.212996     2.204862     2.196729     2.188595     2.180461     2.172328     2.164194     2.156060
      2.147927     2.139793     2.131660     2.123526     2.115392     2.107259     2.099125     2.090991     2.082858     2.074724
      2.066590     2.058457     2.050323     2.042189     2.034056     2.025922     2.017788     2.009655     2.001521     1.993387
      1.985254     1.977120     1.968987     1.960853     1.952719     1.944586     1.936452     1.928318     1.920185     1.912051
      1.903917     1.895784     1.887650     1.879516     1.871383     1.863249     1.855115     1.846982     1.838848     1.830714
      1.822581     1.814447     1.806314     1.798180     1.790046     1.781913     1.773779     1.765645     1.757512     1.749378
      1.741244     1.733111     1.724977     1.716843     1.708710     1.700576     1.692442     1.684309     1.676175     1.668041
      1.659908     1.651774     1.643641     1.635507     1.627373     1.619240     1.611106     1.602972     1.594839     1.586705
      1.578571     1.570438     1.562304     1.554170     1.546037     1.537903     1.529769     1.521636     1.513502     1.505368
      1.497235     1.489101     1.480968     1.472834     1.464700     1.456567     1.448433     1.440299     1.432166     1.424032
      1.415898     1.407765     1.399631     1.391497     1.383364     1.375230     1.367096     1.358963     1.350829     1.342695
      1.334562     1.326428     1.318295     1.310161     1.302027     1.293894     1.285760     1.277626     1.269493     1.261359
      1.253225     1.245092     1.236958     1.228824     1.220691     1.212557     1.204423     1.196290     1.188156     1.180022
      1.171889     1.163755     1.155622     1.147488     1.139354     1.131221     1.123087     1.114953     1.106820     1.098686
      1.090552     1.082419     1.074285     1.066151     1.058018     1.049884     1.041750     1.033617     1.025483     1.017349
      1.009216     1.001082     0.992949     0.984815     0.976681     0.968548     0.960414     0.952280     0.944147     0.936013
      0.927879     0.919746     0.911612     0.903478     0.895345     0.887211     0.879077     0.870944     0.862810     0.854676
      0.846543     0.838409     0.830276     0.822142     0.814008     0.805875     0.797741     0.789607     0.781474     0.773340
      0.765206     0.757073     0.748939     0.740805     0.732672     0.724538     0.716404     0.708271     0.700137     0.692003
      0.683870     0.675736     0.667603     0.659469     0.651335     0.643202     0.635068     0.626934     0.618801     0.610667
      0.602533     0.594400     0.586266     0.578132     0.569999     0.561865     0.553731     0.545598     0.537464     0.529330
      0.521197     0.513063     0.504930     0.496796     0.488662     0.480529     0.472395     0.464261     0.456128     0.447994
      0.439861     0.431727     0.423593     0.415460     0.407326     0.399192     0.391059     0.382925     0.374792     0.366658
      0.358524     0.350391     0.342257     0.334124     0.325990     0.317856     0.309723     0.301589     0.293455     0.285322
      0.277188     0.269055     0.260921     0.252787     0.244654     0.236520     0.228386     0.220253     0.212119     0.203986
 NY phased data points follow
  -1.10741E+02 -1.10116E+02 -1.13356E+02 -1.16826E+02 -1.18715E+02 -1.33393E+02 -1.12200E+02 -1.04258E+02 -1.12349E+02 -1.17485E+02
  -1.20085E+02 -1.29341E+02 -1.26891E+02 -1.26510E+02 -1.48306E+02 -1.34883E+02 -1.46233E+02 -1.59969E+02 -1.64417E+02 -1.86435E+02
  -1.92876E+02 -1.59102E+02 -1.31714E+02 -1.41343E+02 -1.03393E+02 -7.34631E+01 -8.09662E+01 -8.44329E+01 -6.95857E+01 -6.28853E+01
  -7.22603E+01 -6.89241E+01 -7.03760E+01 -6.39206E+01 -6.08415E+01 -7.04691E+01 -7.76883E+01 -7.58138E+01 -9.44499E+01 -1.09236E+02
  -1.17692E+02 -1.22777E+02 -1.10710E+02 -1.23410E+02 -1.04691E+02 -7.80168E+01 -6.38603E+01 -5.11779E+01 -5.31581E+01 -4.24571E+01
  -3.36536E+01 -3.45854E+01 -3.84839E+01 -3.88034E+01 -6.81666E+01 -7.66158E+01 -6.31729E+01 -8.82494E+01 -9.67768E+01 -8.53730E+01
  -7.31940E+01 -6.93404E+01 -7.31270E+01 -5.68770E+01 -3.60973E+01 -3.36924E+01 -3.01490E+01 -3.95383E+01 -6.98237E+01 -1.00055E+02
  -1.09678E+02 -8.95773E+01 -8.64152E+01 -8.28747E+01 -6.11526E+01 -3.75501E+01 -2.82829E+01 -4.02440E+01 -3.45297E+01 -3.29142E+01
  -3.19502E+01 -3.46880E+01 -5.73921E+01 -6.50306E+01 -7.03236E+01 -7.19886E+01 -6.66101E+01 -5.43342E+01 -3.09383E+01 -2.96674E+01
  -3.05590E+01 -1.31530E+01 -4.21309E+00 -1.07207E+00  5.10673E+00  8.45216E+00  7.61324E+00  1.03090E+01  2.07434E+01  1.99019E+01
   1.39722E+01  1.51844E+01 -3.19592E+00 -2.14719E+01 -2.61300E+01 -4.65306E+01 -5.59120E+01 -5.84165E+01 -6.93589E+01 -1.00435E+02
  -1.67959E+02 -1.85461E+02 -1.59612E+02 -1.35967E+02 -1.16984E+02 -1.17600E+02 -8.77958E+01 -8.75680E+01 -9.58337E+01 -7.35840E+01
  -7.09736E+01 -5.06450E+01 -4.17331E+01 -3.57808E+01 -3.25390E+01 -2.25497E+01 -7.31532E+00 -2.73290E+00  2.69917E+01  5.42363E+01
   8.69117E+01  6.24894E+01 -1.60781E+01 -8.18268E+01 -1.04872E+02 -1.05997E+02 -1.18721E+02 -1.06071E+02 -1.06319E+02 -1.00514E+02
  -1.02246E+02 -9.81772E+01 -1.00456E+02 -1.13565E+02 -9.21283E+01 -1.05082E+02 -1.03966E+02 -1.06145E+02 -1.00921E+02 -1.01000E+02
  -1.12459E+02 -8.49530E+01 -9.12754E+01 -9.04254E+01 -9.31178E+01 -8.97001E+01 -7.61938E+01 -7.54752E+01 -7.50179E+01 -8.22275E+01
  -7.74039E+01 -7.93843E+01 -6.09381E+01 -6.69253E+01 -7.85337E+01 -7.01352E+01 -7.77417E+01 -7.27465E+01 -7.55413E+01 -7.00714E+01
  -6.35053E+01 -5.62404E+01 -2.91669E+01 -2.73715E+01 -5.47681E+01 -4.70982E+01 -2.85292E+01 -2.86718E+01 -3.29118E+01 -6.31021E+01
  -6.85185E+01 -7.11156E+01 -9.13171E+01 -9.35144E+01 -8.91260E+01 -9.16739E+01 -9.70336E+01 -8.83194E+01 -8.20808E+01 -7.72680E+01
  -8.03386E+01 -6.37380E+01 -5.66157E+01 -6.82876E+01 -5.04573E+01 -5.62301E+01 -5.48330E+01 -4.64487E+01 -3.83308E+01 -2.46435E+01
  -4.69426E+01 -4.88328E+01 -3.88370E+01 -4.05854E+01 -4.17978E+01 -5.04765E+01 -4.72712E+01 -6.05480E+01 -7.75562E+01 -7.51997E+01
  -7.93828E+01 -8.24199E+01 -8.95883E+01 -7.55481E+01 -5.48477E+01 -4.92949E+01 -3.17220E+01 -2.06830E+01 -2.50308E+01 -4.23541E+01
  -5.28277E+01 -6.28384E+01 -5.19727E+01 -5.35753E+01 -5.73020E+01 -2.88066E+01 -5.63475E+01 -5.31805E+01 -3.89411E+01 -4.51507E+01
  -3.94053E+01 -5.30573E+01 -4.36828E+01 -6.55107E+01 -7.33041E+01 -8.15660E+01 -9.78384E+01 -8.50181E+01 -9.25553E+01 -9.58056E+01
  -1.01777E+02 -7.86928E+01 -7.06644E+01 -6.66680E+01 -6.16461E+01 -7.65452E+01 -6.49627E+01 -8.00838E+01 -8.56042E+01 -9.57198E+01
  -9.61774E+01 -9.58969E+01 -1.06180E+02 -7.70881E+01 -9.93267E+01 -1.47580E+02 -1.56673E+02 -3.80080E+01  9.87618E+01  8.78536E+01
   8.58695E+01  1.00379E+02  7.52265E+01  6.25359E+01  6.19814E+01  4.36214E+01  3.95600E+01  5.63658E+01  3.97021E+01  3.46549E+01
   4.36645E+01  3.13471E+01  3.45920E+01  5.91051E+01  5.27968E+01  5.36600E+01  6.34049E+01  3.98560E+01  4.99387E+01  5.76160E+01
   4.41697E+01  5.50061E+01  6.21676E+01  4.83884E+01  5.16981E+01  5.05664E+01  4.55276E+01  6.39975E+01  4.16788E+01  4.60647E+01
   6.08807E+01  4.54133E+01  4.09849E+01  3.35051E+01  3.99995E+01  2.71131E+01  2.09348E+01  1.60362E+01  1.23228E+01  7.99989E+00
   4.28497E+00  2.38732E+01  1.59894E+01  1.86609E+01  1.62301E+01  7.96629E+00  1.02340E+01  1.22338E+01  1.29347E+01 -3.48066E+00
   5.78483E-01 -5.99647E-01 -2.24058E+01 -3.63527E+01 -4.21536E+01 -5.71961E+01 -6.36090E+01 -6.34976E+01 -8.62575E+01 -9.73789E+01
  -8.68226E+01 -9.88316E+01 -1.08541E+02 -1.01923E+02 -1.06128E+02 -9.90129E+01 -1.06804E+02 -1.03019E+02 -9.38945E+01 -7.68580E+01
  -5.82068E+01 -8.01250E+01 -6.34672E+01 -6.50582E+01 -8.12792E+01 -7.84786E+01 -7.28964E+01 -7.40089E+01 -9.27682E+01 -7.58221E+01
  -7.56468E+01 -8.05215E+01 -9.51840E+01 -1.06907E+02 -9.33789E+01 -1.09876E+02 -1.06305E+02 -9.93102E+01 -1.06989E+02 -1.05328E+02
  -9.75458E+01 -8.11890E+01 -8.33267E+01 -9.16873E+01 -9.66825E+01 -9.67399E+01 -9.02855E+01 -1.09765E+02 -1.07624E+02 -9.79979E+01
  -9.71709E+01 -8.47924E+01 -9.17977E+01 -8.57657E+01 -8.09195E+01 -7.04897E+01 -7.04760E+01 -6.41952E+01 -4.80227E+01 -4.79743E+01
  -3.40606E+01 -4.37867E+01 -3.16623E+01 -3.13707E+01 -2.80321E+01 -3.87273E-01 -2.37777E+00 -1.47053E+01 -1.73672E+01  7.61270E+00
   7.65864E+00  2.42453E+01  3.08865E+01  3.44771E+01  5.01468E+01  4.20443E+01  6.29588E+01  6.77929E+01  7.19196E+01  7.35501E+01
   7.65268E+01  7.32849E+01  4.74263E+01  3.01303E+01  3.30809E+01  3.42508E+01  1.69603E+01  2.85157E+01  1.29610E+01  1.97543E+00
  -5.35498E+00 -2.17653E+01 -2.16531E+01 -4.40581E+01 -4.20794E+01 -4.70962E+01 -4.04164E+01 -4.12001E+01 -5.97350E+01 -5.16944E+01
  -5.59058E+01 -5.31550E+01 -5.39234E+01 -5.29831E+01 -5.32855E+01 -4.56168E+01 -3.94779E+01 -5.64274E+01 -4.43757E+01 -5.05319E+01
  -5.23954E+01 -3.73896E+01 -5.67685E+01 -4.54435E+01 -5.50218E+01 -6.57674E+01 -3.25916E+01 -5.55609E+01 -6.24446E+01 -4.12160E+01
  -3.98452E+01 -3.92531E+01 -5.73432E+01 -5.16214E+01 -4.23238E+01 -5.02191E+01 -4.96828E+01 -4.22167E+01 -3.65496E+01 -4.71582E+01
  -4.48290E+01 -4.72780E+01 -5.86567E+01 -4.45466E+01 -3.43718E+01 -4.49899E+01 -5.13043E+01 -4.66746E+01 -4.65864E+01 -3.94080E+01
  -4.10521E+01 -5.23176E+01 -5.02254E+01 -4.83781E+01 -4.45264E+01 -4.38948E+01 -4.54665E+01 -5.52316E+01 -4.54293E+01 -3.47590E+01
  -5.89634E+01 -4.58671E+01 -3.27410E+01 -5.08979E+01 -4.34768E+01 -4.14924E+01 -5.65588E+01 -4.81735E+01 -4.23129E+01 -4.89457E+01
  -4.42614E+01 -4.68586E+01 -4.13964E+01 -3.69642E+01 -4.04745E+01 -2.99506E+01 -3.83973E+01 -4.33288E+01 -3.55134E+01 -4.88156E+01
 NY points of the fit to the data follow
  -1.26120E+02 -1.26366E+02 -1.28713E+02 -1.32868E+02 -1.32274E+02 -1.22844E+02 -1.10426E+02 -1.05212E+02 -1.08879E+02 -1.14911E+02
  -1.18347E+02 -1.20071E+02 -1.21734E+02 -1.23342E+02 -1.26385E+02 -1.33174E+02 -1.40304E+02 -1.46080E+02 -1.57335E+02 -1.69629E+02
  -1.73418E+02 -1.61469E+02 -1.39035E+02 -1.17292E+02 -9.95786E+01 -8.61170E+01 -7.62791E+01 -6.85860E+01 -6.22738E+01 -5.96214E+01
  -6.22265E+01 -6.76749E+01 -7.33303E+01 -7.89443E+01 -8.44915E+01 -8.81705E+01 -9.10237E+01 -9.12689E+01 -9.49786E+01 -1.05243E+02
  -1.16578E+02 -1.19830E+02 -1.12655E+02 -1.02459E+02 -9.32570E+01 -8.21040E+01 -6.85159E+01 -5.55219E+01 -4.79968E+01 -4.41595E+01
  -4.32338E+01 -4.52030E+01 -4.95710E+01 -5.76754E+01 -7.02016E+01 -7.69194E+01 -7.71286E+01 -8.05743E+01 -8.83462E+01 -9.30192E+01
  -8.83262E+01 -7.94276E+01 -7.13442E+01 -6.10835E+01 -5.01912E+01 -4.22224E+01 -3.94732E+01 -4.61502E+01 -6.30391E+01 -8.07740E+01
  -8.64759E+01 -8.17546E+01 -7.65169E+01 -7.03719E+01 -5.81918E+01 -4.31225E+01 -3.33371E+01 -2.84032E+01 -2.58608E+01 -2.53399E+01
  -2.96295E+01 -3.84118E+01 -4.93943E+01 -5.98894E+01 -6.57999E+01 -6.49531E+01 -5.85438E+01 -4.90290E+01 -3.97901E+01 -3.11878E+01
  -2.36064E+01 -1.60928E+01 -8.98664E+00 -2.54537E+00  2.74062E+00  7.78480E+00  1.35651E+01  1.67473E+01  1.62026E+01  1.64111E+01
   1.45871E+01  9.75070E+00 -9.48621E-01 -1.41489E+01 -2.73722E+01 -4.77289E+01 -5.81381E+01 -5.86942E+01 -7.23192E+01 -1.13192E+02
  -1.59604E+02 -1.73350E+02 -1.57188E+02 -1.38674E+02 -1.29091E+02 -1.20606E+02 -1.05835E+02 -9.30563E+01 -8.23011E+01 -7.27524E+01
  -6.37310E+01 -5.45934E+01 -4.48692E+01 -3.41210E+01 -2.20890E+01 -7.52183E+00  1.20135E+01  2.51555E+01  3.44665E+01  5.29797E+01
   6.75785E+01  4.70731E+01 -1.36147E+01 -7.52141E+01 -1.02029E+02 -1.05510E+02 -1.10385E+02 -1.19925E+02 -1.22597E+02 -1.19536E+02
  -1.17524E+02 -1.16517E+02 -1.16065E+02 -1.16011E+02 -1.15695E+02 -1.15110E+02 -1.13598E+02 -1.11190E+02 -1.08335E+02 -1.05424E+02
  -1.02541E+02 -9.94575E+01 -9.65350E+01 -9.34216E+01 -8.96791E+01 -8.58260E+01 -8.30431E+01 -8.20819E+01 -8.15123E+01 -7.90476E+01
  -7.50651E+01 -7.26350E+01 -7.37054E+01 -7.65733E+01 -7.76258E+01 -7.60202E+01 -7.36163E+01 -7.17928E+01 -7.08410E+01 -6.75458E+01
  -5.77609E+01 -4.44899E+01 -3.64204E+01 -3.81309E+01 -4.33104E+01 -4.12064E+01 -3.36750E+01 -3.16976E+01 -4.04308E+01 -5.35612E+01
  -6.32871E+01 -6.91236E+01 -7.42666E+01 -7.94966E+01 -8.30533E+01 -8.43401E+01 -8.46330E+01 -8.42014E+01 -8.27667E+01 -7.88376E+01
  -7.47805E+01 -7.20761E+01 -6.68235E+01 -5.79867E+01 -4.93062E+01 -4.59875E+01 -4.53235E+01 -4.09150E+01 -3.57309E+01 -3.51934E+01
  -3.80173E+01 -3.79132E+01 -3.51654E+01 -3.59543E+01 -4.11367E+01 -4.73426E+01 -5.24407E+01 -5.78565E+01 -6.38921E+01 -6.90200E+01
  -7.24537E+01 -7.24104E+01 -7.10548E+01 -6.57965E+01 -5.64197E+01 -4.47807E+01 -3.37402E+01 -2.72966E+01 -2.52878E+01 -2.62686E+01
  -2.89764E+01 -3.01204E+01 -2.92264E+01 -2.63048E+01 -2.43853E+01 -2.42851E+01 -2.66402E+01 -3.19221E+01 -3.93305E+01 -4.87906E+01
  -5.87623E+01 -6.84902E+01 -7.78840E+01 -8.57141E+01 -9.17507E+01 -9.59694E+01 -9.89687E+01 -9.94041E+01 -9.78036E+01 -9.41643E+01
  -8.94389E+01 -8.41226E+01 -7.79647E+01 -7.26684E+01 -6.93566E+01 -6.77964E+01 -6.96832E+01 -7.54119E+01 -8.11698E+01 -8.83889E+01
  -1.01633E+02 -1.20250E+02 -1.19468E+02 -1.06472E+02 -1.14008E+02 -1.33824E+02 -1.16176E+02 -4.06551E+01  4.14623E+01  7.65160E+01
   7.71234E+01  7.69340E+01  8.34319E+01  8.18427E+01  7.38165E+01  6.61301E+01  5.86785E+01  5.17879E+01  4.61163E+01  4.16103E+01
   3.88577E+01  3.75649E+01  3.75972E+01  3.85917E+01  3.99104E+01  4.12262E+01  4.18758E+01  4.19080E+01  4.13957E+01  4.03011E+01
   3.85872E+01  3.62498E+01  3.38783E+01  3.14514E+01  2.88975E+01  2.60706E+01  2.31242E+01  2.01595E+01  1.69555E+01  1.33935E+01
   9.55979E+00  5.65451E+00  1.78984E+00 -1.85803E+00 -4.93986E+00 -7.07993E+00 -8.03408E+00 -7.89914E+00 -7.02687E+00 -5.68127E+00
  -3.98244E+00 -1.89814E+00  4.37200E-01  2.84520E+00  5.24075E+00  7.61672E+00  1.01259E+01  1.29177E+01  1.61734E+01  1.98722E+01
   2.38173E+01  2.80371E+01  3.23479E+01  3.25521E+01  3.36963E+01  3.25662E+01  1.98219E+01 -6.59667E+00 -4.21722E+01 -7.50574E+01
  -9.73250E+01 -1.05595E+02 -9.99712E+01 -8.94183E+01 -8.13841E+01 -7.83591E+01 -7.61987E+01 -7.52030E+01 -7.75268E+01 -8.11566E+01
  -8.47574E+01 -8.76311E+01 -8.92317E+01 -8.88072E+01 -8.58808E+01 -8.04472E+01 -7.51323E+01 -6.91024E+01 -6.23843E+01 -5.97098E+01
  -6.35737E+01 -7.47126E+01 -8.87425E+01 -1.00123E+02 -1.05322E+02 -1.03134E+02 -9.73684E+01 -9.19960E+01 -8.83717E+01 -8.51928E+01
  -8.21601E+01 -8.09244E+01 -8.10974E+01 -8.23496E+01 -8.41476E+01 -8.57274E+01 -8.64470E+01 -8.61810E+01 -8.50249E+01 -8.29142E+01
  -8.00102E+01 -7.64628E+01 -7.24919E+01 -6.82592E+01 -6.39200E+01 -5.96749E+01 -5.55981E+01 -5.16166E+01 -4.76318E+01 -4.35741E+01
  -3.95112E+01 -3.53920E+01 -3.12903E+01 -2.69508E+01 -2.21237E+01 -1.68561E+01 -1.12927E+01 -5.33059E+00  1.28370E+00  8.45611E+00
   1.58707E+01  2.34688E+01  3.12640E+01  3.90171E+01  4.58833E+01  5.12204E+01  5.43930E+01  5.47515E+01  5.18132E+01  4.60187E+01
   3.86972E+01  3.10840E+01  2.37469E+01  1.68725E+01  1.04783E+01  4.22474E+00 -2.38277E+00 -9.55002E+00 -1.69844E+01 -2.43210E+01
  -3.11312E+01 -3.69911E+01 -4.16983E+01 -4.54161E+01 -4.83056E+01 -5.03732E+01 -5.16884E+01 -5.25914E+01 -5.32934E+01 -5.39062E+01
  -5.42995E+01 -5.43779E+01 -5.41696E+01 -5.39330E+01 -5.37435E+01 -5.33951E+01 -5.28936E+01 -5.25369E+01 -5.23352E+01 -5.19795E+01
  -5.13589E+01 -5.08415E+01 -5.05980E+01 -5.03481E+01 -4.98949E+01 -4.94764E+01 -4.92603E+01 -4.90416E+01 -4.86235E+01 -4.80904E+01
  -4.76997E+01 -4.74623E+01 -4.73315E+01 -4.71904E+01 -4.69949E+01 -4.67312E+01 -4.63904E+01 -4.60176E+01 -4.56603E+01 -4.53907E+01
  -4.51682E+01 -4.49412E+01 -4.47449E+01 -4.46314E+01 -4.46603E+01 -4.46395E+01 -4.45047E+01 -4.43150E+01 -4.40978E+01 -4.39112E+01
  -4.37657E+01 -4.36884E+01 -4.35755E+01 -4.33752E+01 -4.31002E+01 -4.28507E+01 -4.26379E+01 -4.24710E+01 -4.23256E+01 -4.21586E+01
  -4.19846E+01 -4.19093E+01 -4.19177E+01 -4.19319E+01 -4.18399E+01 -4.17253E+01 -4.15299E+01 -4.12364E+01 -4.08442E+01 -4.05425E+01
  -4.04855E+01 -4.06061E+01 -4.06675E+01 -4.05964E+01 -4.04747E+01 -4.03773E+01 -4.01909E+01 -3.99958E+01 -3.97968E+01 -3.96302E+01
 NY background values follow
    -9.204E+01   -9.170E+01   -9.135E+01   -9.099E+01   -9.064E+01   -9.028E+01   -8.993E+01   -8.957E+01   -8.920E+01   -8.884E+01
    -8.847E+01   -8.811E+01   -8.774E+01   -8.737E+01   -8.700E+01   -8.662E+01   -8.625E+01   -8.587E+01   -8.550E+01   -8.512E+01
    -8.474E+01   -8.436E+01   -8.398E+01   -8.359E+01   -8.321E+01   -8.282E+01   -8.244E+01   -8.205E+01   -8.166E+01   -8.128E+01
    -8.089E+01   -8.050E+01   -8.011E+01   -7.972E+01   -7.933E+01   -7.893E+01   -7.854E+01   -7.815E+01   -7.776E+01   -7.737E+01
    -7.698E+01   -7.659E+01   -7.620E+01   -7.581E+01   -7.542E+01   -7.503E+01   -7.464E+01   -7.426E+01   -7.387E+01   -7.349E+01
    -7.311E+01   -7.272E+01   -7.234E+01   -7.196E+01   -7.159E+01   -7.121E+01   -7.084E+01   -7.047E+01   -7.010E+01   -6.973E+01
    -6.936E+01   -6.900E+01   -6.864E+01   -6.828E+01   -6.792E+01   -6.756E+01   -6.721E+01   -6.686E+01   -6.651E+01   -6.616E+01
    -6.581E+01   -6.546E+01   -6.512E+01   -6.477E+01   -6.443E+01   -6.409E+01   -6.374E+01   -6.340E+01   -6.306E+01   -6.272E+01
    -6.238E+01   -6.204E+01   -6.170E+01   -6.136E+01   -6.102E+01   -6.068E+01   -6.034E+01   -6.000E+01   -5.965E+01   -5.931E+01
    -5.897E+01   -5.863E+01   -5.828E+01   -5.794E+01   -5.759E+01   -5.725E+01   -5.690E+01   -5.656E+01   -5.621E+01   -5.587E+01
    -5.553E+01   -5.519E+01   -5.485E+01   -5.451E+01   -5.417E+01   -5.384E+01   -5.351E+01   -5.318E+01   -5.285E+01   -5.252E+01
    -5.220E+01   -5.188E+01   -5.157E+01   -5.125E+01   -5.094E+01   -5.064E+01   -5.034E+01   -5.004E+01   -4.975E+01   -4.946E+01
    -4.917E+01   -4.890E+01   -4.862E+01   -4.835E+01   -4.809E+01   -4.783E+01   -4.758E+01   -4.733E+01   -4.709E+01   -4.685E+01
    -4.662E+01   -4.640E+01   -4.618E+01   -4.597E+01   -4.577E+01   -4.557E+01   -4.538E+01   -4.520E+01   -4.502E+01   -4.485E+01
    -4.468E+01   -4.453E+01   -4.438E+01   -4.424E+01   -4.411E+01   -4.398E+01   -4.386E+01   -4.375E+01   -4.365E+01   -4.356E+01
    -4.348E+01   -4.340E+01   -4.333E+01   -4.327E+01   -4.322E+01   -4.317E+01   -4.313E+01   -4.309E+01   -4.306E+01   -4.304E+01
    -4.302E+01   -4.300E+01   -4.299E+01   -4.298E+01   -4.297E+01   -4.296E+01   -4.296E+01   -4.296E+01   -4.295E+01   -4.295E+01
    -4.295E+01   -4.295E+01   -4.294E+01   -4.294E+01   -4.293E+01   -4.292E+01   -4.291E+01   -4.289E+01   -4.287E+01   -4.285E+01
    -4.282E+01   -4.279E+01   -4.275E+01   -4.271E+01   -4.266E+01   -4.260E+01   -4.255E+01   -4.248E+01   -4.241E+01   -4.233E+01
    -4.225E+01   -4.216E+01   -4.206E+01   -4.196E+01   -4.185E+01   -4.174E+01   -4.161E+01   -4.149E+01   -4.135E+01   -4.121E+01
    -4.105E+01   -4.090E+01   -4.073E+01   -4.056E+01   -4.037E+01   -4.018E+01   -3.999E+01   -3.978E+01   -3.957E+01   -3.934E+01
    -3.911E+01   -3.887E+01   -3.862E+01   -3.837E+01   -3.811E+01   -3.784E+01   -3.757E+01   -3.729E+01   -3.701E+01   -3.672E+01
    -3.644E+01   -3.615E+01   -3.586E+01   -3.557E+01   -3.527E+01   -3.498E+01   -3.470E+01   -3.441E+01   -3.412E+01   -3.384E+01
    -3.356E+01   -3.329E+01   -3.302E+01   -3.276E+01   -3.251E+01   -3.226E+01   -3.202E+01   -3.178E+01   -3.156E+01   -3.135E+01
    -3.114E+01   -3.095E+01   -3.077E+01   -3.060E+01   -3.045E+01   -3.031E+01   -3.018E+01   -3.006E+01   -2.997E+01   -2.988E+01
    -2.982E+01   -2.977E+01   -2.974E+01   -2.973E+01   -2.973E+01   -2.976E+01   -2.981E+01   -2.988E+01   -2.997E+01   -3.008E+01
    -3.021E+01   -3.037E+01   -3.055E+01   -3.076E+01   -3.099E+01   -3.125E+01   -3.153E+01   -3.185E+01   -3.219E+01   -3.255E+01
    -3.295E+01   -3.338E+01   -3.383E+01   -3.431E+01   -3.482E+01   -3.535E+01   -3.591E+01   -3.650E+01   -3.710E+01   -3.773E+01
    -3.838E+01   -3.905E+01   -3.975E+01   -4.046E+01   -4.119E+01   -4.194E+01   -4.270E+01   -4.348E+01   -4.428E+01   -4.509E+01
    -4.592E+01   -4.676E+01   -4.761E+01   -4.848E+01   -4.935E+01   -5.024E+01   -5.113E+01   -5.203E+01   -5.295E+01   -5.386E+01
    -5.479E+01   -5.572E+01   -5.665E+01   -5.758E+01   -5.852E+01   -5.945E+01   -6.038E+01   -6.131E+01   -6.223E+01   -6.314E+01
    -6.405E+01   -6.494E+01   -6.582E+01   -6.669E+01   -6.754E+01   -6.838E+01   -6.920E+01   -7.000E+01   -7.077E+01   -7.153E+01
    -7.226E+01   -7.296E+01   -7.364E+01   -7.429E+01   -7.490E+01   -7.549E+01   -7.604E+01   -7.655E+01   -7.703E+01   -7.747E+01
    -7.787E+01   -7.823E+01   -7.855E+01   -7.884E+01   -7.908E+01   -7.928E+01   -7.945E+01   -7.958E+01   -7.967E+01   -7.973E+01
    -7.975E+01   -7.974E+01   -7.969E+01   -7.960E+01   -7.949E+01   -7.933E+01   -7.915E+01   -7.893E+01   -7.868E+01   -7.840E+01
    -7.809E+01   -7.775E+01   -7.737E+01   -7.697E+01   -7.654E+01   -7.608E+01   -7.559E+01   -7.507E+01   -7.452E+01   -7.395E+01
    -7.335E+01   -7.273E+01   -7.208E+01   -7.141E+01   -7.072E+01   -7.000E+01   -6.927E+01   -6.853E+01   -6.776E+01   -6.699E+01
    -6.620E+01   -6.540E+01   -6.459E+01   -6.377E+01   -6.294E+01   -6.211E+01   -6.127E+01   -6.043E+01   -5.959E+01   -5.875E+01
    -5.791E+01   -5.708E+01   -5.624E+01   -5.542E+01   -5.460E+01   -5.379E+01   -5.299E+01   -5.220E+01   -5.142E+01   -5.066E+01
    -4.991E+01   -4.918E+01   -4.846E+01   -4.776E+01   -4.707E+01   -4.641E+01   -4.575E+01   -4.512E+01   -4.450E+01   -4.390E+01
    -4.331E+01   -4.274E+01   -4.218E+01   -4.165E+01   -4.113E+01   -4.062E+01   -4.013E+01   -3.966E+01   -3.921E+01   -3.877E+01
    -3.835E+01   -3.795E+01   -3.756E+01   -3.720E+01   -3.684E+01   -3.651E+01   -3.619E+01   -3.589E+01   -3.561E+01   -3.535E+01
    -3.510E+01   -3.487E+01   -3.466E+01   -3.446E+01   -3.428E+01   -3.411E+01   -3.396E+01   -3.383E+01   -3.370E+01   -3.359E+01
    -3.350E+01   -3.341E+01   -3.334E+01   -3.328E+01   -3.322E+01   -3.318E+01   -3.315E+01   -3.313E+01   -3.312E+01   -3.311E+01
    -3.312E+01   -3.313E+01   -3.315E+01   -3.317E+01   -3.320E+01   -3.324E+01   -3.328E+01   -3.332E+01   -3.337E+01   -3.342E+01
    -3.348E+01   -3.354E+01   -3.360E+01   -3.366E+01   -3.373E+01   -3.379E+01   -3.386E+01   -3.394E+01   -3.401E+01   -3.409E+01
    -3.416E+01   -3.424E+01   -3.432E+01   -3.441E+01   -3.449E+01   -3.457E+01   -3.466E+01   -3.475E+01   -3.483E+01   -3.492E+01
    -3.501E+01   -3.510E+01   -3.518E+01   -3.527E+01   -3.536E+01   -3.545E+01   -3.554E+01   -3.562E+01   -3.571E+01   -3.579E+01
 Mac      Conc. = 2.75E-04
  -1.11162E+02 -1.11323E+02 -1.11338E+02 -1.11423E+02 -1.11710E+02 -1.12260E+02 -1.13036E+02 -1.14074E+02 -1.15130E+02 -1.15988E+02
  -1.16531E+02 -1.16830E+02 -1.17001E+02 -1.17011E+02 -1.17131E+02 -1.17756E+02 -1.18107E+02 -1.16877E+02 -1.13860E+02 -1.10185E+02
  -1.06818E+02 -1.03580E+02 -1.00382E+02 -9.76489E+01 -9.55842E+01 -9.37782E+01 -9.18319E+01 -8.97939E+01 -8.77029E+01 -8.56886E+01
  -8.39547E+01 -8.25190E+01 -8.12522E+01 -8.01219E+01 -7.93378E+01 -7.88122E+01 -7.80348E+01 -7.64596E+01 -7.42985E+01 -7.23959E+01
  -7.12479E+01 -7.06605E+01 -6.98893E+01 -6.86574E+01 -6.72302E+01 -6.61019E+01 -6.54884E+01 -6.52576E+01 -6.53890E+01 -6.58223E+01
  -6.64382E+01 -6.70418E+01 -6.74232E+01 -6.76115E+01 -6.76797E+01 -6.75551E+01 -6.69386E+01 -6.58000E+01 -6.44896E+01 -6.31924E+01
  -6.19352E+01 -6.06285E+01 -5.95688E+01 -5.90919E+01 -5.91705E+01 -5.94176E+01 -5.94571E+01 -5.92609E+01 -5.90610E+01 -5.87415E+01
  -5.77665E+01 -5.59629E+01 -5.38103E+01 -5.20038E+01 -5.07298E+01 -4.98084E+01 -4.92744E+01 -4.91678E+01 -4.93298E+01 -4.94600E+01
  -4.95000E+01 -4.94816E+01 -4.93210E+01 -4.88115E+01 -4.79723E+01 -4.70043E+01 -4.60273E+01 -4.50522E+01 -4.41028E+01 -4.32139E+01
  -4.24577E+01 -4.18504E+01 -4.14266E+01 -4.12541E+01 -4.14784E+01 -4.22052E+01 -4.34612E+01 -4.51425E+01 -4.69704E+01 -4.86806E+01
  -5.03323E+01 -5.22067E+01 -5.46448E+01 -5.75530E+01 -6.08730E+01 -6.49237E+01 -6.96604E+01 -7.43530E+01 -7.77686E+01 -7.93553E+01
