 
 $NMID
 ID=''
 FMTDAT='(2E13.5)'
 TRAMP=   1.00000E+0
 VOLUME=   1.00000E+0
 $END
   1.22521E+5   7.89302E+5
  -4.06136E+5   2.09048E+6
  -1.83998E+5   2.03847E+6
  -3.20481E+5   1.89948E+6
  -3.66326E+5   2.00799E+6
  -2.53073E+5   1.97457E+6
  -3.00326E+5   1.89639E+6
  -3.52462E+5   1.95190E+6
  -3.16510E+5   1.92563E+6
  -3.72912E+5   1.87065E+6
  -4.15745E+5   1.89540E+6
  -4.02941E+5   1.86365E+6
  -4.46443E+5   1.82084E+6
  -4.82959E+5   1.83349E+6
  -4.89577E+5   1.79851E+6
  -5.28702E+5   1.75717E+6
  -5.51447E+5   1.76456E+6
  -5.54077E+5   1.74162E+6
  -5.82342E+5   1.71108E+6
  -5.87305E+5   1.71220E+6
  -5.86462E+5   1.68697E+6
  -6.12957E+5   1.66200E+6
  -6.26618E+5   1.65669E+6
  -6.31560E+5   1.63188E+6
  -6.55297E+5   1.60501E+6
  -6.63209E+5   1.59410E+6
  -6.76819E+5   1.57000E+6
  -7.05263E+5   1.54328E+6
  -7.20399E+5   1.52247E+6
  -7.26643E+5   1.49891E+6
  -7.45620E+5   1.47848E+6
  -7.52810E+5   1.46040E+6
  -7.57272E+5   1.43576E+6
  -7.67885E+5   1.41901E+6
  -7.69437E+5   1.40219E+6
  -7.67492E+5   1.38320E+6
  -7.74076E+5   1.37092E+6
  -7.79489E+5   1.35513E+6
  -7.84122E+5   1.32945E+6
  -7.91552E+5   1.31014E+6
  -7.98162E+5   1.29091E+6
  -8.04730E+5   1.26513E+6
  -8.10694E+5   1.24258E+6
  -8.15581E+5   1.22355E+6
  -8.23372E+5   1.19961E+6
  -8.32554E+5   1.17794E+6
  -8.38308E+5   1.15735E+6
  -8.43247E+5   1.13380E+6
  -8.46302E+5   1.11172E+6
  -8.47860E+5   1.09304E+6
  -8.49796E+5   1.07458E+6
  -8.52788E+5   1.05560E+6
  -8.54929E+5   1.03803E+6
  -8.57702E+5   1.01890E+6
  -8.60680E+5   9.98982E+5
  -8.63757E+5   9.78946E+5
  -8.67498E+5   9.57126E+5
  -8.69255E+5   9.34232E+5
  -8.69591E+5   9.14273E+5
  -8.71060E+5   8.96124E+5
  -8.74274E+5   8.75988E+5
  -8.76036E+5   8.55739E+5
  -8.76185E+5   8.37098E+5
  -8.77627E+5   8.18060E+5
  -8.77777E+5   7.98069E+5
  -8.75011E+5   7.78936E+5
  -8.72544E+5   7.61264E+5
  -8.72286E+5   7.44545E+5
  -8.72139E+5   7.26946E+5
  -8.71912E+5   7.08261E+5
  -8.71531E+5   6.89367E+5
  -8.69224E+5   6.71572E+5
  -8.67419E+5   6.53767E+5
  -8.66736E+5   6.36780E+5
  -8.64608E+5   6.19245E+5
  -8.61949E+5   6.01792E+5
  -8.59568E+5   5.85200E+5
  -8.56908E+5   5.69157E+5
  -8.54053E+5   5.52903E+5
  -8.51477E+5   5.35866E+5
  -8.47843E+5   5.19522E+5
  -8.42765E+5   5.03577E+5
  -8.39637E+5   4.88438E+5
  -8.36787E+5   4.72192E+5
  -8.32732E+5   4.54690E+5
  -8.27991E+5   4.38445E+5
  -8.23637E+5   4.23490E+5
  -8.19689E+5   4.08163E+5
  -8.15013E+5   3.92224E+5
  -8.08914E+5   3.77532E+5
  -8.02891E+5   3.64146E+5
  -7.97818E+5   3.50904E+5
  -7.92824E+5   3.37251E+5
  -7.86571E+5   3.23836E+5
  -7.79415E+5   3.11082E+5
  -7.72320E+5   2.99243E+5
  -7.65992E+5   2.87757E+5
  -7.60446E+5   2.76265E+5
  -7.54060E+5   2.64447E+5
  -7.47397E+5   2.52596E+5
  -7.40833E+5   2.41135E+5
  -7.34485E+5   2.29443E+5
  -7.27797E+5   2.17150E+5
  -7.20312E+5   2.05216E+5
  -7.12366E+5   1.95083E+5
  -7.05527E+5   1.85411E+5
  -6.99640E+5   1.75317E+5
  -6.92304E+5   1.63957E+5
  -6.83994E+5   1.53563E+5
  -6.75908E+5   1.45021E+5
  -6.69086E+5   1.37005E+5
  -6.62918E+5   1.27554E+5
  -6.55840E+5   1.17970E+5
  -6.48355E+5   1.08597E+5
  -6.41291E+5   9.97578E+4
  -6.34649E+5   9.05682E+4
  -6.27080E+5   8.15195E+4
  -6.18836E+5   7.24330E+4
  -6.10686E+5   6.46745E+4
  -6.03279E+5   5.78126E+4
  -5.96115E+5   5.06805E+4
  -5.89402E+5   4.33851E+4
  -5.82334E+5   3.62421E+4
  -5.75248E+5   2.88213E+4
  -5.67798E+5   2.17401E+4
  -5.60214E+5   1.48581E+4
  -5.52152E+5   8.42074E+3
  -5.44495E+5   1.86716E+3
  -5.37553E+5  -4.43300E+3
  -5.30384E+5  -1.06700E+4
  -5.23622E+5  -1.83300E+4
  -5.15598E+5  -2.53610E+4
  -5.07712E+5  -3.15196E+4
  -5.00344E+5  -3.68143E+4
  -4.93476E+5  -4.24148E+4
  -4.85712E+5  -4.83567E+4
  -4.78329E+5  -5.33046E+4
  -4.71230E+5  -5.77295E+4
  -4.64586E+5  -6.26926E+4
  -4.57463E+5  -6.78384E+4
  -4.49695E+5  -7.28098E+4
  -4.42157E+5  -7.65352E+4
  -4.34707E+5  -8.01699E+4
  -4.28022E+5  -8.38979E+4
  -4.21345E+5  -8.81374E+4
  -4.14075E+5  -9.19890E+4
  -4.06324E+5  -9.60837E+4
  -3.99194E+5  -9.93800E+4
  -3.91798E+5  -1.02505E+5
  -3.84611E+5  -1.05424E+5
  -3.77141E+5  -1.08023E+5
  -3.70280E+5  -1.10584E+5
  -3.63710E+5  -1.12721E+5
  -3.57193E+5  -1.15152E+5
  -3.50580E+5  -1.17253E+5
  -3.43471E+5  -1.19004E+5
  -3.37066E+5  -1.20918E+5
  -3.30907E+5  -1.22232E+5
  -3.24452E+5  -1.23710E+5
  -3.17919E+5  -1.25019E+5
  -3.11557E+5  -1.26454E+5
  -3.05483E+5  -1.27554E+5
  -2.99048E+5  -1.28838E+5
  -2.92442E+5  -1.29743E+5
  -2.86483E+5  -1.29998E+5
  -2.80371E+5  -1.30882E+5
  -2.74972E+5  -1.31419E+5
  -2.69419E+5  -1.32327E+5
  -2.63748E+5  -1.32843E+5
  -2.57694E+5  -1.33148E+5
  -2.52421E+5  -1.33061E+5
  -2.47014E+5  -1.33123E+5
  -2.41722E+5  -1.33503E+5
  -2.36635E+5  -1.33574E+5
  -2.31369E+5  -1.33572E+5
  -2.26040E+5  -1.33511E+5
  -2.21380E+5  -1.33697E+5
  -2.16072E+5  -1.33894E+5
  -2.10755E+5  -1.33644E+5
  -2.05619E+5  -1.32919E+5
  -2.01389E+5  -1.32706E+5
  -1.97331E+5  -1.32559E+5
  -1.92241E+5  -1.32444E+5
  -1.87884E+5  -1.31970E+5
  -1.83038E+5  -1.31705E+5
  -1.78952E+5  -1.30895E+5
  -1.74742E+5  -1.30185E+5
  -1.70425E+5  -1.29313E+5
  -1.66604E+5  -1.28538E+5
  -1.62884E+5  -1.27615E+5
  -1.59240E+5  -1.27218E+5
  -1.55317E+5  -1.26966E+5
  -1.51315E+5  -1.26299E+5
  -1.47203E+5  -1.25223E+5
  -1.43502E+5  -1.24497E+5
  -1.40357E+5  -1.23373E+5
  -1.36588E+5  -1.22797E+5
  -1.32898E+5  -1.21913E+5
  -1.29763E+5  -1.20926E+5
  -1.26304E+5  -1.20189E+5
  -1.22740E+5  -1.19620E+5
  -1.19131E+5  -1.18333E+5
  -1.15794E+5  -1.17135E+5
  -1.13112E+5  -1.16056E+5
  -1.10018E+5  -1.15159E+5
  -1.07409E+5  -1.13997E+5
  -1.04101E+5  -1.12460E+5
  -1.01258E+5  -1.11692E+5
  -9.86663E+4  -1.10738E+5
  -9.55565E+4  -1.09477E+5
  -9.28955E+4  -1.08107E+5
  -9.02006E+4  -1.07197E+5
  -8.78407E+4  -1.05563E+5
  -8.58272E+4  -1.04733E+5
  -8.31307E+4  -1.03543E+5
  -8.05526E+4  -1.02267E+5
  -7.80839E+4  -1.00820E+5
  -7.58548E+4  -9.92054E+4
  -7.39641E+4  -9.81196E+4
  -7.18347E+4  -9.68782E+4
  -7.00119E+4  -9.52628E+4
  -6.80717E+4  -9.35671E+4
  -6.60847E+4  -9.25030E+4
  -6.43443E+4  -9.11676E+4
  -6.24770E+4  -8.98774E+4
  -6.06454E+4  -8.81919E+4
  -5.89436E+4  -8.67502E+4
  -5.78280E+4  -8.52571E+4
  -5.60946E+4  -8.40087E+4
  -5.44160E+4  -8.27892E+4
  -5.30389E+4  -8.13922E+4
  -5.15565E+4  -7.96092E+4
  -5.03486E+4  -7.83300E+4
  -4.90832E+4  -7.71028E+4
  -4.77658E+4  -7.56495E+4
  -4.66959E+4  -7.46200E+4
  -4.56706E+4  -7.31910E+4
  -4.47825E+4  -7.16774E+4
  -4.34840E+4  -7.07701E+4
  -4.24710E+4  -6.94324E+4
  -4.18022E+4  -6.77700E+4
  -4.10586E+4  -6.66974E+4
  -4.01324E+4  -6.55860E+4
  -3.92379E+4  -6.45046E+4
  -3.82225E+4  -6.31099E+4
  -3.75787E+4  -6.19938E+4
  -3.69487E+4  -6.11041E+4
  -3.58892E+4  -5.99735E+4
  -3.53973E+4  -5.85433E+4
  -3.46425E+4  -5.75887E+4
  -3.43835E+4  -5.64606E+4
  -3.36267E+4  -5.56639E+4
  -3.30645E+4  -5.46242E+4
  -3.26347E+4  -5.34332E+4
  -3.20772E+4  -5.22748E+4
  -3.16436E+4  -5.10947E+4
  -3.11896E+4  -5.05039E+4
  -3.09734E+4  -4.96888E+4
  -3.03683E+4  -4.89031E+4
  -2.98749E+4  -4.82133E+4
  -2.94977E+4  -4.70830E+4
  -2.90180E+4  -4.66253E+4
  -2.84467E+4  -4.55967E+4
  -2.79739E+4  -4.45523E+4
  -2.79537E+4  -4.38565E+4
  -2.77895E+4  -4.32786E+4
  -2.74609E+4  -4.25582E+4
  -2.69956E+4  -4.18230E+4
  -2.68432E+4  -4.10498E+4
  -2.63904E+4  -4.03348E+4
  -2.60079E+4  -3.96936E+4
  -2.60851E+4  -3.90389E+4
  -2.58635E+4  -3.84493E+4
  -2.58809E+4  -3.76710E+4
  -2.54614E+4  -3.70078E+4
  -2.51814E+4  -3.66168E+4
  -2.51019E+4  -3.58948E+4
  -2.47421E+4  -3.53486E+4
  -2.45930E+4  -3.45421E+4
  -2.45023E+4  -3.41286E+4
  -2.44167E+4  -3.38332E+4
  -2.40241E+4  -3.31499E+4
  -2.40633E+4  -3.25999E+4
  -2.39971E+4  -3.21305E+4
  -2.39903E+4  -3.17926E+4
  -2.35797E+4  -3.13163E+4
  -2.33854E+4  -3.06311E+4
  -2.35495E+4  -3.00579E+4
  -2.34839E+4  -2.97921E+4
  -2.33013E+4  -2.95443E+4
  -2.32501E+4  -2.91150E+4
  -2.29400E+4  -2.86788E+4
  -2.30681E+4  -2.83330E+4
  -2.27953E+4  -2.78479E+4
  -2.27086E+4  -2.76158E+4
  -2.25800E+4  -2.76060E+4
  -2.27669E+4  -2.72292E+4
  -2.27338E+4  -2.67626E+4
  -2.23577E+4  -2.64211E+4
  -2.22853E+4  -2.64333E+4
  -2.22258E+4  -2.58366E+4
  -2.21348E+4  -2.58441E+4
  -2.20638E+4  -2.56583E+4
  -2.21816E+4  -2.56726E+4
  -2.19377E+4  -2.51784E+4
  -2.15861E+4  -2.51876E+4
  -2.18062E+4  -2.47395E+4
  -2.17505E+4  -2.47398E+4
  -2.14940E+4  -2.46284E+4
  -2.12144E+4  -2.45402E+4
  -2.12986E+4  -2.44233E+4
  -2.13966E+4  -2.44786E+4
  -2.10123E+4  -2.44335E+4
  -2.09966E+4  -2.44245E+4
  -2.04887E+4  -2.42594E+4
  -2.09651E+4  -2.40791E+4
  -2.06544E+4  -2.41041E+4
  -2.06246E+4  -2.39684E+4
  -2.02329E+4  -2.40422E+4
  -2.01724E+4  -2.40052E+4
  -2.01861E+4  -2.40594E+4
  -1.98940E+4  -2.41155E+4
  -1.99765E+4  -2.41143E+4
  -1.96809E+4  -2.40559E+4
  -1.96264E+4  -2.40068E+4
  -1.95288E+4  -2.41120E+4
  -1.94587E+4  -2.43626E+4
  -1.91662E+4  -2.45444E+4
  -1.91094E+4  -2.45464E+4
  -1.88507E+4  -2.43218E+4
  -1.86067E+4  -2.44261E+4
  -1.86862E+4  -2.45324E+4
  -1.82704E+4  -2.46293E+4
  -1.82511E+4  -2.47779E+4
  -1.79293E+4  -2.46003E+4
  -1.81846E+4  -2.48355E+4
  -1.77337E+4  -2.47982E+4
  -1.74165E+4  -2.49639E+4
  -1.72320E+4  -2.48879E+4
  -1.72874E+4  -2.50195E+4
  -1.70537E+4  -2.50557E+4
  -1.67176E+4  -2.54026E+4
  -1.65349E+4  -2.50120E+4
  -1.63925E+4  -2.53096E+4
  -1.62593E+4  -2.51814E+4
  -1.60909E+4  -2.51894E+4
  -1.59325E+4  -2.55320E+4
  -1.56993E+4  -2.54024E+4
  -1.54277E+4  -2.58429E+4
  -1.54398E+4  -2.54888E+4
  -1.48810E+4  -2.57716E+4
  -1.49647E+4  -2.58684E+4
  -1.45759E+4  -2.57001E+4
  -1.43778E+4  -2.58836E+4
  -1.41778E+4  -2.58349E+4
  -1.38536E+4  -2.56730E+4
  -1.36007E+4  -2.57417E+4
  -1.34759E+4  -2.58259E+4
  -1.31977E+4  -2.58539E+4
  -1.29078E+4  -2.59750E+4
  -1.26778E+4  -2.61366E+4
  -1.23534E+4  -2.58634E+4
  -1.22391E+4  -2.57999E+4
  -1.19801E+4  -2.58616E+4
  -1.16196E+4  -2.59071E+4
  -1.12716E+4  -2.57793E+4
  -1.09995E+4  -2.57867E+4
