 LCModel (Version 6.3-1N) Copyright: S.W. Provencher.          Ref.: Magn. Reson. Med. 30:672-679 (1993).                
 Slice_N1@13_24  28-Feb-2025 11:40:11
 27 lines in following concentration table = NCONC+1
    Conc.  %SD /Cr+PCr  Metabolite                                         
 3.67E-04   4% 3.8E-04 Mac                                                 
    1.828  99%   1.916 Cr                                                  
    5.807  32%   6.084 PCr                                                 
    9.526  12%   9.982 Ins                                                 
   14.270   8%  14.953 NAA                                                 
    4.082  28%   4.277 Tau                                                 
    0.279 129%   0.293 PCho                                                
    0.000 999%   0.000 GPC                                                 
    9.888  13%  10.361 Glu                                                 
    2.798  34%   2.932 Gln                                                 
    0.000 999%   0.000 Ala                                                 
    3.727  43%   3.905 Asc                                                 
    2.408  49%   2.523 Asp                                                 
    0.401 158%   0.420 GABA                                                
    0.258 310%   0.271 Glc                                                 
    0.469 109%   0.491 GSH                                                 
    0.000 999%   0.000 Lac                                                 
    2.432  36%   2.548 NAAG                                                
    6.893  20%   7.222 PE                                                  
    0.279 129%   0.293 GPC+PCho                                            
   16.702   6%  17.501 NAA+NAAG                                            
   12.686  12%  13.293 Glu+Gln                                             
    7.635  11%   8.000 Cr+PCr                                              
   16.702   6%  17.501 NAA+NAAG                                            
    7.635  11%   8.000 Cr+PCr                                              
   12.686  12%  13.293 Glu+Gln                                             
   6 lines in following misc. output table
  FWHM = 0.033 ppm    S/N =   4                                            
  Data shift =-0.008 ppm                                                   
  Ph: -47 deg       0.0 deg/ppm                                            
  alphaB,S = 3.6E-01,   5.5E+00                                            
   19 spline knots.   Ns = 5(1)                                            
  ( 4) 2 infls.   ( 3) 1 extrs.                                            
  480 points on ppm-axis = NY
      4.100000     4.091866     4.083733     4.075600     4.067466     4.059333     4.051199     4.043066     4.034933     4.026799
      4.018666     4.010532     4.002399     3.994265     3.986132     3.977998     3.969864     3.961731     3.953597     3.945463
      3.937330     3.929196     3.921062     3.912929     3.904795     3.896662     3.888528     3.880394     3.872261     3.864127
      3.855993     3.847860     3.839726     3.831592     3.823459     3.815325     3.807191     3.799058     3.790924     3.782790
      3.774657     3.766523     3.758389     3.750256     3.742122     3.733989     3.725855     3.717721     3.709588     3.701454
      3.693320     3.685187     3.677053     3.668919     3.660786     3.652652     3.644518     3.636385     3.628251     3.620117
      3.611984     3.603850     3.595716     3.587583     3.579449     3.571316     3.563182     3.555048     3.546915     3.538781
      3.530647     3.522514     3.514380     3.506246     3.498113     3.489979     3.481845     3.473712     3.465578     3.457444
      3.449311     3.441177     3.433043     3.424910     3.416776     3.408643     3.400509     3.392375     3.384242     3.376108
      3.367974     3.359841     3.351707     3.343573     3.335440     3.327306     3.319172     3.311039     3.302905     3.294771
      3.286638     3.278504     3.270370     3.262237     3.254103     3.245970     3.237836     3.229702     3.221569     3.213435
      3.205301     3.197168     3.189034     3.180900     3.172767     3.164633     3.156499     3.148366     3.140232     3.132098
      3.123965     3.115831     3.107697     3.099564     3.091430     3.083297     3.075163     3.067029     3.058896     3.050762
      3.042628     3.034495     3.026361     3.018227     3.010094     3.001960     2.993826     2.985693     2.977559     2.969425
      2.961292     2.953158     2.945024     2.936891     2.928757     2.920624     2.912490     2.904356     2.896223     2.888089
      2.879955     2.871822     2.863688     2.855554     2.847421     2.839287     2.831153     2.823020     2.814886     2.806752
      2.798619     2.790485     2.782351     2.774218     2.766084     2.757951     2.749817     2.741683     2.733550     2.725416
      2.717282     2.709149     2.701015     2.692881     2.684748     2.676614     2.668480     2.660347     2.652213     2.644079
      2.635946     2.627812     2.619678     2.611545     2.603411     2.595278     2.587144     2.579010     2.570877     2.562743
      2.554609     2.546476     2.538342     2.530208     2.522075     2.513941     2.505807     2.497674     2.489540     2.481406
      2.473273     2.465139     2.457006     2.448872     2.440738     2.432605     2.424471     2.416337     2.408204     2.400070
      2.391936     2.383803     2.375669     2.367535     2.359402     2.351268     2.343134     2.335001     2.326867     2.318733
      2.310600     2.302466     2.294333     2.286199     2.278065     2.269932     2.261798     2.253664     2.245531     2.237397
      2.229263     2.221130     2.212996     2.204862     2.196729     2.188595     2.180461     2.172328     2.164194     2.156060
      2.147927     2.139793     2.131660     2.123526     2.115392     2.107259     2.099125     2.090991     2.082858     2.074724
      2.066590     2.058457     2.050323     2.042189     2.034056     2.025922     2.017788     2.009655     2.001521     1.993387
      1.985254     1.977120     1.968987     1.960853     1.952719     1.944586     1.936452     1.928318     1.920185     1.912051
      1.903917     1.895784     1.887650     1.879516     1.871383     1.863249     1.855115     1.846982     1.838848     1.830714
      1.822581     1.814447     1.806314     1.798180     1.790046     1.781913     1.773779     1.765645     1.757512     1.749378
      1.741244     1.733111     1.724977     1.716843     1.708710     1.700576     1.692442     1.684309     1.676175     1.668041
      1.659908     1.651774     1.643641     1.635507     1.627373     1.619240     1.611106     1.602972     1.594839     1.586705
      1.578571     1.570438     1.562304     1.554170     1.546037     1.537903     1.529769     1.521636     1.513502     1.505368
      1.497235     1.489101     1.480968     1.472834     1.464700     1.456567     1.448433     1.440299     1.432166     1.424032
      1.415898     1.407765     1.399631     1.391497     1.383364     1.375230     1.367096     1.358963     1.350829     1.342695
      1.334562     1.326428     1.318295     1.310161     1.302027     1.293894     1.285760     1.277626     1.269493     1.261359
      1.253225     1.245092     1.236958     1.228824     1.220691     1.212557     1.204423     1.196290     1.188156     1.180022
      1.171889     1.163755     1.155622     1.147488     1.139354     1.131221     1.123087     1.114953     1.106820     1.098686
      1.090552     1.082419     1.074285     1.066151     1.058018     1.049884     1.041750     1.033617     1.025483     1.017349
      1.009216     1.001082     0.992949     0.984815     0.976681     0.968548     0.960414     0.952280     0.944147     0.936013
      0.927879     0.919746     0.911612     0.903478     0.895345     0.887211     0.879077     0.870944     0.862810     0.854676
      0.846543     0.838409     0.830276     0.822142     0.814008     0.805875     0.797741     0.789607     0.781474     0.773340
      0.765206     0.757073     0.748939     0.740805     0.732672     0.724538     0.716404     0.708271     0.700137     0.692003
      0.683870     0.675736     0.667603     0.659469     0.651335     0.643202     0.635068     0.626934     0.618801     0.610667
      0.602533     0.594400     0.586266     0.578132     0.569999     0.561865     0.553731     0.545598     0.537464     0.529330
      0.521197     0.513063     0.504930     0.496796     0.488662     0.480529     0.472395     0.464261     0.456128     0.447994
      0.439861     0.431727     0.423593     0.415460     0.407326     0.399192     0.391059     0.382925     0.374792     0.366658
      0.358524     0.350391     0.342257     0.334124     0.325990     0.317856     0.309723     0.301589     0.293455     0.285322
      0.277188     0.269055     0.260921     0.252787     0.244654     0.236520     0.228386     0.220253     0.212119     0.203986
 NY phased data points follow
   6.10939E+01  7.00208E+01  7.61697E+01  7.11314E+01  6.94797E+01  7.54613E+01  7.69996E+01  7.87012E+01  8.64589E+01  9.46166E+01
   6.80052E+01  1.07062E+02  1.05833E+02  8.67376E+01  1.05170E+02  9.64813E+01  9.98883E+01  1.13256E+02  1.09913E+02  8.07861E+01
   1.01583E+02  9.55600E+01  1.14833E+02  1.66767E+02  1.75862E+02  1.85980E+02  2.00140E+02  2.05104E+02  1.81922E+02  2.07884E+02
   1.84084E+02  1.49450E+02  1.83157E+02  1.87774E+02  1.85344E+02  1.64083E+02  1.49217E+02  1.68473E+02  1.45965E+02  1.29797E+02
   1.37190E+02  9.13262E+01  1.01206E+02  1.22776E+02  1.34329E+02  1.48338E+02  1.38779E+02  1.69741E+02  1.69416E+02  1.78709E+02
   1.83441E+02  1.56714E+02  1.52550E+02  1.76051E+02  1.48858E+02  1.16807E+02  1.53698E+02  1.20271E+02  1.08582E+02  1.16640E+02
   1.00896E+02  1.19036E+02  1.24948E+02  1.35700E+02  1.24474E+02  1.34810E+02  1.56401E+02  1.27332E+02  1.02865E+02  9.31765E+01
   1.13695E+02  1.19133E+02  9.81823E+01  1.31592E+02  1.46462E+02  1.33324E+02  1.36197E+02  1.36896E+02  1.42847E+02  1.42769E+02
   1.36716E+02  1.27590E+02  1.30986E+02  1.43095E+02  1.17496E+02  9.23324E+01  1.31982E+02  1.22269E+02  1.23577E+02  1.67248E+02
   1.53610E+02  1.65529E+02  1.67208E+02  1.65612E+02  1.66357E+02  1.85326E+02  1.95503E+02  1.90417E+02  1.95433E+02  1.67355E+02
   1.87757E+02  1.60782E+02  1.35977E+02  1.54709E+02  1.36865E+02  1.17010E+02  9.99469E+01  8.48897E+01  5.58319E+01  3.79282E+01
   1.38585E+01  1.33752E+01  4.73534E+00  3.70831E+01  8.49377E+01  6.34118E+01  6.62714E+01  9.18967E+01  1.03313E+02  7.17749E+01
   9.60347E+01  1.15826E+02  9.36789E+01  9.85616E+01  1.09876E+02  1.25744E+02  1.24067E+02  1.54828E+02  1.68733E+02  1.88401E+02
   1.96416E+02  1.76151E+02  1.25530E+02  3.31149E+01  1.54022E+01  3.52801E+00  2.42849E+01  3.96479E+01 -9.58066E-01  1.89391E+01
   2.13052E+01  5.40218E+00  1.84334E+01  1.05447E+01  8.99695E+00  3.04529E+01  3.94216E+01  2.15019E+01  1.52557E+01  2.22567E+01
   1.30991E+01  2.62259E+01  4.16645E+01  3.79112E+01  3.58620E+01  4.18490E+01  4.67486E+01  3.91539E+01  4.31446E+01  4.41855E+01
   5.18475E+01  9.66270E+01  9.86687E+01  4.85368E+01  4.38941E+01  4.72630E+01  4.66097E+01  4.46402E+01  4.53364E+01  5.12801E+01
   5.07261E+01  9.48620E+01  1.02880E+02  1.04349E+02  1.08507E+02  9.29807E+01  1.11550E+02  1.07232E+02  8.97785E+01  7.08107E+01
   3.79328E+01  1.08592E+01  5.11388E+00  3.06760E+00  1.57152E+01  1.22719E+01  2.15248E+01  4.03153E+01  2.84608E+01  3.49560E+01
   1.79195E+01  1.41897E+01  2.31456E+01  5.94270E+01  5.11892E+01  1.23093E+01  4.62283E+01  5.43149E+01  6.14534E+01  6.04807E+01
   5.57647E+01  4.92464E+01  5.85641E+01  6.87591E+01  6.21437E+01  5.60078E+01  3.67832E+01  3.62773E+01  1.38115E+01  1.09197E+01
   1.50526E+01  3.52339E+01  1.14358E+01  1.13939E+01  6.68997E+01  4.10386E+01  8.01274E+01  1.07138E+02  9.17793E+01  8.52382E+01
   7.05552E+01  5.89336E+01  4.99765E+01  5.36106E+01  3.72250E+01  5.60974E+01  4.76721E+01  5.05416E+01  5.18344E+01  3.39369E+01
   6.70675E+01  4.31946E+01  2.08174E+01  2.46285E+01  5.79621E+00  8.33356E+00 -1.51378E+01 -2.93163E+01 -2.73206E+01 -5.12290E+01
  -2.06375E+01 -1.69951E+01 -1.25918E+01 -3.56876E-01 -2.24885E+01  3.70363E-02 -9.85514E+00 -1.63962E+01 -1.19061E+01 -1.49735E+00
  -8.86401E+00 -3.35370E+01 -3.77939E+01 -4.35781E+01 -5.25952E+01 -9.49884E+01 -6.43154E+01  1.32495E+01  1.20691E+02  2.31933E+02
   2.71450E+02  2.14390E+02  1.67974E+02  2.32584E+02  2.06470E+02  1.69611E+02  1.51360E+02  1.42338E+02  1.61597E+02  1.31323E+02
   1.31179E+02  1.15147E+02  1.17993E+02  1.20220E+02  1.04367E+02  1.17640E+02  1.26635E+02  1.42256E+02  1.39359E+02  1.35315E+02
   1.42842E+02  1.18296E+02  9.70244E+01  1.18005E+02  1.20131E+02  1.18347E+02  1.15887E+02  1.18240E+02  1.13436E+02  9.27877E+01
   1.06518E+02  8.76051E+01  7.95040E+01  9.25160E+01  8.02010E+01  8.39388E+01  8.94068E+01  6.37857E+01  4.38865E+01  4.86563E+01
   4.17313E+01  6.94148E+01  8.64892E+01  8.01678E+01  9.31340E+01  9.62224E+01  9.42050E+01  8.21621E+01  1.01351E+02  1.04155E+02
   7.11919E+01  7.70053E+01  8.18848E+01  8.74121E+01  1.01204E+02  8.57397E+01  6.86847E+01  6.76682E+01  6.27702E+01  5.66367E+01
   5.75957E+01  6.08038E+01  5.42838E+01  4.40850E+01  8.53092E+01  9.87693E+01  7.44259E+01  1.05170E+02  6.52392E+01  4.14342E+01
   6.80115E+01  2.76954E+01  1.47097E+01  4.19761E+00  7.02352E-01 -4.40027E+00  2.96046E+00  1.48158E+01 -2.35149E+01 -1.85407E+01
  -2.18680E+01 -7.74506E+00  1.87913E+01 -1.01121E+01 -2.06693E+00  2.00233E+01  3.64653E+01  5.40540E+01  4.66461E+01  4.93329E+01
   5.64671E+01  4.96761E+01  6.35791E+01  6.72526E+01  6.07121E+01  6.98318E+01  4.98499E+01  3.00409E+01  2.70211E+01  3.37328E+01
   5.26299E+01  4.94668E+01  4.47227E+01  4.60893E+01  4.34561E+01  5.36729E+01  5.73261E+01  4.32717E+01  4.24530E+01  5.54909E+01
   7.01222E+01  8.35580E+01  7.80777E+01  9.87186E+01  9.85522E+01  6.72338E+01  8.86047E+01  9.41832E+01  1.16343E+02  1.35679E+02
   1.34153E+02  1.45129E+02  1.39467E+02  1.49316E+02  1.35865E+02  1.68709E+02  1.74058E+02  1.72534E+02  2.24611E+02  1.92442E+02
   1.92437E+02  1.84167E+02  1.61409E+02  1.66662E+02  1.34018E+02  1.21770E+02  1.31035E+02  1.19726E+02  1.02158E+02  9.26468E+01
   6.43481E+01  8.65728E+01  7.86803E+01  4.25715E+01  4.46320E+01  3.55205E+01  4.74103E+01  2.94900E+01  2.87329E+01  2.94837E+01
   2.36762E+01  2.21609E+01 -6.10615E-02 -9.10522E+00 -1.19206E+01  2.60336E+01  3.24001E+01  2.70345E+01  2.42496E+01  9.86304E+00
   2.46758E+01  2.27140E+01  2.30265E+01  2.35247E+01  8.69168E+00  1.94671E+01  2.98668E+01  3.34502E+00  7.29064E+00  9.23925E+00
   1.32564E+01  1.79154E+01  2.41766E+00  2.18312E+01  2.45292E+01  1.64886E+01 -1.19236E-01  4.04513E+01  3.37828E+01 -1.50197E+01
   3.51133E+01  1.05089E+01  1.42584E+01  3.10919E+01 -5.24833E+00  2.60728E+01  1.51259E+01 -4.95919E+00  2.38805E+01  3.21286E+01
   2.69297E+01  2.22918E+01  5.15396E+00  1.52182E+01  3.81081E+01  2.21768E+01  1.75222E+01  3.62529E+01  3.50667E+01  2.28053E+01
   1.56193E+01  1.81199E+01  1.52615E+01  2.18447E+00  1.35827E+01  2.30798E+01  2.05623E+01  2.07142E+01  2.87797E+01  2.79467E+01
   2.08922E+01  4.19612E+01  2.17588E+01 -2.49820E+00  1.18989E+01  1.00438E+01  2.05174E+01  3.22991E+01  1.89252E+01  1.25493E+01
 NY points of the fit to the data follow
   1.12875E+02  1.06762E+02  9.79698E+01  8.67974E+01  8.20208E+01  8.85388E+01  1.02200E+02  1.14215E+02  1.16224E+02  1.04402E+02
   8.85924E+01  7.91989E+01  7.39102E+01  7.25769E+01  7.75949E+01  8.56535E+01  9.40950E+01  1.02610E+02  9.85603E+01  8.76482E+01
   8.72645E+01  9.91859E+01  1.22516E+02  1.51985E+02  1.68004E+02  1.66687E+02  1.69162E+02  1.71208E+02  1.72038E+02  1.74417E+02
   1.74901E+02  1.73808E+02  1.71787E+02  1.69605E+02  1.66612E+02  1.62527E+02  1.57875E+02  1.53143E+02  1.45834E+02  1.33989E+02
   1.20382E+02  1.08639E+02  1.02480E+02  1.04984E+02  1.16311E+02  1.30528E+02  1.45782E+02  1.59293E+02  1.67431E+02  1.70160E+02
   1.71560E+02  1.71453E+02  1.69022E+02  1.67286E+02  1.60265E+02  1.49371E+02  1.42426E+02  1.30793E+02  1.16055E+02  1.11865E+02
   1.08890E+02  1.06719E+02  1.19023E+02  1.31801E+02  1.36877E+02  1.51287E+02  1.62197E+02  1.53222E+02  1.31836E+02  1.08244E+02
   9.24623E+01  8.61036E+01  9.36622E+01  1.09227E+02  1.18202E+02  1.29561E+02  1.47143E+02  1.55099E+02  1.56503E+02  1.58050E+02
   1.57462E+02  1.52521E+02  1.43581E+02  1.34655E+02  1.27938E+02  1.26742E+02  1.31062E+02  1.39673E+02  1.46373E+02  1.53580E+02
   1.57891E+02  1.61321E+02  1.65090E+02  1.68684E+02  1.71377E+02  1.73760E+02  1.76755E+02  1.78081E+02  1.75144E+02  1.73030E+02
   1.70611E+02  1.62117E+02  1.53122E+02  1.41692E+02  1.25009E+02  1.10906E+02  9.68571E+01  7.59339E+01  4.93092E+01  2.53072E+01
   5.82146E+00  3.94928E+00  1.23055E+01  2.99261E+01  4.52313E+01  5.24891E+01  6.08550E+01  6.88897E+01  7.62869E+01  8.31170E+01
   8.97536E+01  9.63238E+01  1.03684E+02  1.12079E+02  1.21704E+02  1.33231E+02  1.47672E+02  1.59814E+02  1.68915E+02  1.91955E+02
   2.05540E+02  1.77502E+02  1.24477E+02  6.12297E+01  1.22418E+01  4.67238E+00  2.58464E+01  1.96631E+01  1.62146E+01  1.63746E+01
   1.61596E+01  1.60876E+01  1.65191E+01  1.68930E+01  1.72645E+01  1.80376E+01  1.96805E+01  2.21548E+01  2.50913E+01  2.82228E+01
   3.10760E+01  3.34571E+01  3.51992E+01  3.72525E+01  3.96265E+01  4.21667E+01  4.41226E+01  4.48436E+01  4.49791E+01  4.61199E+01
   4.84425E+01  4.99665E+01  4.95743E+01  4.77436E+01  4.61827E+01  4.70321E+01  4.95686E+01  5.08661E+01  4.99181E+01  5.07852E+01
   5.94474E+01  7.45748E+01  8.56615E+01  8.54135E+01  7.85461E+01  7.56143E+01  8.29970E+01  9.12063E+01  8.72817E+01  7.11723E+01
   5.33199E+01  4.28990E+01  3.87089E+01  3.54872E+01  3.05128E+01  2.83537E+01  2.74978E+01  2.71639E+01  2.69984E+01  2.81870E+01
   2.97446E+01  2.87698E+01  3.16750E+01  4.02402E+01  4.64510E+01  5.22383E+01  5.72255E+01  5.90051E+01  6.27598E+01  6.78371E+01
   6.61006E+01  6.39872E+01  6.50501E+01  6.36104E+01  6.06870E+01  5.09529E+01  4.02892E+01  3.41022E+01  2.75095E+01  2.12333E+01
   1.54433E+01  1.49805E+01  1.69966E+01  2.38824E+01  4.19753E+01  6.18217E+01  7.97352E+01  9.38651E+01  9.65831E+01  8.83607E+01
   8.26387E+01  7.57822E+01  6.99717E+01  7.30482E+01  7.33224E+01  7.28110E+01  7.00237E+01  6.41550E+01  5.62354E+01  4.55371E+01
   3.31323E+01  2.09117E+01  9.02688E+00 -2.70710E+00 -1.13912E+01 -1.80369E+01 -2.32240E+01 -2.48008E+01 -2.34779E+01 -2.31119E+01
  -2.05029E+01 -1.70455E+01 -1.43888E+01 -9.07558E+00 -4.54214E+00 -1.73665E+00 -1.73433E+00 -4.87304E+00 -1.08010E+01 -1.58372E+01
  -2.66071E+01 -4.19946E+01 -4.75745E+01 -4.17442E+01 -6.89652E+01 -1.01326E+02 -7.62681E+01 -5.38753E+00  9.85201E+01  1.97644E+02
   2.19601E+02  1.74606E+02  1.72241E+02  1.71061E+02  1.63681E+02  1.57090E+02  1.51258E+02  1.45476E+02  1.40194E+02  1.36203E+02
   1.33323E+02  1.31732E+02  1.30679E+02  1.30335E+02  1.29748E+02  1.29051E+02  1.27882E+02  1.26629E+02  1.25216E+02  1.23617E+02
   1.21724E+02  1.18958E+02  1.16326E+02  1.13546E+02  1.10823E+02  1.07985E+02  1.04867E+02  1.01537E+02  9.81551E+01  9.41845E+01
   8.96432E+01  8.48526E+01  7.96764E+01  7.46821E+01  7.04057E+01  6.72709E+01  6.60658E+01  6.68615E+01  6.85674E+01  7.09139E+01
   7.36223E+01  7.65747E+01  7.97515E+01  8.30930E+01  8.62160E+01  8.88165E+01  9.12863E+01  9.39245E+01  9.68193E+01  9.99240E+01
   1.02912E+02  1.05248E+02  1.07197E+02  1.09122E+02  1.10678E+02  1.11746E+02  1.12416E+02  1.11875E+02  1.10471E+02  1.08579E+02
   1.05801E+02  1.02167E+02  9.82979E+01  9.35202E+01  8.81045E+01  8.21201E+01  7.47217E+01  6.49723E+01  5.37849E+01  4.20662E+01
   3.10451E+01  2.18965E+01  1.47768E+01  1.02202E+01  9.08977E+00  1.11541E+01  1.52523E+01  2.00702E+01  2.43918E+01  2.74403E+01
   3.00498E+01  3.30484E+01  3.66158E+01  4.13698E+01  4.65995E+01  5.10829E+01  5.41804E+01  5.60797E+01  5.67782E+01  5.65937E+01
   5.58199E+01  5.37944E+01  5.02437E+01  4.52989E+01  3.98279E+01  3.46664E+01  3.06018E+01  2.86634E+01  2.85543E+01  2.97604E+01
   3.21471E+01  3.57004E+01  3.97141E+01  4.41875E+01  4.87601E+01  5.31453E+01  5.73482E+01  6.12320E+01  6.50938E+01  6.90729E+01
   7.30353E+01  7.72398E+01  8.13197E+01  8.53960E+01  9.02932E+01  9.57938E+01  1.01627E+02  1.08436E+02  1.15970E+02  1.23927E+02
   1.32599E+02  1.42052E+02  1.51491E+02  1.61311E+02  1.71081E+02  1.79084E+02  1.84106E+02  1.84955E+02  1.80462E+02  1.70791E+02
   1.58301E+02  1.45192E+02  1.33146E+02  1.23086E+02  1.14321E+02  1.05805E+02  9.66608E+01  8.67080E+01  7.52491E+01  6.34675E+01
   5.26474E+01  4.33365E+01  3.55985E+01  2.97966E+01  2.54977E+01  2.20569E+01  1.98129E+01  1.81767E+01  1.68520E+01  1.53471E+01
   1.40827E+01  1.32715E+01  1.29105E+01  1.27463E+01  1.27007E+01  1.27928E+01  1.29565E+01  1.28681E+01  1.28418E+01  1.29065E+01
   1.31701E+01  1.35989E+01  1.39926E+01  1.39982E+01  1.40230E+01  1.43954E+01  1.45353E+01  1.45889E+01  1.48296E+01  1.53322E+01
   1.59640E+01  1.62584E+01  1.61939E+01  1.60511E+01  1.61852E+01  1.63600E+01  1.67322E+01  1.72676E+01  1.77531E+01  1.81609E+01
   1.84461E+01  1.88617E+01  1.90176E+01  1.91663E+01  1.90773E+01  1.89815E+01  1.90229E+01  1.93343E+01  1.97987E+01  2.01634E+01
   2.03085E+01  2.03614E+01  2.05514E+01  2.07572E+01  2.11269E+01  2.17061E+01  2.20301E+01  2.22475E+01  2.25571E+01  2.28028E+01
   2.30660E+01  2.32603E+01  2.32593E+01  2.32521E+01  2.32311E+01  2.33304E+01  2.37049E+01  2.42718E+01  2.48756E+01  2.54422E+01
   2.56341E+01  2.53172E+01  2.51071E+01  2.50405E+01  2.51451E+01  2.52671E+01  2.55888E+01  2.56299E+01  2.56596E+01  2.57909E+01
 NY background values follow
     1.559E+02    1.555E+02    1.551E+02    1.548E+02    1.544E+02    1.541E+02    1.537E+02    1.533E+02    1.530E+02    1.526E+02
     1.522E+02    1.519E+02    1.515E+02    1.511E+02    1.508E+02    1.504E+02    1.500E+02    1.497E+02    1.493E+02    1.489E+02
     1.486E+02    1.482E+02    1.478E+02    1.474E+02    1.471E+02    1.467E+02    1.463E+02    1.459E+02    1.456E+02    1.452E+02
     1.448E+02    1.444E+02    1.440E+02    1.436E+02    1.432E+02    1.429E+02    1.425E+02    1.421E+02    1.417E+02    1.413E+02
     1.409E+02    1.405E+02    1.401E+02    1.397E+02    1.393E+02    1.389E+02    1.385E+02    1.381E+02    1.377E+02    1.373E+02
     1.369E+02    1.365E+02    1.361E+02    1.356E+02    1.352E+02    1.348E+02    1.344E+02    1.340E+02    1.336E+02    1.332E+02
     1.328E+02    1.324E+02    1.319E+02    1.315E+02    1.311E+02    1.307E+02    1.303E+02    1.299E+02    1.294E+02    1.290E+02
     1.286E+02    1.282E+02    1.278E+02    1.273E+02    1.269E+02    1.265E+02    1.261E+02    1.257E+02    1.252E+02    1.248E+02
     1.244E+02    1.240E+02    1.235E+02    1.231E+02    1.227E+02    1.222E+02    1.218E+02    1.214E+02    1.210E+02    1.205E+02
     1.201E+02    1.197E+02    1.192E+02    1.188E+02    1.184E+02    1.179E+02    1.175E+02    1.171E+02    1.166E+02    1.162E+02
     1.158E+02    1.153E+02    1.149E+02    1.144E+02    1.140E+02    1.136E+02    1.131E+02    1.127E+02    1.122E+02    1.118E+02
     1.113E+02    1.109E+02    1.105E+02    1.100E+02    1.096E+02    1.091E+02    1.087E+02    1.082E+02    1.078E+02    1.073E+02
     1.069E+02    1.064E+02    1.060E+02    1.055E+02    1.051E+02    1.046E+02    1.042E+02    1.037E+02    1.033E+02    1.028E+02
     1.023E+02    1.019E+02    1.014E+02    1.010E+02    1.005E+02    1.001E+02    9.960E+01    9.914E+01    9.868E+01    9.822E+01
     9.777E+01    9.731E+01    9.685E+01    9.639E+01    9.593E+01    9.547E+01    9.501E+01    9.455E+01    9.408E+01    9.362E+01
     9.316E+01    9.270E+01    9.224E+01    9.178E+01    9.132E+01    9.086E+01    9.040E+01    8.994E+01    8.948E+01    8.902E+01
     8.856E+01    8.810E+01    8.764E+01    8.719E+01    8.673E+01    8.627E+01    8.581E+01    8.536E+01    8.490E+01    8.444E+01
     8.399E+01    8.353E+01    8.308E+01    8.263E+01    8.217E+01    8.172E+01    8.127E+01    8.082E+01    8.037E+01    7.992E+01
     7.947E+01    7.903E+01    7.858E+01    7.813E+01    7.769E+01    7.725E+01    7.680E+01    7.636E+01    7.592E+01    7.548E+01
     7.504E+01    7.461E+01    7.417E+01    7.374E+01    7.330E+01    7.287E+01    7.244E+01    7.201E+01    7.159E+01    7.116E+01
     7.073E+01    7.031E+01    6.989E+01    6.947E+01    6.905E+01    6.864E+01    6.822E+01    6.781E+01    6.740E+01    6.699E+01
     6.658E+01    6.617E+01    6.577E+01    6.537E+01    6.497E+01    6.457E+01    6.417E+01    6.377E+01    6.338E+01    6.299E+01
     6.260E+01    6.221E+01    6.182E+01    6.143E+01    6.105E+01    6.067E+01    6.028E+01    5.990E+01    5.953E+01    5.915E+01
     5.877E+01    5.840E+01    5.802E+01    5.765E+01    5.728E+01    5.691E+01    5.654E+01    5.617E+01    5.580E+01    5.544E+01
     5.507E+01    5.471E+01    5.435E+01    5.399E+01    5.362E+01    5.327E+01    5.291E+01    5.255E+01    5.219E+01    5.184E+01
     5.148E+01    5.113E+01    5.078E+01    5.043E+01    5.008E+01    4.973E+01    4.938E+01    4.903E+01    4.869E+01    4.834E+01
     4.800E+01    4.766E+01    4.732E+01    4.698E+01    4.664E+01    4.630E+01    4.597E+01    4.563E+01    4.530E+01    4.496E+01
     4.463E+01    4.430E+01    4.397E+01    4.365E+01    4.332E+01    4.300E+01    4.268E+01    4.236E+01    4.204E+01    4.172E+01
     4.141E+01    4.110E+01    4.079E+01    4.048E+01    4.018E+01    3.988E+01    3.958E+01    3.929E+01    3.900E+01    3.871E+01
     3.842E+01    3.814E+01    3.787E+01    3.759E+01    3.732E+01    3.706E+01    3.679E+01    3.653E+01    3.628E+01    3.603E+01
     3.579E+01    3.555E+01    3.531E+01    3.508E+01    3.485E+01    3.463E+01    3.441E+01    3.420E+01    3.399E+01    3.379E+01
     3.360E+01    3.340E+01    3.322E+01    3.303E+01    3.286E+01    3.269E+01    3.252E+01    3.236E+01    3.221E+01    3.206E+01
     3.191E+01    3.178E+01    3.164E+01    3.152E+01    3.140E+01    3.128E+01    3.117E+01    3.107E+01    3.097E+01    3.088E+01
     3.080E+01    3.072E+01    3.064E+01    3.058E+01    3.052E+01    3.046E+01    3.041E+01    3.037E+01    3.033E+01    3.029E+01
     3.027E+01    3.024E+01    3.022E+01    3.021E+01    3.020E+01    3.020E+01    3.020E+01    3.020E+01    3.021E+01    3.022E+01
     3.024E+01    3.026E+01    3.028E+01    3.031E+01    3.035E+01    3.038E+01    3.042E+01    3.046E+01    3.051E+01    3.056E+01
     3.061E+01    3.066E+01    3.072E+01    3.078E+01    3.084E+01    3.091E+01    3.098E+01    3.105E+01    3.112E+01    3.119E+01
     3.126E+01    3.134E+01    3.142E+01    3.150E+01    3.158E+01    3.166E+01    3.174E+01    3.182E+01    3.190E+01    3.199E+01
     3.207E+01    3.215E+01    3.224E+01    3.232E+01    3.240E+01    3.248E+01    3.257E+01    3.265E+01    3.273E+01    3.281E+01
     3.288E+01    3.296E+01    3.304E+01    3.311E+01    3.318E+01    3.325E+01    3.333E+01    3.339E+01    3.346E+01    3.353E+01
     3.359E+01    3.366E+01    3.372E+01    3.378E+01    3.384E+01    3.389E+01    3.395E+01    3.400E+01    3.406E+01    3.411E+01
     3.416E+01    3.420E+01    3.425E+01    3.429E+01    3.433E+01    3.438E+01    3.441E+01    3.445E+01    3.449E+01    3.452E+01
     3.455E+01    3.458E+01    3.461E+01    3.463E+01    3.465E+01    3.468E+01    3.470E+01    3.472E+01    3.473E+01    3.475E+01
     3.476E+01    3.477E+01    3.479E+01    3.480E+01    3.480E+01    3.481E+01    3.482E+01    3.482E+01    3.483E+01    3.483E+01
     3.483E+01    3.483E+01    3.483E+01    3.483E+01    3.483E+01    3.483E+01    3.482E+01    3.482E+01    3.481E+01    3.481E+01
     3.480E+01    3.480E+01    3.479E+01    3.478E+01    3.477E+01    3.477E+01    3.476E+01    3.475E+01    3.474E+01    3.473E+01
     3.472E+01    3.471E+01    3.469E+01    3.468E+01    3.467E+01    3.466E+01    3.465E+01    3.463E+01    3.462E+01    3.461E+01
     3.460E+01    3.458E+01    3.457E+01    3.456E+01    3.454E+01    3.453E+01    3.452E+01    3.450E+01    3.449E+01    3.448E+01
 Mac      Conc. = 3.67E-04
   1.30569E+02  1.29263E+02  1.28445E+02  1.27792E+02  1.26971E+02  1.25551E+02  1.23618E+02  1.21153E+02  1.18542E+02  1.16196E+02
   1.14424E+02  1.13230E+02  1.12645E+02  1.12118E+02  1.11003E+02  1.08546E+02  1.06123E+02  1.05814E+02  1.08465E+02  1.13011E+02
   1.18462E+02  1.22930E+02  1.25930E+02  1.28767E+02  1.30844E+02  1.31750E+02  1.32906E+02  1.34854E+02  1.36965E+02  1.39033E+02
   1.40660E+02  1.42099E+02  1.42936E+02  1.43347E+02  1.43192E+02  1.42529E+02  1.42153E+02  1.43137E+02  1.45604E+02  1.47966E+02
   1.49182E+02  1.48955E+02  1.48238E+02  1.48494E+02  1.49806E+02  1.51092E+02  1.51529E+02  1.51173E+02  1.49936E+02  1.48062E+02
   1.46167E+02  1.44152E+02  1.42445E+02  1.41156E+02  1.40187E+02  1.39099E+02  1.38788E+02  1.39458E+02  1.40322E+02  1.41578E+02
   1.42916E+02  1.43812E+02  1.44505E+02  1.44704E+02  1.43547E+02  1.41871E+02  1.40631E+02  1.39645E+02  1.38576E+02  1.38015E+02
   1.38178E+02  1.39736E+02  1.42086E+02  1.44627E+02  1.46019E+02  1.46304E+02  1.46056E+02  1.45267E+02  1.43960E+02  1.42654E+02
   1.41555E+02  1.40396E+02  1.39727E+02  1.39360E+02  1.39494E+02  1.40133E+02  1.40830E+02  1.41398E+02  1.41739E+02  1.42150E+02
   1.42288E+02  1.42362E+02  1.42151E+02  1.41968E+02  1.40898E+02  1.39251E+02  1.36762E+02  1.33333E+02  1.29575E+02  1.26384E+02
   1.23354E+02  1.20318E+02  1.17021E+02  1.12793E+02  1.07578E+02  1.01093E+02  9.30832E+01  8.45802E+01  7.74628E+01  7.32579E+01
