 
 $NMID
 ID=''
 FMTDAT='(2E13.5)'
 TRAMP=   1.00000E+0
 VOLUME=   1.00000E+0
 $END
  -9.88751E+4   4.79500E+5
  -6.71140E+5   1.11950E+6
  -4.99860E+5   1.18371E+6
  -5.16065E+5   1.07689E+6
  -5.84126E+5   1.08531E+6
  -5.63432E+5   1.05848E+6
  -5.89502E+5   9.98690E+5
  -6.26136E+5   1.02016E+6
  -5.97590E+5   1.02155E+6
  -6.04157E+5   9.90980E+5
  -6.14092E+5   9.94926E+5
  -5.89808E+5   9.77806E+5
  -5.93827E+5   9.47316E+5
  -5.98462E+5   9.47879E+5
  -5.82396E+5   9.34910E+5
  -5.82738E+5   9.15287E+5
  -5.88319E+5   9.18540E+5
  -5.82701E+5   9.00377E+5
  -5.91688E+5   8.72969E+5
  -5.96785E+5   8.63736E+5
  -5.94785E+5   8.43159E+5
  -6.01597E+5   8.21535E+5
  -6.01595E+5   8.13637E+5
  -5.97733E+5   7.96953E+5
  -6.01482E+5   7.76074E+5
  -5.92801E+5   7.69406E+5
  -5.82088E+5   7.57912E+5
  -5.80031E+5   7.45712E+5
  -5.72804E+5   7.35491E+5
  -5.62307E+5   7.21815E+5
  -5.63969E+5   7.07567E+5
  -5.62302E+5   6.95445E+5
  -5.59414E+5   6.77423E+5
  -5.59184E+5   6.61422E+5
  -5.56625E+5   6.47856E+5
  -5.55317E+5   6.30510E+5
  -5.58384E+5   6.14744E+5
  -5.57325E+5   6.00224E+5
  -5.52171E+5   5.84154E+5
  -5.48962E+5   5.72197E+5
  -5.43455E+5   5.60423E+5
  -5.36727E+5   5.47340E+5
  -5.30419E+5   5.36623E+5
  -5.24281E+5   5.27249E+5
  -5.17787E+5   5.14784E+5
  -5.12564E+5   5.04296E+5
  -5.08760E+5   4.93691E+5
  -5.05667E+5   4.79088E+5
  -5.02264E+5   4.64554E+5
  -4.97617E+5   4.51789E+5
  -4.94548E+5   4.39514E+5
  -4.92084E+5   4.26330E+5
  -4.88492E+5   4.13687E+5
  -4.85112E+5   4.01518E+5
  -4.81513E+5   3.90100E+5
  -4.76563E+5   3.78524E+5
  -4.71485E+5   3.67704E+5
  -4.65567E+5   3.57179E+5
  -4.59451E+5   3.47273E+5
  -4.54755E+5   3.37521E+5
  -4.50266E+5   3.27454E+5
  -4.45436E+5   3.17408E+5
  -4.40822E+5   3.07782E+5
  -4.36092E+5   2.97169E+5
  -4.31143E+5   2.85593E+5
  -4.25744E+5   2.74783E+5
  -4.20484E+5   2.64540E+5
  -4.15206E+5   2.54679E+5
  -4.10653E+5   2.45283E+5
  -4.05955E+5   2.35673E+5
  -4.00479E+5   2.26349E+5
  -3.94471E+5   2.17459E+5
  -3.89158E+5   2.09090E+5
  -3.84413E+5   2.00222E+5
  -3.78751E+5   1.91400E+5
  -3.73537E+5   1.82533E+5
  -3.68400E+5   1.73927E+5
  -3.63384E+5   1.65217E+5
  -3.58557E+5   1.55928E+5
  -3.53112E+5   1.47085E+5
  -3.48219E+5   1.38214E+5
  -3.43225E+5   1.29646E+5
  -3.38036E+5   1.21319E+5
  -3.33057E+5   1.13086E+5
  -3.27966E+5   1.05417E+5
  -3.22481E+5   9.78283E+4
  -3.16986E+5   9.08496E+4
  -3.12459E+5   8.39927E+4
  -3.07237E+5   7.72692E+4
  -3.02174E+5   7.10433E+4
  -2.97092E+5   6.50506E+4
  -2.92584E+5   5.86698E+4
  -2.87858E+5   5.19000E+4
  -2.83080E+5   4.54766E+4
  -2.78237E+5   3.90888E+4
  -2.73577E+5   3.31487E+4
  -2.69372E+5   2.71353E+4
  -2.65152E+5   2.09800E+4
  -2.60792E+5   1.51389E+4
  -2.56143E+5   9.88173E+3
  -2.51681E+5   5.00620E+3
  -2.47440E+5  -1.56869E+2
  -2.42820E+5  -5.17689E+3
  -2.38437E+5  -9.87351E+3
  -2.34059E+5  -1.40581E+4
  -2.30065E+5  -1.78083E+4
  -2.25969E+5  -2.18549E+4
  -2.21907E+5  -2.58146E+4
  -2.17321E+5  -2.98764E+4
  -2.12903E+5  -3.33957E+4
  -2.08912E+5  -3.67938E+4
  -2.05216E+5  -4.03861E+4
  -2.01476E+5  -4.38811E+4
  -1.97331E+5  -4.74159E+4
  -1.93521E+5  -5.06497E+4
  -1.89521E+5  -5.36946E+4
  -1.85580E+5  -5.66902E+4
  -1.81710E+5  -5.96292E+4
  -1.77515E+5  -6.23083E+4
  -1.73912E+5  -6.45817E+4
  -1.70384E+5  -6.68126E+4
  -1.66733E+5  -6.94167E+4
  -1.63006E+5  -7.14725E+4
  -1.59626E+5  -7.35517E+4
  -1.55838E+5  -7.59006E+4
  -1.52360E+5  -7.77180E+4
  -1.48420E+5  -7.95019E+4
  -1.44945E+5  -8.15042E+4
  -1.41763E+5  -8.33354E+4
  -1.38402E+5  -8.53395E+4
  -1.34754E+5  -8.70282E+4
  -1.31136E+5  -8.88027E+4
  -1.27980E+5  -9.01890E+4
  -1.24562E+5  -9.19135E+4
  -1.20963E+5  -9.35284E+4
  -1.17963E+5  -9.45569E+4
  -1.14911E+5  -9.57494E+4
  -1.11640E+5  -9.70782E+4
  -1.08657E+5  -9.82705E+4
  -1.05907E+5  -9.94798E+4
  -1.03022E+5  -1.00485E+5
  -1.00030E+5  -1.01746E+5
  -9.72499E+4  -1.02531E+5
  -9.45678E+4  -1.03305E+5
  -9.18481E+4  -1.04423E+5
  -8.92642E+4  -1.05280E+5
  -8.66185E+4  -1.06037E+5
  -8.39828E+4  -1.06364E+5
  -8.11980E+4  -1.06862E+5
  -7.89750E+4  -1.07680E+5
  -7.66976E+4  -1.07962E+5
  -7.38688E+4  -1.08324E+5
  -7.19294E+4  -1.08457E+5
  -6.94611E+4  -1.08923E+5
  -6.71783E+4  -1.09249E+5
  -6.52590E+4  -1.09685E+5
  -6.33773E+4  -1.09568E+5
  -6.11852E+4  -1.09865E+5
  -5.87582E+4  -1.10122E+5
  -5.67474E+4  -1.10097E+5
  -5.49439E+4  -1.10287E+5
  -5.33950E+4  -1.10445E+5
  -5.11995E+4  -1.10809E+5
  -4.92540E+4  -1.10513E+5
  -4.76263E+4  -1.10086E+5
  -4.58943E+4  -1.10177E+5
  -4.39431E+4  -1.10219E+5
  -4.23010E+4  -1.10126E+5
  -4.06872E+4  -1.09876E+5
  -3.89069E+4  -1.09347E+5
  -3.76248E+4  -1.09268E+5
  -3.61248E+4  -1.09124E+5
  -3.42759E+4  -1.08842E+5
  -3.31015E+4  -1.08324E+5
  -3.15803E+4  -1.07962E+5
  -3.02135E+4  -1.07710E+5
  -2.89432E+4  -1.07362E+5
  -2.71417E+4  -1.07128E+5
  -2.58583E+4  -1.06187E+5
  -2.48773E+4  -1.05648E+5
  -2.36013E+4  -1.05429E+5
  -2.20093E+4  -1.04792E+5
  -2.08623E+4  -1.04537E+5
  -1.95087E+4  -1.03740E+5
  -1.84846E+4  -1.03172E+5
  -1.71625E+4  -1.02530E+5
  -1.62950E+4  -1.01767E+5
  -1.48758E+4  -1.01194E+5
  -1.37654E+4  -1.00696E+5
  -1.28711E+4  -1.00067E+5
  -1.16672E+4  -9.94489E+4
  -1.03877E+4  -9.87644E+4
  -9.16850E+3  -9.82825E+4
  -8.00113E+3  -9.70553E+4
  -6.80342E+3  -9.67270E+4
  -5.55101E+3  -9.59367E+4
  -4.45068E+3  -9.51190E+4
  -3.06854E+3  -9.43338E+4
  -2.08364E+3  -9.36742E+4
  -7.12545E+2  -9.26883E+4
   5.07831E+2  -9.17047E+4
   1.77586E+3  -9.09426E+4
   2.83068E+3  -9.00812E+4
   4.01373E+3  -8.91996E+4
   5.06757E+3  -8.84426E+4
   6.15268E+3  -8.76217E+4
   7.34233E+3  -8.66953E+4
   8.48651E+3  -8.56020E+4
   9.58589E+3  -8.49184E+4
   1.07035E+4  -8.38343E+4
   1.16306E+4  -8.28651E+4
   1.28061E+4  -8.17409E+4
   1.38871E+4  -8.11695E+4
   1.50214E+4  -8.01562E+4
   1.62767E+4  -7.94285E+4
   1.72413E+4  -7.82979E+4
   1.79693E+4  -7.72489E+4
   1.88343E+4  -7.61183E+4
   1.97502E+4  -7.53364E+4
   2.05902E+4  -7.43429E+4
   2.13952E+4  -7.36967E+4
   2.22930E+4  -7.26444E+4
   2.29987E+4  -7.17043E+4
   2.38278E+4  -7.06881E+4
   2.47589E+4  -6.98326E+4
   2.53439E+4  -6.89235E+4
   2.62793E+4  -6.78702E+4
   2.65277E+4  -6.73890E+4
   2.74149E+4  -6.63029E+4
   2.78853E+4  -6.53793E+4
   2.86277E+4  -6.44299E+4
   2.92263E+4  -6.38236E+4
   2.95246E+4  -6.27384E+4
   2.99562E+4  -6.22614E+4
   3.05168E+4  -6.13669E+4
   3.10841E+4  -6.03998E+4
   3.12654E+4  -5.97207E+4
   3.18523E+4  -5.89604E+4
   3.23109E+4  -5.83503E+4
   3.24752E+4  -5.73381E+4
   3.26776E+4  -5.66057E+4
   3.29383E+4  -5.57921E+4
   3.34798E+4  -5.51443E+4
   3.38618E+4  -5.43278E+4
   3.40177E+4  -5.36401E+4
   3.41295E+4  -5.29868E+4
   3.44466E+4  -5.22247E+4
   3.48307E+4  -5.14200E+4
   3.49740E+4  -5.03701E+4
   3.51906E+4  -4.97842E+4
   3.51817E+4  -4.90552E+4
   3.57170E+4  -4.81553E+4
   3.57364E+4  -4.75343E+4
   3.59591E+4  -4.66707E+4
   3.62953E+4  -4.54168E+4
   3.62794E+4  -4.49746E+4
   3.65367E+4  -4.41741E+4
   3.65737E+4  -4.31626E+4
   3.68577E+4  -4.23981E+4
   3.71472E+4  -4.16926E+4
   3.73946E+4  -4.08417E+4
   3.75306E+4  -3.96928E+4
   3.75450E+4  -3.86891E+4
   3.76721E+4  -3.81402E+4
   3.80257E+4  -3.71317E+4
   3.83039E+4  -3.65976E+4
   3.83989E+4  -3.53827E+4
   3.84589E+4  -3.45139E+4
   3.86437E+4  -3.37033E+4
   3.88154E+4  -3.29319E+4
   3.87172E+4  -3.20515E+4
   3.90907E+4  -3.15716E+4
   3.93864E+4  -3.04380E+4
   3.93471E+4  -2.95710E+4
   3.92630E+4  -2.88782E+4
   3.99621E+4  -2.78856E+4
   4.00006E+4  -2.70533E+4
   4.00268E+4  -2.63281E+4
   3.98998E+4  -2.54117E+4
   4.01462E+4  -2.46084E+4
   4.01972E+4  -2.38052E+4
   4.02602E+4  -2.30730E+4
   4.02163E+4  -2.22856E+4
   4.07917E+4  -2.13521E+4
   4.05906E+4  -2.06903E+4
   4.05702E+4  -1.99060E+4
   4.05039E+4  -1.92499E+4
   4.05624E+4  -1.87365E+4
   4.08794E+4  -1.81875E+4
   4.06363E+4  -1.73006E+4
   4.08740E+4  -1.63982E+4
   4.08093E+4  -1.58855E+4
   4.08009E+4  -1.50306E+4
   4.06054E+4  -1.45422E+4
   4.07227E+4  -1.38213E+4
   4.09918E+4  -1.33368E+4
   4.07854E+4  -1.25945E+4
   4.04799E+4  -1.19426E+4
   4.07810E+4  -1.14966E+4
   4.05621E+4  -1.07204E+4
   4.03254E+4  -1.01442E+4
   4.04450E+4  -9.61941E+3
   4.03809E+4  -9.08594E+3
   4.02779E+4  -8.13543E+3
   3.98118E+4  -7.69301E+3
   3.98035E+4  -7.17325E+3
   3.98267E+4  -6.47217E+3
   3.95437E+4  -6.14050E+3
   3.95894E+4  -5.16033E+3
   3.93206E+4  -5.06785E+3
   3.90325E+4  -4.40281E+3
   3.88745E+4  -3.87434E+3
   3.88027E+4  -3.33553E+3
   3.86398E+4  -2.46751E+3
   3.84774E+4  -2.17449E+3
   3.82071E+4  -1.64317E+3
   3.79818E+4  -1.33073E+3
   3.76172E+4  -7.73638E+2
   3.75454E+4  -9.23909E+1
   3.72922E+4   6.45337E+2
   3.70441E+4   8.47918E+2
   3.66001E+4   1.28381E+3
   3.64033E+4   1.79970E+3
   3.62764E+4   2.39749E+3
   3.60867E+4   2.65986E+3
   3.56961E+4   3.20397E+3
   3.57543E+4   3.47901E+3
   3.53648E+4   4.10085E+3
   3.49225E+4   4.74598E+3
   3.44923E+4   5.02327E+3
   3.43203E+4   5.18313E+3
   3.39299E+4   6.01607E+3
   3.38331E+4   6.21246E+3
   3.34718E+4   6.55673E+3
   3.33853E+4   6.83666E+3
   3.29693E+4   7.47178E+3
   3.28771E+4   7.95284E+3
   3.22793E+4   8.36139E+3
   3.20623E+4   8.57904E+3
   3.16326E+4   8.81769E+3
   3.16399E+4   9.36317E+3
   3.12482E+4   9.60521E+3
   3.10754E+4   1.00642E+4
   3.06830E+4   1.03099E+4
   3.00795E+4   1.02621E+4
   2.99203E+4   1.09001E+4
   2.93520E+4   1.11751E+4
   2.95106E+4   1.15949E+4
   2.85966E+4   1.17191E+4
   2.87145E+4   1.19381E+4
   2.83403E+4   1.22633E+4
   2.80866E+4   1.24304E+4
   2.76120E+4   1.29623E+4
   2.72532E+4   1.30370E+4
   2.71486E+4   1.32814E+4
   2.66858E+4   1.36470E+4
   2.60355E+4   1.37219E+4
   2.62039E+4   1.35770E+4
   2.59117E+4   1.43708E+4
   2.52603E+4   1.45191E+4
   2.47190E+4   1.46967E+4
   2.45787E+4   1.47209E+4
   2.41741E+4   1.48511E+4
   2.40028E+4   1.47942E+4
   2.38130E+4   1.50259E+4
   2.36047E+4   1.53396E+4
   2.30433E+4   1.53507E+4
