 
 $NMID
 ID=''
 FMTDAT='(2E13.5)'
 TRAMP=   1.00000E+0
 VOLUME=   1.00000E+0
 $END
  -2.13171E+4   1.28631E+4
  -2.12270E+4   4.26879E+4
   3.95643E+4   3.93608E+4
   4.50828E+4  -2.50129E+4
  -1.51978E+4  -5.30897E+4
  -4.48741E+4  -4.61016E+3
  -1.29780E+4   4.18177E+4
   2.82745E+4   2.78129E+4
   3.08603E+4  -1.84127E+4
  -7.07904E+3  -3.58194E+4
  -3.42397E+4  -5.95717E+3
  -1.37447E+4   2.63203E+4
   1.91242E+4   1.83670E+4
   2.00551E+4  -1.27652E+4
  -1.47082E+3  -2.32273E+4
  -1.63586E+4  -4.42960E+3
  -1.06732E+4   1.62134E+4
   8.56329E+3   1.30149E+4
   1.48135E+4  -4.82549E+3
   6.36763E+2  -1.18748E+4
  -1.04028E+4  -4.41575E+3
  -5.82726E+3   6.69300E+3
   2.95888E+3   9.67872E+3
   6.29643E+3   2.01007E+2
   3.10415E+3  -8.18186E+3
  -3.01719E+3  -3.31873E+3
  -5.97819E+3   4.82787E+3
  -2.14510E+3   3.39499E+3
   4.48020E+3  -7.56449E+2
   4.96673E+3  -1.18031E+3
  -1.28642E+3  -1.22580E+3
  -4.91703E+3  -8.80207E+2
  -1.81593E+3   4.39021E+2
   2.82730E+3   8.91974E+2
   3.77922E+3   5.53932E+2
   1.48830E+3  -1.18029E+2
  -1.87602E+3  -9.65819E+2
  -2.54293E+3   1.29301E+1
  -5.68906E+1   1.91400E+3
   1.06564E+3   1.00124E+3
   1.12356E+3  -1.12378E+3
   7.89745E+2  -1.94341E+3
  -3.11176E+2  -3.14561E+2
  -8.14821E+2   1.47349E+3
   5.61453E+2   1.76679E+3
   1.15148E+3   1.55243E+3
  -5.38911E+2  -5.98781E+2
  -1.83150E+3  -3.16460E+3
  -4.52756E+2  -1.62603E+3
   5.55574E+2   1.56001E+3
   1.17691E+3   1.54577E+3
   1.45168E+3  -1.23900E+3
   7.55803E+2  -1.28466E+3
  -1.66159E+3   3.85483E+2
  -1.83545E+3   1.60781E+3
   2.66653E+1   7.61843E+2
   1.68427E+3  -6.20549E+2
   8.93373E+2  -1.43327E+3
  -6.10310E+2  -5.76107E+2
  -9.31315E+2   1.01827E+3
   6.71282E+1   1.88777E+3
   9.55350E+2   1.11745E+3
  -9.83269E+1  -7.72887E+2
  -1.65274E+3  -1.95440E+3
  -1.75167E+3  -1.29048E+3
   8.14444E+1   3.14773E+2
   1.52024E+3   5.90978E+2
   1.86008E+3  -3.34465E+2
   2.24167E+2  -1.96702E+2
  -1.76598E+3   3.37727E+2
  -9.35745E+2   4.34032E+2
   1.19994E+3   5.05985E+2
   1.48729E+3   8.09242E+2
  -6.02192E+2  -2.59775E+2
  -1.44636E+3  -8.81068E+2
  -5.81761E+2   4.65778E+1
   5.61424E+2   1.04007E+3
   2.45118E+2   5.36041E+2
  -4.72008E+1  -9.65689E+2
  -4.64376E+2  -9.40065E+2
  -5.69306E+2  -9.11267E+0
   1.80199E+2   6.09151E+2
   7.49200E+2   2.36518E+2
   4.90426E+2  -4.93315E+2
   1.10250E+2  -6.89941E+2
  -1.79495E+2   1.52788E+2
  -3.76470E+1   6.01948E+2
   2.37736E+2   4.98945E+2
   2.57715E+2  -1.09082E+2
   7.49894E+1  -3.20507E+2
  -4.62698E+2   3.16840E+2
  -6.94752E+2   7.65714E+2
  -4.19974E+2   3.27801E+1
   7.16814E+1  -5.90228E+2
   3.56732E+2  -1.09416E+3
   3.47155E+2  -1.92801E+2
  -2.21792E+2   7.22497E+2
  -2.60751E+2   4.40331E+2
   3.52670E+2  -2.06560E+2
   7.36683E+2  -7.64718E+1
  -2.30478E+2   4.16269E+2
  -1.02988E+3   6.78450E+1
  -8.46146E+1  -4.20362E+2
   6.55308E+2  -3.24009E+2
   6.72998E+2   1.68175E+2
  -1.60643E+2   3.06739E+2
  -8.01151E+2   2.96052E+2
  -4.54445E+2  -3.92162E+2
   3.99640E+2  -3.43964E+2
   8.32968E+2   2.32384E+1
   2.90712E+2   2.10969E+2
  -4.64679E+2   5.05627E+1
  -4.40567E+2   1.27441E+2
  -3.79819E+1   2.51473E+2
   2.74640E+1  -1.12483E+2
  -1.90484E+2  -3.25235E+2
  -3.83531E+2  -6.21335E+2
   1.02628E+1  -5.44573E+2
   5.25171E+2  -1.37986E+2
   4.76463E+2   2.48359E+2
  -6.34548E+1   3.95003E+2
  -4.94744E+1   1.87690E+2
  -1.43519E+2   2.11551E+2
  -1.76796E+2   1.76019E+2
  -1.68210E+2   6.89598E+0
   3.34902E+1  -1.57605E+1
   2.57979E+2  -8.16148E+1
   6.70234E+1  -5.31849E+0
   1.38413E+2   2.25173E+2
  -4.03324E+2   2.04741E+2
  -1.08625E+2  -1.44205E+2
  -1.64463E+2  -6.29754E+2
   3.65023E+1  -1.84980E+2
  -1.75807E+2   3.12895E+1
  -4.75702E+1  -1.81556E+1
   4.79103E+1  -3.32011E+1
   3.25697E+2   7.88103E+1
  -5.80037E+0   2.19755E+2
  -2.12923E+2   7.57168E+1
  -3.16895E+2  -3.34205E+2
   7.66602E+1  -4.92805E+2
   5.87482E+1  -2.13026E+2
   1.33172E+2   2.18108E+2
  -2.51677E+2   3.38810E+2
  -1.91736E+2  -2.01113E+2
  -8.51405E+1  -1.52180E+2
   2.07700E+2   1.01668E+2
   2.06893E+2  -1.43658E+2
  -1.04491E+2  -2.78123E+2
  -4.86561E+1   4.01615E+1
   3.30226E+2   3.55105E+1
   3.95477E+2  -5.44053E+1
   2.89417E+1   1.52655E+2
   4.81479E+1  -1.36978E+2
  -1.74517E+2   1.21568E+2
   1.78881E+2   6.15060E+1
   2.86876E+2   1.68518E+2
   1.58219E+2   5.87692E+1
  -2.39424E+2   1.00983E+1
  -1.30853E+2   2.17012E+2
   1.41990E+2  -3.08296E+2
  -3.32098E+2   5.99727E+1
   3.84766E+1  -1.68322E+2
   4.04030E+1  -1.73052E+2
   1.74793E+2  -3.20174E+2
   1.23097E+2   1.84381E+2
  -3.74571E+1   3.49084E+2
  -4.73954E+0  -2.59846E+2
   2.59620E+2  -3.46142E+1
   1.81031E+2   9.35814E+1
  -1.44794E+2   1.64152E+2
  -8.87627E+1   4.48972E+1
   6.87968E+1  -2.65869E+2
   1.05865E+2  -1.81926E+2
   3.79327E+2  -9.56188E+1
  -1.31158E+2  -1.63352E+0
   3.03920E+2  -1.28267E+2
   5.60723E+0  -9.77227E+1
   1.73054E+2  -1.81486E+2
   7.01963E+1  -2.40856E+2
  -1.15073E+2   2.27111E+2
  -2.95862E+2   7.88508E+1
  -2.69145E+0  -2.91688E+2
   6.76756E+1  -1.40552E+2
   1.41480E+2  -2.76513E+2
  -1.59278E+2  -8.30969E+1
  -1.80270E+2  -2.19999E+2
   1.54196E+2  -1.67309E+2
   3.98395E+2  -3.83551E+1
  -1.61555E+2  -6.05273E+1
  -2.66760E+2   1.27986E+1
  -2.91892E+2  -1.29981E+2
   1.65197E+2  -3.74305E+2
   2.04312E+1  -1.83063E+2
  -1.39607E+2  -1.92189E+2
   2.71082E+1   5.48358E+0
  -5.67695E+1  -1.72065E+2
  -8.63132E+1  -4.00913E+1
  -7.30686E+1   2.08026E+2
  -5.50981E+1  -1.27855E+2
  -7.59623E+1  -1.56860E+2
   2.35939E+2  -1.47211E+2
  -1.59844E+2  -1.56459E+2
   2.72957E+0   3.68794E+1
  -9.51615E+1  -1.51816E+2
  -3.89393E+1  -1.37703E+1
  -5.74361E+1  -2.70677E+2
  -1.79000E+2   8.71888E+1
  -5.19705E+1   1.22750E+2
   1.74326E+0  -2.83772E+2
   3.80240E+1  -1.71521E+1
   3.33938E+1  -1.61690E+2
   5.05248E+1   4.37184E+0
  -8.77878E+1   4.37444E+1
  -2.96716E+2  -6.03239E+1
   4.68164E+1  -3.70020E+1
  -9.73199E+1   1.18578E+2
   6.41735E+1   5.12492E+1
  -4.82762E+1  -2.55029E+1
  -1.11072E+2  -7.45983E+1
  -2.45582E+2   2.68325E+2
  -8.52965E+1  -5.45875E+1
   8.52635E+1  -4.00855E+1
  -9.06027E+1  -2.63666E+2
  -2.55321E+1  -2.67591E+2
  -1.50252E+2   2.86668E-1
  -5.24042E+0   1.45701E+2
  -1.30848E+2  -1.02774E+2
  -2.48311E+1   5.66753E+0
  -1.05605E+2  -8.64069E+1
  -2.18509E+2   1.35145E+2
  -2.21234E+2  -4.29429E+1
  -6.12014E+1  -1.06872E+2
  -5.31041E+1  -1.02731E+2
  -3.66604E+1   2.11349E+2
  -3.37295E+2   1.57400E+2
   7.62886E+1   2.14782E+2
  -5.65818E+1  -1.01713E+2
  -3.30051E+2  -3.15870E+2
  -8.94027E+0   3.42337E+1
   1.54914E+2   7.71558E+0
  -3.48696E+1  -4.78936E+1
  -7.61195E+1  -1.34327E+2
  -2.97940E+1  -2.02210E+2
  -1.45519E+2  -2.09559E+2
  -3.59536E+1   1.60517E+2
  -2.43777E+2  -7.32501E+1
  -5.67504E+1   1.05134E+2
   1.98666E+2  -1.31083E+0
  -1.04600E+2   1.53082E+1
   6.64744E+1  -1.06118E+2
  -9.99045E+1   6.63046E+1
  -4.42834E+1   7.12022E+0
   4.56805E+1  -9.52650E+1
  -1.10222E+2   1.67086E+2
   5.22135E+1  -9.32908E+1
  -2.90158E+2   7.18913E+1
   7.30052E+1   6.92898E+1
  -2.69476E+1   1.41673E+2
   6.76704E-2  -6.19026E-1
  -1.50365E+2  -2.58213E+2
   5.99807E+0  -1.26021E+2
  -1.33548E+2   2.22381E+1
  -1.11838E+2   3.06750E+2
   1.84504E+2   2.45205E+2
   1.21856E+2  -6.81021E+1
  -1.20772E+2  -1.27708E+2
  -2.35736E+2  -1.18934E+2
  -4.55027E+1  -1.58012E+2
  -1.34258E+2   1.00914E+2
   6.90669E+1  -2.16305E+1
   1.15717E+2   1.55528E+2
   5.07900E+1  -1.74202E+2
  -2.47911E+2  -6.49203E+1
  -9.90290E+0   7.59376E+1
  -8.35773E+1   2.15254E+2
  -2.96744E+1   5.02124E+1
  -1.33682E+2   6.08531E+1
  -7.94772E+1   1.67617E+2
  -1.48523E+2   2.52374E+1
  -7.03223E+1  -8.82220E+1
  -7.01458E+1   1.79487E+2
  -1.95285E+2   1.08534E+2
  -9.10756E+1   8.74278E+1
  -1.40085E+2  -3.02142E+1
  -1.23566E+2  -1.78469E+2
   3.00026E+1   1.54536E+2
  -1.85955E+1   1.12158E+2
  -5.64029E+1  -4.08223E+1
  -1.68020E+1   2.19204E+2
  -1.28056E+2  -7.03605E+0
  -2.28747E+2   1.35567E+2
   3.37526E+1  -1.88813E+2
  -3.49222E+2   1.36411E+2
  -2.82734E+2   9.86292E+1
  -1.67730E+2   8.96107E+1
  -1.31173E+2  -2.74226E+2
   3.59792E+1   3.54679E+1
   2.26017E+1   1.92045E+2
  -1.37461E+2  -5.61984E+1
   4.53884E+1   7.84449E+1
  -7.94809E+1  -1.14240E+2
  -9.08983E+1   1.18765E+2
  -1.74451E+2   1.67750E+2
  -3.65233E+1   9.38225E+1
  -3.19922E+1   3.07616E+1
  -5.39156E+1   7.36747E+1
  -6.38238E+1   5.45164E+1
   2.04680E+2   1.35646E+2
   1.43786E+1  -9.82820E+1
   8.64824E+0  -1.05323E+2
   1.15192E+1  -2.82626E+1
   2.31802E+2   2.09929E+2
   1.31099E+2  -2.08565E+1
  -2.23169E+2   1.33732E+2
   1.80424E+2   7.53005E+1
   5.39036E+1   9.00803E+1
   3.12381E+1  -8.76179E+1
   3.26381E+1  -6.97196E+1
  -1.25680E+2   1.47238E+2
   1.90066E+0  -6.77643E+1
  -5.08975E+1   6.65307E+0
   1.66338E+1  -1.91852E+2
   2.37317E-2   5.98817E+1
  -7.28540E+1  -1.19607E+2
  -5.23300E+1   6.65193E+1
  -8.01725E+1   7.54096E+1
   2.94674E+1   8.50503E+1
   6.14978E+1  -1.29094E+2
  -9.39707E+1   3.37730E+1
   2.01662E+2  -4.89443E+1
  -1.42510E+2  -8.13696E+1
   3.04929E+2   1.40005E+1
  -5.92552E+1   6.43491E+0
  -1.06426E+2  -5.74442E+0
  -1.50264E+2   6.18850E+1
   6.43142E+0   1.56642E+2
  -2.11819E+1   5.27400E+1
  -1.55840E+2  -5.21487E+1
   5.86829E+1   6.50215E+1
   1.19722E+2  -1.11979E+2
   3.10784E+1   1.26988E+2
  -1.81579E+2   1.11482E+1
  -8.48938E+1  -1.12593E+1
   8.79749E+1  -6.64509E+0
   9.77512E+1  -1.22386E+2
  -2.37185E+2  -2.16509E+2
   1.13111E+2  -2.10175E+2
  -9.81571E+1   1.44390E+2
   1.82240E+2  -2.50141E+2
  -4.41297E+1  -9.05151E+1
   4.44667E+1  -1.58484E+1
  -3.97290E+1  -2.09485E+2
  -2.10429E+2  -5.00669E+1
  -1.12412E+2  -3.73207E+0
  -1.02587E+2   1.12683E+2
   6.79708E+1   8.58438E+1
   1.37449E+2   8.57935E+0
  -4.81857E+1   5.44924E+1
  -5.77057E+1   1.02648E+2
  -1.29895E+2   2.42425E+2
   2.00395E+2  -9.60580E+1
  -2.22835E+1   1.11607E+2
   2.11772E+0  -1.20949E+2
  -3.59915E+1   1.94300E+2
  -2.49050E+1  -3.07263E+1
  -2.23496E+2  -1.40326E+2
