 LCModel (Version 6.3-1N) Copyright: S.W. Provencher.          Ref.: Magn. Reson. Med. 30:672-679 (1993).                
 Slice_N1@19_16  28-Feb-2025 11:41:58
 27 lines in following concentration table = NCONC+1
    Conc.  %SD /Cr+PCr  Metabolite                                         
 2.00E-04   9% 1.9E-04 Mac                                                 
    4.324  55%   4.059 Cr                                                  
    4.200  55%   3.941 PCr                                                 
    5.030  27%   4.720 Ins                                                 
    7.724  15%   7.249 NAA                                                 
    5.494  25%   5.156 Tau                                                 
    1.759  30%   1.650 PCho                                                
    0.000 999%   0.000 GPC                                                 
    7.938  19%   7.450 Glu                                                 
    1.583  70%   1.485 Gln                                                 
    0.000 999%   0.000 Ala                                                 
    1.869 101%   1.754 Asc                                                 
    1.712  80%   1.607 Asp                                                 
    0.337 220%   0.316 GABA                                                
    0.494 182%   0.464 Glc                                                 
    1.214  50%   1.139 GSH                                                 
    5.848  19%   5.489 Lac                                                 
    1.782  54%   1.673 NAAG                                                
    0.821 231%   0.771 PE                                                  
    1.759  30%   1.650 GPC+PCho                                            
    9.506  13%   8.922 NAA+NAAG                                            
    9.520  20%   8.935 Glu+Gln                                             
    8.524  13%   8.000 Cr+PCr                                              
    9.506  13%   8.922 NAA+NAAG                                            
    8.524  13%   8.000 Cr+PCr                                              
    9.520  20%   8.935 Glu+Gln                                             
   6 lines in following misc. output table
  FWHM = 0.033 ppm    S/N =   2                                            
  Data shift = 0.008 ppm                                                   
  Ph:-105 deg       0.0 deg/ppm                                            
  alphaB,S = 1.0E-01,   5.1E+00                                            
   19 spline knots.   Ns = 5(1)                                            
  ( 6) 2 infls.   ( 1) 1 extrs.                                            
  480 points on ppm-axis = NY
      4.100000     4.091866     4.083733     4.075600     4.067466     4.059333     4.051199     4.043066     4.034933     4.026799
      4.018666     4.010532     4.002399     3.994265     3.986132     3.977998     3.969864     3.961731     3.953597     3.945463
      3.937330     3.929196     3.921062     3.912929     3.904795     3.896662     3.888528     3.880394     3.872261     3.864127
      3.855993     3.847860     3.839726     3.831592     3.823459     3.815325     3.807191     3.799058     3.790924     3.782790
      3.774657     3.766523     3.758389     3.750256     3.742122     3.733989     3.725855     3.717721     3.709588     3.701454
      3.693320     3.685187     3.677053     3.668919     3.660786     3.652652     3.644518     3.636385     3.628251     3.620117
      3.611984     3.603850     3.595716     3.587583     3.579449     3.571316     3.563182     3.555048     3.546915     3.538781
      3.530647     3.522514     3.514380     3.506246     3.498113     3.489979     3.481845     3.473712     3.465578     3.457444
      3.449311     3.441177     3.433043     3.424910     3.416776     3.408643     3.400509     3.392375     3.384242     3.376108
      3.367974     3.359841     3.351707     3.343573     3.335440     3.327306     3.319172     3.311039     3.302905     3.294771
      3.286638     3.278504     3.270370     3.262237     3.254103     3.245970     3.237836     3.229702     3.221569     3.213435
      3.205301     3.197168     3.189034     3.180900     3.172767     3.164633     3.156499     3.148366     3.140232     3.132098
      3.123965     3.115831     3.107697     3.099564     3.091430     3.083297     3.075163     3.067029     3.058896     3.050762
      3.042628     3.034495     3.026361     3.018227     3.010094     3.001960     2.993826     2.985693     2.977559     2.969425
      2.961292     2.953158     2.945024     2.936891     2.928757     2.920624     2.912490     2.904356     2.896223     2.888089
      2.879955     2.871822     2.863688     2.855554     2.847421     2.839287     2.831153     2.823020     2.814886     2.806752
      2.798619     2.790485     2.782351     2.774218     2.766084     2.757951     2.749817     2.741683     2.733550     2.725416
      2.717282     2.709149     2.701015     2.692881     2.684748     2.676614     2.668480     2.660347     2.652213     2.644079
      2.635946     2.627812     2.619678     2.611545     2.603411     2.595278     2.587144     2.579010     2.570877     2.562743
      2.554609     2.546476     2.538342     2.530208     2.522075     2.513941     2.505807     2.497674     2.489540     2.481406
      2.473273     2.465139     2.457006     2.448872     2.440738     2.432605     2.424471     2.416337     2.408204     2.400070
      2.391936     2.383803     2.375669     2.367535     2.359402     2.351268     2.343134     2.335001     2.326867     2.318733
      2.310600     2.302466     2.294333     2.286199     2.278065     2.269932     2.261798     2.253664     2.245531     2.237397
      2.229263     2.221130     2.212996     2.204862     2.196729     2.188595     2.180461     2.172328     2.164194     2.156060
      2.147927     2.139793     2.131660     2.123526     2.115392     2.107259     2.099125     2.090991     2.082858     2.074724
      2.066590     2.058457     2.050323     2.042189     2.034056     2.025922     2.017788     2.009655     2.001521     1.993387
      1.985254     1.977120     1.968987     1.960853     1.952719     1.944586     1.936452     1.928318     1.920185     1.912051
      1.903917     1.895784     1.887650     1.879516     1.871383     1.863249     1.855115     1.846982     1.838848     1.830714
      1.822581     1.814447     1.806314     1.798180     1.790046     1.781913     1.773779     1.765645     1.757512     1.749378
      1.741244     1.733111     1.724977     1.716843     1.708710     1.700576     1.692442     1.684309     1.676175     1.668041
      1.659908     1.651774     1.643641     1.635507     1.627373     1.619240     1.611106     1.602972     1.594839     1.586705
      1.578571     1.570438     1.562304     1.554170     1.546037     1.537903     1.529769     1.521636     1.513502     1.505368
      1.497235     1.489101     1.480968     1.472834     1.464700     1.456567     1.448433     1.440299     1.432166     1.424032
      1.415898     1.407765     1.399631     1.391497     1.383364     1.375230     1.367096     1.358963     1.350829     1.342695
      1.334562     1.326428     1.318295     1.310161     1.302027     1.293894     1.285760     1.277626     1.269493     1.261359
      1.253225     1.245092     1.236958     1.228824     1.220691     1.212557     1.204423     1.196290     1.188156     1.180022
      1.171889     1.163755     1.155622     1.147488     1.139354     1.131221     1.123087     1.114953     1.106820     1.098686
      1.090552     1.082419     1.074285     1.066151     1.058018     1.049884     1.041750     1.033617     1.025483     1.017349
      1.009216     1.001082     0.992949     0.984815     0.976681     0.968548     0.960414     0.952280     0.944147     0.936013
      0.927879     0.919746     0.911612     0.903478     0.895345     0.887211     0.879077     0.870944     0.862810     0.854676
      0.846543     0.838409     0.830276     0.822142     0.814008     0.805875     0.797741     0.789607     0.781474     0.773340
      0.765206     0.757073     0.748939     0.740805     0.732672     0.724538     0.716404     0.708271     0.700137     0.692003
      0.683870     0.675736     0.667603     0.659469     0.651335     0.643202     0.635068     0.626934     0.618801     0.610667
      0.602533     0.594400     0.586266     0.578132     0.569999     0.561865     0.553731     0.545598     0.537464     0.529330
      0.521197     0.513063     0.504930     0.496796     0.488662     0.480529     0.472395     0.464261     0.456128     0.447994
      0.439861     0.431727     0.423593     0.415460     0.407326     0.399192     0.391059     0.382925     0.374792     0.366658
      0.358524     0.350391     0.342257     0.334124     0.325990     0.317856     0.309723     0.301589     0.293455     0.285322
      0.277188     0.269055     0.260921     0.252787     0.244654     0.236520     0.228386     0.220253     0.212119     0.203986
 NY phased data points follow
  -1.00269E+01 -1.92819E+01 -2.30529E+01 -2.09782E+01 -1.47286E+01 -1.47597E+01 -1.66222E+01 -1.14343E+01 -1.92416E+01 -1.29909E+01
  -1.12533E+01 -2.39576E+01 -3.19037E+01 -4.70627E+01 -4.21016E+01 -4.03121E+01 -4.35715E+01 -4.25536E+01 -5.41228E+01 -5.75570E+01
  -6.97190E+01 -8.18645E+01 -7.35156E+01 -5.10435E+01 -4.74725E+01 -3.47130E+01 -4.17999E+00  1.94975E+00  9.77750E+00  6.02380E+00
   1.75763E+01  1.67144E+01  1.69639E+00  1.20293E+01  6.08639E+00  6.87359E+00  2.25315E+00  4.59169E+00 -4.27296E+00 -2.50441E+01
  -2.16518E+01 -2.62843E+01 -3.43026E+01 -4.78865E+01 -3.56351E+01 -2.28945E+01 -1.74360E+01  5.91109E+00  8.78141E+00  2.39110E+01
   3.42555E+01  2.37326E+01  3.03112E+01  3.04470E+01  2.13374E+01  1.65374E+01  1.66158E+01  1.04236E+01 -4.22282E+00 -1.07530E+00
  -9.41264E-01 -1.13352E+00  1.18278E+01  1.04645E+01  1.75924E+01  3.69084E+01  3.05870E+01  2.52656E+01  2.51208E+01  3.28554E+00
  -7.72257E+00 -2.13326E+01 -1.43361E+01  6.38950E+00 -2.36911E+00  8.92015E+00  1.81711E+01  2.65201E+01  4.30392E+01  4.19312E+01
   2.98015E+01  3.00378E+01  3.08576E+01  1.98331E+01  2.45847E+01  7.84222E+00 -2.39513E-01  4.84569E-01  5.71662E+00  3.00419E+01
   2.89334E+01  3.83085E+01  4.54752E+01  6.05818E+01  7.09476E+01  5.57422E+01  6.18640E+01  6.57984E+01  7.73982E+01  7.72211E+01
   5.94769E+01  6.31790E+01  5.38199E+01  4.12643E+01  3.79946E+01  2.77159E+01  1.82472E+01  1.11866E+01  7.58495E-01 -3.06281E+01
  -5.27497E+01 -7.54821E+01 -1.08073E+02 -1.01400E+02 -7.71421E+01 -5.72170E+01 -4.64613E+01 -3.19491E+01 -2.51075E+01 -2.18765E+01
  -1.92905E+00 -1.32989E+00  1.86325E+00  2.10566E+01  2.65776E+01  2.42979E+01  3.45229E+01  4.10565E+01  5.55131E+01  7.81696E+01
   8.04988E+01  9.19941E+01  1.06238E+02  8.36488E+01  2.00056E+01 -3.12847E+01 -5.18968E+01 -5.84050E+01 -5.47719E+01 -5.81973E+01
  -5.59801E+01 -5.03200E+01 -5.30697E+01 -5.48794E+01 -5.29939E+01 -5.80241E+01 -5.75982E+01 -5.63906E+01 -6.29037E+01 -5.32551E+01
  -4.65733E+01 -4.92869E+01 -4.12206E+01 -3.96129E+01 -3.97546E+01 -3.63938E+01 -4.47473E+01 -3.61423E+01 -2.53346E+01 -2.54776E+01
  -2.92174E+01 -2.64547E+01 -1.54356E+01 -1.77694E+01 -6.23249E+00 -1.92409E+01 -3.14801E+01 -2.00157E+01 -2.15786E+01 -1.32266E+01
  -1.23126E+01 -9.16484E+00 -5.42043E+00 -7.99887E-01  3.97106E+00  7.83370E+00 -1.62456E+00 -1.06234E+01  2.83755E+00 -4.61668E+00
  -5.67535E+00 -1.56781E+01 -2.18848E+01 -2.18183E+01 -4.18751E+01 -4.65751E+01 -4.65273E+01 -3.28758E+01 -4.09951E+01 -4.70968E+01
  -2.85901E+01 -3.24446E+01 -3.37848E+01 -3.36087E+01 -2.92169E+01 -2.50419E+01 -3.20305E+01 -2.64042E+01 -1.37331E+01 -1.74738E+01
  -2.65607E+01 -1.34919E+01 -8.11447E+00 -1.84600E+01 -7.55337E+00 -1.21068E+01 -2.90466E+01 -1.36488E+01 -2.02186E+01 -4.68382E+01
  -5.46730E+01 -7.25863E+01 -7.18387E+01 -5.83841E+01 -5.75594E+01 -3.11748E+01 -2.53535E+01 -2.13151E+01  7.54278E+00 -6.94533E+00
  -8.71095E+00  4.44520E+00 -1.37662E+01 -1.70427E+01 -1.55205E+01 -2.48113E+01 -1.48582E+01 -4.03165E+00 -9.64527E+00 -1.02116E+01
  -8.15682E+00 -9.14137E-01 -9.30216E+00 -1.76167E+01 -8.45996E+00 -1.22291E+01 -1.81139E+01 -3.61500E+01 -3.78801E+01 -3.95363E+01
  -4.62875E+01 -4.08885E+01 -5.23863E+01 -3.20413E+01 -2.79064E+01 -3.71375E+01 -3.18649E+01 -3.53900E+01 -2.87565E+01 -3.53471E+01
  -4.60411E+01 -6.27474E+01 -5.50644E+01 -6.07148E+01 -6.60027E+01 -5.65654E+01 -7.28172E+01 -5.26720E+01 -4.57815E+01  1.65201E+01
   1.09192E+02  1.14709E+02  1.03771E+02  1.03036E+02  9.97656E+01  9.07322E+01  8.91091E+01  6.19036E+01  5.75671E+01  6.24211E+01
   5.28680E+01  6.76532E+01  6.80235E+01  6.68127E+01  5.90146E+01  6.04657E+01  4.15931E+01  4.81939E+01  6.77410E+01  4.40224E+01
   5.27197E+01  4.62169E+01  4.48839E+01  4.70810E+01  4.18062E+01  4.94310E+01  2.93102E+01  1.72518E+01  1.87376E+01  2.10200E+01
   1.88275E+01  1.22006E+01  6.78895E+00 -9.26766E+00 -1.50636E+01 -1.21994E+01 -2.75166E+01 -3.62712E+01 -4.19760E+01 -4.58737E+01
  -5.13706E+01 -5.82518E+01 -5.17556E+01 -5.58877E+01 -4.69249E+01 -5.38176E+01 -6.43875E+01 -5.35566E+01 -6.23470E+01 -7.04101E+01
  -6.38173E+01 -5.58769E+01 -5.35238E+01 -4.05232E+01 -2.98313E+01 -2.18731E+01 -2.35454E+01 -1.84147E+01 -1.05649E+01 -2.50005E+01
  -1.98859E+01 -1.24839E+01 -1.90531E+01 -1.68152E+01  8.30807E+00  1.85121E+01  3.20648E+01  5.99662E+01  7.90841E+01  9.69147E+01
   1.02014E+02  1.17087E+02  1.08829E+02  9.66071E+01  8.59583E+01  7.59018E+01  8.04034E+01  6.68048E+01  6.56952E+01  7.31717E+01
   7.31195E+01  6.40687E+01  6.39465E+01  4.57935E+01  3.13169E+01  3.51914E+01  2.37629E+01  2.80363E+01  1.44922E+01  3.14669E+00
   6.32393E+00  6.74029E+00  7.65492E+00  1.80433E-01  9.33677E+00  1.00983E+01 -1.10853E+01 -6.70151E+00  6.52226E+00 -7.94876E+00
  -1.02129E+01  7.45425E+00  1.65974E+01  1.11140E+01  1.63654E+01  2.69971E+01  3.15498E+01  3.24135E+01  3.01093E+01  3.91592E+01
   4.76927E+01  6.25652E+01  5.46711E+01  5.68270E+01  7.01955E+01  6.21417E+01  7.53976E+01  7.23854E+01  7.28235E+01  7.72198E+01
   7.19568E+01  7.91287E+01  7.99614E+01  9.52821E+01  1.04201E+02  1.03611E+02  1.15762E+02  1.08421E+02  1.11500E+02  1.29060E+02
   1.17765E+02  1.19420E+02  1.17453E+02  9.80222E+01  9.04364E+01  7.86423E+01  7.85625E+01  7.26121E+01  5.52864E+01  5.51280E+01
   4.65098E+01  2.71247E+01  1.96872E+01  1.14272E+01 -6.32154E-01 -4.12648E+00 -7.43366E+00 -1.84352E+01 -2.05960E+01 -1.53329E+01
  -9.34002E+00 -7.55135E+00 -1.61525E+01 -1.94856E+01 -1.99923E+01 -2.10318E+01 -2.61494E+01 -1.85483E+01 -1.30286E+01 -2.09151E+01
  -2.26250E+01 -1.25598E+01 -4.99117E-01 -1.27474E+01 -1.42744E+01 -1.96046E+01 -1.12546E+01 -8.59930E+00 -2.33138E+01 -1.49287E+01
  -2.37842E+01 -1.66321E+01 -1.43896E+01 -5.42680E+00 -1.48656E+01 -2.82099E+01 -1.70377E+01 -2.92775E+01 -9.41273E+00 -8.26785E+00
  -1.21236E+01 -2.16805E+01 -3.02143E+01 -1.60608E+01 -2.47950E+01 -2.80500E+01 -2.26240E+01 -7.15238E+00 -1.00633E+01 -5.64764E+00
  -1.33819E+01 -2.49646E+01 -1.87371E+01 -2.58674E+01 -2.27936E+01 -2.14142E+01 -1.56358E+01 -2.41285E+01 -2.29953E+01 -1.38677E+01
  -9.88196E+00 -1.17254E+01 -1.14325E+01 -2.14194E+00 -2.05183E+01 -1.40801E+01 -7.46520E+00 -1.87492E+01 -2.27819E+01 -1.96301E+01
  -1.44388E+01 -1.81374E+01 -2.08957E+01 -2.02728E+01 -1.01944E+01 -9.55754E+00 -5.39026E-01 -4.78928E+00 -1.44498E+01 -6.21200E+00
 NY points of the fit to the data follow
  -3.78179E+01 -3.62321E+01 -3.37848E+01 -3.25068E+01 -3.06716E+01 -2.92340E+01 -2.63763E+01 -1.98883E+01 -1.52881E+01 -1.53701E+01
  -1.91610E+01 -2.37237E+01 -2.79795E+01 -3.11446E+01 -3.29832E+01 -3.36055E+01 -3.60899E+01 -4.04632E+01 -4.56608E+01 -5.31077E+01
  -6.21772E+01 -6.87250E+01 -6.97041E+01 -5.81797E+01 -4.11877E+01 -2.65292E+01 -2.72901E+00  1.28293E+01  1.65581E+01  2.04229E+01
   2.07190E+01  2.05856E+01  1.97673E+01  1.85032E+01  1.70342E+01  1.54315E+01  1.29683E+01  9.18721E+00  4.33249E+00 -1.93314E+00
  -1.06265E+01 -2.07456E+01 -2.99128E+01 -3.29246E+01 -2.86099E+01 -2.25718E+01 -1.25015E+01 -8.98410E-01  9.80700E+00  1.85459E+01
   2.34434E+01  2.62840E+01  2.57042E+01  2.34360E+01  1.97574E+01  1.35535E+01  5.50255E+00 -9.65075E-01 -5.01975E+00 -6.84306E+00
  -7.35946E+00 -6.89871E+00 -6.66023E-01  5.53003E+00  1.01870E+01  1.94161E+01  2.52606E+01  2.62471E+01  2.46749E+01  1.74367E+01
   6.60130E+00 -2.82985E+00 -4.12280E+00  6.05065E-01  4.56044E+00  1.18725E+01  2.22273E+01  2.99752E+01  3.58927E+01  3.92912E+01
   3.99330E+01  3.69876E+01  3.03662E+01  1.92644E+01  8.63703E+00 -1.91722E+00 -5.88835E+00 -2.69252E+00  3.02740E+00  1.40870E+01
   2.18666E+01  2.89003E+01  3.43270E+01  3.87094E+01  4.28156E+01  4.64549E+01  4.95639E+01  5.27854E+01  5.61279E+01  5.82900E+01
   5.98028E+01  5.97469E+01  5.89418E+01  5.51296E+01  4.83400E+01  3.95080E+01  2.98126E+01  1.46187E+01  4.06848E+00 -9.72044E+00
  -3.64774E+01 -7.23940E+01 -9.25092E+01 -8.28984E+01 -7.23710E+01 -5.68091E+01 -4.32718E+01 -3.31215E+01 -2.49874E+01 -1.80415E+01
  -1.17795E+01 -6.01942E+00 -3.13947E-01  5.64216E+00  1.21829E+01  1.92103E+01  2.68006E+01  3.94453E+01  5.71282E+01  7.41007E+01
   8.74472E+01  9.85904E+01  9.92882E+01  7.81814E+01  2.26093E+01 -3.64381E+01 -6.01675E+01 -6.86032E+01 -6.86761E+01 -6.25416E+01
  -5.79907E+01 -5.51954E+01 -5.35821E+01 -5.26800E+01 -5.23920E+01 -5.18521E+01 -5.11419E+01 -5.01428E+01 -4.82681E+01 -4.62112E+01
  -4.40220E+01 -4.19277E+01 -3.99913E+01 -3.80193E+01 -3.63153E+01 -3.45436E+01 -3.26919E+01 -3.09601E+01 -2.95483E+01 -2.86576E+01
  -2.79488E+01 -2.70004E+01 -2.57829E+01 -2.47188E+01 -2.46871E+01 -2.55478E+01 -2.60937E+01 -2.59176E+01 -2.49621E+01 -2.35748E+01
  -2.21290E+01 -1.93752E+01 -1.41975E+01 -7.56019E+00 -3.22240E+00 -3.95324E+00 -6.19874E+00 -5.35829E+00 -2.78279E+00 -3.52131E+00
  -8.80032E+00 -1.66632E+01 -2.32359E+01 -2.76853E+01 -3.14731E+01 -3.35741E+01 -3.48580E+01 -3.53985E+01 -3.52087E+01 -3.50705E+01
  -3.42192E+01 -3.22666E+01 -3.01194E+01 -2.75467E+01 -2.48611E+01 -2.09246E+01 -1.53068E+01 -1.37018E+01 -1.40047E+01 -1.08187E+01
  -9.47569E+00 -9.57350E+00 -1.03120E+01 -1.20093E+01 -1.17212E+01 -1.41813E+01 -1.89411E+01 -2.34203E+01 -2.85343E+01 -3.36369E+01
  -3.84310E+01 -4.26255E+01 -4.52721E+01 -4.54713E+01 -4.23166E+01 -3.39662E+01 -2.06992E+01 -6.84821E+00  9.37076E+00  1.76736E+01
   2.00976E+01  2.06719E+01  1.35674E+01  9.45062E+00  6.37812E+00  4.51451E+00  3.28620E+00  1.06185E+00 -2.30804E+00 -7.30959E+00
  -1.37009E+01 -2.10472E+01 -2.89571E+01 -3.68221E+01 -4.42141E+01 -5.03111E+01 -5.51725E+01 -5.85641E+01 -5.91480E+01 -5.91950E+01
  -5.71109E+01 -5.34051E+01 -5.09691E+01 -4.80020E+01 -4.44920E+01 -4.23944E+01 -4.01694E+01 -3.85102E+01 -3.94223E+01 -4.22499E+01
  -4.62090E+01 -4.90760E+01 -5.54265E+01 -6.59350E+01 -7.25887E+01 -7.00939E+01 -6.88639E+01 -6.51882E+01 -4.89897E+01  4.52106E+00
   5.66540E+01  7.16332E+01  8.02857E+01  7.65373E+01  6.90050E+01  6.25830E+01  5.73980E+01  5.28569E+01  4.87326E+01  4.50170E+01
   4.18335E+01  3.92831E+01  3.75495E+01  3.64865E+01  3.57350E+01  3.54283E+01  3.49259E+01  3.44514E+01  3.37343E+01  3.28251E+01
   3.19129E+01  3.06541E+01  2.91890E+01  2.75199E+01  2.58186E+01  2.41451E+01  2.24166E+01  2.05376E+01  1.86949E+01  1.67426E+01
   1.45223E+01  1.21010E+01  9.36659E+00  6.64176E+00  4.05850E+00  1.71135E+00  5.63910E-02 -6.18429E-01 -3.43150E-01  7.58633E-01
   2.36509E+00  4.25100E+00  6.32481E+00  8.57092E+00  1.08553E+01  1.30794E+01  1.53013E+01  1.74406E+01  1.95828E+01  2.18049E+01
   2.41866E+01  2.65657E+01  2.87211E+01  3.07703E+01  3.26978E+01  3.44958E+01  3.61204E+01  3.73799E+01  3.82618E+01  3.88046E+01
   3.87946E+01  3.83921E+01  3.78908E+01  3.71129E+01  3.58533E+01  3.42733E+01  3.23301E+01  2.96667E+01  2.61714E+01  2.17362E+01
   1.69850E+01  1.26025E+01  9.11588E+00  6.95154E+00  6.50292E+00  8.03135E+00  1.22630E+01  1.96315E+01  2.81225E+01  3.71259E+01
   4.47600E+01  4.82126E+01  4.36370E+01  2.97539E+01  7.16522E+00 -9.99494E+00 -2.32708E+01 -2.63462E+01 -1.59939E+01 -9.16582E+00
  -9.00814E-01  4.62945E+00  7.77785E+00  9.23427E+00  9.50325E+00  8.84677E+00  7.90829E+00  7.27197E+00  7.34683E+00  8.21535E+00
   9.79313E+00  1.21065E+01  1.48290E+01  1.79093E+01  2.11539E+01  2.43453E+01  2.74532E+01  3.03790E+01  3.31554E+01  3.57946E+01
   3.83595E+01  4.08811E+01  4.33872E+01  4.58754E+01  4.84398E+01  5.11617E+01  5.40734E+01  5.73715E+01  6.09734E+01  6.48239E+01
   6.91424E+01  7.39070E+01  7.88171E+01  8.40207E+01  8.95351E+01  9.47794E+01  9.90577E+01  1.01805E+02  1.02399E+02  1.00295E+02
   9.55750E+01  8.89265E+01  8.15973E+01  7.44996E+01  6.81302E+01  6.23532E+01  5.70865E+01  5.17539E+01  4.58487E+01  3.94372E+01
   3.28597E+01  2.64743E+01  2.05132E+01  1.56519E+01  1.17650E+01  8.58991E+00  6.18776E+00  4.36308E+00  2.95329E+00  1.73366E+00
   5.92954E-01 -4.38937E-01 -1.40303E+00 -2.11606E+00 -2.68768E+00 -3.21264E+00 -3.72822E+00 -4.13035E+00 -4.46669E+00 -4.95888E+00
  -5.47630E+00 -5.87610E+00 -6.03148E+00 -6.36662E+00 -6.82849E+00 -7.17372E+00 -7.51126E+00 -7.84063E+00 -8.22672E+00 -8.53890E+00
  -8.76386E+00 -8.92570E+00 -9.22411E+00 -9.63251E+00 -1.00393E+01 -1.04746E+01 -1.08085E+01 -1.10549E+01 -1.12251E+01 -1.14332E+01
  -1.15605E+01 -1.17371E+01 -1.19964E+01 -1.22273E+01 -1.25143E+01 -1.28798E+01 -1.33175E+01 -1.36675E+01 -1.39127E+01 -1.40794E+01
  -1.42806E+01 -1.44923E+01 -1.46992E+01 -1.50114E+01 -1.52475E+01 -1.53300E+01 -1.54213E+01 -1.55523E+01 -1.56323E+01 -1.57818E+01
  -1.59442E+01 -1.60818E+01 -1.62871E+01 -1.65504E+01 -1.68475E+01 -1.70752E+01 -1.72663E+01 -1.73016E+01 -1.73045E+01 -1.71944E+01
  -1.71225E+01 -1.72170E+01 -1.74652E+01 -1.77813E+01 -1.80006E+01 -1.81363E+01 -1.81908E+01 -1.82870E+01 -1.83912E+01 -1.84203E+01
 NY background values follow
    -1.214E+01   -1.203E+01   -1.192E+01   -1.182E+01   -1.171E+01   -1.160E+01   -1.149E+01   -1.138E+01   -1.126E+01   -1.115E+01
    -1.103E+01   -1.092E+01   -1.080E+01   -1.067E+01   -1.055E+01   -1.042E+01   -1.029E+01   -1.015E+01   -1.001E+01   -9.873E+00
    -9.727E+00   -9.577E+00   -9.423E+00   -9.265E+00   -9.101E+00   -8.933E+00   -8.760E+00   -8.582E+00   -8.397E+00   -8.208E+00
    -8.012E+00   -7.810E+00   -7.603E+00   -7.389E+00   -7.171E+00   -6.948E+00   -6.719E+00   -6.486E+00   -6.249E+00   -6.008E+00
    -5.764E+00   -5.516E+00   -5.264E+00   -5.010E+00   -4.753E+00   -4.494E+00   -4.232E+00   -3.969E+00   -3.704E+00   -3.438E+00
    -3.171E+00   -2.903E+00   -2.635E+00   -2.366E+00   -2.097E+00   -1.829E+00   -1.561E+00   -1.294E+00   -1.028E+00   -7.633E-01
    -5.002E-01   -2.391E-01    2.008E-02    2.770E-01    5.316E-01    7.836E-01    1.033E+00    1.279E+00    1.522E+00    1.763E+00
     1.999E+00    2.232E+00    2.461E+00    2.687E+00    2.908E+00    3.125E+00    3.337E+00    3.545E+00    3.748E+00    3.946E+00
     4.139E+00    4.327E+00    4.509E+00    4.685E+00    4.856E+00    5.021E+00    5.179E+00    5.331E+00    5.476E+00    5.615E+00
     5.747E+00    5.872E+00    5.990E+00    6.101E+00    6.206E+00    6.303E+00    6.394E+00    6.479E+00    6.557E+00    6.628E+00
     6.694E+00    6.753E+00    6.805E+00    6.852E+00    6.893E+00    6.927E+00    6.956E+00    6.979E+00    6.996E+00    7.007E+00
     7.013E+00    7.013E+00    7.008E+00    6.997E+00    6.982E+00    6.960E+00    6.934E+00    6.903E+00    6.866E+00    6.825E+00
     6.779E+00    6.727E+00    6.672E+00    6.611E+00    6.546E+00    6.476E+00    6.401E+00    6.322E+00    6.239E+00    6.151E+00
     6.059E+00    5.962E+00    5.861E+00    5.756E+00    5.647E+00    5.534E+00    5.416E+00    5.295E+00    5.169E+00    5.039E+00
     4.906E+00    4.769E+00    4.628E+00    4.483E+00    4.334E+00    4.182E+00    4.026E+00    3.867E+00    3.704E+00    3.537E+00
     3.367E+00    3.194E+00    3.018E+00    2.838E+00    2.656E+00    2.471E+00    2.283E+00    2.092E+00    1.900E+00    1.704E+00
     1.507E+00    1.308E+00    1.107E+00    9.043E-01    7.000E-01    4.943E-01    2.872E-01    7.896E-02   -1.303E-01   -3.405E-01
    -5.514E-01   -7.629E-01   -9.749E-01   -1.187E+00   -1.400E+00   -1.613E+00   -1.825E+00   -2.038E+00   -2.250E+00   -2.461E+00
    -2.672E+00   -2.882E+00   -3.092E+00   -3.300E+00   -3.506E+00   -3.711E+00   -3.914E+00   -4.115E+00   -4.314E+00   -4.510E+00
    -4.703E+00   -4.894E+00   -5.081E+00   -5.264E+00   -5.445E+00   -5.621E+00   -5.793E+00   -5.961E+00   -6.124E+00   -6.283E+00
    -6.436E+00   -6.585E+00   -6.728E+00   -6.865E+00   -6.997E+00   -7.122E+00   -7.242E+00   -7.354E+00   -7.461E+00   -7.560E+00
    -7.652E+00   -7.736E+00   -7.815E+00   -7.887E+00   -7.954E+00   -8.016E+00   -8.073E+00   -8.127E+00   -8.177E+00   -8.224E+00
    -8.269E+00   -8.312E+00   -8.353E+00   -8.394E+00   -8.435E+00   -8.476E+00   -8.517E+00   -8.560E+00   -8.605E+00   -8.652E+00
    -8.701E+00   -8.755E+00   -8.812E+00   -8.873E+00   -8.940E+00   -9.011E+00   -9.089E+00   -9.174E+00   -9.265E+00   -9.364E+00
    -9.471E+00   -9.586E+00   -9.709E+00   -9.841E+00   -9.982E+00   -1.013E+01   -1.029E+01   -1.045E+01   -1.063E+01   -1.081E+01
    -1.100E+01   -1.120E+01   -1.141E+01   -1.163E+01   -1.186E+01   -1.209E+01   -1.234E+01   -1.259E+01   -1.285E+01   -1.312E+01
    -1.340E+01   -1.369E+01   -1.399E+01   -1.429E+01   -1.461E+01   -1.493E+01   -1.527E+01   -1.561E+01   -1.596E+01   -1.632E+01
    -1.669E+01   -1.707E+01   -1.746E+01   -1.785E+01   -1.824E+01   -1.863E+01   -1.902E+01   -1.941E+01   -1.980E+01   -2.018E+01
    -2.055E+01   -2.091E+01   -2.126E+01   -2.159E+01   -2.191E+01   -2.221E+01   -2.250E+01   -2.276E+01   -2.300E+01   -2.321E+01
    -2.340E+01   -2.356E+01   -2.369E+01   -2.378E+01   -2.385E+01   -2.387E+01   -2.386E+01   -2.382E+01   -2.373E+01   -2.359E+01
    -2.341E+01   -2.319E+01   -2.293E+01   -2.262E+01   -2.227E+01   -2.189E+01   -2.146E+01   -2.101E+01   -2.051E+01   -1.999E+01
    -1.943E+01   -1.885E+01   -1.823E+01   -1.759E+01   -1.693E+01   -1.624E+01   -1.552E+01   -1.479E+01   -1.404E+01   -1.327E+01
    -1.248E+01   -1.168E+01   -1.087E+01   -1.004E+01   -9.206E+00   -8.361E+00   -7.508E+00   -6.650E+00   -5.787E+00   -4.921E+00
    -4.053E+00   -3.186E+00   -2.319E+00   -1.453E+00   -5.903E-01    2.693E-01    1.124E+00    1.974E+00    2.818E+00    3.655E+00
     4.483E+00    5.302E+00    6.112E+00    6.910E+00    7.696E+00    8.470E+00    9.230E+00    9.975E+00    1.071E+01    1.142E+01
     1.211E+01    1.279E+01    1.345E+01    1.409E+01    1.470E+01    1.530E+01    1.587E+01    1.641E+01    1.694E+01    1.743E+01
     1.790E+01    1.834E+01    1.876E+01    1.915E+01    1.951E+01    1.985E+01    2.016E+01    2.044E+01    2.070E+01    2.093E+01
     2.114E+01    2.132E+01    2.148E+01    2.161E+01    2.172E+01    2.180E+01    2.186E+01    2.190E+01    2.191E+01    2.190E+01
     2.186E+01    2.180E+01    2.172E+01    2.161E+01    2.149E+01    2.134E+01    2.116E+01    2.097E+01    2.075E+01    2.051E+01
     2.025E+01    1.997E+01    1.967E+01    1.935E+01    1.901E+01    1.865E+01    1.828E+01    1.789E+01    1.748E+01    1.706E+01
     1.663E+01    1.618E+01    1.572E+01    1.525E+01    1.477E+01    1.428E+01    1.378E+01    1.327E+01    1.275E+01    1.223E+01
     1.171E+01    1.117E+01    1.064E+01    1.010E+01    9.556E+00    9.012E+00    8.468E+00    7.923E+00    7.379E+00    6.837E+00
     6.297E+00    5.759E+00    5.225E+00    4.693E+00    4.163E+00    3.637E+00    3.114E+00    2.593E+00    2.076E+00    1.562E+00
     1.052E+00    5.445E-01    4.083E-02   -4.592E-01   -9.556E-01   -1.448E+00   -1.937E+00   -2.422E+00   -2.903E+00   -3.379E+00
    -3.852E+00   -4.320E+00   -4.784E+00   -5.243E+00   -5.697E+00   -6.148E+00   -6.593E+00   -7.033E+00   -7.469E+00   -7.900E+00
    -8.325E+00   -8.746E+00   -9.162E+00   -9.573E+00   -9.980E+00   -1.038E+01   -1.078E+01   -1.118E+01   -1.157E+01   -1.196E+01
    -1.234E+01   -1.272E+01   -1.310E+01   -1.348E+01   -1.385E+01   -1.423E+01   -1.460E+01   -1.497E+01   -1.533E+01   -1.570E+01
    -1.606E+01   -1.643E+01   -1.679E+01   -1.715E+01   -1.751E+01   -1.787E+01   -1.823E+01   -1.859E+01   -1.895E+01   -1.932E+01
 Mac      Conc. = 2.00E-04
  -2.57524E+01 -2.60921E+01 -2.63563E+01 -2.65205E+01 -2.66503E+01 -2.68320E+01 -2.71999E+01 -2.78640E+01 -2.87859E+01 -2.97850E+01
  -3.06875E+01 -3.12959E+01 -3.16618E+01 -3.19180E+01 -3.22180E+01 -3.25486E+01 -3.30005E+01 -3.36444E+01 -3.36185E+01 -3.23719E+01
  -2.97291E+01 -2.67400E+01 -2.41299E+01 -2.14966E+01 -1.93098E+01 -1.78709E+01 -1.67118E+01 -1.55623E+01 -1.42964E+01 -1.28738E+01
  -1.13521E+01 -9.88380E+00 -8.74640E+00 -7.84455E+00 -7.20080E+00 -6.74808E+00 -6.44705E+00 -6.09395E+00 -5.31234E+00 -4.03752E+00
  -2.50630E+00 -1.26414E+00 -5.65781E-01 -1.35087E-01  4.76896E-01  1.35106E+00  2.33352E+00  3.17760E+00  3.53280E+00  3.51312E+00
   3.17438E+00  2.62161E+00  1.97230E+00  1.36348E+00  1.05260E+00  8.78553E-01  8.84694E-01  1.11565E+00  1.69480E+00  2.69188E+00
   3.91152E+00  5.02061E+00  6.07062E+00  7.08551E+00  7.61897E+00  7.65800E+00  7.45610E+00  7.01747E+00  6.74626E+00  6.72373E+00
   6.84045E+00  7.32346E+00  8.38541E+00  1.00900E+01  1.17396E+01  1.29992E+01  1.38535E+01  1.42973E+01  1.43364E+01  1.41015E+01
   1.37843E+01  1.35239E+01  1.33566E+01  1.32731E+01  1.33839E+01  1.37594E+01  1.43974E+01  1.50146E+01  1.57287E+01  1.64068E+01
   1.69597E+01  1.74822E+01  1.78722E+01  1.82081E+01  1.83081E+01  1.81202E+01  1.75675E+01  1.65515E+01  1.51571E+01  1.36620E+01
   1.20596E+01  1.06421E+01  9.38603E+00  7.88752E+00  5.81059E+00  3.22255E+00  2.83428E-02 -3.86961E+00 -8.03512E+00 -1.17172E+01
