 
 $NMID
 ID=''
 FMTDAT='(2E13.5)'
 TRAMP=   1.00000E+0
 VOLUME=   1.00000E+0
 $END
   1.67380E+4  -1.68635E+4
  -7.56599E+1  -2.83621E+4
  -2.17702E+4   5.23178E+3
   5.47431E+3   2.78424E+4
   1.79996E+4  -9.01352E+3
  -8.24318E+3  -1.97039E+4
  -8.48526E+3   1.32880E+4
   1.04339E+4   1.09915E+4
   2.75859E+3  -8.56962E+3
  -6.91670E+3  -3.86387E+2
  -4.11816E+2   4.76514E+3
   1.25022E+2  -2.93120E+3
  -1.70615E+3  -1.56676E+2
   1.29166E+3   1.14824E+3
   2.17270E+2  -4.16567E+3
   5.03181E+2  -1.74209E+3
   2.46848E+3   1.51752E+3
  -7.01243E+2   2.02321E+2
  -1.16682E+3   4.80298E+2
   1.63738E+3   3.83807E+2
  -4.03950E+1  -9.40525E+2
   5.89413E+1   5.13200E+1
   1.47750E+3   1.51366E+3
  -1.28741E+3   9.56525E+1
  -1.66350E+3  -1.02148E+3
   2.54610E+3  -1.76084E+2
   9.38123E+2   1.81546E+3
  -3.23771E+3   8.62925E+2
  -1.06802E+3  -1.86847E+3
   1.62837E+3  -1.11315E+3
   4.50909E+2   1.72199E+3
  -1.13035E+3   9.30586E+2
  -1.50348E+3  -9.57841E+2
  -7.45927E+2  -1.08863E+3
   4.11793E+2  -1.25247E+3
   1.75904E+3  -9.61548E+1
   3.71518E+2   1.87659E+3
  -1.36366E+3   1.04885E+3
  -6.36859E+2  -2.36135E+2
   3.60924E+2   2.38885E+2
  -8.71523E+2   4.51058E+2
  -8.24364E+2  -4.76805E+2
   1.24660E+3  -5.98232E+2
   1.24596E+3  -2.74447E+2
   9.93561E+2   3.16631E+2
   3.74415E+2   1.04450E+3
  -2.90769E+2   2.20179E+3
  -1.62019E+3   4.43360E+2
  -1.28513E+3  -1.29644E+3
   1.84035E+1  -1.10324E+3
   5.94387E+2   1.35705E+1
   4.28445E+2  -4.42047E+2
   5.34666E+2  -6.52187E+2
   3.02692E+2   4.02956E+1
   3.66284E+2   4.74445E+2
   3.26645E+0   5.94350E+2
  -1.05319E+3   1.00281E+2
  -3.04272E+2  -6.94223E+2
   6.75188E+2  -1.19589E+3
   7.32862E+2  -2.30435E+2
   3.00288E+2   6.14190E+2
   5.08825E+2   8.14407E+2
   4.02613E+2   6.76431E+2
  -5.02273E+2   9.90398E+2
  -1.74493E+3   2.85485E+2
  -1.33139E+3  -7.07512E+2
   2.75519E+1  -1.41097E+3
   5.91278E+2  -1.26548E+3
   7.11464E+2  -2.12984E+2
   2.07341E+2   3.47541E+2
  -3.83970E+2  -8.37988E+1
  -1.71714E+2  -5.60137E+2
   7.66430E+2  -6.75643E+1
   5.29589E+2   5.05107E+2
  -2.49723E+2   5.76475E+2
  -3.15168E+2   1.08460E+2
   2.04560E+2  -3.71707E+1
   1.51770E+2   5.74302E+1
  -6.03718E+1   1.91269E+2
  -2.60719E+2   1.20282E+2
  -5.55570E+2  -1.77030E+2
  -2.04095E+2  -2.27275E+2
   1.11653E+2   5.40756E+0
   1.62156E+2   4.04080E+1
  -3.52660E+2  -4.72456E+1
  -1.88055E+2  -6.50546E+2
   6.70226E+2  -2.62851E+2
   6.51801E+2   2.07916E+2
  -8.22255E+1   3.94501E+2
   1.54874E+2  -3.86107E+2
   4.75311E+2  -1.78887E+2
   4.71947E+2   2.01521E+2
   7.87147E+1   8.24691E+2
  -4.15885E+2   4.86675E+2
  -5.01303E+2  -1.16978E+2
  -2.83193E+2  -5.13342E+2
   1.43167E+2  -3.79360E+2
   1.85350E+2   6.66012E+1
  -5.03052E+1  -2.72842E+2
   3.10831E+1  -1.23224E+2
   2.11411E+2  -5.14243E+1
   5.45066E+2   4.03748E+2
  -1.12138E+2   5.74023E+2
  -5.85361E+2  -8.96408E-1
  -1.15523E+2  -4.76753E+2
   1.41920E+2  -2.54995E+2
   2.83827E+2   3.90056E+2
  -2.26390E+2   6.46547E+2
  -6.40480E+2  -2.15609E+2
  -1.37379E+2  -7.82009E+2
   9.37869E+1  -5.44183E+2
   2.53849E+2  -1.92265E+1
   1.30491E+2   4.79052E+2
   5.21652E+1   1.98325E+2
  -1.32897E+2   1.49515E+2
   1.13729E+2   2.20068E+2
  -6.71161E+1   3.92773E+2
  -2.98693E+2   2.10736E+2
  -4.53838E+2  -1.71125E+2
  -2.55792E+2  -6.21610E+1
   2.59739E+2  -6.92437E+1
   3.95026E+2   5.20420E+1
   2.71737E+0   4.71072E+1
  -1.07529E+2   3.62839E+1
  -1.84669E+2   1.30483E+2
  -5.50063E+1   5.79224E+0
   4.41020E+1  -5.28329E+1
  -1.35518E+2  -1.31505E+1
   1.23139E+2  -2.09496E+2
   1.55123E+1  -8.93814E+1
   7.50536E+1   1.45216E+2
  -1.20949E+2   1.31268E+2
  -3.87275E+2   5.19258E+1
  -3.27854E+2  -7.68687E+1
  -6.84055E+1  -6.56863E+1
  -1.46195E+2  -7.65741E+1
  -2.34014E+2  -8.26050E+1
   1.34992E+2  -2.30871E+2
   2.43336E+2  -1.98754E+1
  -3.88121E+1   1.32402E+2
  -4.35979E+2   8.75112E+1
  -1.50071E+2   7.57909E+1
   3.23423E+2  -3.35541E+2
   3.46263E+2  -7.26352E+1
   3.11829E+2   2.15018E+2
   2.22310E+2   7.73673E+0
  -1.18510E+2   1.52570E+2
  -1.17818E+2  -8.18861E+1
   2.42289E+2  -1.25132E+2
   9.73095E+1   1.80915E+2
  -7.28989E+1  -1.87976E+0
  -1.14983E+2  -7.78113E+1
   2.37575E+2  -1.29549E+2
   1.22623E+2   4.60770E+0
   4.37024E+1   2.68053E+1
  -5.00201E+1   7.42288E+1
  -5.77248E+1   7.63491E+1
   2.47179E+2  -5.91789E+1
   8.34024E+1   6.28878E+1
  -1.25155E+2  -3.02352E+1
   1.18797E+2  -5.75860E+1
   2.32930E+1   1.17175E+2
   8.32371E+1   1.83941E+2
  -1.85224E+2   1.12805E+2
  -2.28445E+1  -2.13224E+2
   1.11600E+2  -2.00612E+2
   1.80091E+0  -3.59100E+2
   2.07250E+2  -5.77756E+1
   2.03738E+2  -1.39090E+2
  -1.08111E+2  -9.56982E+1
   4.77183E+1   7.39603E+1
  -7.75556E+0  -2.66612E+2
   3.18361E+2   4.52532E+1
  -4.97089E+1   6.33625E+1
   7.88536E+1   9.22727E+1
   7.47905E+1  -5.18313E+1
   2.13139E+2  -4.49632E+1
   4.67417E+1  -5.41621E+1
  -1.78662E+2  -7.04611E+1
  -2.24015E+1  -8.68865E+1
  -2.81761E+1  -2.94768E+2
   4.34338E+1   4.33252E+1
  -6.16857E+1  -5.42296E+1
  -5.08849E+1   1.14277E+2
   1.24223E+1   1.29704E+2
  -1.38443E+2   9.67319E+1
  -7.55421E+1   3.93795E-1
  -1.37858E+2   4.89544E+1
  -8.29984E+1  -1.68315E+2
  -6.78556E+1  -2.03963E+2
  -1.59556E+2  -1.72804E+2
   2.75545E+0  -2.01726E+2
  -1.42273E+2  -1.70297E+1
   9.80866E+1   1.34535E+2
  -1.10835E+2  -1.19553E+2
   2.64490E+0  -4.94208E+1
   1.77916E+1   4.92293E+1
   7.90796E+1  -2.11121E+2
   2.83745E+1   1.79535E+2
  -6.89052E+1  -1.98629E+2
  -1.47479E+2  -3.80949E+1
   1.05481E+2   1.79485E+1
  -8.61364E+0   1.35316E+2
   1.52884E+1   1.56700E+2
  -8.16641E+1   1.84696E+2
   9.82686E+1   1.39205E+2
  -9.47042E+1   1.41479E+2
  -7.21303E+1  -4.19087E+1
  -1.29252E+2   1.53463E+2
  -7.19521E-1  -1.34132E+1
   3.45417E+0   2.35827E+2
  -2.44011E+2  -5.95416E+1
  -3.06904E+1   1.83197E+2
   1.40802E+2   1.99454E+2
   3.09278E+2   2.87279E+2
   1.48988E+1  -3.05750E+1
  -1.69430E+1   1.81140E+1
  -4.00477E+1   2.97906E+2
   2.39484E+1  -6.72551E+1
  -8.22790E+1   1.25267E+2
   1.07586E+2  -8.15629E+1
   1.36873E-1   1.21392E+2
   2.37147E+1   4.44971E+1
   2.59337E+1  -2.24129E+2
   1.03090E+0   2.47090E+1
   7.35747E+0   2.16770E+2
  -8.28445E+1   8.61762E+1
  -1.85561E+2  -1.76579E+2
   8.58515E+1  -6.25012E+1
  -4.85708E+1  -2.72982E+0
  -8.10919E+1  -1.18389E+2
  -8.03311E+1  -2.41982E+2
  -3.05108E+1   6.88101E+1
   3.69778E+1  -5.53828E+1
   5.20355E+1   6.49702E+1
   2.12613E+2  -1.23559E+2
   2.11390E+1  -5.62357E+1
   1.86558E+2   7.30101E+1
  -2.55153E+2  -9.39286E+1
  -2.51759E+1  -1.16231E+2
  -1.01735E+2  -1.77088E+2
  -2.41526E+2   2.54658E+2
   1.26160E+2  -2.13557E+2
   1.34512E+2  -4.66785E-1
  -9.62157E+1  -1.07453E+2
   3.29935E+1   1.11308E+2
  -3.11692E+1  -5.73936E+1
   2.27055E+2   3.94732E+1
  -1.55721E+2   3.74390E+1
   1.22688E+0   1.16496E+2
  -2.47231E+2   1.35657E+2
  -1.69000E+1  -1.02455E+2
   1.77235E+0  -1.48452E+2
  -3.25976E+1  -5.10702E+1
  -8.62023E+1   4.76555E+1
  -9.57691E+1   6.30096E+1
  -1.23542E+0   2.11515E+1
  -1.50130E+2  -1.14742E+1
  -6.30568E+1  -1.04338E+2
   5.52771E+1   7.50199E+1
  -1.03411E+2   1.61246E+2
   2.66907E+2  -1.69840E+2
   8.18999E+1  -3.00779E+1
  -1.83352E+1   3.61422E+1
   2.34929E+2   7.45370E+1
   2.58519E+1  -6.87219E+1
  -4.53212E+0   1.55517E+2
  -1.46149E+2  -1.34343E+2
   7.80303E+1   9.80940E+1
   2.79796E+1  -1.74859E+2
   1.29555E+1  -7.80810E+1
  -7.65609E+1   5.71979E+1
  -2.95547E+1  -1.86781E+2
   9.11581E-1  -5.57817E+1
   1.24738E+1   4.49136E+1
   1.44279E+2  -3.97924E+1
   8.72590E+1   1.57899E+2
   2.77006E+2  -2.97598E+1
  -7.91042E+1   4.49881E+1
  -1.88706E+2   2.53257E+2
   8.83360E+1  -2.51139E+1
   6.60104E+1  -7.90171E+0
  -7.23636E+1   2.98881E+1
  -3.42252E+1  -9.68517E+1
   1.89824E+2   1.59143E+1
   1.52585E+2  -7.00657E+1
   9.53385E+1   1.54608E+2
   1.37626E+2   4.36627E+1
   3.47291E+2  -1.39457E+2
   2.04260E+2   2.48408E+2
  -3.69632E+1  -9.33849E+1
  -4.95608E+1   7.76911E+1
  -4.69657E+1   1.67326E+2
   1.33799E+2  -9.86438E+1
  -1.76091E+2  -3.95117E+1
  -2.74482E+2  -3.31508E+0
  -2.36232E+1   4.15381E+1
  -1.23043E+2   1.43798E+2
   3.33027E+1  -6.66701E+0
  -1.08570E+2  -7.23268E+1
   1.27925E+2   9.96275E+1
   2.45175E+1  -1.63667E+1
  -1.40342E+1   2.32853E+2
  -1.70136E+1  -3.39336E+1
  -6.19731E+1  -4.17478E+1
   1.34606E+2  -8.59123E+1
   1.19822E+2  -1.49889E+2
  -9.31153E+1   9.01587E+0
   6.36646E+0   2.61997E+1
   9.43679E+1   1.88181E+2
   1.18829E+2  -1.28338E+2
   1.47391E+2   1.76359E+2
   2.43551E+2   1.81564E+2
   1.74181E+2  -4.63120E+1
  -6.43956E+1  -2.89627E+1
   1.20703E+2  -4.84337E+1
  -2.07654E+1  -2.30623E+2
   1.47288E+2   2.23260E+2
  -1.08140E+2  -3.67420E+1
   6.73652E+1   2.29992E+2
  -7.44839E+1  -1.79724E+2
   3.12109E+1   1.00305E+2
  -1.31542E+2   8.64467E+1
  -1.08541E+2  -9.81425E+1
   8.30952E+1   8.22777E+1
   5.49064E+1  -8.93838E+0
  -1.96396E+2   2.19619E+2
   3.08640E-1  -9.34793E+1
   2.85499E+0  -4.06775E+1
   2.68829E+2   9.62171E+1
   1.30256E+2   1.80906E+2
   4.94409E+1  -7.55360E+0
   1.06483E+2   7.64092E+1
   2.85134E+1   9.80947E+1
   1.05877E+2  -1.31337E+2
   1.14768E+2  -7.64094E+1
   1.23913E+1  -8.40878E+1
  -8.55128E+1  -1.11365E+2
   1.65069E+1  -2.28760E+2
  -2.25485E+1  -5.02435E+1
   1.62495E+2  -5.87381E+1
   7.96755E+1  -1.31740E+2
   1.84544E+2   1.25462E+2
   2.82274E+1  -1.77199E+1
   2.03958E+1   8.64724E+1
   1.68431E+2  -2.75695E+1
   2.99100E+2   4.31609E+1
   1.57583E+2   5.12278E+1
   6.75381E+1  -3.21316E+2
   1.59942E+2   4.20391E+1
  -1.07819E+2   5.11553E+1
  -1.70910E+2  -1.16661E+2
   6.74279E+1  -1.12510E+1
  -2.65704E+1   3.29296E+0
  -2.53979E+1   3.19337E+1
   1.57663E+2   6.86302E+1
   1.43504E+2   6.09789E+1
  -1.22933E+1  -2.69172E+1
   1.50996E+2   1.51988E+2
  -1.60502E+2  -4.08368E+1
  -8.18693E+1  -6.41511E+1
   5.32123E+1   1.20702E+2
   1.43203E+1   2.05990E+2
   6.87779E+0  -3.23537E+1
   1.60711E+2  -3.97708E+1
   1.04644E+2   3.03643E+1
  -1.66687E+1   5.75926E+1
