 LCModel (Version 6.3-1N) Copyright: S.W. Provencher.          Ref.: Magn. Reson. Med. 30:672-679 (1993).                
 Slice_N1@23_14  28-Feb-2025 11:43:21
 27 lines in following concentration table = NCONC+1
    Conc.  %SD /Cr+PCr  Metabolite                                         
 1.95E-04   7% 2.2E-04 Mac                                                 
    7.157  18%   8.000 Cr                                                  
    0.000 999%   0.000 PCr                                                 
   12.280  14%  13.726 Ins                                                 
    8.876  18%   9.921 NAA                                                 
    3.406  65%   3.807 Tau                                                 
    2.521  16%   2.818 PCho                                                
    0.000 999%   0.000 GPC                                                 
   18.174  10%  20.314 Glu                                                 
    3.512  42%   3.926 Gln                                                 
    0.000 999%   0.000 Ala                                                 
   14.216  18%  15.890 Asc                                                 
    1.698  70%   1.898 Asp                                                 
    1.544  44%   1.726 GABA                                                
    1.315  57%   1.470 Glc                                                 
    4.284  21%   4.789 GSH                                                 
   10.944  11%  12.232 Lac                                                 
    4.282  31%   4.786 NAAG                                                
    0.000 999%   0.000 PE                                                  
    2.521  16%   2.818 GPC+PCho                                            
   13.158   9%  14.708 NAA+NAAG                                            
   21.687  11%  24.240 Glu+Gln                                             
    7.157  18%   8.000 Cr+PCr                                              
   13.158   9%  14.708 NAA+NAAG                                            
    7.157  18%   8.000 Cr+PCr                                              
   21.687  11%  24.240 Glu+Gln                                             
   6 lines in following misc. output table
  FWHM = 0.130 ppm    S/N =   2                                            
  Data shift =-0.057 ppm                                                   
  Ph: -91 deg       0.0 deg/ppm                                            
  alphaB,S = 3.1E-01,   5.8E+01                                            
   16 spline knots.   Ns = 7(2)                                            
  (11) 4 infls.   (10) 2 extrs.                                            
  480 points on ppm-axis = NY
      4.100000     4.091866     4.083733     4.075600     4.067466     4.059333     4.051199     4.043066     4.034933     4.026799
      4.018666     4.010532     4.002399     3.994265     3.986132     3.977998     3.969864     3.961731     3.953597     3.945463
      3.937330     3.929196     3.921062     3.912929     3.904795     3.896662     3.888528     3.880394     3.872261     3.864127
      3.855993     3.847860     3.839726     3.831592     3.823459     3.815325     3.807191     3.799058     3.790924     3.782790
      3.774657     3.766523     3.758389     3.750256     3.742122     3.733989     3.725855     3.717721     3.709588     3.701454
      3.693320     3.685187     3.677053     3.668919     3.660786     3.652652     3.644518     3.636385     3.628251     3.620117
      3.611984     3.603850     3.595716     3.587583     3.579449     3.571316     3.563182     3.555048     3.546915     3.538781
      3.530647     3.522514     3.514380     3.506246     3.498113     3.489979     3.481845     3.473712     3.465578     3.457444
      3.449311     3.441177     3.433043     3.424910     3.416776     3.408643     3.400509     3.392375     3.384242     3.376108
      3.367974     3.359841     3.351707     3.343573     3.335440     3.327306     3.319172     3.311039     3.302905     3.294771
      3.286638     3.278504     3.270370     3.262237     3.254103     3.245970     3.237836     3.229702     3.221569     3.213435
      3.205301     3.197168     3.189034     3.180900     3.172767     3.164633     3.156499     3.148366     3.140232     3.132098
      3.123965     3.115831     3.107697     3.099564     3.091430     3.083297     3.075163     3.067029     3.058896     3.050762
      3.042628     3.034495     3.026361     3.018227     3.010094     3.001960     2.993826     2.985693     2.977559     2.969425
      2.961292     2.953158     2.945024     2.936891     2.928757     2.920624     2.912490     2.904356     2.896223     2.888089
      2.879955     2.871822     2.863688     2.855554     2.847421     2.839287     2.831153     2.823020     2.814886     2.806752
      2.798619     2.790485     2.782351     2.774218     2.766084     2.757951     2.749817     2.741683     2.733550     2.725416
      2.717282     2.709149     2.701015     2.692881     2.684748     2.676614     2.668480     2.660347     2.652213     2.644079
      2.635946     2.627812     2.619678     2.611545     2.603411     2.595278     2.587144     2.579010     2.570877     2.562743
      2.554609     2.546476     2.538342     2.530208     2.522075     2.513941     2.505807     2.497674     2.489540     2.481406
      2.473273     2.465139     2.457006     2.448872     2.440738     2.432605     2.424471     2.416337     2.408204     2.400070
      2.391936     2.383803     2.375669     2.367535     2.359402     2.351268     2.343134     2.335001     2.326867     2.318733
      2.310600     2.302466     2.294333     2.286199     2.278065     2.269932     2.261798     2.253664     2.245531     2.237397
      2.229263     2.221130     2.212996     2.204862     2.196729     2.188595     2.180461     2.172328     2.164194     2.156060
      2.147927     2.139793     2.131660     2.123526     2.115392     2.107259     2.099125     2.090991     2.082858     2.074724
      2.066590     2.058457     2.050323     2.042189     2.034056     2.025922     2.017788     2.009655     2.001521     1.993387
      1.985254     1.977120     1.968987     1.960853     1.952719     1.944586     1.936452     1.928318     1.920185     1.912051
      1.903917     1.895784     1.887650     1.879516     1.871383     1.863249     1.855115     1.846982     1.838848     1.830714
      1.822581     1.814447     1.806314     1.798180     1.790046     1.781913     1.773779     1.765645     1.757512     1.749378
      1.741244     1.733111     1.724977     1.716843     1.708710     1.700576     1.692442     1.684309     1.676175     1.668041
      1.659908     1.651774     1.643641     1.635507     1.627373     1.619240     1.611106     1.602972     1.594839     1.586705
      1.578571     1.570438     1.562304     1.554170     1.546037     1.537903     1.529769     1.521636     1.513502     1.505368
      1.497235     1.489101     1.480968     1.472834     1.464700     1.456567     1.448433     1.440299     1.432166     1.424032
      1.415898     1.407765     1.399631     1.391497     1.383364     1.375230     1.367096     1.358963     1.350829     1.342695
      1.334562     1.326428     1.318295     1.310161     1.302027     1.293894     1.285760     1.277626     1.269493     1.261359
      1.253225     1.245092     1.236958     1.228824     1.220691     1.212557     1.204423     1.196290     1.188156     1.180022
      1.171889     1.163755     1.155622     1.147488     1.139354     1.131221     1.123087     1.114953     1.106820     1.098686
      1.090552     1.082419     1.074285     1.066151     1.058018     1.049884     1.041750     1.033617     1.025483     1.017349
      1.009216     1.001082     0.992949     0.984815     0.976681     0.968548     0.960414     0.952280     0.944147     0.936013
      0.927879     0.919746     0.911612     0.903478     0.895345     0.887211     0.879077     0.870944     0.862810     0.854676
      0.846543     0.838409     0.830276     0.822142     0.814008     0.805875     0.797741     0.789607     0.781474     0.773340
      0.765206     0.757073     0.748939     0.740805     0.732672     0.724538     0.716404     0.708271     0.700137     0.692003
      0.683870     0.675736     0.667603     0.659469     0.651335     0.643202     0.635068     0.626934     0.618801     0.610667
      0.602533     0.594400     0.586266     0.578132     0.569999     0.561865     0.553731     0.545598     0.537464     0.529330
      0.521197     0.513063     0.504930     0.496796     0.488662     0.480529     0.472395     0.464261     0.456128     0.447994
      0.439861     0.431727     0.423593     0.415460     0.407326     0.399192     0.391059     0.382925     0.374792     0.366658
      0.358524     0.350391     0.342257     0.334124     0.325990     0.317856     0.309723     0.301589     0.293455     0.285322
      0.277188     0.269055     0.260921     0.252787     0.244654     0.236520     0.228386     0.220253     0.212119     0.203986
 NY phased data points follow
  -2.15833E+01 -2.65924E+01 -2.19284E+01 -3.27029E+01 -2.99117E+01 -2.22301E+01 -2.16514E+01 -3.18717E+01 -2.25576E+01 -1.41258E+01
  -3.65727E+01 -2.49070E+01 -3.87851E+01 -3.23760E+01 -1.33915E+01 -4.05547E+01 -1.72931E+01 -2.04425E+01 -4.11630E+01 -3.41155E+01
  -4.05259E+01 -3.45540E+01 -4.59375E+01 -5.40924E+01 -4.07549E+01 -3.28535E+01 -2.99662E+01 -3.64358E+01 -3.44765E+01 -1.83739E+01
  -2.45956E+01 -4.29989E+01 -3.99440E+01 -4.94058E+01 -4.85558E+01 -6.09225E+01 -9.46688E+01 -8.20777E+01 -9.24381E+01 -1.15353E+02
  -1.11465E+02 -1.17194E+02 -1.28609E+02 -1.12888E+02 -9.02064E+01 -1.05804E+02 -9.91990E+01 -8.69673E+01 -9.26151E+01 -9.08355E+01
  -8.21871E+01 -7.32048E+01 -8.28935E+01 -7.65904E+01 -6.47998E+01 -6.21171E+01 -6.25121E+01 -6.05847E+01 -5.93834E+01 -5.88748E+01
  -5.99558E+01 -7.25067E+01 -5.83301E+01 -6.62832E+01 -6.39204E+01 -3.06880E+01 -5.52981E+01 -6.88379E+01 -5.02655E+01 -5.76018E+01
  -6.87978E+01 -5.13061E+01 -6.06221E+01 -7.18385E+01 -5.01581E+01 -5.23912E+01 -3.68145E+01 -5.47266E+01 -4.76615E+01 -6.57266E+00
  -4.53985E+01 -4.09073E+01 -3.16925E+01 -3.87738E+01 -3.38497E+01 -3.87637E+01 -2.30403E+01 -3.27215E+01 -1.61665E+01 -6.71342E+00
  -2.15634E+01 -9.54142E+00 -1.57700E+01 -1.98639E+01 -1.26819E+01 -6.72343E+00  4.43149E+00  1.96030E+00 -3.42738E+00 -1.00983E+01
  -2.20896E+01 -3.65613E+00 -4.61450E+00 -2.60424E+01 -3.41903E+01 -3.63917E+01 -3.55252E+01 -4.92125E+01 -5.46598E+01 -7.63945E+01
  -9.03277E+01 -9.52373E+01 -1.03344E+02 -1.03577E+02 -9.92745E+01 -9.02213E+01 -9.84949E+01 -8.42091E+01 -8.68468E+01 -8.32523E+01
  -6.00851E+01 -6.25089E+01 -5.73799E+01 -3.85297E+01 -2.76380E+01 -3.30687E+01 -2.36623E+01 -2.53221E+01 -2.09156E+01 -1.99502E+01
  -1.24305E+01 -2.31823E+00 -2.83064E+01 -3.59310E+01 -4.21055E+01 -5.28431E+01 -5.89781E+01 -7.10927E+01 -9.39817E+01 -8.03558E+01
  -9.10117E+01 -1.10666E+02 -8.31675E+01 -1.06161E+02 -1.11224E+02 -9.72698E+01 -9.85985E+01 -1.20683E+02 -1.23606E+02 -9.91934E+01
  -1.00360E+02 -9.92785E+01 -1.01037E+02 -9.12202E+01 -9.64046E+01 -8.33838E+01 -8.20896E+01 -8.31390E+01 -7.52417E+01 -8.41027E+01
  -6.00094E+01 -7.53987E+01 -7.21661E+01 -5.46904E+01 -7.38421E+01 -8.20806E+01 -5.98018E+01 -6.58075E+01 -8.50049E+01 -5.54374E+01
  -7.59704E+01 -8.09490E+01 -6.13694E+01 -5.29834E+01 -4.29848E+01 -5.51901E+01 -5.66532E+01 -6.33807E+01 -6.03180E+01 -6.17868E+01
  -5.60660E+01 -5.46732E+01 -6.79664E+01 -7.37955E+01 -8.02093E+01 -7.18660E+01 -7.91747E+01 -8.71213E+01 -7.86111E+01 -6.79748E+01
  -7.49254E+01 -8.08447E+01 -6.23656E+01 -6.50562E+01 -7.27395E+01 -6.15992E+01 -6.17504E+01 -6.43642E+01 -5.08022E+01 -5.12327E+01
  -5.10051E+01 -5.00897E+01 -6.08840E+01 -6.14710E+01 -6.93802E+01 -5.91542E+01 -6.21732E+01 -7.78684E+01 -6.22626E+01 -8.12658E+01
  -8.60094E+01 -7.32520E+01 -8.31186E+01 -7.02145E+01 -6.40651E+01 -5.83006E+01 -6.72570E+01 -7.30247E+01 -5.22883E+01 -5.08997E+01
  -3.88269E+01 -3.24756E+01 -2.66342E+01 -3.15748E+01 -4.49241E+01 -2.79164E+01 -3.97969E+01 -3.59009E+01 -3.06547E+01 -4.67308E+01
  -4.71093E+01 -6.01006E+01 -5.03391E+01 -4.61816E+01 -5.09392E+01 -6.13265E+01 -7.57273E+01 -7.16964E+01 -7.98595E+01 -8.63602E+01
  -8.14648E+01 -8.08877E+01 -9.14891E+01 -8.16137E+01 -1.11313E+02 -1.12664E+02 -8.78053E+01 -1.16007E+02 -8.47862E+01 -8.84175E+01
  -9.71647E+01 -8.82356E+01 -8.24134E+01 -6.97227E+01 -9.20263E+01 -5.48644E+01 -3.21041E+01 -2.85925E+01 -1.92217E+01 -2.96612E+00
   1.24754E+01  1.53110E+01  2.39830E+01  1.92226E+01  3.31374E+01  4.74585E+01  6.59387E+01  1.62339E+01  1.47549E+01  4.88647E+01
   2.23473E+01  3.97603E+01  2.42513E+01  3.55535E+01  3.69618E+01  2.82712E+01  5.24733E+01  4.02989E+01  3.92148E+01  4.26379E+01
   4.35871E+01  3.44146E+01  3.89985E+01  2.48889E+01  1.45914E+01  2.39461E+01  2.83943E+01  3.95982E+01  1.33212E+01  9.99804E+00
   1.37008E+01  1.02732E+01  1.80267E+01  1.17324E-01  8.58117E+00  1.88813E+01  2.53069E+00  6.57728E+00  1.04694E+00  6.37602E+00
   2.09923E+01  6.16174E+00  9.52920E+00 -1.22050E+00 -5.22160E+00  1.29716E+01 -7.27763E+00 -1.15437E+01  4.76918E-01 -1.59116E+01
  -7.96394E+00  1.01546E+00 -5.65348E+00  5.39367E+00 -1.70634E+01 -1.71346E+01 -1.50458E+00 -2.19985E+01 -1.30303E+01  7.37580E+00
   1.24105E+01  1.21455E+01  1.61040E+01  3.30691E+01  4.39610E+01  3.31736E+01  5.28984E+01  7.13361E+01  6.02807E+01  7.26438E+01
   5.96406E+01  4.98058E+01  4.88761E+01  1.72614E+01  1.82438E+01  9.95889E+00 -2.43505E+01 -2.25514E+01 -3.34266E+01 -4.36523E+01
  -4.57244E+01 -5.88029E+01 -3.27132E+01 -3.00873E+01 -4.84909E+01 -4.76096E+01 -4.68537E+01 -3.28609E+01 -3.12452E+01 -2.98160E+01
  -1.66051E+01 -1.92170E+01 -2.51108E+01 -3.32627E+01 -4.00295E+01 -4.30154E+01 -6.07306E+01 -5.93214E+01 -5.82476E+01 -6.43251E+01
  -5.24710E+01 -5.61674E+01 -5.50637E+01 -4.67744E+01 -3.95936E+01 -3.68583E+01 -3.77185E+01 -3.54913E+01 -4.04623E+01 -3.28106E+01
  -1.73673E+01 -1.39849E+01 -5.27231E+00  2.78922E+00 -1.98713E+01 -1.65794E+01  4.16715E+00  6.19643E+00  1.77373E+01  1.29506E+01
   7.34742E+00  4.57759E+00  5.19155E+00  9.82519E+00  2.13940E+01  4.30728E+01  2.99333E+01  3.15405E+01  4.11146E+01  4.55051E+01
   6.04915E+01  4.58611E+01  4.80491E+01  3.77513E+01  1.64445E+01  3.56903E+01  3.44039E+01  5.76353E+00 -2.03062E+00 -8.09490E+00
  -1.98102E+01 -1.11739E+01 -3.29171E+01 -4.43137E+01 -3.85072E+01 -4.85354E+01 -6.29536E+01 -7.04778E+01 -4.83037E+01 -7.46195E+01
  -6.81029E+01 -5.76433E+01 -7.13341E+01 -4.33880E+01 -5.18537E+01 -5.25029E+01 -5.91918E+01 -5.79715E+01 -7.20458E+01 -7.68530E+01
  -5.22647E+01 -6.52916E+01 -5.44308E+01 -5.19466E+01 -5.02041E+01 -5.43196E+01 -5.59968E+01 -5.25557E+01 -5.93465E+01 -5.23249E+01
  -5.27095E+01 -5.55254E+01 -6.38927E+01 -5.04009E+01 -5.32304E+01 -5.22961E+01 -4.57573E+01 -5.36963E+01 -4.47484E+01 -5.50948E+01
  -5.55651E+01 -6.23683E+01 -7.12554E+01 -5.81931E+01 -4.36870E+01 -3.61677E+01 -4.58615E+01 -5.01537E+01 -4.40187E+01 -3.92660E+01
  -4.45019E+01 -5.40269E+01 -4.90365E+01 -3.82532E+01 -3.84526E+01 -4.68508E+01 -5.00230E+01 -4.43579E+01 -5.69584E+01 -5.80197E+01
  -5.41940E+01 -5.86262E+01 -4.73992E+01 -4.79978E+01 -3.69208E+01 -4.01279E+01 -4.83703E+01 -4.25515E+01 -5.54758E+01 -4.62788E+01
  -2.88052E+01 -4.02712E+01 -4.71040E+01 -4.85609E+01 -6.14005E+01 -5.04892E+01 -3.35890E+01 -3.52185E+01 -4.19329E+01 -4.99088E+01
 NY points of the fit to the data follow
  -5.39428E+01 -5.58204E+01 -5.31093E+01 -5.45827E+01 -5.09631E+01 -5.21038E+01 -4.72225E+01 -4.80345E+01 -4.14810E+01 -4.31298E+01
  -3.83333E+01 -4.12700E+01 -3.77839E+01 -4.12760E+01 -3.80885E+01 -4.18306E+01 -3.81374E+01 -4.16901E+01 -3.70070E+01 -4.06257E+01
  -3.55799E+01 -3.96044E+01 -3.38365E+01 -3.66815E+01 -2.90866E+01 -3.06138E+01 -2.22958E+01 -2.48547E+01 -1.93483E+01 -2.23918E+01
  -2.11150E+01 -2.54119E+01 -2.98843E+01 -3.57046E+01 -4.56184E+01 -5.13329E+01 -6.36362E+01 -6.78448E+01 -8.11925E+01 -8.29735E+01
  -9.65444E+01 -9.46260E+01 -1.04312E+02 -9.93116E+01 -1.03518E+02 -9.65407E+01 -9.73774E+01 -8.88992E+01 -8.77311E+01 -8.02884E+01
  -7.88716E+01 -7.34139E+01 -7.24795E+01 -6.84569E+01 -6.56978E+01 -6.19316E+01 -5.84785E+01 -5.62952E+01 -5.25036E+01 -5.14051E+01
  -4.85214E+01 -5.00563E+01 -4.94031E+01 -5.25742E+01 -5.30087E+01 -5.60881E+01 -5.66427E+01 -5.92221E+01 -5.91926E+01 -6.06623E+01
  -5.92223E+01 -5.92003E+01 -5.59940E+01 -5.49133E+01 -5.09593E+01 -4.85740E+01 -4.61122E+01 -4.35476E+01 -4.17987E+01 -4.04813E+01
  -3.95937E+01 -3.81363E+01 -3.69801E+01 -3.43207E+01 -3.24323E+01 -2.79267E+01 -2.67448E+01 -2.23656E+01 -1.99951E+01 -1.65666E+01
  -1.42512E+01 -1.14124E+01 -9.44672E+00 -8.05997E+00 -7.13865E+00 -5.09495E+00 -2.79017E+00 -2.92795E+00 -1.31483E+00 -4.98129E+00
  -5.35185E+00 -1.23749E+01 -1.51130E+01 -2.44352E+01 -2.92108E+01 -3.90556E+01 -4.45833E+01 -5.42551E+01 -6.00500E+01 -6.84619E+01
  -7.40272E+01 -8.00657E+01 -8.45421E+01 -8.67820E+01 -8.88655E+01 -8.75190E+01 -8.73712E+01 -8.52338E+01 -8.10511E+01 -7.51111E+01
  -6.99446E+01 -6.19043E+01 -5.76463E+01 -4.92826E+01 -4.55784E+01 -3.74030E+01 -3.36726E+01 -3.00123E+01 -2.89256E+01 -2.87705E+01
  -2.97198E+01 -3.29056E+01 -3.56357E+01 -4.17070E+01 -4.56091E+01 -5.34591E+01 -5.73748E+01 -6.49043E+01 -6.82716E+01 -7.42168E+01
  -7.73801E+01 -8.20120E+01 -8.51445E+01 -8.88253E+01 -9.18727E+01 -9.54174E+01 -9.73941E+01 -9.96227E+01 -9.90994E+01 -9.75815E+01
  -9.69859E+01 -9.55243E+01 -9.49508E+01 -9.34812E+01 -9.28500E+01 -9.12113E+01 -9.04648E+01 -8.91106E+01 -8.82655E+01 -8.68627E+01
  -8.54304E+01 -8.37665E+01 -8.21754E+01 -8.07014E+01 -7.89126E+01 -7.70120E+01 -7.49067E+01 -7.28605E+01 -7.06717E+01 -6.88727E+01
  -6.68610E+01 -6.56761E+01 -6.41799E+01 -6.37920E+01 -6.30762E+01 -6.36327E+01 -6.39269E+01 -6.55673E+01 -6.60710E+01 -6.84414E+01
  -6.92515E+01 -7.17455E+01 -7.23507E+01 -7.40991E+01 -7.44030E+01 -7.51758E+01 -7.50824E+01 -7.48494E+01 -7.42086E+01 -7.29578E+01
  -7.14583E+01 -6.97494E+01 -6.81387E+01 -6.62533E+01 -6.43990E+01 -6.23487E+01 -6.03133E+01 -5.90923E+01 -5.74255E+01 -5.72895E+01
  -5.65168E+01 -5.83182E+01 -5.85587E+01 -6.29794E+01 -6.51989E+01 -6.95268E+01 -7.36852E+01 -7.58397E+01 -7.93343E+01 -7.87242E+01
  -8.05726E+01 -7.68849E+01 -7.63041E+01 -6.99567E+01 -6.73209E+01 -5.89627E+01 -5.46200E+01 -4.57414E+01 -4.07001E+01 -3.38709E+01
  -2.92340E+01 -2.58689E+01 -2.38117E+01 -2.35181E+01 -2.50755E+01 -2.71212E+01 -3.11368E+01 -3.49158E+01 -4.00334E+01 -4.52149E+01
  -5.07495E+01 -5.77052E+01 -6.33930E+01 -7.08132E+01 -7.66746E+01 -8.21182E+01 -8.60684E+01 -8.98294E+01 -9.00673E+01 -9.39493E+01
  -9.42245E+01 -9.65243E+01 -9.53454E+01 -9.78408E+01 -9.86377E+01 -1.01212E+02 -1.00989E+02 -1.02519E+02 -9.89175E+01 -9.88770E+01
  -9.16660E+01 -8.93365E+01 -7.84340E+01 -7.44313E+01 -6.00851E+01 -5.56644E+01 -3.81422E+01 -3.38686E+01 -1.58621E+01 -1.19796E+01
   4.29110E+00  6.89093E+00  1.98609E+01  2.04454E+01  3.00981E+01  2.91551E+01  3.70447E+01  3.51519E+01  4.09548E+01  3.86399E+01
   4.20532E+01  4.03506E+01  4.25205E+01  3.96656E+01  3.78586E+01  3.55514E+01  3.42932E+01  3.27194E+01  3.16304E+01  3.03743E+01
   2.92767E+01  2.80185E+01  2.68105E+01  2.54548E+01  2.40496E+01  2.26035E+01  2.09121E+01  1.94043E+01  1.75726E+01  1.59738E+01
   1.43159E+01  1.27743E+01  1.14338E+01  1.02152E+01  9.32207E+00  8.60208E+00  8.22392E+00  8.05671E+00  8.14914E+00  8.50562E+00
   9.01531E+00  9.77919E+00  1.06468E+01  1.17545E+01  1.28871E+01  1.42482E+01  1.55350E+01  1.70358E+01  1.83139E+01  1.97802E+01
   2.08644E+01  2.21680E+01  2.29761E+01  2.39892E+01  2.44007E+01  2.49486E+01  2.48017E+01  2.47125E+01  2.38710E+01  2.30240E+01
   2.14346E+01  1.98777E+01  1.76861E+01  1.55932E+01  1.30430E+01  1.07073E+01  1.03575E+01  9.26141E+00  1.06108E+01  1.20615E+01
   1.19373E+01  1.42968E+01  1.13696E+01  1.36592E+01  7.78915E+00  9.55923E+00  1.34277E+00  2.45014E+00 -7.64837E+00 -7.30417E+00
  -1.86056E+01 -1.92969E+01 -3.02778E+01 -3.17814E+01 -4.04855E+01 -4.19976E+01 -4.75149E+01 -4.82262E+01 -5.16021E+01 -5.16787E+01
  -5.42056E+01 -5.42943E+01 -5.63524E+01 -5.67386E+01 -5.70892E+01 -5.71652E+01 -5.41700E+01 -5.25048E+01 -4.88359E+01 -4.59781E+01
  -4.34046E+01 -4.11262E+01 -3.88515E+01 -3.67217E+01 -3.44440E+01 -3.22425E+01 -2.98335E+01 -2.74562E+01 -2.48218E+01 -2.21905E+01
  -1.92860E+01 -1.63144E+01 -1.30116E+01 -9.59172E+00 -5.86003E+00 -2.07282E+00  1.83335E+00  5.68661E+00  9.38961E+00  1.28897E+01
   1.60397E+01  1.88418E+01  2.11548E+01  2.29399E+01  2.41769E+01  2.46734E+01  2.46183E+01  2.36858E+01  2.22929E+01  2.00313E+01
   1.74333E+01  1.41549E+01  1.06763E+01  6.71128E+00  2.66002E+00 -1.67935E+00 -6.07531E+00 -1.05588E+01 -1.50047E+01 -1.92969E+01
  -2.34580E+01 -2.71958E+01 -3.07181E+01 -3.36847E+01 -3.65035E+01 -3.87676E+01 -4.09975E+01 -4.26984E+01 -4.44360E+01 -4.56688E+01
  -4.69423E+01 -4.77206E+01 -4.85525E+01 -4.90078E+01 -4.94838E+01 -4.97368E+01 -4.99947E+01 -5.01222E+01 -5.02532E+01 -5.03057E+01
  -5.03855E+01 -5.03750E+01 -5.04276E+01 -5.03745E+01 -5.03993E+01 -5.03347E+01 -5.03303E+01 -5.02812E+01 -5.02210E+01 -5.01930E+01
  -5.00854E+01 -5.00911E+01 -4.99447E+01 -4.99712E+01 -4.98242E+01 -4.98578E+01 -4.96856E+01 -4.97287E+01 -4.95604E+01 -4.96032E+01
  -4.94539E+01 -4.94865E+01 -4.93597E+01 -4.93943E+01 -4.92747E+01 -4.92882E+01 -4.91625E+01 -4.91482E+01 -4.90224E+01 -4.89954E+01
  -4.88782E+01 -4.88552E+01 -4.87503E+01 -4.87356E+01 -4.86248E+01 -4.86021E+01 -4.84803E+01 -4.84407E+01 -4.83299E+01 -4.82606E+01
  -4.81838E+01 -4.80980E+01 -4.80604E+01 -4.79301E+01 -4.79340E+01 -4.77728E+01 -4.77996E+01 -4.76492E+01 -4.77123E+01 -4.75611E+01
  -4.76510E+01 -4.74804E+01 -4.75802E+01 -4.73613E+01 -4.74294E+01 -4.71473E+01 -4.71850E+01 -4.68220E+01 -4.68007E+01 -4.63618E+01
 NY background values follow
    -1.934E+01   -1.976E+01   -2.018E+01   -2.060E+01   -2.102E+01   -2.143E+01   -2.185E+01   -2.227E+01   -2.269E+01   -2.311E+01
    -2.352E+01   -2.394E+01   -2.435E+01   -2.477E+01   -2.518E+01   -2.559E+01   -2.600E+01   -2.641E+01   -2.682E+01   -2.722E+01
    -2.762E+01   -2.803E+01   -2.842E+01   -2.882E+01   -2.921E+01   -2.960E+01   -2.999E+01   -3.038E+01   -3.076E+01   -3.114E+01
    -3.152E+01   -3.189E+01   -3.226E+01   -3.262E+01   -3.299E+01   -3.334E+01   -3.370E+01   -3.405E+01   -3.439E+01   -3.473E+01
    -3.507E+01   -3.540E+01   -3.573E+01   -3.605E+01   -3.637E+01   -3.669E+01   -3.700E+01   -3.730E+01   -3.761E+01   -3.790E+01
    -3.820E+01   -3.848E+01   -3.877E+01   -3.905E+01   -3.932E+01   -3.959E+01   -3.986E+01   -4.012E+01   -4.038E+01   -4.063E+01
    -4.088E+01   -4.112E+01   -4.136E+01   -4.160E+01   -4.183E+01   -4.205E+01   -4.227E+01   -4.249E+01   -4.270E+01   -4.291E+01
    -4.311E+01   -4.331E+01   -4.351E+01   -4.369E+01   -4.388E+01   -4.406E+01   -4.423E+01   -4.440E+01   -4.457E+01   -4.473E+01
    -4.489E+01   -4.504E+01   -4.519E+01   -4.533E+01   -4.547E+01   -4.561E+01   -4.574E+01   -4.587E+01   -4.599E+01   -4.611E+01
    -4.622E+01   -4.634E+01   -4.644E+01   -4.654E+01   -4.664E+01   -4.674E+01   -4.683E+01   -4.691E+01   -4.700E+01   -4.708E+01
    -4.715E+01   -4.722E+01   -4.729E+01   -4.736E+01   -4.742E+01   -4.747E+01   -4.753E+01   -4.758E+01   -4.762E+01   -4.767E+01
    -4.771E+01   -4.774E+01   -4.777E+01   -4.780E+01   -4.783E+01   -4.785E+01   -4.787E+01   -4.789E+01   -4.790E+01   -4.791E+01
    -4.792E+01   -4.793E+01   -4.793E+01   -4.793E+01   -4.792E+01   -4.792E+01   -4.791E+01   -4.790E+01   -4.788E+01   -4.787E+01
    -4.785E+01   -4.783E+01   -4.781E+01   -4.778E+01   -4.775E+01   -4.772E+01   -4.769E+01   -4.766E+01   -4.762E+01   -4.758E+01
    -4.754E+01   -4.750E+01   -4.746E+01   -4.741E+01   -4.736E+01   -4.732E+01   -4.727E+01   -4.721E+01   -4.716E+01   -4.711E+01
    -4.705E+01   -4.699E+01   -4.694E+01   -4.688E+01   -4.682E+01   -4.675E+01   -4.669E+01   -4.663E+01   -4.656E+01   -4.650E+01
    -4.643E+01   -4.636E+01   -4.630E+01   -4.623E+01   -4.616E+01   -4.609E+01   -4.602E+01   -4.595E+01   -4.587E+01   -4.580E+01
    -4.573E+01   -4.566E+01   -4.559E+01   -4.551E+01   -4.544E+01   -4.537E+01   -4.529E+01   -4.522E+01   -4.515E+01   -4.507E+01
    -4.500E+01   -4.493E+01   -4.486E+01   -4.478E+01   -4.471E+01   -4.464E+01   -4.457E+01   -4.450E+01   -4.443E+01   -4.436E+01
    -4.429E+01   -4.422E+01   -4.415E+01   -4.409E+01   -4.402E+01   -4.395E+01   -4.389E+01   -4.382E+01   -4.376E+01   -4.369E+01
    -4.363E+01   -4.357E+01   -4.350E+01   -4.344E+01   -4.338E+01   -4.332E+01   -4.326E+01   -4.320E+01   -4.314E+01   -4.308E+01
    -4.302E+01   -4.297E+01   -4.291E+01   -4.285E+01   -4.280E+01   -4.274E+01   -4.269E+01   -4.264E+01   -4.259E+01   -4.254E+01
    -4.248E+01   -4.243E+01   -4.239E+01   -4.234E+01   -4.229E+01   -4.224E+01   -4.220E+01   -4.215E+01   -4.211E+01   -4.206E+01
    -4.202E+01   -4.198E+01   -4.194E+01   -4.190E+01   -4.186E+01   -4.182E+01   -4.179E+01   -4.175E+01   -4.172E+01   -4.168E+01
    -4.165E+01   -4.162E+01   -4.159E+01   -4.156E+01   -4.153E+01   -4.150E+01   -4.147E+01   -4.145E+01   -4.143E+01   -4.140E+01
    -4.138E+01   -4.136E+01   -4.134E+01   -4.132E+01   -4.130E+01   -4.129E+01   -4.127E+01   -4.126E+01   -4.125E+01   -4.124E+01
    -4.123E+01   -4.122E+01   -4.121E+01   -4.120E+01   -4.120E+01   -4.119E+01   -4.119E+01   -4.119E+01   -4.118E+01   -4.118E+01
    -4.118E+01   -4.118E+01   -4.118E+01   -4.118E+01   -4.118E+01   -4.118E+01   -4.119E+01   -4.119E+01   -4.119E+01   -4.119E+01
    -4.120E+01   -4.120E+01   -4.120E+01   -4.120E+01   -4.120E+01   -4.121E+01   -4.121E+01   -4.121E+01   -4.121E+01   -4.121E+01
    -4.121E+01   -4.121E+01   -4.121E+01   -4.121E+01   -4.120E+01   -4.120E+01   -4.120E+01   -4.119E+01   -4.119E+01   -4.118E+01
    -4.117E+01   -4.116E+01   -4.116E+01   -4.115E+01   -4.114E+01   -4.113E+01   -4.112E+01   -4.111E+01   -4.110E+01   -4.109E+01
    -4.108E+01   -4.106E+01   -4.105E+01   -4.104E+01   -4.103E+01   -4.102E+01   -4.100E+01   -4.099E+01   -4.098E+01   -4.097E+01
    -4.095E+01   -4.094E+01   -4.093E+01   -4.092E+01   -4.091E+01   -4.090E+01   -4.089E+01   -4.088E+01   -4.087E+01   -4.086E+01
    -4.085E+01   -4.084E+01   -4.083E+01   -4.083E+01   -4.082E+01   -4.082E+01   -4.081E+01   -4.081E+01   -4.080E+01   -4.080E+01
    -4.080E+01   -4.080E+01   -4.080E+01   -4.080E+01   -4.080E+01   -4.080E+01   -4.081E+01   -4.081E+01   -4.082E+01   -4.082E+01
    -4.083E+01   -4.084E+01   -4.085E+01   -4.086E+01   -4.087E+01   -4.089E+01   -4.090E+01   -4.092E+01   -4.093E+01   -4.095E+01
    -4.097E+01   -4.099E+01   -4.101E+01   -4.104E+01   -4.106E+01   -4.109E+01   -4.112E+01   -4.114E+01   -4.118E+01   -4.121E+01
    -4.124E+01   -4.128E+01   -4.131E+01   -4.135E+01   -4.139E+01   -4.143E+01   -4.147E+01   -4.152E+01   -4.156E+01   -4.161E+01
    -4.166E+01   -4.170E+01   -4.175E+01   -4.180E+01   -4.186E+01   -4.191E+01   -4.196E+01   -4.202E+01   -4.207E+01   -4.213E+01
    -4.219E+01   -4.225E+01   -4.231E+01   -4.237E+01   -4.243E+01   -4.249E+01   -4.255E+01   -4.262E+01   -4.268E+01   -4.275E+01
    -4.281E+01   -4.288E+01   -4.294E+01   -4.301E+01   -4.308E+01   -4.315E+01   -4.321E+01   -4.328E+01   -4.335E+01   -4.342E+01
    -4.349E+01   -4.356E+01   -4.363E+01   -4.370E+01   -4.377E+01   -4.384E+01   -4.391E+01   -4.399E+01   -4.406E+01   -4.413E+01
    -4.420E+01   -4.427E+01   -4.434E+01   -4.441E+01   -4.448E+01   -4.455E+01   -4.462E+01   -4.469E+01   -4.476E+01   -4.483E+01
    -4.490E+01   -4.497E+01   -4.503E+01   -4.510E+01   -4.517E+01   -4.523E+01   -4.530E+01   -4.536E+01   -4.543E+01   -4.549E+01
    -4.555E+01   -4.562E+01   -4.568E+01   -4.574E+01   -4.580E+01   -4.586E+01   -4.591E+01   -4.597E+01   -4.603E+01   -4.608E+01
    -4.614E+01   -4.620E+01   -4.625E+01   -4.630E+01   -4.636E+01   -4.641E+01   -4.646E+01   -4.651E+01   -4.656E+01   -4.662E+01
    -4.667E+01   -4.672E+01   -4.677E+01   -4.682E+01   -4.687E+01   -4.692E+01   -4.696E+01   -4.701E+01   -4.706E+01   -4.711E+01
    -4.716E+01   -4.721E+01   -4.726E+01   -4.731E+01   -4.736E+01   -4.741E+01   -4.745E+01   -4.750E+01   -4.755E+01   -4.760E+01
 Mac      Conc. = 1.95E-04
  -3.30188E+01 -3.37296E+01 -3.48935E+01 -3.57153E+01 -3.69593E+01 -3.78680E+01 -3.91393E+01 -4.00014E+01 -4.11607E+01 -4.18454E+01
  -4.27582E+01 -4.32099E+01 -4.38223E+01 -4.40411E+01 -4.42867E+01 -4.42720E+01 -4.41470E+01 -4.38897E+01 -4.34004E+01 -4.28920E+01
  -4.21359E+01 -4.14987E+01 -4.06650E+01 -4.00524E+01 -3.92198E+01 -3.86275E+01 -3.78240E+01 -3.72268E+01 -3.64763E+01 -3.58731E+01
  -3.52143E+01 -3.46797E+01 -3.41874E+01 -3.37968E+01 -3.33721E+01 -3.30284E+01 -3.27016E+01 -3.23660E+01 -3.21311E+01 -3.18522E+01
  -3.17764E+01 -3.16401E+01 -3.17759E+01 -3.17917E+01 -3.20846E+01 -3.22444E+01 -3.26264E+01 -3.28711E+01 -3.32562E+01 -3.35112E+01
  -3.38589E+01 -3.41442E+01 -3.44428E+01 -3.47113E+01 -3.48948E+01 -3.51594E+01 -3.52897E+01 -3.56114E+01 -3.56863E+01 -3.60565E+01
  -3.60220E+01 -3.63710E+01 -3.62128E+01 -3.64927E+01 -3.62435E+01 -3.64261E+01 -3.61412E+01 -3.62203E+01 -3.59431E+01 -3.59457E+01
  -3.57314E+01 -3.57049E+01 -3.55918E+01 -3.55897E+01 -3.55348E+01 -3.56149E+01 -3.55704E+01 -3.56747E+01 -3.55764E+01 -3.56681E+01
  -3.54472E+01 -3.55284E+01 -3.51774E+01 -3.52785E+01 -3.48978E+01 -3.51232E+01 -3.48067E+01 -3.51492E+01 -3.49388E+01 -3.53790E+01
  -3.53026E+01 -3.58192E+01 -3.59718E+01 -3.67252E+01 -3.72601E+01 -3.84095E+01 -3.94100E+01 -4.09680E+01 -4.24106E+01 -4.42485E+01
  -4.59792E+01 -4.79289E+01 -4.97828E+01 -5.16720E+01 -5.34577E+01 -5.51079E+01 -5.66483E+01 -5.78500E+01 -5.89978E+01 -5.96086E+01
