 
 $NMID
 ID=''
 FMTDAT='(2E13.5)'
 TRAMP=   1.00000E+0
 VOLUME=   1.00000E+0
 $END
   8.05458E+4   7.84351E+5
  -5.22636E+5   1.98333E+6
  -3.30188E+5   1.94584E+6
  -4.37343E+5   1.83182E+6
  -4.54397E+5   1.92498E+6
  -3.45515E+5   1.88768E+6
  -3.80167E+5   1.83189E+6
  -4.05609E+5   1.88533E+6
  -3.70256E+5   1.84976E+6
  -4.23801E+5   1.80426E+6
  -4.45851E+5   1.82904E+6
  -4.27067E+5   1.79090E+6
  -4.70693E+5   1.75442E+6
  -4.95871E+5   1.76660E+6
  -4.97346E+5   1.72567E+6
  -5.34652E+5   1.69050E+6
  -5.47535E+5   1.70156E+6
  -5.41140E+5   1.67598E+6
  -5.60867E+5   1.64861E+6
  -5.55448E+5   1.65271E+6
  -5.49263E+5   1.62858E+6
  -5.69797E+5   1.60668E+6
  -5.73257E+5   1.60230E+6
  -5.72710E+5   1.57823E+6
  -5.93369E+5   1.55489E+6
  -5.94606E+5   1.54469E+6
  -6.04808E+5   1.51994E+6
  -6.31484E+5   1.49652E+6
  -6.43160E+5   1.47712E+6
  -6.46448E+5   1.45173E+6
  -6.60801E+5   1.43468E+6
  -6.62575E+5   1.42075E+6
  -6.63840E+5   1.39766E+6
  -6.69702E+5   1.38163E+6
  -6.64700E+5   1.36689E+6
  -6.58110E+5   1.35143E+6
  -6.59920E+5   1.34249E+6
  -6.60342E+5   1.32870E+6
  -6.60857E+5   1.30582E+6
  -6.65510E+5   1.29012E+6
  -6.70213E+5   1.27267E+6
  -6.74766E+5   1.24907E+6
  -6.77625E+5   1.22960E+6
  -6.80915E+5   1.21312E+6
  -6.87913E+5   1.19128E+6
  -6.93575E+5   1.17217E+6
  -6.96074E+5   1.15466E+6
  -7.00123E+5   1.13532E+6
  -7.00146E+5   1.11604E+6
  -6.97260E+5   1.09952E+6
  -6.96177E+5   1.08486E+6
  -6.97001E+5   1.07019E+6
  -6.95980E+5   1.05452E+6
  -6.95219E+5   1.03895E+6
  -6.95078E+5   1.02309E+6
  -6.96173E+5   1.00545E+6
  -6.97811E+5   9.86505E+5
  -6.97381E+5   9.67832E+5
  -6.95700E+5   9.50595E+5
  -6.95510E+5   9.34714E+5
  -6.95923E+5   9.17510E+5
  -6.94836E+5   9.00543E+5
  -6.93956E+5   8.85196E+5
  -6.93168E+5   8.68773E+5
  -6.89836E+5   8.51334E+5
  -6.85643E+5   8.35238E+5
  -6.81731E+5   8.20991E+5
  -6.78819E+5   8.05716E+5
  -6.75698E+5   7.91279E+5
  -6.73870E+5   7.76583E+5
  -6.72117E+5   7.60157E+5
  -6.68893E+5   7.43459E+5
  -6.64689E+5   7.28720E+5
  -6.62515E+5   7.14561E+5
  -6.59955E+5   6.99028E+5
  -6.55942E+5   6.83286E+5
  -6.51403E+5   6.69026E+5
  -6.48029E+5   6.55436E+5
  -6.44433E+5   6.41121E+5
  -6.39813E+5   6.26450E+5
  -6.35316E+5   6.12223E+5
  -6.30181E+5   5.98729E+5
  -6.26378E+5   5.85031E+5
  -6.22159E+5   5.70712E+5
  -6.18347E+5   5.55739E+5
  -6.14213E+5   5.41500E+5
  -6.09551E+5   5.27823E+5
  -6.05216E+5   5.14194E+5
  -6.01219E+5   5.00107E+5
  -5.96010E+5   4.87019E+5
  -5.90275E+5   4.74373E+5
  -5.85047E+5   4.62869E+5
  -5.80557E+5   4.50790E+5
  -5.75150E+5   4.38900E+5
  -5.68986E+5   4.27329E+5
  -5.62459E+5   4.16991E+5
  -5.56767E+5   4.07010E+5
  -5.52112E+5   3.97097E+5
  -5.46542E+5   3.86465E+5
  -5.40757E+5   3.75955E+5
  -5.35609E+5   3.66277E+5
  -5.31233E+5   3.56037E+5
  -5.25972E+5   3.45088E+5
  -5.19664E+5   3.34570E+5
  -5.13697E+5   3.25303E+5
  -5.08256E+5   3.16772E+5
  -5.03346E+5   3.07777E+5
  -4.98112E+5   2.98734E+5
  -4.91850E+5   2.89703E+5
  -4.85478E+5   2.81527E+5
  -4.79543E+5   2.74136E+5
  -4.74934E+5   2.66957E+5
  -4.69682E+5   2.58828E+5
  -4.64335E+5   2.50764E+5
  -4.58723E+5   2.43198E+5
  -4.53706E+5   2.35835E+5
  -4.48600E+5   2.28209E+5
  -4.42761E+5   2.20276E+5
  -4.36333E+5   2.13409E+5
  -4.30601E+5   2.07324E+5
  -4.25126E+5   2.01444E+5
  -4.19964E+5   1.95409E+5
  -4.14651E+5   1.89512E+5
  -4.09350E+5   1.83340E+5
  -4.04021E+5   1.77488E+5
  -3.98549E+5   1.71289E+5
  -3.92161E+5   1.65600E+5
  -3.86540E+5   1.60159E+5
  -3.81313E+5   1.54774E+5
  -3.76336E+5   1.49471E+5
  -3.71368E+5   1.43260E+5
  -3.66092E+5   1.37143E+5
  -3.60466E+5   1.31794E+5
  -3.54878E+5   1.26863E+5
  -3.49601E+5   1.21966E+5
  -3.44608E+5   1.17117E+5
  -3.39149E+5   1.12369E+5
  -3.33513E+5   1.08489E+5
  -3.28902E+5   1.04142E+5
  -3.23571E+5   9.97727E+4
  -3.18510E+5   9.51538E+4
  -3.13219E+5   9.10838E+4
  -3.07248E+5   8.75246E+4
  -3.02248E+5   8.40416E+4
  -2.97784E+5   7.98816E+4
  -2.92643E+5   7.61322E+4
  -2.87062E+5   7.22455E+4
  -2.82207E+5   6.86412E+4
  -2.76989E+5   6.51138E+4
  -2.71775E+5   6.20037E+4
  -2.66348E+5   5.87392E+4
  -2.61527E+5   5.59399E+4
  -2.56915E+5   5.32327E+4
  -2.52004E+5   5.06923E+4
  -2.47448E+5   4.81139E+4
  -2.42344E+5   4.55399E+4
  -2.37458E+5   4.29053E+4
  -2.33126E+5   4.08291E+4
  -2.28592E+5   3.86746E+4
  -2.24035E+5   3.64562E+4
  -2.19211E+5   3.44281E+4
  -2.15041E+5   3.22305E+4
  -2.10830E+5   3.02340E+4
  -2.06102E+5   2.83646E+4
  -2.01860E+5   2.65550E+4
  -1.97309E+5   2.49626E+4
  -1.93567E+5   2.33501E+4
  -1.89749E+5   2.16039E+4
  -1.85972E+5   2.01474E+4
  -1.81491E+5   1.87810E+4
  -1.77811E+5   1.75677E+4
  -1.74002E+5   1.64478E+4
  -1.70392E+5   1.50342E+4
  -1.66926E+5   1.40772E+4
  -1.63357E+5   1.24660E+4
  -1.59802E+5   1.15956E+4
  -1.56436E+5   1.05458E+4
  -1.53230E+5   9.10486E+3
  -1.49444E+5   8.10799E+3
  -1.46304E+5   7.52956E+3
  -1.42934E+5   6.95286E+3
  -1.40411E+5   5.92980E+3
  -1.37153E+5   5.20316E+3
  -1.34558E+5   4.35269E+3
  -1.31246E+5   3.59063E+3
  -1.28537E+5   3.11436E+3
  -1.25764E+5   2.57624E+3
  -1.22908E+5   2.10671E+3
  -1.20152E+5   1.97241E+3
  -1.17789E+5   1.68681E+3
  -1.15168E+5   1.26260E+3
  -1.12977E+5   6.16769E+2
  -1.10512E+5  -6.33065E+1
  -1.07736E+5  -4.16257E+2
  -1.05404E+5  -9.98178E+2
  -1.03406E+5  -8.23009E+2
  -1.00849E+5  -1.24585E+3
  -9.85501E+4  -1.52948E+3
  -9.66219E+4  -1.42698E+3
  -9.50399E+4  -1.84371E+3
  -9.25630E+4  -2.15181E+3
  -9.01702E+4  -2.34255E+3
  -8.81157E+4  -2.42802E+3
  -8.62049E+4  -2.29916E+3
  -8.46125E+4  -2.51217E+3
  -8.28741E+4  -2.62351E+3
  -8.11414E+4  -2.69331E+3
  -7.91051E+4  -2.84466E+3
  -7.76869E+4  -2.69951E+3
  -7.57418E+4  -2.73074E+3
  -7.41181E+4  -2.71858E+3
  -7.23786E+4  -2.63686E+3
  -7.08659E+4  -2.21894E+3
  -6.96655E+4  -2.27144E+3
  -6.82007E+4  -2.51144E+3
  -6.64190E+4  -2.37222E+3
  -6.49775E+4  -2.16446E+3
  -6.34633E+4  -2.02821E+3
  -6.23915E+4  -1.94830E+3
  -6.10605E+4  -1.57425E+3
  -5.99256E+4  -1.33388E+3
  -5.86557E+4  -1.06078E+3
  -5.74887E+4  -9.53484E+2
  -5.63990E+4  -5.81416E+2
  -5.53425E+4  -7.20377E+2
  -5.41417E+4  -3.89760E+2
  -5.30641E+4  -1.94673E+1
  -5.23447E+4   3.44255E+2
  -5.15226E+4   1.70615E+2
  -5.04102E+4   5.58615E+2
  -4.94940E+4   7.18172E+2
  -4.85714E+4   1.14753E+3
  -4.76675E+4   1.46995E+3
  -4.69631E+4   1.53016E+3
  -4.62092E+4   1.93710E+3
  -4.54093E+4   1.84059E+3
  -4.49825E+4   2.26466E+3
  -4.41443E+4   2.70581E+3
  -4.32563E+4   2.83550E+3
  -4.27661E+4   2.87389E+3
  -4.23997E+4   3.69653E+3
  -4.19705E+4   3.68255E+3
  -4.13697E+4   3.75101E+3
  -4.08445E+4   4.07088E+3
  -4.02541E+4   4.24130E+3
  -3.97876E+4   4.72970E+3
  -3.93876E+4   4.68353E+3
  -3.90861E+4   4.94879E+3
  -3.86223E+4   5.01067E+3
  -3.79219E+4   5.43978E+3
  -3.77676E+4   5.40756E+3
  -3.73018E+4   5.88063E+3
  -3.68893E+4   5.92888E+3
  -3.65744E+4   6.14270E+3
  -3.62918E+4   6.45445E+3
  -3.60519E+4   6.58870E+3
  -3.56262E+4   6.79219E+3
  -3.55777E+4   6.74528E+3
  -3.54061E+4   6.75625E+3
  -3.50032E+4   6.73154E+3
  -3.48057E+4   6.98719E+3
  -3.44746E+4   6.87917E+3
  -3.41512E+4   6.96613E+3
  -3.36582E+4   7.06573E+3
  -3.37212E+4   7.30566E+3
  -3.34862E+4   7.39511E+3
  -3.35033E+4   7.46837E+3
  -3.30934E+4   7.36607E+3
  -3.28829E+4   7.08490E+3
  -3.26382E+4   7.41332E+3
  -3.22352E+4   7.51070E+3
  -3.24903E+4   7.40830E+3
  -3.22475E+4   7.37703E+3
  -3.19504E+4   7.36094E+3
  -3.20214E+4   7.54180E+3
  -3.17256E+4   7.24503E+3
  -3.15508E+4   7.29367E+3
  -3.10842E+4   6.98191E+3
  -3.09678E+4   7.10010E+3
  -3.09767E+4   6.89077E+3
  -3.08978E+4   6.81509E+3
  -3.04267E+4   6.65752E+3
  -3.03431E+4   6.64524E+3
  -3.04550E+4   6.44276E+3
  -3.03874E+4   6.35345E+3
  -3.02314E+4   6.23311E+3
  -2.97841E+4   6.05212E+3
  -2.98319E+4   6.13905E+3
  -2.95791E+4   5.85272E+3
  -2.95091E+4   5.48453E+3
  -2.93093E+4   5.13517E+3
  -2.91176E+4   5.16527E+3
  -2.88957E+4   5.14167E+3
  -2.88463E+4   4.80037E+3
  -2.87125E+4   4.43697E+3
  -2.87495E+4   4.19478E+3
  -2.86452E+4   4.08159E+3
  -2.85719E+4   3.72285E+3
  -2.82931E+4   3.38331E+3
  -2.82469E+4   2.97300E+3
  -2.82514E+4   2.89356E+3
  -2.79740E+4   2.53588E+3
  -2.81704E+4   2.26418E+3
  -2.80402E+4   1.92886E+3
  -2.77323E+4   1.82255E+3
  -2.76351E+4   1.59602E+3
  -2.77936E+4   1.16281E+3
  -2.75004E+4   8.82457E+2
  -2.75035E+4   4.11938E+2
  -2.71050E+4   2.54956E+2
  -2.73410E+4  -3.23837E+1
  -2.71944E+4  -3.07971E+2
  -2.70768E+4  -7.64944E+2
  -2.68792E+4  -1.10065E+3
  -2.64432E+4  -1.50283E+3
  -2.67388E+4  -1.71239E+3
  -2.67573E+4  -1.97169E+3
  -2.64984E+4  -2.39182E+3
  -2.62849E+4  -2.69238E+3
  -2.60743E+4  -3.03468E+3
  -2.59509E+4  -3.45950E+3
  -2.58060E+4  -3.83234E+3
  -2.56854E+4  -4.15438E+3
  -2.55782E+4  -4.57054E+3
  -2.54964E+4  -4.92498E+3
  -2.53498E+4  -5.14889E+3
  -2.51859E+4  -5.69413E+3
  -2.51513E+4  -6.19504E+3
  -2.49076E+4  -6.36868E+3
  -2.45876E+4  -6.63839E+3
  -2.43259E+4  -6.99642E+3
  -2.43565E+4  -7.33899E+3
  -2.39952E+4  -7.98219E+3
  -2.40338E+4  -8.04245E+3
  -2.37264E+4  -8.29245E+3
  -2.35872E+4  -8.80875E+3
  -2.33947E+4  -9.26527E+3
  -2.32541E+4  -9.60755E+3
  -2.31428E+4  -9.93920E+3
  -2.30537E+4  -1.02377E+4
  -2.25509E+4  -1.03888E+4
  -2.24228E+4  -1.09409E+4
  -2.19868E+4  -1.11710E+4
  -2.18989E+4  -1.14266E+4
  -2.17554E+4  -1.18215E+4
  -2.14578E+4  -1.21160E+4
  -2.12177E+4  -1.24419E+4
  -2.11110E+4  -1.28160E+4
  -2.10202E+4  -1.30505E+4
  -2.07852E+4  -1.34081E+4
  -2.08007E+4  -1.35651E+4
  -2.01939E+4  -1.41160E+4
  -1.99041E+4  -1.41305E+4
  -1.96994E+4  -1.47276E+4
  -1.94389E+4  -1.45697E+4
  -1.92556E+4  -1.49371E+4
  -1.88862E+4  -1.51076E+4
  -1.88720E+4  -1.55925E+4
  -1.84654E+4  -1.57378E+4
  -1.81866E+4  -1.61192E+4
  -1.81144E+4  -1.62338E+4
  -1.78180E+4  -1.63298E+4
  -1.76919E+4  -1.64354E+4
  -1.74646E+4  -1.66778E+4
  -1.69678E+4  -1.69374E+4
  -1.64744E+4  -1.73219E+4
  -1.64135E+4  -1.74628E+4
