 LCModel (Version 6.3-1N) Copyright: S.W. Provencher.          Ref.: Magn. Reson. Med. 30:672-679 (1993).                
 Slice_N1@15_16  28-Feb-2025 11:39:48
 27 lines in following concentration table = NCONC+1
    Conc.  %SD /Cr+PCr  Metabolite                                         
 3.16E-04   3% 2.9E-04 Mac                                                 
    2.897  33%   2.676 Cr                                                  
    5.762  16%   5.324 PCr                                                 
    8.591   9%   7.938 Ins                                                 
   10.163   6%   9.390 NAA                                                 
    5.692  13%   5.259 Tau                                                 
    0.203 427%   0.188 PCho                                                
    1.812  45%   1.674 GPC                                                 
    7.149  11%   6.606 Glu                                                 
    3.386  19%   3.129 Gln                                                 
    7.527   9%   6.954 Ala                                                 
    2.690  38%   2.486 Asc                                                 
    3.030  33%   2.799 Asp                                                 
    0.675  74%   0.623 GABA                                                
    0.945  80%   0.873 Glc                                                 
    0.976  42%   0.902 GSH                                                 
    1.207  48%   1.115 Lac                                                 
    2.676  18%   2.473 NAAG                                                
    0.622 159%   0.575 PE                                                  
    2.015  13%   1.862 GPC+PCho                                            
   12.839   5%  11.862 NAA+NAAG                                            
   10.536  10%   9.734 Glu+Gln                                             
    8.659   7%   8.000 Cr+PCr                                              
   12.839   5%  11.862 NAA+NAAG                                            
    8.659   7%   8.000 Cr+PCr                                              
   10.536  10%   9.734 Glu+Gln                                             
   6 lines in following misc. output table
  FWHM = 0.024 ppm    S/N =   4                                            
  Data shift = 0.033 ppm                                                   
  Ph:-131 deg       0.0 deg/ppm                                            
  alphaB,S = 1.1E-01,   3.4E-01                                            
   19 spline knots.   Ns = 5(1)                                            
   2 inflections.     1 extrema                                            
  480 points on ppm-axis = NY
      4.100000     4.091866     4.083733     4.075600     4.067466     4.059333     4.051199     4.043066     4.034933     4.026799
      4.018666     4.010532     4.002399     3.994265     3.986132     3.977998     3.969864     3.961731     3.953597     3.945463
      3.937330     3.929196     3.921062     3.912929     3.904795     3.896662     3.888528     3.880394     3.872261     3.864127
      3.855993     3.847860     3.839726     3.831592     3.823459     3.815325     3.807191     3.799058     3.790924     3.782790
      3.774657     3.766523     3.758389     3.750256     3.742122     3.733989     3.725855     3.717721     3.709588     3.701454
      3.693320     3.685187     3.677053     3.668919     3.660786     3.652652     3.644518     3.636385     3.628251     3.620117
      3.611984     3.603850     3.595716     3.587583     3.579449     3.571316     3.563182     3.555048     3.546915     3.538781
      3.530647     3.522514     3.514380     3.506246     3.498113     3.489979     3.481845     3.473712     3.465578     3.457444
      3.449311     3.441177     3.433043     3.424910     3.416776     3.408643     3.400509     3.392375     3.384242     3.376108
      3.367974     3.359841     3.351707     3.343573     3.335440     3.327306     3.319172     3.311039     3.302905     3.294771
      3.286638     3.278504     3.270370     3.262237     3.254103     3.245970     3.237836     3.229702     3.221569     3.213435
      3.205301     3.197168     3.189034     3.180900     3.172767     3.164633     3.156499     3.148366     3.140232     3.132098
      3.123965     3.115831     3.107697     3.099564     3.091430     3.083297     3.075163     3.067029     3.058896     3.050762
      3.042628     3.034495     3.026361     3.018227     3.010094     3.001960     2.993826     2.985693     2.977559     2.969425
      2.961292     2.953158     2.945024     2.936891     2.928757     2.920624     2.912490     2.904356     2.896223     2.888089
      2.879955     2.871822     2.863688     2.855554     2.847421     2.839287     2.831153     2.823020     2.814886     2.806752
      2.798619     2.790485     2.782351     2.774218     2.766084     2.757951     2.749817     2.741683     2.733550     2.725416
      2.717282     2.709149     2.701015     2.692881     2.684748     2.676614     2.668480     2.660347     2.652213     2.644079
      2.635946     2.627812     2.619678     2.611545     2.603411     2.595278     2.587144     2.579010     2.570877     2.562743
      2.554609     2.546476     2.538342     2.530208     2.522075     2.513941     2.505807     2.497674     2.489540     2.481406
      2.473273     2.465139     2.457006     2.448872     2.440738     2.432605     2.424471     2.416337     2.408204     2.400070
      2.391936     2.383803     2.375669     2.367535     2.359402     2.351268     2.343134     2.335001     2.326867     2.318733
      2.310600     2.302466     2.294333     2.286199     2.278065     2.269932     2.261798     2.253664     2.245531     2.237397
      2.229263     2.221130     2.212996     2.204862     2.196729     2.188595     2.180461     2.172328     2.164194     2.156060
      2.147927     2.139793     2.131660     2.123526     2.115392     2.107259     2.099125     2.090991     2.082858     2.074724
      2.066590     2.058457     2.050323     2.042189     2.034056     2.025922     2.017788     2.009655     2.001521     1.993387
      1.985254     1.977120     1.968987     1.960853     1.952719     1.944586     1.936452     1.928318     1.920185     1.912051
      1.903917     1.895784     1.887650     1.879516     1.871383     1.863249     1.855115     1.846982     1.838848     1.830714
      1.822581     1.814447     1.806314     1.798180     1.790046     1.781913     1.773779     1.765645     1.757512     1.749378
      1.741244     1.733111     1.724977     1.716843     1.708710     1.700576     1.692442     1.684309     1.676175     1.668041
      1.659908     1.651774     1.643641     1.635507     1.627373     1.619240     1.611106     1.602972     1.594839     1.586705
      1.578571     1.570438     1.562304     1.554170     1.546037     1.537903     1.529769     1.521636     1.513502     1.505368
      1.497235     1.489101     1.480968     1.472834     1.464700     1.456567     1.448433     1.440299     1.432166     1.424032
      1.415898     1.407765     1.399631     1.391497     1.383364     1.375230     1.367096     1.358963     1.350829     1.342695
      1.334562     1.326428     1.318295     1.310161     1.302027     1.293894     1.285760     1.277626     1.269493     1.261359
      1.253225     1.245092     1.236958     1.228824     1.220691     1.212557     1.204423     1.196290     1.188156     1.180022
      1.171889     1.163755     1.155622     1.147488     1.139354     1.131221     1.123087     1.114953     1.106820     1.098686
      1.090552     1.082419     1.074285     1.066151     1.058018     1.049884     1.041750     1.033617     1.025483     1.017349
      1.009216     1.001082     0.992949     0.984815     0.976681     0.968548     0.960414     0.952280     0.944147     0.936013
      0.927879     0.919746     0.911612     0.903478     0.895345     0.887211     0.879077     0.870944     0.862810     0.854676
      0.846543     0.838409     0.830276     0.822142     0.814008     0.805875     0.797741     0.789607     0.781474     0.773340
      0.765206     0.757073     0.748939     0.740805     0.732672     0.724538     0.716404     0.708271     0.700137     0.692003
      0.683870     0.675736     0.667603     0.659469     0.651335     0.643202     0.635068     0.626934     0.618801     0.610667
      0.602533     0.594400     0.586266     0.578132     0.569999     0.561865     0.553731     0.545598     0.537464     0.529330
      0.521197     0.513063     0.504930     0.496796     0.488662     0.480529     0.472395     0.464261     0.456128     0.447994
      0.439861     0.431727     0.423593     0.415460     0.407326     0.399192     0.391059     0.382925     0.374792     0.366658
      0.358524     0.350391     0.342257     0.334124     0.325990     0.317856     0.309723     0.301589     0.293455     0.285322
      0.277188     0.269055     0.260921     0.252787     0.244654     0.236520     0.228386     0.220253     0.212119     0.203986
 NY phased data points follow
  -1.03151E+02 -1.07082E+02 -1.08360E+02 -1.16396E+02 -1.18132E+02 -1.12321E+02 -1.05402E+02 -1.06137E+02 -1.08884E+02 -1.01484E+02
  -1.07998E+02 -1.22938E+02 -1.20416E+02 -1.22299E+02 -1.27407E+02 -1.17966E+02 -1.29503E+02 -1.51402E+02 -1.54430E+02 -1.81949E+02
  -1.79869E+02 -1.38224E+02 -1.31921E+02 -1.07565E+02 -9.13915E+01 -7.57056E+01 -6.11434E+01 -7.18831E+01 -5.36364E+01 -5.15350E+01
  -5.86410E+01 -6.06954E+01 -5.49588E+01 -6.26087E+01 -6.40152E+01 -4.89687E+01 -6.88985E+01 -7.32821E+01 -8.10195E+01 -9.62779E+01
  -1.04282E+02 -1.07697E+02 -1.02649E+02 -1.09244E+02 -9.85279E+01 -6.56535E+01 -5.26094E+01 -5.05292E+01 -3.55244E+01 -2.94203E+01
  -2.32087E+01 -2.91275E+01 -3.07569E+01 -4.23603E+01 -7.07424E+01 -6.83125E+01 -6.86338E+01 -8.30311E+01 -9.45623E+01 -8.09902E+01
  -7.60906E+01 -8.25815E+01 -7.04157E+01 -5.35838E+01 -4.11982E+01 -3.02120E+01 -2.61852E+01 -5.12478E+01 -7.61622E+01 -1.02743E+02
  -1.04198E+02 -8.52882E+01 -8.39846E+01 -7.61222E+01 -4.76294E+01 -2.32713E+01 -2.11589E+01 -1.15873E+01 -2.39334E+01 -2.36449E+01
  -1.44268E+01 -3.21938E+01 -4.85760E+01 -6.93403E+01 -6.72869E+01 -5.94613E+01 -5.89291E+01 -4.53640E+01 -2.12870E+01 -2.29723E+01
  -1.72118E+01  7.84110E+00  2.46727E+00  4.13882E+00  8.47905E+00  6.30329E+00  6.37822E+00  1.20791E+01  1.63015E+01  1.11568E+01
   1.11918E+01  2.60910E+00 -1.80172E+01 -2.66330E+01 -3.19431E+01 -4.68562E+01 -4.36477E+01 -5.42931E+01 -7.45792E+01 -1.07409E+02
  -1.67945E+02 -1.75939E+02 -1.57747E+02 -1.41782E+02 -1.12916E+02 -1.01490E+02 -9.03315E+01 -8.72838E+01 -8.48065E+01 -6.75359E+01
  -5.77904E+01 -4.44308E+01 -3.93847E+01 -3.37888E+01 -3.41631E+01 -2.96395E+01 -5.72237E+00  9.21536E+00  2.87809E+01  6.06050E+01
   1.01564E+02  5.87065E+01 -2.86548E+01 -8.05119E+01 -1.23983E+02 -1.27685E+02 -1.21078E+02 -1.13074E+02 -1.06954E+02 -1.05605E+02
  -1.11583E+02 -1.04530E+02 -1.15414E+02 -1.21566E+02 -9.07860E+01 -1.13044E+02 -1.01397E+02 -1.04260E+02 -1.16281E+02 -9.25297E+01
  -1.02162E+02 -8.35367E+01 -8.07555E+01 -8.75074E+01 -8.85535E+01 -8.80045E+01 -7.67881E+01 -6.86284E+01 -7.08850E+01 -7.56882E+01
  -6.48808E+01 -6.09603E+01 -5.78364E+01 -6.62189E+01 -6.46445E+01 -7.07628E+01 -6.60221E+01 -6.95705E+01 -8.07012E+01 -6.00912E+01
  -6.31695E+01 -4.24415E+01 -3.44402E+01 -3.90332E+01 -5.34444E+01 -5.90671E+01 -3.16176E+01 -2.95984E+01 -2.61142E+01 -5.49903E+01
  -6.18125E+01 -6.61676E+01 -9.52834E+01 -8.70265E+01 -8.38996E+01 -8.99556E+01 -8.43276E+01 -8.68221E+01 -9.09816E+01 -6.09101E+01
  -6.53667E+01 -7.21185E+01 -6.45216E+01 -5.97968E+01 -4.76600E+01 -6.10446E+01 -4.99969E+01 -5.38506E+01 -4.33821E+01 -4.24048E+01
  -6.90119E+01 -5.79250E+01 -4.99406E+01 -3.83177E+01 -4.82137E+01 -5.45699E+01 -5.26268E+01 -6.33875E+01 -6.85578E+01 -6.84777E+01
  -6.93182E+01 -7.74630E+01 -7.02750E+01 -6.33246E+01 -4.10976E+01 -2.45776E+01 -2.44926E+01 -4.19204E+00 -3.28794E+00 -3.08942E+01
  -4.71544E+01 -4.93429E+01 -3.77140E+01 -4.10696E+01 -4.96767E+01 -3.72002E+01 -5.34055E+01 -4.94869E+01 -4.84566E+01 -4.51409E+01
  -4.40268E+01 -6.90970E+01 -5.24047E+01 -8.43536E+01 -9.19136E+01 -9.17760E+01 -1.16101E+02 -9.91278E+01 -1.01032E+02 -9.33591E+01
  -1.03963E+02 -8.61737E+01 -7.11785E+01 -7.71154E+01 -6.36982E+01 -6.51168E+01 -6.28955E+01 -7.14675E+01 -7.37942E+01 -8.77518E+01
  -7.86982E+01 -7.96564E+01 -8.79943E+01 -7.69907E+01 -1.03386E+02 -1.41526E+02 -1.42658E+02 -1.17744E+01  9.47399E+01  9.68814E+01
   1.05461E+02  1.09627E+02  8.96508E+01  6.25928E+01  7.14616E+01  5.71051E+01  4.45553E+01  4.91797E+01  4.19386E+01  3.86555E+01
   3.56571E+01  3.12932E+01  3.00515E+01  5.51261E+01  4.93780E+01  4.53964E+01  4.64215E+01  3.72256E+01  4.67934E+01  4.17798E+01
   3.80857E+01  3.76041E+01  4.58727E+01  3.25353E+01  2.70456E+01  2.93905E+01  2.00029E+01  3.27036E+01  2.73514E+01  3.33547E+01
   4.15235E+01  3.48748E+01  2.49101E+01  2.18020E+01  2.51203E+01  1.44577E+01  1.32363E+01  3.45219E+00 -3.46566E+00 -5.33952E+00
  -5.99695E+00 -2.17858E+00 -5.51676E+00 -7.47943E+00 -7.52663E+00 -7.07255E+00 -8.61805E+00  7.66050E+00  1.10004E+01  2.70951E+00
   1.53248E+01  1.62128E+01  9.65385E-01  3.77172E+00  3.13940E+00 -7.14744E+00  3.86303E+00  4.21593E+00  3.46128E+00 -4.38461E+00
  -4.08962E+00 -1.46455E+01 -4.54349E+01 -4.71510E+01 -7.58587E+01 -9.23610E+01 -1.15474E+02 -1.38499E+02 -1.32617E+02 -1.35615E+02
  -1.21632E+02 -1.33314E+02 -1.22253E+02 -1.06247E+02 -1.20107E+02 -1.15568E+02 -1.01896E+02 -9.70737E+01 -9.40880E+01 -7.97511E+01
  -8.19816E+01 -7.37808E+01 -9.15734E+01 -9.52709E+01 -7.48136E+01 -9.04906E+01 -7.32007E+01 -7.42605E+01 -8.83519E+01 -8.46781E+01
  -8.08773E+01 -6.50867E+01 -7.19650E+01 -7.77098E+01 -7.88375E+01 -8.30082E+01 -7.25089E+01 -7.91627E+01 -8.14554E+01 -7.41204E+01
  -7.88106E+01 -6.50197E+01 -6.19812E+01 -6.03717E+01 -5.03008E+01 -4.39604E+01 -4.82087E+01 -4.44640E+01 -1.56929E+01 -2.23069E+01
  -2.15703E+01 -2.73377E+01 -3.57474E+01 -2.49466E+01 -2.14764E+01 -2.90083E-02 -6.91383E+00 -9.04709E+00  3.84898E+00  1.67713E+01
   3.57657E+01  3.69109E+01  4.06429E+01  5.47412E+01  5.76197E+01  5.85802E+01  7.50828E+01  8.07852E+01  9.05590E+01  8.40523E+01
   7.92776E+01  7.98067E+01  4.83515E+01  2.71383E+01  3.18970E+01  3.12195E+01  1.20600E+01  2.07138E+01  1.31133E+01  1.10743E+00
  -3.56116E+00 -2.66027E+01 -3.28776E+01 -3.85655E+01 -3.60188E+01 -3.79305E+01 -3.41625E+01 -4.98879E+01 -6.06348E+01 -6.07165E+01
  -6.47762E+01 -4.43540E+01 -5.08362E+01 -4.44841E+01 -4.41230E+01 -3.96122E+01 -2.71247E+01 -4.49450E+01 -4.58596E+01 -4.58793E+01
  -4.64499E+01 -4.23290E+01 -4.44953E+01 -4.52880E+01 -4.11002E+01 -4.50424E+01 -3.77916E+01 -4.98353E+01 -5.72432E+01 -3.89722E+01
  -4.34082E+01 -3.98789E+01 -4.67477E+01 -3.93445E+01 -3.89747E+01 -4.40752E+01 -3.86887E+01 -4.53483E+01 -3.93395E+01 -4.34478E+01
  -3.71613E+01 -4.68843E+01 -4.75704E+01 -3.65170E+01 -3.64084E+01 -3.39384E+01 -3.76626E+01 -3.18482E+01 -4.09792E+01 -3.84150E+01
  -4.70478E+01 -4.19113E+01 -3.25919E+01 -4.57039E+01 -3.36554E+01 -3.89395E+01 -3.99310E+01 -4.22478E+01 -3.25224E+01 -2.56985E+01
  -4.78689E+01 -3.19143E+01 -2.25434E+01 -3.98257E+01 -3.76416E+01 -3.36058E+01 -4.43021E+01 -4.39302E+01 -3.97728E+01 -4.13559E+01
  -4.01813E+01 -3.97968E+01 -3.74324E+01 -3.31688E+01 -2.83312E+01 -3.60147E+01 -4.02090E+01 -2.93744E+01 -3.76830E+01 -4.30432E+01
 NY points of the fit to the data follow
  -1.13515E+02 -1.18238E+02 -1.27558E+02 -1.36020E+02 -1.31481E+02 -1.12347E+02 -9.62151E+01 -9.37528E+01 -9.83393E+01 -1.04373E+02
  -1.10738E+02 -1.15995E+02 -1.18461E+02 -1.19466E+02 -1.22437E+02 -1.27851E+02 -1.29457E+02 -1.35972E+02 -1.52331E+02 -1.72374E+02
  -1.72588E+02 -1.42014E+02 -1.20663E+02 -1.07687E+02 -8.52104E+01 -7.06060E+01 -6.59876E+01 -5.84949E+01 -5.14632E+01 -4.83124E+01
  -4.76334E+01 -4.77608E+01 -4.83520E+01 -5.05619E+01 -5.56434E+01 -6.15647E+01 -6.79556E+01 -7.48812E+01 -8.70409E+01 -1.05790E+02
  -1.20545E+02 -1.23649E+02 -1.13794E+02 -9.94305E+01 -8.43540E+01 -6.65383E+01 -5.17842E+01 -4.32614E+01 -3.76854E+01 -3.50921E+01
  -3.54574E+01 -3.72547E+01 -4.25575E+01 -5.49903E+01 -6.78851E+01 -7.29792E+01 -7.27851E+01 -7.78219E+01 -9.09466E+01 -9.25244E+01
  -8.22183E+01 -7.92306E+01 -7.20566E+01 -5.41904E+01 -4.11056E+01 -3.19366E+01 -2.69447E+01 -3.88431E+01 -6.67221E+01 -8.73144E+01
  -8.58776E+01 -8.16659E+01 -8.09077E+01 -6.78644E+01 -4.82291E+01 -3.51407E+01 -2.75271E+01 -2.10595E+01 -1.75927E+01 -1.54705E+01
  -1.90880E+01 -2.75592E+01 -3.98952E+01 -5.50552E+01 -6.18592E+01 -6.22993E+01 -5.50776E+01 -4.31018E+01 -3.27871E+01 -2.49133E+01
  -1.76334E+01 -1.18753E+01 -6.62910E+00 -1.87829E+00  2.11588E+00  7.08436E+00  1.17035E+01  1.27557E+01  9.94695E+00  8.66471E+00
   9.94360E+00  6.03306E+00 -7.03585E+00 -1.78190E+01 -3.54001E+01 -5.84333E+01 -5.71426E+01 -4.67040E+01 -6.05642E+01 -1.15304E+02
  -1.66174E+02 -1.68946E+02 -1.51328E+02 -1.37236E+02 -1.20720E+02 -1.04716E+02 -9.33648E+01 -8.36164E+01 -7.49911E+01 -6.71543E+01
  -5.95261E+01 -5.16559E+01 -4.33466E+01 -3.42153E+01 -2.36414E+01 -1.01480E+01  4.57664E+00  1.21501E+01  2.71150E+01  5.83563E+01
   8.69419E+01  6.09071E+01 -2.86251E+01 -9.54679E+01 -1.14610E+02 -1.23250E+02 -1.27130E+02 -1.22274E+02 -1.18611E+02 -1.16939E+02
  -1.15534E+02 -1.14373E+02 -1.13695E+02 -1.12971E+02 -1.12183E+02 -1.10918E+02 -1.08607E+02 -1.05591E+02 -1.02127E+02 -9.87376E+01
  -9.54496E+01 -9.26340E+01 -9.05519E+01 -8.81721E+01 -8.46657E+01 -8.06630E+01 -7.76143E+01 -7.68814E+01 -7.72025E+01 -7.58225E+01
  -7.18597E+01 -6.78662E+01 -6.80292E+01 -7.12137E+01 -7.26029E+01 -7.06829E+01 -6.75583E+01 -6.72496E+01 -7.02049E+01 -7.01025E+01
  -5.96546E+01 -4.24110E+01 -3.39965E+01 -4.06432E+01 -4.86162E+01 -4.37456E+01 -3.34514E+01 -3.21334E+01 -4.15546E+01 -5.37683E+01
  -6.16836E+01 -6.74773E+01 -7.33714E+01 -7.72319E+01 -7.90265E+01 -8.00047E+01 -7.99530E+01 -7.98482E+01 -7.90094E+01 -7.60863E+01
  -7.40057E+01 -7.29078E+01 -7.09594E+01 -6.31159E+01 -5.25604E+01 -5.35041E+01 -5.40810E+01 -4.62326E+01 -4.24845E+01 -4.33666E+01
  -4.61437E+01 -4.45552E+01 -3.89519E+01 -3.92452E+01 -4.37860E+01 -4.72759E+01 -5.09487E+01 -5.64070E+01 -6.28806E+01 -6.86555E+01
  -7.11280E+01 -7.31240E+01 -7.15112E+01 -6.45124E+01 -5.22022E+01 -3.31643E+01 -2.11206E+01 -1.57103E+01 -1.29297E+01 -1.86192E+01
  -2.62279E+01 -2.88216E+01 -2.89904E+01 -2.70830E+01 -2.47563E+01 -2.40105E+01 -2.52974E+01 -2.99532E+01 -3.71544E+01 -4.63238E+01
  -5.71556E+01 -6.81907E+01 -7.86341E+01 -8.75205E+01 -9.57491E+01 -1.00436E+02 -1.01610E+02 -1.02003E+02 -9.94734E+01 -9.49795E+01
  -9.28429E+01 -8.90976E+01 -8.23191E+01 -7.65669E+01 -6.98945E+01 -6.59326E+01 -6.56918E+01 -6.85565E+01 -7.28713E+01 -7.55415E+01
  -8.63125E+01 -1.05639E+02 -1.02695E+02 -9.03480E+01 -9.95940E+01 -1.41731E+02 -1.33742E+02 -2.17890E+01  6.41888E+01  8.34285E+01
   9.19355E+01  9.40996E+01  8.25417E+01  7.34463E+01  6.70868E+01  6.16917E+01  5.64423E+01  5.14348E+01  4.68348E+01  4.29288E+01
   4.06354E+01  3.91630E+01  3.87927E+01  3.90447E+01  3.91900E+01  3.91584E+01  3.85836E+01  3.78841E+01  3.71545E+01  3.58487E+01
   3.38025E+01  3.14055E+01  2.89234E+01  2.65393E+01  2.38225E+01  2.07733E+01  1.79283E+01  1.49703E+01  1.16247E+01  7.78110E+00
   3.46998E+00 -8.84312E-01 -5.46308E+00 -1.03718E+01 -1.45347E+01 -1.71438E+01 -1.80370E+01 -1.74879E+01 -1.60987E+01 -1.43917E+01
  -1.23534E+01 -9.85101E+00 -7.27670E+00 -4.74471E+00 -2.33473E+00 -2.51388E-01  1.63474E+00  3.79694E+00  6.52529E+00  9.28498E+00
   1.16257E+01  1.37389E+01  1.58193E+01  1.80221E+01  2.02148E+01  2.20609E+01  2.38422E+01  2.51059E+01  2.29822E+01  2.49882E+01
   2.89177E+01  2.59416E+01  3.74507E+00 -3.70212E+01 -7.16580E+01 -1.03178E+02 -1.24190E+02 -1.21270E+02 -1.13007E+02 -1.11157E+02
  -1.09911E+02 -1.09830E+02 -1.11201E+02 -1.11042E+02 -1.08542E+02 -1.03650E+02 -9.75027E+01 -9.14708E+01 -8.51087E+01 -7.96702E+01
  -7.58625E+01 -7.52970E+01 -7.65708E+01 -7.73018E+01 -7.76712E+01 -7.47354E+01 -7.01672E+01 -6.68746E+01 -6.42906E+01 -6.22426E+01
  -6.19045E+01 -6.27193E+01 -6.47664E+01 -6.82522E+01 -7.23730E+01 -7.58747E+01 -7.79110E+01 -7.86247E+01 -7.78698E+01 -7.57150E+01
  -7.25840E+01 -6.85667E+01 -6.40034E+01 -5.92822E+01 -5.45485E+01 -4.99438E+01 -4.55888E+01 -4.13901E+01 -3.72058E+01 -3.29410E+01
  -2.86753E+01 -2.44121E+01 -2.00052E+01 -1.54973E+01 -1.05913E+01 -4.93168E+00  1.11250E+00  7.48266E+00  1.49591E+01  2.30933E+01
   3.10428E+01  3.94580E+01  4.88413E+01  5.82592E+01  6.68783E+01  7.43717E+01  7.94358E+01  8.03325E+01  7.60186E+01  6.74542E+01
   5.68308E+01  4.63389E+01  3.67176E+01  2.84445E+01  2.18028E+01  1.55151E+01  8.22051E+00 -2.45208E-01 -9.14297E+00 -1.84917E+01
  -2.74229E+01 -3.44544E+01 -3.99295E+01 -4.43876E+01 -4.75633E+01 -4.94274E+01 -5.04375E+01 -5.11780E+01 -5.17780E+01 -5.23882E+01
  -5.28327E+01 -5.28546E+01 -5.25517E+01 -5.22925E+01 -5.20368E+01 -5.12833E+01 -5.04933E+01 -5.02188E+01 -5.02782E+01 -4.96858E+01
  -4.85813E+01 -4.80644E+01 -4.78759E+01 -4.73616E+01 -4.66380E+01 -4.62090E+01 -4.60363E+01 -4.57710E+01 -4.50661E+01 -4.42011E+01
  -4.36903E+01 -4.33775E+01 -4.32027E+01 -4.30951E+01 -4.29096E+01 -4.24561E+01 -4.19893E+01 -4.15357E+01 -4.09445E+01 -4.05036E+01
  -4.01667E+01 -3.97175E+01 -3.92489E+01 -3.91611E+01 -3.93524E+01 -3.94002E+01 -3.91382E+01 -3.87696E+01 -3.84454E+01 -3.80578E+01
  -3.78209E+01 -3.79168E+01 -3.78396E+01 -3.73652E+01 -3.69979E+01 -3.66967E+01 -3.63401E+01 -3.61205E+01 -3.59064E+01 -3.56023E+01
  -3.53456E+01 -3.53124E+01 -3.53078E+01 -3.53797E+01 -3.53632E+01 -3.52893E+01 -3.50104E+01 -3.43471E+01 -3.36291E+01 -3.32518E+01
  -3.33476E+01 -3.36234E+01 -3.37700E+01 -3.36517E+01 -3.34726E+01 -3.34209E+01 -3.32199E+01 -3.28946E+01 -3.28908E+01 -3.29925E+01
 NY background values follow
    -8.163E+01   -8.138E+01   -8.113E+01   -8.088E+01   -8.063E+01   -8.037E+01   -8.012E+01   -7.986E+01   -7.960E+01   -7.934E+01
    -7.908E+01   -7.881E+01   -7.855E+01   -7.828E+01   -7.801E+01   -7.774E+01   -7.746E+01   -7.718E+01   -7.690E+01   -7.662E+01
    -7.634E+01   -7.605E+01   -7.576E+01   -7.547E+01   -7.518E+01   -7.488E+01   -7.458E+01   -7.428E+01   -7.397E+01   -7.366E+01
    -7.335E+01   -7.303E+01   -7.272E+01   -7.240E+01   -7.207E+01   -7.175E+01   -7.142E+01   -7.109E+01   -7.076E+01   -7.042E+01
    -7.008E+01   -6.974E+01   -6.940E+01   -6.906E+01   -6.872E+01   -6.837E+01   -6.802E+01   -6.767E+01   -6.732E+01   -6.697E+01
    -6.662E+01   -6.627E+01   -6.591E+01   -6.556E+01   -6.521E+01   -6.485E+01   -6.450E+01   -6.414E+01   -6.378E+01   -6.343E+01
    -6.307E+01   -6.272E+01   -6.236E+01   -6.201E+01   -6.165E+01   -6.130E+01   -6.095E+01   -6.059E+01   -6.024E+01   -5.989E+01
    -5.954E+01   -5.919E+01   -5.884E+01   -5.849E+01   -5.814E+01   -5.779E+01   -5.744E+01   -5.709E+01   -5.675E+01   -5.640E+01
    -5.606E+01   -5.572E+01   -5.537E+01   -5.503E+01   -5.469E+01   -5.435E+01   -5.401E+01   -5.367E+01   -5.334E+01   -5.300E+01
    -5.267E+01   -5.234E+01   -5.200E+01   -5.167E+01   -5.135E+01   -5.102E+01   -5.069E+01   -5.037E+01   -5.005E+01   -4.973E+01
    -4.941E+01   -4.910E+01   -4.878E+01   -4.847E+01   -4.816E+01   -4.786E+01   -4.755E+01   -4.725E+01   -4.696E+01   -4.666E+01
    -4.637E+01   -4.608E+01   -4.580E+01   -4.552E+01   -4.524E+01   -4.496E+01   -4.469E+01   -4.442E+01   -4.416E+01   -4.390E+01
    -4.365E+01   -4.339E+01   -4.315E+01   -4.290E+01   -4.266E+01   -4.243E+01   -4.220E+01   -4.197E+01   -4.175E+01   -4.154E+01
    -4.133E+01   -4.112E+01   -4.092E+01   -4.073E+01   -4.054E+01   -4.035E+01   -4.017E+01   -4.000E+01   -3.983E+01   -3.967E+01
    -3.952E+01   -3.937E+01   -3.922E+01   -3.909E+01   -3.896E+01   -3.883E+01   -3.872E+01   -3.860E+01   -3.850E+01   -3.840E+01
    -3.831E+01   -3.823E+01   -3.815E+01   -3.808E+01   -3.802E+01   -3.796E+01   -3.790E+01   -3.785E+01   -3.781E+01   -3.777E+01
    -3.774E+01   -3.771E+01   -3.768E+01   -3.766E+01   -3.763E+01   -3.762E+01   -3.760E+01   -3.759E+01   -3.758E+01   -3.757E+01
    -3.756E+01   -3.755E+01   -3.754E+01   -3.754E+01   -3.753E+01   -3.752E+01   -3.752E+01   -3.751E+01   -3.750E+01   -3.749E+01
    -3.748E+01   -3.746E+01   -3.745E+01   -3.743E+01   -3.741E+01   -3.738E+01   -3.736E+01   -3.733E+01   -3.730E+01   -3.726E+01
    -3.723E+01   -3.718E+01   -3.714E+01   -3.709E+01   -3.704E+01   -3.698E+01   -3.692E+01   -3.686E+01   -3.679E+01   -3.672E+01
    -3.664E+01   -3.655E+01   -3.647E+01   -3.637E+01   -3.627E+01   -3.617E+01   -3.606E+01   -3.595E+01   -3.582E+01   -3.570E+01
    -3.556E+01   -3.542E+01   -3.528E+01   -3.513E+01   -3.497E+01   -3.482E+01   -3.465E+01   -3.449E+01   -3.432E+01   -3.415E+01
    -3.397E+01   -3.380E+01   -3.363E+01   -3.345E+01   -3.327E+01   -3.310E+01   -3.293E+01   -3.275E+01   -3.258E+01   -3.241E+01
    -3.225E+01   -3.209E+01   -3.193E+01   -3.177E+01   -3.162E+01   -3.148E+01   -3.134E+01   -3.121E+01   -3.108E+01   -3.096E+01
    -3.085E+01   -3.074E+01   -3.065E+01   -3.056E+01   -3.049E+01   -3.042E+01   -3.036E+01   -3.032E+01   -3.029E+01   -3.026E+01
    -3.026E+01   -3.026E+01   -3.028E+01   -3.031E+01   -3.036E+01   -3.042E+01   -3.050E+01   -3.060E+01   -3.071E+01   -3.084E+01
    -3.099E+01   -3.115E+01   -3.134E+01   -3.155E+01   -3.177E+01   -3.202E+01   -3.228E+01   -3.257E+01   -3.288E+01   -3.322E+01
    -3.357E+01   -3.395E+01   -3.436E+01   -3.478E+01   -3.523E+01   -3.569E+01   -3.618E+01   -3.669E+01   -3.722E+01   -3.776E+01
    -3.832E+01   -3.891E+01   -3.950E+01   -4.012E+01   -4.075E+01   -4.140E+01   -4.206E+01   -4.274E+01   -4.343E+01   -4.413E+01
    -4.484E+01   -4.557E+01   -4.631E+01   -4.706E+01   -4.782E+01   -4.860E+01   -4.938E+01   -5.017E+01   -5.096E+01   -5.177E+01
    -5.258E+01   -5.340E+01   -5.422E+01   -5.505E+01   -5.588E+01   -5.671E+01   -5.753E+01   -5.836E+01   -5.917E+01   -5.999E+01
    -6.079E+01   -6.159E+01   -6.237E+01   -6.315E+01   -6.391E+01   -6.465E+01   -6.538E+01   -6.609E+01   -6.678E+01   -6.744E+01
    -6.809E+01   -6.871E+01   -6.930E+01   -6.987E+01   -7.041E+01   -7.092E+01   -7.139E+01   -7.184E+01   -7.225E+01   -7.262E+01
    -7.295E+01   -7.325E+01   -7.350E+01   -7.372E+01   -7.391E+01   -7.406E+01   -7.417E+01   -7.425E+01   -7.429E+01   -7.430E+01
    -7.428E+01   -7.422E+01   -7.413E+01   -7.401E+01   -7.386E+01   -7.368E+01   -7.347E+01   -7.323E+01   -7.296E+01   -7.266E+01
    -7.234E+01   -7.198E+01   -7.160E+01   -7.120E+01   -7.077E+01   -7.031E+01   -6.983E+01   -6.932E+01   -6.880E+01   -6.824E+01
    -6.767E+01   -6.708E+01   -6.646E+01   -6.583E+01   -6.517E+01   -6.450E+01   -6.382E+01   -6.312E+01   -6.240E+01   -6.167E+01
    -6.093E+01   -6.018E+01   -5.942E+01   -5.865E+01   -5.788E+01   -5.709E+01   -5.631E+01   -5.551E+01   -5.472E+01   -5.392E+01
    -5.312E+01   -5.232E+01   -5.152E+01   -5.072E+01   -4.992E+01   -4.913E+01   -4.835E+01   -4.757E+01   -4.680E+01   -4.603E+01
    -4.528E+01   -4.453E+01   -4.380E+01   -4.307E+01   -4.236E+01   -4.165E+01   -4.096E+01   -4.028E+01   -3.961E+01   -3.896E+01
    -3.831E+01   -3.768E+01   -3.706E+01   -3.646E+01   -3.586E+01   -3.529E+01   -3.472E+01   -3.417E+01   -3.364E+01   -3.312E+01
    -3.261E+01   -3.212E+01   -3.165E+01   -3.119E+01   -3.075E+01   -3.033E+01   -2.992E+01   -2.953E+01   -2.916E+01   -2.880E+01
    -2.847E+01   -2.815E+01   -2.785E+01   -2.756E+01   -2.730E+01   -2.704E+01   -2.681E+01   -2.659E+01   -2.638E+01   -2.619E+01
    -2.601E+01   -2.585E+01   -2.570E+01   -2.556E+01   -2.544E+01   -2.532E+01   -2.522E+01   -2.513E+01   -2.505E+01   -2.498E+01
    -2.492E+01   -2.487E+01   -2.483E+01   -2.480E+01   -2.478E+01   -2.476E+01   -2.475E+01   -2.475E+01   -2.476E+01   -2.477E+01
    -2.478E+01   -2.480E+01   -2.483E+01   -2.486E+01   -2.490E+01   -2.494E+01   -2.499E+01   -2.504E+01   -2.509E+01   -2.515E+01
    -2.521E+01   -2.528E+01   -2.535E+01   -2.542E+01   -2.549E+01   -2.557E+01   -2.564E+01   -2.572E+01   -2.581E+01   -2.589E+01
    -2.597E+01   -2.606E+01   -2.615E+01   -2.623E+01   -2.632E+01   -2.641E+01   -2.650E+01   -2.658E+01   -2.667E+01   -2.676E+01
 Mac      Conc. = 3.16E-04
  -1.03926E+02 -1.04247E+02 -1.04364E+02 -1.04344E+02 -1.04480E+02 -1.05164E+02 -1.06377E+02 -1.08014E+02 -1.09679E+02 -1.11054E+02
  -1.11934E+02 -1.12234E+02 -1.12133E+02 -1.11580E+02 -1.12031E+02 -1.14098E+02 -1.15948E+02 -1.14932E+02 -1.10718E+02 -1.06186E+02
  -1.02147E+02 -9.73064E+01 -9.29983E+01 -9.05248E+01 -8.88845E+01 -8.72103E+01 -8.53464E+01 -8.32511E+01 -8.07410E+01 -7.83521E+01
  -7.63928E+01 -7.46436E+01 -7.30122E+01 -7.19014E+01 -7.17861E+01 -7.21498E+01 -7.17485E+01 -6.96608E+01 -6.64829E+01 -6.38933E+01
  -6.28985E+01 -6.27644E+01 -6.22201E+01 -6.09986E+01 -5.91980E+01 -5.75671E+01 -5.66960E+01 -5.64296E+01 -5.67180E+01 -5.75529E+01
  -5.88466E+01 -5.98987E+01 -6.04342E+01 -6.07731E+01 -6.11294E+01 -6.13126E+01 -6.08057E+01 -5.93534E+01 -5.76346E+01 -5.62266E+01
  -5.44388E+01 -5.22566E+01 -5.10233E+01 -5.07630E+01 -5.10685E+01 -5.17191E+01 -5.19616E+01 -5.20181E+01 -5.24300E+01 -5.27679E+01
  -5.15520E+01 -4.87293E+01 -4.57814E+01 -4.35368E+01 -4.17569E+01 -4.05641E+01 -4.02137E+01 -4.04884E+01 -4.09124E+01 -4.11668E+01
  -4.14247E+01 -4.17104E+01 -4.18239E+01 -4.12096E+01 -4.01938E+01 -3.91499E+01 -3.78416E+01 -3.65697E+01 -3.54907E+01 -3.46030E+01
  -3.37866E+01 -3.30566E+01 -3.24925E+01 -3.21587E+01 -3.22250E+01 -3.32580E+01 -3.49958E+01 -3.72869E+01 -3.99122E+01 -4.21116E+01
  -4.37178E+01 -4.56647E+01 -4.82782E+01 -5.10088E+01 -5.44191E+01 -5.96637E+01 -6.65377E+01 -7.34991E+01 -7.83160E+01 -8.04854E+01
