 
 $NMID
 ID=''
 FMTDAT='(2E13.5)'
 TRAMP=   1.00000E+0
 VOLUME=   1.00000E+0
 $END
  -4.19440E+5   4.87776E+5
  -1.47507E+6   8.49122E+5
  -1.31625E+6   9.61584E+5
  -1.29577E+6   8.15733E+5
  -1.37451E+6   8.58175E+5
  -1.27737E+6   9.19537E+5
  -1.24282E+6   8.59888E+5
  -1.29465E+6   8.75597E+5
  -1.24355E+6   8.98149E+5
  -1.22749E+6   8.44228E+5
  -1.25873E+6   8.46244E+5
  -1.22280E+6   8.56798E+5
  -1.20986E+6   8.18020E+5
  -1.23243E+6   8.11734E+5
  -1.20748E+6   8.06602E+5
  -1.19455E+6   7.75322E+5
  -1.20759E+6   7.75499E+5
  -1.18855E+6   7.76141E+5
  -1.17435E+6   7.56809E+5
  -1.17027E+6   7.63524E+5
  -1.15024E+6   7.62941E+5
  -1.14143E+6   7.46046E+5
  -1.14039E+6   7.45301E+5
  -1.12481E+6   7.41176E+5
  -1.11689E+6   7.23549E+5
  -1.11070E+6   7.22523E+5
  -1.10307E+6   7.13394E+5
  -1.10160E+6   6.93103E+5
  -1.09641E+6   6.82148E+5
  -1.08496E+6   6.75667E+5
  -1.08226E+6   6.64683E+5
  -1.07429E+6   6.59725E+5
  -1.06192E+6   6.52940E+5
  -1.05546E+6   6.47260E+5
  -1.04433E+6   6.46756E+5
  -1.03038E+6   6.46923E+5
  -1.02510E+6   6.46032E+5
  -1.01773E+6   6.43269E+5
  -1.00548E+6   6.35696E+5
  -9.99578E+5   6.30860E+5
  -9.92831E+5   6.25655E+5
  -9.83808E+5   6.16129E+5
  -9.76873E+5   6.09272E+5
  -9.71141E+5   6.04593E+5
  -9.64841E+5   5.95382E+5
  -9.60387E+5   5.87606E+5
  -9.54470E+5   5.81865E+5
  -9.47024E+5   5.73388E+5
  -9.38767E+5   5.66976E+5
  -9.31044E+5   5.64206E+5
  -9.23452E+5   5.60486E+5
  -9.17300E+5   5.56098E+5
  -9.10518E+5   5.52518E+5
  -9.03616E+5   5.48246E+5
  -8.97273E+5   5.42415E+5
  -8.91194E+5   5.37009E+5
  -8.84729E+5   5.29808E+5
  -8.78132E+5   5.22800E+5
  -8.71628E+5   5.17326E+5
  -8.66238E+5   5.12683E+5
  -8.61348E+5   5.06364E+5
  -8.56037E+5   4.99917E+5
  -8.50155E+5   4.94505E+5
  -8.43854E+5   4.87902E+5
  -8.37253E+5   4.82131E+5
  -8.29913E+5   4.77134E+5
  -8.22299E+5   4.72637E+5
  -8.16927E+5   4.68055E+5
  -8.12121E+5   4.63897E+5
  -8.07541E+5   4.57379E+5
  -8.01539E+5   4.50410E+5
  -7.95075E+5   4.45467E+5
  -7.90039E+5   4.40424E+5
  -7.85823E+5   4.33869E+5
  -7.79941E+5   4.27430E+5
  -7.73029E+5   4.22223E+5
  -7.67778E+5   4.16930E+5
  -7.62997E+5   4.11593E+5
  -7.56690E+5   4.06287E+5
  -7.50613E+5   4.00645E+5
  -7.44667E+5   3.95251E+5
  -7.38905E+5   3.89808E+5
  -7.33634E+5   3.84215E+5
  -7.28916E+5   3.77791E+5
  -7.23287E+5   3.70731E+5
  -7.17499E+5   3.65005E+5
  -7.12426E+5   3.58794E+5
  -7.07415E+5   3.52129E+5
  -7.02163E+5   3.45157E+5
  -6.95812E+5   3.39695E+5
  -6.90273E+5   3.34500E+5
  -6.84707E+5   3.29128E+5
  -6.78940E+5   3.23265E+5
  -6.72567E+5   3.17706E+5
  -6.65995E+5   3.13003E+5
  -6.59742E+5   3.09019E+5
  -6.54924E+5   3.04673E+5
  -6.49474E+5   2.99181E+5
  -6.43342E+5   2.93987E+5
  -6.37904E+5   2.89336E+5
  -6.33118E+5   2.84188E+5
  -6.28162E+5   2.78527E+5
  -6.21592E+5   2.71549E+5
  -6.15079E+5   2.66346E+5
  -6.09505E+5   2.61914E+5
  -6.04917E+5   2.57255E+5
  -6.00264E+5   2.51673E+5
  -5.94470E+5   2.45736E+5
  -5.88101E+5   2.41019E+5
  -5.81999E+5   2.36957E+5
  -5.77847E+5   2.32873E+5
  -5.73442E+5   2.27165E+5
  -5.68167E+5   2.21482E+5
  -5.63232E+5   2.16087E+5
  -5.58225E+5   2.10638E+5
  -5.53899E+5   2.05186E+5
  -5.48884E+5   1.99384E+5
  -5.43777E+5   1.93837E+5
  -5.38007E+5   1.89385E+5
  -5.33244E+5   1.85407E+5
  -5.29452E+5   1.80698E+5
  -5.25237E+5   1.75783E+5
  -5.20766E+5   1.70804E+5
  -5.16272E+5   1.65769E+5
  -5.12032E+5   1.60753E+5
  -5.07040E+5   1.55998E+5
  -5.02289E+5   1.51095E+5
  -4.98289E+5   1.46331E+5
  -4.94419E+5   1.41742E+5
  -4.90873E+5   1.36220E+5
  -4.86899E+5   1.29656E+5
  -4.82494E+5   1.24401E+5
  -4.78006E+5   1.19587E+5
  -4.74452E+5   1.15038E+5
  -4.70720E+5   1.09758E+5
  -4.66463E+5   1.04541E+5
  -4.62433E+5   1.00309E+5
  -4.59393E+5   9.60631E+4
  -4.55533E+5   9.10792E+4
  -4.51698E+5   8.60490E+4
  -4.47364E+5   8.18352E+4
  -4.42916E+5   7.83265E+4
  -4.39046E+5   7.41836E+4
  -4.36057E+5   6.97525E+4
  -4.32388E+5   6.48723E+4
  -4.28488E+5   6.04666E+4
  -4.23793E+5   5.65395E+4
  -4.19791E+5   5.24589E+4
  -4.15927E+5   4.86735E+4
  -4.11857E+5   4.46176E+4
  -4.08100E+5   4.11233E+4
  -4.03883E+5   3.77853E+4
  -4.00404E+5   3.44520E+4
  -3.96952E+5   3.11337E+4
  -3.92725E+5   2.75168E+4
  -3.88404E+5   2.44246E+4
  -3.84949E+5   2.20611E+4
  -3.81027E+5   1.90866E+4
  -3.77248E+5   1.57839E+4
  -3.73199E+5   1.34279E+4
  -3.69478E+5   1.06513E+4
  -3.65790E+5   7.98258E+3
  -3.61754E+5   5.10366E+3
  -3.57713E+5   2.56322E+3
  -3.53510E+5   3.51036E+2
  -3.50096E+5  -1.48595E+3
  -3.46688E+5  -3.99423E+3
  -3.42860E+5  -6.58010E+3
  -3.38680E+5  -8.80001E+3
  -3.35190E+5  -1.08133E+4
  -3.31571E+5  -1.25038E+4
  -3.28063E+5  -1.45412E+4
  -3.24360E+5  -1.68451E+4
  -3.20408E+5  -1.88896E+4
  -3.16748E+5  -2.07011E+4
  -3.13366E+5  -2.27034E+4
  -3.10032E+5  -2.51081E+4
  -3.06068E+5  -2.71745E+4
  -3.02279E+5  -2.92120E+4
  -2.98938E+5  -3.06856E+4
  -2.95855E+5  -3.29035E+4
  -2.92335E+5  -3.50765E+4
  -2.88563E+5  -3.72048E+4
  -2.84888E+5  -3.91916E+4
  -2.81694E+5  -4.07772E+4
  -2.78340E+5  -4.25127E+4
  -2.75032E+5  -4.42832E+4
  -2.71575E+5  -4.57954E+4
  -2.68573E+5  -4.71142E+4
  -2.65956E+5  -4.88259E+4
  -2.62898E+5  -5.11647E+4
  -2.59161E+5  -5.32392E+4
  -2.55642E+5  -5.48448E+4
  -2.52292E+5  -5.65273E+4
  -2.49445E+5  -5.81646E+4
  -2.46256E+5  -6.01482E+4
  -2.43383E+5  -6.18641E+4
  -2.40076E+5  -6.37302E+4
  -2.36976E+5  -6.52102E+4
  -2.34011E+5  -6.74026E+4
  -2.30691E+5  -6.91499E+4
  -2.27576E+5  -7.07088E+4
  -2.24501E+5  -7.15927E+4
  -2.22014E+5  -7.34984E+4
  -2.19047E+5  -7.50766E+4
  -2.15663E+5  -7.69399E+4
  -2.12627E+5  -7.81162E+4
  -2.09772E+5  -7.96337E+4
  -2.07098E+5  -8.12622E+4
  -2.04291E+5  -8.28653E+4
  -2.01261E+5  -8.38932E+4
  -1.98292E+5  -8.50977E+4
  -1.95779E+5  -8.63666E+4
  -1.92882E+5  -8.80460E+4
  -1.90014E+5  -8.92430E+4
  -1.86867E+5  -9.02212E+4
  -1.83929E+5  -9.08440E+4
  -1.81486E+5  -9.15360E+4
  -1.79139E+5  -9.25616E+4
  -1.76184E+5  -9.36518E+4
  -1.73389E+5  -9.44095E+4
  -1.70905E+5  -9.48390E+4
  -1.68459E+5  -9.58878E+4
  -1.65320E+5  -9.68226E+4
  -1.62663E+5  -9.72497E+4
  -1.60214E+5  -9.74427E+4
  -1.58064E+5  -9.80170E+4
  -1.55735E+5  -9.87136E+4
  -1.52981E+5  -9.94199E+4
  -1.50378E+5  -1.00028E+5
  -1.47928E+5  -1.00153E+5
  -1.45518E+5  -1.00445E+5
  -1.43448E+5  -1.00629E+5
  -1.40918E+5  -1.00845E+5
  -1.38624E+5  -1.00986E+5
  -1.36545E+5  -1.01120E+5
  -1.34539E+5  -1.01095E+5
  -1.31910E+5  -1.01601E+5
  -1.29645E+5  -1.01457E+5
  -1.27557E+5  -1.01287E+5
  -1.25649E+5  -1.01243E+5
  -1.23846E+5  -1.01318E+5
  -1.21363E+5  -1.01411E+5
  -1.18924E+5  -1.01259E+5
  -1.17054E+5  -1.01145E+5
  -1.15131E+5  -1.00923E+5
  -1.13010E+5  -1.00912E+5
  -1.10771E+5  -1.00399E+5
  -1.08811E+5  -1.00275E+5
  -1.06891E+5  -1.00071E+5
  -1.05276E+5  -1.00156E+5
  -1.02915E+5  -1.00014E+5
  -1.00752E+5  -9.99358E+4
  -9.87088E+4  -9.93263E+4
  -9.70537E+4  -9.89434E+4
  -9.54122E+4  -9.88112E+4
  -9.36975E+4  -9.89176E+4
  -9.15924E+4  -9.85160E+4
  -8.93499E+4  -9.82714E+4
  -8.78193E+4  -9.84113E+4
  -8.57349E+4  -9.82558E+4
  -8.37125E+4  -9.77743E+4
  -8.15411E+4  -9.72180E+4
  -8.05390E+4  -9.68235E+4
  -7.88541E+4  -9.65693E+4
  -7.68184E+4  -9.66058E+4
  -7.48749E+4  -9.63554E+4
  -7.30359E+4  -9.57397E+4
  -7.15688E+4  -9.51569E+4
  -6.98703E+4  -9.49053E+4
  -6.84218E+4  -9.45328E+4
  -6.66717E+4  -9.39243E+4
  -6.50413E+4  -9.33084E+4
  -6.34964E+4  -9.30600E+4
  -6.15920E+4  -9.27866E+4
  -5.99165E+4  -9.24808E+4
  -5.81862E+4  -9.17879E+4
  -5.69427E+4  -9.11595E+4
  -5.52649E+4  -9.06708E+4
  -5.36821E+4  -9.04067E+4
  -5.24196E+4  -8.97410E+4
  -5.11905E+4  -8.91876E+4
  -4.95912E+4  -8.86735E+4
  -4.78985E+4  -8.84590E+4
  -4.66525E+4  -8.79899E+4
  -4.52696E+4  -8.67677E+4
  -4.40069E+4  -8.62367E+4
  -4.32127E+4  -8.56449E+4
  -4.18766E+4  -8.54344E+4
  -4.06466E+4  -8.46294E+4
  -3.90989E+4  -8.40286E+4
  -3.79173E+4  -8.32576E+4
  -3.69362E+4  -8.23687E+4
  -3.58800E+4  -8.20727E+4
  -3.45695E+4  -8.11883E+4
  -3.34890E+4  -8.04940E+4
  -3.28616E+4  -8.00093E+4
  -3.16766E+4  -7.92377E+4
  -3.04857E+4  -7.84807E+4
  -2.95246E+4  -7.75756E+4
  -2.85412E+4  -7.68314E+4
  -2.77724E+4  -7.61752E+4
  -2.67117E+4  -7.56177E+4
  -2.55433E+4  -7.48395E+4
  -2.45524E+4  -7.40270E+4
  -2.35744E+4  -7.31106E+4
  -2.33583E+4  -7.25943E+4
  -2.22005E+4  -7.19765E+4
  -2.15435E+4  -7.09717E+4
  -2.07234E+4  -7.02900E+4
  -1.99986E+4  -6.97834E+4
  -1.91037E+4  -6.89707E+4
  -1.82187E+4  -6.81759E+4
  -1.75861E+4  -6.73008E+4
  -1.66512E+4  -6.62732E+4
  -1.60898E+4  -6.55547E+4
  -1.54437E+4  -6.48324E+4
  -1.47301E+4  -6.40921E+4
  -1.41997E+4  -6.32683E+4
  -1.35275E+4  -6.26081E+4
  -1.28902E+4  -6.17786E+4
  -1.23296E+4  -6.10453E+4
  -1.15784E+4  -6.02880E+4
  -1.09787E+4  -5.94003E+4
  -1.06695E+4  -5.88832E+4
  -1.00491E+4  -5.79070E+4
  -9.57929E+3  -5.72369E+4
  -8.63779E+3  -5.66671E+4
  -8.01940E+3  -5.55345E+4
  -7.67813E+3  -5.48306E+4
  -7.24103E+3  -5.41156E+4
  -6.47493E+3  -5.32568E+4
  -6.45954E+3  -5.26639E+4
  -5.86090E+3  -5.17202E+4
  -5.30779E+3  -5.10771E+4
  -4.55568E+3  -5.06759E+4
  -4.01144E+3  -4.98140E+4
  -3.73005E+3  -4.89852E+4
  -3.46110E+3  -4.79969E+4
  -3.07027E+3  -4.71345E+4
  -2.77677E+3  -4.66510E+4
  -2.02779E+3  -4.59704E+4
  -1.72654E+3  -4.51952E+4
  -1.51373E+3  -4.44309E+4
  -1.02955E+3  -4.39313E+4
  -6.74223E+2  -4.31535E+4
  -5.59270E+2  -4.22955E+4
  -5.05101E+1  -4.15836E+4
   2.47600E+2  -4.09250E+4
   7.68913E+2  -4.03775E+4
   1.07578E+3  -3.96326E+4
   1.37412E+3  -3.86948E+4
   1.59002E+3  -3.80128E+4
   1.93170E+3  -3.74670E+4
   1.98013E+3  -3.66664E+4
   2.27875E+3  -3.60730E+4
   2.58712E+3  -3.53278E+4
   2.92752E+3  -3.49605E+4
   3.32642E+3  -3.43207E+4
   3.62073E+3  -3.35808E+4
   3.49821E+3  -3.27866E+4
   3.72854E+3  -3.21503E+4
   3.89380E+3  -3.16663E+4
   4.10823E+3  -3.12202E+4
   4.33917E+3  -3.08726E+4
   4.70970E+3  -3.01969E+4
   4.73226E+3  -2.93173E+4
