 LCModel (Version 6.3-1N) Copyright: S.W. Provencher.          Ref.: Magn. Reson. Med. 30:672-679 (1993).                
 Slice_N1@24_15  28-Feb-2025 11:43:41
 27 lines in following concentration table = NCONC+1
    Conc.  %SD /Cr+PCr  Metabolite                                         
 2.69E-04   6% 4.4E-04 Mac                                                 
    4.875  24%   8.000 Cr                                                  
    0.000 999%   0.000 PCr                                                 
    5.734  27%   9.410 Ins                                                 
    6.421  22%  10.537 NAA                                                 
    2.014  98%   3.305 Tau                                                 
    2.349  16%   3.855 PCho                                                
    0.000 999%   0.000 GPC                                                 
   12.730  13%  20.890 Glu                                                 
    3.949  35%   6.480 Gln                                                 
    3.152  40%   5.172 Ala                                                 
    9.442  24%  15.494 Asc                                                 
    1.038  83%   1.703 Asp                                                 
    0.783  65%   1.285 GABA                                                
    0.727  73%   1.193 Glc                                                 
    5.588  17%   9.169 GSH                                                 
    6.077  21%   9.972 Lac                                                 
    2.796  44%   4.588 NAAG                                                
    0.000 999%   0.000 PE                                                  
    2.349  16%   3.855 GPC+PCho                                            
    9.217  12%  15.125 NAA+NAAG                                            
   16.679  13%  27.370 Glu+Gln                                             
    4.875  24%   8.000 Cr+PCr                                              
    9.217  12%  15.125 NAA+NAAG                                            
    4.875  24%   8.000 Cr+PCr                                              
   16.679  13%  27.370 Glu+Gln                                             
   6 lines in following misc. output table
  FWHM = 0.098 ppm    S/N =   3                                            
  Data shift =-0.081 ppm                                                   
  Ph: -93 deg       0.0 deg/ppm                                            
  alphaB,S = 1.2E-01,   2.4E+01                                            
   17 spline knots.   Ns = 6(2)                                            
  ( 6) 4 infls.   ( 6) 3 extrs.                                            
  480 points on ppm-axis = NY
      4.100000     4.091866     4.083733     4.075600     4.067466     4.059333     4.051199     4.043066     4.034933     4.026799
      4.018666     4.010532     4.002399     3.994265     3.986132     3.977998     3.969864     3.961731     3.953597     3.945463
      3.937330     3.929196     3.921062     3.912929     3.904795     3.896662     3.888528     3.880394     3.872261     3.864127
      3.855993     3.847860     3.839726     3.831592     3.823459     3.815325     3.807191     3.799058     3.790924     3.782790
      3.774657     3.766523     3.758389     3.750256     3.742122     3.733989     3.725855     3.717721     3.709588     3.701454
      3.693320     3.685187     3.677053     3.668919     3.660786     3.652652     3.644518     3.636385     3.628251     3.620117
      3.611984     3.603850     3.595716     3.587583     3.579449     3.571316     3.563182     3.555048     3.546915     3.538781
      3.530647     3.522514     3.514380     3.506246     3.498113     3.489979     3.481845     3.473712     3.465578     3.457444
      3.449311     3.441177     3.433043     3.424910     3.416776     3.408643     3.400509     3.392375     3.384242     3.376108
      3.367974     3.359841     3.351707     3.343573     3.335440     3.327306     3.319172     3.311039     3.302905     3.294771
      3.286638     3.278504     3.270370     3.262237     3.254103     3.245970     3.237836     3.229702     3.221569     3.213435
      3.205301     3.197168     3.189034     3.180900     3.172767     3.164633     3.156499     3.148366     3.140232     3.132098
      3.123965     3.115831     3.107697     3.099564     3.091430     3.083297     3.075163     3.067029     3.058896     3.050762
      3.042628     3.034495     3.026361     3.018227     3.010094     3.001960     2.993826     2.985693     2.977559     2.969425
      2.961292     2.953158     2.945024     2.936891     2.928757     2.920624     2.912490     2.904356     2.896223     2.888089
      2.879955     2.871822     2.863688     2.855554     2.847421     2.839287     2.831153     2.823020     2.814886     2.806752
      2.798619     2.790485     2.782351     2.774218     2.766084     2.757951     2.749817     2.741683     2.733550     2.725416
      2.717282     2.709149     2.701015     2.692881     2.684748     2.676614     2.668480     2.660347     2.652213     2.644079
      2.635946     2.627812     2.619678     2.611545     2.603411     2.595278     2.587144     2.579010     2.570877     2.562743
      2.554609     2.546476     2.538342     2.530208     2.522075     2.513941     2.505807     2.497674     2.489540     2.481406
      2.473273     2.465139     2.457006     2.448872     2.440738     2.432605     2.424471     2.416337     2.408204     2.400070
      2.391936     2.383803     2.375669     2.367535     2.359402     2.351268     2.343134     2.335001     2.326867     2.318733
      2.310600     2.302466     2.294333     2.286199     2.278065     2.269932     2.261798     2.253664     2.245531     2.237397
      2.229263     2.221130     2.212996     2.204862     2.196729     2.188595     2.180461     2.172328     2.164194     2.156060
      2.147927     2.139793     2.131660     2.123526     2.115392     2.107259     2.099125     2.090991     2.082858     2.074724
      2.066590     2.058457     2.050323     2.042189     2.034056     2.025922     2.017788     2.009655     2.001521     1.993387
      1.985254     1.977120     1.968987     1.960853     1.952719     1.944586     1.936452     1.928318     1.920185     1.912051
      1.903917     1.895784     1.887650     1.879516     1.871383     1.863249     1.855115     1.846982     1.838848     1.830714
      1.822581     1.814447     1.806314     1.798180     1.790046     1.781913     1.773779     1.765645     1.757512     1.749378
      1.741244     1.733111     1.724977     1.716843     1.708710     1.700576     1.692442     1.684309     1.676175     1.668041
      1.659908     1.651774     1.643641     1.635507     1.627373     1.619240     1.611106     1.602972     1.594839     1.586705
      1.578571     1.570438     1.562304     1.554170     1.546037     1.537903     1.529769     1.521636     1.513502     1.505368
      1.497235     1.489101     1.480968     1.472834     1.464700     1.456567     1.448433     1.440299     1.432166     1.424032
      1.415898     1.407765     1.399631     1.391497     1.383364     1.375230     1.367096     1.358963     1.350829     1.342695
      1.334562     1.326428     1.318295     1.310161     1.302027     1.293894     1.285760     1.277626     1.269493     1.261359
      1.253225     1.245092     1.236958     1.228824     1.220691     1.212557     1.204423     1.196290     1.188156     1.180022
      1.171889     1.163755     1.155622     1.147488     1.139354     1.131221     1.123087     1.114953     1.106820     1.098686
      1.090552     1.082419     1.074285     1.066151     1.058018     1.049884     1.041750     1.033617     1.025483     1.017349
      1.009216     1.001082     0.992949     0.984815     0.976681     0.968548     0.960414     0.952280     0.944147     0.936013
      0.927879     0.919746     0.911612     0.903478     0.895345     0.887211     0.879077     0.870944     0.862810     0.854676
      0.846543     0.838409     0.830276     0.822142     0.814008     0.805875     0.797741     0.789607     0.781474     0.773340
      0.765206     0.757073     0.748939     0.740805     0.732672     0.724538     0.716404     0.708271     0.700137     0.692003
      0.683870     0.675736     0.667603     0.659469     0.651335     0.643202     0.635068     0.626934     0.618801     0.610667
      0.602533     0.594400     0.586266     0.578132     0.569999     0.561865     0.553731     0.545598     0.537464     0.529330
      0.521197     0.513063     0.504930     0.496796     0.488662     0.480529     0.472395     0.464261     0.456128     0.447994
      0.439861     0.431727     0.423593     0.415460     0.407326     0.399192     0.391059     0.382925     0.374792     0.366658
      0.358524     0.350391     0.342257     0.334124     0.325990     0.317856     0.309723     0.301589     0.293455     0.285322
      0.277188     0.269055     0.260921     0.252787     0.244654     0.236520     0.228386     0.220253     0.212119     0.203986
 NY phased data points follow
  -1.12905E+00 -1.46051E+01 -4.17193E+00  2.16976E+00 -6.11027E+00 -1.23958E+00 -1.61990E+01 -1.28309E+01  6.97109E+00  2.54880E+00
  -8.64280E+00 -1.50371E+01 -2.59111E+01 -1.83993E+01 -1.30742E+01 -1.72517E+01 -2.72546E+01 -2.04973E+01 -2.74959E+01 -3.34156E+01
  -1.01476E+01 -1.84286E+01 -6.16191E+00 -2.04530E+01 -2.65798E+01 -1.91908E+01 -3.88470E+01 -1.55834E+01 -3.77729E+01 -4.96515E+01
  -3.22195E+01 -5.09323E+01 -5.61307E+01 -6.94797E+01 -8.34889E+01 -7.92986E+01 -9.15775E+01 -8.55840E+01 -9.05659E+01 -1.09228E+02
  -8.60646E+01 -9.92857E+01 -9.94917E+01 -8.14644E+01 -8.28625E+01 -6.83715E+01 -5.41871E+01 -4.67498E+01 -5.64656E+01 -3.72444E+01
  -4.29503E+01 -5.59984E+01 -4.44771E+01 -5.74994E+01 -6.48062E+01 -6.30065E+01 -5.53274E+01 -5.69374E+01 -4.02367E+01 -4.94604E+01
  -4.16645E+01 -4.94234E+00 -1.89707E+01 -2.40306E+01 -3.23279E+01 -6.48554E+00 -3.52518E+00 -2.19037E+01  5.47929E-01 -1.30131E+01
  -1.81448E+01 -1.41068E+01 -2.58113E+01 -4.53043E+01 -2.33883E+01 -1.07756E+01 -2.91428E+01 -1.23331E+01 -9.50307E+00 -4.81824E-01
  -1.18431E+01 -3.45233E+00  8.89145E+00 -1.90785E+01 -7.35786E+00 -4.02838E+00 -1.57107E+01 -1.22572E+01  1.89970E+00  1.26920E+00
   5.46024E-01  9.25611E+00  2.13840E+01  1.93526E+01  2.95763E+01  4.26792E+01 -7.18628E+00  3.86092E+00  1.40978E+01 -8.33491E+00
  -1.81884E+00  2.09947E+00 -1.78439E+00 -1.62900E+01 -1.15030E+01 -3.97083E+01 -3.51721E+01 -4.53892E+01 -5.82024E+01 -5.20593E+01
  -6.91558E+01 -5.56080E+01 -8.90837E+01 -7.12132E+01 -7.87124E+01 -8.60374E+01 -4.17487E+01 -5.91714E+01 -4.66973E+01 -4.20833E+01
  -2.31577E+01 -1.90728E+00  1.21174E+01  2.65189E+00 -2.86159E+01 -4.34703E+00  1.43933E+01  1.54418E+01  4.97672E+00  6.26329E+00
   8.88109E+00 -5.53594E-01 -1.11364E+01 -2.27663E+01 -3.47756E+01 -4.40137E+01 -6.11868E+01 -6.48227E+01 -5.62191E+01 -8.48619E+01
  -7.14245E+01 -6.24592E+01 -6.27464E+01 -4.75571E+01 -4.33571E+01 -2.68748E+01 -6.52237E+01 -9.03283E+01 -7.37739E+01 -6.61538E+01
  -7.34567E+01 -7.13391E+01 -6.21350E+01 -5.67118E+01 -5.06215E+01 -5.61992E+01 -3.63886E+01 -3.27505E+01 -2.61409E+01 -3.62593E+01
  -4.98621E+01 -4.16103E+01 -4.74384E+01 -2.57111E+01 -3.55346E+01 -2.16301E+01 -1.96441E+01 -5.53104E+01 -4.61581E+01 -3.43763E+01
  -2.23068E+01 -3.93363E+01 -4.46574E+01 -3.23331E+01 -2.22570E+01 -2.75872E+01 -3.60750E+01 -3.14378E+01 -5.05233E+01 -4.06701E+01
  -3.27052E+01 -5.05599E+01 -6.26325E+01 -3.49988E+01 -4.28693E+01 -6.21071E+01 -2.77380E+01 -4.20802E+01 -3.34704E+01 -3.17376E+01
  -4.09852E+01 -3.26985E+01 -4.98682E+01 -5.00242E+01 -3.72488E+01 -1.93662E+01 -2.65502E+01 -2.84449E+01 -2.36177E+01 -2.43177E+01
  -3.75095E+01 -2.17448E+01 -2.44821E+01 -4.17036E+01 -1.22344E+01 -4.04924E+01 -2.94810E+01 -3.21744E+01 -2.74543E+01 -1.78685E+01
  -4.86073E+01 -1.00648E+01 -3.20830E+01 -1.36246E+01 -3.57201E+00 -3.76592E+01 -1.47123E+01 -1.35331E+01 -3.26373E+00 -5.29109E+00
   3.16236E+00  7.52118E-01 -1.03126E+01 -1.29498E+01 -3.36561E+01 -2.84534E+01 -2.29770E+01 -2.92510E+01 -2.91602E+01 -1.95051E+01
  -5.17097E+00 -1.72981E+01 -3.62981E+01 -3.93577E+01 -5.32661E+01 -4.58399E+01 -3.80949E+01 -4.12543E+01 -4.60424E+01 -5.83371E+01
  -5.18303E+01 -3.47830E+01 -2.70755E+01 -3.33023E+01 -2.58218E+01 -3.62919E+01 -3.20668E+01 -4.05948E+01 -4.60292E+01 -2.95704E+01
  -4.29234E+01 -2.16941E+01 -3.02798E+01 -1.93366E+01 -8.46403E+00 -9.60216E+00  1.70174E+01  2.04036E+01  4.53433E+01  5.27430E+01
   6.90960E+01  7.15966E+01  8.23300E+01  9.31845E+01  6.61637E+01  7.45669E+01  8.91018E+01  7.81445E+01  6.82360E+01  5.82409E+01
   2.16318E+00  2.81514E+01  8.06853E+01  7.91879E+01  8.17536E+01  6.41786E+01  7.28891E+01  6.36158E+01  6.04812E+01  5.54003E+01
   5.85357E+01  7.65738E+01  6.85624E+01  6.39457E+01  4.36588E+01  4.99798E+01  3.70324E+01  3.31035E+01  3.76939E+01  2.59465E+01
   4.62393E+01  2.53286E+01  1.87979E+01  2.50992E+01  2.20648E+01  2.74399E+01  1.16101E+01  2.31690E+01  2.90090E+01  2.87327E+01
   1.87867E+01 -3.85307E+00  2.92560E+01  4.83725E+01  3.03210E+01  2.53417E+01  2.71021E+01  3.15248E+01  4.05598E+01  4.14897E+01
   3.81529E+01  3.23044E+01  2.86541E+01  4.26480E+01  2.52120E+01  3.27498E+01  3.99848E+01  9.31047E+00  3.62951E+01  4.10408E+01
   1.92833E+01  1.83230E+01  1.40618E+01 -5.72991E+00 -2.08684E+01 -1.44370E+01 -1.30791E+01 -8.19963E-01 -7.03662E+00 -1.64875E+01
  -9.21890E+00 -5.30093E+00 -4.02270E+00 -3.24116E+00  1.18935E+01  6.91229E+00 -2.21980E+01 -2.11264E+01 -2.06343E+00 -8.35358E+00
  -7.44060E+00 -6.57061E+00 -6.26083E+00 -5.96667E+00 -6.46663E+00  1.18385E+01 -1.14231E+01 -2.81404E+01 -2.79573E+01 -3.10107E+01
  -1.07173E+01 -2.39058E+01 -3.11561E+01 -2.67416E+01 -3.60580E+01 -3.97852E+01 -5.86749E+01 -6.11129E+01 -5.64527E+01 -5.44704E+01
  -4.43303E+01 -5.35126E+01 -4.69544E+01 -3.07670E+01 -2.28206E+01 -1.70007E+01 -1.66712E+01  5.01480E+00  6.97943E+00 -6.51258E+00
   1.20194E+01  7.58460E+00  9.77454E-01  2.87467E+01  2.49925E+01  2.78374E+01  5.29392E+01  3.89850E+01  3.70922E+01  5.20596E+01
   5.62632E+01  7.55268E+01  6.85504E+01  4.25208E+01  4.68150E+01  6.22860E+01  6.93694E+01  6.07155E+01  7.28518E+01  8.00521E+01
   6.49049E+01  5.83060E+01  4.57479E+01  5.40431E+01  4.44674E+01  3.20603E+01  2.62760E+01  9.61418E+00  3.00666E+01  1.89741E+01
  -1.21009E+01 -3.59790E+00  3.20627E-02 -1.42011E+01 -1.41975E+01 -2.83755E+01 -4.69425E+01 -4.12189E+01 -4.80785E+01 -4.97834E+01
  -4.28114E+01 -5.62722E+01 -7.30645E+01 -4.17603E+01 -2.38642E+01 -3.71140E+01 -3.98990E+01 -4.62072E+01 -3.60126E+01 -4.60867E+01
  -4.48840E+01 -3.57851E+01 -4.05622E+01 -3.88930E+01 -4.82027E+01 -3.58599E+01 -2.44582E+01 -3.66296E+01 -4.82576E+01 -4.42571E+01
  -3.91900E+01 -3.97434E+01 -4.29600E+01 -3.49659E+01 -3.75626E+01 -4.34454E+01 -3.14539E+01 -4.76687E+01 -4.69267E+01 -4.34869E+01
  -2.98213E+01 -2.10334E+01 -3.38330E+01 -2.30232E+01 -4.65707E+01 -5.07697E+01 -3.53281E+01 -1.84266E+01 -9.93876E+00 -3.21940E+01
  -3.11575E+01 -2.81036E+01 -1.50888E+01 -9.48561E+00 -3.09101E+01 -3.04470E+01 -7.10788E+00 -1.95646E+01 -2.27850E+01 -1.22175E+01
  -3.43854E+01 -1.91494E+01 -2.26406E+01 -3.87351E+01 -2.60299E+01 -3.71953E+01 -3.51427E+01 -1.67451E+01 -2.54008E+01 -3.27917E+01
  -1.83961E+01 -3.09727E+01 -3.02748E+01 -1.71720E+01 -2.93510E+01 -4.02439E+01 -4.73526E+01 -3.35415E+01 -2.03264E+01 -1.14081E+01
 NY points of the fit to the data follow
  -2.30795E+01 -2.60210E+01 -2.48791E+01 -2.77383E+01 -2.63176E+01 -2.88279E+01 -2.69136E+01 -2.90988E+01 -2.61603E+01 -2.88048E+01
  -2.52758E+01 -2.86719E+01 -2.58420E+01 -2.93731E+01 -2.61638E+01 -2.89304E+01 -2.56665E+01 -2.80906E+01 -2.46061E+01 -2.75916E+01
  -2.46085E+01 -2.78616E+01 -2.26898E+01 -2.50988E+01 -1.83604E+01 -1.99887E+01 -1.39769E+01 -1.58598E+01 -1.40070E+01 -1.82198E+01
  -2.36084E+01 -2.87248E+01 -3.85560E+01 -4.43782E+01 -5.54701E+01 -6.00640E+01 -6.93866E+01 -7.22521E+01 -8.32616E+01 -8.39825E+01
  -9.09632E+01 -8.82681E+01 -8.88323E+01 -8.30419E+01 -7.66168E+01 -7.02458E+01 -6.03281E+01 -5.56381E+01 -4.77993E+01 -4.46090E+01
  -4.12830E+01 -3.87802E+01 -3.81861E+01 -3.51818E+01 -3.28386E+01 -3.39135E+01 -3.13419E+01 -3.01706E+01 -2.66059E+01 -2.57477E+01
  -2.38648E+01 -2.31199E+01 -2.28171E+01 -2.19358E+01 -2.28310E+01 -2.16945E+01 -2.33560E+01 -2.31891E+01 -2.35756E+01 -2.43385E+01
  -2.34404E+01 -2.41798E+01 -2.30839E+01 -2.06098E+01 -1.95497E+01 -1.66847E+01 -1.36101E+01 -1.25063E+01 -1.07061E+01 -1.06871E+01
  -1.02275E+01 -1.02492E+01 -9.93757E+00 -7.98217E+00 -6.76407E+00 -5.43553E+00 -3.32823E+00 -9.04422E-01  9.50071E-01  3.06821E+00
   5.10204E+00  6.78090E+00  8.22691E+00  8.87960E+00  9.65009E+00  9.39163E+00  9.85964E+00  9.25131E+00  1.01666E+01  6.65069E+00
   5.27781E+00 -6.27213E-01 -4.14549E+00 -1.15160E+01 -1.65972E+01 -2.45215E+01 -3.01640E+01 -3.75487E+01 -4.33636E+01 -4.87179E+01
  -5.50874E+01 -5.73184E+01 -6.31688E+01 -6.04852E+01 -6.16381E+01 -5.56311E+01 -5.02981E+01 -4.45670E+01 -3.89718E+01 -3.44419E+01
  -3.13683E+01 -2.73660E+01 -2.74277E+01 -1.97123E+01 -1.47679E+01 -1.09038E+01 -8.80444E+00 -8.24742E+00 -7.91936E+00 -1.04793E+01
  -1.12698E+01 -1.64252E+01 -1.81085E+01 -2.53001E+01 -2.79911E+01 -3.65901E+01 -3.93368E+01 -4.60193E+01 -4.80108E+01 -5.00800E+01
  -5.21402E+01 -5.18561E+01 -5.53957E+01 -5.65012E+01 -6.18200E+01 -6.49140E+01 -6.72403E+01 -6.47576E+01 -6.54090E+01 -6.34041E+01
  -6.27740E+01 -6.14822E+01 -6.13182E+01 -5.97833E+01 -5.97955E+01 -5.78617E+01 -5.72303E+01 -5.58237E+01 -5.45440E+01 -5.34763E+01
  -5.21816E+01 -5.12609E+01 -4.95140E+01 -4.84622E+01 -4.66192E+01 -4.56815E+01 -4.38764E+01 -4.27510E+01 -4.10202E+01 -3.99982E+01
  -3.86618E+01 -3.77577E+01 -3.68657E+01 -3.63559E+01 -3.63832E+01 -3.67125E+01 -3.76935E+01 -3.85059E+01 -3.97731E+01 -4.07576E+01
  -4.13542E+01 -4.21404E+01 -4.20231E+01 -4.20402E+01 -4.15728E+01 -4.04590E+01 -3.99658E+01 -3.74382E+01 -3.56072E+01 -3.26168E+01
  -3.09888E+01 -2.90150E+01 -2.81426E+01 -2.54176E+01 -2.49072E+01 -2.27576E+01 -2.24075E+01 -2.20179E+01 -2.13539E+01 -2.27078E+01
  -2.22084E+01 -2.39942E+01 -2.50446E+01 -2.63541E+01 -2.87168E+01 -3.05225E+01 -3.12335E+01 -3.34827E+01 -3.26006E+01 -3.36584E+01
  -3.10691E+01 -2.92148E+01 -2.60373E+01 -2.09833E+01 -1.67158E+01 -9.07044E+00 -5.17688E+00  2.92717E+00  3.76013E+00  1.14934E+01
   7.17869E+00  1.15002E+01  3.82567E+00  2.61195E+00 -4.77109E+00 -9.82019E+00 -1.54164E+01 -2.12556E+01 -2.70552E+01 -3.24549E+01
  -3.92045E+01 -4.65368E+01 -4.98279E+01 -5.84786E+01 -5.76001E+01 -6.40113E+01 -5.98514E+01 -6.43487E+01 -5.80786E+01 -6.03780E+01
  -5.43261E+01 -5.39785E+01 -5.07596E+01 -4.76206E+01 -4.66694E+01 -4.24974E+01 -4.27574E+01 -3.93292E+01 -3.58413E+01 -3.25098E+01
  -2.59764E+01 -2.21029E+01 -1.26496E+01 -9.26603E+00  4.00704E+00  6.05249E+00  2.28098E+01  2.25731E+01  4.06065E+01  3.82462E+01
   5.44567E+01  5.21538E+01  6.22843E+01  6.09440E+01  6.39287E+01  6.18931E+01  6.43180E+01  6.02022E+01  6.28671E+01  5.99171E+01
   6.66774E+01  6.52846E+01  6.39946E+01  6.20527E+01  6.08653E+01  5.93330E+01  5.80895E+01  5.66102E+01  5.51703E+01  5.33782E+01
   5.17157E+01  4.95682E+01  4.76418E+01  4.53150E+01  4.30905E+01  4.08365E+01  3.83853E+01  3.62852E+01  3.39434E+01  3.20819E+01
   3.00585E+01  2.87354E+01  2.73319E+01  2.67568E+01  2.61665E+01  2.63328E+01  2.66235E+01  2.74759E+01  2.83517E+01  2.96377E+01
   3.08495E+01  3.23801E+01  3.39043E+01  3.55825E+01  3.74064E+01  3.92625E+01  4.12681E+01  4.31371E+01  4.51199E+01  4.68024E+01
   4.84588E+01  4.98154E+01  5.03818E+01  5.06009E+01  4.98957E+01  4.80065E+01  4.62148E+01  4.21318E+01  3.93732E+01  3.31143E+01
   2.95735E+01  2.15084E+01  1.77757E+01  8.71706E+00  5.65264E+00 -3.20060E+00 -4.50029E+00 -1.11843E+01 -1.03414E+01 -1.31373E+01
  -1.11186E+01 -1.03169E+01 -9.32946E+00 -7.55237E+00 -8.09238E+00 -7.12554E+00 -7.75423E+00 -6.41340E+00 -8.65478E+00 -6.68121E+00
  -1.11112E+01 -1.09501E+01 -1.66243E+01 -1.81019E+01 -2.38933E+01 -2.67746E+01 -3.06260E+01 -3.34586E+01 -3.39823E+01 -3.46314E+01
  -3.39094E+01 -3.27221E+01 -3.35021E+01 -3.29261E+01 -3.51962E+01 -3.59049E+01 -3.50615E+01 -3.43611E+01 -3.12645E+01 -2.79714E+01
  -2.53123E+01 -2.23265E+01 -1.97813E+01 -1.67729E+01 -1.41384E+01 -1.08383E+01 -7.79159E+00 -4.12875E+00 -6.46135E-01  3.55828E+00
   7.48788E+00  1.23534E+01  1.67780E+01  2.22348E+01  2.71083E+01  3.28216E+01  3.77898E+01  4.32447E+01  4.76895E+01  5.23348E+01
   5.56106E+01  5.88820E+01  6.05055E+01  6.19963E+01  6.15901E+01  6.09570E+01  5.84376E+01  5.56304E+01  5.14423E+01  4.70369E+01
   4.19645E+01  3.67274E+01  3.16066E+01  2.60848E+01  2.09646E+01  1.51630E+01  9.89200E+00  3.90056E+00 -1.22945E+00 -6.80045E+00
  -1.09910E+01 -1.53769E+01 -1.83678E+01 -2.16306E+01 -2.37809E+01 -2.62414E+01 -2.80144E+01 -2.99427E+01 -3.13031E+01 -3.26498E+01
  -3.35802E+01 -3.43732E+01 -3.48354E+01 -3.52938E+01 -3.54997E+01 -3.57357E+01 -3.57664E+01 -3.59159E+01 -3.58499E+01 -3.59322E+01
  -3.57749E+01 -3.57705E+01 -3.55854E+01 -3.54929E+01 -3.53877E+01 -3.51715E+01 -3.50899E+01 -3.48006E+01 -3.47751E+01 -3.44037E+01
  -3.43349E+01 -3.39916E+01 -3.39715E+01 -3.36256E+01 -3.35317E+01 -3.32347E+01 -3.30663E+01 -3.28192E+01 -3.25547E+01 -3.24011E+01
  -3.21450E+01 -3.20550E+01 -3.18034E+01 -3.16950E+01 -3.14125E+01 -3.12958E+01 -3.09460E+01 -3.08743E+01 -3.04548E+01 -3.04596E+01
  -2.99746E+01 -3.00885E+01 -2.95370E+01 -2.97370E+01 -2.91811E+01 -2.93576E+01 -2.88164E+01 -2.89757E+01 -2.84809E+01 -2.86937E+01
  -2.82306E+01 -2.84568E+01 -2.80563E+01 -2.82392E+01 -2.78825E+01 -2.80977E+01 -2.77765E+01 -2.80585E+01 -2.77892E+01 -2.81449E+01
  -2.79557E+01 -2.83587E+01 -2.82487E+01 -2.86123E+01 -2.84785E+01 -2.88148E+01 -2.86511E+01 -2.89990E+01 -2.88485E+01 -2.92364E+01
 NY background values follow
     8.317E+00    7.543E+00    6.766E+00    5.988E+00    5.209E+00    4.430E+00    3.651E+00    2.872E+00    2.095E+00    1.319E+00
     5.445E-01   -2.272E-01   -9.961E-01   -1.762E+00   -2.524E+00   -3.281E+00   -4.034E+00   -4.782E+00   -5.524E+00   -6.260E+00
    -6.990E+00   -7.713E+00   -8.428E+00   -9.136E+00   -9.835E+00   -1.053E+01   -1.121E+01   -1.188E+01   -1.254E+01   -1.319E+01
    -1.383E+01   -1.446E+01   -1.507E+01   -1.568E+01   -1.627E+01   -1.684E+01   -1.741E+01   -1.796E+01   -1.850E+01   -1.902E+01
    -1.953E+01   -2.003E+01   -2.051E+01   -2.098E+01   -2.144E+01   -2.188E+01   -2.231E+01   -2.273E+01   -2.314E+01   -2.353E+01
    -2.391E+01   -2.427E+01   -2.463E+01   -2.497E+01   -2.529E+01   -2.561E+01   -2.591E+01   -2.620E+01   -2.647E+01   -2.674E+01
    -2.699E+01   -2.723E+01   -2.745E+01   -2.767E+01   -2.787E+01   -2.805E+01   -2.823E+01   -2.839E+01   -2.854E+01   -2.868E+01
    -2.881E+01   -2.892E+01   -2.902E+01   -2.911E+01   -2.919E+01   -2.926E+01   -2.931E+01   -2.936E+01   -2.939E+01   -2.941E+01
    -2.943E+01   -2.943E+01   -2.942E+01   -2.940E+01   -2.937E+01   -2.933E+01   -2.928E+01   -2.923E+01   -2.916E+01   -2.908E+01
    -2.900E+01   -2.891E+01   -2.880E+01   -2.869E+01   -2.857E+01   -2.845E+01   -2.831E+01   -2.817E+01   -2.802E+01   -2.786E+01
    -2.769E+01   -2.752E+01   -2.734E+01   -2.716E+01   -2.696E+01   -2.676E+01   -2.656E+01   -2.635E+01   -2.613E+01   -2.591E+01
    -2.568E+01   -2.545E+01   -2.521E+01   -2.497E+01   -2.472E+01   -2.447E+01   -2.421E+01   -2.395E+01   -2.369E+01   -2.342E+01
    -2.315E+01   -2.288E+01   -2.261E+01   -2.233E+01   -2.205E+01   -2.177E+01   -2.148E+01   -2.119E+01   -2.091E+01   -2.062E+01
    -2.033E+01   -2.004E+01   -1.975E+01   -1.945E+01   -1.916E+01   -1.887E+01   -1.858E+01   -1.828E+01   -1.799E+01   -1.770E+01
    -1.741E+01   -1.712E+01   -1.684E+01   -1.655E+01   -1.627E+01   -1.598E+01   -1.570E+01   -1.542E+01   -1.514E+01   -1.486E+01
    -1.458E+01   -1.431E+01   -1.404E+01   -1.377E+01   -1.350E+01   -1.324E+01   -1.298E+01   -1.272E+01   -1.246E+01   -1.221E+01
    -1.195E+01   -1.171E+01   -1.146E+01   -1.122E+01   -1.098E+01   -1.075E+01   -1.052E+01   -1.029E+01   -1.006E+01   -9.844E+00
    -9.628E+00   -9.416E+00   -9.208E+00   -9.005E+00   -8.806E+00   -8.610E+00   -8.419E+00   -8.231E+00   -8.047E+00   -7.867E+00
    -7.690E+00   -7.517E+00   -7.348E+00   -7.182E+00   -7.019E+00   -6.859E+00   -6.703E+00   -6.549E+00   -6.399E+00   -6.251E+00
    -6.106E+00   -5.965E+00   -5.825E+00   -5.689E+00   -5.555E+00   -5.423E+00   -5.294E+00   -5.167E+00   -5.042E+00   -4.919E+00
    -4.799E+00   -4.680E+00   -4.564E+00   -4.449E+00   -4.336E+00   -4.225E+00   -4.115E+00   -4.007E+00   -3.901E+00   -3.797E+00
    -3.696E+00   -3.597E+00   -3.500E+00   -3.406E+00   -3.316E+00   -3.228E+00   -3.144E+00   -3.064E+00   -2.988E+00   -2.915E+00
    -2.847E+00   -2.783E+00   -2.723E+00   -2.669E+00   -2.619E+00   -2.574E+00   -2.535E+00   -2.501E+00   -2.473E+00   -2.451E+00
    -2.434E+00   -2.424E+00   -2.421E+00   -2.424E+00   -2.434E+00   -2.451E+00   -2.475E+00   -2.506E+00   -2.545E+00   -2.592E+00
    -2.647E+00   -2.710E+00   -2.780E+00   -2.859E+00   -2.945E+00   -3.039E+00   -3.141E+00   -3.249E+00   -3.366E+00   -3.489E+00
    -3.620E+00   -3.758E+00   -3.903E+00   -4.055E+00   -4.214E+00   -4.379E+00   -4.551E+00   -4.730E+00   -4.916E+00   -5.107E+00
    -5.305E+00   -5.510E+00   -5.720E+00   -5.937E+00   -6.159E+00   -6.388E+00   -6.622E+00   -6.862E+00   -7.107E+00   -7.358E+00
    -7.615E+00   -7.877E+00   -8.144E+00   -8.416E+00   -8.694E+00   -8.976E+00   -9.263E+00   -9.554E+00   -9.850E+00   -1.015E+01
    -1.045E+01   -1.076E+01   -1.106E+01   -1.137E+01   -1.168E+01   -1.200E+01   -1.231E+01   -1.263E+01   -1.294E+01   -1.326E+01
    -1.358E+01   -1.389E+01   -1.421E+01   -1.452E+01   -1.483E+01   -1.515E+01   -1.545E+01   -1.576E+01   -1.606E+01   -1.637E+01
    -1.666E+01   -1.696E+01   -1.724E+01   -1.753E+01   -1.781E+01   -1.808E+01   -1.835E+01   -1.862E+01   -1.888E+01   -1.913E+01
    -1.937E+01   -1.961E+01   -1.984E+01   -2.007E+01   -2.029E+01   -2.050E+01   -2.071E+01   -2.091E+01   -2.111E+01   -2.129E+01
    -2.148E+01   -2.165E+01   -2.183E+01   -2.199E+01   -2.215E+01   -2.230E+01   -2.245E+01   -2.259E+01   -2.273E+01   -2.286E+01
    -2.299E+01   -2.310E+01   -2.322E+01   -2.333E+01   -2.343E+01   -2.353E+01   -2.362E+01   -2.370E+01   -2.379E+01   -2.386E+01
    -2.393E+01   -2.400E+01   -2.406E+01   -2.411E+01   -2.416E+01   -2.421E+01   -2.425E+01   -2.428E+01   -2.431E+01   -2.434E+01
    -2.436E+01   -2.438E+01   -2.439E+01   -2.440E+01   -2.440E+01   -2.440E+01   -2.440E+01   -2.439E+01   -2.438E+01   -2.436E+01
    -2.435E+01   -2.433E+01   -2.430E+01   -2.427E+01   -2.424E+01   -2.421E+01   -2.417E+01   -2.413E+01   -2.409E+01   -2.405E+01
    -2.400E+01   -2.395E+01   -2.390E+01   -2.384E+01   -2.379E+01   -2.373E+01   -2.367E+01   -2.361E+01   -2.355E+01   -2.348E+01
    -2.341E+01   -2.335E+01   -2.328E+01   -2.320E+01   -2.313E+01   -2.306E+01   -2.298E+01   -2.290E+01   -2.282E+01   -2.274E+01
    -2.265E+01   -2.257E+01   -2.248E+01   -2.239E+01   -2.230E+01   -2.220E+01   -2.211E+01   -2.201E+01   -2.191E+01   -2.181E+01
    -2.171E+01   -2.161E+01   -2.150E+01   -2.139E+01   -2.128E+01   -2.117E+01   -2.106E+01   -2.094E+01   -2.082E+01   -2.070E+01
    -2.058E+01   -2.046E+01   -2.033E+01   -2.020E+01   -2.008E+01   -1.994E+01   -1.981E+01   -1.968E+01   -1.954E+01   -1.940E+01
    -1.926E+01   -1.911E+01   -1.897E+01   -1.882E+01   -1.867E+01   -1.852E+01   -1.837E+01   -1.821E+01   -1.805E+01   -1.789E+01
    -1.773E+01   -1.757E+01   -1.740E+01   -1.723E+01   -1.706E+01   -1.689E+01   -1.671E+01   -1.654E+01   -1.636E+01   -1.617E+01
    -1.599E+01   -1.580E+01   -1.561E+01   -1.542E+01   -1.523E+01   -1.503E+01   -1.484E+01   -1.464E+01   -1.443E+01   -1.423E+01
    -1.402E+01   -1.382E+01   -1.361E+01   -1.340E+01   -1.318E+01   -1.297E+01   -1.275E+01   -1.254E+01   -1.232E+01   -1.210E+01
    -1.188E+01   -1.166E+01   -1.144E+01   -1.122E+01   -1.099E+01   -1.077E+01   -1.054E+01   -1.032E+01   -1.010E+01   -9.872E+00
    -9.647E+00   -9.423E+00   -9.199E+00   -8.975E+00   -8.751E+00   -8.528E+00   -8.305E+00   -8.083E+00   -7.862E+00   -7.641E+00
 Mac      Conc. = 2.69E-04
  -1.10091E+01 -1.26905E+01 -1.42349E+01 -1.59921E+01 -1.76430E+01 -1.94616E+01 -2.10068E+01 -2.26817E+01 -2.39372E+01 -2.52860E+01
  -2.60743E+01 -2.69203E+01 -2.72626E+01 -2.76595E+01 -2.76360E+01 -2.75857E+01 -2.71497E+01 -2.66070E+01 -2.57390E+01 -2.47967E+01
  -2.38231E+01 -2.28506E+01 -2.22117E+01 -2.14821E+01 -2.10539E+01 -2.04796E+01 -1.98681E+01 -1.91636E+01 -1.83105E+01 -1.77162E+01
  -1.72205E+01 -1.67590E+01 -1.63860E+01 -1.61384E+01 -1.58207E+01 -1.55523E+01 -1.51488E+01 -1.49140E+01 -1.45513E+01 -1.44906E+01
  -1.44001E+01 -1.46714E+01 -1.48113E+01 -1.53185E+01 -1.56286E+01 -1.61701E+01 -1.65530E+01 -1.70400E+01 -1.75183E+01 -1.80194E+01
  -1.85573E+01 -1.89029E+01 -1.91403E+01 -1.92442E+01 -1.92888E+01 -1.93216E+01 -1.94011E+01 -1.94285E+01 -1.95428E+01 -1.95143E+01
  -1.96484E+01 -1.95647E+01 -1.96300E+01 -1.95560E+01 -1.94376E+01 -1.93314E+01 -1.89610E+01 -1.87206E+01 -1.81316E+01 -1.78627E+01
  -1.72533E+01 -1.69698E+01 -1.65035E+01 -1.64555E+01 -1.61479E+01 -1.62458E+01 -1.60507E+01 -1.60386E+01 -1.58527E+01 -1.55805E+01
  -1.52101E+01 -1.46593E+01 -1.41669E+01 -1.37636E+01 -1.33132E+01 -1.30927E+01 -1.28291E+01 -1.28327E+01 -1.27995E+01 -1.30986E+01
  -1.32975E+01 -1.39984E+01 -1.45681E+01 -1.57148E+01 -1.68393E+01 -1.85570E+01 -2.03014E+01 -2.24361E+01 -2.45879E+01 -2.69411E+01
  -2.92375E+01 -3.15598E+01 -3.38378E+01 -3.59542E+01 -3.79465E+01 -3.95989E+01 -4.09085E+01 -4.16884E+01 -4.19075E+01 -4.16273E+01
