 
 $NMID
 ID=''
 FMTDAT='(2E13.5)'
 TRAMP=   1.00000E+0
 VOLUME=   1.00000E+0
 $END
  -3.24595E+5   6.60289E+5
  -1.46459E+6   1.39768E+6
  -1.25263E+6   1.52717E+6
  -1.24451E+6   1.33194E+6
  -1.37257E+6   1.34996E+6
  -1.30422E+6   1.40795E+6
  -1.26599E+6   1.33433E+6
  -1.33141E+6   1.31597E+6
  -1.32076E+6   1.32112E+6
  -1.32204E+6   1.27033E+6
  -1.35238E+6   1.24706E+6
  -1.34401E+6   1.22422E+6
  -1.35567E+6   1.18388E+6
  -1.37961E+6   1.16717E+6
  -1.37320E+6   1.13299E+6
  -1.38290E+6   1.09197E+6
  -1.40252E+6   1.08355E+6
  -1.40046E+6   1.05804E+6
  -1.40977E+6   1.02141E+6
  -1.41694E+6   1.01604E+6
  -1.41224E+6   9.95201E+5
  -1.42154E+6   9.62700E+5
  -1.43114E+6   9.47321E+5
  -1.43027E+6   9.24762E+5
  -1.43809E+6   8.93239E+5
  -1.43963E+6   8.80190E+5
  -1.44174E+6   8.55011E+5
  -1.45223E+6   8.22888E+5
  -1.45534E+6   7.98354E+5
  -1.45186E+6   7.76843E+5
  -1.45968E+6   7.52919E+5
  -1.45916E+6   7.35598E+5
  -1.45612E+6   7.13225E+5
  -1.45898E+6   6.93672E+5
  -1.45437E+6   6.79787E+5
  -1.44886E+6   6.66993E+5
  -1.45307E+6   6.53454E+5
  -1.45335E+6   6.36317E+5
  -1.44659E+6   6.15303E+5
  -1.44587E+6   5.98012E+5
  -1.44426E+6   5.79793E+5
  -1.43878E+6   5.57813E+5
  -1.43428E+6   5.39803E+5
  -1.43179E+6   5.22952E+5
  -1.42880E+6   5.01185E+5
  -1.42689E+6   4.81167E+5
  -1.42362E+6   4.63392E+5
  -1.41876E+6   4.42401E+5
  -1.41199E+6   4.22908E+5
  -1.40622E+6   4.07610E+5
  -1.40141E+6   3.92252E+5
  -1.39704E+6   3.75900E+5
  -1.39196E+6   3.60513E+5
  -1.38662E+6   3.44279E+5
  -1.38095E+6   3.26893E+5
  -1.37545E+6   3.09160E+5
  -1.36880E+6   2.90414E+5
  -1.36002E+6   2.72331E+5
  -1.35179E+6   2.56614E+5
  -1.34613E+6   2.40846E+5
  -1.34021E+6   2.23063E+5
  -1.33256E+6   2.05783E+5
  -1.32569E+6   1.89566E+5
  -1.31823E+6   1.72536E+5
  -1.30876E+6   1.55704E+5
  -1.29845E+6   1.41148E+5
  -1.28915E+6   1.27395E+5
  -1.28043E+6   1.13168E+5
  -1.27311E+6   9.86746E+4
  -1.26559E+6   8.27042E+4
  -1.25584E+6   6.67248E+4
  -1.24604E+6   5.19237E+4
  -1.23748E+6   3.86948E+4
  -1.22946E+6   2.37267E+4
  -1.21925E+6   8.36686E+3
  -1.20888E+6  -5.44686E+3
  -1.19940E+6  -1.86914E+4
  -1.19007E+6  -3.22183E+4
  -1.17997E+6  -4.61174E+4
  -1.16916E+6  -5.98396E+4
  -1.15834E+6  -7.29428E+4
  -1.14771E+6  -8.51853E+4
  -1.13755E+6  -9.79015E+4
  -1.12697E+6  -1.12175E+5
  -1.11511E+6  -1.26307E+5
  -1.10394E+6  -1.38763E+5
  -1.09306E+6  -1.50855E+5
  -1.08225E+6  -1.64060E+5
  -1.07073E+6  -1.76709E+5
  -1.05908E+6  -1.87390E+5
  -1.04790E+6  -1.97570E+5
  -1.03742E+6  -2.08235E+5
  -1.02657E+6  -2.19475E+5
  -1.01464E+6  -2.29459E+5
  -1.00228E+6  -2.38167E+5
  -9.91471E+5  -2.46207E+5
  -9.81314E+5  -2.54705E+5
  -9.70771E+5  -2.64027E+5
  -9.59610E+5  -2.72936E+5
  -9.48521E+5  -2.80812E+5
  -9.38436E+5  -2.89231E+5
  -9.27474E+5  -2.98900E+5
  -9.14774E+5  -3.07640E+5
  -9.02291E+5  -3.15165E+5
  -8.91623E+5  -3.21542E+5
  -8.81524E+5  -3.28507E+5
  -8.71188E+5  -3.35713E+5
  -8.59282E+5  -3.43635E+5
  -8.47377E+5  -3.49523E+5
  -8.36182E+5  -3.54410E+5
  -8.26771E+5  -3.59719E+5
  -8.16574E+5  -3.66788E+5
  -8.05451E+5  -3.74094E+5
  -7.93807E+5  -3.80221E+5
  -7.82773E+5  -3.86272E+5
  -7.72117E+5  -3.92676E+5
  -7.60409E+5  -3.99287E+5
  -7.48188E+5  -4.04580E+5
  -7.36693E+5  -4.08307E+5
  -7.26363E+5  -4.12265E+5
  -7.16874E+5  -4.17329E+5
  -7.06503E+5  -4.22243E+5
  -6.96075E+5  -4.26675E+5
  -6.85343E+5  -4.31681E+5
  -6.74745E+5  -4.36210E+5
  -6.63171E+5  -4.40055E+5
  -6.52221E+5  -4.43377E+5
  -6.41590E+5  -4.47600E+5
  -6.31249E+5  -4.51623E+5
  -6.20308E+5  -4.56254E+5
  -6.08804E+5  -4.61318E+5
  -5.96720E+5  -4.65844E+5
  -5.85256E+5  -4.69264E+5
  -5.74878E+5  -4.72629E+5
  -5.63744E+5  -4.76553E+5
  -5.52311E+5  -4.79921E+5
  -5.41606E+5  -4.82500E+5
  -5.31547E+5  -4.85363E+5
  -5.21254E+5  -4.88584E+5
  -5.10173E+5  -4.92102E+5
  -4.98791E+5  -4.94176E+5
  -4.88268E+5  -4.95539E+5
  -4.78586E+5  -4.97290E+5
  -4.69043E+5  -4.99801E+5
  -4.58446E+5  -5.02860E+5
  -4.47347E+5  -5.04626E+5
  -4.36589E+5  -5.05689E+5
  -4.25796E+5  -5.07416E+5
  -4.15488E+5  -5.08396E+5
  -4.06003E+5  -5.09525E+5
  -3.96065E+5  -5.10042E+5
  -3.86382E+5  -5.10810E+5
  -3.77602E+5  -5.11348E+5
  -3.68460E+5  -5.12309E+5
  -3.58715E+5  -5.12977E+5
  -3.49405E+5  -5.12659E+5
  -3.40817E+5  -5.12129E+5
  -3.32245E+5  -5.12302E+5
  -3.23430E+5  -5.12174E+5
  -3.14718E+5  -5.11625E+5
  -3.06344E+5  -5.11109E+5
  -2.97525E+5  -5.10544E+5
  -2.88834E+5  -5.09811E+5
  -2.80080E+5  -5.08291E+5
  -2.72033E+5  -5.07030E+5
  -2.64781E+5  -5.05641E+5
  -2.56804E+5  -5.05073E+5
  -2.48880E+5  -5.04430E+5
  -2.40756E+5  -5.02877E+5
  -2.33479E+5  -5.01140E+5
  -2.26381E+5  -4.99649E+5
  -2.18981E+5  -4.98264E+5
  -2.11784E+5  -4.96423E+5
  -2.04502E+5  -4.94480E+5
  -1.96995E+5  -4.92627E+5
  -1.90190E+5  -4.91005E+5
  -1.83119E+5  -4.89515E+5
  -1.75345E+5  -4.87394E+5
  -1.67870E+5  -4.85079E+5
  -1.61584E+5  -4.82833E+5
  -1.55047E+5  -4.80946E+5
  -1.47961E+5  -4.79413E+5
  -1.40942E+5  -4.77063E+5
  -1.34111E+5  -4.74463E+5
  -1.27831E+5  -4.72160E+5
  -1.21695E+5  -4.69568E+5
  -1.15277E+5  -4.67062E+5
  -1.08950E+5  -4.63970E+5
  -1.03677E+5  -4.61285E+5
  -9.83424E+4  -4.59252E+5
  -9.19335E+4  -4.57430E+5
  -8.49446E+4  -4.54908E+5
  -7.84247E+4  -4.51819E+5
  -7.25376E+4  -4.48736E+5
  -6.66121E+4  -4.45927E+5
  -6.10330E+4  -4.43124E+5
  -5.49331E+4  -4.40455E+5
  -4.89375E+4  -4.37275E+5
  -4.28417E+4  -4.34397E+5
  -3.69513E+4  -4.31529E+5
  -3.07865E+4  -4.28244E+5
  -2.52139E+4  -4.24628E+5
  -2.00983E+4  -4.20782E+5
  -1.48681E+4  -4.17741E+5
  -9.44076E+3  -4.14965E+5
  -3.85122E+3  -4.11723E+5
   1.58100E+3  -4.07874E+5
   6.63959E+3  -4.04030E+5
   1.12955E+4  -4.00984E+5
   1.66360E+4  -3.96836E+5
   2.19716E+4  -3.93195E+5
   2.67599E+4  -3.88952E+5
   3.10165E+4  -3.86033E+5
   3.56379E+4  -3.82659E+5
   4.10911E+4  -3.78459E+5
   4.58591E+4  -3.74180E+5
   4.98534E+4  -3.69659E+5
   5.34607E+4  -3.65440E+5
   5.75176E+4  -3.61954E+5
   6.17220E+4  -3.58165E+5
   6.53544E+4  -3.54108E+5
   6.90147E+4  -3.49891E+5
   7.26432E+4  -3.46203E+5
   7.65683E+4  -3.42117E+5
   8.02139E+4  -3.37506E+5
   8.30411E+4  -3.33232E+5
   8.58446E+4  -3.29180E+5
   8.88230E+4  -3.25928E+5
   9.23190E+4  -3.22016E+5
   9.57309E+4  -3.17687E+5
   9.84496E+4  -3.12828E+5
   1.00781E+5  -3.08986E+5
   1.03108E+5  -3.05235E+5
   1.05915E+5  -3.01401E+5
   1.07994E+5  -2.97370E+5
   1.10087E+5  -2.93617E+5
   1.12141E+5  -2.89961E+5
   1.14399E+5  -2.86191E+5
   1.16570E+5  -2.81924E+5
   1.18177E+5  -2.78217E+5
   1.19827E+5  -2.74451E+5
   1.21400E+5  -2.70984E+5
   1.23561E+5  -2.67118E+5
   1.25137E+5  -2.63358E+5
   1.26716E+5  -2.59175E+5
   1.28145E+5  -2.55940E+5
   1.29458E+5  -2.52210E+5
   1.31099E+5  -2.48467E+5
   1.32212E+5  -2.44316E+5
   1.33205E+5  -2.41095E+5
   1.34267E+5  -2.38210E+5
   1.35750E+5  -2.34945E+5
   1.37145E+5  -2.30903E+5
   1.37936E+5  -2.27034E+5
   1.38639E+5  -2.23643E+5
   1.39712E+5  -2.20720E+5
   1.40952E+5  -2.17199E+5
   1.41775E+5  -2.13638E+5
   1.43006E+5  -2.09965E+5
   1.43879E+5  -2.06642E+5
   1.44818E+5  -2.03012E+5
   1.46081E+5  -1.99234E+5
   1.46774E+5  -1.95349E+5
   1.46992E+5  -1.92119E+5
   1.47450E+5  -1.89376E+5
   1.48829E+5  -1.86157E+5
   1.49625E+5  -1.82706E+5
   1.50080E+5  -1.79090E+5
   1.50462E+5  -1.75629E+5
   1.50621E+5  -1.72369E+5
   1.51255E+5  -1.69284E+5
   1.51861E+5  -1.65857E+5
   1.51918E+5  -1.62536E+5
   1.52354E+5  -1.59513E+5
   1.53117E+5  -1.56390E+5
   1.53679E+5  -1.53055E+5
   1.53606E+5  -1.49478E+5
   1.53636E+5  -1.46100E+5
   1.53826E+5  -1.43420E+5
   1.54028E+5  -1.40463E+5
   1.54505E+5  -1.37078E+5
   1.54460E+5  -1.34063E+5
   1.54336E+5  -1.31238E+5
   1.54416E+5  -1.28266E+5
   1.54270E+5  -1.25059E+5
   1.54313E+5  -1.21792E+5
   1.53885E+5  -1.18911E+5
   1.53166E+5  -1.16632E+5
   1.53167E+5  -1.14301E+5
   1.53293E+5  -1.11135E+5
   1.53256E+5  -1.08155E+5
   1.52429E+5  -1.05219E+5
   1.51945E+5  -1.02873E+5
   1.51519E+5  -1.00092E+5
   1.51333E+5  -9.74125E+4
   1.50672E+5  -9.47520E+4
   1.50258E+5  -9.24733E+4
   1.49760E+5  -9.01244E+4
   1.49468E+5  -8.72308E+4
   1.48924E+5  -8.46578E+4
   1.47777E+5  -8.21573E+4
   1.47151E+5  -8.01569E+4
   1.46905E+5  -7.80164E+4
   1.46467E+5  -7.55276E+4
   1.45652E+5  -7.28425E+4
   1.44352E+5  -7.06395E+4
   1.43803E+5  -6.85777E+4
   1.43133E+5  -6.63900E+4
   1.42445E+5  -6.40549E+4
   1.41528E+5  -6.17875E+4
   1.40715E+5  -5.97682E+4
   1.39487E+5  -5.78528E+4
   1.39090E+5  -5.58635E+4
   1.38129E+5  -5.33820E+4
   1.37176E+5  -5.16642E+4
   1.36369E+5  -4.95179E+4
   1.35270E+5  -4.76317E+4
   1.34657E+5  -4.58165E+4
   1.33589E+5  -4.38946E+4
   1.32196E+5  -4.17877E+4
   1.31362E+5  -4.02243E+4
   1.30641E+5  -3.83790E+4
   1.29581E+5  -3.62749E+4
   1.28482E+5  -3.44599E+4
   1.27210E+5  -3.29544E+4
   1.26530E+5  -3.13933E+4
   1.25989E+5  -2.94923E+4
   1.24635E+5  -2.75631E+4
   1.23443E+5  -2.56127E+4
   1.22241E+5  -2.42656E+4
   1.21275E+5  -2.25619E+4
   1.20251E+5  -2.11246E+4
   1.19005E+5  -1.94220E+4
   1.17947E+5  -1.80431E+4
   1.17181E+5  -1.66636E+4
   1.16128E+5  -1.48045E+4
   1.15336E+5  -1.31190E+4
   1.13924E+5  -1.15100E+4
   1.12375E+5  -1.03223E+4
   1.11351E+5  -9.23602E+3
   1.10600E+5  -8.02894E+3
   1.09465E+5  -6.09094E+3
   1.08211E+5  -4.70287E+3
   1.06898E+5  -3.50862E+3
   1.05938E+5  -1.93879E+3
   1.04852E+5  -8.30081E+2
   1.03436E+5   3.28440E+2
   1.02371E+5   1.45830E+3
   1.01113E+5   2.51658E+3
   1.00445E+5   3.60409E+3
   9.94266E+4   5.21605E+3
   9.79998E+4   6.28464E+3
   9.66407E+4   7.44523E+3
   9.55392E+4   8.14120E+3
   9.45737E+4   9.34204E+3
   9.33030E+4   1.03104E+4
   9.21445E+4   1.13860E+4
   9.12095E+4   1.23517E+4
   8.99502E+4   1.32208E+4
   8.89608E+4   1.41435E+4
   8.78414E+4   1.53966E+4
   8.62661E+4   1.60645E+4
   8.50364E+4   1.65056E+4
   8.41980E+4   1.74816E+4
   8.31445E+4   1.84057E+4
   8.21524E+4   1.94739E+4
   8.09181E+4   2.00970E+4
