 LCModel (Version 6.3-1N) Copyright: S.W. Provencher.          Ref.: Magn. Reson. Med. 30:672-679 (1993).                
 Slice_N1@22_19  28-Feb-2025 11:43:00
 27 lines in following concentration table = NCONC+1
    Conc.  %SD /Cr+PCr  Metabolite                                         
 2.62E-04   4% 2.9E-04 Mac                                                 
    7.193  10%   8.000 Cr                                                  
    0.000 999%   0.000 PCr                                                 
    5.463  17%   6.076 Ins                                                 
    5.470  17%   6.084 NAA                                                 
    3.617  30%   4.023 Tau                                                 
    2.345  11%   2.608 PCho                                                
    0.000 999%   0.000 GPC                                                 
    7.002  15%   7.788 Glu                                                 
    3.517  23%   3.912 Gln                                                 
    0.000 999%   0.000 Ala                                                 
    1.820  69%   2.024 Asc                                                 
    1.743  51%   1.938 Asp                                                 
    0.360 138%   0.400 GABA                                                
    0.548 109%   0.610 Glc                                                 
    1.659  31%   1.845 GSH                                                 
    1.295  55%   1.440 Lac                                                 
    3.842  20%   4.273 NAAG                                                
    0.000 999%   0.000 PE                                                  
    2.345  11%   2.608 GPC+PCho                                            
    9.312   9%  10.357 NAA+NAAG                                            
   10.519  12%  11.699 Glu+Gln                                             
    7.193  10%   8.000 Cr+PCr                                              
    9.312   9%  10.357 NAA+NAAG                                            
    7.193  10%   8.000 Cr+PCr                                              
   10.519  12%  11.699 Glu+Gln                                             
   6 lines in following misc. output table
  FWHM = 0.057 ppm    S/N =   3                                            
  Data shift =-0.008 ppm                                                   
  Ph: -59 deg       0.0 deg/ppm                                            
  alphaB,S = 1.5E-01,   1.2E+01                                            
   19 spline knots.   Ns = 8(1)                                            
  ( 9) 2 infls.   ( 6) 1 extrs.                                            
  480 points on ppm-axis = NY
      4.100000     4.091866     4.083733     4.075600     4.067466     4.059333     4.051199     4.043066     4.034933     4.026799
      4.018666     4.010532     4.002399     3.994265     3.986132     3.977998     3.969864     3.961731     3.953597     3.945463
      3.937330     3.929196     3.921062     3.912929     3.904795     3.896662     3.888528     3.880394     3.872261     3.864127
      3.855993     3.847860     3.839726     3.831592     3.823459     3.815325     3.807191     3.799058     3.790924     3.782790
      3.774657     3.766523     3.758389     3.750256     3.742122     3.733989     3.725855     3.717721     3.709588     3.701454
      3.693320     3.685187     3.677053     3.668919     3.660786     3.652652     3.644518     3.636385     3.628251     3.620117
      3.611984     3.603850     3.595716     3.587583     3.579449     3.571316     3.563182     3.555048     3.546915     3.538781
      3.530647     3.522514     3.514380     3.506246     3.498113     3.489979     3.481845     3.473712     3.465578     3.457444
      3.449311     3.441177     3.433043     3.424910     3.416776     3.408643     3.400509     3.392375     3.384242     3.376108
      3.367974     3.359841     3.351707     3.343573     3.335440     3.327306     3.319172     3.311039     3.302905     3.294771
      3.286638     3.278504     3.270370     3.262237     3.254103     3.245970     3.237836     3.229702     3.221569     3.213435
      3.205301     3.197168     3.189034     3.180900     3.172767     3.164633     3.156499     3.148366     3.140232     3.132098
      3.123965     3.115831     3.107697     3.099564     3.091430     3.083297     3.075163     3.067029     3.058896     3.050762
      3.042628     3.034495     3.026361     3.018227     3.010094     3.001960     2.993826     2.985693     2.977559     2.969425
      2.961292     2.953158     2.945024     2.936891     2.928757     2.920624     2.912490     2.904356     2.896223     2.888089
      2.879955     2.871822     2.863688     2.855554     2.847421     2.839287     2.831153     2.823020     2.814886     2.806752
      2.798619     2.790485     2.782351     2.774218     2.766084     2.757951     2.749817     2.741683     2.733550     2.725416
      2.717282     2.709149     2.701015     2.692881     2.684748     2.676614     2.668480     2.660347     2.652213     2.644079
      2.635946     2.627812     2.619678     2.611545     2.603411     2.595278     2.587144     2.579010     2.570877     2.562743
      2.554609     2.546476     2.538342     2.530208     2.522075     2.513941     2.505807     2.497674     2.489540     2.481406
      2.473273     2.465139     2.457006     2.448872     2.440738     2.432605     2.424471     2.416337     2.408204     2.400070
      2.391936     2.383803     2.375669     2.367535     2.359402     2.351268     2.343134     2.335001     2.326867     2.318733
      2.310600     2.302466     2.294333     2.286199     2.278065     2.269932     2.261798     2.253664     2.245531     2.237397
      2.229263     2.221130     2.212996     2.204862     2.196729     2.188595     2.180461     2.172328     2.164194     2.156060
      2.147927     2.139793     2.131660     2.123526     2.115392     2.107259     2.099125     2.090991     2.082858     2.074724
      2.066590     2.058457     2.050323     2.042189     2.034056     2.025922     2.017788     2.009655     2.001521     1.993387
      1.985254     1.977120     1.968987     1.960853     1.952719     1.944586     1.936452     1.928318     1.920185     1.912051
      1.903917     1.895784     1.887650     1.879516     1.871383     1.863249     1.855115     1.846982     1.838848     1.830714
      1.822581     1.814447     1.806314     1.798180     1.790046     1.781913     1.773779     1.765645     1.757512     1.749378
      1.741244     1.733111     1.724977     1.716843     1.708710     1.700576     1.692442     1.684309     1.676175     1.668041
      1.659908     1.651774     1.643641     1.635507     1.627373     1.619240     1.611106     1.602972     1.594839     1.586705
      1.578571     1.570438     1.562304     1.554170     1.546037     1.537903     1.529769     1.521636     1.513502     1.505368
      1.497235     1.489101     1.480968     1.472834     1.464700     1.456567     1.448433     1.440299     1.432166     1.424032
      1.415898     1.407765     1.399631     1.391497     1.383364     1.375230     1.367096     1.358963     1.350829     1.342695
      1.334562     1.326428     1.318295     1.310161     1.302027     1.293894     1.285760     1.277626     1.269493     1.261359
      1.253225     1.245092     1.236958     1.228824     1.220691     1.212557     1.204423     1.196290     1.188156     1.180022
      1.171889     1.163755     1.155622     1.147488     1.139354     1.131221     1.123087     1.114953     1.106820     1.098686
      1.090552     1.082419     1.074285     1.066151     1.058018     1.049884     1.041750     1.033617     1.025483     1.017349
      1.009216     1.001082     0.992949     0.984815     0.976681     0.968548     0.960414     0.952280     0.944147     0.936013
      0.927879     0.919746     0.911612     0.903478     0.895345     0.887211     0.879077     0.870944     0.862810     0.854676
      0.846543     0.838409     0.830276     0.822142     0.814008     0.805875     0.797741     0.789607     0.781474     0.773340
      0.765206     0.757073     0.748939     0.740805     0.732672     0.724538     0.716404     0.708271     0.700137     0.692003
      0.683870     0.675736     0.667603     0.659469     0.651335     0.643202     0.635068     0.626934     0.618801     0.610667
      0.602533     0.594400     0.586266     0.578132     0.569999     0.561865     0.553731     0.545598     0.537464     0.529330
      0.521197     0.513063     0.504930     0.496796     0.488662     0.480529     0.472395     0.464261     0.456128     0.447994
      0.439861     0.431727     0.423593     0.415460     0.407326     0.399192     0.391059     0.382925     0.374792     0.366658
      0.358524     0.350391     0.342257     0.334124     0.325990     0.317856     0.309723     0.301589     0.293455     0.285322
      0.277188     0.269055     0.260921     0.252787     0.244654     0.236520     0.228386     0.220253     0.212119     0.203986
 NY phased data points follow
   1.76013E+01  2.26862E+01  1.90788E+01  1.18228E+01  2.23499E+01  1.47477E-01  5.13880E+00  1.97033E+01  1.05211E+01  8.09588E-01
   5.93835E+00  4.06689E+00 -3.86864E+00 -8.90262E+00 -1.80762E+01 -1.92675E+01 -1.06114E+01 -4.49762E+00 -3.16051E+01 -4.12471E+01
  -2.50647E+01 -4.54325E+01 -4.83919E+01 -4.02801E+01 -4.35340E+01 -1.90317E+01 -4.11965E+00  6.67487E+00  1.26779E+01  1.62175E+01
   2.14670E+01  1.31097E+01  2.45909E+01  2.70644E+01  3.56574E+00 -1.05597E-01  1.37111E+01 -2.92845E+00 -4.96630E+00 -5.21467E+00
  -2.27836E+01 -1.55045E+01 -1.96701E+01 -1.54411E+01 -9.89679E+00  4.97891E+00  8.61725E+00  2.59149E+00  1.92770E+01  1.60655E+01
   2.80338E+01  3.50106E+01  3.50743E+01  4.04417E+01  1.98029E+01  1.19866E+01  1.43020E+01  7.55968E+00  1.61718E+01  6.83488E+00
   4.02641E-01  1.74444E+01  1.24716E+01  2.14235E+01  2.68640E+01  2.43245E+01  2.02359E+01  2.23950E+01  2.89156E+01  1.25014E+01
   1.01291E+01  4.07547E+00 -1.67228E+00  4.13819E+00  1.43313E+01  2.27818E+01  3.50022E+01  3.75410E+01  4.44135E+01  6.52263E+01
   5.39522E+01  4.64082E+01  3.08564E+01  2.93413E+01  4.55012E+01  3.85811E+01  2.95555E+01  3.10636E+01  3.46475E+01  3.10296E+01
   4.32164E+01  5.66994E+01  7.29139E+01  7.33423E+01  7.59235E+01  7.77664E+01  7.17808E+01  8.15858E+01  7.44035E+01  7.79979E+01
   6.94462E+01  6.62589E+01  6.98629E+01  5.90028E+01  5.43154E+01  3.40498E+01  1.50801E+01  5.45363E+00 -4.85556E+00 -4.24535E+01
  -7.10708E+01 -7.36129E+01 -6.80643E+01 -6.68742E+01 -7.30692E+01 -4.95925E+01 -2.85993E+01 -2.60526E+01 -2.96886E+01 -1.30991E+01
   3.83610E+00  1.03360E+01  3.42774E+01  1.98308E+01  1.53152E+01  5.14652E+01  5.53127E+01  6.33866E+01  7.18750E+01  7.22698E+01
   8.72916E+01  6.52757E+01  4.37362E+01  3.42177E+01  1.97410E+01  1.17898E+01 -2.21954E+01 -5.57651E+01 -6.43502E+01 -5.38132E+01
  -4.74080E+01 -4.52183E+01 -4.03646E+01 -4.16577E+01 -4.93958E+01 -5.12164E+01 -3.70758E+01 -3.90296E+01 -3.41879E+01 -3.72423E+01
  -5.09989E+01 -3.31548E+01 -1.46335E+01 -1.41898E+01 -3.13935E+01 -2.61559E+01 -2.20528E+01 -3.08463E+01 -1.43984E+01 -1.15363E+01
  -1.13766E-01  2.82311E-01 -1.68580E+01 -6.95229E+00 -2.25074E+01 -1.59614E+01  1.50855E+01 -1.06117E-01 -3.88930E+00  6.55288E+00
   8.35948E+00  7.86842E+00  1.41817E+01  2.35529E+01  1.47906E+01  1.47729E+01  1.94420E+01  2.02041E+01  7.44439E+00 -1.65369E+00
   2.52624E+00 -9.19080E+00 -1.54915E+01 -2.68438E+01 -3.12233E+01 -2.37747E+01 -2.13109E+01 -1.76193E+01 -1.83514E+01 -2.34480E+01
  -2.31079E+01 -1.37917E+01 -1.93671E+01 -1.39359E+01 -1.71203E+01 -1.26907E+01  2.18619E+00 -3.21073E+00  1.33509E+01  1.49546E+00
  -4.03605E+00  6.20171E+00  1.04450E+01  1.32500E+01  1.75720E+00  7.29461E+00 -7.34502E+00 -4.96651E+00 -8.32515E+00 -2.57176E+01
  -1.25891E+01 -1.39970E+01 -1.76694E+01 -1.66633E+01 -3.04661E+00  1.27486E+01  9.63272E-01  2.82714E+00  2.07992E+01  1.21177E+01
   1.82723E+01  1.65766E+01  6.23540E+00  1.45598E+01  9.67898E+00  1.52734E+01 -3.86444E+00 -7.98415E+00  9.13930E+00 -1.41754E+00
   1.83068E+00  6.95574E+00 -6.73468E+00 -1.18909E+01 -1.28321E+01 -2.71210E+01 -2.59014E+01 -3.63168E+01 -3.43599E+01 -3.43446E+01
  -4.30079E+01 -3.29781E+01 -3.93408E+01 -2.02081E+01 -2.06850E+01 -2.12930E+01 -1.00845E+01 -2.20234E+01 -1.97408E+01 -1.91618E+01
  -2.23812E+01 -2.79879E+01 -2.31488E+01 -3.50880E+01 -3.58971E+01 -1.48928E+01  5.60270E+00  3.84515E+01  4.76244E+01  7.53348E+01
   1.05405E+02  1.20546E+02  1.38273E+02  1.25155E+02  1.10029E+02  1.01784E+02  1.00168E+02  8.56695E+01  8.00177E+01  8.71871E+01
   6.89451E+01  8.13827E+01  7.52778E+01  6.86035E+01  9.10887E+01  8.33124E+01  7.86534E+01  7.84920E+01  8.10662E+01  6.27287E+01
   6.39713E+01  6.90655E+01  7.29272E+01  8.60130E+01  6.07972E+01  7.36385E+01  6.24460E+01  5.54128E+01  7.19477E+01  5.44283E+01
   4.89952E+01  3.21984E+01  3.17783E+01  3.49150E+01  2.89471E+01  2.81753E+01  2.48410E+01  1.72691E+01  1.24104E+01  9.76678E+00
   1.45041E+00  8.63050E+00  1.95358E+01  1.35218E+01  1.91596E+01  2.57209E+01  3.01831E+00  2.71866E+01  2.93126E+01  9.87387E+00
   2.94810E+01  2.55712E+01  3.83464E+01  4.00502E+01  3.06041E+01  3.61110E+01  3.93673E+01  2.87587E+01  3.12385E+01  3.85288E+01
   2.83450E+01  3.38285E+01  3.14691E+01  3.42489E+01  3.00982E+01  3.20184E+01  3.50034E+01  4.01766E+01  4.51430E+01  3.34494E+01
   3.33198E+01  1.61835E+01  9.31546E+00  2.12374E+01  2.79103E+01  1.45920E+01  9.35536E+00  1.04205E+01  2.75616E+01  4.19278E+01
   3.47258E+01  4.96552E+01  4.21943E+01  4.49474E+01  4.65969E+01  5.41310E+01  4.04996E+01  3.11993E+01  4.67597E+01  1.94406E+01
   3.02770E+01  2.36063E+01  1.98358E+01  2.27160E+01  7.42392E+00  1.30953E+01  1.46621E+01  5.41376E+00 -1.08235E+01  3.74582E+00
  -4.04369E+00 -6.56428E+00  7.07183E+00  9.13095E+00  7.72085E+00  1.97290E+01  3.07750E+01  3.11090E+01  4.75571E+01  3.59381E+01
   5.16235E+01  4.79644E+01  4.39789E+01  5.83368E+01  5.72231E+01  7.59625E+01  6.34053E+01  7.02347E+01  7.40005E+01  8.33355E+01
   9.32647E+01  9.69514E+01  1.00212E+02  9.22047E+01  1.13124E+02  1.05110E+02  1.26304E+02  1.32566E+02  1.15181E+02  1.25716E+02
   1.20466E+02  1.17224E+02  1.05755E+02  1.08522E+02  9.54103E+01  9.70941E+01  7.87913E+01  5.31389E+01  7.54233E+01  4.36043E+01
   5.11640E+01  5.55429E+01  2.15399E+01  3.59094E+01  1.55282E+01  4.10659E+00  9.32761E+00 -1.32669E+01 -1.70863E+01 -1.50486E+00
   1.04880E+01  5.09533E+00 -7.50738E-01 -9.96743E+00 -1.88325E+01  5.77182E+00  1.48244E+01 -8.52959E-01 -5.66367E+00 -8.71884E+00
  -8.63599E+00 -1.00549E+01  6.24123E-01 -1.02607E+01 -9.21379E+00  6.40233E+00 -1.14445E+01  3.81672E+00  4.38021E+00  8.49702E-03
   1.27979E+00 -7.46585E+00  3.42851E+00  4.99885E+00  1.90633E+00 -6.29388E+00  8.46688E+00 -3.14937E+00 -1.87436E+01 -1.03137E+01
  -3.40141E+00  6.00546E+00 -7.49326E+00  7.79847E+00  3.07208E+00  5.09944E-01  1.11502E+01 -1.14484E+00  5.33166E-01 -6.02436E+00
  -1.50643E+00 -1.67474E+00 -5.30708E+00  1.99413E+00  1.14658E+01  8.77539E+00  6.12268E+00  1.41352E+01  8.03434E+00  1.23206E+01
   1.42742E+01  5.04757E+00  9.19375E+00  8.32602E+00  4.61108E+00  1.29170E+01 -1.76781E-01  8.30073E+00  1.63032E+01 -1.10247E+01
  -3.03081E+00  9.21048E+00  9.49228E+00  1.30175E+01  9.95095E+00  4.41924E+00  4.83970E+00  1.31829E-01  4.37699E+00  9.83747E+00
 NY points of the fit to the data follow
  -5.08510E+00 -5.13574E+00 -5.57081E+00 -6.04200E+00 -6.28283E+00 -6.20406E+00 -5.26006E+00 -3.37108E+00 -1.41061E+00  2.33212E-02
   1.85349E-01 -1.66100E+00 -4.78951E+00 -7.63892E+00 -9.27291E+00 -1.05621E+01 -1.39792E+01 -1.95265E+01 -2.48511E+01 -2.97650E+01
  -3.40274E+01 -3.65094E+01 -3.63034E+01 -3.36207E+01 -2.79262E+01 -1.72633E+01 -3.54217E+00  1.09712E+01  2.52956E+01  3.46088E+01
   3.65081E+01  3.50737E+01  3.39959E+01  3.28931E+01  3.02544E+01  2.60861E+01  2.09733E+01  1.47564E+01  7.84633E+00  7.38595E-01
  -5.64665E+00 -1.08037E+01 -1.37485E+01 -1.31694E+01 -9.30407E+00 -1.95894E+00  8.05470E+00  1.78380E+01  2.56461E+01  3.08999E+01
   3.35870E+01  3.40572E+01  3.18803E+01  2.73917E+01  2.23165E+01  1.69872E+01  1.16165E+01  7.32003E+00  5.25676E+00  5.23432E+00
   6.81095E+00  1.09947E+01  1.60284E+01  1.95635E+01  2.35234E+01  2.74218E+01  2.84524E+01  2.74098E+01  2.52964E+01  2.13971E+01
   1.63420E+01  1.25289E+01  1.13565E+01  1.27559E+01  1.74729E+01  2.49597E+01  3.22082E+01  3.75105E+01  4.15508E+01  4.36031E+01
   4.30292E+01  4.06886E+01  3.73130E+01  3.37106E+01  3.02094E+01  2.74729E+01  2.64848E+01  2.74273E+01  3.06045E+01  3.54993E+01
   4.10623E+01  4.66257E+01  5.15738E+01  5.52795E+01  5.84563E+01  6.15196E+01  6.39000E+01  6.57202E+01  6.71202E+01  6.71529E+01
   6.74234E+01  6.95517E+01  6.93554E+01  6.44787E+01  5.64535E+01  4.53948E+01  2.98013E+01  1.09726E+01 -7.90268E+00 -2.87509E+01
  -4.98401E+01 -6.49263E+01 -7.40973E+01 -7.54785E+01 -6.49174E+01 -4.80530E+01 -3.39248E+01 -2.39892E+01 -1.60898E+01 -9.07772E+00
  -2.43618E+00  4.27232E+00  1.10299E+01  1.73907E+01  2.48129E+01  3.62105E+01  4.89876E+01  5.95345E+01  6.80189E+01  7.33552E+01
   7.36578E+01  6.83199E+01  5.84327E+01  4.25863E+01  2.03397E+01 -2.90071E+00 -2.52540E+01 -4.44927E+01 -5.31356E+01 -5.10506E+01
  -4.66820E+01 -4.43626E+01 -4.32575E+01 -4.27443E+01 -4.23731E+01 -4.18394E+01 -4.10729E+01 -3.98538E+01 -3.81440E+01 -3.60476E+01
  -3.36647E+01 -3.11669E+01 -2.87672E+01 -2.65955E+01 -2.45999E+01 -2.26110E+01 -2.06216E+01 -1.87850E+01 -1.72090E+01 -1.58707E+01
  -1.46005E+01 -1.33826E+01 -1.22590E+01 -1.13367E+01 -1.06907E+01 -9.89465E+00 -8.58331E+00 -6.94838E+00 -5.19650E+00 -3.21874E+00
  -1.04114E+00  1.16763E+00  3.41150E+00  5.58951E+00  7.34796E+00  8.03044E+00  7.17991E+00  4.71541E+00  1.42711E+00 -1.41554E+00
  -3.92207E+00 -6.88630E+00 -1.04684E+01 -1.43378E+01 -1.72932E+01 -1.85717E+01 -1.90828E+01 -1.90032E+01 -1.77752E+01 -1.57918E+01
  -1.34311E+01 -1.07680E+01 -7.65519E+00 -4.49349E+00 -1.80987E+00  7.47264E-01  2.62822E+00  3.74938E+00  5.00112E+00  5.88581E+00
   6.19590E+00  6.59831E+00  7.09692E+00  7.40353E+00  7.08921E+00  5.95484E+00  4.02801E+00  1.37548E+00 -2.43952E+00 -7.16128E+00
  -1.08915E+01 -1.33661E+01 -1.41039E+01 -1.25229E+01 -8.64067E+00 -2.67593E+00  4.23189E+00  1.21914E+01  1.99315E+01  2.57374E+01
   2.97908E+01  3.11244E+01  2.98283E+01  2.74762E+01  2.47080E+01  2.14477E+01  1.79278E+01  1.38447E+01  8.12397E+00  6.56107E-01
  -7.81861E+00 -1.71938E+01 -2.64822E+01 -3.47676E+01 -4.15459E+01 -4.65029E+01 -4.92832E+01 -4.94773E+01 -4.77778E+01 -4.45989E+01
  -3.98415E+01 -3.46574E+01 -2.99245E+01 -2.52674E+01 -2.10156E+01 -1.83239E+01 -1.81352E+01 -2.00919E+01 -2.18271E+01 -2.45373E+01
  -3.04235E+01 -3.52294E+01 -3.63013E+01 -3.41805E+01 -2.70341E+01 -1.32414E+01  4.87601E+00  2.45385E+01  4.67955E+01  6.78211E+01
   8.23579E+01  9.44107E+01  1.04507E+02  1.06375E+02  1.00591E+02  9.35403E+01  8.78310E+01  8.31582E+01  7.91260E+01  7.56379E+01
   7.26670E+01  7.03701E+01  6.88535E+01  6.80128E+01  6.77817E+01  6.78832E+01  6.80758E+01  6.82312E+01  6.81573E+01  6.77730E+01
   6.70822E+01  6.60726E+01  6.47653E+01  6.31778E+01  6.13290E+01  5.92862E+01  5.70698E+01  5.46844E+01  5.20546E+01  4.91555E+01
   4.60737E+01  4.28781E+01  3.97069E+01  3.67184E+01  3.40850E+01  3.20572E+01  3.08054E+01  3.03847E+01  3.08207E+01  3.20413E+01
   3.38125E+01  3.59087E+01  3.81713E+01  4.04651E+01  4.27453E+01  4.50168E+01  4.72444E+01  4.94111E+01  5.15318E+01  5.36299E+01
   5.56941E+01  5.76921E+01  5.95361E+01  6.11073E+01  6.23600E+01  6.32563E+01  6.37496E+01  6.38246E+01  6.34300E+01  6.25349E+01
   6.11453E+01  5.92596E+01  5.67952E+01  5.36956E+01  4.99711E+01  4.55250E+01  4.03038E+01  3.43713E+01  2.78872E+01  2.11661E+01
   1.46381E+01  8.76638E+00  4.05666E+00  9.42550E-01 -3.41536E-01  2.35018E-01  2.23056E+00  5.32682E+00  8.97121E+00  1.24354E+01
   1.53819E+01  1.75626E+01  1.90151E+01  1.97006E+01  1.98405E+01  1.98464E+01  1.96623E+01  1.96982E+01  2.02715E+01  2.10003E+01
   2.15395E+01  2.16023E+01  2.07897E+01  1.91203E+01  1.69358E+01  1.46127E+01  1.25739E+01  1.11596E+01  1.05817E+01  1.10310E+01
   1.24551E+01  1.46230E+01  1.73498E+01  2.04391E+01  2.37273E+01  2.70642E+01  3.03442E+01  3.35371E+01  3.65941E+01  3.95825E+01
   4.25553E+01  4.55535E+01  4.86650E+01  5.19693E+01  5.54809E+01  5.92547E+01  6.34323E+01  6.80733E+01  7.32045E+01  7.88952E+01
   8.51074E+01  9.17156E+01  9.84691E+01  1.04987E+02  1.10722E+02  1.15218E+02  1.18068E+02  1.18839E+02  1.17333E+02  1.13587E+02
   1.07858E+02  1.00652E+02  9.26266E+01  8.43876E+01  7.63660E+01  6.88075E+01  6.16157E+01  5.44877E+01  4.72955E+01  4.01027E+01
   3.30263E+01  2.63174E+01  2.03687E+01  1.53971E+01  1.13877E+01  8.31126E+00  6.06351E+00  4.39388E+00  3.11355E+00  2.15411E+00
   1.46023E+00  9.18534E-01  4.75266E-01  1.69899E-01  3.08719E-02 -1.56230E-02  8.75414E-04  5.71039E-02  1.21147E-01  1.93024E-01
   2.88926E-01  3.93149E-01  4.63062E-01  5.60441E-01  7.21839E-01  8.64970E-01  9.64332E-01  1.08730E+00  1.23625E+00  1.38851E+00
   1.53275E+00  1.67579E+00  1.82968E+00  1.95964E+00  2.04795E+00  2.11193E+00  2.22439E+00  2.40521E+00  2.61924E+00  2.84545E+00
   3.05332E+00  3.21654E+00  3.32569E+00  3.42266E+00  3.50378E+00  3.56431E+00  3.61867E+00  3.66868E+00  3.75155E+00  3.85971E+00
   4.00769E+00  4.18798E+00  4.34070E+00  4.46726E+00  4.63765E+00  4.81909E+00  5.00429E+00  5.22851E+00  5.43630E+00  5.58069E+00
   5.67522E+00  5.74889E+00  5.82336E+00  5.90170E+00  6.01366E+00  6.12734E+00  6.25379E+00  6.42935E+00  6.65228E+00  6.87465E+00
   7.07245E+00  7.24052E+00  7.33509E+00  7.33394E+00  7.30275E+00  7.28582E+00  7.32428E+00  7.43316E+00  7.60199E+00  7.78994E+00
 NY background values follow
     1.754E+01    1.741E+01    1.727E+01    1.714E+01    1.700E+01    1.687E+01    1.673E+01    1.660E+01    1.646E+01    1.633E+01
     1.620E+01    1.607E+01    1.594E+01    1.582E+01    1.569E+01    1.557E+01    1.545E+01    1.533E+01    1.522E+01    1.511E+01
     1.500E+01    1.490E+01    1.479E+01    1.470E+01    1.460E+01    1.451E+01    1.443E+01    1.435E+01    1.428E+01    1.421E+01
     1.414E+01    1.408E+01    1.403E+01    1.398E+01    1.393E+01    1.389E+01    1.386E+01    1.383E+01    1.381E+01    1.379E+01
     1.377E+01    1.376E+01    1.376E+01    1.376E+01    1.376E+01    1.377E+01    1.378E+01    1.380E+01    1.382E+01    1.384E+01
     1.387E+01    1.390E+01    1.394E+01    1.398E+01    1.402E+01    1.407E+01    1.412E+01    1.417E+01    1.423E+01    1.429E+01
     1.436E+01    1.442E+01    1.449E+01    1.457E+01    1.464E+01    1.472E+01    1.480E+01    1.488E+01    1.497E+01    1.506E+01
     1.514E+01    1.523E+01    1.533E+01    1.542E+01    1.551E+01    1.561E+01    1.571E+01    1.580E+01    1.590E+01    1.600E+01
     1.610E+01    1.620E+01    1.630E+01    1.640E+01    1.649E+01    1.659E+01    1.669E+01    1.679E+01    1.688E+01    1.698E+01
     1.707E+01    1.717E+01    1.726E+01    1.735E+01    1.744E+01    1.753E+01    1.761E+01    1.770E+01    1.779E+01    1.787E+01
     1.795E+01    1.803E+01    1.811E+01    1.819E+01    1.827E+01    1.834E+01    1.842E+01    1.849E+01    1.856E+01    1.863E+01
     1.870E+01    1.877E+01    1.884E+01    1.890E+01    1.897E+01    1.903E+01    1.909E+01    1.915E+01    1.921E+01    1.927E+01
     1.933E+01    1.938E+01    1.944E+01    1.949E+01    1.954E+01    1.959E+01    1.964E+01    1.968E+01    1.973E+01    1.977E+01
     1.982E+01    1.986E+01    1.990E+01    1.993E+01    1.997E+01    2.000E+01    2.004E+01    2.007E+01    2.010E+01    2.012E+01
     2.015E+01    2.017E+01    2.019E+01    2.021E+01    2.023E+01    2.025E+01    2.026E+01    2.027E+01    2.028E+01    2.029E+01
     2.030E+01    2.030E+01    2.030E+01    2.030E+01    2.030E+01    2.029E+01    2.028E+01    2.028E+01    2.027E+01    2.025E+01
     2.024E+01    2.022E+01    2.020E+01    2.018E+01    2.016E+01    2.014E+01    2.011E+01    2.008E+01    2.005E+01    2.002E+01
     1.999E+01    1.995E+01    1.992E+01    1.988E+01    1.984E+01    1.980E+01    1.976E+01    1.971E+01    1.967E+01    1.962E+01
     1.957E+01    1.952E+01    1.947E+01    1.942E+01    1.936E+01    1.931E+01    1.925E+01    1.919E+01    1.913E+01    1.907E+01
     1.901E+01    1.895E+01    1.889E+01    1.883E+01    1.876E+01    1.870E+01    1.864E+01    1.857E+01    1.851E+01    1.844E+01
     1.837E+01    1.831E+01    1.824E+01    1.818E+01    1.811E+01    1.805E+01    1.798E+01    1.791E+01    1.785E+01    1.779E+01
     1.772E+01    1.766E+01    1.759E+01    1.753E+01    1.747E+01    1.740E+01    1.734E+01    1.728E+01    1.721E+01    1.715E+01
     1.708E+01    1.702E+01    1.695E+01    1.688E+01    1.681E+01    1.674E+01    1.667E+01    1.659E+01    1.652E+01    1.644E+01
     1.636E+01    1.628E+01    1.619E+01    1.611E+01    1.602E+01    1.593E+01    1.583E+01    1.574E+01    1.564E+01    1.553E+01
     1.543E+01    1.532E+01    1.521E+01    1.509E+01    1.497E+01    1.485E+01    1.472E+01    1.460E+01    1.446E+01    1.433E+01
     1.419E+01    1.405E+01    1.391E+01    1.376E+01    1.361E+01    1.346E+01    1.331E+01    1.315E+01    1.299E+01    1.283E+01
     1.266E+01    1.249E+01    1.232E+01    1.215E+01    1.197E+01    1.179E+01    1.161E+01    1.143E+01    1.124E+01    1.105E+01
     1.086E+01    1.067E+01    1.047E+01    1.027E+01    1.008E+01    9.879E+00    9.681E+00    9.483E+00    9.287E+00    9.091E+00
     8.897E+00    8.705E+00    8.516E+00    8.329E+00    8.146E+00    7.966E+00    7.791E+00    7.620E+00    7.454E+00    7.293E+00
     7.139E+00    6.990E+00    6.849E+00    6.714E+00    6.587E+00    6.467E+00    6.357E+00    6.254E+00    6.161E+00    6.078E+00
     6.005E+00    5.941E+00    5.888E+00    5.844E+00    5.810E+00    5.785E+00    5.769E+00    5.762E+00    5.763E+00    5.774E+00
     5.792E+00    5.819E+00    5.853E+00    5.896E+00    5.946E+00    6.003E+00    6.067E+00    6.138E+00    6.216E+00    6.301E+00
     6.392E+00    6.489E+00    6.593E+00    6.702E+00    6.816E+00    6.936E+00    7.062E+00    7.192E+00    7.327E+00    7.467E+00
     7.611E+00    7.759E+00    7.912E+00    8.068E+00    8.228E+00    8.391E+00    8.557E+00    8.726E+00    8.897E+00    9.071E+00
     9.248E+00    9.426E+00    9.605E+00    9.787E+00    9.969E+00    1.015E+01    1.034E+01    1.052E+01    1.071E+01    1.089E+01
     1.108E+01    1.126E+01    1.145E+01    1.163E+01    1.181E+01    1.199E+01    1.217E+01    1.235E+01    1.253E+01    1.270E+01
     1.287E+01    1.304E+01    1.320E+01    1.337E+01    1.353E+01    1.368E+01    1.384E+01    1.399E+01    1.414E+01    1.428E+01
     1.442E+01    1.456E+01    1.469E+01    1.482E+01    1.495E+01    1.507E+01    1.519E+01    1.531E+01    1.542E+01    1.552E+01
     1.562E+01    1.572E+01    1.581E+01    1.590E+01    1.598E+01    1.606E+01    1.613E+01    1.620E+01    1.626E+01    1.632E+01
     1.637E+01    1.642E+01    1.646E+01    1.650E+01    1.653E+01    1.656E+01    1.658E+01    1.660E+01    1.661E+01    1.662E+01
     1.662E+01    1.662E+01    1.662E+01    1.661E+01    1.660E+01    1.658E+01    1.656E+01    1.654E+01    1.652E+01    1.649E+01
     1.646E+01    1.642E+01    1.638E+01    1.634E+01    1.630E+01    1.625E+01    1.620E+01    1.615E+01    1.610E+01    1.604E+01
     1.599E+01    1.593E+01    1.587E+01    1.580E+01    1.574E+01    1.567E+01    1.561E+01    1.554E+01    1.547E+01    1.539E+01
     1.532E+01    1.525E+01    1.517E+01    1.509E+01    1.502E+01    1.494E+01    1.486E+01    1.478E+01    1.470E+01    1.461E+01
     1.453E+01    1.445E+01    1.437E+01    1.428E+01    1.420E+01    1.411E+01    1.403E+01    1.394E+01    1.386E+01    1.377E+01
     1.369E+01    1.360E+01    1.352E+01    1.343E+01    1.335E+01    1.326E+01    1.318E+01    1.310E+01    1.301E+01    1.293E+01
     1.284E+01    1.276E+01    1.267E+01    1.259E+01    1.250E+01    1.242E+01    1.233E+01    1.225E+01    1.216E+01    1.208E+01
     1.199E+01    1.191E+01    1.182E+01    1.174E+01    1.165E+01    1.156E+01    1.148E+01    1.139E+01    1.130E+01    1.122E+01
 Mac      Conc. = 2.62E-04
  -4.28828E-01 -9.91518E-01 -1.60738E+00 -2.33454E+00 -3.15068E+00 -4.04080E+00 -5.03097E+00 -6.12682E+00 -7.27935E+00 -8.48503E+00
  -9.78375E+00 -1.10607E+01 -1.21101E+01 -1.29444E+01 -1.35636E+01 -1.38749E+01 -1.38312E+01 -1.33736E+01 -1.23840E+01 -1.07013E+01
  -8.42577E+00 -5.74946E+00 -2.83787E+00 -1.62754E-01  1.95442E+00  3.69893E+00  5.27625E+00  6.67490E+00  7.95667E+00  9.22944E+00
   1.04485E+01  1.15200E+01  1.24551E+01  1.32741E+01  1.39259E+01  1.44677E+01  1.50025E+01  1.55824E+01  1.62920E+01  1.71801E+01
   1.82255E+01  1.93006E+01  2.02523E+01  2.09600E+01  2.14046E+01  2.17530E+01  2.20767E+01  2.22728E+01  2.22127E+01  2.17932E+01
   2.10439E+01  2.01425E+01  1.92811E+01  1.85283E+01  1.79941E+01  1.78085E+01  1.79443E+01  1.83677E+01  1.90558E+01  1.99108E+01
   2.08122E+01  2.17012E+01  2.24667E+01  2.28824E+01  2.29574E+01  2.28507E+01  2.25790E+01  2.22655E+01  2.21514E+01  2.23454E+01
   2.28943E+01  2.37682E+01  2.48862E+01  2.61241E+01  2.73505E+01  2.84374E+01  2.91289E+01  2.93272E+01  2.91812E+01  2.88335E+01
   2.84525E+01  2.81701E+01  2.80393E+01  2.81069E+01  2.84043E+01  2.88758E+01  2.94659E+01  3.01711E+01  3.09546E+01  3.16795E+01
   3.22743E+01  3.27249E+01  3.29425E+01  3.28537E+01  3.24811E+01  3.18019E+01  3.07632E+01  2.94135E+01  2.78303E+01  2.60285E+01
   2.39867E+01  2.16966E+01  1.90949E+01  1.61024E+01  1.27216E+01  8.95949E+00  4.97056E+00  1.03549E+00 -2.52063E+00 -5.33584E+00
