 
 $NMID
 ID=''
 FMTDAT='(2E13.5)'
 TRAMP=   1.00000E+0
 VOLUME=   1.00000E+0
 $END
  -1.68191E+4  -1.60355E+3
  -4.68976E+3   1.36478E+4
   1.22653E+4  -4.51238E+3
  -1.37247E+3  -1.48061E+4
  -6.75347E+3   8.09973E+3
   5.75031E+3   6.96085E+3
  -4.24976E+2  -9.54188E+3
  -5.38445E+3  -3.41814E+2
   6.76493E+3   3.07995E+3
   4.44336E+3  -4.31919E+3
  -5.35623E+3   3.06385E+3
   3.62574E+2   4.09067E+3
   2.18157E+3  -4.33346E+3
  -2.26845E+3   3.38143E+3
  -7.59169E+2   6.25054E+3
  -2.48990E+2  -5.92046E+3
  -1.76880E+3  -4.01278E+3
   2.38408E+3   5.64102E+3
   2.29053E+3   8.04738E+2
  -1.60995E+3  -3.89632E+3
  -7.22479E+2   8.93073E+2
   1.15523E+3   4.98450E+2
   1.04874E+3  -2.20571E+3
  -2.29291E+2   4.02532E+2
  -1.00742E+3   1.29067E+3
  -1.20482E+2  -2.53456E+3
   1.71422E+3  -2.04754E+3
   1.76810E+2   2.95249E+3
  -1.27098E+3   2.06804E+3
  -7.14806E+0  -2.19480E+3
   1.05720E+3  -5.14350E+2
   5.44586E+2   2.27730E+3
  -1.25304E+3   1.34638E+3
  -2.31884E+3   6.51671E+2
  -1.06006E+3  -6.10592E+2
   1.53998E+2  -2.84133E+3
   7.44900E+2  -8.36857E+2
   1.07582E+3   1.95769E+3
   4.86857E+2  -1.61858E+2
  -6.68760E+2  -2.67777E+2
  -5.39659E+2   1.85792E+3
  -5.97953E+2   3.05320E+2
  -8.79139E+2  -1.77045E+3
  -4.10613E+2  -6.40697E+2
   7.39186E+2  -1.20030E+2
   1.17705E+3  -1.35311E+3
   1.67056E+3   5.07528E+2
   4.16980E+2   2.70159E+3
  -1.60979E+3   1.62491E+3
  -9.99808E+2  -6.41796E+2
   2.36910E+1  -6.50189E+2
  -2.54961E+2   4.21833E+1
  -1.05634E+2  -3.38361E+2
   4.84000E+2  -8.01694E+2
   8.85895E+2  -2.84923E+2
   6.97784E+2   6.78450E+2
  -1.38748E+2   8.40987E+2
  -1.23744E+3   2.04501E+1
  -5.69251E+2  -1.21818E+3
   4.09270E+2  -1.02923E+3
   7.71380E+2  -3.21639E+2
   6.83609E+2  -2.75509E+2
   1.16419E+3  -1.54551E+2
   9.70820E+2   1.47350E+3
  -2.19505E+2   1.95687E+3
  -1.25570E+3   5.84917E+2
  -1.72174E+3  -6.87231E+2
  -6.21129E+2  -1.03378E+3
   2.70522E+2  -5.94315E+2
   2.20903E+2  -1.61773E+2
  -4.19820E+2  -8.67889E+1
  -2.64000E+2  -5.46099E+2
   4.33273E+2  -7.34035E+2
   5.53293E+2  -4.58763E+1
   1.37949E+2   1.59303E+2
   1.13061E+2   6.11619E+1
  -3.74304E+1   3.63076E+1
   5.60410E+2   1.71047E+1
   1.74925E+2   3.98054E+1
  -2.56944E+2   5.00868E+2
  -6.08261E+2   6.96528E+2
  -3.29811E+2  -3.83030E+2
  -1.66131E+2  -2.69153E+2
   9.96267E+1   7.48199E+1
  -5.40523E+2   2.13774E+2
  -6.15119E+2  -6.56748E+2
   1.00311E+2  -6.63910E+2
   6.53408E+2   1.61876E+1
   1.80791E+2   1.62609E+1
  -1.01693E+1  -1.32822E+2
   6.71757E+2  -4.08665E+2
   8.01013E+2   3.72798E+2
   4.17730E+2   8.26649E+2
  -5.48144E+2   8.60179E+2
  -5.42643E+2   9.87797E+1
  -5.47084E+2  -3.82334E+2
   2.77466E+1  -3.39522E+2
  -2.05747E+2  -1.11690E+2
  -1.14409E+2  -2.06828E+2
   8.50012E+1  -1.80062E+2
   5.74434E+2   4.38698E+1
   4.20922E+2   4.37099E+2
   1.04951E+2   6.09753E+2
  -6.82831E+2   1.32493E+2
  -1.75557E+2  -6.96644E+2
   3.84077E+2  -4.87716E+2
   5.90042E+2   1.53333E+2
  -2.66142E+2   6.48272E+2
  -6.14067E+2  -2.59571E+1
  -3.90702E+2  -8.99490E+2
   2.43789E+2  -7.83337E+2
   5.94348E+2  -8.13863E+1
   3.55787E+2   2.55055E+2
   5.94476E+1  -6.68342E+1
   5.41737E+1   2.36029E+1
   3.62822E+2   2.79106E+2
  -1.73149E+2   5.42791E+2
  -5.38996E+2   2.66075E+2
  -6.71804E+2  -4.42548E+2
  -2.98464E+2  -6.68533E+2
   6.99058E+2  -2.41545E+2
   4.05558E+2  -2.34878E+2
   2.85203E+2  -1.63135E+2
   3.66202E+2   1.71090E+2
   1.26488E+2   2.91169E+2
  -3.32044E+2   1.29200E+2
  -3.47392E+2  -3.84337E+2
  -5.86994E+1  -3.46266E+2
   5.68956E+1   8.59227E+1
   3.41416E+2  -1.28385E+2
   1.79806E+2   4.35811E+2
  -2.72785E+2   2.22484E+2
  -2.94099E+2  -4.72483E+0
   1.79561E+2  -1.70859E+2
   7.92715E+1   1.53969E+1
  -9.08343E+1   1.50503E+2
  -1.54811E+2  -1.13517E+2
   4.75746E+2  -2.25830E+2
   1.78088E+2   2.35175E+2
   6.09679E+1   4.82838E+2
  -4.26514E+2   6.38861E+1
  -1.07664E+2  -2.42375E+2
   3.13353E+2  -4.72473E+2
   3.99397E+2   1.92535E+2
   1.66953E+2   6.17275E+2
  -5.12136E+1   3.70458E+2
  -1.37504E+2   1.96078E+2
  -2.94683E+1   2.31409E+2
  -2.43213E+1   4.87435E+1
  -3.34105E+2   8.42148E+1
  -5.10916E+2  -2.86497E+2
  -8.39662E+1  -4.06218E+2
   3.52106E+2  -2.20289E+2
   1.61567E+2   9.00946E+1
   2.62370E+1   4.41505E+1
  -3.13631E+0  -1.18506E+2
  -4.26261E+1  -4.23351E+0
   2.86548E+2   1.50642E+2
   6.43731E+1   1.33210E+2
   7.44004E+1   1.60954E+1
   1.36741E+2   1.50006E+2
  -1.31118E+2   2.80773E+2
  -2.97826E+2   2.17165E+2
  -7.55387E+1   1.46283E+2
  -1.73771E+2  -1.56008E+2
   5.67761E+1  -3.95752E+2
   3.93946E+2  -1.59908E+2
   2.63472E+2   2.16696E+2
  -2.23424E+1   1.57476E+2
  -6.54640E+1   2.48118E+1
  -7.83115E+1   1.05449E+1
  -1.84344E+2   1.24942E+2
   2.09720E+2   2.02120E+2
   2.03712E+2  -1.17081E+2
  -1.31327E+2  -5.45439E+1
   2.95755E+2  -2.29222E+2
   1.49251E+2   6.56614E+1
  -1.85759E+2   4.56615E+1
   6.17631E+1  -1.52534E+2
   7.57425E+1  -1.44445E+2
   2.26841E+2   7.12431E-1
  -1.30551E+2   2.36148E+2
  -1.24379E+2   6.32890E+1
   1.89201E+2   2.87934E+1
  -4.35989E+1  -2.33193E+1
   8.97919E+1   1.15492E+2
  -1.17041E+2   9.81438E+1
   5.29925E+1  -5.06635E+1
   1.34174E+2  -2.42398E+2
   2.95072E+2  -1.60176E+2
   2.48905E+2   3.06230E+2
  -8.47800E+1   1.39370E+2
  -2.98334E+2   1.06879E+2
   1.00924E+2  -6.05373E+1
   4.29956E+1  -2.20050E+0
  -9.03440E+1   4.40449E+1
   1.93772E+2  -1.14960E+1
   8.94625E+1   1.25104E+2
   8.92382E+1  -3.37760E+1
   1.72792E+2   1.31354E+2
  -5.64743E+1   1.40731E+1
  -1.56638E+2  -1.30254E+2
  -6.61929E+1  -3.30907E+2
  -4.09909E+1  -3.75472E+2
  -6.47252E+1  -2.93516E+2
  -2.18027E+1  -1.59993E+2
  -6.50235E+1  -4.35462E+1
  -2.98965E+1  -1.20072E+1
   2.46117E+2  -8.45563E+1
  -9.52051E+1   3.74543E+1
  -1.07987E+2  -7.78956E+1
  -1.12339E+2   1.05601E+1
  -1.54676E+1  -6.86347E+1
  -1.30111E+2   2.80739E+2
  -6.38072E+0   2.58892E+2
  -1.24754E+2   1.36986E+2
  -2.33012E+2  -2.66250E+2
   1.42944E+2   1.19844E+2
   1.44772E+2   1.44632E+2
  -2.39918E+2  -1.30270E+1
  -1.96397E+2  -2.11439E+2
   4.87338E+1  -1.64052E+2
   1.34746E+2   3.17155E+2
  -6.16417E+1   2.36622E+2
  -1.67185E+2   1.72889E+2
  -9.42780E+1  -3.35707E+1
  -8.20611E+1  -9.80055E+1
  -5.68850E+1  -2.18550E+0
  -1.61126E+2   1.56241E+2
  -1.16928E+2   3.52031E+1
  -1.22739E+2  -4.07003E+1
   3.35571E+1   2.50296E+1
  -2.37265E+2  -5.21204E+1
  -3.12194E+2   1.20061E+2
  -1.97508E+1  -2.73916E+2
   1.24303E+2  -1.06068E+2
  -4.39096E+0   2.61535E+1
  -2.55400E+2  -3.82726E+0
   3.20893E+1   1.76556E+2
  -1.34612E+2   2.65916E+2
   6.46852E+1  -1.57244E+2
  -1.20047E+2  -1.70760E+2
  -1.05186E+2   3.30442E+2
  -9.00519E+1   3.87174E+1
  -1.18267E+2  -2.23478E+2
  -9.07888E+0  -1.04086E+2
  -4.07240E+1   2.51013E+2
  -1.93514E+2   1.82935E+2
  -2.07517E+1   5.62222E+1
   1.61972E+2  -3.91543E+1
   5.13782E+1  -1.15569E+0
  -1.08743E+2   8.46171E+1
  -2.45059E+2  -1.61135E+2
  -1.08311E+2  -1.93114E+2
   1.40724E+2  -1.61432E+2
   1.31584E+2   1.05658E+2
  -1.26863E+2   9.65942E+1
  -2.88423E+2   1.61350E+2
   9.31402E+1   1.55302E+2
   9.28223E+1   1.71608E+2
  -7.31889E+1   3.58359E+1
  -1.92010E+2  -1.28259E+2
   1.56065E+1  -3.43220E+1
   2.44200E+1   2.66803E+2
   2.23611E+2   4.04303E+1
  -7.00702E+1  -6.03635E+1
  -1.44681E+2  -3.04887E+1
   4.75889E+1   2.07511E+2
  -5.06904E+1   2.12531E+2
  -1.72872E+1  -1.93136E+1
   1.08625E+2   1.88982E+2
  -4.03665E+1   9.89207E+1
   3.19988E+0  -3.33429E+0
   1.91673E+1   1.60678E+2
   7.18005E+1  -1.19429E+2
  -2.58341E+2   1.76269E+2
  -3.13922E+2  -1.49681E+2
  -9.33017E+1   5.61695E+1
   3.06527E+1  -1.19999E+2
   2.54620E+2   1.59336E+2
  -1.04599E+2   3.19310E+1
  -1.42141E+2  -1.01886E+2
   2.52382E+2  -1.10712E+2
   6.42154E+1   1.30547E+2
  -1.01921E+2  -7.15361E+1
   1.60060E+2  -1.16176E+2
   1.04357E+2  -1.33282E+2
   2.40352E+2   1.18139E+2
  -1.07499E+2   3.71701E+1
  -4.88759E+0   3.10879E+1
  -1.93017E+2   2.64786E+1
  -2.21085E+2   1.46342E+2
   1.25294E+2  -2.17361E+1
  -1.98600E+2   1.11250E+2
  -2.28092E+2   9.20407E+1
   4.38716E+1   4.34071E+1
   1.51495E+2   1.07268E+2
   2.95000E+1   4.92741E+1
  -4.56912E+1  -1.29730E+2
  -2.20319E+2   3.31762E+1
  -5.32343E+1  -1.18593E+2
  -1.32143E+1   1.04577E+2
   1.96553E+2   1.51731E+2
  -3.17598E+2  -5.08732E+1
  -2.42525E+2   1.38219E+2
   5.84106E+1  -2.49102E+2
  -7.92431E+1  -2.43706E+1
  -1.12420E+1  -3.56919E+0
  -6.07886E+1   1.73718E+2
  -9.80375E+1   1.52849E+2
   1.12760E+2   2.06361E+2
  -3.17270E+2  -8.57139E+1
   2.30247E+1   1.46119E+2
  -1.45092E+2   5.79540E+1
  -3.38952E+0   6.27772E+1
  -3.72404E+1  -6.10958E+1
   1.21777E+2  -1.57312E+2
  -3.88962E+1   7.14217E+1
   1.22133E+2  -9.07165E-1
   7.31901E+1   1.70000E+2
  -1.47821E+2   7.08086E+1
  -2.03574E+2   4.97445E+1
  -2.32438E+2  -2.12165E+0
   4.41338E+1  -6.65586E+1
  -8.95768E+1   9.93838E+1
   9.66886E+1  -3.50353E+1
  -1.45358E+2   8.68434E+0
  -1.51246E+2  -1.03696E+2
  -1.28620E+2  -2.22499E+1
  -9.21470E+0  -1.78222E+2
   1.28760E+2   1.73832E+2
  -8.20342E+1  -9.63249E+1
  -7.00184E+1  -8.73966E+1
  -7.24764E+1   1.29340E+2
   6.47336E+1   3.20733E+2
  -7.09719E+1   1.64413E+2
  -1.61204E+2  -8.80019E+1
   1.56060E+2   7.79925E+1
  -3.24603E+1  -2.37269E+2
  -1.28357E+2  -4.73775E+1
  -8.06280E+1  -1.00483E+2
  -2.45689E+2  -3.59191E+1
   2.37730E+1   3.70519E+1
   5.16823E+1   6.07744E+1
  -6.54539E+1  -1.34284E+2
   1.73096E+2  -1.40162E+2
   1.61379E+2   3.19233E+1
   4.59652E+1   1.43515E+2
  -2.04715E+2  -3.48663E+1
  -2.66579E+1   1.57282E+2
   5.25535E+1   2.72028E+2
   2.79268E+0  -6.72971E+0
   1.99915E+1   1.89717E+1
  -4.16256E+1  -1.20493E+1
   2.88723E+1  -1.09274E+2
  -1.70598E+2   1.33372E+1
   1.29121E+2  -1.40200E+1
   4.74617E+1   6.89284E+1
  -2.23433E+2  -9.83070E+1
  -1.16799E+2  -2.79555E+0
  -6.10393E+1  -1.76061E+2
  -1.45526E+2   4.04832E+1
   2.15540E+0  -1.79453E+2
   6.73810E+1   9.28414E+1
   7.82848E+1   8.74001E+1
  -1.02556E+2  -3.94735E+0
   1.28251E+2  -9.81890E+1
