 
 $NMID
 ID=''
 FMTDAT='(2E13.5)'
 TRAMP=   1.00000E+0
 VOLUME=   1.00000E+0
 $END
   1.93557E+4  -6.71685E+3
   1.83140E+4  -3.09946E+4
  -3.01910E+4  -2.15771E+4
  -1.38675E+4   3.00326E+4
   3.34228E+4   1.90433E+4
   1.17497E+4  -2.83282E+4
  -2.65377E+4  -1.37761E+4
  -5.98667E+3   2.04713E+4
   2.06463E+4   7.30741E+3
   6.76061E+3  -1.22845E+4
  -1.02939E+4  -2.14769E+3
  -4.28089E+3   9.12870E+3
   7.51226E+3   3.38175E+3
   3.95742E+3  -3.79555E+3
  -7.73672E+3  -1.70022E+3
  -5.14062E+3   2.73001E+3
   5.83540E+3   1.07333E+3
   3.56625E+3  -1.83719E+3
  -3.18160E+3  -4.47756E+2
  -7.95904E+2   5.59385E+2
   1.36773E+3  -3.77855E+2
  -2.87087E+1  -9.25298E+2
  -1.09244E+1  -1.09434E+3
   1.56708E+2   2.07581E+2
  -1.16285E+3   7.13448E+2
  -3.68013E+2  -1.55521E+3
   1.03978E+3  -1.05212E+3
   6.72696E+2   2.32431E+3
  -6.22337E+2   6.14582E+2
  -5.70674E+2  -1.51237E+3
   6.33976E+2   1.66818E+2
   5.70313E+2   1.40849E+3
  -5.25618E+2   2.78789E+1
  -1.41935E+3   8.26596E+1
  -1.86538E+3  -2.09094E+1
  -1.05730E+3  -1.52130E+3
   1.25168E+3  -1.12839E+3
   1.37529E+3   8.91915E+2
  -4.83529E+2   8.34107E+2
  -5.70012E+2  -1.19081E+2
   5.81931E+1   5.44494E+2
  -6.57492E+2   1.08690E+3
  -7.92984E+2  -5.65688E+2
  -6.80140E+2  -1.43687E+3
   8.90672E+1  -1.20462E+3
   1.54848E+3  -7.02647E+1
   1.83230E+3   8.01784E+2
  -3.36336E+2   1.41732E+3
  -1.95113E+3   9.14958E+2
  -6.53557E+2   3.22108E+2
  -1.99677E+2  -1.07587E+2
  -9.01779E+2  -3.68184E+2
  -4.10838E+2  -5.70319E+2
   1.00831E+3  -4.25474E+2
   7.57395E+2  -7.09224E+1
  -3.61957E+2   1.73273E+2
  -3.58534E+2   1.07441E+3
  -1.14206E+2   8.03598E+2
  -8.77208E+2  -7.43330E+2
  -8.55000E+2  -1.25857E+3
  -8.70537E+1  -7.39066E+2
   1.27369E+3  -1.61953E+2
   1.02733E+3   2.10564E+2
   3.76491E+2   9.85200E+2
  -4.93429E+1   1.34809E+3
  -5.02429E+2   1.26296E+3
  -1.32074E+3   1.58165E+2
  -1.82360E+3  -7.51254E+2
  -2.05888E+1  -1.06280E+3
   1.35603E+3   2.15744E+2
  -1.66761E+2   7.68695E+2
  -1.45259E+3  -1.62010E+2
   5.28843E+1  -9.63278E+2
   1.42942E+3  -2.33556E+2
   1.61447E+2   6.05842E+2
  -7.84605E+2   1.11410E+2
   1.04199E+2  -4.38445E+2
   8.63910E+2  -1.97259E+2
   1.45667E+2   5.88327E+2
  -1.97077E+2   7.12042E+2
   1.92333E+2   4.09567E+2
   2.38865E+2  -1.54780E+2
  -5.02753E+2  -7.58799E+1
  -1.75149E+2  -2.19898E+2
   1.67274E+2  -8.30603E+1
   8.70968E+0  -4.98965E+2
  -3.89784E+2  -6.17799E+2
   9.87753E+1  -3.58004E+2
   3.63097E+2  -1.03872E+2
   3.55681E+1  -1.76249E+2
  -2.13994E+2  -6.70938E+2
   6.17081E+2  -3.97732E+2
   1.00964E+3  -1.01419E+2
   1.56668E+2   6.64492E+2
  -6.04663E+2   6.59474E+2
  -7.89116E+2  -7.42084E+1
   6.70670E+1  -4.52483E+2
   1.65602E+2   2.02911E+2
  -7.48827E+2   5.69047E+1
  -5.02732E+2  -5.96084E+2
   4.10621E+2  -9.33804E+2
   8.81151E+2  -1.23982E+2
   1.21843E+2   3.59417E+2
  -5.58591E+2   3.68764E+2
  -4.92490E+2  -1.84597E+2
   8.87119E+0  -7.74478E+2
   6.22272E+2  -5.38161E+2
   4.86838E+2   6.97685E+2
  -5.52393E+2   9.18754E+2
  -9.44842E+2  -4.01729E+2
  -5.51122E+2  -9.36175E+2
   3.53605E+2  -4.26998E+2
   5.54548E+2   6.19538E+1
   1.18168E+2  -4.01489E+2
  -4.17462E+1  -3.09318E+2
   1.78892E+2   1.01450E+2
   5.40565E+2   7.80515E+2
  -3.46578E+2   6.63368E+2
  -8.51205E+2   1.71888E+2
  -9.00042E+2  -4.29482E+2
  -4.85274E+1  -4.23346E+2
  -1.04002E+1  -5.91994E+2
   2.34192E+2  -1.58379E+2
  -4.74142E+1  -1.62785E+2
   6.00656E+2   3.62392E+2
   5.00995E+1   2.37450E+2
  -3.55384E+2  -2.18168E+2
  -1.61247E+2  -2.14964E+2
  -9.24757E+1  -1.96568E+2
   2.56864E+2  -1.54914E+2
   6.26109E+2   5.38254E+1
   3.16293E+2   4.47154E+2
  -7.78877E+1   5.58354E+2
  -2.42583E+2   9.28286E+0
   2.59536E+2   1.31148E+2
  -8.78802E+1   5.12437E+1
  -1.81078E+2  -2.92903E+2
  -2.17799E+1  -2.47906E+2
   6.52264E+2  -3.56512E+2
   4.42055E+2   2.86349E+2
   5.90544E+1   4.84202E+2
  -1.62224E+2  -8.05873E+1
  -2.48932E+2  -7.39554E+2
   9.72660E+1  -6.09267E+2
   7.65185E+2  -3.23184E+1
   4.84307E+2   8.50838E+1
   1.43640E+2   1.33758E+2
   2.72043E+2   1.81469E+2
   7.38379E+1   1.73406E+2
  -1.00515E+2   1.33602E+2
  -2.83462E+2   6.02686E+1
  -3.36056E+2  -2.59783E+2
  -1.71270E+2  -3.90249E+2
   2.42187E+2  -3.47918E+2
   3.80815E+1  -6.66724E+1
   1.36654E+2   1.25501E+2
  -2.51028E+0  -2.44403E+2
   1.94836E+2  -5.20880E+2
   9.62198E+1  -1.30341E+2
   2.68760E+2   7.95040E+1
   2.23840E+2   5.97179E+0
   2.91948E+2  -2.42320E+2
   7.66421E+1   4.97838E+1
   8.96732E+1   1.97309E+2
  -2.48946E+2   9.87747E+1
  -2.53392E+2  -3.80001E+2
  -3.12038E+1  -4.51086E+2
   5.56253E+1  -8.87094E+1
   1.39274E+2   5.81360E+1
  -2.20774E+2  -7.53405E+0
  -6.60588E+1  -2.60203E+2
   9.39739E+1  -1.74826E+1
   1.87702E+2   1.83383E+1
   8.07241E+1  -1.76262E+2
  -2.36307E+2   3.27343E+1
  -2.10312E+2  -2.75164E+2
  -1.72010E+1   7.15216E+1
  -4.41729E+1  -1.06771E+2
  -2.17234E+2  -6.43635E+1
  -2.40399E+2  -1.65318E+2
   5.81838E+1  -1.91453E+2
   3.86879E+2  -5.26262E+1
   2.52588E+2   1.04243E+2
  -7.64752E+1   2.03579E+2
  -1.59597E+2  -4.71778E+1
   7.62340E+1   4.32954E+1
  -1.12191E+2  -5.09304E+0
  -1.97914E+2   1.08400E+2
  -3.19638E+2  -1.51732E+2
  -1.83122E+2  -4.28856E+2
   3.12286E+2  -3.74250E+2
   6.52898E+2   2.14232E+2
   3.54039E+2   2.94021E+2
  -1.16166E+2   2.05958E+2
  -1.49051E+2  -4.13655E+1
   1.49697E+2   1.19257E+1
  -3.69679E+1  -1.90873E+2
   5.33568E+1  -1.82769E+2
   1.07618E+2  -5.56239E+1
   3.03023E+2  -5.47751E+1
   1.32941E+1   1.16158E+2
   5.79383E+1   2.98267E+2
  -3.03017E+2  -2.03288E+1
  -2.25714E+2  -2.81372E+2
   2.84385E+2  -1.99488E+2
   2.49084E+1   1.88088E+1
   6.28581E+1   9.07815E+0
  -1.06788E+2   9.32909E+0
  -1.58250E+1  -1.48441E+2
   6.07881E+1   1.98860E+2
  -2.29748E+2   1.81996E+2
  -4.92968E+0  -2.35560E+2
  -4.48147E+1  -3.67714E+2
   1.85558E+2  -3.09532E+2
   2.98555E+2   2.93588E+2
   1.23409E+2   7.59171E+1
  -8.09177E+1   9.21190E+1
  -1.92164E+2  -1.72886E+2
   2.95723E+1   1.33195E+1
  -6.57194E+1   5.89062E+1
  -2.04616E+2  -3.37045E+2
  -2.30234E+2  -1.00323E+2
   1.13690E+2   6.67018E+1
  -4.11818E+1   4.45361E+1
   1.68672E+2   8.80051E+1
  -2.66447E+2  -2.34250E+1
  -6.07408E+1  -8.30346E+1
   1.38991E+1  -3.07107E+2
   1.79758E+2  -3.47264E+1
   3.13550E+2   1.60859E+2
  -1.70536E+2   8.15151E+1
  -1.30580E+2   1.78703E+1
   2.25057E+2  -1.60070E+2
   1.13799E+2  -1.11817E+1
  -1.88683E+2   6.43906E+1
  -8.32423E+1  -1.10994E+2
   8.90542E+0  -4.79720E+1
   1.40991E+2  -4.13137E+0
   1.19872E+2  -1.85858E+1
  -1.20113E+2  -4.53319E+1
  -6.11958E+1  -1.81165E+2
   5.26522E+1   5.28886E+1
   2.33399E+2  -3.77056E+1
   4.08060E+2   2.00279E+2
  -4.12789E+1   1.05174E+2
  -1.15205E+2  -6.99852E+1
   4.37645E+1   1.09269E+2
   2.30472E+2   1.56814E+2
  -5.33835E+1  -9.22449E-1
  -6.10338E+1  -5.76238E+1
  -1.78146E+2  -3.62251E+2
   1.66365E+2  -1.17940E+2
  -4.76501E+1   1.13061E+2
  -3.04097E+2   9.52791E+1
  -1.13823E+2  -3.57109E+0
  -6.59183E+1  -3.38390E+2
   5.53900E+1   4.94157E+0
   1.54817E+2  -6.91603E+1
   1.36464E+2  -1.01651E+2
   2.75074E+2   3.94851E+1
   7.04295E+1   2.24074E+2
   4.27250E+1   1.92528E+2
   9.74963E+0   4.82456E+2
  -2.25122E+2   1.62190E+2
  -2.76466E+2  -1.35035E+2
   4.04087E+2  -2.08210E+2
   1.02517E+2   1.71798E+2
   3.35628E+1  -6.47833E+1
  -6.59341E+1   4.99507E+1
  -2.70132E+2  -5.03516E+1
  -1.37646E+1  -2.25465E+1
  -1.77959E+2   1.54917E+1
  -8.89005E+1  -1.20721E+2
   3.66341E+1  -3.81225E+2
   9.46788E+1  -4.36426E+1
   1.57196E+1   2.54362E+1
   7.00168E+1   1.06084E+2
  -4.42866E+1  -3.24558E+2
  -2.68452E+2   1.96174E+1
   1.89470E+2   5.68810E+1
   1.29952E+2  -2.03716E+1
  -1.59286E-1   1.76824E+2
  -1.55924E+1  -5.48392E+1
  -1.16661E+2   9.56558E+1
   1.17601E+2  -3.22525E+1
   6.20267E-1   2.13444E+2
  -2.60010E+2   9.36991E+1
   9.06930E+0  -5.84110E+1
  -1.43928E+2  -1.78607E+2
   3.70707E+2   4.29200E-1
   1.45944E+2   3.33206E+1
  -1.26949E+2  -1.05082E+1
  -1.26284E+2  -9.20650E+1
   1.52463E+2  -1.06508E+2
   7.53264E+1   7.32759E+1
  -1.54354E+2   1.54796E+2
   7.20447E+1   4.11136E+1
  -4.62334E+1  -3.26380E+1
   2.35553E+2  -5.16660E+1
   5.17694E+1  -3.15339E+1
   1.28772E+2  -1.71198E+2
   2.31149E+2   8.41491E+0
   2.92491E+2  -1.36953E+2
   1.50456E+1  -1.08656E+2
   3.62235E+1   2.60692E+2
   3.38855E+1   2.96510E+1
   1.01061E+2  -1.33512E+2
   1.02491E+1  -1.12157E+2
   2.05567E+2  -6.92932E+1
  -1.25292E+2   9.57395E+1
   1.24499E+0  -7.32947E+0
   2.56022E+1  -2.62246E+2
   1.07772E+2  -6.55589E+0
   2.38569E+2   1.02830E+2
  -2.93495E+2  -1.12884E+2
  -2.40690E+2  -7.51037E+1
  -4.44281E+1  -5.15722E+1
  -2.63994E+2   1.45210E+2
  -2.05628E+2   7.50428E+1
  -1.00835E+2   1.24222E+2
   1.33633E+2   6.47892E+1
   8.01564E+1  -1.26039E+2
   4.56314E+1   8.70440E+1
  -1.33082E+2   2.33089E+2
  -1.78676E+2   1.10861E+1
  -2.67387E+2  -2.86999E+2
   6.63771E+1  -1.14203E+2
  -9.63514E+1  -4.43577E+1
  -1.50928E+2   1.34357E+2
  -1.24508E+2   1.00799E+2
  -8.41194E+1  -8.87538E+1
  -1.06369E+2  -1.58565E+2
  -4.09015E+0  -1.57019E+2
  -1.59143E+2  -3.86201E+2
  -1.86305E+2  -1.89038E+2
   1.40527E+2   1.33013E+2
   1.24162E+2  -9.85882E+1
  -3.36049E+2   1.03202E+2
  -1.07315E+2   3.58819E+1
  -3.62013E+1  -3.80290E+2
  -5.97608E+1   2.63038E+1
  -3.48931E+1  -3.76014E+0
  -5.42485E+1  -1.06670E+2
  -9.12478E+1   4.63971E+1
  -1.07887E+2  -1.46441E+2
  -9.43905E+1  -7.37840E+1
  -2.48837E+2  -1.96339E+2
  -1.30559E+2  -8.92501E+1
  -2.03598E+0   1.52001E+2
   1.54403E+2  -4.97023E+1
   5.21288E+1  -3.88611E+1
  -2.03990E+2  -1.94206E+2
  -5.90998E+1  -7.44843E+1
  -3.31153E+1  -4.63785E+0
   3.66904E+1   1.02059E+2
  -3.52043E+1   5.62491E+0
  -1.23729E+2   9.96995E+1
  -1.33788E+2   1.14739E+2
   4.74803E+1  -2.58950E+2
   1.09489E+2  -1.40791E+2
   8.31157E+0   1.29107E+2
  -3.57371E+2   1.17753E+2
  -2.11203E+2  -1.44408E+1
   1.10139E+2  -4.03041E+1
  -1.39087E+1  -8.00204E+1
   3.21799E+1   2.08883E+2
  -1.08535E+2  -1.21154E+2
