 
 $NMID
 ID=''
 FMTDAT='(2E13.5)'
 TRAMP=   1.00000E+0
 VOLUME=   1.00000E+0
 $END
   2.34196E+4  -8.66667E+3
   1.84783E+4  -2.88922E+4
  -2.44838E+4  -1.61446E+4
  -1.40907E+4   3.00751E+4
   2.63920E+4   1.25008E+4
   9.14968E+3  -2.80729E+4
  -2.32969E+4  -4.32801E+3
  -1.88448E+3   2.25798E+4
   1.96394E+4   1.62475E+3
  -1.25657E+3  -1.11648E+4
  -1.65986E+4   3.03237E+3
  -1.27651E+3   6.96927E+3
   9.61083E+3  -4.16047E+2
  -1.23062E+3  -2.72395E+3
  -8.75732E+3  -1.69948E+3
   2.16973E+3  -2.59588E+1
   8.20868E+3   7.22307E+2
  -1.33710E+3   3.63721E+2
  -5.08054E+3   6.67554E+2
   2.12275E+3  -3.33404E+2
   3.09476E+3  -1.59087E+3
  -4.94567E+2   6.09039E+2
  -2.98416E+2   2.14188E+3
   7.86899E+1  -9.42700E+2
  -1.80229E+2  -2.36021E+3
   1.09963E+3   1.42584E+3
   2.16596E+2   3.38042E+3
  -1.23416E+3   1.53967E+2
   3.18662E+2  -1.85672E+3
   8.02817E+2   9.93290E+2
  -1.34192E+3   1.68927E+3
  -1.25577E+3  -7.52932E+2
   2.57114E+2  -9.69845E+2
  -3.14729E+2  -2.93869E+2
   1.29144E+2  -2.08419E+3
   2.33716E+3  -1.08225E+3
   1.55745E+3   2.72635E+3
  -1.42678E+3   2.11378E+3
  -1.11905E+3  -1.13727E+3
   6.69754E+2  -2.97517E+2
  -5.66491E+2   6.13459E+2
  -1.37739E+3  -1.01621E+3
   1.10825E+3  -1.14967E+3
   2.29504E+3   3.89682E+2
   7.26441E+2   1.47633E+3
  -1.87918E+2   1.78808E+3
  -7.39074E+2   1.28007E+3
  -1.67596E+3  -2.69387E+2
  -9.42644E+2  -1.85750E+3
   6.48694E+2  -1.22033E+3
   1.05009E+3  -5.16790E+2
   9.80604E+2  -5.67046E+2
   6.39449E+2  -2.66816E+2
   4.42168E+2   8.31367E+2
   5.18186E+2   6.73613E+2
  -1.08718E+1   1.72890E+2
  -1.21450E+3  -2.73859E+1
  -2.09644E+2  -9.46972E+2
   1.51297E+3  -1.18918E+3
   1.51828E+3   4.48237E+2
   1.23847E+2   1.44386E+3
   1.87081E+2   1.11512E+3
   1.30794E+2   1.00961E+3
  -1.20060E+3   4.92704E+2
  -2.11742E+3  -7.04526E+2
  -7.70824E+2  -1.66723E+3
   1.46856E+3  -2.00907E+3
   1.65660E+3  -6.42829E+2
   8.27001E+2   4.78541E+2
  -2.30232E+2   8.03068E+2
  -9.69764E+1  -3.75720E+2
   1.06240E+3  -6.90972E+2
   3.75226E+2   6.91379E+2
  -3.19792E+2   9.26870E+2
  -2.28039E+2  -5.41138E+1
   1.84231E+2  -6.40909E+2
   1.23525E+1   1.04973E+2
  -2.24948E+2   7.08597E+2
   2.37949E+2   1.32589E+2
  -2.37794E+2  -3.56947E+2
  -6.70275E+2  -7.27191E+2
   9.10352E+1  -4.90425E+2
   6.77804E+2   6.27181E+1
   7.23335E+1  -1.52958E+2
  -2.37585E+2  -5.57983E+2
   3.68637E+2  -6.29431E+2
   1.08812E+3  -2.19074E+2
   1.98959E+2   4.76833E+2
  -3.36630E+2   2.57588E+2
   1.74493E+2   1.11593E+2
   7.49600E+2   4.37518E+2
  -1.27749E+2   9.14374E+2
  -1.44740E+3   3.88095E+2
  -1.09402E+3  -5.91806E+2
  -7.02631E+1  -1.05907E+3
   7.13400E+2  -7.92854E+2
   5.20694E+2  -1.19836E+2
  -2.27590E+1  -1.30395E+2
   1.56449E+2  -2.29569E+2
   7.73477E+2  -4.52203E+1
   3.07377E+2   6.03602E+2
  -5.50227E+2   5.15078E+2
  -9.43883E+2  -5.80384E+1
  -3.81211E+2  -1.03154E+3
   6.29451E+2  -6.90805E+2
   4.66173E+2   4.87459E+2
  -5.46447E+2   6.98154E+2
  -1.01031E+3  -2.82884E+2
   3.29722E+1  -1.24538E+3
   1.11997E+3  -5.89908E+2
   1.13288E+3   6.22478E+2
  -2.11615E+1   1.11713E+3
  -2.92780E+2   5.07937E+2
  -1.00411E+2   2.19066E+2
  -3.08251E+2   4.12144E+2
  -9.61847E+2   8.45652E+1
  -1.10910E+3  -1.61770E+2
  -5.85111E+2  -1.07701E+3
   5.21899E+2  -1.00813E+3
   8.54544E+2  -5.01750E+2
   8.10556E+2   3.31360E+2
   3.64870E+2   6.56133E+2
  -2.27042E+1   4.50553E+2
  -4.05557E+2   3.81728E+2
  -7.98944E+2   2.68519E+2
  -3.11454E+2  -9.05174E+1
  -2.14509E+2  -1.50520E+2
   3.64723E+2  -2.56364E+2
   4.93738E+2  -1.17196E+2
  -1.65182E+2   7.12196E+2
  -7.08667E+2   2.54056E+2
  -2.70789E+2  -6.00082E+2
   2.17112E+2  -4.98603E+2
   2.45171E+2   3.91879E+0
  -2.97406E+2  -1.88805E+2
   1.91973E+2  -4.78204E+2
   3.97031E+2  -1.07336E+2
   3.31837E+2   5.21076E+2
  -4.08690E+2   2.41139E+2
  -4.36247E+2  -1.49874E+2
  -5.56931E+2  -4.08428E+2
   1.06710E+2  -5.05600E+2
   8.39977E+2   3.84449E+1
   1.99118E+2   8.95016E+2
  -7.15377E+2   6.67153E+2
  -7.02067E+2  -1.61461E+2
  -3.08355E+2  -4.05341E+2
  -3.81055E+1  -2.36112E+2
  -3.05655E+2  -1.95356E+2
  -3.25325E+2  -5.17859E+2
   6.15499E+1  -6.61850E+2
   6.19394E+2  -3.89008E+2
   4.57818E+2   3.83259E+2
  -3.41881E+2   5.89831E+2
  -6.03359E+2   2.37580E+2
   1.47392E+2  -1.47953E+1
   6.04032E+1   3.79921E+2
  -1.52046E+2   4.84291E+2
  -4.12564E+1   2.10100E+2
  -2.07889E+1   2.85565E+1
  -2.21897E+2   2.35619E+2
  -6.35768E+2  -4.49231E+1
  -4.17571E+2  -5.73994E+2
  -4.00741E+1  -3.95971E+2
   2.11544E+1  -3.64432E+2
   4.57988E+2  -2.57014E+1
   4.47864E+2   3.69295E+2
   7.52935E+0   2.22196E+2
  -2.93060E+2  -7.62568E+1
   1.53074E+2  -1.69818E+2
   3.85170E+2   9.73845E+1
   8.32441E+1   3.33653E+2
  -3.05380E+2   1.11910E+1
  -6.81427E+1   6.67131E+1
   5.38197E+2  -2.01874E+2
   2.72505E+2   2.89152E+2
  -3.92756E+2   4.98814E+2
  -5.00373E+2  -1.01428E+2
  -5.77257E+1  -2.70126E+2
   5.63476E+2   2.68800E+2
   1.07997E+2   3.75541E+2
  -3.56477E+2   3.93419E+2
  -5.59659E+2   1.05026E+1
  -1.12810E+2  -3.10993E+2
  -2.87654E+0  -4.13727E+2
  -1.46983E+2  -3.20180E+2
   2.28010E-1  -2.75946E+2
   3.34851E+2  -2.31122E+2
   5.64810E+2   1.92613E+2
   3.46119E+2   8.01123E+2
  -1.64419E+2   7.83011E+2
  -8.94277E+2   1.28185E+2
  -5.50705E+2  -5.15721E+2
   2.16195E+2  -3.43917E+2
   4.50459E+2  -1.24445E+2
   1.40965E+1   3.61860E+1
  -2.30392E+2   1.77648E+2
   2.08176E+2   3.68046E+2
   8.83713E+1   1.96714E+2
  -4.44085E+2   2.80123E+2
  -4.45617E+2  -3.21268E+2
   2.15864E+2  -6.70620E+2
   4.39061E+2  -2.38852E+2
   2.58896E+2   2.64599E+2
  -1.86206E+1   2.19200E+2
  -1.67483E+2  -1.39681E+1
  -2.31953E+2  -3.80764E+2
   1.82736E+2  -3.73666E+1
   6.03616E+1   1.61335E+2
  -1.62978E+2   3.74259E+2
  -1.65075E+2  -2.20080E+2
   2.93765E+2  -6.57865E+1
   2.83533E+2   5.05488E+2
  -7.26245E+1   6.39700E+2
  -7.32083E+2   1.78749E+2
  -3.20999E+2  -5.47593E+2
  -6.28720E+1  -5.21193E+2
   4.66164E+2   5.53806E+1
   4.70856E+2   2.05999E+2
   6.18586E+1   5.99847E+1
   3.32730E+1  -2.18611E+2
   1.65076E+2   2.37164E+2
   3.48275E+1   6.90750E+2
  -5.75819E+2  -7.13154E+1
  -3.47036E+2  -2.01984E+2
   7.80444E+1  -4.01536E+2
   3.57782E+2   1.91200E+1
  -7.75314E+1   3.55938E+2
  -2.29227E+2   1.90339E+2
  -2.62335E+2  -1.34650E+2
   5.06072E+1  -1.91574E+2
   9.89251E+1   1.61903E+2
   5.23662E+1  -1.76035E+2
  -1.28108E+2  -1.97648E+2
  -1.28281E+2  -1.87353E+2
  -4.05604E+1   5.60631E+1
   9.66032E+1   3.79115E+2
  -2.02140E+2   9.69020E+1
  -3.19662E+2  -3.76043E+1
   4.77788E+1  -5.85046E+1
   2.78327E+2  -1.59118E+1
  -2.03025E+1   3.63676E+2
  -4.47691E+2   7.28631E+0
  -2.02076E+2  -2.56322E+2
   1.39176E+0  -2.93474E+2
   4.43222E+1   7.36794E+1
  -1.65426E+2   2.78194E+2
  -1.79859E+2   9.73629E+0
  -1.48706E+1  -3.27892E+2
   4.67692E+2   1.34649E+2
   3.32304E+0   2.57331E+2
  -3.21103E+2   1.67158E+2
  -1.88593E+2  -2.00486E+2
  -4.92292E+1  -4.35843E+2
   2.26869E+2  -2.41945E+2
   1.64647E+2   2.55482E+2
  -1.18134E+2   3.51527E+2
   7.55422E+1   1.48563E+2
  -9.25348E+1  -6.66221E+0
   4.98454E+1   2.73194E+2
  -4.78609E+2   3.13021E+2
  -3.30906E+2  -1.76269E+2
  -1.13460E+2  -6.22253E+2
   3.29813E+2  -9.25839E+1
   2.93905E+2   2.11789E+2
   4.65669E+1   5.03552E+2
  -4.38686E+2   5.11321E+1
  -3.32073E+2  -3.15556E+2
   8.12824E+0  -1.49122E+2
   1.55006E+2  -1.50838E+1
  -3.03729E+0   1.34140E+2
  -1.45722E+2   4.65528E+1
   1.31448E+2  -2.87523E+2
   1.56072E+2   4.14408E+2
  -1.52762E+2   2.97220E+2
  -3.70461E+2  -1.28990E+2
  -1.02877E+2  -2.06426E+2
   1.78059E+2  -2.16518E+2
   2.33046E+2  -6.36053E+1
   1.57194E+2   3.00707E+2
  -3.85704E+1   1.91780E+2
  -5.31212E+1  -1.40350E+2
  -4.79125E+1   1.43998E+2
   2.28993E+1   2.40977E+2
  -3.87056E+2  -1.79201E+2
  -2.67527E+2  -5.17702E+2
   2.69665E+2  -4.22943E+2
   2.92173E+2  -2.39344E+1
   2.82549E+2   4.37224E+2
  -1.83414E+2   2.64418E+2
  -1.37506E+2  -7.97677E+1
   9.52515E+0  -2.00734E+2
   8.66132E+1  -1.79379E+2
   1.50291E+2   1.40126E+2
  -2.36754E+2  -4.14071E+1
   1.28130E+2  -1.05393E+2
  -1.16599E-1  -1.01105E+1
   1.16754E+2   1.12741E+2
  -3.81674E+2   1.25772E+2
  -1.69002E+2   8.14603E+0
   1.05956E+2  -1.95995E+2
   4.33040E+2   2.74773E+2
   2.37716E+1   3.26101E+2
  -3.69282E+2   6.18832E+1
  -7.96544E+1  -1.32355E+2
   1.17841E+2  -2.01524E+2
   1.49502E+2  -3.11183E+2
   6.39782E+1   1.81865E+2
   3.01468E+1   6.48193E+1
   9.64208E-2   9.52701E+0
   2.39965E+2   1.71924E+2
   4.98906E+1   3.81911E+2
  -1.64175E+2   3.89458E+2
  -2.29338E+2   6.42702E+1
  -4.60742E+1  -3.67924E+2
   2.41673E+2  -1.49421E+2
   4.53248E+0  -8.65780E+1
   2.49677E+0   1.68267E+1
  -4.07527E+1  -1.60682E+2
  -1.44769E+2  -2.65318E+2
   3.27775E+1   1.31282E+2
  -9.29482E+1   4.16142E+1
  -7.33014E+1  -1.48026E+2
   7.01332E+1  -1.37507E+2
   1.98192E+2  -1.48838E+2
  -1.03068E+2   4.11661E+2
  -1.36298E+2   2.60154E+2
  -1.47060E+2  -1.18321E+2
  -6.91805E+1  -2.55323E+2
  -5.28571E+0  -1.72295E+2
  -4.75693E+1   1.76082E+2
   2.08466E+2  -6.50369E+1
  -4.21206E+1  -1.38354E+1
   3.26789E+1   6.91921E+1
   1.97706E+2   4.82303E+2
  -2.85693E+2   2.72645E+2
  -4.58724E+2  -5.57727E+1
   1.33384E+1  -3.43485E+2
   1.46952E+1  -2.78008E+2
   1.52375E+2   7.82199E+1
  -8.76090E+1   2.05034E+2
  -2.81933E+2  -2.97858E+1
   2.99810E+1  -1.22589E+1
   6.90674E+1  -4.03052E+1
   2.37688E+2   9.30334E+1
  -1.76056E+2  -4.41738E+1
   2.20737E+2  -7.01275E+1
   3.48503E+2  -9.70431E+1
   2.35723E+2   1.79254E+2
  -1.83958E+2   5.17172E+1
  -1.37648E+2  -4.33882E+1
  -6.13922E+1  -3.26003E+2
  -7.57579E+1  -5.13734E+2
   8.81400E+1   1.03861E+2
   3.11089E-1  -1.56172E+1
  -4.27259E+1  -1.49175E+2
   7.21685E+1  -2.19163E+2
   3.39387E+2   1.29821E+2
  -2.91157E+1   9.54601E+1
  -2.28952E+2   1.37194E+2
  -1.52124E+2  -2.64638E+2
   2.25977E+2  -3.08923E+2
   2.85513E+2  -1.06638E+2
  -1.57519E+2   2.17819E+2
  -7.11421E+1   1.04873E+2
  -1.14186E+2  -1.01109E+2
  -1.73070E+2   6.82269E+1
