 
 $NMID
 ID=''
 FMTDAT='(2E13.5)'
 TRAMP=   1.00000E+0
 VOLUME=   1.00000E+0
 $END
   2.68352E+5   7.23381E+5
  -6.29063E+4   2.10700E+6
   1.63080E+5   2.08360E+6
   5.49438E+4   1.94504E+6
  -3.70298E+4   2.00293E+6
  -1.30186E+4   1.99685E+6
  -4.14116E+4   1.95434E+6
  -7.63985E+4   1.96225E+6
  -9.91710E+4   1.92676E+6
  -1.60054E+5   1.91235E+6
  -1.81556E+5   1.91723E+6
  -2.03129E+5   1.86811E+6
  -2.62349E+5   1.84853E+6
  -2.84728E+5   1.85413E+6
  -3.06906E+5   1.81045E+6
  -3.56666E+5   1.78490E+6
  -3.80511E+5   1.78689E+6
  -4.04723E+5   1.75274E+6
  -4.49059E+5   1.72757E+6
  -4.66236E+5   1.71963E+6
  -4.90522E+5   1.68717E+6
  -5.29173E+5   1.66646E+6
  -5.46992E+5   1.65311E+6
  -5.70779E+5   1.62068E+6
  -6.09336E+5   1.59562E+6
  -6.21902E+5   1.58093E+6
  -6.43181E+5   1.55242E+6
  -6.76596E+5   1.52906E+6
  -6.96695E+5   1.50575E+6
  -7.13888E+5   1.47702E+6
  -7.43017E+5   1.45627E+6
  -7.60077E+5   1.43483E+6
  -7.78788E+5   1.40547E+6
  -8.01135E+5   1.38310E+6
  -8.14744E+5   1.36140E+6
  -8.29139E+5   1.33728E+6
  -8.50002E+5   1.31853E+6
  -8.67198E+5   1.29623E+6
  -8.80983E+5   1.26735E+6
  -8.97007E+5   1.24550E+6
  -9.11829E+5   1.22201E+6
  -9.25243E+5   1.19489E+6
  -9.35542E+5   1.17085E+6
  -9.47475E+5   1.14929E+6
  -9.61381E+5   1.12411E+6
  -9.74510E+5   1.10032E+6
  -9.86114E+5   1.07591E+6
  -9.99376E+5   1.04975E+6
  -1.00842E+6   1.02340E+6
  -1.01697E+6   9.98793E+5
  -1.02753E+6   9.75672E+5
  -1.03681E+6   9.52885E+5
  -1.04482E+6   9.28687E+5
  -1.05399E+6   9.04824E+5
  -1.06179E+6   8.81077E+5
  -1.06880E+6   8.56029E+5
  -1.07581E+6   8.30104E+5
  -1.08086E+6   8.05490E+5
  -1.08326E+6   7.81940E+5
  -1.08861E+6   7.59249E+5
  -1.09435E+6   7.34918E+5
  -1.09842E+6   7.10751E+5
  -1.10164E+6   6.87471E+5
  -1.10541E+6   6.63237E+5
  -1.10717E+6   6.37674E+5
  -1.10714E+6   6.13415E+5
  -1.10720E+6   5.90612E+5
  -1.10774E+6   5.67590E+5
  -1.10923E+6   5.44789E+5
  -1.11032E+6   5.20335E+5
  -1.10963E+6   4.96747E+5
  -1.10797E+6   4.73748E+5
  -1.10711E+6   4.52222E+5
  -1.10647E+6   4.29681E+5
  -1.10435E+6   4.06515E+5
  -1.10110E+6   3.83659E+5
  -1.09893E+6   3.61719E+5
  -1.09613E+6   3.40002E+5
  -1.09284E+6   3.17402E+5
  -1.08874E+6   2.94746E+5
  -1.08433E+6   2.72605E+5
  -1.07948E+6   2.51086E+5
  -1.07492E+6   2.30171E+5
  -1.06979E+6   2.08255E+5
  -1.06413E+6   1.86089E+5
  -1.05750E+6   1.65646E+5
  -1.05145E+6   1.46039E+5
  -1.04552E+6   1.25865E+5
  -1.03821E+6   1.06154E+5
  -1.03079E+6   8.82213E+4
  -1.02290E+6   7.06728E+4
  -1.01556E+6   5.29730E+4
  -1.00810E+6   3.47784E+4
  -9.99280E+5   1.78841E+4
  -9.89543E+5   1.18851E+3
  -9.80381E+5  -1.45357E+4
  -9.72059E+5  -2.99352E+4
  -9.63589E+5  -4.57124E+4
  -9.53815E+5  -6.18483E+4
  -9.44063E+5  -7.62832E+4
  -9.34649E+5  -9.04063E+4
  -9.25257E+5  -1.05565E+5
  -9.14568E+5  -1.20163E+5
  -9.02746E+5  -1.33630E+5
  -8.92151E+5  -1.45383E+5
  -8.82344E+5  -1.57395E+5
  -8.72175E+5  -1.69915E+5
  -8.60550E+5  -1.82940E+5
  -8.48105E+5  -1.94123E+5
  -8.36486E+5  -2.03996E+5
  -8.26019E+5  -2.13971E+5
  -8.14919E+5  -2.25370E+5
  -8.03352E+5  -2.36957E+5
  -7.91558E+5  -2.47782E+5
  -7.78948E+5  -2.58033E+5
  -7.67075E+5  -2.68505E+5
  -7.54724E+5  -2.79070E+5
  -7.41339E+5  -2.88491E+5
  -7.28481E+5  -2.96487E+5
  -7.16363E+5  -3.04280E+5
  -7.04750E+5  -3.12558E+5
  -6.92900E+5  -3.20988E+5
  -6.80538E+5  -3.28991E+5
  -6.68124E+5  -3.36980E+5
  -6.55326E+5  -3.44627E+5
  -6.42014E+5  -3.51798E+5
  -6.28944E+5  -3.58231E+5
  -6.16414E+5  -3.65114E+5
  -6.03666E+5  -3.71516E+5
  -5.90931E+5  -3.78734E+5
  -5.77782E+5  -3.86247E+5
  -5.63729E+5  -3.93186E+5
  -5.49912E+5  -3.98727E+5
  -5.37126E+5  -4.03763E+5
  -5.24198E+5  -4.09432E+5
  -5.10751E+5  -4.14787E+5
  -4.97641E+5  -4.19109E+5
  -4.85316E+5  -4.23465E+5
  -4.72722E+5  -4.28427E+5
  -4.59439E+5  -4.32947E+5
  -4.46251E+5  -4.36691E+5
  -4.33520E+5  -4.39356E+5
  -4.21260E+5  -4.42133E+5
  -4.09054E+5  -4.45528E+5
  -3.97011E+5  -4.48516E+5
  -3.83810E+5  -4.51069E+5
  -3.71083E+5  -4.53136E+5
  -3.58450E+5  -4.54979E+5
  -3.46275E+5  -4.56647E+5
  -3.34548E+5  -4.57552E+5
  -3.22794E+5  -4.58583E+5
  -3.11361E+5  -4.59015E+5
  -3.00565E+5  -4.59475E+5
  -2.89875E+5  -4.60289E+5
  -2.78689E+5  -4.61094E+5
  -2.67579E+5  -4.60702E+5
  -2.57274E+5  -4.59705E+5
  -2.47079E+5  -4.59380E+5
  -2.36757E+5  -4.58621E+5
  -2.26350E+5  -4.57561E+5
  -2.16683E+5  -4.56575E+5
  -2.06729E+5  -4.55199E+5
  -1.96598E+5  -4.53785E+5
  -1.86932E+5  -4.51977E+5
  -1.77416E+5  -4.50015E+5
  -1.68746E+5  -4.47696E+5
  -1.60176E+5  -4.45852E+5
  -1.50881E+5  -4.43697E+5
  -1.42040E+5  -4.41504E+5
  -1.33792E+5  -4.38735E+5
  -1.25508E+5  -4.35826E+5
  -1.17640E+5  -4.33373E+5
  -1.09602E+5  -4.30496E+5
  -1.01416E+5  -4.27424E+5
  -9.36381E+4  -4.24170E+5
  -8.61514E+4  -4.21078E+5
  -7.84947E+4  -4.18345E+5
  -7.02988E+4  -4.14879E+5
  -6.29089E+4  -4.10708E+5
  -5.56235E+4  -4.07007E+5
  -4.87840E+4  -4.03799E+5
  -4.17356E+4  -4.00594E+5
  -3.43767E+4  -3.96562E+5
  -2.74565E+4  -3.92506E+5
  -2.05217E+4  -3.88517E+5
  -1.44071E+4  -3.84305E+5
  -8.04098E+3  -3.80065E+5
  -1.75688E+3  -3.75651E+5
   3.97046E+3  -3.71451E+5
   9.23864E+3  -3.67461E+5
   1.55189E+4  -3.63680E+5
   2.21916E+4  -3.59611E+5
   2.80805E+4  -3.54886E+5
   3.37659E+4  -3.49804E+5
   3.92577E+4  -3.45087E+5
   4.47426E+4  -3.40746E+5
   5.01844E+4  -3.36089E+5
   5.53892E+4  -3.31206E+5
   6.08410E+4  -3.26557E+5
   6.63329E+4  -3.21933E+5
   7.15499E+4  -3.16965E+5
   7.65494E+4  -3.11458E+5
   8.09436E+4  -3.06366E+5
   8.55084E+4  -3.01422E+5
   8.96267E+4  -2.96736E+5
   9.41759E+4  -2.91739E+5
   9.89343E+4  -2.86475E+5
   1.03057E+5  -2.81273E+5
   1.06930E+5  -2.76023E+5
   1.10720E+5  -2.70774E+5
   1.14966E+5  -2.65566E+5
   1.18104E+5  -2.60381E+5
   1.21454E+5  -2.55130E+5
   1.25196E+5  -2.50497E+5
   1.28824E+5  -2.45183E+5
   1.32170E+5  -2.39757E+5
   1.34619E+5  -2.34152E+5
   1.37187E+5  -2.28838E+5
   1.39826E+5  -2.24341E+5
   1.42148E+5  -2.19178E+5
   1.44719E+5  -2.13952E+5
   1.46307E+5  -2.08957E+5
   1.48792E+5  -2.04280E+5
   1.50760E+5  -1.99190E+5
   1.52704E+5  -1.94095E+5
   1.54420E+5  -1.89072E+5
   1.55584E+5  -1.83919E+5
   1.56832E+5  -1.79367E+5
   1.58606E+5  -1.74948E+5
   1.59912E+5  -1.69927E+5
   1.61122E+5  -1.65033E+5
   1.61984E+5  -1.60586E+5
   1.62554E+5  -1.56111E+5
   1.63729E+5  -1.51738E+5
   1.64135E+5  -1.47175E+5
   1.64410E+5  -1.42573E+5
   1.64756E+5  -1.38698E+5
   1.65289E+5  -1.34405E+5
   1.65635E+5  -1.30066E+5
   1.65616E+5  -1.25765E+5
   1.65588E+5  -1.21967E+5
   1.65866E+5  -1.18034E+5
   1.65679E+5  -1.14110E+5
   1.66057E+5  -1.09662E+5
   1.65522E+5  -1.05896E+5
   1.65049E+5  -1.02069E+5
   1.64879E+5  -9.80250E+4
   1.64723E+5  -9.44494E+4
   1.63877E+5  -9.04934E+4
   1.63222E+5  -8.67890E+4
   1.62644E+5  -8.34265E+4
   1.62290E+5  -7.99527E+4
   1.61815E+5  -7.62677E+4
   1.61008E+5  -7.25889E+4
   1.60239E+5  -6.88082E+4
   1.59293E+5  -6.58323E+4
   1.58551E+5  -6.26726E+4
   1.57586E+5  -5.90664E+4
   1.57095E+5  -5.54823E+4
   1.56060E+5  -5.23960E+4
   1.55190E+5  -4.90619E+4
   1.54245E+5  -4.52479E+4
   1.53094E+5  -4.20349E+4
   1.51783E+5  -3.88288E+4
   1.50316E+5  -3.61033E+4
   1.49743E+5  -3.32013E+4
   1.48876E+5  -2.99340E+4
   1.47468E+5  -2.67230E+4
   1.46237E+5  -2.39374E+4
   1.44800E+5  -2.13767E+4
   1.43418E+5  -1.87081E+4
   1.42039E+5  -1.58018E+4
   1.40478E+5  -1.32582E+4
   1.38978E+5  -1.05663E+4
   1.37965E+5  -8.11953E+3
   1.36667E+5  -5.25715E+3
   1.35087E+5  -2.35979E+3
   1.33511E+5  -2.25700E+2
   1.31603E+5   1.96781E+3
   1.30295E+5   4.13168E+3
   1.28951E+5   6.70815E+3
   1.27048E+5   9.12179E+3
   1.25544E+5   1.08739E+4
   1.23763E+5   1.29724E+4
   1.22329E+5   1.52435E+4
   1.20500E+5   1.73866E+4
   1.18735E+5   1.91635E+4
   1.16637E+5   2.06179E+4
   1.15291E+5   2.25004E+4
   1.13462E+5   2.41982E+4
   1.11772E+5   2.59544E+4
   1.10135E+5   2.78884E+4
   1.08128E+5   2.93989E+4
   1.06388E+5   3.07683E+4
   1.04830E+5   3.22227E+4
   1.02761E+5   3.38848E+4
   1.00871E+5   3.49533E+4
   9.93321E+4   3.61166E+4
   9.73250E+4   3.79394E+4
   9.55556E+4   3.93401E+4
   9.35909E+4   4.03603E+4
   9.16457E+4   4.13607E+4
   9.01569E+4   4.22334E+4
   8.84146E+4   4.35948E+4
   8.66936E+4   4.47676E+4
   8.46282E+4   4.56056E+4
   8.25996E+4   4.64422E+4
   8.08758E+4   4.73800E+4
   7.92085E+4   4.82353E+4
   7.73110E+4   4.91970E+4
   7.54266E+4   4.98543E+4
   7.39230E+4   5.07866E+4
   7.20858E+4   5.13558E+4
   7.04420E+4   5.22157E+4
   6.84494E+4   5.29370E+4
   6.65461E+4   5.33897E+4
   6.49157E+4   5.40068E+4
   6.35028E+4   5.45402E+4
   6.17975E+4   5.48948E+4
   5.98722E+4   5.54386E+4
   5.80507E+4   5.58352E+4
   5.68421E+4   5.61353E+4
   5.48872E+4   5.64489E+4
   5.35928E+4   5.70994E+4
   5.16207E+4   5.73193E+4
   5.01809E+4   5.74415E+4
   4.87497E+4   5.77855E+4
   4.71011E+4   5.80713E+4
   4.55988E+4   5.84983E+4
   4.37029E+4   5.86400E+4
   4.24505E+4   5.89488E+4
   4.10252E+4   5.86709E+4
   3.93583E+4   5.87431E+4
   3.79574E+4   5.88723E+4
   3.66954E+4   5.89632E+4
   3.51644E+4   5.88978E+4
   3.39029E+4   5.90490E+4
   3.22399E+4   5.90344E+4
   3.06159E+4   5.88146E+4
   2.93849E+4   5.85482E+4
   2.79500E+4   5.84819E+4
   2.67751E+4   5.81027E+4
   2.55229E+4   5.82523E+4
   2.42668E+4   5.82673E+4
   2.32068E+4   5.80461E+4
   2.17150E+4   5.77173E+4
   2.06576E+4   5.75392E+4
   1.92081E+4   5.69537E+4
   1.80511E+4   5.68221E+4
   1.71258E+4   5.64872E+4
   1.56187E+4   5.62725E+4
   1.46051E+4   5.60162E+4
   1.34627E+4   5.56466E+4
   1.24042E+4   5.52762E+4
   1.12813E+4   5.48556E+4
   1.04349E+4   5.44341E+4
   9.21845E+3   5.40554E+4
   8.34719E+3   5.33942E+4
   7.49614E+3   5.30437E+4
   6.49251E+3   5.27761E+4
   5.65055E+3   5.24448E+4
   4.30873E+3   5.19836E+4
   3.70469E+3   5.12412E+4
   3.04110E+3   5.07637E+4
   2.27931E+3   5.02345E+4
   1.25589E+3   4.99029E+4
   5.53999E+2   4.93367E+4
