 LCModel (Version 6.3-1N) Copyright: S.W. Provencher.          Ref.: Magn. Reson. Med. 30:672-679 (1993).                
 Slice_N1@14_10  28-Feb-2025 11:39:30
 27 lines in following concentration table = NCONC+1
    Conc.  %SD /Cr+PCr  Metabolite                                         
 3.45E-04   3% 3.4E-04 Mac                                                 
    2.456  52%   2.387 Cr                                                  
    5.777  22%   5.613 PCr                                                 
    5.401  14%   5.249 Ins                                                 
   12.056   6%  11.715 NAA                                                 
    5.014  14%   4.873 Tau                                                 
    0.595 144%   0.578 PCho                                                
    0.745 111%   0.724 GPC                                                 
   11.294   8%  10.975 Glu                                                 
    4.468  16%   4.341 Gln                                                 
    3.687  16%   3.583 Ala                                                 
    2.794  39%   2.715 Asc                                                 
    4.453  21%   4.327 Asp                                                 
    0.128 383%   0.125 GABA                                                
    0.991  72%   0.963 Glc                                                 
    1.803  25%   1.752 GSH                                                 
    0.318 176%   0.309 Lac                                                 
    2.841  20%   2.761 NAAG                                                
    1.082  87%   1.052 PE                                                  
    1.340  19%   1.302 GPC+PCho                                            
   14.896   5%  14.476 NAA+NAAG                                            
   15.762   7%  15.317 Glu+Gln                                             
    8.233   7%   8.000 Cr+PCr                                              
   14.896   5%  14.476 NAA+NAAG                                            
    8.233   7%   8.000 Cr+PCr                                              
   15.762   7%  15.317 Glu+Gln                                             
   6 lines in following misc. output table
  FWHM = 0.041 ppm    S/N =   6                                            
  Data shift = 0.000 ppm                                                   
  Ph: 166 deg       0.0 deg/ppm                                            
  alphaB,S = 7.5E-01,   2.1E+01                                            
   19 spline knots.   Ns = 5(1)                                            
  ( 5) 3 infls.   ( 2) 2 extrs.                                            
  480 points on ppm-axis = NY
      4.100000     4.091866     4.083733     4.075600     4.067466     4.059333     4.051199     4.043066     4.034933     4.026799
      4.018666     4.010532     4.002399     3.994265     3.986132     3.977998     3.969864     3.961731     3.953597     3.945463
      3.937330     3.929196     3.921062     3.912929     3.904795     3.896662     3.888528     3.880394     3.872261     3.864127
      3.855993     3.847860     3.839726     3.831592     3.823459     3.815325     3.807191     3.799058     3.790924     3.782790
      3.774657     3.766523     3.758389     3.750256     3.742122     3.733989     3.725855     3.717721     3.709588     3.701454
      3.693320     3.685187     3.677053     3.668919     3.660786     3.652652     3.644518     3.636385     3.628251     3.620117
      3.611984     3.603850     3.595716     3.587583     3.579449     3.571316     3.563182     3.555048     3.546915     3.538781
      3.530647     3.522514     3.514380     3.506246     3.498113     3.489979     3.481845     3.473712     3.465578     3.457444
      3.449311     3.441177     3.433043     3.424910     3.416776     3.408643     3.400509     3.392375     3.384242     3.376108
      3.367974     3.359841     3.351707     3.343573     3.335440     3.327306     3.319172     3.311039     3.302905     3.294771
      3.286638     3.278504     3.270370     3.262237     3.254103     3.245970     3.237836     3.229702     3.221569     3.213435
      3.205301     3.197168     3.189034     3.180900     3.172767     3.164633     3.156499     3.148366     3.140232     3.132098
      3.123965     3.115831     3.107697     3.099564     3.091430     3.083297     3.075163     3.067029     3.058896     3.050762
      3.042628     3.034495     3.026361     3.018227     3.010094     3.001960     2.993826     2.985693     2.977559     2.969425
      2.961292     2.953158     2.945024     2.936891     2.928757     2.920624     2.912490     2.904356     2.896223     2.888089
      2.879955     2.871822     2.863688     2.855554     2.847421     2.839287     2.831153     2.823020     2.814886     2.806752
      2.798619     2.790485     2.782351     2.774218     2.766084     2.757951     2.749817     2.741683     2.733550     2.725416
      2.717282     2.709149     2.701015     2.692881     2.684748     2.676614     2.668480     2.660347     2.652213     2.644079
      2.635946     2.627812     2.619678     2.611545     2.603411     2.595278     2.587144     2.579010     2.570877     2.562743
      2.554609     2.546476     2.538342     2.530208     2.522075     2.513941     2.505807     2.497674     2.489540     2.481406
      2.473273     2.465139     2.457006     2.448872     2.440738     2.432605     2.424471     2.416337     2.408204     2.400070
      2.391936     2.383803     2.375669     2.367535     2.359402     2.351268     2.343134     2.335001     2.326867     2.318733
      2.310600     2.302466     2.294333     2.286199     2.278065     2.269932     2.261798     2.253664     2.245531     2.237397
      2.229263     2.221130     2.212996     2.204862     2.196729     2.188595     2.180461     2.172328     2.164194     2.156060
      2.147927     2.139793     2.131660     2.123526     2.115392     2.107259     2.099125     2.090991     2.082858     2.074724
      2.066590     2.058457     2.050323     2.042189     2.034056     2.025922     2.017788     2.009655     2.001521     1.993387
      1.985254     1.977120     1.968987     1.960853     1.952719     1.944586     1.936452     1.928318     1.920185     1.912051
      1.903917     1.895784     1.887650     1.879516     1.871383     1.863249     1.855115     1.846982     1.838848     1.830714
      1.822581     1.814447     1.806314     1.798180     1.790046     1.781913     1.773779     1.765645     1.757512     1.749378
      1.741244     1.733111     1.724977     1.716843     1.708710     1.700576     1.692442     1.684309     1.676175     1.668041
      1.659908     1.651774     1.643641     1.635507     1.627373     1.619240     1.611106     1.602972     1.594839     1.586705
      1.578571     1.570438     1.562304     1.554170     1.546037     1.537903     1.529769     1.521636     1.513502     1.505368
      1.497235     1.489101     1.480968     1.472834     1.464700     1.456567     1.448433     1.440299     1.432166     1.424032
      1.415898     1.407765     1.399631     1.391497     1.383364     1.375230     1.367096     1.358963     1.350829     1.342695
      1.334562     1.326428     1.318295     1.310161     1.302027     1.293894     1.285760     1.277626     1.269493     1.261359
      1.253225     1.245092     1.236958     1.228824     1.220691     1.212557     1.204423     1.196290     1.188156     1.180022
      1.171889     1.163755     1.155622     1.147488     1.139354     1.131221     1.123087     1.114953     1.106820     1.098686
      1.090552     1.082419     1.074285     1.066151     1.058018     1.049884     1.041750     1.033617     1.025483     1.017349
      1.009216     1.001082     0.992949     0.984815     0.976681     0.968548     0.960414     0.952280     0.944147     0.936013
      0.927879     0.919746     0.911612     0.903478     0.895345     0.887211     0.879077     0.870944     0.862810     0.854676
      0.846543     0.838409     0.830276     0.822142     0.814008     0.805875     0.797741     0.789607     0.781474     0.773340
      0.765206     0.757073     0.748939     0.740805     0.732672     0.724538     0.716404     0.708271     0.700137     0.692003
      0.683870     0.675736     0.667603     0.659469     0.651335     0.643202     0.635068     0.626934     0.618801     0.610667
      0.602533     0.594400     0.586266     0.578132     0.569999     0.561865     0.553731     0.545598     0.537464     0.529330
      0.521197     0.513063     0.504930     0.496796     0.488662     0.480529     0.472395     0.464261     0.456128     0.447994
      0.439861     0.431727     0.423593     0.415460     0.407326     0.399192     0.391059     0.382925     0.374792     0.366658
      0.358524     0.350391     0.342257     0.334124     0.325990     0.317856     0.309723     0.301589     0.293455     0.285322
      0.277188     0.269055     0.260921     0.252787     0.244654     0.236520     0.228386     0.220253     0.212119     0.203986
 NY phased data points follow
  -1.19085E+02 -1.24104E+02 -1.13706E+02 -1.24615E+02 -1.35580E+02 -1.28829E+02 -1.37948E+02 -1.22102E+02 -1.31159E+02 -1.24867E+02
  -1.40220E+02 -1.51821E+02 -1.44216E+02 -1.65931E+02 -1.61960E+02 -1.59352E+02 -1.57118E+02 -1.78919E+02 -1.98341E+02 -1.80377E+02
  -1.82976E+02 -1.71992E+02 -1.38910E+02 -1.19436E+02 -8.88541E+01 -8.90485E+01 -8.00441E+01 -6.46115E+01 -9.12762E+01 -8.54631E+01
  -8.62784E+01 -7.97629E+01 -7.92138E+01 -8.84263E+01 -8.20507E+01 -9.96491E+01 -1.11381E+02 -1.20879E+02 -1.42982E+02 -1.67491E+02
  -1.67242E+02 -1.74732E+02 -1.56744E+02 -1.35899E+02 -1.10493E+02 -5.66105E+01 -6.16177E+01 -3.63967E+01 -2.81937E+01 -4.34700E+01
  -2.73830E+01 -4.94076E+01 -4.43699E+01 -5.66025E+01 -9.43040E+01 -7.95441E+01 -8.66100E+01 -9.15831E+01 -8.59340E+01 -9.21328E+01
  -6.44247E+01 -7.41564E+01 -5.38031E+01 -2.22124E+01 -4.55644E+01 -4.24149E+01 -5.79578E+01 -6.50976E+01 -7.67733E+01 -9.73364E+01
  -8.51915E+01 -9.63691E+01 -9.01841E+01 -5.15689E+01 -4.94273E+01 -4.63573E+01 -2.39150E+01 -2.55946E+01 -4.09552E+01 -5.00062E+01
  -4.34447E+01 -4.91867E+01 -5.06733E+01 -6.40574E+01 -6.99134E+01 -6.52938E+01 -8.18006E+01 -5.10533E+01 -3.99667E+01 -3.92731E+01
  -2.60401E+01 -2.25193E+01 -2.87147E+00 -7.14919E+00 -1.36188E+01 -6.00486E+00  4.18634E+00 -8.22107E+00 -2.23846E+01 -9.75184E+00
  -1.34518E+01 -3.95711E+01 -5.68397E+01 -6.44888E+01 -6.84594E+01 -8.53246E+01 -1.10688E+02 -1.15486E+02 -1.42482E+02 -1.71912E+02
  -1.73461E+02 -1.69031E+02 -1.70688E+02 -1.77314E+02 -1.40820E+02 -9.32503E+01 -8.04363E+01 -7.83985E+01 -8.24722E+01 -6.91021E+01
  -5.74905E+01 -6.03660E+01 -4.60714E+01 -5.10278E+01 -3.61048E+01 -1.97116E+01 -1.87837E+01  1.38436E+01  3.96500E+01  5.02717E+01
   2.81950E+01 -8.26449E+00 -7.05379E+01 -1.14155E+02 -1.51094E+02 -2.05823E+02 -1.89256E+02 -1.54084E+02 -1.24149E+02 -1.30692E+02
  -1.49865E+02 -1.43528E+02 -1.36961E+02 -1.44830E+02 -1.41569E+02 -1.23617E+02 -1.33137E+02 -1.15502E+02 -1.29298E+02 -1.19624E+02
  -9.37635E+01 -1.15696E+02 -9.35905E+01 -9.05161E+01 -1.00984E+02 -9.65493E+01 -9.34561E+01 -9.17338E+01 -7.54668E+01 -7.75962E+01
  -9.25253E+01 -8.49125E+01 -9.67466E+01 -8.45777E+01 -8.28473E+01 -8.63120E+01 -7.66964E+01 -7.19732E+01 -6.01192E+01 -7.23043E+01
  -5.63069E+01 -3.51817E+01 -3.80828E+01 -4.59411E+01 -4.71272E+01 -2.22758E+01 -3.82212E+01 -5.86539E+01 -5.35073E+01 -7.31666E+01
  -7.68049E+01 -9.27039E+01 -1.10934E+02 -1.02671E+02 -1.22281E+02 -1.12770E+02 -9.80353E+01 -1.10487E+02 -9.31786E+01 -9.97663E+01
  -9.99901E+01 -7.87047E+01 -7.42797E+01 -6.37686E+01 -8.11730E+01 -7.45369E+01 -5.56171E+01 -6.74107E+01 -6.91275E+01 -7.05582E+01
  -6.75336E+01 -6.98711E+01 -6.14943E+01 -6.22213E+01 -7.00564E+01 -8.52466E+01 -9.42853E+01 -9.11874E+01 -1.06714E+02 -9.09728E+01
  -1.06090E+02 -9.71861E+01 -6.72214E+01 -5.77249E+01 -3.17274E+01 -3.63127E+01 -9.59383E+00 -2.85471E+00  6.59639E+00 -3.77928E+00
  -5.59185E+01 -4.88326E+01 -6.71418E+01 -7.59538E+01 -6.20714E+01 -6.04462E+01 -4.72880E+01 -5.90614E+01 -6.64102E+01 -5.87906E+01
  -8.22429E+01 -1.02414E+02 -9.99648E+01 -1.26540E+02 -1.41129E+02 -1.16174E+02 -1.26290E+02 -1.54014E+02 -1.50960E+02 -1.38292E+02
  -1.29104E+02 -1.25070E+02 -1.05792E+02 -1.04075E+02 -9.01803E+01 -6.56840E+01 -8.61101E+01 -8.16041E+01 -9.11794E+01 -1.07318E+02
  -1.01211E+02 -1.15641E+02 -1.35914E+02 -1.47735E+02 -1.51145E+02 -1.31067E+02 -7.11648E+01  3.10085E+00  8.48047E+01  1.17312E+02
   1.63814E+02  1.80380E+02  1.02373E+02  8.53975E+01  6.73248E+01  4.47440E+01  4.99276E+01  3.07712E+01  2.74568E+01  3.47690E+01
   3.21607E+01  4.03545E+01  4.11558E+01  3.23064E+01  3.43951E+01  2.63933E+01  3.49326E+01  2.24983E+01  2.25298E+01  3.06581E+01
   1.21529E+01  3.09014E+01  2.37017E+01  2.08390E+01  2.26214E+01  2.52627E+00  9.33561E+00  4.11416E+00 -1.01310E+01  5.89900E+00
   1.07732E+01 -4.41821E+00  5.86509E+00  1.52367E+01  5.55818E+00 -1.20373E+01 -1.54436E+01 -2.06499E+01 -1.68295E+01 -2.45502E+01
  -3.66323E+01 -8.65941E-01  5.12220E+00 -5.26591E-02 -4.23367E-01  8.79899E+00  3.34107E+00 -7.58273E-01  3.00065E+01  2.07993E+01
   3.42639E+01  4.12145E+01  4.92908E+01  7.00030E+01  6.21401E+01  6.55894E+01  6.31542E+01  7.08390E+01  4.41554E+01  4.08405E+01
   6.60987E+01  5.88370E+01  6.24299E+01  3.88712E+01  2.18611E+01  2.87169E+00 -2.77012E+01 -4.96666E+01 -6.62774E+01 -6.04234E+01
  -7.74868E+01 -8.78038E+01 -8.90075E+01 -9.44213E+01 -9.71739E+01 -9.49284E+01 -6.11033E+01 -4.79443E+01 -4.87443E+01 -4.70870E+01
  -5.56953E+01 -5.42737E+01 -4.37481E+01 -3.68934E+01 -3.16620E+01 -1.46100E+01 -1.66081E+01 -2.09457E+01 -2.61369E+00 -4.53488E+00
  -2.76635E+01 -2.04764E+01 -1.77535E+01 -4.30266E+01 -4.52642E+01 -4.98238E+01 -4.55734E+01 -4.08674E+01 -4.72721E+01 -5.24529E+01
  -5.95397E+01 -4.55022E+01 -4.02252E+01 -3.46006E+01 -3.60241E+01 -3.33151E+01 -2.78446E+01 -2.84852E+01 -1.50290E+01 -2.07856E+01
  -9.61583E+00 -1.04190E+01 -1.59333E+01 -1.16752E+00 -5.22941E+00  2.52453E+00  1.94868E+01  3.50616E+01  2.81414E+01  3.33290E+01
   5.39099E+01  5.01582E+01  6.28118E+01  7.91220E+01  7.98028E+01  8.07073E+01  8.69920E+01  9.66925E+01  9.86016E+01  9.38286E+01
   9.54103E+01  7.32769E+01  4.68066E+01  3.63709E+01  1.32508E+01  1.36540E+01 -7.62904E+00 -1.91445E+01  2.67103E+00 -2.00420E+01
  -2.12969E+01 -3.93148E+01 -7.10099E+01 -6.06489E+01 -6.41160E+01 -5.88389E+01 -6.70562E+01 -6.74830E+01 -5.25821E+01 -6.82817E+01
  -6.29632E+01 -6.35472E+01 -6.47847E+01 -5.14386E+01 -6.61918E+01 -6.64652E+01 -5.21274E+01 -6.30131E+01 -6.77565E+01 -4.39778E+01
  -4.56862E+01 -6.08530E+01 -5.64479E+01 -5.33825E+01 -4.63268E+01 -5.66079E+01 -6.08088E+01 -5.07425E+01 -6.05038E+01 -6.18388E+01
  -5.94890E+01 -6.27511E+01 -5.23307E+01 -5.95946E+01 -6.53759E+01 -5.12612E+01 -5.77328E+01 -4.88933E+01 -6.28413E+01 -6.93083E+01
  -3.90430E+01 -5.52443E+01 -5.27695E+01 -4.58860E+01 -4.59482E+01 -5.04124E+01 -5.68358E+01 -4.71741E+01 -6.35341E+01 -5.41067E+01
  -5.43939E+01 -5.15940E+01 -4.04247E+01 -4.94690E+01 -4.81166E+01 -5.62064E+01 -4.68622E+01 -5.11203E+01 -5.61930E+01 -5.42185E+01
  -4.92982E+01 -3.65618E+01 -4.48007E+01 -4.88408E+01 -4.54207E+01 -2.88478E+01 -4.36944E+01 -4.96402E+01 -3.55792E+01 -3.92196E+01
  -3.29961E+01 -5.31613E+01 -5.39111E+01 -4.17486E+01 -3.61364E+01 -2.65610E+01 -3.81200E+01 -3.81306E+01 -4.25797E+01 -4.43450E+01
 NY points of the fit to the data follow
  -1.29684E+02 -1.35228E+02 -1.39691E+02 -1.40421E+02 -1.36797E+02 -1.30605E+02 -1.25334E+02 -1.22933E+02 -1.24845E+02 -1.31829E+02
  -1.40851E+02 -1.46069E+02 -1.46723E+02 -1.46306E+02 -1.47032E+02 -1.49663E+02 -1.56888E+02 -1.68884E+02 -1.79908E+02 -1.85314E+02
  -1.79968E+02 -1.63262E+02 -1.39324E+02 -1.12090E+02 -8.64877E+01 -7.14245E+01 -6.98321E+01 -6.88240E+01 -6.68020E+01 -6.76150E+01
  -6.62915E+01 -6.67915E+01 -7.01826E+01 -7.50450E+01 -8.03795E+01 -8.68879E+01 -9.83339E+01 -1.15927E+02 -1.37001E+02 -1.56566E+02
  -1.68912E+02 -1.69549E+02 -1.56529E+02 -1.31201E+02 -9.91065E+01 -7.08842E+01 -5.43150E+01 -4.46891E+01 -4.09093E+01 -4.26241E+01
  -4.74127E+01 -5.28834E+01 -5.96250E+01 -6.70947E+01 -7.35856E+01 -8.02165E+01 -8.57253E+01 -8.88708E+01 -8.91399E+01 -8.63466E+01
  -8.12853E+01 -7.44542E+01 -6.43013E+01 -5.22761E+01 -4.57996E+01 -4.57649E+01 -4.94874E+01 -6.05145E+01 -7.48909E+01 -8.51038E+01
  -8.97445E+01 -8.74479E+01 -7.70707E+01 -6.12746E+01 -4.79756E+01 -4.06281E+01 -3.41561E+01 -3.01599E+01 -3.16749E+01 -3.71323E+01
  -4.49865E+01 -5.52532E+01 -6.70776E+01 -7.71666E+01 -8.22804E+01 -8.06676E+01 -7.28800E+01 -6.12096E+01 -4.84778E+01 -3.95397E+01
  -3.25689E+01 -2.87063E+01 -2.59805E+01 -2.27508E+01 -1.94849E+01 -1.72171E+01 -1.63632E+01 -1.62552E+01 -1.68935E+01 -1.90363E+01
  -2.24580E+01 -2.92652E+01 -3.92930E+01 -5.16858E+01 -6.53757E+01 -7.82773E+01 -9.10127E+01 -1.07837E+02 -1.30709E+02 -1.52319E+02
  -1.66554E+02 -1.74588E+02 -1.69628E+02 -1.51502E+02 -1.22820E+02 -1.01398E+02 -9.49489E+01 -8.94066E+01 -8.35610E+01 -7.72606E+01
  -7.05488E+01 -6.33846E+01 -5.53187E+01 -4.59027E+01 -3.43347E+01 -2.06508E+01 -5.33761E+00  1.65942E+01  3.90733E+01  4.81872E+01
   3.33157E+01 -6.97782E+00 -6.19988E+01 -1.17023E+02 -1.61907E+02 -1.87165E+02 -1.78414E+02 -1.45387E+02 -1.30601E+02 -1.30370E+02
  -1.31400E+02 -1.33181E+02 -1.35181E+02 -1.36558E+02 -1.36439E+02 -1.35069E+02 -1.32638E+02 -1.29420E+02 -1.25605E+02 -1.21222E+02
  -1.17409E+02 -1.13957E+02 -1.10132E+02 -1.06133E+02 -1.02444E+02 -9.98073E+01 -9.79752E+01 -9.60625E+01 -9.37511E+01 -9.16916E+01
  -9.00841E+01 -8.91084E+01 -8.94936E+01 -9.13077E+01 -9.38239E+01 -9.56631E+01 -9.55763E+01 -9.26372E+01 -8.67876E+01 -7.81315E+01
  -6.79365E+01 -5.89223E+01 -5.25070E+01 -4.86679E+01 -4.72387E+01 -4.98445E+01 -5.51621E+01 -5.90063E+01 -6.21173E+01 -7.07430E+01
  -8.51963E+01 -9.89708E+01 -1.06537E+02 -1.07255E+02 -1.06310E+02 -1.06667E+02 -1.05807E+02 -1.03751E+02 -1.00765E+02 -9.78601E+01
  -9.37485E+01 -8.81058E+01 -8.16556E+01 -7.52169E+01 -7.01423E+01 -6.62724E+01 -6.27355E+01 -6.08101E+01 -6.25807E+01 -6.33445E+01
  -5.95192E+01 -5.79591E+01 -5.87352E+01 -5.96539E+01 -6.17229E+01 -6.57434E+01 -7.53208E+01 -8.69720E+01 -9.62903E+01 -1.02949E+02
  -1.06606E+02 -1.02793E+02 -8.94774E+01 -6.76371E+01 -4.14696E+01 -1.71404E+01 -8.03319E-01  4.40939E+00 -4.88075E-01 -1.53212E+01
  -3.21931E+01 -4.05060E+01 -4.70568E+01 -4.68878E+01 -4.39469E+01 -4.38825E+01 -4.69884E+01 -5.36526E+01 -6.36760E+01 -7.60310E+01
  -8.98225E+01 -1.04089E+02 -1.17325E+02 -1.28811E+02 -1.37815E+02 -1.43261E+02 -1.45346E+02 -1.44717E+02 -1.40901E+02 -1.34281E+02
  -1.26643E+02 -1.17181E+02 -1.06012E+02 -9.61673E+01 -8.81954E+01 -8.31026E+01 -8.35374E+01 -8.80699E+01 -9.64212E+01 -1.09329E+02
  -1.20196E+02 -1.26435E+02 -1.37785E+02 -1.51266E+02 -1.53526E+02 -1.28730E+02 -7.48756E+01 -5.44173E+00  5.83216E+01  1.13493E+02
   1.54324E+02  1.44264E+02  9.34361E+01  6.64168E+01  5.90413E+01  5.45105E+01  5.06715E+01  4.72304E+01  4.39739E+01  4.13000E+01
   3.96635E+01  3.92382E+01  3.94268E+01  3.97505E+01  3.99771E+01  3.97296E+01  3.90561E+01  3.80471E+01  3.67200E+01  3.49964E+01
   3.31158E+01  3.11081E+01  2.86573E+01  2.61387E+01  2.35167E+01  2.10400E+01  1.85352E+01  1.56833E+01  1.23290E+01  8.64686E+00
   4.57624E+00 -3.81840E-03 -4.76403E+00 -9.13658E+00 -1.25656E+01 -1.43138E+01 -1.43447E+01 -1.27541E+01 -9.64406E+00 -5.79038E+00
  -1.69141E+00  2.21456E+00  5.81253E+00  9.11754E+00  1.23106E+01  1.53182E+01  1.81643E+01  2.11003E+01  2.42854E+01  2.74846E+01
   3.06011E+01  3.35462E+01  3.61264E+01  3.81822E+01  3.99152E+01  4.14477E+01  4.25084E+01  4.29662E+01  4.27294E+01  4.23611E+01
   4.15498E+01  3.72654E+01  2.85863E+01  1.37095E+01 -6.59261E+00 -2.94366E+01 -5.09667E+01 -6.69256E+01 -7.46088E+01 -7.54078E+01
  -7.50098E+01 -7.46366E+01 -7.30451E+01 -7.52788E+01 -7.39284E+01 -6.93499E+01 -6.27772E+01 -5.58023E+01 -4.98274E+01 -4.53914E+01
  -4.26743E+01 -4.06353E+01 -3.83589E+01 -3.52671E+01 -3.14283E+01 -2.72346E+01 -2.34655E+01 -2.10912E+01 -2.00565E+01 -2.03700E+01
  -2.23948E+01 -2.52945E+01 -2.94541E+01 -3.46962E+01 -4.03235E+01 -4.52515E+01 -4.86790E+01 -5.02211E+01 -4.94276E+01 -4.67380E+01
  -4.29162E+01 -3.84268E+01 -3.34818E+01 -2.85391E+01 -2.38207E+01 -1.94386E+01 -1.54321E+01 -1.16907E+01 -8.12306E+00 -4.57493E+00
  -8.21078E-01  2.89945E+00  6.94318E+00  1.12340E+01  1.58674E+01  2.11539E+01  2.71993E+01  3.39849E+01  4.14230E+01  4.94499E+01
   5.80660E+01  6.72978E+01  7.70889E+01  8.65038E+01  9.50962E+01  1.01752E+02  1.04860E+02  1.02804E+02  9.54554E+01  8.37743E+01
   6.94286E+01  5.46118E+01  4.13241E+01  3.06483E+01  2.23686E+01  1.48355E+01  6.75172E+00 -2.64666E+00 -1.30436E+01 -2.39972E+01
  -3.44665E+01 -4.31031E+01 -4.95896E+01 -5.41368E+01 -5.70196E+01 -5.85347E+01 -5.95932E+01 -6.04800E+01 -6.11831E+01 -6.16853E+01
  -6.22523E+01 -6.26490E+01 -6.28691E+01 -6.27304E+01 -6.24148E+01 -6.20395E+01 -6.18462E+01 -6.17547E+01 -6.15501E+01 -6.11832E+01
  -6.08872E+01 -6.07321E+01 -6.03839E+01 -5.98976E+01 -5.96442E+01 -5.96974E+01 -5.95124E+01 -5.90062E+01 -5.85507E+01 -5.81038E+01
  -5.76293E+01 -5.72040E+01 -5.69942E+01 -5.69718E+01 -5.69730E+01 -5.67353E+01 -5.62378E+01 -5.56405E+01 -5.50443E+01 -5.44971E+01
  -5.40669E+01 -5.38039E+01 -5.35099E+01 -5.33951E+01 -5.32793E+01 -5.31336E+01 -5.29671E+01 -5.26735E+01 -5.22454E+01 -5.17483E+01
  -5.13601E+01 -5.10271E+01 -5.08490E+01 -5.05083E+01 -5.00658E+01 -4.96305E+01 -4.90743E+01 -4.85185E+01 -4.81601E+01 -4.78339E+01
  -4.75452E+01 -4.73279E+01 -4.72053E+01 -4.70812E+01 -4.70502E+01 -4.68143E+01 -4.63216E+01 -4.54647E+01 -4.47127E+01 -4.41034E+01
  -4.37628E+01 -4.36846E+01 -4.38191E+01 -4.39649E+01 -4.38528E+01 -4.33962E+01 -4.28771E+01 -4.24117E+01 -4.21913E+01 -4.19640E+01
 NY background values follow
    -9.647E+01   -9.619E+01   -9.592E+01   -9.565E+01   -9.537E+01   -9.510E+01   -9.482E+01   -9.455E+01   -9.427E+01   -9.400E+01
    -9.372E+01   -9.345E+01   -9.317E+01   -9.290E+01   -9.263E+01   -9.235E+01   -9.208E+01   -9.180E+01   -9.153E+01   -9.125E+01
    -9.098E+01   -9.070E+01   -9.043E+01   -9.015E+01   -8.987E+01   -8.960E+01   -8.932E+01   -8.905E+01   -8.877E+01   -8.850E+01
    -8.822E+01   -8.795E+01   -8.767E+01   -8.740E+01   -8.712E+01   -8.684E+01   -8.657E+01   -8.629E+01   -8.602E+01   -8.574E+01
    -8.547E+01   -8.519E+01   -8.492E+01   -8.464E+01   -8.437E+01   -8.409E+01   -8.382E+01   -8.355E+01   -8.327E+01   -8.300E+01
    -8.273E+01   -8.246E+01   -8.218E+01   -8.191E+01   -8.164E+01   -8.137E+01   -8.110E+01   -8.083E+01   -8.056E+01   -8.029E+01
    -8.002E+01   -7.976E+01   -7.949E+01   -7.922E+01   -7.896E+01   -7.869E+01   -7.842E+01   -7.816E+01   -7.790E+01   -7.763E+01
    -7.737E+01   -7.711E+01   -7.685E+01   -7.659E+01   -7.633E+01   -7.607E+01   -7.581E+01   -7.555E+01   -7.530E+01   -7.504E+01
    -7.479E+01   -7.453E+01   -7.428E+01   -7.403E+01   -7.378E+01   -7.353E+01   -7.328E+01   -7.303E+01   -7.278E+01   -7.253E+01
    -7.228E+01   -7.204E+01   -7.180E+01   -7.155E+01   -7.131E+01   -7.107E+01   -7.083E+01   -7.059E+01   -7.035E+01   -7.011E+01
    -6.987E+01   -6.964E+01   -6.940E+01   -6.917E+01   -6.894E+01   -6.871E+01   -6.848E+01   -6.825E+01   -6.802E+01   -6.779E+01
    -6.756E+01   -6.734E+01   -6.711E+01   -6.689E+01   -6.667E+01   -6.644E+01   -6.622E+01   -6.600E+01   -6.579E+01   -6.557E+01
    -6.535E+01   -6.514E+01   -6.492E+01   -6.471E+01   -6.450E+01   -6.429E+01   -6.408E+01   -6.387E+01   -6.366E+01   -6.345E+01
    -6.325E+01   -6.304E+01   -6.284E+01   -6.264E+01   -6.244E+01   -6.224E+01   -6.204E+01   -6.185E+01   -6.165E+01   -6.146E+01
    -6.127E+01   -6.107E+01   -6.088E+01   -6.070E+01   -6.051E+01   -6.032E+01   -6.014E+01   -5.996E+01   -5.977E+01   -5.960E+01
    -5.942E+01   -5.924E+01   -5.906E+01   -5.889E+01   -5.872E+01   -5.855E+01   -5.838E+01   -5.821E+01   -5.804E+01   -5.788E+01
    -5.771E+01   -5.755E+01   -5.739E+01   -5.723E+01   -5.707E+01   -5.692E+01   -5.676E+01   -5.661E+01   -5.646E+01   -5.631E+01
    -5.616E+01   -5.601E+01   -5.586E+01   -5.572E+01   -5.558E+01   -5.543E+01   -5.529E+01   -5.516E+01   -5.502E+01   -5.488E+01
    -5.475E+01   -5.462E+01   -5.449E+01   -5.436E+01   -5.423E+01   -5.410E+01   -5.397E+01   -5.385E+01   -5.373E+01   -5.361E+01
    -5.349E+01   -5.337E+01   -5.325E+01   -5.313E+01   -5.302E+01   -5.290E+01   -5.279E+01   -5.268E+01   -5.257E+01   -5.246E+01
    -5.235E+01   -5.224E+01   -5.214E+01   -5.203E+01   -5.193E+01   -5.183E+01   -5.172E+01   -5.162E+01   -5.152E+01   -5.143E+01
    -5.133E+01   -5.123E+01   -5.113E+01   -5.104E+01   -5.095E+01   -5.085E+01   -5.076E+01   -5.067E+01   -5.058E+01   -5.049E+01
    -5.040E+01   -5.031E+01   -5.023E+01   -5.014E+01   -5.006E+01   -4.997E+01   -4.989E+01   -4.981E+01   -4.973E+01   -4.965E+01
    -4.957E+01   -4.949E+01   -4.941E+01   -4.933E+01   -4.926E+01   -4.918E+01   -4.911E+01   -4.904E+01   -4.897E+01   -4.889E+01
    -4.882E+01   -4.876E+01   -4.869E+01   -4.862E+01   -4.855E+01   -4.849E+01   -4.842E+01   -4.836E+01   -4.829E+01   -4.823E+01
    -4.817E+01   -4.811E+01   -4.805E+01   -4.799E+01   -4.793E+01   -4.787E+01   -4.782E+01   -4.776E+01   -4.770E+01   -4.765E+01
    -4.759E+01   -4.754E+01   -4.749E+01   -4.743E+01   -4.738E+01   -4.733E+01   -4.728E+01   -4.723E+01   -4.718E+01   -4.713E+01
    -4.708E+01   -4.703E+01   -4.699E+01   -4.694E+01   -4.689E+01   -4.685E+01   -4.680E+01   -4.676E+01   -4.671E+01   -4.667E+01
    -4.663E+01   -4.658E+01   -4.654E+01   -4.650E+01   -4.646E+01   -4.642E+01   -4.638E+01   -4.634E+01   -4.630E+01   -4.626E+01
    -4.622E+01   -4.618E+01   -4.614E+01   -4.611E+01   -4.607E+01   -4.603E+01   -4.600E+01   -4.596E+01   -4.592E+01   -4.589E+01
    -4.585E+01   -4.582E+01   -4.578E+01   -4.575E+01   -4.572E+01   -4.568E+01   -4.565E+01   -4.562E+01   -4.559E+01   -4.556E+01
    -4.552E+01   -4.549E+01   -4.546E+01   -4.543E+01   -4.540E+01   -4.537E+01   -4.534E+01   -4.531E+01   -4.528E+01   -4.526E+01
    -4.523E+01   -4.520E+01   -4.517E+01   -4.514E+01   -4.512E+01   -4.509E+01   -4.506E+01   -4.504E+01   -4.501E+01   -4.499E+01
    -4.496E+01   -4.494E+01   -4.491E+01   -4.489E+01   -4.486E+01   -4.484E+01   -4.482E+01   -4.479E+01   -4.477E+01   -4.474E+01
    -4.472E+01   -4.470E+01   -4.467E+01   -4.465E+01   -4.463E+01   -4.460E+01   -4.458E+01   -4.455E+01   -4.453E+01   -4.451E+01
    -4.448E+01   -4.446E+01   -4.443E+01   -4.441E+01   -4.438E+01   -4.435E+01   -4.433E+01   -4.430E+01   -4.427E+01   -4.424E+01
    -4.421E+01   -4.419E+01   -4.416E+01   -4.413E+01   -4.410E+01   -4.406E+01   -4.403E+01   -4.400E+01   -4.397E+01   -4.393E+01
    -4.390E+01   -4.387E+01   -4.383E+01   -4.380E+01   -4.376E+01   -4.372E+01   -4.369E+01   -4.365E+01   -4.361E+01   -4.357E+01
    -4.353E+01   -4.349E+01   -4.345E+01   -4.341E+01   -4.337E+01   -4.332E+01   -4.328E+01   -4.324E+01   -4.319E+01   -4.315E+01
    -4.310E+01   -4.306E+01   -4.301E+01   -4.296E+01   -4.291E+01   -4.286E+01   -4.282E+01   -4.277E+01   -4.272E+01   -4.267E+01
    -4.261E+01   -4.256E+01   -4.251E+01   -4.246E+01   -4.240E+01   -4.235E+01   -4.230E+01   -4.224E+01   -4.219E+01   -4.213E+01
    -4.208E+01   -4.202E+01   -4.196E+01   -4.191E+01   -4.185E+01   -4.179E+01   -4.173E+01   -4.167E+01   -4.162E+01   -4.156E+01
    -4.150E+01   -4.144E+01   -4.138E+01   -4.132E+01   -4.126E+01   -4.120E+01   -4.114E+01   -4.108E+01   -4.102E+01   -4.095E+01
    -4.089E+01   -4.083E+01   -4.077E+01   -4.071E+01   -4.064E+01   -4.058E+01   -4.052E+01   -4.046E+01   -4.039E+01   -4.033E+01
    -4.027E+01   -4.020E+01   -4.014E+01   -4.008E+01   -4.001E+01   -3.995E+01   -3.988E+01   -3.982E+01   -3.975E+01   -3.969E+01
    -3.962E+01   -3.956E+01   -3.949E+01   -3.943E+01   -3.936E+01   -3.930E+01   -3.923E+01   -3.917E+01   -3.910E+01   -3.904E+01
    -3.897E+01   -3.890E+01   -3.884E+01   -3.877E+01   -3.871E+01   -3.864E+01   -3.857E+01   -3.851E+01   -3.844E+01   -3.838E+01
    -3.831E+01   -3.824E+01   -3.818E+01   -3.811E+01   -3.805E+01   -3.798E+01   -3.791E+01   -3.785E+01   -3.778E+01   -3.771E+01
 Mac      Conc. = 3.45E-04
  -1.21042E+02 -1.21356E+02 -1.21674E+02 -1.21927E+02 -1.22204E+02 -1.22910E+02 -1.24349E+02 -1.26183E+02 -1.28107E+02 -1.29707E+02
  -1.30700E+02 -1.30915E+02 -1.30745E+02 -1.30887E+02 -1.31773E+02 -1.32877E+02 -1.33205E+02 -1.31949E+02 -1.28767E+02 -1.23733E+02
  -1.17395E+02 -1.11070E+02 -1.06363E+02 -1.03856E+02 -1.02229E+02 -1.00426E+02 -9.89936E+01 -9.73837E+01 -9.50589E+01 -9.24334E+01
  -9.00309E+01 -8.81344E+01 -8.68398E+01 -8.64131E+01 -8.64464E+01 -8.61981E+01 -8.52409E+01 -8.35874E+01 -8.13668E+01 -7.89616E+01
  -7.69731E+01 -7.56776E+01 -7.51195E+01 -7.47490E+01 -7.38927E+01 -7.24165E+01 -7.10664E+01 -7.07136E+01 -7.13989E+01 -7.28732E+01
  -7.46081E+01 -7.60329E+01 -7.71755E+01 -7.79058E+01 -7.81403E+01 -7.77585E+01 -7.69138E+01 -7.56086E+01 -7.37804E+01 -7.17299E+01
  -6.95378E+01 -6.76621E+01 -6.66789E+01 -6.65094E+01 -6.68134E+01 -6.75885E+01 -6.88165E+01 -6.98039E+01 -7.00788E+01 -6.94974E+01
  -6.78370E+01 -6.53767E+01 -6.25128E+01 -5.94924E+01 -5.69172E+01 -5.56052E+01 -5.58561E+01 -5.68740E+01 -5.79024E+01 -5.88961E+01
  -5.96524E+01 -5.99135E+01 -5.97492E+01 -5.89825E+01 -5.79954E+01 -5.67874E+01 -5.53539E+01 -5.39229E+01 -5.27583E+01 -5.18947E+01
  -5.11053E+01 -5.04089E+01 -5.00501E+01 -5.00825E+01 -5.06788E+01 -5.21574E+01 -5.44795E+01 -5.73048E+01 -6.03814E+01 -6.33179E+01
  -6.58675E+01 -6.82049E+01 -7.08437E+01 -7.42607E+01 -7.92059E+01 -8.58097E+01 -9.33014E+01 -1.00312E+02 -1.05825E+02 -1.08781E+02
