 LCModel (Version 6.3-1N) Copyright: S.W. Provencher.          Ref.: Magn. Reson. Med. 30:672-679 (1993).                
 Slice_N1@17_12  28-Feb-2025 11:38:34
 27 lines in following concentration table = NCONC+1
    Conc.  %SD /Cr+PCr  Metabolite                                         
 2.78E-04   4% 2.4E-04 Mac                                                 
    4.836  20%   4.129 Cr                                                  
    4.534  20%   3.871 PCr                                                 
    7.626  11%   6.510 Ins                                                 
   11.187   6%   9.550 NAA                                                 
    7.569  10%   6.462 Tau                                                 
    0.773  97%   0.660 PCho                                                
    0.942  77%   0.804 GPC                                                 
   11.790   8%  10.066 Glu                                                 
    4.169  18%   3.560 Gln                                                 
    0.000 999%   0.000 Ala                                                 
    2.885  38%   2.463 Asc                                                 
    3.052  31%   2.606 Asp                                                 
    0.978  50%   0.835 GABA                                                
    0.420 161%   0.359 Glc                                                 
    1.299  34%   1.109 GSH                                                 
    0.000 999%   0.000 Lac                                                 
    1.855  26%   1.584 NAAG                                                
    1.898  51%   1.620 PE                                                  
    1.715  15%   1.464 GPC+PCho                                            
   13.042   6%  11.134 NAA+NAAG                                            
   15.960   8%  13.625 Glu+Gln                                             
    9.371   7%   8.000 Cr+PCr                                              
   13.042   6%  11.134 NAA+NAAG                                            
    9.371   7%   8.000 Cr+PCr                                              
   15.960   8%  13.625 Glu+Gln                                             
   6 lines in following misc. output table
  FWHM = 0.024 ppm    S/N =   5                                            
  Data shift = 0.016 ppm                                                   
  Ph:-158 deg       0.0 deg/ppm                                            
  alphaB,S = 2.8E-01,   1.2E+01                                            
   19 spline knots.   Ns = 5(1)                                            
  ( 3) 3 infls.   ( 3) 2 extrs.                                            
  480 points on ppm-axis = NY
      4.100000     4.091866     4.083733     4.075600     4.067466     4.059333     4.051199     4.043066     4.034933     4.026799
      4.018666     4.010532     4.002399     3.994265     3.986132     3.977998     3.969864     3.961731     3.953597     3.945463
      3.937330     3.929196     3.921062     3.912929     3.904795     3.896662     3.888528     3.880394     3.872261     3.864127
      3.855993     3.847860     3.839726     3.831592     3.823459     3.815325     3.807191     3.799058     3.790924     3.782790
      3.774657     3.766523     3.758389     3.750256     3.742122     3.733989     3.725855     3.717721     3.709588     3.701454
      3.693320     3.685187     3.677053     3.668919     3.660786     3.652652     3.644518     3.636385     3.628251     3.620117
      3.611984     3.603850     3.595716     3.587583     3.579449     3.571316     3.563182     3.555048     3.546915     3.538781
      3.530647     3.522514     3.514380     3.506246     3.498113     3.489979     3.481845     3.473712     3.465578     3.457444
      3.449311     3.441177     3.433043     3.424910     3.416776     3.408643     3.400509     3.392375     3.384242     3.376108
      3.367974     3.359841     3.351707     3.343573     3.335440     3.327306     3.319172     3.311039     3.302905     3.294771
      3.286638     3.278504     3.270370     3.262237     3.254103     3.245970     3.237836     3.229702     3.221569     3.213435
      3.205301     3.197168     3.189034     3.180900     3.172767     3.164633     3.156499     3.148366     3.140232     3.132098
      3.123965     3.115831     3.107697     3.099564     3.091430     3.083297     3.075163     3.067029     3.058896     3.050762
      3.042628     3.034495     3.026361     3.018227     3.010094     3.001960     2.993826     2.985693     2.977559     2.969425
      2.961292     2.953158     2.945024     2.936891     2.928757     2.920624     2.912490     2.904356     2.896223     2.888089
      2.879955     2.871822     2.863688     2.855554     2.847421     2.839287     2.831153     2.823020     2.814886     2.806752
      2.798619     2.790485     2.782351     2.774218     2.766084     2.757951     2.749817     2.741683     2.733550     2.725416
      2.717282     2.709149     2.701015     2.692881     2.684748     2.676614     2.668480     2.660347     2.652213     2.644079
      2.635946     2.627812     2.619678     2.611545     2.603411     2.595278     2.587144     2.579010     2.570877     2.562743
      2.554609     2.546476     2.538342     2.530208     2.522075     2.513941     2.505807     2.497674     2.489540     2.481406
      2.473273     2.465139     2.457006     2.448872     2.440738     2.432605     2.424471     2.416337     2.408204     2.400070
      2.391936     2.383803     2.375669     2.367535     2.359402     2.351268     2.343134     2.335001     2.326867     2.318733
      2.310600     2.302466     2.294333     2.286199     2.278065     2.269932     2.261798     2.253664     2.245531     2.237397
      2.229263     2.221130     2.212996     2.204862     2.196729     2.188595     2.180461     2.172328     2.164194     2.156060
      2.147927     2.139793     2.131660     2.123526     2.115392     2.107259     2.099125     2.090991     2.082858     2.074724
      2.066590     2.058457     2.050323     2.042189     2.034056     2.025922     2.017788     2.009655     2.001521     1.993387
      1.985254     1.977120     1.968987     1.960853     1.952719     1.944586     1.936452     1.928318     1.920185     1.912051
      1.903917     1.895784     1.887650     1.879516     1.871383     1.863249     1.855115     1.846982     1.838848     1.830714
      1.822581     1.814447     1.806314     1.798180     1.790046     1.781913     1.773779     1.765645     1.757512     1.749378
      1.741244     1.733111     1.724977     1.716843     1.708710     1.700576     1.692442     1.684309     1.676175     1.668041
      1.659908     1.651774     1.643641     1.635507     1.627373     1.619240     1.611106     1.602972     1.594839     1.586705
      1.578571     1.570438     1.562304     1.554170     1.546037     1.537903     1.529769     1.521636     1.513502     1.505368
      1.497235     1.489101     1.480968     1.472834     1.464700     1.456567     1.448433     1.440299     1.432166     1.424032
      1.415898     1.407765     1.399631     1.391497     1.383364     1.375230     1.367096     1.358963     1.350829     1.342695
      1.334562     1.326428     1.318295     1.310161     1.302027     1.293894     1.285760     1.277626     1.269493     1.261359
      1.253225     1.245092     1.236958     1.228824     1.220691     1.212557     1.204423     1.196290     1.188156     1.180022
      1.171889     1.163755     1.155622     1.147488     1.139354     1.131221     1.123087     1.114953     1.106820     1.098686
      1.090552     1.082419     1.074285     1.066151     1.058018     1.049884     1.041750     1.033617     1.025483     1.017349
      1.009216     1.001082     0.992949     0.984815     0.976681     0.968548     0.960414     0.952280     0.944147     0.936013
      0.927879     0.919746     0.911612     0.903478     0.895345     0.887211     0.879077     0.870944     0.862810     0.854676
      0.846543     0.838409     0.830276     0.822142     0.814008     0.805875     0.797741     0.789607     0.781474     0.773340
      0.765206     0.757073     0.748939     0.740805     0.732672     0.724538     0.716404     0.708271     0.700137     0.692003
      0.683870     0.675736     0.667603     0.659469     0.651335     0.643202     0.635068     0.626934     0.618801     0.610667
      0.602533     0.594400     0.586266     0.578132     0.569999     0.561865     0.553731     0.545598     0.537464     0.529330
      0.521197     0.513063     0.504930     0.496796     0.488662     0.480529     0.472395     0.464261     0.456128     0.447994
      0.439861     0.431727     0.423593     0.415460     0.407326     0.399192     0.391059     0.382925     0.374792     0.366658
      0.358524     0.350391     0.342257     0.334124     0.325990     0.317856     0.309723     0.301589     0.293455     0.285322
      0.277188     0.269055     0.260921     0.252787     0.244654     0.236520     0.228386     0.220253     0.212119     0.203986
 NY phased data points follow
  -5.97389E+01 -6.31306E+01 -7.17991E+01 -7.61603E+01 -7.49717E+01 -6.95413E+01 -6.79772E+01 -6.07726E+01 -6.96631E+01 -7.07599E+01
  -8.08911E+01 -8.26153E+01 -6.83440E+01 -9.31213E+01 -8.76227E+01 -8.49356E+01 -8.59975E+01 -9.07822E+01 -1.06603E+02 -1.16091E+02
  -1.47955E+02 -1.43879E+02 -1.10875E+02 -9.49190E+01 -6.67297E+01 -8.70562E+00 -6.43821E+00 -2.56167E+01 -1.88095E+01 -2.34991E+01
  -1.57582E+01  5.89847E-01 -1.42930E+01 -2.77275E+01 -7.13193E+00 -2.50263E+01 -1.66620E+01 -7.24805E+00 -2.11312E+01 -5.09456E+01
  -1.09699E+02 -9.50559E+01 -1.04390E+02 -1.06850E+02 -6.56267E+01 -3.29954E+01 -3.58459E+00 -2.55434E+00  1.86757E+01  3.54269E+01
   1.17154E+01  5.49192E+00  2.33594E+01 -1.67977E+00 -4.83470E+00 -1.02072E+01 -3.54456E+01 -3.17154E+01 -5.27082E+01 -6.57234E+01
  -5.75776E+01 -3.37026E+01 -3.44947E+01 -1.89461E+01  2.87473E+00  6.68741E-01  2.33615E+01  1.07449E+01 -9.91895E+00 -5.60262E+01
  -8.24009E+01 -4.95494E+01 -5.30551E+01 -5.26134E+01 -2.41584E+01  3.20289E+00  1.46542E+01  1.69511E+01  3.37632E+01  3.67127E+01
   2.72794E+01  2.05191E+01  4.84163E+00 -6.57512E+00 -2.89735E+01 -4.63946E+01 -5.09307E+01 -3.84865E+01 -9.83105E+00  6.14276E+00
   2.17097E+01  2.86442E+01  4.36606E+01  3.21225E+01  2.13900E+01  4.30047E+01  4.84552E+01  5.73390E+01  5.83798E+01  5.37037E+01
   4.67233E+01  4.55173E+01  2.55876E+01  8.06299E+00  6.40127E+00 -2.89759E+01 -5.31737E+01 -5.07280E+01 -4.88093E+01 -8.36184E+01
  -1.31622E+02 -1.79972E+02 -1.88759E+02 -1.40249E+02 -1.07354E+02 -8.03583E+01 -7.12521E+01 -5.82414E+01 -4.98246E+01 -5.38220E+01
  -3.42709E+01 -3.09960E+01 -2.75137E+01 -1.84488E+01 -1.94408E+01 -1.36908E+00  1.01021E+01  1.19643E+01  4.90577E+01  7.94721E+01
   1.22215E+02  1.57471E+02  7.58310E+01 -6.03882E+01 -1.37721E+02 -1.31733E+02 -1.21528E+02 -1.26300E+02 -1.18723E+02 -1.10890E+02
  -9.24125E+01 -9.64181E+01 -9.72004E+01 -1.03692E+02 -1.19753E+02 -9.38147E+01 -9.00789E+01 -9.70496E+01 -8.56315E+01 -8.00651E+01
  -7.60072E+01 -7.99933E+01 -8.50957E+01 -8.38059E+01 -6.76085E+01 -6.72344E+01 -6.36088E+01 -5.67471E+01 -6.55968E+01 -5.62411E+01
  -5.74260E+01 -4.84201E+01 -4.79834E+01 -5.43702E+01 -4.44117E+01 -6.70003E+01 -7.49689E+01 -5.74558E+01 -5.52472E+01 -5.53738E+01
  -4.40953E+01 -3.38799E+01 -1.21617E+01 -1.26815E+00 -1.79794E+01 -3.12048E+01 -2.36711E+01  6.86537E+00  1.83485E+00 -2.59760E+01
  -4.86748E+01 -6.36161E+01 -7.03521E+01 -7.83730E+01 -7.57741E+01 -7.80341E+01 -6.92365E+01 -7.15456E+01 -8.16930E+01 -6.96076E+01
  -5.85094E+01 -5.73802E+01 -5.42518E+01 -5.06620E+01 -4.30889E+01 -3.75910E+01 -5.36724E+01 -4.27573E+01 -3.64318E+01 -3.69658E+01
  -3.47490E+01 -5.49246E+01 -3.37537E+01 -1.91588E+01 -2.14261E+01 -1.50869E+01 -3.33416E+01 -5.09294E+01 -6.78509E+01 -7.96030E+01
  -7.15107E+01 -7.48833E+01 -7.60878E+01 -6.37212E+01 -4.58547E+01 -1.86711E+00  4.56297E+01  5.79522E+01  3.65715E+01  3.19258E+01
   6.87097E+00 -2.32081E+01 -2.94451E+01 -4.17614E+01 -2.29034E+01 -3.51376E+01 -2.47839E+01 -5.32862E+00 -2.97186E+01 -2.10470E+01
  -2.31455E+01 -3.16088E+01 -4.61890E+01 -5.31974E+01 -5.68217E+01 -7.79732E+01 -8.60704E+01 -9.39803E+01 -1.01015E+02 -1.02751E+02
  -1.05967E+02 -9.85017E+01 -7.87681E+01 -7.74286E+01 -5.62225E+01 -3.59445E+01 -4.61365E+01 -4.95371E+01 -4.51763E+01 -4.88894E+01
  -6.63532E+01 -8.00827E+01 -8.99361E+01 -6.89870E+01 -8.50080E+01 -1.20213E+02 -1.62173E+02 -1.50515E+02  5.23972E+01  1.83462E+02
   1.82663E+02  1.63724E+02  1.27955E+02  1.19404E+02  8.28249E+01  6.57526E+01  7.05861E+01  5.25478E+01  5.51879E+01  5.82540E+01
   4.11107E+01  4.28682E+01  5.14061E+01  4.25590E+01  3.90201E+01  4.91696E+01  4.76493E+01  3.95763E+01  4.98586E+01  4.57662E+01
   4.51642E+01  4.28169E+01  3.53922E+01  3.94341E+01  4.01658E+01  3.18562E+01  2.69475E+01  4.29767E+01  2.30648E+01  2.15667E+01
   2.24112E+01  6.70324E+00  1.48787E+01 -2.74126E+00 -1.02799E-01 -6.24084E+00 -9.77733E+00 -1.56853E+01 -2.66122E+01 -1.48014E+01
  -1.90093E+01 -7.45569E+00 -7.63455E+00  7.75320E+00  7.54920E+00  2.22037E+00  2.42710E+01  1.39516E+01  2.16798E+01  3.17161E+01
   3.80163E+01  3.01901E+01  3.34925E+01  4.25180E+01  2.81723E+01  3.40445E+01  2.12690E+01  4.41070E+01  5.37749E+01  1.60012E+01
   2.66233E+01  2.99071E+01  1.59667E+01  1.32096E+01  1.53673E+01  2.27920E+01  3.48438E+01  3.86609E+01  2.57557E+01  2.50730E+01
   2.57512E+01  1.39947E+01  1.41815E+01  1.29142E+01 -5.96682E+00 -8.42505E+00 -6.01980E-01 -6.23983E+00  2.88175E+00  1.61360E+01
   1.12442E+01  1.91286E+01  2.90904E+01  1.62472E+01  7.01617E+00  2.08436E+01  2.94293E+01  2.38557E+01  3.20482E+01  4.14541E+01
   4.84596E+01  4.63031E+01  3.90670E+01  3.69118E+01  3.19603E+01  2.97610E+01  1.63086E+01  6.53150E+00 -5.22329E+00 -1.18112E+01
  -3.57740E+00 -7.62999E+00 -1.63088E+01 -1.43732E+01 -8.33268E+00 -1.30563E+01 -8.68519E+00 -8.59030E+00  3.43257E-02  1.52522E+01
   5.37590E+00  6.97383E+00  1.62226E+01  1.44029E+01  1.34907E+01  1.60038E+01  2.72481E+01  5.17079E+01  4.53136E+01  4.29309E+01
   5.54051E+01  5.68245E+01  6.59209E+01  6.32938E+01  9.07948E+01  9.92653E+01  9.17359E+01  1.13743E+02  1.30731E+02  1.39913E+02
   1.36464E+02  1.23654E+02  8.54222E+01  7.72163E+01  6.04584E+01  3.87767E+01  4.91569E+01  3.54695E+01  3.59941E+01  2.74558E+01
   5.52626E+00 -1.19944E+01 -2.19172E+01 -2.84034E+01 -2.86855E+01 -2.29014E+01 -3.91895E+01 -4.81091E+01 -4.26580E+01 -4.06387E+01
  -4.54436E+01 -3.27473E+01 -3.40665E+01 -3.87833E+01 -3.62941E+01 -5.17056E+01 -5.25264E+01 -4.40395E+01 -2.91423E+01 -4.09399E+01
  -3.95947E+01 -2.96201E+01 -3.89599E+01 -2.89309E+01 -4.27912E+01 -4.27060E+01 -3.18706E+01 -3.70703E+01 -3.84376E+01 -3.86853E+01
  -2.41430E+01 -4.54113E+01 -5.37547E+01 -2.49291E+01 -3.66194E+01 -3.43988E+01 -2.92308E+01 -3.84172E+01 -3.87711E+01 -4.37030E+01
  -3.43770E+01 -3.94217E+01 -3.58568E+01 -3.18752E+01 -3.16202E+01 -2.66269E+01 -2.99592E+01 -1.77252E+01 -2.90588E+01 -2.90843E+01
  -3.80135E+01 -5.12097E+01 -3.72144E+01 -4.02806E+01 -1.98547E+01 -2.12910E+01 -3.88655E+01 -3.74813E+01 -3.49606E+01 -2.67680E+01
  -3.56234E+01 -3.38220E+01 -3.30212E+01 -3.09103E+01 -2.94325E+01 -3.88224E+01 -2.57239E+01 -2.28914E+01 -2.19103E+01 -2.96206E+01
  -3.77004E+01 -2.84231E+01 -3.33743E+01 -3.33812E+01 -4.06379E+01 -3.55654E+01 -3.29547E+01 -3.79217E+01 -2.39267E+01 -2.39101E+01
 NY points of the fit to the data follow
  -6.62617E+01 -7.27370E+01 -8.32203E+01 -9.48068E+01 -9.93205E+01 -8.79843E+01 -6.48142E+01 -4.72402E+01 -4.68963E+01 -5.86929E+01
  -7.19100E+01 -8.02657E+01 -8.33247E+01 -8.31767E+01 -8.16864E+01 -8.03219E+01 -8.04356E+01 -8.42457E+01 -9.51819E+01 -1.13652E+02
  -1.32200E+02 -1.34605E+02 -1.14988E+02 -8.38735E+01 -4.69982E+01 -1.54024E+01 -4.02806E+00 -3.12571E+00 -4.43891E+00 -3.55398E+00
  -1.73150E+00 -2.47816E+00 -4.51896E+00 -6.58073E+00 -8.94606E+00 -1.20451E+01 -1.59205E+01 -2.16503E+01 -3.35432E+01 -5.59353E+01
  -8.57029E+01 -1.08243E+02 -1.09320E+02 -9.03103E+01 -6.27176E+01 -3.47370E+01 -1.20196E+01  2.08392E+00  8.32315E+00  1.03253E+01
   9.62924E+00  7.56515E+00  3.84666E+00 -3.47552E+00 -1.46356E+01 -2.65315E+01 -3.48680E+01 -3.99334E+01 -4.71151E+01 -5.61619E+01
  -5.59051E+01 -4.59529E+01 -3.65556E+01 -2.38511E+01 -5.39856E+00  1.03271E+01  1.85324E+01  1.27849E+01 -1.02543E+01 -4.16146E+01
  -6.22417E+01 -6.12459E+01 -5.02483E+01 -3.84098E+01 -2.20621E+01 -3.66268E+00  1.08414E+01  1.90926E+01  2.30623E+01  2.57576E+01
   2.57483E+01  1.77260E+01 -4.94567E-01 -2.59544E+01 -5.03553E+01 -6.20376E+01 -5.72637E+01 -4.08488E+01 -1.91414E+01 -2.74402E+00
   7.09781E+00  1.26958E+01  1.67227E+01  2.11265E+01  2.58382E+01  3.08984E+01  3.61105E+01  4.00004E+01  4.09272E+01  3.96870E+01
   4.06841E+01  4.37492E+01  4.02073E+01  2.50661E+01  3.97603E+00 -1.98954E+01 -3.70684E+01 -3.80271E+01 -3.98323E+01 -7.04836E+01
  -1.29524E+02 -1.77425E+02 -1.74259E+02 -1.39046E+02 -1.03716E+02 -8.14295E+01 -7.17183E+01 -6.38313E+01 -5.62095E+01 -4.88772E+01
  -4.20261E+01 -3.54414E+01 -2.86177E+01 -2.11212E+01 -1.24658E+01 -2.24789E+00  9.94481E+00  2.54830E+01  4.86930E+01  8.79421E+01
   1.34056E+02  1.46885E+02  7.82345E+01 -4.84896E+01 -1.38437E+02 -1.54005E+02 -1.33344E+02 -1.08622E+02 -1.00028E+02 -9.81465E+01
  -9.72235E+01 -9.67948E+01 -9.66208E+01 -9.62757E+01 -9.59957E+01 -9.56567E+01 -9.46292E+01 -9.21298E+01 -8.86543E+01 -8.49421E+01
  -8.14940E+01 -7.86050E+01 -7.61487E+01 -7.38997E+01 -7.07964E+01 -6.66325E+01 -6.29237E+01 -6.16738E+01 -6.24957E+01 -6.23009E+01
  -5.87848E+01 -5.35582E+01 -5.12305E+01 -5.41667E+01 -5.89908E+01 -6.07368E+01 -5.90113E+01 -5.71344E+01 -5.81424E+01 -5.95685E+01
  -5.40020E+01 -3.80381E+01 -2.00074E+01 -1.46893E+01 -2.44323E+01 -3.25653E+01 -2.55723E+01 -1.17707E+01 -9.33015E+00 -2.40609E+01
  -4.44318E+01 -5.75606E+01 -6.27849E+01 -6.52039E+01 -6.70356E+01 -6.87671E+01 -6.92714E+01 -6.89031E+01 -6.80389E+01 -6.66618E+01
  -6.49746E+01 -6.36660E+01 -6.15987E+01 -5.60137E+01 -4.57122E+01 -3.75432E+01 -3.77282E+01 -3.80815E+01 -3.39652E+01 -3.17094E+01
  -3.26407E+01 -3.43673E+01 -3.02219E+01 -2.18523E+01 -2.00334E+01 -2.55075E+01 -3.44915E+01 -4.40402E+01 -5.44301E+01 -6.67786E+01
  -7.78684E+01 -8.43463E+01 -8.24999E+01 -6.94025E+01 -4.52383E+01 -9.82202E+00  2.53232E+01  4.33322E+01  4.43759E+01  3.07289E+01
   8.04781E+00 -7.16693E+00 -1.42964E+01 -1.29338E+01 -8.13892E+00 -4.58212E+00 -3.91373E+00 -6.85839E+00 -1.39587E+01 -2.40596E+01
  -3.57469E+01 -4.82350E+01 -6.03252E+01 -7.14382E+01 -8.18126E+01 -9.13679E+01 -9.89406E+01 -1.04199E+02 -1.06955E+02 -1.06004E+02
  -1.02891E+02 -9.75903E+01 -8.81056E+01 -7.57821E+01 -6.26664E+01 -5.08228E+01 -4.56714E+01 -4.68410E+01 -5.25741E+01 -5.97330E+01
  -6.67886E+01 -7.52046E+01 -7.98747E+01 -7.95975E+01 -9.43436E+01 -1.37946E+02 -1.75973E+02 -1.22451E+02  2.26047E+01  1.41248E+02
   1.69511E+02  1.44589E+02  1.06421E+02  8.87156E+01  8.10077E+01  7.57678E+01  7.09550E+01  6.56830E+01  6.02884E+01  5.55899E+01
   5.22313E+01  5.06182E+01  5.04856E+01  5.14209E+01  5.28841E+01  5.40262E+01  5.46989E+01  5.43629E+01  5.35859E+01  5.26793E+01
   5.12690E+01  4.93659E+01  4.69596E+01  4.47527E+01  4.28305E+01  4.09186E+01  3.87407E+01  3.65592E+01  3.43576E+01  3.18915E+01
   2.89264E+01  2.53206E+01  2.13162E+01  1.71582E+01  1.30007E+01  9.60203E+00  7.75544E+00  7.80052E+00  9.56336E+00  1.21730E+01
   1.49075E+01  1.75901E+01  2.04745E+01  2.34509E+01  2.62163E+01  2.85633E+01  3.05246E+01  3.23773E+01  3.45506E+01  3.72578E+01
   4.01157E+01  4.25131E+01  4.43193E+01  4.58240E+01  4.73508E+01  4.87666E+01  4.96352E+01  4.99724E+01  4.96596E+01  4.84078E+01
   4.63539E+01  4.39515E+01  4.12211E+01  3.80167E+01  3.45245E+01  3.08158E+01  2.64280E+01  2.04559E+01  1.21019E+01  2.09484E+00
  -7.92713E+00 -1.68866E+01 -2.41811E+01 -2.92717E+01 -3.14224E+01 -3.02589E+01 -2.61967E+01 -2.07406E+01 -1.56718E+01 -1.20497E+01
  -1.00527E+01 -8.73833E+00 -6.81966E+00 -3.44442E+00  1.08492E+00  5.82731E+00  9.68453E+00  1.17484E+01  1.24558E+01  1.26479E+01
   1.24460E+01  1.15376E+01  9.39995E+00  5.85167E+00  8.93069E-01 -4.71566E+00 -9.42452E+00 -1.22753E+01 -1.32217E+01 -1.25458E+01
  -1.06429E+01 -7.94350E+00 -4.57842E+00 -8.65986E-01  3.01669E+00  6.77152E+00  1.00240E+01  1.28743E+01  1.55405E+01  1.82586E+01
   2.12499E+01  2.41632E+01  2.69107E+01  2.96138E+01  3.25814E+01  3.61409E+01  4.02895E+01  4.47612E+01  4.96207E+01  5.53024E+01
   6.16721E+01  6.81758E+01  7.50784E+01  8.27567E+01  9.11074E+01  9.92077E+01  1.05855E+02  1.09398E+02  1.08250E+02  1.01558E+02
   9.02108E+01  7.70289E+01  6.49023E+01  5.51621E+01  4.78110E+01  4.20039E+01  3.64879E+01  2.96337E+01  2.09665E+01  1.11579E+01
   1.22221E+00 -7.76880E+00 -1.48919E+01 -1.99941E+01 -2.36656E+01 -2.63057E+01 -2.80759E+01 -2.91317E+01 -3.00045E+01 -3.09936E+01
  -3.21901E+01 -3.31779E+01 -3.36982E+01 -3.37448E+01 -3.37412E+01 -3.38626E+01 -3.38908E+01 -3.37704E+01 -3.38717E+01 -3.42292E+01
  -3.43039E+01 -3.39120E+01 -3.36374E+01 -3.37693E+01 -3.38971E+01 -3.38372E+01 -3.38290E+01 -3.40341E+01 -3.41933E+01 -3.39275E+01
  -3.33897E+01 -3.30129E+01 -3.30442E+01 -3.33842E+01 -3.37638E+01 -3.39536E+01 -3.38536E+01 -3.35012E+01 -3.31261E+01 -3.28665E+01
  -3.27236E+01 -3.27045E+01 -3.25998E+01 -3.25204E+01 -3.26274E+01 -3.29425E+01 -3.32050E+01 -3.32425E+01 -3.30139E+01 -3.26925E+01
  -3.25240E+01 -3.24810E+01 -3.26507E+01 -3.27947E+01 -3.26447E+01 -3.23315E+01 -3.20279E+01 -3.18242E+01 -3.17641E+01 -3.16993E+01
  -3.15407E+01 -3.13384E+01 -3.13106E+01 -3.15087E+01 -3.17719E+01 -3.18839E+01 -3.19122E+01 -3.16551E+01 -3.10609E+01 -3.02769E+01
  -2.97595E+01 -2.98248E+01 -3.03201E+01 -3.07604E+01 -3.08265E+01 -3.05533E+01 -3.02295E+01 -2.98643E+01 -2.95924E+01 -2.95564E+01
 NY background values follow
    -3.976E+01   -3.957E+01   -3.938E+01   -3.919E+01   -3.900E+01   -3.881E+01   -3.861E+01   -3.842E+01   -3.823E+01   -3.804E+01
    -3.785E+01   -3.765E+01   -3.746E+01   -3.727E+01   -3.708E+01   -3.688E+01   -3.669E+01   -3.650E+01   -3.630E+01   -3.611E+01
    -3.592E+01   -3.572E+01   -3.553E+01   -3.533E+01   -3.514E+01   -3.494E+01   -3.475E+01   -3.456E+01   -3.436E+01   -3.416E+01
    -3.397E+01   -3.377E+01   -3.358E+01   -3.338E+01   -3.319E+01   -3.299E+01   -3.280E+01   -3.260E+01   -3.241E+01   -3.221E+01
    -3.202E+01   -3.183E+01   -3.163E+01   -3.144E+01   -3.125E+01   -3.106E+01   -3.087E+01   -3.068E+01   -3.049E+01   -3.031E+01
    -3.012E+01   -2.994E+01   -2.975E+01   -2.957E+01   -2.939E+01   -2.921E+01   -2.904E+01   -2.886E+01   -2.869E+01   -2.852E+01
    -2.835E+01   -2.818E+01   -2.801E+01   -2.785E+01   -2.768E+01   -2.752E+01   -2.736E+01   -2.721E+01   -2.705E+01   -2.690E+01
    -2.675E+01   -2.660E+01   -2.646E+01   -2.631E+01   -2.617E+01   -2.603E+01   -2.589E+01   -2.576E+01   -2.563E+01   -2.550E+01
    -2.537E+01   -2.524E+01   -2.512E+01   -2.500E+01   -2.488E+01   -2.477E+01   -2.465E+01   -2.454E+01   -2.443E+01   -2.433E+01
    -2.423E+01   -2.413E+01   -2.403E+01   -2.393E+01   -2.384E+01   -2.375E+01   -2.366E+01   -2.358E+01   -2.349E+01   -2.341E+01
    -2.333E+01   -2.326E+01   -2.318E+01   -2.311E+01   -2.304E+01   -2.297E+01   -2.290E+01   -2.283E+01   -2.277E+01   -2.271E+01
    -2.265E+01   -2.259E+01   -2.253E+01   -2.247E+01   -2.242E+01   -2.236E+01   -2.231E+01   -2.226E+01   -2.221E+01   -2.216E+01
    -2.211E+01   -2.207E+01   -2.202E+01   -2.197E+01   -2.193E+01   -2.189E+01   -2.184E+01   -2.180E+01   -2.176E+01   -2.172E+01
    -2.168E+01   -2.164E+01   -2.161E+01   -2.157E+01   -2.153E+01   -2.150E+01   -2.146E+01   -2.143E+01   -2.140E+01   -2.137E+01
    -2.133E+01   -2.130E+01   -2.127E+01   -2.124E+01   -2.121E+01   -2.119E+01   -2.116E+01   -2.113E+01   -2.110E+01   -2.108E+01
    -2.105E+01   -2.103E+01   -2.100E+01   -2.098E+01   -2.095E+01   -2.093E+01   -2.091E+01   -2.088E+01   -2.086E+01   -2.084E+01
    -2.082E+01   -2.080E+01   -2.078E+01   -2.076E+01   -2.074E+01   -2.072E+01   -2.070E+01   -2.068E+01   -2.066E+01   -2.065E+01
    -2.063E+01   -2.061E+01   -2.059E+01   -2.058E+01   -2.056E+01   -2.055E+01   -2.053E+01   -2.052E+01   -2.050E+01   -2.049E+01
    -2.047E+01   -2.046E+01   -2.044E+01   -2.043E+01   -2.042E+01   -2.040E+01   -2.039E+01   -2.038E+01   -2.036E+01   -2.035E+01
    -2.034E+01   -2.033E+01   -2.031E+01   -2.030E+01   -2.029E+01   -2.027E+01   -2.026E+01   -2.025E+01   -2.024E+01   -2.022E+01
    -2.021E+01   -2.020E+01   -2.018E+01   -2.017E+01   -2.016E+01   -2.014E+01   -2.013E+01   -2.012E+01   -2.010E+01   -2.009E+01
    -2.007E+01   -2.006E+01   -2.004E+01   -2.002E+01   -2.001E+01   -1.999E+01   -1.997E+01   -1.996E+01   -1.994E+01   -1.992E+01
    -1.991E+01   -1.989E+01   -1.987E+01   -1.985E+01   -1.984E+01   -1.982E+01   -1.980E+01   -1.979E+01   -1.977E+01   -1.975E+01
    -1.974E+01   -1.972E+01   -1.970E+01   -1.969E+01   -1.967E+01   -1.966E+01   -1.964E+01   -1.963E+01   -1.961E+01   -1.960E+01
    -1.958E+01   -1.957E+01   -1.956E+01   -1.955E+01   -1.953E+01   -1.952E+01   -1.951E+01   -1.950E+01   -1.948E+01   -1.947E+01
    -1.946E+01   -1.945E+01   -1.943E+01   -1.942E+01   -1.941E+01   -1.940E+01   -1.938E+01   -1.937E+01   -1.935E+01   -1.934E+01
    -1.932E+01   -1.930E+01   -1.929E+01   -1.927E+01   -1.925E+01   -1.923E+01   -1.921E+01   -1.918E+01   -1.916E+01   -1.914E+01
    -1.911E+01   -1.908E+01   -1.906E+01   -1.903E+01   -1.900E+01   -1.896E+01   -1.893E+01   -1.889E+01   -1.886E+01   -1.882E+01
    -1.878E+01   -1.873E+01   -1.869E+01   -1.864E+01   -1.859E+01   -1.854E+01   -1.848E+01   -1.843E+01   -1.837E+01   -1.831E+01
    -1.824E+01   -1.818E+01   -1.811E+01   -1.804E+01   -1.796E+01   -1.788E+01   -1.780E+01   -1.772E+01   -1.763E+01   -1.754E+01
    -1.745E+01   -1.735E+01   -1.725E+01   -1.714E+01   -1.704E+01   -1.693E+01   -1.682E+01   -1.671E+01   -1.660E+01   -1.648E+01
    -1.637E+01   -1.625E+01   -1.613E+01   -1.601E+01   -1.589E+01   -1.578E+01   -1.566E+01   -1.554E+01   -1.542E+01   -1.530E+01
    -1.519E+01   -1.507E+01   -1.496E+01   -1.485E+01   -1.474E+01   -1.463E+01   -1.452E+01   -1.442E+01   -1.432E+01   -1.422E+01
    -1.413E+01   -1.404E+01   -1.395E+01   -1.386E+01   -1.378E+01   -1.371E+01   -1.363E+01   -1.356E+01   -1.349E+01   -1.343E+01
    -1.337E+01   -1.332E+01   -1.326E+01   -1.322E+01   -1.317E+01   -1.313E+01   -1.310E+01   -1.306E+01   -1.304E+01   -1.301E+01
    -1.299E+01   -1.298E+01   -1.296E+01   -1.296E+01   -1.295E+01   -1.296E+01   -1.296E+01   -1.297E+01   -1.299E+01   -1.301E+01
    -1.303E+01   -1.306E+01   -1.309E+01   -1.313E+01   -1.317E+01   -1.322E+01   -1.327E+01   -1.332E+01   -1.338E+01   -1.345E+01
    -1.351E+01   -1.358E+01   -1.366E+01   -1.374E+01   -1.382E+01   -1.391E+01   -1.400E+01   -1.409E+01   -1.418E+01   -1.428E+01
    -1.439E+01   -1.449E+01   -1.460E+01   -1.472E+01   -1.483E+01   -1.495E+01   -1.507E+01   -1.520E+01   -1.532E+01   -1.545E+01
    -1.559E+01   -1.572E+01   -1.586E+01   -1.600E+01   -1.614E+01   -1.629E+01   -1.643E+01   -1.658E+01   -1.673E+01   -1.689E+01
    -1.704E+01   -1.720E+01   -1.736E+01   -1.752E+01   -1.768E+01   -1.785E+01   -1.801E+01   -1.818E+01   -1.835E+01   -1.852E+01
    -1.869E+01   -1.886E+01   -1.904E+01   -1.921E+01   -1.939E+01   -1.957E+01   -1.975E+01   -1.993E+01   -2.011E+01   -2.029E+01
    -2.047E+01   -2.065E+01   -2.084E+01   -2.102E+01   -2.121E+01   -2.139E+01   -2.158E+01   -2.176E+01   -2.195E+01   -2.214E+01
    -2.233E+01   -2.251E+01   -2.270E+01   -2.289E+01   -2.308E+01   -2.327E+01   -2.346E+01   -2.365E+01   -2.385E+01   -2.404E+01
    -2.423E+01   -2.442E+01   -2.462E+01   -2.481E+01   -2.500E+01   -2.519E+01   -2.539E+01   -2.558E+01   -2.578E+01   -2.597E+01
    -2.616E+01   -2.636E+01   -2.655E+01   -2.675E+01   -2.694E+01   -2.713E+01   -2.733E+01   -2.752E+01   -2.772E+01   -2.791E+01
    -2.811E+01   -2.830E+01   -2.850E+01   -2.869E+01   -2.889E+01   -2.908E+01   -2.928E+01   -2.947E+01   -2.967E+01   -2.986E+01
    -3.006E+01   -3.025E+01   -3.045E+01   -3.064E+01   -3.084E+01   -3.103E+01   -3.123E+01   -3.143E+01   -3.162E+01   -3.182E+01
 Mac      Conc. = 2.78E-04
  -5.90250E+01 -5.96973E+01 -6.00155E+01 -5.99012E+01 -5.96924E+01 -5.97348E+01 -6.03589E+01 -6.16710E+01 -6.35873E+01 -6.55571E+01
  -6.70032E+01 -6.75083E+01 -6.71773E+01 -6.65181E+01 -6.62711E+01 -6.73693E+01 -6.99489E+01 -7.22209E+01 -7.15651E+01 -6.70977E+01
  -6.11205E+01 -5.60157E+01 -5.18486E+01 -4.85350E+01 -4.65042E+01 -4.54712E+01 -4.47326E+01 -4.35133E+01 -4.16067E+01 -3.92385E+01
  -3.68519E+01 -3.50037E+01 -3.36418E+01 -3.26165E+01 -3.21324E+01 -3.25160E+01 -3.32747E+01 -3.31304E+01 -3.10643E+01 -2.76336E+01
  -2.48502E+01 -2.40977E+01 -2.48118E+01 -2.51894E+01 -2.42286E+01 -2.22505E+01 -2.03659E+01 -1.95155E+01 -1.96930E+01 -2.06074E+01
  -2.20025E+01 -2.34710E+01 -2.46546E+01 -2.54130E+01 -2.59954E+01 -2.63878E+01 -2.65032E+01 -2.60406E+01 -2.47382E+01 -2.30585E+01
  -2.14713E+01 -1.98548E+01 -1.81304E+01 -1.69929E+01 -1.69895E+01 -1.79069E+01 -1.91269E+01 -1.99498E+01 -2.03588E+01 -2.08657E+01
  -2.11907E+01 -2.03405E+01 -1.77283E+01 -1.43184E+01 -1.15908E+01 -1.00641E+01 -9.61979E+00 -1.00084E+01 -1.08454E+01 -1.18929E+01
  -1.27780E+01 -1.32849E+01 -1.37001E+01 -1.38329E+01 -1.34194E+01 -1.24736E+01 -1.13610E+01 -1.03728E+01 -9.49271E+00 -8.73396E+00
  -8.13579E+00 -7.62477E+00 -7.12082E+00 -6.72728E+00 -6.46851E+00 -6.73727E+00 -7.99574E+00 -1.02624E+01 -1.31031E+01 -1.58904E+01
  -1.80429E+01 -1.95149E+01 -2.09476E+01 -2.28903E+01 -2.55310E+01 -2.92758E+01 -3.48793E+01 -4.23040E+01 -4.99989E+01 -5.53833E+01
