 LCModel (Version 6.3-1N) Copyright: S.W. Provencher.          Ref.: Magn. Reson. Med. 30:672-679 (1993).                
 Slice_N1@21_11  28-Feb-2025 11:42:19
 27 lines in following concentration table = NCONC+1
    Conc.  %SD /Cr+PCr  Metabolite                                         
 1.96E-04  12% 1.5E-04 Mac                                                 
    0.000 999%   0.000 Cr                                                  
   10.384  13%   8.000 PCr                                                 
   32.629   7%  25.139 Ins                                                 
   15.468  10%  11.917 NAA                                                 
    6.183  36%   4.764 Tau                                                 
    4.169  13%   3.212 PCho                                                
    0.000 999%   0.000 GPC                                                 
   16.407  13%  12.641 Glu                                                 
    7.305  24%   5.628 Gln                                                 
    0.000 999%   0.000 Ala                                                 
   63.149   4%  48.653 Asc                                                 
    0.000 999%   0.000 Asp                                                 
    3.031  38%   2.335 GABA                                                
    3.150  49%   2.427 Glc                                                 
    6.361  19%   4.901 GSH                                                 
    1.953  81%   1.505 Lac                                                 
    2.561  58%   1.973 NAAG                                                
    0.000 999%   0.000 PE                                                  
    4.169  13%   3.212 GPC+PCho                                            
   18.030   9%  13.891 NAA+NAAG                                            
   23.712  12%  18.268 Glu+Gln                                             
   10.384  13%   8.000 Cr+PCr                                              
   18.030   9%  13.891 NAA+NAAG                                            
   10.384  13%   8.000 Cr+PCr                                              
   23.712  12%  18.268 Glu+Gln                                             
   6 lines in following misc. output table
  FWHM = 0.081 ppm    S/N =   6                                            
  Data shift = 0.033 ppm                                                   
  Ph:-148 deg       0.0 deg/ppm                                            
  alphaB,S = 8.4E-02,   1.9E+01                                            
   19 spline knots.   Ns = 5(1)                                            
  (10) 6 infls.   ( 7) 5 extrs.                                            
  480 points on ppm-axis = NY
      4.100000     4.091866     4.083733     4.075600     4.067466     4.059333     4.051199     4.043066     4.034933     4.026799
      4.018666     4.010532     4.002399     3.994265     3.986132     3.977998     3.969864     3.961731     3.953597     3.945463
      3.937330     3.929196     3.921062     3.912929     3.904795     3.896662     3.888528     3.880394     3.872261     3.864127
      3.855993     3.847860     3.839726     3.831592     3.823459     3.815325     3.807191     3.799058     3.790924     3.782790
      3.774657     3.766523     3.758389     3.750256     3.742122     3.733989     3.725855     3.717721     3.709588     3.701454
      3.693320     3.685187     3.677053     3.668919     3.660786     3.652652     3.644518     3.636385     3.628251     3.620117
      3.611984     3.603850     3.595716     3.587583     3.579449     3.571316     3.563182     3.555048     3.546915     3.538781
      3.530647     3.522514     3.514380     3.506246     3.498113     3.489979     3.481845     3.473712     3.465578     3.457444
      3.449311     3.441177     3.433043     3.424910     3.416776     3.408643     3.400509     3.392375     3.384242     3.376108
      3.367974     3.359841     3.351707     3.343573     3.335440     3.327306     3.319172     3.311039     3.302905     3.294771
      3.286638     3.278504     3.270370     3.262237     3.254103     3.245970     3.237836     3.229702     3.221569     3.213435
      3.205301     3.197168     3.189034     3.180900     3.172767     3.164633     3.156499     3.148366     3.140232     3.132098
      3.123965     3.115831     3.107697     3.099564     3.091430     3.083297     3.075163     3.067029     3.058896     3.050762
      3.042628     3.034495     3.026361     3.018227     3.010094     3.001960     2.993826     2.985693     2.977559     2.969425
      2.961292     2.953158     2.945024     2.936891     2.928757     2.920624     2.912490     2.904356     2.896223     2.888089
      2.879955     2.871822     2.863688     2.855554     2.847421     2.839287     2.831153     2.823020     2.814886     2.806752
      2.798619     2.790485     2.782351     2.774218     2.766084     2.757951     2.749817     2.741683     2.733550     2.725416
      2.717282     2.709149     2.701015     2.692881     2.684748     2.676614     2.668480     2.660347     2.652213     2.644079
      2.635946     2.627812     2.619678     2.611545     2.603411     2.595278     2.587144     2.579010     2.570877     2.562743
      2.554609     2.546476     2.538342     2.530208     2.522075     2.513941     2.505807     2.497674     2.489540     2.481406
      2.473273     2.465139     2.457006     2.448872     2.440738     2.432605     2.424471     2.416337     2.408204     2.400070
      2.391936     2.383803     2.375669     2.367535     2.359402     2.351268     2.343134     2.335001     2.326867     2.318733
      2.310600     2.302466     2.294333     2.286199     2.278065     2.269932     2.261798     2.253664     2.245531     2.237397
      2.229263     2.221130     2.212996     2.204862     2.196729     2.188595     2.180461     2.172328     2.164194     2.156060
      2.147927     2.139793     2.131660     2.123526     2.115392     2.107259     2.099125     2.090991     2.082858     2.074724
      2.066590     2.058457     2.050323     2.042189     2.034056     2.025922     2.017788     2.009655     2.001521     1.993387
      1.985254     1.977120     1.968987     1.960853     1.952719     1.944586     1.936452     1.928318     1.920185     1.912051
      1.903917     1.895784     1.887650     1.879516     1.871383     1.863249     1.855115     1.846982     1.838848     1.830714
      1.822581     1.814447     1.806314     1.798180     1.790046     1.781913     1.773779     1.765645     1.757512     1.749378
      1.741244     1.733111     1.724977     1.716843     1.708710     1.700576     1.692442     1.684309     1.676175     1.668041
      1.659908     1.651774     1.643641     1.635507     1.627373     1.619240     1.611106     1.602972     1.594839     1.586705
      1.578571     1.570438     1.562304     1.554170     1.546037     1.537903     1.529769     1.521636     1.513502     1.505368
      1.497235     1.489101     1.480968     1.472834     1.464700     1.456567     1.448433     1.440299     1.432166     1.424032
      1.415898     1.407765     1.399631     1.391497     1.383364     1.375230     1.367096     1.358963     1.350829     1.342695
      1.334562     1.326428     1.318295     1.310161     1.302027     1.293894     1.285760     1.277626     1.269493     1.261359
      1.253225     1.245092     1.236958     1.228824     1.220691     1.212557     1.204423     1.196290     1.188156     1.180022
      1.171889     1.163755     1.155622     1.147488     1.139354     1.131221     1.123087     1.114953     1.106820     1.098686
      1.090552     1.082419     1.074285     1.066151     1.058018     1.049884     1.041750     1.033617     1.025483     1.017349
      1.009216     1.001082     0.992949     0.984815     0.976681     0.968548     0.960414     0.952280     0.944147     0.936013
      0.927879     0.919746     0.911612     0.903478     0.895345     0.887211     0.879077     0.870944     0.862810     0.854676
      0.846543     0.838409     0.830276     0.822142     0.814008     0.805875     0.797741     0.789607     0.781474     0.773340
      0.765206     0.757073     0.748939     0.740805     0.732672     0.724538     0.716404     0.708271     0.700137     0.692003
      0.683870     0.675736     0.667603     0.659469     0.651335     0.643202     0.635068     0.626934     0.618801     0.610667
      0.602533     0.594400     0.586266     0.578132     0.569999     0.561865     0.553731     0.545598     0.537464     0.529330
      0.521197     0.513063     0.504930     0.496796     0.488662     0.480529     0.472395     0.464261     0.456128     0.447994
      0.439861     0.431727     0.423593     0.415460     0.407326     0.399192     0.391059     0.382925     0.374792     0.366658
      0.358524     0.350391     0.342257     0.334124     0.325990     0.317856     0.309723     0.301589     0.293455     0.285322
      0.277188     0.269055     0.260921     0.252787     0.244654     0.236520     0.228386     0.220253     0.212119     0.203986
 NY phased data points follow
   1.88991E+02  1.87828E+02  1.93195E+02  1.85338E+02  1.89871E+02  1.87735E+02  1.85444E+02  2.04340E+02  1.90827E+02  1.94228E+02
   2.00605E+02  1.87197E+02  1.93277E+02  2.05226E+02  2.09190E+02  2.02558E+02  2.03371E+02  1.97547E+02  1.68979E+02  1.58008E+02
   1.62536E+02  1.45604E+02  1.60154E+02  1.93979E+02  2.05675E+02  2.08339E+02  1.95491E+02  1.91618E+02  1.68561E+02  1.33931E+02
   1.11289E+02  6.10750E+01  1.04906E+00 -3.85683E+01 -9.51852E+01 -1.48521E+02 -1.69551E+02 -2.04173E+02 -2.43623E+02 -2.86038E+02
  -2.98075E+02 -3.06954E+02 -3.31757E+02 -3.08797E+02 -2.96737E+02 -2.75565E+02 -2.46755E+02 -2.58190E+02 -2.38656E+02 -2.19758E+02
  -2.18428E+02 -2.07296E+02 -2.11919E+02 -2.04865E+02 -2.16614E+02 -2.12067E+02 -1.96057E+02 -2.20767E+02 -1.98948E+02 -1.86906E+02
  -1.97825E+02 -1.84177E+02 -1.66513E+02 -1.54395E+02 -1.45594E+02 -1.26283E+02 -1.42881E+02 -1.64914E+02 -1.72978E+02 -1.67987E+02
  -1.58321E+02 -1.67187E+02 -1.45785E+02 -1.22912E+02 -1.23063E+02 -1.12320E+02 -1.10486E+02 -1.06027E+02 -8.92367E+01 -9.73484E+01
  -9.38649E+01 -9.30259E+01 -1.11288E+02 -1.19937E+02 -1.23109E+02 -1.16618E+02 -1.13524E+02 -1.01203E+02 -8.98260E+01 -7.78346E+01
  -7.45714E+01 -7.66263E+01 -6.39599E+01 -4.70329E+01 -2.98833E+01 -3.54401E+01 -2.92717E+01 -4.14390E+01 -5.65978E+01 -3.21578E+01
  -4.93662E+01 -6.28495E+01 -5.41423E+01 -7.47245E+01 -7.62687E+01 -8.68652E+01 -1.05408E+02 -1.07807E+02 -1.46100E+02 -1.73052E+02
  -1.84339E+02 -1.86880E+02 -1.68398E+02 -1.60245E+02 -1.50269E+02 -1.26469E+02 -1.07085E+02 -1.10797E+02 -1.09975E+02 -1.09730E+02
  -8.88004E+01 -6.72932E+01 -7.15122E+01 -6.73699E+01 -5.60244E+01 -3.71050E+01 -3.75602E+01 -2.12153E+01  8.31878E-01  4.20038E+01
   5.23811E+01 -3.61164E+01 -8.34017E+01 -1.03894E+02 -1.24500E+02 -1.31539E+02 -1.37032E+02 -1.34553E+02 -1.41289E+02 -1.29135E+02
  -1.36439E+02 -1.38868E+02 -1.34122E+02 -1.53685E+02 -1.37636E+02 -1.24493E+02 -1.28205E+02 -1.24711E+02 -1.23688E+02 -1.25390E+02
  -1.26868E+02 -1.04932E+02 -1.01640E+02 -1.08998E+02 -9.90954E+01 -9.73813E+01 -9.57585E+01 -9.34196E+01 -8.17244E+01 -8.96668E+01
  -9.76890E+01 -8.97073E+01 -9.51625E+01 -8.96453E+01 -8.34121E+01 -7.33372E+01 -7.88065E+01 -8.41651E+01 -7.35776E+01 -8.59069E+01
  -6.49058E+01 -4.16421E+01 -4.42265E+01 -4.65353E+01 -6.21932E+01 -3.96873E+01 -3.65021E+01 -5.75007E+01 -5.59067E+01 -6.36059E+01
  -6.27493E+01 -8.83266E+01 -1.01781E+02 -8.38730E+01 -8.83197E+01 -1.05820E+02 -9.90241E+01 -7.50754E+01 -9.02772E+01 -8.77916E+01
  -7.13326E+01 -7.76121E+01 -6.73671E+01 -6.84557E+01 -7.75515E+01 -6.18532E+01 -6.73533E+01 -6.62078E+01 -4.55454E+01 -5.48516E+01
  -4.59423E+01 -5.06175E+01 -5.58586E+01 -4.45734E+01 -4.92485E+01 -5.48371E+01 -6.51071E+01 -6.18143E+01 -6.57074E+01 -8.10083E+01
  -9.94333E+01 -7.71215E+01 -7.45223E+01 -7.27006E+01 -2.77466E+01 -3.27550E+01 -8.01122E+00 -3.02436E+00 -1.50751E+01 -6.38674E+00
  -3.62923E+01 -4.14671E+01 -3.51395E+01 -3.75310E+01 -5.03903E+01 -5.37118E+01 -4.28844E+01 -4.74916E+01 -4.56939E+01 -3.87408E+01
  -5.34536E+01 -6.29961E+01 -6.59451E+01 -7.94842E+01 -8.76079E+01 -9.80042E+01 -1.02820E+02 -1.13406E+02 -1.17825E+02 -1.07246E+02
  -1.05358E+02 -1.02749E+02 -9.04718E+01 -9.46959E+01 -9.42549E+01 -6.53724E+01 -6.01718E+01 -7.67041E+01 -8.46870E+01 -7.81141E+01
  -8.08823E+01 -7.49548E+01 -8.49853E+01 -8.74656E+01 -1.09915E+02 -1.77722E+02 -8.34122E+01  2.58894E+01  5.17933E+01  8.37618E+01
   8.03176E+01  8.84761E+01  6.97461E+01  6.17949E+01  6.66062E+01  5.92590E+01  6.84957E+01  4.99050E+01  4.69192E+01  5.86682E+01
   4.60058E+01  4.45382E+01  3.81719E+01  2.49546E+01  4.01456E+01  4.40112E+01  3.78592E+01  3.52617E+01  3.68778E+01  3.65316E+01
   2.29738E+01  3.34569E+01  3.38764E+01  2.60720E+01  3.56736E+01  2.62491E+01  3.03793E+01  2.86224E+01  1.17836E+01  2.15957E+01
   1.75882E+01  2.07775E+01  1.52196E+01  4.48653E+00 -4.03527E+00 -1.41704E+01  2.26006E+00 -1.48316E+01  4.62633E-01 -3.39896E+00
  -1.86429E+01  9.67124E+00  2.45883E-01  5.61077E+00 -1.80591E+00 -7.20499E-01  1.45684E+00  2.18617E+00  1.09093E+01  1.62421E+01
   2.39980E+01  5.63544E+00  3.27514E+01  3.08701E+01  2.78560E+01  4.15329E+01  3.31820E+01  4.01059E+01  1.99968E+01  2.23793E+01
   1.25779E+01 -2.06572E+00 -1.45879E+01 -1.94616E+01 -1.26382E+00 -1.33261E+01 -3.17539E+00  2.45679E+00  1.27588E+01  2.61565E+01
   1.05038E+01  2.65916E+00 -9.42538E+00 -2.34272E+01 -3.76370E+01 -4.30594E+01 -4.58977E+01 -3.91608E+01 -4.14175E+01 -4.83709E+01
  -2.46231E+01 -2.07275E+01 -2.73792E+01 -2.62521E+01 -1.88081E+01 -2.10625E+01 -1.45278E+01  6.84615E-01 -1.72125E+01 -1.23807E+01
  -2.44218E+01 -3.12576E+01 -1.64049E+01 -3.05441E+01 -2.12463E+01 -2.79606E+01 -4.56072E+01 -3.65818E+01 -3.51879E+01 -4.36285E+01
  -4.14584E+01 -4.60371E+01 -3.41580E+01 -1.71217E+01 -3.04692E+01 -2.65279E+01 -2.43834E+01 -2.46783E+01 -3.02692E+01 -1.47847E+01
   6.71083E-01 -3.26295E+00  1.07935E+01  9.99648E+00  1.58137E+01  8.67707E+00  1.62172E+01  1.70751E+01  2.65870E+01  4.08307E+01
   2.74788E+01  5.52641E+01  4.62776E+01  5.84262E+01  6.93752E+01  6.83998E+01  9.85825E+01  9.36549E+01  8.85142E+01  8.14861E+01
   9.65535E+01  7.25412E+01  5.52733E+01  6.18783E+01  3.11794E+01  2.92110E+01  3.11969E+01  2.40980E+01 -4.73433E-01 -8.88437E+00
  -1.47245E+01 -2.98226E+01 -3.01760E+01 -3.85796E+01 -5.00264E+01 -4.97732E+01 -4.08215E+01 -5.44315E+01 -4.96980E+01 -4.08764E+01
  -4.74799E+01 -5.04494E+01 -4.56935E+01 -5.14009E+01 -4.97517E+01 -3.61772E+01 -5.48068E+01 -4.46249E+01 -5.26500E+01 -4.95774E+01
  -3.30419E+01 -4.45204E+01 -3.65755E+01 -4.41561E+01 -3.43511E+01 -3.48513E+01 -2.60571E+01 -2.64854E+01 -3.35566E+01 -2.90780E+01
  -4.07373E+01 -1.95091E+01 -2.66899E+01 -1.79526E+01 -1.70823E+01 -2.82330E+01 -1.60710E+01 -2.75286E+01 -2.45322E+01 -2.35289E+01
  -2.08542E+01 -3.14423E+01 -2.90886E+01 -2.26340E+01 -2.24662E+01 -1.60010E+01 -2.29781E+01 -9.86958E+00 -1.50807E+01 -2.55809E+01
  -3.22460E+01 -3.06073E+01 -2.12994E+01 -2.86024E+01 -3.25214E+01 -3.02872E+01 -2.38999E+01 -3.13090E+01 -2.38849E+01 -1.57915E+01
  -1.95971E+01 -1.75385E+01 -2.77727E+01 -3.29224E+01 -2.56571E+01 -1.93992E+01 -3.42316E+01 -4.31922E+01 -2.85801E+01 -2.27187E+01
  -1.42535E+01 -1.45939E+01 -3.74427E+01 -3.34069E+01 -1.43737E+01 -1.76501E+01 -1.98759E+01 -1.04787E+01 -1.63761E+01 -2.87535E+01
 NY points of the fit to the data follow
   1.98214E+02  2.01686E+02  2.00250E+02  1.84274E+02  1.66608E+02  1.48393E+02  1.44498E+02  1.51475E+02  1.49579E+02  1.50617E+02
   1.56931E+02  1.65378E+02  1.74075E+02  1.81626E+02  1.83286E+02  1.72692E+02  1.83544E+02  1.93948E+02  1.85552E+02  1.74615E+02
   1.70649E+02  1.70475E+02  1.64563E+02  1.54409E+02  1.44842E+02  1.41938E+02  1.45084E+02  1.35372E+02  1.19929E+02  1.04391E+02
   8.80018E+01  7.02969E+01  4.84113E+01  1.87435E+01 -2.25743E+01 -4.98518E+01 -8.68058E+01 -1.43323E+02 -2.13751E+02 -2.68817E+02
  -2.96797E+02 -3.26112E+02 -3.47556E+02 -3.43947E+02 -3.17205E+02 -2.78765E+02 -2.44316E+02 -2.19192E+02 -1.92132E+02 -1.55569E+02
  -1.46896E+02 -1.43412E+02 -1.26344E+02 -1.44401E+02 -1.69290E+02 -1.68143E+02 -1.60999E+02 -1.60119E+02 -1.48644E+02 -1.38746E+02
  -1.51162E+02 -1.60988E+02 -1.54733E+02 -1.65213E+02 -1.91782E+02 -2.06138E+02 -2.03736E+02 -2.03754E+02 -2.07962E+02 -2.07601E+02
  -2.01251E+02 -1.79556E+02 -1.51785E+02 -1.36294E+02 -1.19692E+02 -9.94230E+01 -8.71719E+01 -8.15225E+01 -7.92990E+01 -8.20522E+01
  -8.32064E+01 -8.67614E+01 -8.90114E+01 -8.91956E+01 -8.85215E+01 -8.64856E+01 -8.15752E+01 -7.45282E+01 -6.61247E+01 -5.55638E+01
  -4.72108E+01 -4.49731E+01 -3.35486E+01 -3.33322E+01 -4.63169E+01 -4.90615E+01 -5.24919E+01 -6.32564E+01 -7.19602E+01 -7.58179E+01
  -8.20661E+01 -8.56038E+01 -7.93341E+01 -7.34390E+01 -8.82198E+01 -1.18836E+02 -1.27923E+02 -1.30934E+02 -1.53877E+02 -1.80516E+02
  -1.89911E+02 -1.86955E+02 -1.82160E+02 -1.84575E+02 -1.93072E+02 -1.85353E+02 -1.60455E+02 -1.41209E+02 -1.25499E+02 -1.11654E+02
  -9.85333E+01 -8.61533E+01 -7.46279E+01 -6.23256E+01 -4.65971E+01 -2.38476E+01  4.48954E+00 -9.27221E+00 -2.00784E+01 -1.10206E+01
  -1.49503E+01 -4.11596E+01 -6.12789E+01 -7.23279E+01 -7.89336E+01 -8.62962E+01 -1.05580E+02 -1.30578E+02 -1.32668E+02 -1.31139E+02
  -1.30919E+02 -1.29771E+02 -1.29878E+02 -1.31446E+02 -1.30619E+02 -1.29884E+02 -1.28703E+02 -1.26629E+02 -1.25191E+02 -1.22316E+02
  -1.19554E+02 -1.16725E+02 -1.14525E+02 -1.12371E+02 -1.10232E+02 -1.08202E+02 -1.06261E+02 -1.04602E+02 -1.03058E+02 -1.01408E+02
  -9.96398E+01 -9.77700E+01 -9.63427E+01 -9.52096E+01 -9.38295E+01 -9.15914E+01 -8.73904E+01 -8.13717E+01 -7.69690E+01 -7.59037E+01
  -7.31495E+01 -6.62060E+01 -5.94739E+01 -5.71939E+01 -5.91957E+01 -5.84533E+01 -5.59346E+01 -5.79818E+01 -6.59975E+01 -7.35671E+01
  -7.70702E+01 -7.87113E+01 -8.07114E+01 -8.62085E+01 -8.96686E+01 -8.88721E+01 -8.79527E+01 -8.51406E+01 -8.23020E+01 -7.64838E+01
  -7.08020E+01 -6.97570E+01 -6.58648E+01 -5.91531E+01 -5.42669E+01 -5.42209E+01 -5.40803E+01 -4.96060E+01 -4.49046E+01 -4.23607E+01
  -4.38096E+01 -4.30647E+01 -4.05033E+01 -4.26758E+01 -4.77000E+01 -5.38856E+01 -6.07886E+01 -6.75091E+01 -7.10262E+01 -7.74328E+01
  -7.79971E+01 -6.88145E+01 -6.50806E+01 -5.35809E+01 -4.07856E+01 -3.20455E+01 -2.31766E+01 -1.44319E+01 -6.93093E+00 -3.80922E+00
  -4.61395E-01 -7.31668E-01 -5.46873E+00 -9.98757E+00 -2.05822E+01 -2.98907E+01 -3.91757E+01 -4.99922E+01 -6.00045E+01 -7.31696E+01
  -8.51584E+01 -9.68570E+01 -1.06660E+02 -1.14915E+02 -1.19437E+02 -1.21723E+02 -1.23606E+02 -1.19205E+02 -1.15971E+02 -1.08989E+02
  -1.01120E+02 -9.29867E+01 -8.38204E+01 -7.70946E+01 -7.21759E+01 -6.82640E+01 -6.92353E+01 -7.09088E+01 -7.36337E+01 -7.20433E+01
  -8.53988E+01 -1.18754E+02 -1.19278E+02 -8.61769E+01 -7.67006E+01 -7.79892E+01 -5.36779E+01 -1.26858E+01  1.61745E+01  3.04450E+01
   3.51301E+01  4.77285E+01  7.72553E+01  9.10027E+01  8.16371E+01  7.20877E+01  6.28376E+01  5.56995E+01  5.01147E+01  4.52473E+01
   4.21953E+01  4.01537E+01  3.89323E+01  3.82914E+01  3.82100E+01  3.85932E+01  3.85230E+01  3.88892E+01  3.82285E+01  3.73813E+01
   3.63484E+01  3.44918E+01  3.24693E+01  2.99481E+01  2.73278E+01  2.46211E+01  2.16736E+01  1.85954E+01  1.56897E+01  1.30357E+01
   1.06348E+01  8.59852E+00  6.93425E+00  5.72117E+00  5.14458E+00  4.92885E+00  5.04123E+00  5.54998E+00  6.42416E+00  7.47767E+00
   8.63741E+00  9.92043E+00  1.12272E+01  1.24678E+01  1.37517E+01  1.49819E+01  1.62117E+01  1.73807E+01  1.83658E+01  1.91868E+01
   2.00336E+01  2.05978E+01  2.07465E+01  2.06926E+01  2.04319E+01  1.96333E+01  1.85720E+01  1.72238E+01  1.55774E+01  1.34522E+01
   1.06720E+01  7.27640E+00  3.58087E+00 -4.94687E-01 -5.04508E+00 -9.76977E+00 -1.42123E+01 -1.81596E+01 -2.14467E+01 -2.39737E+01
  -2.57557E+01 -2.65561E+01 -2.63681E+01 -2.53915E+01 -2.34845E+01 -2.05092E+01 -1.83718E+01 -1.78262E+01 -1.60894E+01 -1.67871E+01
  -1.78908E+01 -1.86230E+01 -1.97915E+01 -2.14952E+01 -2.23241E+01 -2.28814E+01 -2.44440E+01 -2.60170E+01 -2.71278E+01 -2.84927E+01
  -2.83417E+01 -2.86211E+01 -2.90729E+01 -2.95089E+01 -2.96213E+01 -2.93981E+01 -2.87482E+01 -2.76664E+01 -2.60871E+01 -2.40933E+01
  -2.18703E+01 -1.94518E+01 -1.69004E+01 -1.43087E+01 -1.17272E+01 -9.11190E+00 -6.45403E+00 -3.89999E+00 -1.17676E+00  1.66268E+00
   4.57143E+00  7.71468E+00  1.12656E+01  1.49165E+01  1.87792E+01  2.31216E+01  2.78415E+01  3.26450E+01  3.76240E+01  4.24833E+01
   4.69657E+01  5.05249E+01  5.28974E+01  5.39031E+01  5.38122E+01  5.25387E+01  4.99664E+01  4.65920E+01  4.26745E+01  3.80959E+01
   3.27988E+01  2.72406E+01  2.15559E+01  1.57285E+01  1.02026E+01  4.99478E+00 -7.56722E-02 -4.79005E+00 -9.14468E+00 -1.30502E+01
  -1.66082E+01 -1.96206E+01 -2.21880E+01 -2.42451E+01 -2.57751E+01 -2.70021E+01 -2.79917E+01 -2.88329E+01 -2.94117E+01 -2.97918E+01
  -3.01675E+01 -3.06127E+01 -3.09518E+01 -3.09918E+01 -3.11105E+01 -3.13190E+01 -3.14354E+01 -3.14173E+01 -3.13812E+01 -3.14399E+01
  -3.15204E+01 -3.15252E+01 -3.13214E+01 -3.11979E+01 -3.11923E+01 -3.10967E+01 -3.09424E+01 -3.08443E+01 -3.07277E+01 -3.05947E+01
  -3.04963E+01 -3.02768E+01 -3.00512E+01 -2.98834E+01 -2.97004E+01 -2.94533E+01 -2.92361E+01 -2.90430E+01 -2.88614E+01 -2.86632E+01
  -2.84305E+01 -2.82785E+01 -2.81545E+01 -2.79151E+01 -2.77701E+01 -2.76429E+01 -2.74574E+01 -2.72613E+01 -2.71475E+01 -2.68975E+01
  -2.66952E+01 -2.64932E+01 -2.62922E+01 -2.60642E+01 -2.59656E+01 -2.57816E+01 -2.56119E+01 -2.54823E+01 -2.53762E+01 -2.52786E+01
  -2.51407E+01 -2.49095E+01 -2.47095E+01 -2.45366E+01 -2.43907E+01 -2.41920E+01 -2.40144E+01 -2.37876E+01 -2.36372E+01 -2.34710E+01
  -2.31437E+01 -2.28849E+01 -2.27478E+01 -2.24798E+01 -2.21113E+01 -2.17184E+01 -2.11221E+01 -2.03938E+01 -1.95690E+01 -1.85475E+01
 NY background values follow
     2.945E+02    2.863E+02    2.780E+02    2.697E+02    2.614E+02    2.531E+02    2.447E+02    2.364E+02    2.281E+02    2.197E+02
     2.114E+02    2.031E+02    1.948E+02    1.865E+02    1.783E+02    1.701E+02    1.619E+02    1.538E+02    1.457E+02    1.376E+02
     1.297E+02    1.217E+02    1.139E+02    1.061E+02    9.839E+01    9.077E+01    8.322E+01    7.577E+01    6.840E+01    6.114E+01
     5.398E+01    4.693E+01    3.998E+01    3.315E+01    2.643E+01    1.984E+01    1.336E+01    6.998E+00    7.648E-01   -5.341E+00
    -1.132E+01   -1.716E+01   -2.287E+01   -2.845E+01   -3.388E+01   -3.918E+01   -4.433E+01   -4.933E+01   -5.418E+01   -5.889E+01
    -6.344E+01   -6.783E+01   -7.206E+01   -7.614E+01   -8.005E+01   -8.379E+01   -8.737E+01   -9.078E+01   -9.401E+01   -9.706E+01
    -9.994E+01   -1.026E+02   -1.052E+02   -1.075E+02   -1.097E+02   -1.117E+02   -1.136E+02   -1.153E+02   -1.169E+02   -1.183E+02
    -1.195E+02   -1.206E+02   -1.216E+02   -1.225E+02   -1.232E+02   -1.238E+02   -1.243E+02   -1.247E+02   -1.250E+02   -1.251E+02
    -1.252E+02   -1.251E+02   -1.250E+02   -1.247E+02   -1.244E+02   -1.240E+02   -1.235E+02   -1.230E+02   -1.223E+02   -1.216E+02
    -1.209E+02   -1.201E+02   -1.192E+02   -1.183E+02   -1.173E+02   -1.163E+02   -1.152E+02   -1.141E+02   -1.129E+02   -1.117E+02
    -1.105E+02   -1.092E+02   -1.080E+02   -1.067E+02   -1.053E+02   -1.040E+02   -1.026E+02   -1.012E+02   -9.985E+01   -9.845E+01
    -9.705E+01   -9.564E+01   -9.424E+01   -9.284E+01   -9.145E+01   -9.007E+01   -8.870E+01   -8.734E+01   -8.601E+01   -8.469E+01
    -8.340E+01   -8.213E+01   -8.089E+01   -7.968E+01   -7.848E+01   -7.732E+01   -7.618E+01   -7.506E+01   -7.397E+01   -7.291E+01
    -7.186E+01   -7.085E+01   -6.985E+01   -6.888E+01   -6.793E+01   -6.701E+01   -6.611E+01   -6.523E+01   -6.438E+01   -6.354E+01
    -6.273E+01   -6.195E+01   -6.118E+01   -6.044E+01   -5.972E+01   -5.902E+01   -5.834E+01   -5.768E+01   -5.704E+01   -5.643E+01
    -5.583E+01   -5.526E+01   -5.470E+01   -5.417E+01   -5.366E+01   -5.316E+01   -5.269E+01   -5.223E+01   -5.179E+01   -5.138E+01
    -5.098E+01   -5.059E+01   -5.023E+01   -4.989E+01   -4.956E+01   -4.925E+01   -4.896E+01   -4.868E+01   -4.842E+01   -4.818E+01
    -4.795E+01   -4.774E+01   -4.755E+01   -4.737E+01   -4.721E+01   -4.706E+01   -4.693E+01   -4.681E+01   -4.671E+01   -4.662E+01
    -4.655E+01   -4.649E+01   -4.644E+01   -4.641E+01   -4.638E+01   -4.636E+01   -4.636E+01   -4.635E+01   -4.636E+01   -4.637E+01
    -4.638E+01   -4.640E+01   -4.641E+01   -4.643E+01   -4.644E+01   -4.646E+01   -4.647E+01   -4.647E+01   -4.647E+01   -4.647E+01
    -4.645E+01   -4.643E+01   -4.640E+01   -4.635E+01   -4.630E+01   -4.623E+01   -4.614E+01   -4.604E+01   -4.593E+01   -4.579E+01
    -4.564E+01   -4.547E+01   -4.528E+01   -4.507E+01   -4.485E+01   -4.461E+01   -4.436E+01   -4.410E+01   -4.383E+01   -4.355E+01
    -4.326E+01   -4.296E+01   -4.266E+01   -4.236E+01   -4.205E+01   -4.174E+01   -4.143E+01   -4.112E+01   -4.082E+01   -4.051E+01
    -4.022E+01   -3.992E+01   -3.964E+01   -3.936E+01   -3.909E+01   -3.883E+01   -3.859E+01   -3.836E+01   -3.814E+01   -3.794E+01
    -3.775E+01   -3.759E+01   -3.744E+01   -3.730E+01   -3.719E+01   -3.709E+01   -3.700E+01   -3.693E+01   -3.688E+01   -3.684E+01
    -3.682E+01   -3.681E+01   -3.681E+01   -3.683E+01   -3.686E+01   -3.690E+01   -3.696E+01   -3.702E+01   -3.710E+01   -3.720E+01
    -3.730E+01   -3.741E+01   -3.754E+01   -3.767E+01   -3.781E+01   -3.797E+01   -3.813E+01   -3.830E+01   -3.848E+01   -3.867E+01
    -3.887E+01   -3.907E+01   -3.928E+01   -3.950E+01   -3.972E+01   -3.995E+01   -4.018E+01   -4.042E+01   -4.066E+01   -4.090E+01
    -4.114E+01   -4.138E+01   -4.163E+01   -4.187E+01   -4.211E+01   -4.235E+01   -4.259E+01   -4.283E+01   -4.306E+01   -4.329E+01
    -4.351E+01   -4.373E+01   -4.395E+01   -4.415E+01   -4.435E+01   -4.454E+01   -4.473E+01   -4.490E+01   -4.507E+01   -4.522E+01
    -4.536E+01   -4.549E+01   -4.561E+01   -4.573E+01   -4.583E+01   -4.592E+01   -4.600E+01   -4.608E+01   -4.615E+01   -4.621E+01
    -4.626E+01   -4.631E+01   -4.635E+01   -4.639E+01   -4.642E+01   -4.645E+01   -4.647E+01   -4.649E+01   -4.650E+01   -4.652E+01
    -4.653E+01   -4.654E+01   -4.655E+01   -4.655E+01   -4.656E+01   -4.657E+01   -4.658E+01   -4.658E+01   -4.659E+01   -4.661E+01
    -4.662E+01   -4.664E+01   -4.666E+01   -4.667E+01   -4.669E+01   -4.671E+01   -4.672E+01   -4.673E+01   -4.674E+01   -4.674E+01
    -4.673E+01   -4.672E+01   -4.670E+01   -4.667E+01   -4.664E+01   -4.659E+01   -4.653E+01   -4.646E+01   -4.638E+01   -4.629E+01
    -4.617E+01   -4.605E+01   -4.591E+01   -4.575E+01   -4.557E+01   -4.537E+01   -4.516E+01   -4.492E+01   -4.467E+01   -4.439E+01
    -4.408E+01   -4.376E+01   -4.341E+01   -4.305E+01   -4.267E+01   -4.228E+01   -4.187E+01   -4.145E+01   -4.102E+01   -4.059E+01
    -4.015E+01   -3.970E+01   -3.925E+01   -3.881E+01   -3.836E+01   -3.792E+01   -3.748E+01   -3.705E+01   -3.663E+01   -3.621E+01
    -3.581E+01   -3.543E+01   -3.506E+01   -3.471E+01   -3.437E+01   -3.406E+01   -3.377E+01   -3.351E+01   -3.327E+01   -3.307E+01
    -3.289E+01   -3.274E+01   -3.262E+01   -3.252E+01   -3.245E+01   -3.241E+01   -3.238E+01   -3.238E+01   -3.239E+01   -3.242E+01
    -3.247E+01   -3.253E+01   -3.261E+01   -3.269E+01   -3.279E+01   -3.289E+01   -3.300E+01   -3.312E+01   -3.324E+01   -3.336E+01
    -3.348E+01   -3.360E+01   -3.372E+01   -3.384E+01   -3.395E+01   -3.405E+01   -3.415E+01   -3.423E+01   -3.431E+01   -3.437E+01
    -3.441E+01   -3.444E+01   -3.446E+01   -3.447E+01   -3.446E+01   -3.445E+01   -3.442E+01   -3.438E+01   -3.434E+01   -3.429E+01
    -3.423E+01   -3.416E+01   -3.408E+01   -3.401E+01   -3.392E+01   -3.384E+01   -3.375E+01   -3.366E+01   -3.356E+01   -3.347E+01
    -3.338E+01   -3.328E+01   -3.319E+01   -3.310E+01   -3.301E+01   -3.293E+01   -3.285E+01   -3.278E+01   -3.271E+01   -3.265E+01
    -3.260E+01   -3.255E+01   -3.251E+01   -3.248E+01   -3.245E+01   -3.243E+01   -3.241E+01   -3.240E+01   -3.239E+01   -3.239E+01
    -3.239E+01   -3.239E+01   -3.240E+01   -3.241E+01   -3.242E+01   -3.244E+01   -3.246E+01   -3.248E+01   -3.249E+01   -3.252E+01
    -3.254E+01   -3.256E+01   -3.258E+01   -3.260E+01   -3.262E+01   -3.263E+01   -3.265E+01   -3.266E+01   -3.268E+01   -3.269E+01
 Mac      Conc. = 1.96E-04
   2.79857E+02  2.70992E+02  2.62028E+02  2.53013E+02  2.44038E+02  2.35012E+02  2.26093E+02  2.17159E+02  2.08052E+02  1.98824E+02
   1.89802E+02  1.81549E+02  1.73456E+02  1.65315E+02  1.57886E+02  1.51121E+02  1.44365E+02  1.37455E+02  1.30736E+02  1.24285E+02
   1.18018E+02  1.11889E+02  1.05486E+02  9.90087E+01  9.26190E+01  8.61440E+01  7.95545E+01  7.28588E+01  6.61197E+01  5.94570E+01
   5.29795E+01  4.67215E+01  4.04657E+01  3.41334E+01  2.79196E+01  2.19870E+01  1.61380E+01  1.03166E+01  4.61851E+00 -9.05399E-01
  -6.21813E+00 -1.15033E+01 -1.69327E+01 -2.25978E+01 -2.82179E+01 -3.36794E+01 -3.90784E+01 -4.43983E+01 -4.97236E+01 -5.49363E+01
  -5.98251E+01 -6.43434E+01 -6.87509E+01 -7.28361E+01 -7.63012E+01 -7.95652E+01 -8.27859E+01 -8.57806E+01 -8.87090E+01 -9.14566E+01
  -9.41072E+01 -9.67458E+01 -9.95197E+01 -1.01929E+02 -1.03860E+02 -1.05660E+02 -1.07363E+02 -1.08705E+02 -1.09687E+02 -1.10394E+02
  -1.11144E+02 -1.11896E+02 -1.12565E+02 -1.13034E+02 -1.13525E+02 -1.14171E+02 -1.14759E+02 -1.15141E+02 -1.15554E+02 -1.15745E+02
  -1.15750E+02 -1.15489E+02 -1.15122E+02 -1.14566E+02 -1.13902E+02 -1.13125E+02 -1.12284E+02 -1.11354E+02 -1.10641E+02 -1.09994E+02
  -1.09492E+02 -1.09173E+02 -1.09090E+02 -1.08966E+02 -1.08970E+02 -1.09201E+02 -1.09498E+02 -1.09846E+02 -1.10565E+02 -1.11686E+02
  -1.13170E+02 -1.14640E+02 -1.15904E+02 -1.17132E+02 -1.18168E+02 -1.18653E+02 -1.18459E+02 -1.17876E+02 -1.16828E+02 -1.15349E+02
