 
 $NMID
 ID=''
 FMTDAT='(2E13.5)'
 TRAMP=   1.00000E+0
 VOLUME=   1.00000E+0
 $END
  -4.26826E+5   3.47063E+5
  -1.37039E+6   5.17238E+5
  -1.25187E+6   6.95319E+5
  -1.17326E+6   5.69377E+5
  -1.24000E+6   4.97055E+5
  -1.23054E+6   4.69975E+5
  -1.23958E+6   4.04101E+5
  -1.29040E+6   4.13447E+5
  -1.24868E+6   4.42108E+5
  -1.21784E+6   3.97461E+5
  -1.22830E+6   3.67440E+5
  -1.20786E+6   3.46965E+5
  -1.20856E+6   3.11170E+5
  -1.22663E+6   3.16497E+5
  -1.20199E+6   3.21579E+5
  -1.18036E+6   2.97368E+5
  -1.18241E+6   2.83473E+5
  -1.17004E+6   2.58516E+5
  -1.16945E+6   2.18652E+5
  -1.17433E+6   2.03168E+5
  -1.15906E+6   1.85967E+5
  -1.15072E+6   1.58753E+5
  -1.14741E+6   1.44661E+5
  -1.13332E+6   1.24401E+5
  -1.12479E+6   9.73746E+4
  -1.11816E+6   9.33769E+4
  -1.10607E+6   8.56644E+4
  -1.09781E+6   7.18902E+4
  -1.08644E+6   6.38254E+4
  -1.07161E+6   5.49735E+4
  -1.06694E+6   3.61073E+4
  -1.05889E+6   2.21910E+4
  -1.04476E+6   4.87316E+3
  -1.03575E+6  -1.21711E+4
  -1.02693E+6  -2.61982E+4
  -1.01592E+6  -4.46717E+4
  -1.00867E+6  -6.45486E+4
  -9.98521E+5  -7.93747E+4
  -9.84506E+5  -9.27238E+4
  -9.75857E+5  -1.04949E+5
  -9.64072E+5  -1.13871E+5
  -9.51637E+5  -1.22959E+5
  -9.41274E+5  -1.30013E+5
  -9.31222E+5  -1.37133E+5
  -9.18416E+5  -1.45625E+5
  -9.09710E+5  -1.52601E+5
  -9.00366E+5  -1.62218E+5
  -8.87710E+5  -1.75624E+5
  -8.73543E+5  -1.87753E+5
  -8.62323E+5  -1.97530E+5
  -8.52168E+5  -2.08903E+5
  -8.41182E+5  -2.20836E+5
  -8.29731E+5  -2.31090E+5
  -8.18710E+5  -2.41368E+5
  -8.07684E+5  -2.51091E+5
  -7.95785E+5  -2.60083E+5
  -7.84189E+5  -2.67869E+5
  -7.73328E+5  -2.74021E+5
  -7.62349E+5  -2.79140E+5
  -7.51612E+5  -2.85397E+5
  -7.41073E+5  -2.92217E+5
  -7.30771E+5  -2.99103E+5
  -7.20652E+5  -3.05825E+5
  -7.09300E+5  -3.13173E+5
  -6.97051E+5  -3.19739E+5
  -6.84260E+5  -3.25613E+5
  -6.72291E+5  -3.31824E+5
  -6.61297E+5  -3.37536E+5
  -6.51493E+5  -3.43252E+5
  -6.40731E+5  -3.48033E+5
  -6.29065E+5  -3.52187E+5
  -6.17701E+5  -3.55184E+5
  -6.08193E+5  -3.59074E+5
  -5.98010E+5  -3.63590E+5
  -5.86935E+5  -3.66275E+5
  -5.76099E+5  -3.68824E+5
  -5.66100E+5  -3.72085E+5
  -5.54819E+5  -3.75852E+5
  -5.42952E+5  -3.79439E+5
  -5.32015E+5  -3.82748E+5
  -5.20841E+5  -3.85609E+5
  -5.09557E+5  -3.87572E+5
  -4.98764E+5  -3.89161E+5
  -4.88006E+5  -3.91569E+5
  -4.76733E+5  -3.93736E+5
  -4.66087E+5  -3.93716E+5
  -4.56679E+5  -3.93862E+5
  -4.47507E+5  -3.94363E+5
  -4.37819E+5  -3.94314E+5
  -4.27881E+5  -3.93683E+5
  -4.18860E+5  -3.92978E+5
  -4.09616E+5  -3.93009E+5
  -3.99835E+5  -3.93122E+5
  -3.89537E+5  -3.92634E+5
  -3.79495E+5  -3.91702E+5
  -3.69878E+5  -3.91360E+5
  -3.60192E+5  -3.90652E+5
  -3.50707E+5  -3.90259E+5
  -3.41777E+5  -3.89152E+5
  -3.32828E+5  -3.88150E+5
  -3.24520E+5  -3.86898E+5
  -3.15305E+5  -3.85618E+5
  -3.06491E+5  -3.84256E+5
  -2.97752E+5  -3.81853E+5
  -2.89975E+5  -3.79227E+5
  -2.82880E+5  -3.76997E+5
  -2.75359E+5  -3.74998E+5
  -2.66450E+5  -3.73442E+5
  -2.58386E+5  -3.70531E+5
  -2.51028E+5  -3.67310E+5
  -2.44291E+5  -3.65103E+5
  -2.36629E+5  -3.63649E+5
  -2.28634E+5  -3.61486E+5
  -2.21167E+5  -3.59221E+5
  -2.13639E+5  -3.56896E+5
  -2.06764E+5  -3.54846E+5
  -1.99522E+5  -3.52366E+5
  -1.92188E+5  -3.49666E+5
  -1.85287E+5  -3.46104E+5
  -1.79530E+5  -3.43286E+5
  -1.73566E+5  -3.40634E+5
  -1.67353E+5  -3.38175E+5
  -1.61136E+5  -3.35428E+5
  -1.55338E+5  -3.32952E+5
  -1.49270E+5  -3.29819E+5
  -1.43371E+5  -3.26571E+5
  -1.37913E+5  -3.23093E+5
  -1.32033E+5  -3.20341E+5
  -1.26771E+5  -3.17458E+5
  -1.21563E+5  -3.14618E+5
  -1.15975E+5  -3.11736E+5
  -1.10195E+5  -3.08759E+5
  -1.05069E+5  -3.05234E+5
  -1.00134E+5  -3.02005E+5
  -9.50146E+4  -2.99054E+5
  -9.02111E+4  -2.95601E+5
  -8.59386E+4  -2.92406E+5
  -8.17780E+4  -2.89179E+5
  -7.69239E+4  -2.85896E+5
  -7.27187E+4  -2.82773E+5
  -6.82136E+4  -2.79349E+5
  -6.40870E+4  -2.75551E+5
  -6.02280E+4  -2.71977E+5
  -5.65208E+4  -2.68614E+5
  -5.28969E+4  -2.65477E+5
  -4.91835E+4  -2.62022E+5
  -4.55756E+4  -2.58286E+5
  -4.20476E+4  -2.54800E+5
  -3.91397E+4  -2.51407E+5
  -3.58877E+4  -2.47448E+5
  -3.29064E+4  -2.44237E+5
  -3.05199E+4  -2.40578E+5
  -2.77878E+4  -2.37008E+5
  -2.52940E+4  -2.33601E+5
  -2.23886E+4  -2.30154E+5
  -2.00491E+4  -2.26410E+5
  -1.75416E+4  -2.23008E+5
  -1.52187E+4  -2.19876E+5
  -1.30707E+4  -2.16239E+5
  -1.08666E+4  -2.12477E+5
  -8.84320E+3  -2.09349E+5
  -6.58156E+3  -2.06172E+5
  -4.82321E+3  -2.02816E+5
  -2.84582E+3  -1.99251E+5
  -1.41241E+3  -1.96150E+5
   4.08948E+2  -1.92830E+5
   2.11088E+3  -1.89642E+5
   3.77003E+3  -1.86430E+5
   5.33710E+3  -1.83473E+5
   6.85468E+3  -1.80429E+5
   8.23241E+3  -1.77136E+5
   9.41252E+3  -1.74242E+5
   1.09666E+4  -1.71630E+5
   1.22828E+4  -1.68547E+5
   1.31720E+4  -1.65418E+5
   1.44837E+4  -1.62795E+5
   1.60093E+4  -1.60123E+5
   1.71490E+4  -1.57194E+5
   1.83169E+4  -1.54270E+5
   1.92907E+4  -1.51659E+5
   2.01739E+4  -1.49038E+5
   2.15694E+4  -1.46322E+5
   2.25532E+4  -1.43980E+5
   2.36168E+4  -1.41193E+5
   2.45093E+4  -1.38833E+5
   2.53046E+4  -1.36259E+5
   2.56622E+4  -1.33696E+5
   2.65280E+4  -1.31345E+5
   2.72849E+4  -1.28965E+5
   2.79508E+4  -1.26777E+5
   2.86053E+4  -1.24449E+5
   2.96759E+4  -1.22512E+5
   3.04163E+4  -1.19921E+5
   3.12713E+4  -1.17474E+5
   3.20056E+4  -1.15519E+5
   3.24539E+4  -1.13255E+5
   3.28622E+4  -1.10898E+5
   3.37519E+4  -1.08921E+5
   3.43641E+4  -1.06894E+5
   3.51402E+4  -1.04819E+5
   3.56834E+4  -1.02337E+5
   3.63113E+4  -1.00611E+5
   3.65483E+4  -9.83037E+4
   3.70430E+4  -9.65666E+4
   3.74564E+4  -9.44529E+4
   3.78338E+4  -9.24812E+4
   3.83411E+4  -9.05540E+4
   3.85471E+4  -8.85395E+4
   3.88360E+4  -8.67084E+4
   3.89397E+4  -8.45629E+4
   3.93045E+4  -8.28316E+4
   3.95738E+4  -8.11096E+4
   3.94769E+4  -7.93298E+4
   3.97877E+4  -7.76336E+4
   3.98010E+4  -7.56321E+4
   4.01012E+4  -7.39510E+4
   4.00068E+4  -7.20197E+4
   3.99915E+4  -7.06554E+4
   4.00049E+4  -6.89592E+4
   3.95029E+4  -6.68786E+4
   3.94409E+4  -6.55041E+4
   3.91982E+4  -6.39371E+4
   3.92359E+4  -6.24035E+4
   3.90254E+4  -6.08708E+4
   3.88144E+4  -5.94361E+4
   3.86583E+4  -5.76119E+4
   3.82174E+4  -5.62215E+4
   3.81871E+4  -5.46894E+4
   3.77557E+4  -5.33155E+4
   3.74673E+4  -5.20419E+4
   3.75645E+4  -5.06242E+4
   3.68452E+4  -4.94191E+4
   3.65241E+4  -4.81099E+4
   3.62802E+4  -4.67556E+4
   3.55987E+4  -4.53146E+4
   3.52377E+4  -4.41899E+4
   3.51239E+4  -4.29052E+4
   3.43807E+4  -4.17142E+4
   3.42912E+4  -4.08995E+4
   3.41973E+4  -3.93250E+4
   3.35703E+4  -3.82577E+4
   3.28755E+4  -3.71916E+4
   3.24062E+4  -3.62624E+4
   3.23043E+4  -3.51962E+4
   3.17461E+4  -3.41807E+4
   3.14484E+4  -3.29907E+4
   3.11098E+4  -3.18565E+4
   3.07250E+4  -3.09511E+4
   3.02734E+4  -3.00682E+4
   2.98258E+4  -2.89357E+4
   2.95636E+4  -2.81810E+4
   2.89471E+4  -2.72571E+4
   2.87777E+4  -2.61837E+4
   2.84370E+4  -2.53618E+4
   2.79226E+4  -2.46396E+4
   2.73357E+4  -2.35676E+4
   2.73042E+4  -2.31533E+4
   2.70187E+4  -2.24671E+4
   2.67668E+4  -2.15433E+4
   2.65874E+4  -2.08402E+4
   2.61864E+4  -1.96712E+4
   2.59123E+4  -1.92632E+4
   2.52880E+4  -1.84854E+4
   2.50353E+4  -1.76154E+4
   2.47429E+4  -1.72533E+4
   2.44008E+4  -1.65037E+4
   2.40459E+4  -1.60914E+4
   2.38181E+4  -1.53127E+4
   2.32069E+4  -1.45574E+4
   2.28206E+4  -1.42007E+4
   2.24195E+4  -1.35376E+4
   2.20540E+4  -1.28997E+4
   2.18357E+4  -1.22901E+4
   2.18124E+4  -1.16784E+4
   2.11839E+4  -1.14474E+4
   2.11258E+4  -1.08864E+4
   2.06959E+4  -1.01781E+4
   2.04739E+4  -9.91377E+3
   1.98339E+4  -9.37269E+3
   1.97032E+4  -8.98544E+3
   1.92592E+4  -8.35778E+3
   1.89240E+4  -7.92531E+3
   1.85174E+4  -7.74553E+3
   1.83595E+4  -6.91762E+3
   1.77754E+4  -6.84258E+3
   1.77074E+4  -6.43294E+3
   1.71080E+4  -6.04646E+3
   1.69665E+4  -5.53165E+3
   1.64815E+4  -5.33046E+3
   1.62605E+4  -5.06915E+3
   1.61108E+4  -4.77561E+3
   1.57842E+4  -4.35781E+3
   1.52543E+4  -3.64938E+3
   1.52102E+4  -3.52684E+3
   1.46813E+4  -3.10883E+3
   1.44690E+4  -2.89014E+3
   1.41039E+4  -2.49679E+3
   1.38477E+4  -2.38437E+3
   1.37777E+4  -1.94929E+3
   1.32655E+4  -1.65595E+3
   1.30025E+4  -1.25829E+3
   1.28378E+4  -1.03300E+3
   1.22887E+4  -6.86223E+2
   1.22960E+4  -6.94923E+2
   1.21568E+4  -2.99839E+2
   1.17651E+4   1.03216E+2
   1.16148E+4   1.47217E+2
   1.11334E+4   1.23772E+2
   1.10516E+4   6.70507E+2
   1.09837E+4   7.15424E+2
   1.06850E+4   1.14686E+3
   1.04504E+4   1.32245E+3
   1.05539E+4   1.28427E+3
   1.03032E+4   1.51619E+3
   1.00220E+4   1.71941E+3
   9.91377E+3   1.82109E+3
   9.57045E+3   2.06593E+3
   9.61258E+3   2.12274E+3
   9.24456E+3   2.56942E+3
   9.29799E+3   2.48845E+3
   9.13432E+3   2.56416E+3
   8.85949E+3   2.59020E+3
   8.86838E+3   2.97017E+3
   8.59265E+3   2.97496E+3
   8.43897E+3   3.24710E+3
   8.51926E+3   3.31742E+3
   8.17896E+3   3.02033E+3
   8.17438E+3   3.17898E+3
   8.17172E+3   3.30602E+3
   8.06677E+3   3.34731E+3
   7.82370E+3   3.55600E+3
   7.86276E+3   3.58796E+3
   7.65517E+3   3.54646E+3
   7.58434E+3   3.53944E+3
   7.39396E+3   3.68531E+3
   7.25246E+3   3.57155E+3
   7.37479E+3   3.85600E+3
   7.19344E+3   3.90367E+3
   6.95536E+3   4.00802E+3
   6.88584E+3   3.82694E+3
   6.81878E+3   3.81069E+3
   6.84429E+3   3.84658E+3
   6.72227E+3   3.84398E+3
   6.55723E+3   4.13467E+3
   6.64488E+3   3.74441E+3
   6.25440E+3   3.94861E+3
   6.29307E+3   4.08152E+3
   6.24132E+3   3.93295E+3
   5.96417E+3   3.81259E+3
   6.14076E+3   3.98768E+3
   5.75553E+3   3.99642E+3
   5.93821E+3   3.88663E+3
   5.79386E+3   4.02628E+3
   5.58646E+3   3.92286E+3
   5.64886E+3   3.97842E+3
   5.55483E+3   3.84400E+3
   5.24029E+3   3.83454E+3
   5.40046E+3   3.95084E+3
   5.04263E+3   3.99371E+3
   5.07832E+3   4.05399E+3
   5.23081E+3   3.96576E+3
   4.92512E+3   4.17076E+3
   4.69724E+3   4.12920E+3
   4.60142E+3   4.13940E+3
   4.49389E+3   3.99798E+3
   4.45422E+3   3.99991E+3
   4.36526E+3   4.35483E+3
