 
 $NMID
 ID=''
 FMTDAT='(2E13.5)'
 TRAMP=   1.00000E+0
 VOLUME=   1.00000E+0
 $END
   8.37860E+2   1.15910E+4
   8.16666E+3  -4.39261E+3
  -6.43230E+3  -6.99070E+3
   1.86788E+3   8.13393E+3
   7.23319E+3   7.62010E+2
  -6.92473E+3  -3.83582E+3
  -1.87527E+3   4.80085E+3
   7.74160E+3  -1.58515E+3
  -2.10656E+3  -4.42970E+3
  -1.22841E+3   4.84564E+3
   4.20274E+3   2.00437E+3
  -4.54428E+3  -3.35148E+3
  -3.48618E+3   1.83993E+3
   3.82062E+3   1.72349E+3
  -2.93769E+3  -1.58542E+3
  -3.58575E+3  -8.48638E+2
   4.25460E+3  -2.70420E+3
   8.31171E+2  -9.55957E+2
  -1.30888E+3   2.63908E+3
   1.88636E+3  -5.63995E+2
   1.74524E+2  -1.11702E+3
  -9.74753E+2   2.36248E+3
   1.96053E+3  -1.60342E+2
   3.62663E+2  -1.59295E+2
  -1.33960E+3   2.68700E+3
  -1.44422E+2  -5.49880E+2
   5.79175E+2  -1.87665E+3
   7.62230E+2   2.46828E+3
  -9.60463E+2   1.72258E+3
  -2.11435E+3  -1.26633E+3
   5.16156E+2  -6.75004E+2
   1.30206E+3  -3.53051E+0
  -8.99516E+2   8.09966E+2
  -2.00837E+3   9.79631E+2
  -1.44985E+3  -1.81761E+3
   1.52929E+2  -2.93604E+3
   2.04319E+3  -3.27529E+2
   1.13601E+3   1.18965E+3
  -6.02556E+2   9.98317E+0
   3.43891E+2   3.03895E+2
   4.34529E+2   1.59771E+3
  -1.28181E+3   8.02504E+2
  -1.02483E+3  -1.29474E+3
   4.48825E+2  -1.39261E+3
   3.00983E+2  -1.01211E+2
   2.46845E+2  -2.02593E+2
   1.31859E+3   1.39420E+2
   4.96804E+2   1.73230E+3
  -1.43775E+3   1.23420E+3
  -1.56454E+3  -8.48371E+2
  -2.94250E+2  -1.20354E+3
   9.95354E+1  -5.16193E+2
  -2.12754E+2  -5.00834E+2
   4.48904E+2  -6.61378E+2
   9.90554E+2  -3.80172E+2
   5.54138E+2   2.01214E+2
  -2.97837E+2   1.32834E+3
  -9.19490E+2   4.04163E+2
  -6.44082E+2  -8.82842E+2
   2.63421E+2  -8.74894E+2
   5.77519E+2  -3.36540E+2
   6.50057E+2  -1.35650E+2
   1.13076E+3   6.53011E+1
   5.65649E+2   8.92826E+2
  -6.64142E+2   1.45587E+3
  -1.28517E+3   3.64474E+2
  -9.06899E+2  -7.47051E+2
  -6.49105E+2  -1.08692E+3
  -3.79109E+1  -1.01863E+3
   8.11648E+2  -2.22867E+2
   1.90605E+2   1.70614E+2
  -2.80376E+2  -1.21800E+2
   2.72513E+2  -5.70851E+2
   8.80284E+2  -7.44563E+1
   3.84547E+2   5.17878E+2
  -1.21993E+2   2.84496E+1
   9.44026E+1  -9.79005E+1
   1.38264E+2   9.93098E+1
   6.55519E+1   2.91808E+2
  -1.11741E+2   2.79313E+2
  -5.67605E+2   2.34829E+2
  -5.86933E+2  -1.90897E+2
  -2.36237E+1  -2.18841E+2
  -2.77517E+1  -2.48581E+2
  -1.47776E+2  -3.58847E+2
  -2.96212E+2  -2.76542E+2
   6.95663E+0  -5.66261E+2
   5.22103E+2  -2.62806E+2
   4.27682E+2  -6.09505E+1
   1.75715E+2   2.81083E+0
   3.39698E+2  -3.84906E+2
   6.07630E+2   1.21064E+1
   4.42511E+2   5.31319E+2
   7.32189E+1   1.04049E+3
  -4.53265E+2   3.78510E+2
  -4.98492E+2  -4.69678E+2
  -4.41354E+1  -3.07792E+2
   1.24194E+2  -8.03431E+1
  -4.21601E+2  -1.17839E+2
  -2.92796E+2  -2.42790E+2
   3.22238E+2  -5.00763E+2
   5.48660E+2   1.63357E+2
  -6.92981E+1   3.35075E+2
  -4.17010E+2   2.28390E+2
  -1.01567E+2  -5.24998E+2
   3.52017E+2  -5.18046E+2
   5.57843E+2   1.11533E+2
  -2.22852E+1   5.51743E+2
  -4.39096E+2   4.45298E+2
  -4.04871E+2  -3.53998E+2
  -3.16001E+1  -7.78405E+2
   2.27863E+2  -4.02928E+2
   3.08358E+2   1.51655E+2
  -1.99657E+2   3.36096E+2
   4.30074E+1   8.84940E+1
   3.10311E+2   2.83743E+2
  -1.27191E+2   6.61755E+2
  -4.63998E+2   3.65179E+2
  -7.66006E+2  -2.54995E+2
  -2.34335E+2  -8.47296E+2
   3.92144E+2  -4.62041E+2
   2.53076E+2  -1.72187E+2
   2.33569E+2  -8.37162E+1
   3.79140E+2  -6.56664E+1
   4.95825E+1   5.14531E+2
  -3.96418E+1   2.09560E+2
  -2.40851E+2   1.33689E+2
   1.85654E+2  -1.46343E+2
   1.78428E+2  -1.08042E+2
   1.10380E+2   2.69337E+1
   2.87277E+2   3.21577E+2
   4.89473E+1   4.21037E+2
  -3.79346E+2   1.23273E+2
  -1.99100E+2  -7.69932E+1
   6.23419E+1   3.41611E+1
  -2.77996E+0   1.02229E+2
  -1.08329E+2  -1.25426E+2
   3.32146E+2  -5.13250E+2
   4.34809E+2   6.74849E+1
   4.34580E+2   5.62279E+2
  -1.35157E+2   2.60153E+2
  -4.26030E+2  -1.79248E+2
  -2.09672E+2  -2.25486E+2
   3.46906E+2  -1.98897E+2
   2.95180E+2   2.61958E+2
  -1.52962E+2   4.22200E+2
  -2.14832E+0   1.44241E+1
   1.02396E+2   7.00191E+1
  -1.82455E+2   2.46565E+2
  -1.91598E+2  -7.43584E+0
  -2.65921E+2   8.63973E+0
  -2.39891E+2  -9.25688E+1
   1.11906E+1  -2.91641E+2
   2.20248E+2  -1.85659E+2
   7.50468E+1   1.23772E+2
   2.77227E+2   5.74611E+1
   2.72369E+2  -1.55132E+2
   2.70231E+2   1.09119E+2
   1.70459E+2   1.83233E+2
   3.04557E+2   9.86575E+1
  -3.80640E+1   2.30691E+2
   8.41285E+0   1.94110E+2
  -1.22349E+2   2.66017E+2
  -1.88834E+2   1.38844E+2
  -1.64589E+2   2.09666E+2
  -9.17810E+1  -1.20810E+2
   3.73359E+2   1.71759E+1
   4.62753E+1   2.11828E+2
  -1.17739E+2   2.87269E+2
  -8.15526E+0  -7.64870E+1
   1.69668E+2   2.08521E+1
   1.49975E+2   1.74376E+2
   6.07291E+1   2.69706E+2
   5.97715E+1  -1.93294E+2
   4.88314E+0   1.26148E+2
  -1.31232E+1  -1.29392E+2
   3.00425E+2   2.43019E+1
   8.10435E+1   1.46937E+2
  -2.09839E+2   1.71663E+2
   7.26596E+1  -1.57768E+1
   3.77148E+2  -8.06643E+1
   2.53449E+2   1.20425E+1
   7.68649E+1   2.34316E+1
   6.33513E+1   3.15319E+2
  -7.28300E+1  -9.19867E+1
  -3.41484E+1   8.52513E+1
  -2.96200E+1  -1.48622E+1
   2.18746E+1  -1.52984E+0
  -3.59362E+1  -2.93993E+2
   3.59233E+2  -3.99705E+2
   4.84915E+2  -6.39418E+1
   2.77132E+2   2.48637E+2
  -1.75340E+2   4.33604E+2
   2.12320E+1   1.82093E+2
  -4.12087E+1   2.83476E+1
   9.57449E+0  -7.61552E+1
   8.10016E+1   1.31146E+2
   9.99239E+1   7.31298E+1
   2.57443E+1  -2.09798E+2
   2.27924E+2   1.73027E+2
   1.21593E+2   1.06540E+2
  -1.86968E+1   1.51077E+2
  -6.48266E+0   1.79486E+2
  -5.74051E+0  -6.73186E+1
   5.41212E+1  -5.60596E+1
   2.48905E+1  -1.47982E+2
   8.72715E+0  -1.07087E+2
  -5.66758E+1  -1.68356E+0
   5.88149E+1   2.94808E+1
   4.01423E+1   2.68089E+1
   9.70240E+1  -1.07035E+2
  -8.00315E+1  -3.39907E+2
  -3.84968E+1  -2.12141E+2
   1.35226E+2   1.92337E+2
   4.32277E+1   1.67465E+2
   2.07398E+2   7.10313E+1
  -3.33634E+2  -4.69384E+1
   2.82181E+1   7.47341E+1
  -7.54637E+1  -5.81860E+1
   9.37514E+1   8.99918E+1
  -2.97836E+1  -4.41946E+1
  -8.04475E+0   5.19678E+1
   1.47410E+2   2.99531E+1
  -7.55123E+1   1.45266E+2
   3.36515E+1   3.89280E+2
  -2.67740E+2  -1.59773E+2
  -8.59811E+1  -1.31840E+2
  -1.29325E+1   5.40199E+1
  -5.75624E+1  -1.12642E+2
   3.13875E+1   2.29450E+2
  -1.61477E+2  -4.14323E+1
  -4.29867E+1   8.33555E-1
  -2.61998E+1   1.50671E+1
   6.23912E+1  -2.36519E+1
  -2.70869E+2   1.71903E+2
   2.14961E+1  -1.29326E+2
   2.21752E+1  -4.46370E+1
   1.14711E+2   1.32458E+1
  -2.46813E+1   1.49869E+2
  -1.29841E+2   2.01308E+2
  -6.62298E+1  -9.54198E+1
   1.78501E+2  -1.77069E+2
   1.05443E+2  -2.18255E+1
  -2.45155E+1   2.00697E+2
  -1.37156E+2   1.06366E+2
  -1.89691E+2   2.13371E+2
  -5.66699E+1   4.90023E+1
  -2.52489E+2   2.58253E+2
   1.35326E+2   1.28728E+2
   9.34375E+1  -9.87039E+1
   2.37223E+2  -1.28247E+2
   5.13106E+1   2.00984E+2
  -6.75216E+1  -8.09228E+0
  -1.60099E+1   1.42093E+2
  -9.25232E+1  -1.74471E+2
  -1.01499E+2  -6.18563E+1
  -2.36875E+1  -1.66987E+2
   8.61698E+1   6.68681E+1
   1.13097E+2   9.10667E-2
   1.90193E+2  -1.21787E+2
   7.03135E+1  -1.80717E+2
   3.25137E+1  -9.66724E-1
  -2.52780E+2  -1.86720E+2
  -2.24246E+2   2.77242E+1
  -1.46152E+2   1.47093E+2
  -1.60838E+2  -2.40811E+1
   2.79202E+1  -1.93669E+2
  -9.45977E+1   7.23817E+1
  -4.37051E+1  -7.42164E+1
  -8.90697E+1  -1.57729E+2
   7.65031E+1   1.98159E+0
   5.94701E+1   8.48900E+1
   4.05808E+1   1.39424E+2
   1.12446E+2   1.13404E+1
   5.63622E+0  -1.03130E+2
  -7.26826E+1   8.09456E+1
  -7.27879E+1   6.21472E+1
   7.56096E+0  -1.81583E+1
   3.82714E+1  -1.74759E+2
   1.91256E+1  -3.12660E+1
  -2.02227E+2  -2.23696E+2
  -1.33857E+2  -8.55937E+1
   7.94541E+1  -3.40863E+2
  -1.51263E+2  -1.90203E+1
   2.98157E+1  -1.36902E+2
  -1.63956E+2   6.95161E+0
  -2.36092E+2  -2.65283E+1
  -1.78720E+2   1.17827E+2
   9.50172E+1   5.85861E+1
   1.48819E+2   2.86859E+2
   3.67016E+1   7.88922E+1
  -1.27207E+2   1.97227E+2
   1.06318E+2  -3.11154E+0
   7.58587E+1   4.33924E+0
  -9.22007E+1  -5.17747E+0
  -3.70043E+2  -1.64303E+2
  -2.03338E+2   3.89112E+1
  -2.82775E+2  -1.07280E+2
   8.63211E+1  -8.92900E+1
  -3.33498E+1  -5.92963E+1
  -1.80529E+2  -9.47894E+1
  -1.54572E+2   2.87763E+1
  -4.28402E+1   2.97251E+2
  -8.33850E+1  -4.69531E+1
  -8.68466E+1  -1.38771E+2
   1.08104E+1   1.54613E+2
   6.69171E+1  -5.12038E+1
  -7.51513E+1  -1.56036E+2
  -1.19147E+2   1.07582E+2
   2.48623E+1   1.37132E+2
  -4.18671E+1   7.43037E+1
  -1.64211E+2   3.93400E+1
  -2.30172E+2   2.52657E+2
  -2.43024E+2  -7.84712E+1
  -5.53714E+1   7.76612E+1
  -4.95350E+1   1.92416E+1
  -9.91984E+0   3.45676E+0
  -1.03871E+2   3.97478E+1
  -1.09003E+2   1.67456E+2
  -3.27216E+1   2.15303E+2
   7.69359E+1   6.47392E+1
  -4.05438E+1  -1.53367E+2
   1.53362E+1  -3.91343E+1
  -2.47436E+2   7.02005E+1
  -1.76945E+2  -7.08888E+1
  -8.91259E+1  -1.83120E+1
  -7.47575E+1  -5.12422E+1
  -8.48668E+1   2.84638E+1
   6.05036E+0   1.84441E+2
  -1.95141E+2  -2.94935E+1
  -8.12790E-2   1.07976E+2
  -8.52537E+1   6.99518E+0
   4.20689E+1   1.19357E+2
   1.50252E+2  -1.25151E+2
   1.83114E+1   1.98741E+2
   1.98564E+1  -1.01395E+2
  -1.48721E+1   2.49265E+2
   1.95930E+2  -1.53583E+2
  -2.09641E+2   9.62712E+1
  -1.50202E+2  -4.87054E+0
  -2.13782E+2   5.06623E+1
   2.27937E+2   5.27936E+1
   5.75055E+1   2.68561E+2
  -7.07894E+0   1.73107E+2
   1.49563E+1  -1.22780E+2
  -1.29748E+2   1.17186E+2
  -4.69722E+1  -5.47354E+1
  -1.60244E+0   1.73650E+2
  -1.47180E+2   8.62441E+0
   1.97562E+2   2.64012E+2
   1.07450E+2   8.20683E+1
  -4.38077E+1   2.20936E+1
  -8.63068E+1   1.07734E+2
   9.42194E+1  -6.21904E+1
  -1.51503E+2   5.51900E+1
   2.61682E+2  -5.20757E+1
  -1.23186E+2   1.38623E+2
   6.88656E+1  -8.27985E+0
   4.96169E+0   2.48545E+1
  -5.19755E+1   2.15513E+2
  -2.47641E+2   1.10981E+2
  -1.61346E+2   3.71502E+1
  -2.86483E+2   6.45893E+1
   3.58060E+2  -7.20489E+1
   9.47713E+1   1.65436E+1
   9.28333E+1  -7.57461E+1
   5.19327E+1   1.41903E+1
