 
 $NMID
 ID=''
 FMTDAT='(2E13.5)'
 TRAMP=   1.00000E+0
 VOLUME=   1.00000E+0
 $END
  -1.51255E+5   4.67992E+5
  -7.81788E+5   1.05386E+6
  -6.02183E+5   1.15297E+6
  -5.88103E+5   1.05596E+6
  -6.40305E+5   1.05997E+6
  -6.04705E+5   1.03901E+6
  -6.15829E+5   9.83543E+5
  -6.46619E+5   1.00995E+6
  -6.07462E+5   1.02261E+6
  -5.97028E+5   1.00171E+6
  -5.92850E+5   1.01380E+6
  -5.54749E+5   1.00404E+6
  -5.44257E+5   9.75570E+5
  -5.38239E+5   9.81222E+5
  -5.11160E+5   9.76768E+5
  -5.00226E+5   9.63207E+5
  -4.94572E+5   9.72626E+5
  -4.76385E+5   9.62736E+5
  -4.74305E+5   9.41301E+5
  -4.71863E+5   9.38188E+5
  -4.60166E+5   9.25012E+5
  -4.56707E+5   9.09064E+5
  -4.48240E+5   9.07612E+5
  -4.35249E+5   8.98187E+5
  -4.29989E+5   8.82079E+5
  -4.11969E+5   8.79734E+5
  -3.91952E+5   8.73000E+5
  -3.81161E+5   8.64525E+5
  -3.66224E+5   8.58024E+5
  -3.47197E+5   8.48155E+5
  -3.40796E+5   8.39049E+5
  -3.32387E+5   8.31902E+5
  -3.23143E+5   8.18343E+5
  -3.16748E+5   8.06287E+5
  -3.09007E+5   7.97748E+5
  -3.01938E+5   7.86022E+5
  -3.00122E+5   7.75204E+5
  -2.94659E+5   7.65337E+5
  -2.84492E+5   7.53019E+5
  -2.76008E+5   7.44038E+5
  -2.66092E+5   7.34945E+5
  -2.54925E+5   7.23889E+5
  -2.43523E+5   7.14685E+5
  -2.32589E+5   7.07183E+5
  -2.22572E+5   6.96097E+5
  -2.12902E+5   6.86999E+5
  -2.05059E+5   6.79036E+5
  -2.00272E+5   6.67461E+5
  -1.96011E+5   6.54421E+5
  -1.89368E+5   6.43416E+5
  -1.83957E+5   6.33597E+5
  -1.80773E+5   6.23165E+5
  -1.76186E+5   6.12530E+5
  -1.71479E+5   6.02113E+5
  -1.66646E+5   5.91953E+5
  -1.61582E+5   5.81347E+5
  -1.56382E+5   5.70958E+5
  -1.50193E+5   5.60546E+5
  -1.43696E+5   5.50702E+5
  -1.38597E+5   5.41394E+5
  -1.34261E+5   5.31739E+5
  -1.29410E+5   5.21536E+5
  -1.25617E+5   5.11934E+5
  -1.22555E+5   5.02086E+5
  -1.19684E+5   4.90855E+5
  -1.16015E+5   4.79647E+5
  -1.12681E+5   4.69009E+5
  -1.09344E+5   4.58909E+5
  -1.06860E+5   4.49586E+5
  -1.03928E+5   4.39879E+5
  -1.00970E+5   4.30287E+5
  -9.75811E+4   4.20726E+5
  -9.44903E+4   4.11621E+5
  -9.19708E+4   4.02121E+5
  -8.93965E+4   3.92484E+5
  -8.71869E+4   3.82946E+5
  -8.54336E+4   3.73532E+5
  -8.37685E+4   3.64236E+5
  -8.24761E+4   3.54843E+5
  -8.12397E+4   3.45823E+5
  -8.01933E+4   3.36582E+5
  -7.89986E+4   3.26947E+5
  -7.76939E+4   3.17942E+5
  -7.69102E+4   3.09300E+5
  -7.62160E+4   3.01166E+5
  -7.46518E+4   2.92526E+5
  -7.28979E+4   2.84445E+5
  -7.20775E+4   2.76727E+5
  -7.08273E+4   2.69262E+5
  -6.95394E+4   2.61482E+5
  -6.85533E+4   2.53832E+5
  -6.78782E+4   2.46592E+5
  -6.75572E+4   2.39067E+5
  -6.69994E+4   2.31515E+5
  -6.65611E+4   2.24191E+5
  -6.60236E+4   2.16976E+5
  -6.56884E+4   2.09889E+5
  -6.58696E+4   2.02789E+5
  -6.58105E+4   1.96195E+5
  -6.51979E+4   1.89707E+5
  -6.45420E+4   1.83718E+5
  -6.44178E+4   1.77788E+5
  -6.38685E+4   1.71458E+5
  -6.34979E+4   1.65186E+5
  -6.25944E+4   1.59649E+5
  -6.18168E+4   1.54415E+5
  -6.16054E+4   1.49280E+5
  -6.13276E+4   1.44049E+5
  -6.05481E+4   1.38588E+5
  -5.94531E+4   1.33533E+5
  -5.87579E+4   1.28728E+5
  -5.85317E+4   1.24179E+5
  -5.83711E+4   1.19451E+5
  -5.78537E+4   1.14906E+5
  -5.75671E+4   1.10384E+5
  -5.68235E+4   1.06034E+5
  -5.62793E+4   1.01857E+5
  -5.59155E+4   9.77611E+4
  -5.48928E+4   9.33485E+4
  -5.42336E+4   8.96364E+4
  -5.35521E+4   8.60593E+4
  -5.29004E+4   8.23706E+4
  -5.21813E+4   7.91628E+4
  -5.18339E+4   7.59427E+4
  -5.07896E+4   7.20862E+4
  -5.01110E+4   6.87967E+4
  -4.90696E+4   6.57174E+4
  -4.85866E+4   6.23151E+4
  -4.77270E+4   5.92704E+4
  -4.71425E+4   5.62904E+4
  -4.64836E+4   5.34311E+4
  -4.58503E+4   5.05031E+4
  -4.52572E+4   4.77923E+4
  -4.41430E+4   4.46485E+4
  -4.33696E+4   4.23743E+4
  -4.28133E+4   3.97437E+4
  -4.19776E+4   3.73091E+4
  -4.10556E+4   3.49825E+4
  -4.03737E+4   3.26008E+4
  -4.00768E+4   3.03092E+4
  -3.94212E+4   2.79238E+4
  -3.84816E+4   2.53197E+4
  -3.76093E+4   2.33028E+4
  -3.70498E+4   2.12707E+4
  -3.62758E+4   1.89019E+4
  -3.56241E+4   1.68783E+4
  -3.47865E+4   1.48545E+4
  -3.40643E+4   1.31477E+4
  -3.30669E+4   1.12518E+4
  -3.25455E+4   9.25830E+3
  -3.18585E+4   7.52544E+3
  -3.07410E+4   5.92900E+3
  -2.99423E+4   4.46378E+3
  -2.90160E+4   2.96645E+3
  -2.82331E+4   1.38689E+3
  -2.76169E+4  -3.11398E+2
  -2.69009E+4  -1.41372E+3
  -2.61020E+4  -3.07432E+3
  -2.50006E+4  -4.19673E+3
  -2.42522E+4  -5.60253E+3
  -2.35486E+4  -6.80677E+3
  -2.29538E+4  -8.37898E+3
  -2.19429E+4  -9.68145E+3
  -2.11776E+4  -1.06438E+4
  -2.05023E+4  -1.15066E+4
  -1.95658E+4  -1.27639E+4
  -1.84967E+4  -1.38080E+4
  -1.76710E+4  -1.47076E+4
  -1.70331E+4  -1.55561E+4
  -1.59277E+4  -1.62788E+4
  -1.53446E+4  -1.74567E+4
  -1.45125E+4  -1.82476E+4
  -1.34302E+4  -1.87761E+4
  -1.29492E+4  -1.95195E+4
  -1.19488E+4  -2.02628E+4
  -1.11401E+4  -2.08609E+4
  -1.05669E+4  -2.12916E+4
  -9.38943E+3  -2.21450E+4
  -8.66515E+3  -2.24402E+4
  -8.20665E+3  -2.29395E+4
  -7.51852E+3  -2.36118E+4
  -6.57577E+3  -2.38952E+4
  -5.72904E+3  -2.44461E+4
  -5.14328E+3  -2.47197E+4
  -4.55271E+3  -2.50893E+4
  -3.74629E+3  -2.53826E+4
  -3.06178E+3  -2.56042E+4
  -2.27327E+3  -2.60590E+4
  -1.69173E+3  -2.62669E+4
  -9.81591E+2  -2.66710E+4
  -2.69832E+2  -2.68205E+4
   4.03681E+2  -2.69724E+4
   1.29838E+3  -2.73847E+4
   1.94443E+3  -2.71940E+4
   2.74953E+3  -2.78382E+4
   3.47977E+3  -2.76611E+4
   4.12648E+3  -2.76657E+4
   5.11067E+3  -2.77672E+4
   5.66965E+3  -2.81356E+4
   6.44228E+3  -2.79075E+4
   7.37499E+3  -2.77383E+4
   7.98411E+3  -2.79254E+4
   8.77333E+3  -2.79879E+4
   9.38321E+3  -2.78709E+4
   1.01413E+4  -2.79545E+4
   1.08215E+4  -2.81737E+4
   1.16910E+4  -2.80955E+4
   1.22588E+4  -2.79573E+4
   1.34456E+4  -2.80665E+4
   1.38417E+4  -2.76624E+4
   1.44098E+4  -2.75457E+4
   1.51774E+4  -2.74858E+4
   1.61290E+4  -2.76262E+4
   1.67273E+4  -2.73926E+4
   1.74511E+4  -2.73156E+4
   1.79498E+4  -2.68538E+4
   1.83674E+4  -2.66149E+4
   1.89122E+4  -2.65798E+4
   1.94748E+4  -2.63127E+4
   1.99831E+4  -2.63761E+4
   2.07121E+4  -2.61144E+4
   2.12946E+4  -2.59071E+4
   2.17772E+4  -2.57006E+4
   2.23571E+4  -2.54831E+4
   2.28928E+4  -2.52175E+4
   2.31719E+4  -2.51493E+4
   2.37585E+4  -2.49109E+4
   2.38512E+4  -2.48182E+4
   2.44876E+4  -2.47244E+4
   2.46880E+4  -2.41611E+4
   2.52432E+4  -2.39407E+4
   2.57073E+4  -2.38628E+4
   2.59332E+4  -2.33987E+4
   2.61370E+4  -2.34065E+4
   2.64439E+4  -2.31713E+4
   2.67501E+4  -2.27242E+4
   2.69383E+4  -2.24730E+4
   2.75444E+4  -2.22649E+4
   2.75485E+4  -2.22235E+4
   2.78182E+4  -2.19548E+4
   2.79216E+4  -2.15580E+4
   2.79276E+4  -2.13059E+4
   2.82072E+4  -2.09161E+4
   2.85294E+4  -2.07423E+4
   2.84488E+4  -2.04683E+4
   2.85404E+4  -2.04767E+4
   2.87796E+4  -1.99278E+4
   2.89949E+4  -1.96499E+4
   2.90201E+4  -1.92512E+4
   2.89434E+4  -1.88258E+4
   2.92742E+4  -1.86522E+4
   2.94221E+4  -1.81961E+4
   2.93725E+4  -1.77516E+4
   2.97487E+4  -1.75075E+4
   2.96156E+4  -1.68494E+4
   2.96949E+4  -1.67387E+4
   2.97073E+4  -1.63202E+4
   2.96310E+4  -1.57346E+4
   2.99271E+4  -1.54240E+4
   3.00723E+4  -1.49783E+4
   3.03173E+4  -1.46712E+4
   3.02357E+4  -1.41033E+4
   3.02902E+4  -1.35868E+4
   3.01837E+4  -1.33020E+4
   3.03480E+4  -1.27946E+4
   3.07086E+4  -1.23948E+4
   3.05542E+4  -1.17250E+4
   3.06769E+4  -1.14811E+4
   3.07585E+4  -1.09685E+4
   3.09290E+4  -1.06136E+4
   3.06902E+4  -1.03275E+4
   3.07271E+4  -9.94784E+3
   3.09948E+4  -9.41062E+3
   3.09107E+4  -8.87287E+3
   3.09661E+4  -8.55671E+3
   3.13764E+4  -8.13141E+3
   3.11520E+4  -7.71074E+3
   3.11611E+4  -7.29064E+3
   3.11448E+4  -6.93430E+3
   3.13020E+4  -6.49632E+3
   3.11028E+4  -6.01572E+3
   3.08356E+4  -5.81634E+3
   3.10634E+4  -5.23744E+3
   3.11538E+4  -4.84717E+3
   3.09659E+4  -4.43801E+3
   3.08815E+4  -4.15145E+3
   3.06828E+4  -3.93739E+3
   3.04987E+4  -3.64220E+3
   3.07128E+4  -3.38316E+3
   3.05171E+4  -2.88877E+3
   3.04917E+4  -2.24419E+3
   3.05580E+4  -2.30770E+3
   3.02103E+4  -1.90061E+3
   3.00017E+4  -1.45694E+3
   2.97787E+4  -1.24353E+3
   2.98086E+4  -8.73704E+2
   2.97483E+4  -6.43727E+2
   2.94283E+4  -3.69614E+2
   2.95409E+4   6.19412E+0
   2.91073E+4   2.54917E+2
   2.89618E+4   4.63497E+2
   2.88641E+4   9.73193E+2
   2.83722E+4   1.12696E+3
   2.83827E+4   1.76537E+3
   2.78526E+4   1.90060E+3
   2.79305E+4   2.11814E+3
   2.76493E+4   2.42525E+3
   2.74785E+4   2.59027E+3
   2.73609E+4   3.09054E+3
   2.69469E+4   3.13618E+3
   2.69633E+4   3.57667E+3
   2.66666E+4   3.88155E+3
   2.64754E+4   4.33204E+3
   2.60672E+4   4.59651E+3
   2.61243E+4   4.60981E+3
   2.57631E+4   4.95336E+3
   2.55551E+4   5.18023E+3
   2.51766E+4   5.32189E+3
   2.51437E+4   5.73400E+3
   2.48528E+4   6.25381E+3
   2.46856E+4   6.26268E+3
   2.41260E+4   6.42019E+3
   2.40938E+4   6.74205E+3
   2.37289E+4   6.98711E+3
   2.35911E+4   7.06943E+3
   2.32372E+4   7.31284E+3
   2.32314E+4   7.51212E+3
   2.28730E+4   7.81433E+3
   2.22811E+4   8.11035E+3
   2.22365E+4   8.10570E+3
   2.19306E+4   8.27479E+3
   2.15569E+4   8.47885E+3
   2.16113E+4   8.70564E+3
   2.12544E+4   8.91405E+3
   2.10154E+4   8.85531E+3
   2.06981E+4   9.45542E+3
   2.06042E+4   9.55359E+3
   1.99476E+4   9.72138E+3
   1.97616E+4   9.80485E+3
   1.93748E+4   9.66842E+3
   1.93045E+4   9.87771E+3
   1.92320E+4   1.00569E+4
   1.89657E+4   1.02320E+4
   1.84991E+4   1.02202E+4
   1.82088E+4   1.01502E+4
   1.77878E+4   1.05019E+4
   1.74560E+4   1.05172E+4
   1.73646E+4   1.07534E+4
   1.67115E+4   1.07308E+4
   1.66483E+4   1.06767E+4
   1.65106E+4   1.08533E+4
   1.62681E+4   1.09520E+4
   1.58452E+4   1.11020E+4
   1.55724E+4   1.08529E+4
   1.55867E+4   1.10953E+4
   1.49977E+4   1.10638E+4
   1.46606E+4   1.10071E+4
   1.48512E+4   1.09905E+4
   1.44503E+4   1.12105E+4
   1.39776E+4   1.11221E+4
   1.35387E+4   1.12923E+4
   1.33835E+4   1.13040E+4
   1.31541E+4   1.12051E+4
   1.30177E+4   1.10270E+4
   1.30251E+4   1.11974E+4
   1.25773E+4   1.13222E+4
   1.22468E+4   1.11043E+4
