 LCModel (Version 6.3-1N) Copyright: S.W. Provencher.          Ref.: Magn. Reson. Med. 30:672-679 (1993).                
 Slice_N1@14_17  28-Feb-2025 11:37:19
 27 lines in following concentration table = NCONC+1
    Conc.  %SD /Cr+PCr  Metabolite                                         
 2.40E-04   4% 2.2E-04 Mac                                                 
    3.199  36%   2.906 Cr                                                  
    5.608  21%   5.094 PCr                                                 
    6.351  11%   5.769 Ins                                                 
   10.325   6%   9.379 NAA                                                 
    5.346  13%   4.856 Tau                                                 
    0.000 999%   0.000 PCho                                                
    1.856  13%   1.686 GPC                                                 
    8.002  10%   7.268 Glu                                                 
    3.935  17%   3.574 Gln                                                 
    2.305  24%   2.093 Ala                                                 
    2.793  36%   2.537 Asc                                                 
    3.489  26%   3.169 Asp                                                 
    0.896  54%   0.814 GABA                                                
    0.783  88%   0.711 Glc                                                 
    1.387  31%   1.260 GSH                                                 
    3.622  15%   3.290 Lac                                                 
    2.408  20%   2.187 NAAG                                                
    2.218  40%   2.014 PE                                                  
    1.856  13%   1.686 GPC+PCho                                            
   12.734   5%  11.567 NAA+NAAG                                            
   11.936   9%  10.842 Glu+Gln                                             
    8.807   6%   8.000 Cr+PCr                                              
   12.734   5%  11.567 NAA+NAAG                                            
    8.807   6%   8.000 Cr+PCr                                              
   11.936   9%  10.842 Glu+Gln                                             
   6 lines in following misc. output table
  FWHM = 0.033 ppm    S/N =   4                                            
  Data shift = 0.033 ppm                                                   
  Ph:-127 deg       0.0 deg/ppm                                            
  alphaB,S = 6.5E-01,   9.6E+00                                            
   19 spline knots.   Ns = 5(1)                                            
  ( 5) 2 infls.   ( 2) 1 extrs.                                            
  480 points on ppm-axis = NY
      4.100000     4.091866     4.083733     4.075600     4.067466     4.059333     4.051199     4.043066     4.034933     4.026799
      4.018666     4.010532     4.002399     3.994265     3.986132     3.977998     3.969864     3.961731     3.953597     3.945463
      3.937330     3.929196     3.921062     3.912929     3.904795     3.896662     3.888528     3.880394     3.872261     3.864127
      3.855993     3.847860     3.839726     3.831592     3.823459     3.815325     3.807191     3.799058     3.790924     3.782790
      3.774657     3.766523     3.758389     3.750256     3.742122     3.733989     3.725855     3.717721     3.709588     3.701454
      3.693320     3.685187     3.677053     3.668919     3.660786     3.652652     3.644518     3.636385     3.628251     3.620117
      3.611984     3.603850     3.595716     3.587583     3.579449     3.571316     3.563182     3.555048     3.546915     3.538781
      3.530647     3.522514     3.514380     3.506246     3.498113     3.489979     3.481845     3.473712     3.465578     3.457444
      3.449311     3.441177     3.433043     3.424910     3.416776     3.408643     3.400509     3.392375     3.384242     3.376108
      3.367974     3.359841     3.351707     3.343573     3.335440     3.327306     3.319172     3.311039     3.302905     3.294771
      3.286638     3.278504     3.270370     3.262237     3.254103     3.245970     3.237836     3.229702     3.221569     3.213435
      3.205301     3.197168     3.189034     3.180900     3.172767     3.164633     3.156499     3.148366     3.140232     3.132098
      3.123965     3.115831     3.107697     3.099564     3.091430     3.083297     3.075163     3.067029     3.058896     3.050762
      3.042628     3.034495     3.026361     3.018227     3.010094     3.001960     2.993826     2.985693     2.977559     2.969425
      2.961292     2.953158     2.945024     2.936891     2.928757     2.920624     2.912490     2.904356     2.896223     2.888089
      2.879955     2.871822     2.863688     2.855554     2.847421     2.839287     2.831153     2.823020     2.814886     2.806752
      2.798619     2.790485     2.782351     2.774218     2.766084     2.757951     2.749817     2.741683     2.733550     2.725416
      2.717282     2.709149     2.701015     2.692881     2.684748     2.676614     2.668480     2.660347     2.652213     2.644079
      2.635946     2.627812     2.619678     2.611545     2.603411     2.595278     2.587144     2.579010     2.570877     2.562743
      2.554609     2.546476     2.538342     2.530208     2.522075     2.513941     2.505807     2.497674     2.489540     2.481406
      2.473273     2.465139     2.457006     2.448872     2.440738     2.432605     2.424471     2.416337     2.408204     2.400070
      2.391936     2.383803     2.375669     2.367535     2.359402     2.351268     2.343134     2.335001     2.326867     2.318733
      2.310600     2.302466     2.294333     2.286199     2.278065     2.269932     2.261798     2.253664     2.245531     2.237397
      2.229263     2.221130     2.212996     2.204862     2.196729     2.188595     2.180461     2.172328     2.164194     2.156060
      2.147927     2.139793     2.131660     2.123526     2.115392     2.107259     2.099125     2.090991     2.082858     2.074724
      2.066590     2.058457     2.050323     2.042189     2.034056     2.025922     2.017788     2.009655     2.001521     1.993387
      1.985254     1.977120     1.968987     1.960853     1.952719     1.944586     1.936452     1.928318     1.920185     1.912051
      1.903917     1.895784     1.887650     1.879516     1.871383     1.863249     1.855115     1.846982     1.838848     1.830714
      1.822581     1.814447     1.806314     1.798180     1.790046     1.781913     1.773779     1.765645     1.757512     1.749378
      1.741244     1.733111     1.724977     1.716843     1.708710     1.700576     1.692442     1.684309     1.676175     1.668041
      1.659908     1.651774     1.643641     1.635507     1.627373     1.619240     1.611106     1.602972     1.594839     1.586705
      1.578571     1.570438     1.562304     1.554170     1.546037     1.537903     1.529769     1.521636     1.513502     1.505368
      1.497235     1.489101     1.480968     1.472834     1.464700     1.456567     1.448433     1.440299     1.432166     1.424032
      1.415898     1.407765     1.399631     1.391497     1.383364     1.375230     1.367096     1.358963     1.350829     1.342695
      1.334562     1.326428     1.318295     1.310161     1.302027     1.293894     1.285760     1.277626     1.269493     1.261359
      1.253225     1.245092     1.236958     1.228824     1.220691     1.212557     1.204423     1.196290     1.188156     1.180022
      1.171889     1.163755     1.155622     1.147488     1.139354     1.131221     1.123087     1.114953     1.106820     1.098686
      1.090552     1.082419     1.074285     1.066151     1.058018     1.049884     1.041750     1.033617     1.025483     1.017349
      1.009216     1.001082     0.992949     0.984815     0.976681     0.968548     0.960414     0.952280     0.944147     0.936013
      0.927879     0.919746     0.911612     0.903478     0.895345     0.887211     0.879077     0.870944     0.862810     0.854676
      0.846543     0.838409     0.830276     0.822142     0.814008     0.805875     0.797741     0.789607     0.781474     0.773340
      0.765206     0.757073     0.748939     0.740805     0.732672     0.724538     0.716404     0.708271     0.700137     0.692003
      0.683870     0.675736     0.667603     0.659469     0.651335     0.643202     0.635068     0.626934     0.618801     0.610667
      0.602533     0.594400     0.586266     0.578132     0.569999     0.561865     0.553731     0.545598     0.537464     0.529330
      0.521197     0.513063     0.504930     0.496796     0.488662     0.480529     0.472395     0.464261     0.456128     0.447994
      0.439861     0.431727     0.423593     0.415460     0.407326     0.399192     0.391059     0.382925     0.374792     0.366658
      0.358524     0.350391     0.342257     0.334124     0.325990     0.317856     0.309723     0.301589     0.293455     0.285322
      0.277188     0.269055     0.260921     0.252787     0.244654     0.236520     0.228386     0.220253     0.212119     0.203986
 NY phased data points follow
  -7.10596E+01 -7.63229E+01 -8.78391E+01 -1.01415E+02 -9.10346E+01 -8.40410E+01 -8.57580E+01 -8.84586E+01 -8.15142E+01 -6.62514E+01
  -8.24344E+01 -9.66060E+01 -9.20794E+01 -9.41616E+01 -9.61067E+01 -9.10728E+01 -9.52652E+01 -1.11785E+02 -1.20246E+02 -1.46700E+02
  -1.41484E+02 -1.22042E+02 -1.25791E+02 -7.27680E+01 -6.39672E+01 -7.13423E+01 -3.82457E+01 -4.08376E+01 -2.94188E+01 -2.91381E+01
  -3.06888E+01 -2.75648E+01 -3.60225E+01 -3.97827E+01 -4.03057E+01 -2.44296E+01 -3.42690E+01 -4.05461E+01 -4.84748E+01 -7.08120E+01
  -7.52933E+01 -8.33538E+01 -8.74487E+01 -8.98634E+01 -7.39281E+01 -3.84363E+01 -2.30709E+01 -2.21812E+01 -4.78524E+00  8.60600E+00
  -2.80570E-01 -7.94999E+00 -3.65392E+00 -2.75068E-01 -2.93337E+01 -4.53676E+01 -3.29226E+01 -4.97901E+01 -5.76983E+01 -3.96124E+01
  -5.08320E+01 -6.46302E+01 -4.50055E+01 -2.97968E+01 -2.85025E+01 -3.98346E+00  1.98140E+01 -1.33668E+01 -4.94804E+01 -5.63130E+01
  -6.24799E+01 -5.52947E+01 -4.40441E+01 -3.56783E+01 -2.06254E+01 -3.89265E+00  4.98810E+00  9.42228E+00  8.10520E-01 -5.72224E+00
   1.29350E+00 -7.99303E+00 -2.34369E+01 -3.57371E+01 -4.34002E+01 -4.43516E+01 -4.21779E+01 -2.55266E+01 -3.29353E+00 -4.42208E+00
  -1.29042E+00  1.54766E+01  1.68708E+01  2.52321E+01  2.53863E+01  1.95508E+01  2.82819E+01  3.32803E+01  2.71856E+01  3.35192E+01
   3.98104E+01  1.22480E+01  3.62670E+00  4.68032E+00 -1.11442E+01 -1.60145E+01 -2.13779E+01 -2.88422E+01 -3.95254E+01 -9.00669E+01
  -1.35442E+02 -1.35978E+02 -1.42980E+02 -1.25127E+02 -1.09803E+02 -9.40850E+01 -6.06771E+01 -6.67005E+01 -6.06774E+01 -5.02309E+01
  -5.16236E+01 -4.61859E+01 -2.41225E+01 -1.22554E+01 -1.63576E+01 -6.97179E+00  3.21640E-01  2.53281E+01  2.78807E+01  6.07437E+01
   1.06080E+02  6.15275E+01  1.23011E+01 -4.75861E+01 -1.05927E+02 -1.13643E+02 -1.12538E+02 -1.10600E+02 -9.16410E+01 -8.64177E+01
  -1.00110E+02 -8.79218E+01 -1.08668E+02 -1.03573E+02 -7.20190E+01 -1.03612E+02 -8.87230E+01 -8.00774E+01 -9.19295E+01 -6.99530E+01
  -7.54518E+01 -7.39596E+01 -7.13092E+01 -7.61199E+01 -6.34004E+01 -5.98242E+01 -6.57992E+01 -5.46178E+01 -5.77666E+01 -5.00030E+01
  -4.72728E+01 -5.95287E+01 -4.32914E+01 -5.83139E+01 -4.92394E+01 -5.09219E+01 -5.88688E+01 -5.76009E+01 -6.92500E+01 -4.30705E+01
  -5.56698E+01 -2.66166E+01 -1.39347E+01 -3.20854E+01 -2.40429E+01 -3.78492E+01 -2.03759E+01 -1.61127E+01 -1.34847E+01 -3.42903E+01
  -4.32103E+01 -5.08970E+01 -6.93243E+01 -5.29701E+01 -6.75057E+01 -7.11933E+01 -6.20751E+01 -6.38993E+01 -7.72421E+01 -5.80822E+01
  -4.98038E+01 -6.65030E+01 -5.39038E+01 -4.14462E+01 -3.52006E+01 -4.48735E+01 -3.31590E+01 -3.42569E+01 -3.06319E+01 -3.59860E+01
  -4.59102E+01 -2.97753E+01 -2.69136E+01 -1.18343E+01 -2.20498E+01 -2.15151E+01 -3.01803E+01 -4.60542E+01 -5.27418E+01 -5.57947E+01
  -5.63594E+01 -6.95463E+01 -5.29068E+01 -7.71548E+01 -4.74954E+01 -3.86684E+00 -1.94974E+01  1.28203E+01  8.72823E+00 -1.07575E+01
  -1.78150E+01 -4.29242E+01 -3.26186E+01 -2.60025E+01 -3.97868E+01 -3.17188E+01 -3.42717E+01 -2.77829E+01 -3.60308E+01 -4.03728E+01
  -2.40817E+01 -4.73034E+01 -3.95864E+01 -5.17926E+01 -6.36477E+01 -6.60624E+01 -8.98799E+01 -7.61509E+01 -7.91222E+01 -7.40824E+01
  -8.85955E+01 -8.63845E+01 -5.68142E+01 -6.58530E+01 -5.06714E+01 -4.28599E+01 -3.98717E+01 -4.87831E+01 -6.28937E+01 -5.45568E+01
  -6.89952E+01 -6.85090E+01 -7.63570E+01 -8.56484E+01 -8.66403E+01 -1.43441E+02 -1.24268E+02 -1.47060E+01  4.14185E+01  8.23963E+01
   1.13779E+02  1.12753E+02  1.08492E+02  8.67641E+01  7.05682E+01  6.63054E+01  6.07698E+01  5.28432E+01  4.85728E+01  5.42583E+01
   4.30444E+01  3.83968E+01  4.54050E+01  5.32646E+01  5.28229E+01  3.92576E+01  4.26773E+01  5.27503E+01  5.56027E+01  5.36346E+01
   5.89839E+01  4.73412E+01  5.31520E+01  6.03402E+01  4.56209E+01  5.62274E+01  3.95597E+01  3.87907E+01  4.29153E+01  4.06385E+01
   4.91652E+01  3.76694E+01  3.71148E+01  3.31511E+01  3.15843E+01  2.03755E+01  1.50101E+01  6.22050E+00 -5.16760E-02 -1.55786E+00
  -3.73285E+00  1.19090E+01  5.84157E+00  1.19189E+01  6.77409E+00  3.70512E+00  1.13725E+01  1.72325E+01  2.91461E+01  3.21263E+01
   4.64907E+01  4.46434E+01  4.28547E+01  3.05575E+01  2.34671E+01  2.70735E+01  2.31801E+01  2.40034E+01  1.41920E+01  1.00667E+01
   1.10343E+01 -3.16682E+00 -1.38500E+01 -7.29569E+00 -2.53796E+01 -1.79761E+01 -2.03033E+01 -3.54533E+01 -1.37694E+01 -1.75371E+01
  -1.43845E+01 -2.56523E+01 -2.56695E+01 -9.11774E-01 -1.22450E+01 -1.63329E+01  6.28843E+00  7.95260E+00  1.97522E+01  2.19635E+01
   3.19901E-01  1.52085E+00 -2.83928E+01 -1.59705E+01 -1.75464E+01 -3.95564E+01 -1.42643E+01 -1.77888E+01 -1.36544E+01 -1.08979E+01
  -2.67303E+00 -1.03956E+01 -1.45220E+01 -8.97066E+00 -2.20198E+01 -3.74049E+01 -4.42412E+01 -3.67414E+01 -4.46498E+01 -4.68516E+01
  -6.11933E+01 -5.98346E+01 -6.51362E+01 -5.43058E+01 -3.90072E+01 -4.11796E+01 -3.02375E+01 -4.02945E+01 -6.12848E+00 -6.74393E+00
  -1.56192E+01 -1.57830E+01 -1.39589E+01  3.15465E+00  4.17474E+00  2.45284E+01 -3.40654E+00  1.67323E+01  3.00979E+01  2.28015E+01
   4.22736E+01  2.71497E+01  4.73781E+01  5.91491E+01  5.71570E+01  5.85423E+01  7.30364E+01  7.86809E+01  7.86173E+01  8.08283E+01
   7.49976E+01  7.51697E+01  4.05132E+01  2.81716E+01  3.62481E+01  2.77931E+01  2.11248E+01  1.45732E+01  4.03406E+00 -9.26994E-01
  -7.09656E+00 -1.77154E+01 -3.11010E+01 -3.35811E+01 -2.27862E+01 -3.72698E+01 -3.98964E+01 -5.26743E+01 -5.00022E+01 -3.85359E+01
  -5.97662E+01 -4.79450E+01 -3.59277E+01 -4.22232E+01 -5.27160E+01 -4.25107E+01 -3.38303E+01 -3.69523E+01 -3.70224E+01 -4.67424E+01
  -4.38985E+01 -3.57665E+01 -3.14110E+01 -3.33609E+01 -3.84513E+01 -5.48926E+01 -4.83260E+01 -3.66024E+01 -3.97025E+01 -4.18205E+01
  -4.21480E+01 -3.10686E+01 -3.89813E+01 -3.11729E+01 -3.89250E+01 -4.23969E+01 -2.84342E+01 -4.18142E+01 -4.13147E+01 -4.59130E+01
  -3.48569E+01 -2.79454E+01 -2.81463E+01 -2.59627E+01 -3.53922E+01 -2.81420E+01 -3.53584E+01 -3.27008E+01 -3.00519E+01 -4.90707E+01
  -4.72504E+01 -3.83027E+01 -3.62205E+01 -3.49889E+01 -3.14480E+01 -2.87608E+01 -3.76070E+01 -3.47248E+01 -1.83433E+01 -2.58039E+01
  -3.48960E+01 -2.51774E+01 -2.54801E+01 -3.62866E+01 -3.21044E+01 -2.19807E+01 -3.42616E+01 -4.43342E+01 -3.20962E+01 -2.85400E+01
  -3.34819E+01 -2.93251E+01 -2.50750E+01 -2.33707E+01 -2.38007E+01 -3.97225E+01 -3.88120E+01 -2.03502E+01 -3.39665E+01 -3.00078E+01
 NY points of the fit to the data follow
  -7.92373E+01 -8.08756E+01 -8.61008E+01 -9.14192E+01 -9.00416E+01 -8.10338E+01 -7.20246E+01 -6.85126E+01 -7.01414E+01 -7.56639E+01
  -8.28123E+01 -8.83898E+01 -9.16555E+01 -9.34544E+01 -9.38992E+01 -9.35261E+01 -9.44659E+01 -9.79096E+01 -1.11139E+02 -1.30403E+02
  -1.32659E+02 -1.20826E+02 -1.05366E+02 -8.08612E+01 -5.75138E+01 -4.34623E+01 -3.34059E+01 -2.51070E+01 -1.92812E+01 -1.65651E+01
  -1.54600E+01 -1.56244E+01 -1.72208E+01 -2.00786E+01 -2.38957E+01 -2.74854E+01 -3.24406E+01 -4.02319E+01 -5.33688E+01 -7.26146E+01
  -8.79654E+01 -9.31133E+01 -9.03713E+01 -8.00510E+01 -6.35766E+01 -4.60175E+01 -3.16928E+01 -2.10019E+01 -1.43266E+01 -1.16823E+01
  -1.11491E+01 -1.33159E+01 -2.00155E+01 -2.92056E+01 -3.80034E+01 -4.38684E+01 -4.32778E+01 -4.64384E+01 -5.56719E+01 -5.58742E+01
  -5.29272E+01 -5.24623E+01 -4.42549E+01 -3.15601E+01 -2.02556E+01 -1.08493E+01 -6.05228E+00 -1.22281E+01 -3.07465E+01 -4.61213E+01
  -5.09077E+01 -5.31161E+01 -5.06585E+01 -4.03284E+01 -2.81231E+01 -1.76377E+01 -8.81034E+00 -2.26748E+00  2.52970E+00  2.52160E+00
  -1.38101E+00 -1.05229E+01 -2.49380E+01 -3.72807E+01 -4.49964E+01 -4.59306E+01 -3.85847E+01 -2.90867E+01 -1.93589E+01 -1.12612E+01
  -4.91121E+00 -6.51422E-03  4.39356E+00  8.40527E+00  1.22729E+01  1.57743E+01  1.94020E+01  2.21337E+01  2.25208E+01  2.48832E+01
   2.86230E+01  2.34090E+01  1.49144E+01  4.02992E+00 -1.20459E+01 -2.08643E+01 -2.18978E+01 -1.96648E+01 -3.84360E+01 -8.88000E+01
  -1.29389E+02 -1.44099E+02 -1.42260E+02 -1.26304E+02 -1.05997E+02 -8.90687E+01 -7.74092E+01 -6.80528E+01 -6.00623E+01 -5.28664E+01
  -4.60800E+01 -3.92618E+01 -3.21267E+01 -2.40916E+01 -1.47880E+01 -4.58916E+00  5.62117E+00  2.04359E+01  3.99533E+01  7.40092E+01
   1.03027E+02  7.52671E+01  6.91358E+00 -5.22256E+01 -9.35248E+01 -1.13780E+02 -1.14757E+02 -1.07727E+02 -1.02274E+02 -9.88928E+01
  -9.65893E+01 -9.53026E+01 -9.45160E+01 -9.39470E+01 -9.33591E+01 -9.21035E+01 -8.99552E+01 -8.71369E+01 -8.41711E+01 -8.13214E+01
  -7.87567E+01 -7.65898E+01 -7.42905E+01 -7.12757E+01 -6.74082E+01 -6.36655E+01 -6.16058E+01 -6.11673E+01 -6.07486E+01 -5.85832E+01
  -5.44767E+01 -5.16146E+01 -5.22201E+01 -5.44143E+01 -5.57859E+01 -5.57949E+01 -5.59157E+01 -5.71471E+01 -5.78189E+01 -5.44927E+01
  -4.39088E+01 -2.97867E+01 -2.28288E+01 -2.47043E+01 -2.66335E+01 -2.43638E+01 -1.88310E+01 -1.63105E+01 -2.17324E+01 -3.09091E+01
  -4.06308E+01 -4.99423E+01 -5.64415E+01 -6.02856E+01 -6.23892E+01 -6.34147E+01 -6.38469E+01 -6.34795E+01 -6.27980E+01 -6.14423E+01
  -5.90090E+01 -5.82953E+01 -5.52867E+01 -4.64298E+01 -4.06492E+01 -3.86082E+01 -3.49242E+01 -3.10068E+01 -2.81437E+01 -2.82618E+01
  -2.88234E+01 -2.57246E+01 -2.20694E+01 -2.06579E+01 -2.15149E+01 -2.40451E+01 -2.88989E+01 -3.59862E+01 -4.34637E+01 -5.00983E+01
  -5.73467E+01 -6.19557E+01 -6.08895E+01 -5.57608E+01 -4.12501E+01 -2.28991E+01 -9.19836E+00  2.49961E+00  6.15506E+00  1.33184E+00
  -4.57021E+00 -9.81490E+00 -1.20278E+01 -1.16757E+01 -1.07569E+01 -1.07521E+01 -1.31716E+01 -1.84091E+01 -2.58979E+01 -3.49664E+01
  -4.53254E+01 -5.58056E+01 -6.50785E+01 -7.42808E+01 -8.15711E+01 -8.56767E+01 -8.90633E+01 -8.99735E+01 -8.75522E+01 -8.60292E+01
  -8.27875E+01 -7.68086E+01 -7.04834E+01 -6.23984E+01 -5.51221E+01 -5.04077E+01 -4.76349E+01 -4.93988E+01 -5.34307E+01 -6.00156E+01
  -7.04243E+01 -7.96320E+01 -8.36282E+01 -8.18653E+01 -1.04567E+02 -1.38085E+02 -1.11756E+02 -3.82726E+01  2.73476E+01  7.52776E+01
   9.88633E+01  9.89064E+01  8.79434E+01  7.82711E+01  7.13085E+01  6.51749E+01  5.96209E+01  5.43036E+01  4.93171E+01  4.56113E+01
   4.28821E+01  4.13838E+01  4.12566E+01  4.15262E+01  4.21968E+01  4.28334E+01  4.31905E+01  4.33566E+01  4.30372E+01  4.21954E+01
   4.08310E+01  3.92564E+01  3.76446E+01  3.58290E+01  3.39322E+01  3.20865E+01  3.01246E+01  2.80810E+01  2.57429E+01  2.29527E+01
   1.99332E+01  1.66202E+01  1.30982E+01  9.85278E+00  7.37267E+00  6.08146E+00  6.11388E+00  7.17720E+00  8.76784E+00  1.07297E+01
   1.29901E+01  1.53481E+01  1.76565E+01  1.98740E+01  2.19168E+01  2.37700E+01  2.57086E+01  2.79569E+01  3.03076E+01  3.25541E+01
   3.45766E+01  3.63989E+01  3.81887E+01  3.98652E+01  4.12978E+01  4.25887E+01  4.38143E+01  4.51858E+01  4.60475E+01  4.69616E+01
   4.24421E+01  3.13319E+01  1.87030E+01  4.74349E+00 -6.03549E+00 -1.00466E+01 -1.20322E+01 -1.37866E+01 -1.65498E+01 -2.04930E+01
  -2.51868E+01 -2.91573E+01 -3.14638E+01 -3.14880E+01 -2.91005E+01 -2.47094E+01 -1.81334E+01 -1.04428E+01 -9.89699E-01  5.74755E+00
   2.81724E+00 -6.35857E+00 -1.96980E+01 -3.44940E+01 -4.15757E+01 -4.07707E+01 -3.62076E+01 -3.00595E+01 -2.45675E+01 -2.11905E+01
  -1.98733E+01 -2.00777E+01 -2.18968E+01 -2.47428E+01 -2.76973E+01 -3.01576E+01 -3.16815E+01 -3.19995E+01 -3.12540E+01 -2.95729E+01
  -2.71958E+01 -2.42647E+01 -2.09547E+01 -1.76755E+01 -1.45220E+01 -1.15525E+01 -8.82995E+00 -6.11053E+00 -3.39249E+00 -7.35246E-01
   1.81779E+00  4.42470E+00  7.11817E+00  1.00316E+01  1.33339E+01  1.68871E+01  2.07890E+01  2.53502E+01  3.03875E+01  3.56466E+01
   4.12924E+01  4.76122E+01  5.43601E+01  6.12583E+01  6.76298E+01  7.25285E+01  7.47285E+01  7.31605E+01  6.78157E+01  5.98205E+01
   5.08560E+01  4.21725E+01  3.44839E+01  2.82073E+01  2.27389E+01  1.69887E+01  1.04799E+01  3.29236E+00 -4.45747E+00 -1.22430E+01
  -1.90687E+01 -2.46818E+01 -2.92123E+01 -3.26628E+01 -3.50772E+01 -3.67279E+01 -3.79259E+01 -3.89084E+01 -3.97748E+01 -4.05549E+01
  -4.10750E+01 -4.13078E+01 -4.14346E+01 -4.15437E+01 -4.14649E+01 -4.12423E+01 -4.11622E+01 -4.12912E+01 -4.12192E+01 -4.08917E+01
  -4.07029E+01 -4.05997E+01 -4.04177E+01 -4.02246E+01 -4.01188E+01 -4.00895E+01 -4.00155E+01 -3.97692E+01 -3.93590E+01 -3.89648E+01
  -3.87352E+01 -3.86360E+01 -3.86663E+01 -3.87289E+01 -3.85795E+01 -3.83082E+01 -3.80128E+01 -3.76565E+01 -3.73628E+01 -3.71289E+01
  -3.68480E+01 -3.65759E+01 -3.64268E+01 -3.63781E+01 -3.64401E+01 -3.64035E+01 -3.61676E+01 -3.59479E+01 -3.56331E+01 -3.53462E+01
  -3.52764E+01 -3.52226E+01 -3.49949E+01 -3.47234E+01 -3.44033E+01 -3.40721E+01 -3.37958E+01 -3.35660E+01 -3.32749E+01 -3.29583E+01
  -3.27705E+01 -3.26999E+01 -3.26349E+01 -3.26333E+01 -3.25732E+01 -3.23736E+01 -3.18832E+01 -3.12146E+01 -3.06280E+01 -3.03151E+01
  -3.02820E+01 -3.03550E+01 -3.03033E+01 -3.00864E+01 -2.97958E+01 -2.94351E+01 -2.90050E+01 -2.87983E+01 -2.86783E+01 -2.83718E+01
 NY background values follow
    -5.336E+01   -5.315E+01   -5.295E+01   -5.275E+01   -5.255E+01   -5.235E+01   -5.214E+01   -5.194E+01   -5.174E+01   -5.154E+01
    -5.134E+01   -5.114E+01   -5.093E+01   -5.073E+01   -5.053E+01   -5.033E+01   -5.013E+01   -4.992E+01   -4.972E+01   -4.952E+01
    -4.932E+01   -4.912E+01   -4.892E+01   -4.872E+01   -4.852E+01   -4.832E+01   -4.811E+01   -4.791E+01   -4.771E+01   -4.751E+01
    -4.731E+01   -4.711E+01   -4.691E+01   -4.671E+01   -4.651E+01   -4.632E+01   -4.612E+01   -4.592E+01   -4.572E+01   -4.552E+01
    -4.532E+01   -4.513E+01   -4.493E+01   -4.473E+01   -4.454E+01   -4.434E+01   -4.415E+01   -4.395E+01   -4.376E+01   -4.356E+01
    -4.337E+01   -4.318E+01   -4.298E+01   -4.279E+01   -4.260E+01   -4.241E+01   -4.222E+01   -4.203E+01   -4.184E+01   -4.166E+01
    -4.147E+01   -4.128E+01   -4.110E+01   -4.091E+01   -4.073E+01   -4.055E+01   -4.036E+01   -4.018E+01   -4.000E+01   -3.982E+01
    -3.964E+01   -3.946E+01   -3.929E+01   -3.911E+01   -3.893E+01   -3.876E+01   -3.858E+01   -3.841E+01   -3.824E+01   -3.807E+01
    -3.790E+01   -3.773E+01   -3.756E+01   -3.739E+01   -3.722E+01   -3.706E+01   -3.689E+01   -3.673E+01   -3.657E+01   -3.640E+01
    -3.624E+01   -3.608E+01   -3.592E+01   -3.577E+01   -3.561E+01   -3.545E+01   -3.530E+01   -3.514E+01   -3.499E+01   -3.484E+01
    -3.469E+01   -3.454E+01   -3.439E+01   -3.424E+01   -3.409E+01   -3.395E+01   -3.380E+01   -3.366E+01   -3.352E+01   -3.337E+01
    -3.323E+01   -3.309E+01   -3.295E+01   -3.281E+01   -3.268E+01   -3.254E+01   -3.241E+01   -3.227E+01   -3.214E+01   -3.201E+01
    -3.187E+01   -3.174E+01   -3.161E+01   -3.148E+01   -3.136E+01   -3.123E+01   -3.110E+01   -3.098E+01   -3.086E+01   -3.073E+01
    -3.061E+01   -3.049E+01   -3.037E+01   -3.025E+01   -3.013E+01   -3.002E+01   -2.990E+01   -2.978E+01   -2.967E+01   -2.956E+01
    -2.944E+01   -2.933E+01   -2.922E+01   -2.911E+01   -2.900E+01   -2.890E+01   -2.879E+01   -2.868E+01   -2.858E+01   -2.847E+01
    -2.837E+01   -2.827E+01   -2.817E+01   -2.807E+01   -2.797E+01   -2.787E+01   -2.777E+01   -2.768E+01   -2.758E+01   -2.748E+01
    -2.739E+01   -2.730E+01   -2.721E+01   -2.711E+01   -2.702E+01   -2.694E+01   -2.685E+01   -2.676E+01   -2.667E+01   -2.659E+01
    -2.650E+01   -2.642E+01   -2.633E+01   -2.625E+01   -2.617E+01   -2.609E+01   -2.601E+01   -2.593E+01   -2.585E+01   -2.577E+01
    -2.570E+01   -2.562E+01   -2.555E+01   -2.547E+01   -2.540E+01   -2.533E+01   -2.526E+01   -2.519E+01   -2.512E+01   -2.505E+01
    -2.498E+01   -2.491E+01   -2.484E+01   -2.478E+01   -2.471E+01   -2.465E+01   -2.459E+01   -2.452E+01   -2.446E+01   -2.440E+01
    -2.434E+01   -2.428E+01   -2.422E+01   -2.416E+01   -2.411E+01   -2.405E+01   -2.399E+01   -2.394E+01   -2.389E+01   -2.383E+01
    -2.378E+01   -2.373E+01   -2.368E+01   -2.363E+01   -2.358E+01   -2.353E+01   -2.348E+01   -2.344E+01   -2.339E+01   -2.335E+01
    -2.330E+01   -2.326E+01   -2.322E+01   -2.317E+01   -2.313E+01   -2.309E+01   -2.306E+01   -2.302E+01   -2.298E+01   -2.295E+01
    -2.291E+01   -2.288E+01   -2.284E+01   -2.281E+01   -2.278E+01   -2.275E+01   -2.272E+01   -2.270E+01   -2.267E+01   -2.264E+01
    -2.262E+01   -2.260E+01   -2.257E+01   -2.255E+01   -2.253E+01   -2.251E+01   -2.250E+01   -2.248E+01   -2.247E+01   -2.245E+01
    -2.244E+01   -2.243E+01   -2.242E+01   -2.241E+01   -2.240E+01   -2.239E+01   -2.238E+01   -2.238E+01   -2.238E+01   -2.237E+01
    -2.237E+01   -2.237E+01   -2.237E+01   -2.238E+01   -2.238E+01   -2.238E+01   -2.239E+01   -2.240E+01   -2.241E+01   -2.242E+01
    -2.243E+01   -2.244E+01   -2.245E+01   -2.247E+01   -2.249E+01   -2.250E+01   -2.252E+01   -2.254E+01   -2.256E+01   -2.258E+01
    -2.261E+01   -2.263E+01   -2.266E+01   -2.268E+01   -2.271E+01   -2.274E+01   -2.277E+01   -2.280E+01   -2.283E+01   -2.286E+01
    -2.289E+01   -2.292E+01   -2.296E+01   -2.299E+01   -2.303E+01   -2.307E+01   -2.310E+01   -2.314E+01   -2.318E+01   -2.322E+01
    -2.326E+01   -2.330E+01   -2.334E+01   -2.338E+01   -2.342E+01   -2.347E+01   -2.351E+01   -2.356E+01   -2.360E+01   -2.365E+01
    -2.369E+01   -2.374E+01   -2.378E+01   -2.383E+01   -2.388E+01   -2.392E+01   -2.397E+01   -2.402E+01   -2.407E+01   -2.412E+01
    -2.417E+01   -2.422E+01   -2.427E+01   -2.432E+01   -2.437E+01   -2.442E+01   -2.447E+01   -2.452E+01   -2.457E+01   -2.462E+01
    -2.467E+01   -2.472E+01   -2.478E+01   -2.483E+01   -2.488E+01   -2.493E+01   -2.498E+01   -2.503E+01   -2.509E+01   -2.514E+01
    -2.519E+01   -2.524E+01   -2.529E+01   -2.534E+01   -2.539E+01   -2.545E+01   -2.550E+01   -2.555E+01   -2.560E+01   -2.565E+01
    -2.570E+01   -2.575E+01   -2.580E+01   -2.585E+01   -2.590E+01   -2.595E+01   -2.600E+01   -2.605E+01   -2.609E+01   -2.614E+01
    -2.619E+01   -2.624E+01   -2.629E+01   -2.633E+01   -2.638E+01   -2.643E+01   -2.647E+01   -2.652E+01   -2.656E+01   -2.661E+01
    -2.665E+01   -2.670E+01   -2.674E+01   -2.679E+01   -2.683E+01   -2.687E+01   -2.692E+01   -2.696E+01   -2.700E+01   -2.704E+01
    -2.709E+01   -2.713E+01   -2.717E+01   -2.721E+01   -2.725E+01   -2.729E+01   -2.733E+01   -2.737E+01   -2.741E+01   -2.745E+01
    -2.749E+01   -2.753E+01   -2.757E+01   -2.761E+01   -2.765E+01   -2.769E+01   -2.772E+01   -2.776E+01   -2.780E+01   -2.784E+01
    -2.788E+01   -2.791E+01   -2.795E+01   -2.799E+01   -2.802E+01   -2.806E+01   -2.810E+01   -2.813E+01   -2.817E+01   -2.821E+01
    -2.824E+01   -2.828E+01   -2.831E+01   -2.835E+01   -2.838E+01   -2.842E+01   -2.846E+01   -2.849E+01   -2.853E+01   -2.856E+01
    -2.860E+01   -2.863E+01   -2.867E+01   -2.870E+01   -2.874E+01   -2.877E+01   -2.881E+01   -2.884E+01   -2.887E+01   -2.891E+01
    -2.894E+01   -2.898E+01   -2.901E+01   -2.905E+01   -2.908E+01   -2.912E+01   -2.915E+01   -2.918E+01   -2.922E+01   -2.925E+01
    -2.929E+01   -2.932E+01   -2.936E+01   -2.939E+01   -2.942E+01   -2.946E+01   -2.949E+01   -2.953E+01   -2.956E+01   -2.959E+01
    -2.963E+01   -2.966E+01   -2.970E+01   -2.973E+01   -2.977E+01   -2.980E+01   -2.983E+01   -2.987E+01   -2.990E+01   -2.994E+01
    -2.997E+01   -3.000E+01   -3.004E+01   -3.007E+01   -3.011E+01   -3.014E+01   -3.017E+01   -3.021E+01   -3.024E+01   -3.028E+01
    -3.031E+01   -3.035E+01   -3.038E+01   -3.041E+01   -3.045E+01   -3.048E+01   -3.052E+01   -3.055E+01   -3.058E+01   -3.062E+01
 Mac      Conc. = 2.40E-04
  -7.05182E+01 -7.06508E+01 -7.06531E+01 -7.06192E+01 -7.08201E+01 -7.14983E+01 -7.26068E+01 -7.39576E+01 -7.51993E+01 -7.60119E+01
  -7.63387E+01 -7.62740E+01 -7.61260E+01 -7.65035E+01 -7.77057E+01 -7.92942E+01 -7.96394E+01 -7.77660E+01 -7.48008E+01 -7.13665E+01
  -6.74762E+01 -6.39773E+01 -6.14489E+01 -5.97108E+01 -5.83398E+01 -5.71319E+01 -5.57804E+01 -5.40179E+01 -5.21280E+01 -5.04418E+01
  -4.89260E+01 -4.75996E+01 -4.67204E+01 -4.64509E+01 -4.66122E+01 -4.65587E+01 -4.56143E+01 -4.37397E+01 -4.17384E+01 -4.04911E+01
  -3.99460E+01 -3.96518E+01 -3.91181E+01 -3.80562E+01 -3.68009E+01 -3.57843E+01 -3.52457E+01 -3.52729E+01 -3.58387E+01 -3.67300E+01
  -3.76187E+01 -3.84533E+01 -3.91142E+01 -3.95443E+01 -3.98409E+01 -3.98267E+01 -3.92225E+01 -3.82225E+01 -3.71742E+01 -3.58151E+01
  -3.42376E+01 -3.30705E+01 -3.24445E+01 -3.24107E+01 -3.28464E+01 -3.33438E+01 -3.37717E+01 -3.42533E+01 -3.47265E+01 -3.45016E+01
  -3.31004E+01 -3.11143E+01 -2.90256E+01 -2.72037E+01 -2.60551E+01 -2.55457E+01 -2.56301E+01 -2.60943E+01 -2.65504E+01 -2.69723E+01
  -2.73576E+01 -2.76158E+01 -2.74912E+01 -2.70134E+01 -2.63989E+01 -2.56311E+01 -2.47385E+01 -2.39519E+01 -2.32782E+01 -2.26371E+01
  -2.20581E+01 -2.15812E+01 -2.11442E+01 -2.09906E+01 -2.14736E+01 -2.26083E+01 -2.42445E+01 -2.62343E+01 -2.81194E+01 -2.96281E+01
  -3.10318E+01 -3.25606E+01 -3.43184E+01 -3.67015E+01 -4.02404E+01 -4.52091E+01 -5.08563E+01 -5.58041E+01 -5.90531E+01 -6.03183E+01
