 
 $NMID
 ID=''
 FMTDAT='(2E13.5)'
 TRAMP=   1.00000E+0
 VOLUME=   1.00000E+0
 $END
   6.41470E+5   3.43338E+5
   1.30457E+6   1.37985E+6
   1.40637E+6   1.13618E+6
   1.19822E+6   1.15639E+6
   1.22732E+6   1.31381E+6
   1.28137E+6   1.25027E+6
   1.20083E+6   1.19914E+6
   1.17724E+6   1.24518E+6
   1.17507E+6   1.23586E+6
   1.14520E+6   1.24754E+6
   1.15754E+6   1.25163E+6
   1.13392E+6   1.20632E+6
   1.08153E+6   1.21850E+6
   1.09050E+6   1.24161E+6
   1.08895E+6   1.20959E+6
   1.05594E+6   1.19794E+6
   1.04905E+6   1.21261E+6
   1.02754E+6   1.20492E+6
   9.94420E+5   1.21108E+6
   9.88203E+5   1.21578E+6
   9.64451E+5   1.20549E+6
   9.33860E+5   1.21048E+6
   9.26908E+5   1.21256E+6
   9.08202E+5   1.20267E+6
   8.79370E+5   1.20485E+6
   8.75967E+5   1.19927E+6
   8.64719E+5   1.18771E+6
   8.47806E+5   1.18676E+6
   8.36509E+5   1.18038E+6
   8.23632E+5   1.16855E+6
   8.06873E+5   1.17177E+6
   7.94396E+5   1.16859E+6
   7.75006E+5   1.16092E+6
   7.56529E+5   1.16094E+6
   7.42968E+5   1.15755E+6
   7.26424E+5   1.15251E+6
   7.09709E+5   1.15469E+6
   6.93961E+5   1.15241E+6
   6.76205E+5   1.14469E+6
   6.63862E+5   1.14183E+6
   6.53248E+5   1.13659E+6
   6.39218E+5   1.12911E+6
   6.28618E+5   1.12139E+6
   6.20703E+5   1.11528E+6
   6.08308E+5   1.10937E+6
   5.97346E+5   1.10595E+6
   5.85299E+5   1.10105E+6
   5.69083E+5   1.09629E+6
   5.52728E+5   1.09080E+6
   5.38778E+5   1.08580E+6
   5.24595E+5   1.08223E+6
   5.09870E+5   1.07868E+6
   4.95994E+5   1.07387E+6
   4.81407E+5   1.07004E+6
   4.67803E+5   1.06552E+6
   4.55019E+5   1.06005E+6
   4.42036E+5   1.05454E+6
   4.29700E+5   1.04746E+6
   4.18536E+5   1.04034E+6
   4.08050E+5   1.03538E+6
   3.96168E+5   1.03044E+6
   3.84421E+5   1.02443E+6
   3.71456E+5   1.01835E+6
   3.57963E+5   1.01292E+6
   3.43892E+5   1.00642E+6
   3.30868E+5   9.98978E+5
   3.18497E+5   9.90896E+5
   3.06059E+5   9.84753E+5
   2.93949E+5   9.79332E+5
   2.81271E+5   9.73818E+5
   2.68410E+5   9.66303E+5
   2.57110E+5   9.58513E+5
   2.47164E+5   9.52475E+5
   2.35772E+5   9.46636E+5
   2.23421E+5   9.39315E+5
   2.11605E+5   9.31392E+5
   2.00630E+5   9.24891E+5
   1.88583E+5   9.18343E+5
   1.75916E+5   9.10924E+5
   1.63208E+5   9.03237E+5
   1.50818E+5   8.95351E+5
   1.39442E+5   8.87567E+5
   1.27880E+5   8.80412E+5
   1.15810E+5   8.72842E+5
   1.04489E+5   8.65083E+5
   9.42957E+4   8.56962E+5
   8.43606E+4   8.48965E+5
   7.43931E+4   8.41823E+5
   6.46884E+4   8.33939E+5
   5.60905E+4   8.25397E+5
   4.76199E+4   8.17251E+5
   3.85745E+4   8.09654E+5
   2.84906E+4   8.01922E+5
   1.89714E+4   7.93661E+5
   9.99981E+3   7.84263E+5
   1.57000E+3   7.75973E+5
  -7.26838E+3   7.68288E+5
  -1.62328E+4   7.60105E+5
  -2.50703E+4   7.51604E+5
  -3.25507E+4   7.43263E+5
  -4.00548E+4   7.35732E+5
  -4.83491E+4   7.27884E+5
  -5.62023E+4   7.18827E+5
  -6.29726E+4   7.09462E+5
  -6.85793E+4   7.01335E+5
  -7.45434E+4   6.93978E+5
  -8.12414E+4   6.85721E+5
  -8.81204E+4   6.76954E+5
  -9.42267E+4   6.67581E+5
  -9.90022E+4   6.58513E+5
  -1.04536E+5   6.51154E+5
  -1.11039E+5   6.43063E+5
  -1.17937E+5   6.34610E+5
  -1.23988E+5   6.25775E+5
  -1.29598E+5   6.17203E+5
  -1.35758E+5   6.08958E+5
  -1.41923E+5   6.00367E+5
  -1.47569E+5   5.91033E+5
  -1.51810E+5   5.82177E+5
  -1.55651E+5   5.73736E+5
  -1.60382E+5   5.66243E+5
  -1.65367E+5   5.58056E+5
  -1.70174E+5   5.49970E+5
  -1.74691E+5   5.41740E+5
  -1.79255E+5   5.33168E+5
  -1.83560E+5   5.24301E+5
  -1.87417E+5   5.15531E+5
  -1.91561E+5   5.07010E+5
  -1.95822E+5   4.98739E+5
  -2.00001E+5   4.91004E+5
  -2.04683E+5   4.82078E+5
  -2.09103E+5   4.73026E+5
  -2.12775E+5   4.64460E+5
  -2.16288E+5   4.56215E+5
  -2.19995E+5   4.47752E+5
  -2.23750E+5   4.38875E+5
  -2.26612E+5   4.30331E+5
  -2.29922E+5   4.22785E+5
  -2.33587E+5   4.14587E+5
  -2.36691E+5   4.05921E+5
  -2.39950E+5   3.96978E+5
  -2.41732E+5   3.88651E+5
  -2.43553E+5   3.80670E+5
  -2.46428E+5   3.73222E+5
  -2.49133E+5   3.65224E+5
  -2.51043E+5   3.56762E+5
  -2.52759E+5   3.48745E+5
  -2.54502E+5   3.40837E+5
  -2.55902E+5   3.32879E+5
  -2.57213E+5   3.25090E+5
  -2.57942E+5   3.17197E+5
  -2.58751E+5   3.10008E+5
  -2.59287E+5   3.03117E+5
  -2.60458E+5   2.96164E+5
  -2.61203E+5   2.88562E+5
  -2.61289E+5   2.81291E+5
  -2.61525E+5   2.74480E+5
  -2.61951E+5   2.68023E+5
  -2.62227E+5   2.61044E+5
  -2.62298E+5   2.54196E+5
  -2.62122E+5   2.47389E+5
  -2.61956E+5   2.41100E+5
  -2.61948E+5   2.34306E+5
  -2.61278E+5   2.27417E+5
  -2.60349E+5   2.21384E+5
  -2.59649E+5   2.15705E+5
  -2.59237E+5   2.09903E+5
  -2.58641E+5   2.03745E+5
  -2.57850E+5   1.97722E+5
  -2.56312E+5   1.92062E+5
  -2.55428E+5   1.86454E+5
  -2.54304E+5   1.80881E+5
  -2.53128E+5   1.75598E+5
  -2.51851E+5   1.70166E+5
  -2.50443E+5   1.64385E+5
  -2.49239E+5   1.59190E+5
  -2.48173E+5   1.53943E+5
  -2.46414E+5   1.48298E+5
  -2.44952E+5   1.42810E+5
  -2.42914E+5   1.37725E+5
  -2.41724E+5   1.32974E+5
  -2.40617E+5   1.27694E+5
  -2.38747E+5   1.22398E+5
  -2.36954E+5   1.17641E+5
  -2.35180E+5   1.12624E+5
  -2.33335E+5   1.08285E+5
  -2.30932E+5   1.03320E+5
  -2.28894E+5   9.91299E+4
  -2.27076E+5   9.47799E+4
  -2.25063E+5   9.07793E+4
  -2.23276E+5   8.64266E+4
  -2.21756E+5   8.16628E+4
  -2.19229E+5   7.69526E+4
  -2.16909E+5   7.28781E+4
  -2.14720E+5   6.89255E+4
  -2.12507E+5   6.48035E+4
  -2.10560E+5   6.04952E+4
  -2.08402E+5   5.66309E+4
  -2.06079E+5   5.25905E+4
  -2.04061E+5   4.84473E+4
  -2.01806E+5   4.44650E+4
  -1.99135E+5   4.05219E+4
  -1.96701E+5   3.67163E+4
  -1.94284E+5   3.36345E+4
  -1.92083E+5   3.00358E+4
  -1.89859E+5   2.64313E+4
  -1.87212E+5   2.30471E+4
  -1.84728E+5   1.95057E+4
  -1.82446E+5   1.62276E+4
  -1.80045E+5   1.31893E+4
  -1.77705E+5   9.70992E+3
  -1.75044E+5   6.90508E+3
  -1.72678E+5   4.09031E+3
  -1.70375E+5   9.46811E+2
  -1.67942E+5  -2.04249E+3
  -1.65257E+5  -4.93460E+3
  -1.62395E+5  -7.52323E+3
  -1.59882E+5  -9.86909E+3
  -1.57670E+5  -1.25356E+4
  -1.55028E+5  -1.46462E+4
  -1.52858E+5  -1.71836E+4
  -1.50291E+5  -1.91381E+4
  -1.47873E+5  -2.15526E+4
  -1.45505E+5  -2.36265E+4
  -1.43029E+5  -2.59209E+4
  -1.40475E+5  -2.76278E+4
  -1.37832E+5  -2.95910E+4
  -1.35675E+5  -3.09892E+4
  -1.33586E+5  -3.28095E+4
  -1.31100E+5  -3.51373E+4
  -1.28529E+5  -3.64453E+4
  -1.26062E+5  -3.77952E+4
  -1.23905E+5  -3.90666E+4
  -1.21856E+5  -4.07087E+4
  -1.19517E+5  -4.19279E+4
  -1.17288E+5  -4.28712E+4
  -1.15116E+5  -4.41954E+4
  -1.12906E+5  -4.56397E+4
  -1.10777E+5  -4.65043E+4
  -1.08550E+5  -4.75084E+4
  -1.06529E+5  -4.83961E+4
  -1.04685E+5  -4.94468E+4
  -1.02339E+5  -5.03611E+4
  -1.00084E+5  -5.13496E+4
  -9.80442E+4  -5.18663E+4
  -9.58697E+4  -5.28776E+4
  -9.40457E+4  -5.35110E+4
  -9.16900E+4  -5.42474E+4
  -8.99415E+4  -5.48099E+4
  -8.79867E+4  -5.52592E+4
  -8.63778E+4  -5.60340E+4
  -8.42187E+4  -5.67550E+4
  -8.23653E+4  -5.71318E+4
  -8.03403E+4  -5.76980E+4
  -7.83397E+4  -5.79877E+4
  -7.67804E+4  -5.83677E+4
  -7.47619E+4  -5.88607E+4
  -7.30415E+4  -5.92908E+4
  -7.10892E+4  -5.97186E+4
  -6.92117E+4  -6.02465E+4
  -6.71388E+4  -6.05249E+4
  -6.53729E+4  -6.09177E+4
  -6.34749E+4  -6.08412E+4
  -6.16903E+4  -6.09026E+4
  -5.98697E+4  -6.11086E+4
  -5.84077E+4  -6.15712E+4
  -5.64700E+4  -6.16598E+4
  -5.44947E+4  -6.18579E+4
  -5.29054E+4  -6.18524E+4
  -5.11513E+4  -6.21357E+4
  -4.95544E+4  -6.20520E+4
  -4.81350E+4  -6.21998E+4
  -4.61571E+4  -6.22360E+4
  -4.47203E+4  -6.22326E+4
  -4.29977E+4  -6.25198E+4
  -4.13844E+4  -6.24070E+4
  -3.95877E+4  -6.22308E+4
  -3.80549E+4  -6.20104E+4
  -3.66724E+4  -6.20886E+4
  -3.53210E+4  -6.19983E+4
  -3.36189E+4  -6.17143E+4
  -3.20409E+4  -6.17142E+4
  -3.07702E+4  -6.13719E+4
  -2.92002E+4  -6.13275E+4
  -2.77285E+4  -6.09808E+4
  -2.64459E+4  -6.07381E+4
  -2.48921E+4  -6.01218E+4
  -2.39401E+4  -5.98757E+4
  -2.25175E+4  -5.97804E+4
  -2.09161E+4  -5.94042E+4
  -1.98204E+4  -5.88625E+4
  -1.83057E+4  -5.86522E+4
  -1.71641E+4  -5.81407E+4
  -1.59563E+4  -5.76368E+4
  -1.47025E+4  -5.72397E+4
  -1.33158E+4  -5.68161E+4
  -1.22425E+4  -5.63289E+4
  -1.09447E+4  -5.57521E+4
  -9.73553E+3  -5.55012E+4
  -8.65986E+3  -5.48760E+4
  -7.67108E+3  -5.45025E+4
  -6.56218E+3  -5.40254E+4
  -5.47557E+3  -5.32666E+4
  -4.36154E+3  -5.29064E+4
  -3.31126E+3  -5.20800E+4
  -2.45259E+3  -5.17308E+4
  -1.34872E+3  -5.08918E+4
  -2.69221E+2  -5.04927E+4
   8.67929E+2  -5.00461E+4
   1.64487E+3  -4.93715E+4
   2.67586E+3  -4.87488E+4
   3.21134E+3  -4.83216E+4
   4.32297E+3  -4.77384E+4
   5.34575E+3  -4.70589E+4
   5.94068E+3  -4.64439E+4
   6.83828E+3  -4.57868E+4
   7.57690E+3  -4.51784E+4
   8.37822E+3  -4.43550E+4
   9.18480E+3  -4.38933E+4
   9.99981E+3  -4.30691E+4
   1.05910E+4  -4.24374E+4
   1.12377E+4  -4.18858E+4
   1.20408E+4  -4.13647E+4
   1.26716E+4  -4.05881E+4
   1.32154E+4  -3.98447E+4
   1.39112E+4  -3.91885E+4
   1.45203E+4  -3.84999E+4
   1.52465E+4  -3.79565E+4
   1.57454E+4  -3.70084E+4
   1.63826E+4  -3.66855E+4
   1.67138E+4  -3.59651E+4
   1.72758E+4  -3.52294E+4
   1.80861E+4  -3.45632E+4
   1.84551E+4  -3.40375E+4
   1.90773E+4  -3.35317E+4
   1.94239E+4  -3.27961E+4
   1.98422E+4  -3.17426E+4
   2.02351E+4  -3.12353E+4
   2.09090E+4  -3.05808E+4
   2.10876E+4  -2.99010E+4
   2.16202E+4  -2.92054E+4
   2.19764E+4  -2.88295E+4
   2.22528E+4  -2.79503E+4
   2.26392E+4  -2.75100E+4
   2.26098E+4  -2.65495E+4
   2.32011E+4  -2.60086E+4
   2.34068E+4  -2.53468E+4
   2.38243E+4  -2.45666E+4
   2.36880E+4  -2.40239E+4
   2.39031E+4  -2.35601E+4
   2.44088E+4  -2.29732E+4
   2.47150E+4  -2.22188E+4
   2.48877E+4  -2.14701E+4
   2.49370E+4  -2.11209E+4
   2.53066E+4  -2.06145E+4
   2.54223E+4  -1.98155E+4
   2.55364E+4  -1.93859E+4
   2.56196E+4  -1.89812E+4
   2.59330E+4  -1.81674E+4
   2.60779E+4  -1.77147E+4
   2.61396E+4  -1.68960E+4
   2.62811E+4  -1.63515E+4
   2.60043E+4  -1.58733E+4
   2.62574E+4  -1.51717E+4
   2.64247E+4  -1.47958E+4
   2.65382E+4  -1.44348E+4
   2.65983E+4  -1.36787E+4
