 LCModel (Version 6.3-1N) Copyright: S.W. Provencher.          Ref.: Magn. Reson. Med. 30:672-679 (1993).                
 Slice_N1@14_20  28-Feb-2025 11:40:11
 27 lines in following concentration table = NCONC+1
    Conc.  %SD /Cr+PCr  Metabolite                                         
 2.22E-04   5% 2.4E-04 Mac                                                 
    3.557  28%   3.793 Cr                                                  
    3.945  25%   4.207 PCr                                                 
    6.053  12%   6.454 Ins                                                 
    8.510   7%   9.074 NAA                                                 
    6.351  11%   6.772 Tau                                                 
    0.615 127%   0.655 PCho                                                
    1.499  49%   1.598 GPC                                                 
    6.993  12%   7.456 Glu                                                 
    3.455  19%   3.684 Gln                                                 
    0.811  68%   0.865 Ala                                                 
    2.256  44%   2.406 Asc                                                 
    2.676  32%   2.853 Asp                                                 
    0.568  78%   0.606 GABA                                                
    0.636  96%   0.678 Glc                                                 
    1.015  39%   1.082 GSH                                                 
    5.172  11%   5.515 Lac                                                 
    1.303  35%   1.389 NAAG                                                
    0.798 116%   0.850 PE                                                  
    2.114  12%   2.254 GPC+PCho                                            
    9.813   7%  10.463 NAA+NAAG                                            
   10.447  10%  11.140 Glu+Gln                                             
    7.503   8%   8.000 Cr+PCr                                              
    9.813   7%  10.463 NAA+NAAG                                            
    7.503   8%   8.000 Cr+PCr                                              
   10.447  10%  11.140 Glu+Gln                                             
   6 lines in following misc. output table
  FWHM = 0.033 ppm    S/N =   4                                            
  Data shift = 0.033 ppm                                                   
  Ph:-108 deg       0.0 deg/ppm                                            
  alphaB,S = 1.4E-01,   1.1E+01                                            
   19 spline knots.   Ns = 5(1)                                            
  ( 3) 2 infls.   ( 3) 1 extrs.                                            
  480 points on ppm-axis = NY
      4.100000     4.091866     4.083733     4.075600     4.067466     4.059333     4.051199     4.043066     4.034933     4.026799
      4.018666     4.010532     4.002399     3.994265     3.986132     3.977998     3.969864     3.961731     3.953597     3.945463
      3.937330     3.929196     3.921062     3.912929     3.904795     3.896662     3.888528     3.880394     3.872261     3.864127
      3.855993     3.847860     3.839726     3.831592     3.823459     3.815325     3.807191     3.799058     3.790924     3.782790
      3.774657     3.766523     3.758389     3.750256     3.742122     3.733989     3.725855     3.717721     3.709588     3.701454
      3.693320     3.685187     3.677053     3.668919     3.660786     3.652652     3.644518     3.636385     3.628251     3.620117
      3.611984     3.603850     3.595716     3.587583     3.579449     3.571316     3.563182     3.555048     3.546915     3.538781
      3.530647     3.522514     3.514380     3.506246     3.498113     3.489979     3.481845     3.473712     3.465578     3.457444
      3.449311     3.441177     3.433043     3.424910     3.416776     3.408643     3.400509     3.392375     3.384242     3.376108
      3.367974     3.359841     3.351707     3.343573     3.335440     3.327306     3.319172     3.311039     3.302905     3.294771
      3.286638     3.278504     3.270370     3.262237     3.254103     3.245970     3.237836     3.229702     3.221569     3.213435
      3.205301     3.197168     3.189034     3.180900     3.172767     3.164633     3.156499     3.148366     3.140232     3.132098
      3.123965     3.115831     3.107697     3.099564     3.091430     3.083297     3.075163     3.067029     3.058896     3.050762
      3.042628     3.034495     3.026361     3.018227     3.010094     3.001960     2.993826     2.985693     2.977559     2.969425
      2.961292     2.953158     2.945024     2.936891     2.928757     2.920624     2.912490     2.904356     2.896223     2.888089
      2.879955     2.871822     2.863688     2.855554     2.847421     2.839287     2.831153     2.823020     2.814886     2.806752
      2.798619     2.790485     2.782351     2.774218     2.766084     2.757951     2.749817     2.741683     2.733550     2.725416
      2.717282     2.709149     2.701015     2.692881     2.684748     2.676614     2.668480     2.660347     2.652213     2.644079
      2.635946     2.627812     2.619678     2.611545     2.603411     2.595278     2.587144     2.579010     2.570877     2.562743
      2.554609     2.546476     2.538342     2.530208     2.522075     2.513941     2.505807     2.497674     2.489540     2.481406
      2.473273     2.465139     2.457006     2.448872     2.440738     2.432605     2.424471     2.416337     2.408204     2.400070
      2.391936     2.383803     2.375669     2.367535     2.359402     2.351268     2.343134     2.335001     2.326867     2.318733
      2.310600     2.302466     2.294333     2.286199     2.278065     2.269932     2.261798     2.253664     2.245531     2.237397
      2.229263     2.221130     2.212996     2.204862     2.196729     2.188595     2.180461     2.172328     2.164194     2.156060
      2.147927     2.139793     2.131660     2.123526     2.115392     2.107259     2.099125     2.090991     2.082858     2.074724
      2.066590     2.058457     2.050323     2.042189     2.034056     2.025922     2.017788     2.009655     2.001521     1.993387
      1.985254     1.977120     1.968987     1.960853     1.952719     1.944586     1.936452     1.928318     1.920185     1.912051
      1.903917     1.895784     1.887650     1.879516     1.871383     1.863249     1.855115     1.846982     1.838848     1.830714
      1.822581     1.814447     1.806314     1.798180     1.790046     1.781913     1.773779     1.765645     1.757512     1.749378
      1.741244     1.733111     1.724977     1.716843     1.708710     1.700576     1.692442     1.684309     1.676175     1.668041
      1.659908     1.651774     1.643641     1.635507     1.627373     1.619240     1.611106     1.602972     1.594839     1.586705
      1.578571     1.570438     1.562304     1.554170     1.546037     1.537903     1.529769     1.521636     1.513502     1.505368
      1.497235     1.489101     1.480968     1.472834     1.464700     1.456567     1.448433     1.440299     1.432166     1.424032
      1.415898     1.407765     1.399631     1.391497     1.383364     1.375230     1.367096     1.358963     1.350829     1.342695
      1.334562     1.326428     1.318295     1.310161     1.302027     1.293894     1.285760     1.277626     1.269493     1.261359
      1.253225     1.245092     1.236958     1.228824     1.220691     1.212557     1.204423     1.196290     1.188156     1.180022
      1.171889     1.163755     1.155622     1.147488     1.139354     1.131221     1.123087     1.114953     1.106820     1.098686
      1.090552     1.082419     1.074285     1.066151     1.058018     1.049884     1.041750     1.033617     1.025483     1.017349
      1.009216     1.001082     0.992949     0.984815     0.976681     0.968548     0.960414     0.952280     0.944147     0.936013
      0.927879     0.919746     0.911612     0.903478     0.895345     0.887211     0.879077     0.870944     0.862810     0.854676
      0.846543     0.838409     0.830276     0.822142     0.814008     0.805875     0.797741     0.789607     0.781474     0.773340
      0.765206     0.757073     0.748939     0.740805     0.732672     0.724538     0.716404     0.708271     0.700137     0.692003
      0.683870     0.675736     0.667603     0.659469     0.651335     0.643202     0.635068     0.626934     0.618801     0.610667
      0.602533     0.594400     0.586266     0.578132     0.569999     0.561865     0.553731     0.545598     0.537464     0.529330
      0.521197     0.513063     0.504930     0.496796     0.488662     0.480529     0.472395     0.464261     0.456128     0.447994
      0.439861     0.431727     0.423593     0.415460     0.407326     0.399192     0.391059     0.382925     0.374792     0.366658
      0.358524     0.350391     0.342257     0.334124     0.325990     0.317856     0.309723     0.301589     0.293455     0.285322
      0.277188     0.269055     0.260921     0.252787     0.244654     0.236520     0.228386     0.220253     0.212119     0.203986
 NY phased data points follow
  -9.81546E-01  6.90894E+00 -1.21414E+00 -3.17474E+00  2.63702E+01  1.64730E+01  2.11788E+01  1.89020E+01  1.27324E+01  1.63323E+01
   1.63094E+00  6.70130E+00 -9.57976E-01 -9.48716E+00  3.67254E+00 -1.17652E+01 -1.76091E+01 -5.83183E+00 -3.60098E+01 -5.25711E+01
  -3.09320E+01 -1.75287E+01 -1.17332E+01  1.62676E+01  3.83211E+01  4.30897E+01  4.66441E+01  4.37529E+01  5.36340E+01  4.94984E+01
   4.85414E+01  5.68742E+01  5.06644E+01  5.04032E+01  6.60822E+01  7.09505E+01  5.24887E+01  4.00059E+01  1.88307E+01  3.51704E+00
   3.03365E+00  1.06757E+01  2.46749E-01  6.88520E+00  4.81979E+01  5.98705E+01  6.82304E+01  6.47649E+01  7.64984E+01  7.92832E+01
   6.71109E+01  7.36136E+01  5.56843E+01  5.04136E+01  4.91576E+01  4.43050E+01  2.61537E+01  1.80239E+01  2.01740E+01  2.34295E+01
   4.75801E+01  3.90520E+01  6.00768E+01  8.67762E+01  8.75583E+01  9.71943E+01  7.43701E+01  5.23872E+01  1.77057E+01  1.36331E+01
   4.88383E+01  3.82146E+01  5.44023E+01  7.67427E+01  8.52094E+01  9.37617E+01  7.24395E+01  9.02708E+01  8.90512E+01  8.25064E+01
   8.90873E+01  6.46490E+01  5.79898E+01  3.56023E+01  3.53687E+01  4.95235E+01  4.99261E+01  5.88953E+01  7.00012E+01  8.93721E+01
   9.35382E+01  1.03151E+02  1.01555E+02  9.42033E+01  1.01429E+02  1.01112E+02  1.08922E+02  1.08813E+02  8.79417E+01  9.18664E+01
   9.02087E+01  6.83521E+01  7.14231E+01  5.77340E+01  4.86357E+01  4.26886E+01  2.97889E+01  3.12402E+01 -6.12026E+00 -7.10393E+01
  -1.14425E+02 -9.88483E+01 -4.84454E+01 -1.42847E+01 -4.23079E-01  1.28868E+01  2.34308E+01  2.76662E+01  3.22468E+01  3.61678E+01
   3.89107E+01  3.77587E+01  5.11209E+01  6.14158E+01  6.34791E+01  7.17195E+01  8.05151E+01  8.28388E+01  1.12922E+02  1.48446E+02
   1.48633E+02  1.03473E+02 -9.33737E+00 -4.39539E+01 -2.46035E+01 -4.18212E+01 -3.93126E+01 -2.95918E+01 -2.47043E+01 -3.41268E+01
  -1.88830E+01 -6.42232E+00 -7.12024E+00 -4.12795E+00 -7.53789E+00 -1.08420E+01 -2.06096E+01 -2.04520E+00  9.66750E+00 -3.71215E+00
   8.83868E+00  2.01139E+01  4.36016E+00  2.72804E+01  1.74635E+01  5.84911E+00  4.13958E+01  2.12997E+01  3.33593E+01  3.88278E+01
   2.74018E+01  3.09405E+01  1.31709E+01  2.70012E+01  2.84916E+01  3.15806E+01  3.09695E+01  2.21809E+01  3.27285E+01  2.03660E+01
   2.99442E+01  5.59821E+01  5.28354E+01  5.06383E+01  3.42006E+01  4.63397E+01  6.91906E+01  4.95842E+01  4.20122E+01  2.84338E+01
   2.64790E+01  3.08426E+01  2.35826E+01  6.81033E+00 -2.57143E+00  1.03371E+01 -3.48948E+00 -2.94490E-01  2.17092E+01  2.81810E+01
   2.43338E+01  2.71567E+01  2.56819E+01  3.19109E+01  4.32833E+01  3.63968E+01  3.58664E+01  2.88356E+01  4.39917E+01  4.16841E+01
   3.31803E+01  4.93795E+01  6.16861E+01  6.12838E+01  3.72489E+01  3.91520E+01  4.26455E+01  3.70307E+01  1.96089E+01  1.83247E+01
   2.06787E+01  1.00784E+01  2.73913E+01  2.83594E+01  5.06533E+01  8.09148E+01  8.60561E+01  9.32272E+01  7.91091E+01  5.93951E+01
   6.40877E+01  5.25725E+01  3.76775E+01  4.42351E+01  3.60733E+01  4.00512E+01  4.46505E+01  4.78322E+01  5.73898E+01  5.41237E+01
   4.45958E+01  4.14266E+01  3.52837E+01  2.29323E+01  1.47008E+01  5.36424E+00  1.04809E+01 -5.28898E-01  2.47704E+00  6.65333E+00
  -2.20124E+00  2.49787E+01  3.21188E+01  3.54454E+01  5.71835E+01  5.69438E+01  4.70644E+01  5.22107E+01  2.71562E+01  1.64786E+01
   3.61759E+01  2.77936E+01  2.91165E+01  1.27806E+01 -1.27200E+00 -3.05167E+01 -2.15310E+01  1.07168E+02  1.62629E+02  1.50950E+02
   1.76430E+02  1.85200E+02  1.65738E+02  1.29513E+02  1.25154E+02  1.32561E+02  1.24939E+02  1.16755E+02  1.14041E+02  1.21506E+02
   1.10237E+02  1.12698E+02  1.09331E+02  1.11921E+02  1.12394E+02  1.00242E+02  1.02475E+02  8.89039E+01  1.05626E+02  1.03511E+02
   1.09517E+02  1.10036E+02  9.64185E+01  1.12860E+02  9.32800E+01  9.06307E+01  8.42625E+01  8.93895E+01  1.01569E+02  1.08080E+02
   9.82452E+01  7.94106E+01  8.11241E+01  7.19963E+01  9.05421E+01  7.17822E+01  7.83525E+01  8.54409E+01  6.17095E+01  7.35855E+01
   8.74489E+01  9.81236E+01  8.00794E+01  1.04871E+02  1.08679E+02  1.02530E+02  1.13652E+02  1.06488E+02  1.21738E+02  1.14206E+02
   1.10533E+02  1.25347E+02  1.42082E+02  1.34577E+02  1.34465E+02  1.39346E+02  1.41363E+02  1.40852E+02  1.33845E+02  1.27088E+02
   1.01903E+02  1.08176E+02  8.35316E+01  7.63322E+01  9.08538E+01  8.14344E+01  8.17105E+01  6.43128E+01  6.63730E+01  5.66750E+01
   6.02415E+01  6.32957E+01  5.46778E+01  6.38414E+01  5.95307E+01  6.10421E+01  5.84551E+01  6.99690E+01  8.79069E+01  9.32110E+01
   9.63426E+01  8.98841E+01  7.51545E+01  7.58377E+01  6.70253E+01  4.53525E+01  4.84872E+01  3.66919E+01  3.07956E+01  3.06283E+01
   8.61997E+00  1.09226E+01  1.22114E+01 -2.41932E+00  5.80158E+00  7.25506E+00 -5.35697E+00 -8.05854E+00 -3.51945E-01  7.40854E+00
   6.69432E+00  1.94518E+01  2.81488E+01  2.99268E+01  2.69086E+01  2.74115E+01  3.33562E+01  2.82090E+01  3.07409E+01  2.60425E+01
   4.34740E+01  5.06954E+01  3.89799E+01  5.93411E+01  4.85184E+01  4.95845E+01  7.39410E+01  7.00246E+01  6.95638E+01  6.95942E+01
   8.20409E+01  8.39623E+01  6.87775E+01  7.76370E+01  9.44922E+01  1.06827E+02  1.09929E+02  1.09540E+02  1.05624E+02  1.01238E+02
   1.03546E+02  9.67945E+01  7.22279E+01  5.20498E+01  4.56578E+01  4.79795E+01  5.54471E+01  3.72550E+01  3.08716E+01  2.76825E+01
   1.72658E+01  1.77523E+01  5.31734E+00  6.52097E+00 -1.45061E+00  1.55499E+00 -7.17918E+00 -2.05343E+01 -3.86655E+00 -9.95732E+00
   1.84425E+00 -3.38578E+00 -1.47674E+01  9.70192E-01 -1.22005E+00  3.55457E-01  1.16303E+00  2.78391E+00  9.66024E+00  4.12880E+00
   1.87200E+00  8.49535E+00  5.06993E+00  1.54003E+00  1.44341E+00  1.00344E+01  8.81145E+00  5.48430E+00  1.67315E+01 -3.14116E+00
  -8.46438E+00  7.64263E+00 -4.98093E+00 -8.29750E+00  1.42937E+01  1.95202E+01  5.26819E+00  6.97085E+00  1.24788E+01  1.59513E+01
   1.26619E+01  5.47135E-01  1.12091E+00  1.87924E+00  1.06786E+01  1.09377E+01 -3.19098E+00  1.02049E+01  8.93946E+00  1.15053E+01
   7.99820E+00 -6.49255E+00  1.14679E+01  1.01290E+01  1.36896E+01  8.03779E-01  1.31255E+01  3.21436E+01  3.17318E+00  1.04870E+01
   5.20005E+00  1.54381E+01  2.67628E+01  2.00623E+01  1.39668E+01  1.46836E+00  2.38673E+01  2.44861E+01  2.04711E+01  1.31025E+01
   9.73797E+00  2.18817E+01  8.47653E+00  9.65682E+00  2.30191E+01  1.87640E+01  1.33381E+01  1.89093E+01  2.12701E+01  2.27843E+01
 NY points of the fit to the data follow
  -8.91452E+00 -1.03474E+01 -9.92884E+00 -2.65004E+00  1.19471E+01  2.56776E+01  2.92502E+01  2.40889E+01  1.70597E+01  1.11040E+01
   5.90260E+00  3.01071E+00  1.52076E+00 -3.38313E-01 -2.23471E+00 -3.02004E+00 -5.55923E+00 -1.34673E+01 -2.79629E+01 -4.06159E+01
  -3.75439E+01 -1.96283E+01  9.31504E-01  2.37296E+01  4.44424E+01  5.38507E+01  5.74431E+01  6.27628E+01  6.48674E+01  6.48316E+01
   6.45236E+01  6.34311E+01  6.13195E+01  5.84531E+01  5.57174E+01  5.37153E+01  5.00400E+01  4.12839E+01  2.63288E+01  9.40727E+00
  -7.35754E-01  1.70548E+00  1.22012E+01  2.48249E+01  3.90705E+01  5.30905E+01  6.20761E+01  6.65435E+01  6.88621E+01  6.91285E+01
   6.66268E+01  6.07328E+01  5.11119E+01  4.08373E+01  3.38377E+01  3.19537E+01  3.11738E+01  2.52437E+01  2.23241E+01  3.02347E+01
   3.74242E+01  4.19005E+01  5.46765E+01  6.89571E+01  7.50680E+01  7.55542E+01  6.73315E+01  4.81131E+01  3.04748E+01  2.75451E+01
   3.37345E+01  3.79163E+01  4.58347E+01  6.08485E+01  7.23717E+01  7.80141E+01  8.29844E+01  8.66749E+01  8.84556E+01  8.60076E+01
   7.71011E+01  6.25479E+01  4.50830E+01  3.01734E+01  2.53942E+01  3.03972E+01  4.18957E+01  5.55933E+01  6.67134E+01  7.38599E+01
   8.00379E+01  8.43261E+01  8.79520E+01  9.14789E+01  9.48476E+01  9.79284E+01  1.00186E+02  1.00819E+02  1.01522E+02  1.03668E+02
   1.04309E+02  9.81943E+01  8.66275E+01  7.06937E+01  5.50812E+01  4.86959E+01  5.20230E+01  4.13801E+01 -3.81925E+00 -6.24694E+01
  -8.50972E+01 -6.87599E+01 -4.66423E+01 -2.91104E+01 -9.46493E+00  4.08991E+00  1.17424E+01  1.84104E+01  2.46574E+01  3.08389E+01
   3.72525E+01  4.41146E+01  5.18952E+01  6.09119E+01  7.05766E+01  7.91431E+01  8.55503E+01  9.72899E+01  1.19721E+02  1.47116E+02
   1.49964E+02  9.62320E+01  1.32337E+01 -3.07159E+01 -3.46264E+01 -3.53022E+01 -3.22337E+01 -2.10030E+01 -1.59189E+01 -1.36359E+01
  -1.21565E+01 -1.15980E+01 -1.11727E+01 -1.01542E+01 -8.74742E+00 -6.84974E+00 -4.14099E+00 -1.16118E+00  1.26189E+00  3.16041E+00
   4.81242E+00  6.45935E+00  8.55875E+00  1.13456E+01  1.46593E+01  1.75824E+01  1.86810E+01  1.80153E+01  1.79193E+01  2.03487E+01
   2.42764E+01  2.63517E+01  2.46443E+01  2.16798E+01  2.05509E+01  2.05338E+01  1.97449E+01  1.87752E+01  1.99228E+01  2.56898E+01
   3.63488E+01  4.73048E+01  5.09195E+01  4.63441E+01  4.33888E+01  4.80829E+01  5.45234E+01  5.46662E+01  4.68789E+01  3.61334E+01
   2.81367E+01  2.25533E+01  1.82753E+01  1.68264E+01  1.72301E+01  1.74861E+01  1.78494E+01  1.83453E+01  1.90306E+01  1.95066E+01
   1.98118E+01  2.04506E+01  2.35437E+01  3.06878E+01  3.67352E+01  3.74942E+01  3.92478E+01  4.47584E+01  4.75502E+01  4.62369E+01
   4.57773E+01  4.86519E+01  5.29759E+01  5.39608E+01  5.12187E+01  4.76569E+01  4.28175E+01  3.62391E+01  3.00350E+01  2.52267E+01
   2.10373E+01  2.02163E+01  2.62277E+01  3.74645E+01  5.28972E+01  6.95291E+01  7.94459E+01  8.27667E+01  8.22816E+01  7.63907E+01
   7.00309E+01  6.89079E+01  6.90327E+01  6.90512E+01  6.85658E+01  6.55079E+01  6.04061E+01  5.35295E+01  4.53693E+01  3.69813E+01
   2.85627E+01  2.02907E+01  1.29675E+01  6.80517E+00  1.85974E+00 -6.71322E-01 -1.23332E+00 -7.24222E-01  1.69310E+00  4.86604E+00
   8.50655E+00  1.51329E+01  2.32404E+01  3.04912E+01  3.66092E+01  3.95342E+01  3.92655E+01  3.78756E+01  3.55728E+01  3.20944E+01
   2.79095E+01  2.59574E+01  2.49403E+01  1.59080E+01 -9.17843E+00 -3.12759E+01 -8.33101E-01  8.37346E+01  1.47785E+02  1.61524E+02
   1.61828E+02  1.59220E+02  1.46720E+02  1.37252E+02  1.32776E+02  1.29126E+02  1.25794E+02  1.22680E+02  1.20092E+02  1.18395E+02
   1.17345E+02  1.16749E+02  1.16673E+02  1.16607E+02  1.16328E+02  1.16238E+02  1.16088E+02  1.15430E+02  1.14400E+02  1.13048E+02
   1.11561E+02  1.10159E+02  1.08547E+02  1.06767E+02  1.05001E+02  1.03224E+02  1.01167E+02  9.87580E+01  9.59559E+01  9.28698E+01
   8.97082E+01  8.65228E+01  8.37319E+01  8.20603E+01  8.17386E+01  8.25568E+01  8.41201E+01  8.59051E+01  8.78038E+01  8.98985E+01
   9.20513E+01  9.39985E+01  9.57548E+01  9.73760E+01  9.88968E+01  1.00529E+02  1.02488E+02  1.04513E+02  1.06218E+02  1.07595E+02
   1.08840E+02  1.10015E+02  1.11042E+02  1.11738E+02  1.12043E+02  1.11956E+02  1.11237E+02  1.10047E+02  1.08874E+02  1.07233E+02
   1.04022E+02  9.83262E+01  9.08814E+01  8.33288E+01  7.59686E+01  6.88066E+01  6.31673E+01  5.83695E+01  5.31423E+01  4.84433E+01
   4.53140E+01  4.38347E+01  4.47769E+01  4.79154E+01  5.24683E+01  5.74037E+01  6.21068E+01  6.70660E+01  7.44511E+01  8.39497E+01
   9.31002E+01  9.26276E+01  7.53391E+01  4.84826E+01  2.42953E+01  7.21565E+00  4.70677E+00  1.40120E+01  2.21924E+01  2.60812E+01
   2.93255E+01  2.82910E+01  2.55517E+01  2.30609E+01  2.15119E+01  2.09186E+01  2.13482E+01  2.27041E+01  2.47188E+01  2.71953E+01
   3.00063E+01  3.29307E+01  3.56983E+01  3.81520E+01  4.04121E+01  4.25620E+01  4.46762E+01  4.68401E+01  4.89782E+01  5.09869E+01
   5.31137E+01  5.54784E+01  5.81081E+01  6.10767E+01  6.44315E+01  6.81584E+01  7.24632E+01  7.73075E+01  8.23269E+01  8.75801E+01
   9.35224E+01  9.98366E+01  1.05793E+02  1.10633E+02  1.13457E+02  1.13066E+02  1.08832E+02  1.01295E+02  9.21749E+01  8.32594E+01
   7.54929E+01  6.90112E+01  6.36718E+01  5.87927E+01  5.32411E+01  4.65193E+01  3.92089E+01  3.18452E+01  2.48081E+01  1.89208E+01
   1.45135E+01  1.11328E+01  8.48732E+00  6.76891E+00  5.68177E+00  4.78654E+00  3.89386E+00  3.07086E+00  2.38997E+00  1.97319E+00
   1.79772E+00  1.70214E+00  1.57625E+00  1.60799E+00  1.79595E+00  1.81535E+00  1.59893E+00  1.58830E+00  1.95412E+00  2.20649E+00
   2.15869E+00  2.22167E+00  2.46508E+00  2.55806E+00  2.52691E+00  2.63002E+00  2.96128E+00  3.43617E+00  3.80090E+00  3.91652E+00
   3.89857E+00  3.88172E+00  3.92031E+00  4.13893E+00  4.54404E+00  4.91108E+00  5.22580E+00  5.55204E+00  5.82914E+00  6.10142E+00
   6.41130E+00  6.56835E+00  6.56878E+00  6.57566E+00  6.72202E+00  7.08157E+00  7.46921E+00  7.77285E+00  8.04009E+00  8.19797E+00
   8.26398E+00  8.58330E+00  9.04980E+00  9.41674E+00  9.74023E+00  1.00757E+01  1.03527E+01  1.06842E+01  1.10265E+01  1.12309E+01
   1.12736E+01  1.13509E+01  1.14611E+01  1.16356E+01  1.19875E+01  1.26358E+01  1.33664E+01  1.38859E+01  1.39999E+01  1.38931E+01
   1.38296E+01  1.39691E+01  1.42828E+01  1.46258E+01  1.49247E+01  1.52309E+01  1.53923E+01  1.54134E+01  1.56381E+01  1.61908E+01
 NY background values follow
     2.673E+01    2.701E+01    2.730E+01    2.758E+01    2.786E+01    2.814E+01    2.842E+01    2.871E+01    2.899E+01    2.928E+01
     2.956E+01    2.985E+01    3.013E+01    3.042E+01    3.070E+01    3.099E+01    3.128E+01    3.157E+01    3.185E+01    3.214E+01
     3.243E+01    3.272E+01    3.301E+01    3.330E+01    3.359E+01    3.388E+01    3.417E+01    3.446E+01    3.475E+01    3.504E+01
     3.534E+01    3.563E+01    3.592E+01    3.621E+01    3.650E+01    3.679E+01    3.708E+01    3.737E+01    3.766E+01    3.795E+01
     3.823E+01    3.851E+01    3.879E+01    3.907E+01    3.934E+01    3.961E+01    3.988E+01    4.015E+01    4.041E+01    4.067E+01
     4.092E+01    4.117E+01    4.141E+01    4.165E+01    4.188E+01    4.211E+01    4.234E+01    4.255E+01    4.277E+01    4.297E+01
     4.317E+01    4.336E+01    4.355E+01    4.373E+01    4.390E+01    4.407E+01    4.423E+01    4.438E+01    4.453E+01    4.467E+01
     4.481E+01    4.494E+01    4.507E+01    4.519E+01    4.530E+01    4.541E+01    4.551E+01    4.561E+01    4.570E+01    4.579E+01
     4.587E+01    4.595E+01    4.602E+01    4.609E+01    4.615E+01    4.621E+01    4.626E+01    4.631E+01    4.636E+01    4.640E+01
     4.644E+01    4.647E+01    4.650E+01    4.652E+01    4.655E+01    4.657E+01    4.658E+01    4.659E+01    4.661E+01    4.661E+01
     4.662E+01    4.663E+01    4.663E+01    4.663E+01    4.663E+01    4.663E+01    4.663E+01    4.663E+01    4.663E+01    4.662E+01
     4.662E+01    4.662E+01    4.662E+01    4.662E+01    4.662E+01    4.663E+01    4.663E+01    4.664E+01    4.665E+01    4.666E+01
     4.667E+01    4.669E+01    4.671E+01    4.673E+01    4.675E+01    4.678E+01    4.681E+01    4.684E+01    4.687E+01    4.690E+01
     4.694E+01    4.698E+01    4.702E+01    4.706E+01    4.711E+01    4.715E+01    4.720E+01    4.725E+01    4.730E+01    4.735E+01
     4.740E+01    4.745E+01    4.751E+01    4.757E+01    4.762E+01    4.768E+01    4.774E+01    4.780E+01    4.786E+01    4.792E+01
     4.798E+01    4.805E+01    4.811E+01    4.817E+01    4.824E+01    4.830E+01    4.837E+01    4.843E+01    4.850E+01    4.857E+01
     4.864E+01    4.871E+01    4.878E+01    4.885E+01    4.892E+01    4.899E+01    4.907E+01    4.914E+01    4.922E+01    4.929E+01
     4.937E+01    4.945E+01    4.953E+01    4.961E+01    4.970E+01    4.978E+01    4.987E+01    4.995E+01    5.004E+01    5.013E+01
     5.022E+01    5.032E+01    5.041E+01    5.051E+01    5.060E+01    5.070E+01    5.080E+01    5.091E+01    5.101E+01    5.112E+01
     5.122E+01    5.133E+01    5.145E+01    5.156E+01    5.167E+01    5.179E+01    5.191E+01    5.203E+01    5.216E+01    5.229E+01
     5.241E+01    5.255E+01    5.268E+01    5.281E+01    5.295E+01    5.309E+01    5.324E+01    5.338E+01    5.353E+01    5.368E+01
     5.384E+01    5.399E+01    5.415E+01    5.432E+01    5.448E+01    5.464E+01    5.481E+01    5.498E+01    5.515E+01    5.532E+01
     5.549E+01    5.566E+01    5.583E+01    5.600E+01    5.617E+01    5.633E+01    5.650E+01    5.667E+01    5.683E+01    5.700E+01
     5.716E+01    5.732E+01    5.748E+01    5.763E+01    5.778E+01    5.793E+01    5.807E+01    5.822E+01    5.835E+01    5.849E+01
     5.862E+01    5.874E+01    5.886E+01    5.898E+01    5.909E+01    5.920E+01    5.930E+01    5.940E+01    5.949E+01    5.958E+01
     5.967E+01    5.975E+01    5.983E+01    5.990E+01    5.997E+01    6.003E+01    6.010E+01    6.015E+01    6.021E+01    6.025E+01
     6.030E+01    6.034E+01    6.038E+01    6.041E+01    6.044E+01    6.046E+01    6.048E+01    6.050E+01    6.051E+01    6.052E+01
     6.052E+01    6.053E+01    6.052E+01    6.052E+01    6.050E+01    6.049E+01    6.047E+01    6.044E+01    6.041E+01    6.037E+01
     6.033E+01    6.029E+01    6.023E+01    6.018E+01    6.011E+01    6.004E+01    5.997E+01    5.988E+01    5.979E+01    5.970E+01
     5.959E+01    5.948E+01    5.937E+01    5.924E+01    5.911E+01    5.897E+01    5.882E+01    5.867E+01    5.850E+01    5.833E+01
     5.815E+01    5.796E+01    5.776E+01    5.756E+01    5.734E+01    5.712E+01    5.689E+01    5.664E+01    5.639E+01    5.613E+01
     5.586E+01    5.558E+01    5.529E+01    5.499E+01    5.468E+01    5.436E+01    5.403E+01    5.368E+01    5.333E+01    5.297E+01
     5.260E+01    5.221E+01    5.182E+01    5.141E+01    5.100E+01    5.057E+01    5.013E+01    4.968E+01    4.922E+01    4.874E+01
     4.825E+01    4.776E+01    4.725E+01    4.673E+01    4.620E+01    4.567E+01    4.512E+01    4.457E+01    4.401E+01    4.345E+01
     4.288E+01    4.230E+01    4.172E+01    4.114E+01    4.056E+01    3.997E+01    3.938E+01    3.879E+01    3.820E+01    3.761E+01
     3.703E+01    3.644E+01    3.586E+01    3.528E+01    3.470E+01    3.413E+01    3.357E+01    3.301E+01    3.245E+01    3.191E+01
     3.137E+01    3.084E+01    3.032E+01    2.980E+01    2.930E+01    2.880E+01    2.831E+01    2.783E+01    2.736E+01    2.690E+01
     2.645E+01    2.600E+01    2.557E+01    2.514E+01    2.472E+01    2.431E+01    2.391E+01    2.352E+01    2.314E+01    2.277E+01
     2.241E+01    2.206E+01    2.171E+01    2.138E+01    2.106E+01    2.074E+01    2.044E+01    2.014E+01    1.986E+01    1.958E+01
     1.932E+01    1.907E+01    1.882E+01    1.859E+01    1.836E+01    1.815E+01    1.794E+01    1.774E+01    1.755E+01    1.737E+01
     1.720E+01    1.704E+01    1.689E+01    1.674E+01    1.661E+01    1.648E+01    1.635E+01    1.624E+01    1.613E+01    1.604E+01
     1.594E+01    1.586E+01    1.578E+01    1.571E+01    1.565E+01    1.559E+01    1.554E+01    1.549E+01    1.545E+01    1.542E+01
     1.539E+01    1.537E+01    1.536E+01    1.535E+01    1.534E+01    1.534E+01    1.535E+01    1.536E+01    1.537E+01    1.539E+01
     1.541E+01    1.544E+01    1.547E+01    1.551E+01    1.555E+01    1.559E+01    1.564E+01    1.569E+01    1.575E+01    1.581E+01
     1.587E+01    1.594E+01    1.600E+01    1.608E+01    1.615E+01    1.623E+01    1.630E+01    1.639E+01    1.647E+01    1.655E+01
     1.664E+01    1.673E+01    1.682E+01    1.692E+01    1.701E+01    1.711E+01    1.720E+01    1.730E+01    1.740E+01    1.751E+01
     1.761E+01    1.771E+01    1.782E+01    1.793E+01    1.803E+01    1.814E+01    1.825E+01    1.836E+01    1.847E+01    1.858E+01
     1.869E+01    1.880E+01    1.891E+01    1.902E+01    1.913E+01    1.925E+01    1.936E+01    1.947E+01    1.958E+01    1.969E+01
 Mac      Conc. = 2.22E-04
   1.05151E+01  1.06089E+01  1.06190E+01  1.03162E+01  9.47512E+00  8.25347E+00  7.01782E+00  6.10025E+00  5.68828E+00  5.75731E+00
   6.04440E+00  6.15791E+00  5.59402E+00  4.27662E+00  3.13931E+00  3.74692E+00  6.70592E+00  1.06411E+01  1.41307E+01  1.74724E+01
   2.06773E+01  2.27191E+01  2.37462E+01  2.47975E+01  2.60884E+01  2.75946E+01  2.94132E+01  3.13185E+01  3.29045E+01  3.41739E+01
   3.52904E+01  3.59761E+01  3.60176E+01  3.58398E+01  3.62534E+01  3.77783E+01  4.00619E+01  4.20240E+01  4.28817E+01  4.30086E+01
   4.33203E+01  4.42150E+01  4.55073E+01  4.67976E+01  4.76131E+01  4.77969E+01  4.74910E+01  4.67894E+01  4.58785E+01  4.50869E+01
   4.45249E+01  4.41491E+01  4.39561E+01  4.39906E+01  4.43474E+01  4.52308E+01  4.65155E+01  4.77543E+01  4.90205E+01  5.04700E+01
   5.14782E+01  5.15860E+01  5.11749E+01  5.06346E+01  5.01169E+01  4.97646E+01  4.94309E+01  4.92273E+01  4.98810E+01  5.17707E+01
   5.41112E+01  5.59516E+01  5.71500E+01  5.78010E+01  5.77838E+01  5.73049E+01  5.66640E+01  5.61206E+01  5.57691E+01  5.54814E+01
   5.53060E+01  5.55601E+01  5.61786E+01  5.68717E+01  5.75394E+01  5.82917E+01  5.89761E+01  5.94432E+01  5.98443E+01  6.02613E+01
   6.05422E+01  6.06488E+01  6.03954E+01  5.94633E+01  5.78147E+01  5.58490E+01  5.38335E+01  5.20149E+01  5.05748E+01  4.92306E+01
   4.74908E+01  4.52887E+01  4.23792E+01  3.82092E+01  3.27949E+01  2.72822E+01  2.32341E+01  2.14446E+01  2.15864E+01  2.30180E+01
