 
 $NMID
 ID=''
 FMTDAT='(2E13.5)'
 TRAMP=   1.00000E+0
 VOLUME=   1.00000E+0
 $END
  -1.03830E+5   6.48209E+5
  -8.13526E+5   1.53396E+6
  -5.81123E+5   1.57845E+6
  -6.40672E+5   1.40220E+6
  -7.80892E+5   1.41867E+6
  -7.85536E+5   1.41185E+6
  -8.17006E+5   1.35379E+6
  -8.43470E+5   1.37170E+6
  -8.08231E+5   1.33821E+6
  -8.53107E+5   1.27082E+6
  -9.03752E+5   1.27456E+6
  -8.89238E+5   1.26462E+6
  -8.98221E+5   1.23363E+6
  -9.06369E+5   1.22789E+6
  -8.96838E+5   1.19278E+6
  -9.18064E+5   1.15908E+6
  -9.43038E+5   1.16494E+6
  -9.48228E+5   1.13915E+6
  -9.70670E+5   1.09432E+6
  -9.88426E+5   1.07326E+6
  -1.00115E+6   1.04147E+6
  -1.02743E+6   1.01099E+6
  -1.03757E+6   9.96802E+5
  -1.03928E+6   9.67815E+5
  -1.05514E+6   9.35298E+5
  -1.06007E+6   9.23614E+5
  -1.06016E+6   9.04034E+5
  -1.06663E+6   8.88023E+5
  -1.06703E+6   8.74753E+5
  -1.06645E+6   8.53233E+5
  -1.07951E+6   8.27264E+5
  -1.08493E+6   8.07659E+5
  -1.09067E+6   7.82848E+5
  -1.10206E+6   7.57836E+5
  -1.10650E+6   7.32903E+5
  -1.11163E+6   7.05980E+5
  -1.12548E+6   6.82114E+5
  -1.13312E+6   6.56865E+5
  -1.13273E+6   6.31512E+5
  -1.13543E+6   6.13298E+5
  -1.13652E+6   5.95592E+5
  -1.13618E+6   5.74636E+5
  -1.13400E+6   5.59195E+5
  -1.13272E+6   5.46528E+5
  -1.13205E+6   5.28918E+5
  -1.13309E+6   5.11782E+5
  -1.13287E+6   4.93712E+5
  -1.13354E+6   4.71014E+5
  -1.13344E+6   4.47974E+5
  -1.13294E+6   4.26722E+5
  -1.13277E+6   4.05253E+5
  -1.13386E+6   3.83223E+5
  -1.13408E+6   3.61840E+5
  -1.13376E+6   3.40673E+5
  -1.13142E+6   3.20592E+5
  -1.12911E+6   3.01342E+5
  -1.12642E+6   2.81932E+5
  -1.12197E+6   2.64241E+5
  -1.11668E+6   2.48925E+5
  -1.11372E+6   2.33406E+5
  -1.11037E+6   2.15748E+5
  -1.10624E+6   1.97772E+5
  -1.10214E+6   1.80050E+5
  -1.09824E+6   1.61672E+5
  -1.09217E+6   1.41849E+5
  -1.08445E+6   1.22943E+5
  -1.07770E+6   1.05375E+5
  -1.07254E+6   8.78917E+4
  -1.06770E+6   7.09360E+4
  -1.06163E+6   5.36597E+4
  -1.05396E+6   3.71067E+4
  -1.04628E+6   2.13660E+4
  -1.04002E+6   6.74440E+3
  -1.03389E+6  -8.45141E+3
  -1.02571E+6  -2.35264E+4
  -1.01665E+6  -3.83315E+4
  -1.00877E+6  -5.39030E+4
  -1.00084E+6  -6.99685E+4
  -9.92533E+5  -8.57778E+4
  -9.83265E+5  -1.01765E+5
  -9.73029E+5  -1.17473E+5
  -9.62856E+5  -1.31869E+5
  -9.53322E+5  -1.46379E+5
  -9.43675E+5  -1.60906E+5
  -9.33441E+5  -1.74199E+5
  -9.22430E+5  -1.85582E+5
  -9.12271E+5  -1.97001E+5
  -9.02224E+5  -2.08616E+5
  -8.91965E+5  -2.19454E+5
  -8.81274E+5  -2.28533E+5
  -8.70624E+5  -2.37852E+5
  -8.59874E+5  -2.48167E+5
  -8.48642E+5  -2.59118E+5
  -8.36539E+5  -2.70206E+5
  -8.24029E+5  -2.79844E+5
  -8.12367E+5  -2.88852E+5
  -8.00943E+5  -2.98212E+5
  -7.88926E+5  -3.08404E+5
  -7.76055E+5  -3.17671E+5
  -7.64014E+5  -3.26060E+5
  -7.52697E+5  -3.33521E+5
  -7.40951E+5  -3.41980E+5
  -7.27356E+5  -3.49102E+5
  -7.14236E+5  -3.55131E+5
  -7.02827E+5  -3.60977E+5
  -6.92068E+5  -3.66746E+5
  -6.79945E+5  -3.72880E+5
  -6.66990E+5  -3.78942E+5
  -6.53722E+5  -3.84355E+5
  -6.41168E+5  -3.89134E+5
  -6.29438E+5  -3.93994E+5
  -6.17707E+5  -3.99801E+5
  -6.04892E+5  -4.05591E+5
  -5.91179E+5  -4.11174E+5
  -5.78282E+5  -4.16086E+5
  -5.65846E+5  -4.21244E+5
  -5.53390E+5  -4.26324E+5
  -5.39996E+5  -4.30265E+5
  -5.27266E+5  -4.33145E+5
  -5.15037E+5  -4.35908E+5
  -5.03817E+5  -4.39539E+5
  -4.92181E+5  -4.43053E+5
  -4.79910E+5  -4.46294E+5
  -4.67892E+5  -4.49192E+5
  -4.55249E+5  -4.52372E+5
  -4.42349E+5  -4.54779E+5
  -4.30323E+5  -4.56633E+5
  -4.18823E+5  -4.58806E+5
  -4.06874E+5  -4.60667E+5
  -3.94759E+5  -4.63039E+5
  -3.82203E+5  -4.65583E+5
  -3.70005E+5  -4.67411E+5
  -3.57760E+5  -4.68735E+5
  -3.46518E+5  -4.69486E+5
  -3.34730E+5  -4.70764E+5
  -3.22441E+5  -4.71449E+5
  -3.10964E+5  -4.71680E+5
  -3.00081E+5  -4.72405E+5
  -2.88804E+5  -4.73092E+5
  -2.76953E+5  -4.73420E+5
  -2.65315E+5  -4.72603E+5
  -2.54522E+5  -4.71757E+5
  -2.43858E+5  -4.70780E+5
  -2.33731E+5  -4.70486E+5
  -2.23312E+5  -4.69899E+5
  -2.12763E+5  -4.68639E+5
  -2.02086E+5  -4.66890E+5
  -1.92118E+5  -4.65096E+5
  -1.82372E+5  -4.63118E+5
  -1.72994E+5  -4.61086E+5
  -1.63657E+5  -4.58541E+5
  -1.54390E+5  -4.55880E+5
  -1.45639E+5  -4.53735E+5
  -1.37061E+5  -4.51389E+5
  -1.27998E+5  -4.48889E+5
  -1.18972E+5  -4.45779E+5
  -1.11045E+5  -4.42542E+5
  -1.02466E+5  -4.39857E+5
  -9.42204E+4  -4.36611E+5
  -8.62961E+4  -4.32986E+5
  -7.84457E+4  -4.29691E+5
  -7.04921E+4  -4.26048E+5
  -6.24308E+4  -4.22332E+5
  -5.50956E+4  -4.18172E+5
  -4.78095E+4  -4.14253E+5
  -4.11321E+4  -4.10252E+5
  -3.43809E+4  -4.06817E+5
  -2.74008E+4  -4.03184E+5
  -2.07268E+4  -3.98804E+5
  -1.45042E+4  -3.94573E+5
  -8.25174E+3  -3.90339E+5
  -2.05601E+3  -3.86495E+5
   3.61663E+3  -3.82328E+5
   1.01035E+4  -3.77734E+5
   1.54644E+4  -3.73138E+5
   2.14252E+4  -3.69485E+5
   2.72812E+4  -3.65165E+5
   3.32465E+4  -3.60577E+5
   3.85685E+4  -3.55358E+5
   4.37170E+4  -3.51055E+5
   4.87846E+4  -3.46606E+5
   5.43146E+4  -3.42241E+5
   5.96637E+4  -3.37612E+5
   6.48227E+4  -3.32896E+5
   6.93074E+4  -3.28122E+5
   7.37354E+4  -3.23496E+5
   7.81429E+4  -3.18648E+5
   8.24418E+4  -3.13961E+5
   8.63182E+4  -3.09329E+5
   9.03390E+4  -3.05351E+5
   9.45438E+4  -3.00977E+5
   9.91042E+4  -2.96060E+5
   1.03289E+5  -2.90986E+5
   1.07207E+5  -2.85898E+5
   1.10670E+5  -2.81015E+5
   1.14189E+5  -2.76723E+5
   1.17881E+5  -2.71687E+5
   1.21623E+5  -2.66944E+5
   1.25165E+5  -2.62360E+5
   1.28887E+5  -2.57467E+5
   1.32202E+5  -2.52401E+5
   1.35239E+5  -2.46865E+5
   1.37890E+5  -2.41980E+5
   1.41046E+5  -2.37222E+5
   1.43778E+5  -2.32703E+5
   1.46615E+5  -2.27661E+5
   1.49332E+5  -2.22801E+5
   1.51736E+5  -2.17557E+5
   1.53894E+5  -2.12769E+5
   1.56719E+5  -2.08065E+5
   1.58914E+5  -2.02666E+5
   1.60802E+5  -1.97922E+5
   1.62448E+5  -1.93206E+5
   1.64971E+5  -1.89006E+5
   1.67137E+5  -1.83671E+5
   1.68720E+5  -1.78473E+5
   1.69979E+5  -1.73643E+5
   1.71268E+5  -1.69181E+5
   1.72575E+5  -1.64298E+5
   1.74041E+5  -1.59758E+5
   1.74849E+5  -1.55162E+5
   1.75864E+5  -1.50796E+5
   1.76885E+5  -1.46612E+5
   1.77841E+5  -1.42018E+5
   1.78710E+5  -1.37258E+5
   1.79044E+5  -1.32842E+5
   1.79515E+5  -1.28619E+5
   1.79357E+5  -1.24736E+5
   1.80285E+5  -1.20154E+5
   1.80844E+5  -1.15997E+5
   1.80820E+5  -1.11827E+5
   1.80615E+5  -1.07703E+5
   1.80817E+5  -1.03918E+5
   1.80609E+5  -1.00000E+5
   1.80325E+5  -9.60784E+4
   1.80196E+5  -9.25509E+4
   1.80020E+5  -8.90744E+4
   1.79887E+5  -8.51572E+4
   1.79245E+5  -8.15379E+4
   1.78711E+5  -7.80314E+4
   1.78338E+5  -7.49279E+4
   1.77727E+5  -7.13612E+4
   1.77677E+5  -6.81487E+4
   1.76738E+5  -6.44062E+4
   1.76364E+5  -6.12847E+4
   1.75491E+5  -5.81831E+4
   1.75141E+5  -5.50398E+4
   1.74281E+5  -5.17341E+4
   1.73132E+5  -4.85115E+4
   1.72450E+5  -4.56387E+4
   1.71567E+5  -4.27776E+4
   1.71058E+5  -3.98427E+4
   1.70196E+5  -3.68661E+4
   1.68976E+5  -3.38774E+4
   1.67742E+5  -3.11453E+4
   1.66580E+5  -2.83981E+4
   1.66210E+5  -2.60217E+4
   1.65331E+5  -2.29968E+4
   1.64068E+5  -2.04692E+4
   1.63262E+5  -1.76057E+4
   1.62054E+5  -1.50422E+4
   1.60924E+5  -1.19379E+4
   1.59409E+5  -9.37126E+3
   1.58013E+5  -6.80918E+3
   1.56862E+5  -4.76966E+3
   1.55654E+5  -2.36924E+3
   1.54605E+5   2.45911E+2
   1.53087E+5   2.61762E+3
   1.51834E+5   5.12148E+3
   1.50361E+5   7.38357E+3
   1.48837E+5   9.64410E+3
   1.47617E+5   1.19383E+4
   1.46038E+5   1.36963E+4
   1.44402E+5   1.63555E+4
   1.43006E+5   1.78703E+4
   1.41522E+5   2.02427E+4
   1.39896E+5   2.23740E+4
   1.38130E+5   2.44994E+4
   1.36603E+5   2.63084E+4
   1.34938E+5   2.82019E+4
   1.33166E+5   3.02627E+4
   1.31319E+5   3.18870E+4
   1.29848E+5   3.35601E+4
   1.28151E+5   3.52801E+4
   1.26630E+5   3.70345E+4
   1.24722E+5   3.86667E+4
   1.22790E+5   4.03147E+4
   1.21176E+5   4.13615E+4
   1.19334E+5   4.29789E+4
   1.17753E+5   4.46530E+4
   1.15883E+5   4.60321E+4
   1.13954E+5   4.75784E+4
   1.12148E+5   4.87990E+4
   1.10189E+5   5.01231E+4
   1.08508E+5   5.11639E+4
   1.06585E+5   5.24388E+4
   1.04744E+5   5.36639E+4
   1.02986E+5   5.47736E+4
   1.01224E+5   5.57056E+4
   9.94041E+4   5.71715E+4
   9.74830E+4   5.79507E+4
   9.54746E+4   5.88616E+4
   9.38316E+4   6.00029E+4
   9.21302E+4   6.08398E+4
   9.00374E+4   6.19598E+4
   8.81770E+4   6.25792E+4
   8.64928E+4   6.30472E+4
   8.44918E+4   6.40859E+4
   8.26555E+4   6.48205E+4
   8.09382E+4   6.55557E+4
   7.93607E+4   6.62465E+4
   7.75393E+4   6.69274E+4
   7.59072E+4   6.74209E+4
   7.39060E+4   6.80947E+4
   7.20194E+4   6.86258E+4
   7.02065E+4   6.91412E+4
   6.88016E+4   6.96198E+4
   6.69374E+4   7.00901E+4
   6.50085E+4   7.04214E+4
   6.32795E+4   7.06294E+4
   6.14081E+4   7.10714E+4
   5.98528E+4   7.13546E+4
   5.82819E+4   7.16695E+4
   5.64196E+4   7.17468E+4
   5.48074E+4   7.21158E+4
   5.30817E+4   7.22592E+4
   5.15423E+4   7.24340E+4
   4.97351E+4   7.27260E+4
   4.77758E+4   7.28335E+4
   4.61593E+4   7.25018E+4
   4.46652E+4   7.25098E+4
   4.29757E+4   7.26061E+4
   4.14120E+4   7.24546E+4
   3.98546E+4   7.25541E+4
   3.82583E+4   7.21250E+4
   3.66084E+4   7.23214E+4
   3.51384E+4   7.22438E+4
   3.35566E+4   7.22218E+4
   3.18683E+4   7.18603E+4
   3.02414E+4   7.12546E+4
   2.91658E+4   7.14684E+4
   2.75728E+4   7.13867E+4
   2.60449E+4   7.10116E+4
   2.45293E+4   7.05395E+4
   2.31104E+4   7.02618E+4
   2.17459E+4   6.99249E+4
   2.01756E+4   6.95751E+4
   1.90112E+4   6.91012E+4
   1.76442E+4   6.86826E+4
   1.64195E+4   6.82645E+4
   1.48872E+4   6.78192E+4
   1.40116E+4   6.75798E+4
   1.22025E+4   6.69524E+4
   1.14013E+4   6.66036E+4
   9.75680E+3   6.61733E+4
   8.74010E+3   6.54661E+4
   7.57289E+3   6.46158E+4
   6.63780E+3   6.42571E+4
   5.31219E+3   6.38122E+4
   4.34074E+3   6.32502E+4
   3.33006E+3   6.28709E+4
   2.01253E+3   6.21780E+4
   1.19568E+3   6.10886E+4
   2.25657E+2   6.08317E+4
  -7.98149E+2   6.01876E+4
  -1.93984E+3   5.94716E+4
  -2.68512E+3   5.85950E+4
