 LCModel (Version 6.3-1N) Copyright: S.W. Provencher.          Ref.: Magn. Reson. Med. 30:672-679 (1993).                
 Slice_N1@19_10  28-Feb-2025 11:41:58
 27 lines in following concentration table = NCONC+1
    Conc.  %SD /Cr+PCr  Metabolite                                         
 3.07E-04   4% 3.2E-04 Mac                                                 
    4.038  28%   4.143 Cr                                                  
    3.759  30%   3.857 PCr                                                 
    7.654  11%   7.853 Ins                                                 
   11.285   7%  11.579 NAA                                                 
    6.968  12%   7.149 Tau                                                 
    1.871  11%   1.919 PCho                                                
    0.000 999%   0.000 GPC                                                 
   11.608   8%  11.910 Glu                                                 
    4.074  19%   4.180 Gln                                                 
    0.000 999%   0.000 Ala                                                 
    2.200  49%   2.257 Asc                                                 
    2.519  36%   2.584 Asp                                                 
    1.099  44%   1.127 GABA                                                
    0.775  83%   0.795 Glc                                                 
    1.273  36%   1.306 GSH                                                 
    1.260  50%   1.293 Lac                                                 
    2.875  19%   2.950 NAAG                                                
    0.000 999%   0.000 PE                                                  
    1.871  11%   1.919 GPC+PCho                                            
   14.160   5%  14.529 NAA+NAAG                                            
   15.682   8%  16.090 Glu+Gln                                             
    7.797   8%   8.000 Cr+PCr                                              
   14.160   5%  14.529 NAA+NAAG                                            
    7.797   8%   8.000 Cr+PCr                                              
   15.682   8%  16.090 Glu+Gln                                             
   6 lines in following misc. output table
  FWHM = 0.024 ppm    S/N =   5                                            
  Data shift = 0.016 ppm                                                   
  Ph:-172 deg       0.0 deg/ppm                                            
  alphaB,S = 3.8E-01,   9.7E+00                                            
   19 spline knots.   Ns = 5(1)                                            
  ( 3) 2 infls.   ( 2) 1 extrs.                                            
  480 points on ppm-axis = NY
      4.100000     4.091866     4.083733     4.075600     4.067466     4.059333     4.051199     4.043066     4.034933     4.026799
      4.018666     4.010532     4.002399     3.994265     3.986132     3.977998     3.969864     3.961731     3.953597     3.945463
      3.937330     3.929196     3.921062     3.912929     3.904795     3.896662     3.888528     3.880394     3.872261     3.864127
      3.855993     3.847860     3.839726     3.831592     3.823459     3.815325     3.807191     3.799058     3.790924     3.782790
      3.774657     3.766523     3.758389     3.750256     3.742122     3.733989     3.725855     3.717721     3.709588     3.701454
      3.693320     3.685187     3.677053     3.668919     3.660786     3.652652     3.644518     3.636385     3.628251     3.620117
      3.611984     3.603850     3.595716     3.587583     3.579449     3.571316     3.563182     3.555048     3.546915     3.538781
      3.530647     3.522514     3.514380     3.506246     3.498113     3.489979     3.481845     3.473712     3.465578     3.457444
      3.449311     3.441177     3.433043     3.424910     3.416776     3.408643     3.400509     3.392375     3.384242     3.376108
      3.367974     3.359841     3.351707     3.343573     3.335440     3.327306     3.319172     3.311039     3.302905     3.294771
      3.286638     3.278504     3.270370     3.262237     3.254103     3.245970     3.237836     3.229702     3.221569     3.213435
      3.205301     3.197168     3.189034     3.180900     3.172767     3.164633     3.156499     3.148366     3.140232     3.132098
      3.123965     3.115831     3.107697     3.099564     3.091430     3.083297     3.075163     3.067029     3.058896     3.050762
      3.042628     3.034495     3.026361     3.018227     3.010094     3.001960     2.993826     2.985693     2.977559     2.969425
      2.961292     2.953158     2.945024     2.936891     2.928757     2.920624     2.912490     2.904356     2.896223     2.888089
      2.879955     2.871822     2.863688     2.855554     2.847421     2.839287     2.831153     2.823020     2.814886     2.806752
      2.798619     2.790485     2.782351     2.774218     2.766084     2.757951     2.749817     2.741683     2.733550     2.725416
      2.717282     2.709149     2.701015     2.692881     2.684748     2.676614     2.668480     2.660347     2.652213     2.644079
      2.635946     2.627812     2.619678     2.611545     2.603411     2.595278     2.587144     2.579010     2.570877     2.562743
      2.554609     2.546476     2.538342     2.530208     2.522075     2.513941     2.505807     2.497674     2.489540     2.481406
      2.473273     2.465139     2.457006     2.448872     2.440738     2.432605     2.424471     2.416337     2.408204     2.400070
      2.391936     2.383803     2.375669     2.367535     2.359402     2.351268     2.343134     2.335001     2.326867     2.318733
      2.310600     2.302466     2.294333     2.286199     2.278065     2.269932     2.261798     2.253664     2.245531     2.237397
      2.229263     2.221130     2.212996     2.204862     2.196729     2.188595     2.180461     2.172328     2.164194     2.156060
      2.147927     2.139793     2.131660     2.123526     2.115392     2.107259     2.099125     2.090991     2.082858     2.074724
      2.066590     2.058457     2.050323     2.042189     2.034056     2.025922     2.017788     2.009655     2.001521     1.993387
      1.985254     1.977120     1.968987     1.960853     1.952719     1.944586     1.936452     1.928318     1.920185     1.912051
      1.903917     1.895784     1.887650     1.879516     1.871383     1.863249     1.855115     1.846982     1.838848     1.830714
      1.822581     1.814447     1.806314     1.798180     1.790046     1.781913     1.773779     1.765645     1.757512     1.749378
      1.741244     1.733111     1.724977     1.716843     1.708710     1.700576     1.692442     1.684309     1.676175     1.668041
      1.659908     1.651774     1.643641     1.635507     1.627373     1.619240     1.611106     1.602972     1.594839     1.586705
      1.578571     1.570438     1.562304     1.554170     1.546037     1.537903     1.529769     1.521636     1.513502     1.505368
      1.497235     1.489101     1.480968     1.472834     1.464700     1.456567     1.448433     1.440299     1.432166     1.424032
      1.415898     1.407765     1.399631     1.391497     1.383364     1.375230     1.367096     1.358963     1.350829     1.342695
      1.334562     1.326428     1.318295     1.310161     1.302027     1.293894     1.285760     1.277626     1.269493     1.261359
      1.253225     1.245092     1.236958     1.228824     1.220691     1.212557     1.204423     1.196290     1.188156     1.180022
      1.171889     1.163755     1.155622     1.147488     1.139354     1.131221     1.123087     1.114953     1.106820     1.098686
      1.090552     1.082419     1.074285     1.066151     1.058018     1.049884     1.041750     1.033617     1.025483     1.017349
      1.009216     1.001082     0.992949     0.984815     0.976681     0.968548     0.960414     0.952280     0.944147     0.936013
      0.927879     0.919746     0.911612     0.903478     0.895345     0.887211     0.879077     0.870944     0.862810     0.854676
      0.846543     0.838409     0.830276     0.822142     0.814008     0.805875     0.797741     0.789607     0.781474     0.773340
      0.765206     0.757073     0.748939     0.740805     0.732672     0.724538     0.716404     0.708271     0.700137     0.692003
      0.683870     0.675736     0.667603     0.659469     0.651335     0.643202     0.635068     0.626934     0.618801     0.610667
      0.602533     0.594400     0.586266     0.578132     0.569999     0.561865     0.553731     0.545598     0.537464     0.529330
      0.521197     0.513063     0.504930     0.496796     0.488662     0.480529     0.472395     0.464261     0.456128     0.447994
      0.439861     0.431727     0.423593     0.415460     0.407326     0.399192     0.391059     0.382925     0.374792     0.366658
      0.358524     0.350391     0.342257     0.334124     0.325990     0.317856     0.309723     0.301589     0.293455     0.285322
      0.277188     0.269055     0.260921     0.252787     0.244654     0.236520     0.228386     0.220253     0.212119     0.203986
 NY phased data points follow
   4.84426E+01  5.51294E+01  3.38746E+01  4.76093E+01  3.91840E+01  3.74707E+01  4.90450E+01  4.74826E+01  3.62655E+01  3.13156E+01
   3.69047E+01  1.84158E+01  2.12738E+01  8.24805E+00  7.79694E+00  5.49922E+00 -2.72860E+01 -1.22297E+01 -2.61608E+01 -3.55030E+01
  -3.18364E+01 -3.48478E+01  1.37441E+00  9.00546E+00  3.90809E+01  5.70458E+01  4.41907E+01  6.41453E+01  6.41521E+01  5.85340E+01
   5.27848E+01  5.83096E+01  5.28772E+01  3.70877E+01  4.77172E+01  4.73399E+01  3.11621E+01  1.98843E+01  2.99596E+00 -2.46158E+01
  -2.61982E+01 -3.75459E+01 -4.06412E+01 -7.42266E+00  1.29551E+01  2.79661E+01  5.52272E+01  6.93299E+01  6.63209E+01  8.26802E+01
   8.17124E+01  7.64590E+01  6.71469E+01  4.93954E+01  4.57979E+01  3.05436E+01  2.43162E+01  2.97079E+01  2.01683E+01 -2.17096E+00
   1.83077E+01  3.30417E+01  3.34579E+01  5.18800E+01  5.01947E+01  5.18877E+01  5.20123E+01  3.76117E+01  1.96175E+01 -1.07929E+00
  -2.00266E+01  8.42150E+00  1.56198E+01  8.00402E+00  3.45577E+01  4.93539E+01  6.20896E+01  6.29707E+01  7.42041E+01  6.03023E+01
   6.63802E+01  5.44425E+01  2.47296E+01  3.26867E+01  4.33204E+00  8.67405E+00  7.33168E+00  2.14881E+01  5.05013E+01  6.10656E+01
   8.67860E+01  8.87956E+01  8.06219E+01  8.75125E+01  1.00920E+02  8.61832E+01  9.71955E+01  9.26024E+01  7.60633E+01  7.50623E+01
   7.48549E+01  7.69778E+01  4.51798E+01  3.94032E+01  2.67590E+01  1.74263E+01  2.99047E+00 -2.84014E+01 -4.19040E+01 -7.34480E+01
  -1.10587E+02 -1.31113E+02 -1.10496E+02 -7.35821E+01 -4.50955E+01 -3.76457E+01 -2.05228E+01  5.72424E+00  1.21168E+01  1.62790E+01
   2.20049E+01  1.25891E+01  1.35442E+01  4.52326E+01  3.93554E+01  5.35468E+01  7.56660E+01  7.92611E+01  1.13158E+02  1.29686E+02
   1.40279E+02  1.24213E+02  3.98172E+01 -6.01038E+01 -8.53813E+01 -7.39942E+01 -8.17008E+01 -7.66598E+01 -6.26132E+01 -5.68022E+01
  -6.04767E+01 -5.59160E+01 -5.83804E+01 -6.28840E+01 -5.13764E+01 -5.24376E+01 -4.84483E+01 -3.24046E+01 -3.41488E+01 -3.46211E+01
  -3.39860E+01 -2.78507E+01 -3.24331E+01 -2.92062E+01 -1.00741E+01 -1.81448E+01 -3.84916E+00 -6.29462E+00 -1.91815E+01 -1.58914E+01
  -1.20369E+01 -3.19496E+00 -4.82670E+00 -2.26866E+00 -2.35356E+01 -1.22852E+01  2.54248E+00 -1.18291E+01  2.50754E+00  2.61929E+01
   2.62570E+01  2.63502E+01  5.25331E+01  4.19825E+01  3.62235E+01  3.36255E+01  3.56392E+01  4.38233E+01  2.32338E+01  9.07422E+00
  -1.94665E+01 -1.29792E+01 -1.83446E+01 -2.79938E+01 -1.16180E+01 -3.46512E+01 -3.25442E+01 -2.75644E+01 -2.62172E+01 -9.27839E+00
  -5.50580E+00 -9.91684E+00 -7.97260E+00  1.88414E+01  2.35780E+01  5.83883E+00 -1.85683E+00  3.79053E+00  1.72260E+01  1.69496E+01
   1.11892E+01  1.18451E+01  1.97187E+01  1.94315E+01  1.65582E+01  7.65209E+00  2.76066E+00 -8.60608E+00 -3.59254E+01 -3.37045E+01
  -3.49195E+01 -3.31323E+01 -1.70939E+01  1.01947E+01  2.56484E+01  3.96327E+01  7.40931E+01  6.91443E+01  6.78753E+01  5.56115E+01
   3.54642E+01  1.54446E+01  6.32369E+00  2.45740E+01  1.80751E+01  2.54532E+01  3.04724E+01  2.76558E+01  2.31459E+01  2.78166E+01
   2.40539E+01  4.64344E+00 -9.52487E+00 -2.57610E+01 -2.97657E+01 -4.44942E+01 -4.95097E+01 -5.58603E+01 -5.58779E+01 -5.62127E+01
  -5.36596E+01 -5.14293E+01 -4.58967E+01 -2.71385E+01 -2.43328E+01 -9.49044E+00 -2.36865E+01 -1.51262E+01 -6.37973E+00 -2.50416E+01
  -3.56415E+01 -4.25040E+01 -4.49010E+01 -5.39102E+01 -4.84297E+01 -6.69177E+01 -5.59462E+01  1.65741E+01  1.80725E+02  2.38468E+02
   1.79403E+02  1.91951E+02  1.68079E+02  1.64155E+02  1.36396E+02  1.06397E+02  1.06261E+02  1.10742E+02  1.04126E+02  8.24061E+01
   1.08213E+02  9.32660E+01  8.81629E+01  9.43034E+01  1.01260E+02  8.32716E+01  8.68546E+01  1.11629E+02  9.12078E+01  9.59718E+01
   8.69264E+01  9.69642E+01  9.12657E+01  8.85381E+01  8.24668E+01  7.36391E+01  8.64773E+01  7.05045E+01  8.25477E+01  8.34916E+01
   6.95307E+01  6.19740E+01  7.17521E+01  6.17537E+01  6.05214E+01  6.40835E+01  4.22379E+01  4.62382E+01  3.75737E+01  5.21294E+01
   6.27954E+01  6.78528E+01  7.62016E+01  7.97310E+01  8.59655E+01  7.59123E+01  7.52181E+01  7.40638E+01  9.37410E+01  9.22021E+01
   6.84830E+01  8.28763E+01  7.61736E+01  5.99820E+01  8.88128E+01  8.38006E+01  8.03565E+01  9.18456E+01  8.48761E+01  1.07399E+02
   1.12674E+02  1.21988E+02  1.18887E+02  1.12959E+02  1.24962E+02  1.19960E+02  1.05674E+02  9.46941E+01  1.03697E+02  8.49024E+01
   7.07465E+01  6.59097E+01  6.22392E+01  5.02765E+01  1.72173E+01  2.16923E+01  3.95272E+01  4.37330E+01  4.14755E+01  3.95127E+01
   3.13852E+01  2.27343E+01  3.23696E+01  5.10979E+01  5.91164E+01  5.93500E+01  5.84273E+01  7.26542E+01  6.94785E+01  6.39868E+01
   7.57922E+01  5.51543E+01  6.26170E+01  6.27038E+01  5.00795E+01  3.60357E+01  6.66096E+00  1.35648E+01  3.68595E+01  4.09311E+01
   1.34574E+01  1.32981E+01  2.20611E+01  3.97630E+01  3.42073E+01  3.63095E+01  6.26773E+01  4.54319E+01  5.25030E+01  4.63954E+01
   6.48777E+01  7.98210E+01  6.37610E+01  6.33617E+01  7.12714E+01  8.04859E+01  6.69204E+01  8.33623E+01  8.89866E+01  9.40268E+01
   9.11504E+01  1.12809E+02  1.35288E+02  1.17681E+02  1.38322E+02  1.45318E+02  1.70674E+02  1.70342E+02  1.56456E+02  1.71027E+02
   1.56203E+02  1.44817E+02  1.34299E+02  1.06103E+02  7.80674E+01  8.07135E+01  8.10268E+01  6.72342E+01  5.60707E+01  5.61784E+01
   3.45769E+01  2.02208E+01  2.34123E+01  7.90613E+00  2.76119E+00 -8.77413E+00 -1.06947E+00 -1.13481E+01 -1.40564E+01 -1.25039E+01
  -2.44667E+01 -7.98376E+00 -1.40992E+01 -1.17820E+00  4.51554E+00 -5.44596E+00 -3.15515E+00 -1.32488E+00 -1.30068E+01 -3.09889E+00
   1.12937E+01 -1.67576E+01 -5.89804E+00 -4.67709E+00 -2.86636E+00  3.14432E+00 -2.39642E+00 -3.96641E+00 -4.33579E+00  8.14966E+00
  -1.34438E+01  6.69192E+00  9.79675E+00 -4.05635E+00  1.75231E+00 -1.34466E+01  1.09500E+00  2.22436E+00  8.18066E+00  4.11034E+00
  -5.49994E+00 -8.86668E+00 -3.71347E+00  6.03288E+00 -1.66532E+01 -1.03938E+00  3.22160E+00 -4.13826E+00  8.60583E+00 -5.67147E+00
  -4.44559E+00  1.01751E+01  3.71913E+00 -9.08846E+00 -4.58942E+00  1.52701E+00 -4.14666E+00  5.37156E+00  1.74197E+00 -1.75573E+00
   1.79940E+01 -3.61202E+00 -9.41656E-01  9.52747E+00 -8.67926E+00  1.30812E+00  6.82920E+00  1.50547E+01  1.01699E+00  7.26911E-01
   9.83170E+00  3.27252E+00  1.28440E+01  7.59640E+00  1.61951E+00 -4.31486E+00  5.83624E+00  1.00992E+01  1.22298E+01  2.02363E+00
 NY points of the fit to the data follow
   1.98920E+01  1.28071E+01  5.20332E+00  7.30291E-01  3.55382E+00  1.73162E+01  3.44446E+01  4.19230E+01  3.64581E+01  2.65634E+01
   1.84217E+01  1.40232E+01  1.31184E+01  1.31505E+01  1.17305E+01  7.53642E+00 -6.48649E-01 -1.22000E+01 -2.42963E+01 -3.55694E+01
  -4.01029E+01 -3.00768E+01 -6.77764E+00  1.90312E+01  4.40814E+01  6.23790E+01  6.36457E+01  6.17107E+01  6.11741E+01  6.12104E+01
   6.18792E+01  6.06482E+01  5.84006E+01  5.57999E+01  5.24847E+01  4.82781E+01  4.22379E+01  3.24787E+01  1.74116E+01 -2.84111E+00
  -2.29465E+01 -3.18501E+01 -2.25348E+01 -1.66905E+00  2.14316E+01  4.34623E+01  6.03478E+01  6.91643E+01  7.19082E+01  7.28014E+01
   7.09544E+01  6.77312E+01  6.26047E+01  5.42969E+01  4.26617E+01  2.86565E+01  1.76955E+01  1.25267E+01  9.13080E+00  7.32230E+00
   1.38950E+01  2.59254E+01  3.36891E+01  4.57013E+01  6.26387E+01  6.87268E+01  6.48244E+01  5.21477E+01  2.89741E+01  5.19121E+00
  -4.46966E+00  3.52696E+00  1.53509E+01  2.68322E+01  4.40764E+01  5.97097E+01  6.84621E+01  7.30353E+01  7.44883E+01  7.29566E+01
   6.65198E+01  5.37792E+01  3.55255E+01  1.64820E+01  3.14034E+00  2.05525E+00  1.21477E+01  2.70160E+01  4.38635E+01  5.49003E+01
   6.16497E+01  6.67770E+01  7.07602E+01  7.50767E+01  7.96660E+01  8.38436E+01  8.68230E+01  8.86633E+01  8.84020E+01  8.58203E+01
   8.42838E+01  8.20639E+01  7.05667E+01  5.12500E+01  3.37974E+01  1.78210E+01  3.52942E+00 -4.40659E+00 -2.30394E+01 -6.57687E+01
  -1.07417E+02 -1.15176E+02 -8.78963E+01 -6.03158E+01 -3.88198E+01 -2.46476E+01 -1.72899E+01 -1.02643E+01 -3.41283E+00  3.24011E+00
   9.70818E+00  1.62452E+01  2.35017E+01  3.17811E+01  4.16395E+01  5.34274E+01  6.73383E+01  8.71679E+01  1.11255E+02  1.31758E+02
   1.39883E+02  1.15341E+02  4.37733E+01 -4.19358E+01 -7.95470E+01 -7.39021E+01 -6.52773E+01 -5.28437E+01 -4.79870E+01 -4.80132E+01
  -4.83876E+01 -4.87763E+01 -4.91392E+01 -4.90251E+01 -4.88073E+01 -4.81442E+01 -4.65167E+01 -4.35267E+01 -4.01179E+01 -3.67091E+01
  -3.35146E+01 -3.07667E+01 -2.81605E+01 -2.56720E+01 -2.27997E+01 -1.97798E+01 -1.76942E+01 -1.70316E+01 -1.64319E+01 -1.45198E+01
  -1.15373E+01 -9.31871E+00 -9.66622E+00 -1.18658E+01 -1.29966E+01 -1.13909E+01 -8.98780E+00 -7.70223E+00 -7.14902E+00 -3.98866E+00
   5.34364E+00  1.90304E+01  2.89980E+01  2.74747E+01  1.89125E+01  1.66859E+01  2.38494E+01  2.92175E+01  2.26152E+01  6.75154E+00
  -8.07761E+00 -1.60049E+01 -1.96491E+01 -2.19721E+01 -2.31087E+01 -2.40673E+01 -2.40783E+01 -2.31897E+01 -2.15321E+01 -1.95756E+01
  -1.64530E+01 -1.22499E+01 -7.93554E+00 -1.73481E+00  6.93794E+00  1.20407E+01  1.06499E+01  1.13970E+01  1.54397E+01  1.53532E+01
   1.44539E+01  1.46147E+01  1.79380E+01  2.15719E+01  1.77365E+01  1.08504E+01  3.12683E+00 -5.86707E+00 -1.57936E+01 -2.55492E+01
  -3.22326E+01 -3.29499E+01 -2.42863E+01 -6.54900E+00  1.86438E+01  4.84435E+01  7.35519E+01  8.04984E+01  7.50106E+01  6.37401E+01
   4.50771E+01  3.56451E+01  3.38762E+01  3.57740E+01  3.99672E+01  4.13110E+01  3.89488E+01  3.32611E+01  2.33849E+01  1.14020E+01
  -1.54925E+00 -1.51918E+01 -2.75497E+01 -3.78608E+01 -4.65389E+01 -5.31587E+01 -5.61542E+01 -5.70853E+01 -5.67588E+01 -5.33125E+01
  -4.91869E+01 -4.37319E+01 -3.44902E+01 -2.39329E+01 -1.49068E+01 -8.42106E+00 -7.63690E+00 -1.20017E+01 -1.92179E+01 -3.03689E+01
  -4.06000E+01 -4.97918E+01 -5.95043E+01 -6.38501E+01 -6.42310E+01 -6.99715E+01 -5.60638E+01  2.75001E+01  1.48181E+02  2.05059E+02
   1.97189E+02  1.79468E+02  1.52321E+02  1.37673E+02  1.30540E+02  1.25079E+02  1.19582E+02  1.13921E+02  1.08717E+02  1.04841E+02
   1.02505E+02  1.02097E+02  1.03153E+02  1.04934E+02  1.06816E+02  1.07944E+02  1.08639E+02  1.08090E+02  1.07270E+02  1.06221E+02
   1.04450E+02  1.02357E+02  9.98334E+01  9.75726E+01  9.54378E+01  9.31871E+01  9.06899E+01  8.81807E+01  8.54936E+01  8.23704E+01
   7.87365E+01  7.45678E+01  7.01445E+01  6.59644E+01  6.21217E+01  5.94526E+01  5.86069E+01  5.95088E+01  6.18556E+01  6.47970E+01
   6.77463E+01  7.06548E+01  7.37458E+01  7.67477E+01  7.94193E+01  8.18079E+01  8.40700E+01  8.63182E+01  8.88776E+01  9.17486E+01
   9.45297E+01  9.67565E+01  9.85071E+01  1.00024E+02  1.01437E+02  1.02578E+02  1.03003E+02  1.02782E+02  1.01862E+02  9.99286E+01
   9.72374E+01  9.43122E+01  9.10319E+01  8.71472E+01  8.27900E+01  7.78529E+01  7.17618E+01  6.39541E+01  5.41466E+01  4.34359E+01
   3.35727E+01  2.52743E+01  1.92264E+01  1.60221E+01  1.61085E+01  1.93087E+01  2.51275E+01  3.19526E+01  3.79636E+01  4.20479E+01
   4.24913E+01  3.91133E+01  3.46045E+01  3.26858E+01  3.37407E+01  3.76506E+01  4.39905E+01  4.81628E+01  5.01070E+01  5.09940E+01
   5.03839E+01  4.86573E+01  4.55160E+01  4.11910E+01  3.59442E+01  3.07243E+01  2.70110E+01  2.52150E+01  2.51571E+01  2.66184E+01
   2.92291E+01  3.25427E+01  3.63864E+01  4.04914E+01  4.45584E+01  4.83204E+01  5.16086E+01  5.46893E+01  5.77402E+01  6.07822E+01
   6.40536E+01  6.71590E+01  7.02498E+01  7.36072E+01  7.73410E+01  8.16287E+01  8.64831E+01  9.18489E+01  9.77174E+01  1.04419E+02
   1.11792E+02  1.19266E+02  1.27235E+02  1.35775E+02  1.44288E+02  1.51443E+02  1.55981E+02  1.56463E+02  1.51906E+02  1.42439E+02
   1.29583E+02  1.16162E+02  1.04479E+02  9.50310E+01  8.74226E+01  8.06521E+01  7.37234E+01  6.51645E+01  5.51353E+01  4.47386E+01
   3.48214E+01  2.61330E+01  1.94460E+01  1.47725E+01  1.12734E+01  8.72526E+00  7.06199E+00  5.93100E+00  4.83458E+00  3.74288E+00
   2.64195E+00  1.86242E+00  1.41037E+00  1.33595E+00  1.23777E+00  1.04966E+00  9.77534E-01  1.06855E+00  9.36637E-01  5.78798E-01
   5.70738E-01  9.06488E-01  1.03816E+00  7.99063E-01  7.33319E-01  7.74796E-01  6.76291E-01  5.63785E-01  5.89365E-01  9.32454E-01
   1.34267E+00  1.50777E+00  1.29010E+00  9.59699E-01  6.90631E-01  6.25483E-01  8.37114E-01  1.20546E+00  1.46737E+00  1.60633E+00
   1.75794E+00  1.76019E+00  1.85315E+00  1.86586E+00  1.70220E+00  1.41772E+00  1.21127E+00  1.25538E+00  1.51365E+00  1.76953E+00
   1.80435E+00  1.83264E+00  1.68001E+00  1.56266E+00  1.82030E+00  2.13466E+00  2.33019E+00  2.48248E+00  2.56316E+00  2.61082E+00
   2.73154E+00  2.83154E+00  2.68535E+00  2.41254E+00  2.16644E+00  2.14561E+00  2.20477E+00  2.61781E+00  3.23429E+00  3.82615E+00
   3.99449E+00  3.64575E+00  3.10570E+00  2.75336E+00  2.78362E+00  3.07400E+00  3.27201E+00  3.41827E+00  3.48326E+00  3.38998E+00
 NY background values follow
     4.668E+01    4.643E+01    4.618E+01    4.593E+01    4.568E+01    4.542E+01    4.517E+01    4.492E+01    4.468E+01    4.443E+01
     4.418E+01    4.393E+01    4.368E+01    4.343E+01    4.319E+01    4.294E+01    4.269E+01    4.245E+01    4.221E+01    4.196E+01
     4.172E+01    4.148E+01    4.124E+01    4.100E+01    4.076E+01    4.053E+01    4.029E+01    4.006E+01    3.982E+01    3.959E+01
     3.936E+01    3.914E+01    3.891E+01    3.868E+01    3.846E+01    3.824E+01    3.802E+01    3.780E+01    3.759E+01    3.737E+01
     3.716E+01    3.695E+01    3.674E+01    3.653E+01    3.632E+01    3.612E+01    3.592E+01    3.572E+01    3.552E+01    3.532E+01
     3.513E+01    3.494E+01    3.475E+01    3.456E+01    3.437E+01    3.419E+01    3.401E+01    3.383E+01    3.365E+01    3.347E+01
     3.330E+01    3.313E+01    3.296E+01    3.279E+01    3.263E+01    3.247E+01    3.231E+01    3.215E+01    3.200E+01    3.184E+01
     3.169E+01    3.154E+01    3.140E+01    3.125E+01    3.111E+01    3.097E+01    3.083E+01    3.070E+01    3.057E+01    3.044E+01
     3.031E+01    3.018E+01    3.006E+01    2.994E+01    2.982E+01    2.970E+01    2.958E+01    2.947E+01    2.936E+01    2.925E+01
     2.915E+01    2.905E+01    2.894E+01    2.885E+01    2.875E+01    2.865E+01    2.856E+01    2.847E+01    2.839E+01    2.830E+01
     2.822E+01    2.814E+01    2.806E+01    2.798E+01    2.791E+01    2.784E+01    2.777E+01    2.770E+01    2.763E+01    2.757E+01
     2.751E+01    2.745E+01    2.739E+01    2.734E+01    2.729E+01    2.724E+01    2.719E+01    2.715E+01    2.710E+01    2.706E+01
     2.702E+01    2.698E+01    2.695E+01    2.692E+01    2.689E+01    2.686E+01    2.683E+01    2.681E+01    2.678E+01    2.676E+01
     2.674E+01    2.673E+01    2.671E+01    2.670E+01    2.669E+01    2.667E+01    2.667E+01    2.666E+01    2.665E+01    2.665E+01
     2.665E+01    2.664E+01    2.664E+01    2.664E+01    2.665E+01    2.665E+01    2.666E+01    2.666E+01    2.667E+01    2.668E+01
     2.669E+01    2.670E+01    2.671E+01    2.672E+01    2.673E+01    2.675E+01    2.676E+01    2.678E+01    2.680E+01    2.681E+01
     2.683E+01    2.685E+01    2.687E+01    2.689E+01    2.691E+01    2.693E+01    2.695E+01    2.698E+01    2.700E+01    2.702E+01
     2.705E+01    2.707E+01    2.709E+01    2.712E+01    2.714E+01    2.717E+01    2.719E+01    2.722E+01    2.725E+01    2.727E+01
     2.730E+01    2.732E+01    2.735E+01    2.737E+01    2.740E+01    2.742E+01    2.745E+01    2.748E+01    2.750E+01    2.753E+01
     2.756E+01    2.758E+01    2.761E+01    2.764E+01    2.766E+01    2.769E+01    2.772E+01    2.774E+01    2.777E+01    2.780E+01
     2.783E+01    2.786E+01    2.789E+01    2.792E+01    2.794E+01    2.797E+01    2.800E+01    2.804E+01    2.807E+01    2.810E+01
     2.813E+01    2.816E+01    2.819E+01    2.822E+01    2.826E+01    2.829E+01    2.832E+01    2.836E+01    2.839E+01    2.843E+01
     2.846E+01    2.849E+01    2.853E+01    2.856E+01    2.860E+01    2.863E+01    2.867E+01    2.870E+01    2.874E+01    2.877E+01
     2.881E+01    2.884E+01    2.888E+01    2.891E+01    2.895E+01    2.898E+01    2.902E+01    2.905E+01    2.909E+01    2.912E+01
     2.916E+01    2.919E+01    2.923E+01    2.926E+01    2.929E+01    2.933E+01    2.936E+01    2.939E+01    2.943E+01    2.946E+01
     2.949E+01    2.952E+01    2.956E+01    2.959E+01    2.962E+01    2.965E+01    2.968E+01    2.972E+01    2.975E+01    2.978E+01
     2.981E+01    2.984E+01    2.987E+01    2.990E+01    2.993E+01    2.997E+01    3.000E+01    3.003E+01    3.006E+01    3.009E+01
     3.012E+01    3.015E+01    3.018E+01    3.021E+01    3.024E+01    3.027E+01    3.030E+01    3.033E+01    3.036E+01    3.039E+01
     3.041E+01    3.044E+01    3.047E+01    3.050E+01    3.053E+01    3.055E+01    3.058E+01    3.061E+01    3.063E+01    3.066E+01
     3.068E+01    3.071E+01    3.073E+01    3.075E+01    3.077E+01    3.080E+01    3.082E+01    3.084E+01    3.086E+01    3.088E+01
     3.090E+01    3.091E+01    3.093E+01    3.095E+01    3.096E+01    3.098E+01    3.099E+01    3.100E+01    3.101E+01    3.102E+01
     3.103E+01    3.103E+01    3.104E+01    3.104E+01    3.104E+01    3.104E+01    3.103E+01    3.102E+01    3.102E+01    3.100E+01
     3.099E+01    3.097E+01    3.096E+01    3.093E+01    3.091E+01    3.088E+01    3.085E+01    3.082E+01    3.078E+01    3.074E+01
     3.070E+01    3.065E+01    3.060E+01    3.055E+01    3.049E+01    3.043E+01    3.036E+01    3.030E+01    3.023E+01    3.015E+01
     3.008E+01    3.000E+01    2.992E+01    2.983E+01    2.974E+01    2.965E+01    2.956E+01    2.946E+01    2.936E+01    2.926E+01
     2.915E+01    2.905E+01    2.893E+01    2.882E+01    2.871E+01    2.859E+01    2.847E+01    2.834E+01    2.822E+01    2.809E+01
     2.796E+01    2.782E+01    2.769E+01    2.755E+01    2.741E+01    2.726E+01    2.712E+01    2.697E+01    2.682E+01    2.667E+01
     2.652E+01    2.636E+01    2.621E+01    2.605E+01    2.589E+01    2.573E+01    2.556E+01    2.540E+01    2.523E+01    2.506E+01
     2.489E+01    2.472E+01    2.454E+01    2.437E+01    2.419E+01    2.401E+01    2.384E+01    2.366E+01    2.347E+01    2.329E+01
     2.311E+01    2.292E+01    2.274E+01    2.255E+01    2.236E+01    2.218E+01    2.199E+01    2.180E+01    2.161E+01    2.141E+01
     2.122E+01    2.103E+01    2.083E+01    2.064E+01    2.045E+01    2.025E+01    2.005E+01    1.986E+01    1.966E+01    1.946E+01
     1.927E+01    1.907E+01    1.887E+01    1.867E+01    1.848E+01    1.828E+01    1.808E+01    1.788E+01    1.768E+01    1.748E+01
     1.729E+01    1.709E+01    1.689E+01    1.669E+01    1.650E+01    1.630E+01    1.610E+01    1.590E+01    1.571E+01    1.551E+01
     1.531E+01    1.511E+01    1.492E+01    1.472E+01    1.452E+01    1.433E+01    1.413E+01    1.394E+01    1.374E+01    1.355E+01
     1.335E+01    1.315E+01    1.296E+01    1.276E+01    1.257E+01    1.237E+01    1.218E+01    1.199E+01    1.179E+01    1.160E+01
     1.140E+01    1.121E+01    1.102E+01    1.082E+01    1.063E+01    1.044E+01    1.025E+01    1.005E+01    9.860E+00    9.668E+00
     9.476E+00    9.284E+00    9.092E+00    8.900E+00    8.708E+00    8.517E+00    8.325E+00    8.133E+00    7.942E+00    7.751E+00
     7.559E+00    7.368E+00    7.176E+00    6.985E+00    6.794E+00    6.603E+00    6.411E+00    6.220E+00    6.029E+00    5.837E+00
 Mac      Conc. = 3.07E-04
   2.50927E+01  2.40734E+01  2.34524E+01  2.30016E+01  2.24145E+01  2.15081E+01  1.99644E+01  1.78129E+01  1.53523E+01  1.31899E+01
   1.17020E+01  1.10392E+01  1.08498E+01  1.05070E+01  9.49813E+00  7.67721E+00  5.53093E+00  4.54715E+00  6.55076E+00  1.15021E+01
   1.69813E+01  2.11500E+01  2.46349E+01  2.74145E+01  2.86373E+01  2.92443E+01  3.00264E+01  3.12834E+01  3.30244E+01  3.50499E+01
   3.69401E+01  3.81650E+01  3.89147E+01  3.93049E+01  3.91228E+01  3.84308E+01  3.79939E+01  3.86825E+01  4.07735E+01  4.33911E+01
   4.49468E+01  4.48912E+01  4.41779E+01  4.41536E+01  4.51153E+01  4.64887E+01  4.74812E+01  4.73883E+01  4.64016E+01  4.48937E+01
   4.30211E+01  4.12499E+01  3.97890E+01  3.87054E+01  3.78784E+01  3.74517E+01  3.74179E+01  3.78347E+01  3.90323E+01  4.05378E+01
   4.18404E+01  4.30879E+01  4.42218E+01  4.44929E+01  4.36511E+01  4.23665E+01  4.09919E+01  3.99034E+01  3.93119E+01  3.88834E+01
   3.89852E+01  4.04173E+01  4.32139E+01  4.61351E+01  4.79477E+01  4.86298E+01  4.83995E+01  4.74418E+01  4.62500E+01  4.50157E+01
   4.40207E+01  4.35054E+01  4.30589E+01  4.29736E+01  4.34293E+01  4.42890E+01  4.51549E+01  4.58969E+01  4.66558E+01  4.72424E+01
   4.75940E+01  4.79233E+01  4.81691E+01  4.81241E+01  4.77159E+01  4.66035E+01  4.44544E+01  4.15610E+01  3.85003E+01  3.56430E+01
   3.32249E+01  3.12733E+01  2.90652E+01  2.60484E+01  2.19921E+01  1.66888E+01  9.81857E+00  2.15826E+00 -4.54399E+00 -8.29681E+00
