 LCModel (Version 6.3-1N) Copyright: S.W. Provencher.          Ref.: Magn. Reson. Med. 30:672-679 (1993).                
 Slice_N1@16_13  28-Feb-2025 11:39:32
 27 lines in following concentration table = NCONC+1
    Conc.  %SD /Cr+PCr  Metabolite                                         
 2.65E-04   6% 2.2E-04 Mac                                                 
    4.436  28%   3.742 Cr                                                  
    5.049  24%   4.258 PCr                                                 
    8.172  14%   6.893 Ins                                                 
   12.026   8%  10.143 NAA                                                 
    7.710  15%   6.503 Tau                                                 
    0.764 106%   0.645 PCho                                                
    1.416  55%   1.194 GPC                                                 
   10.806  12%   9.114 Glu                                                 
    4.097  25%   3.455 Gln                                                 
    4.082  21%   3.443 Ala                                                 
    2.734  54%   2.306 Asc                                                 
    2.223  59%   1.875 Asp                                                 
    0.885  78%   0.746 GABA                                                
    0.937  99%   0.790 Glc                                                 
    1.343  44%   1.133 GSH                                                 
    0.000 999%   0.000 Lac                                                 
    2.176  31%   1.836 NAAG                                                
    0.468 297%   0.395 PE                                                  
    2.180  18%   1.839 GPC+PCho                                            
   14.202   7%  11.979 NAA+NAAG                                            
   14.903  11%  12.570 Glu+Gln                                             
    9.485  10%   8.000 Cr+PCr                                              
   14.202   7%  11.979 NAA+NAAG                                            
    9.485  10%   8.000 Cr+PCr                                              
   14.903  11%  12.570 Glu+Gln                                             
   6 lines in following misc. output table
  FWHM = 0.024 ppm    S/N =   4                                            
  Data shift = 0.024 ppm                                                   
  Ph:-140 deg       0.0 deg/ppm                                            
  alphaB,S = 1.7E-01,   4.0E-01                                            
   19 spline knots.   Ns = 5(1)                                            
   2 inflections.     2 extrema                                            
  480 points on ppm-axis = NY
      4.100000     4.091866     4.083733     4.075600     4.067466     4.059333     4.051199     4.043066     4.034933     4.026799
      4.018666     4.010532     4.002399     3.994265     3.986132     3.977998     3.969864     3.961731     3.953597     3.945463
      3.937330     3.929196     3.921062     3.912929     3.904795     3.896662     3.888528     3.880394     3.872261     3.864127
      3.855993     3.847860     3.839726     3.831592     3.823459     3.815325     3.807191     3.799058     3.790924     3.782790
      3.774657     3.766523     3.758389     3.750256     3.742122     3.733989     3.725855     3.717721     3.709588     3.701454
      3.693320     3.685187     3.677053     3.668919     3.660786     3.652652     3.644518     3.636385     3.628251     3.620117
      3.611984     3.603850     3.595716     3.587583     3.579449     3.571316     3.563182     3.555048     3.546915     3.538781
      3.530647     3.522514     3.514380     3.506246     3.498113     3.489979     3.481845     3.473712     3.465578     3.457444
      3.449311     3.441177     3.433043     3.424910     3.416776     3.408643     3.400509     3.392375     3.384242     3.376108
      3.367974     3.359841     3.351707     3.343573     3.335440     3.327306     3.319172     3.311039     3.302905     3.294771
      3.286638     3.278504     3.270370     3.262237     3.254103     3.245970     3.237836     3.229702     3.221569     3.213435
      3.205301     3.197168     3.189034     3.180900     3.172767     3.164633     3.156499     3.148366     3.140232     3.132098
      3.123965     3.115831     3.107697     3.099564     3.091430     3.083297     3.075163     3.067029     3.058896     3.050762
      3.042628     3.034495     3.026361     3.018227     3.010094     3.001960     2.993826     2.985693     2.977559     2.969425
      2.961292     2.953158     2.945024     2.936891     2.928757     2.920624     2.912490     2.904356     2.896223     2.888089
      2.879955     2.871822     2.863688     2.855554     2.847421     2.839287     2.831153     2.823020     2.814886     2.806752
      2.798619     2.790485     2.782351     2.774218     2.766084     2.757951     2.749817     2.741683     2.733550     2.725416
      2.717282     2.709149     2.701015     2.692881     2.684748     2.676614     2.668480     2.660347     2.652213     2.644079
      2.635946     2.627812     2.619678     2.611545     2.603411     2.595278     2.587144     2.579010     2.570877     2.562743
      2.554609     2.546476     2.538342     2.530208     2.522075     2.513941     2.505807     2.497674     2.489540     2.481406
      2.473273     2.465139     2.457006     2.448872     2.440738     2.432605     2.424471     2.416337     2.408204     2.400070
      2.391936     2.383803     2.375669     2.367535     2.359402     2.351268     2.343134     2.335001     2.326867     2.318733
      2.310600     2.302466     2.294333     2.286199     2.278065     2.269932     2.261798     2.253664     2.245531     2.237397
      2.229263     2.221130     2.212996     2.204862     2.196729     2.188595     2.180461     2.172328     2.164194     2.156060
      2.147927     2.139793     2.131660     2.123526     2.115392     2.107259     2.099125     2.090991     2.082858     2.074724
      2.066590     2.058457     2.050323     2.042189     2.034056     2.025922     2.017788     2.009655     2.001521     1.993387
      1.985254     1.977120     1.968987     1.960853     1.952719     1.944586     1.936452     1.928318     1.920185     1.912051
      1.903917     1.895784     1.887650     1.879516     1.871383     1.863249     1.855115     1.846982     1.838848     1.830714
      1.822581     1.814447     1.806314     1.798180     1.790046     1.781913     1.773779     1.765645     1.757512     1.749378
      1.741244     1.733111     1.724977     1.716843     1.708710     1.700576     1.692442     1.684309     1.676175     1.668041
      1.659908     1.651774     1.643641     1.635507     1.627373     1.619240     1.611106     1.602972     1.594839     1.586705
      1.578571     1.570438     1.562304     1.554170     1.546037     1.537903     1.529769     1.521636     1.513502     1.505368
      1.497235     1.489101     1.480968     1.472834     1.464700     1.456567     1.448433     1.440299     1.432166     1.424032
      1.415898     1.407765     1.399631     1.391497     1.383364     1.375230     1.367096     1.358963     1.350829     1.342695
      1.334562     1.326428     1.318295     1.310161     1.302027     1.293894     1.285760     1.277626     1.269493     1.261359
      1.253225     1.245092     1.236958     1.228824     1.220691     1.212557     1.204423     1.196290     1.188156     1.180022
      1.171889     1.163755     1.155622     1.147488     1.139354     1.131221     1.123087     1.114953     1.106820     1.098686
      1.090552     1.082419     1.074285     1.066151     1.058018     1.049884     1.041750     1.033617     1.025483     1.017349
      1.009216     1.001082     0.992949     0.984815     0.976681     0.968548     0.960414     0.952280     0.944147     0.936013
      0.927879     0.919746     0.911612     0.903478     0.895345     0.887211     0.879077     0.870944     0.862810     0.854676
      0.846543     0.838409     0.830276     0.822142     0.814008     0.805875     0.797741     0.789607     0.781474     0.773340
      0.765206     0.757073     0.748939     0.740805     0.732672     0.724538     0.716404     0.708271     0.700137     0.692003
      0.683870     0.675736     0.667603     0.659469     0.651335     0.643202     0.635068     0.626934     0.618801     0.610667
      0.602533     0.594400     0.586266     0.578132     0.569999     0.561865     0.553731     0.545598     0.537464     0.529330
      0.521197     0.513063     0.504930     0.496796     0.488662     0.480529     0.472395     0.464261     0.456128     0.447994
      0.439861     0.431727     0.423593     0.415460     0.407326     0.399192     0.391059     0.382925     0.374792     0.366658
      0.358524     0.350391     0.342257     0.334124     0.325990     0.317856     0.309723     0.301589     0.293455     0.285322
      0.277188     0.269055     0.260921     0.252787     0.244654     0.236520     0.228386     0.220253     0.212119     0.203986
 NY phased data points follow
  -1.04182E+02 -1.07212E+02 -1.15156E+02 -1.03211E+02 -1.19289E+02 -1.14278E+02 -1.01389E+02 -9.87317E+01 -9.96461E+01 -1.20049E+02
  -1.30416E+02 -1.30467E+02 -1.23019E+02 -1.33386E+02 -1.25986E+02 -1.25618E+02 -1.27832E+02 -1.43061E+02 -1.53370E+02 -1.78697E+02
  -2.31618E+02 -1.72692E+02 -1.61348E+02 -1.60780E+02 -9.01721E+01 -8.07798E+01 -8.01431E+01 -8.45630E+01 -7.36911E+01 -7.34551E+01
  -7.84526E+01 -7.44276E+01 -7.74022E+01 -5.98981E+01 -7.13791E+01 -6.89993E+01 -6.81861E+01 -6.35051E+01 -6.57946E+01 -1.21628E+02
  -1.26410E+02 -1.29572E+02 -1.45118E+02 -1.32722E+02 -1.13208E+02 -8.45583E+01 -7.10818E+01 -4.33212E+01 -2.85936E+01 -3.98286E+01
  -3.70322E+01 -2.52712E+01 -3.26063E+01 -4.09161E+01 -4.75781E+01 -7.36050E+01 -7.87258E+01 -6.76966E+01 -9.05067E+01 -1.15435E+02
  -8.55242E+01 -8.37340E+01 -8.24663E+01 -5.80794E+01 -4.39016E+01 -9.09256E+00 -1.89203E+01 -3.87847E+01 -7.55043E+01 -1.19065E+02
  -1.16104E+02 -9.60643E+01 -9.71568E+01 -9.76008E+01 -5.66336E+01 -4.07660E+01 -2.69624E+01 -9.35324E+00 -8.72849E+00 -2.12981E+01
  -2.22260E+01 -1.16040E+01 -2.93717E+01 -5.44407E+01 -7.95525E+01 -8.95976E+01 -8.80388E+01 -6.01129E+01 -4.69432E+01 -3.31563E+01
  -1.82161E+01 -1.31433E+01 -2.00524E-01 -1.58127E+01  8.08436E+00  1.52067E+01  6.89983E+00  2.74823E+01  2.10191E+01  1.33118E+01
   2.56269E+01  1.40153E+01 -2.19402E+00 -8.76341E+00 -3.72246E+01 -4.29059E+01 -6.94038E+01 -6.67080E+01 -7.47379E+01 -1.32811E+02
  -1.82211E+02 -2.17562E+02 -1.80887E+02 -1.70514E+02 -1.49249E+02 -1.24976E+02 -1.10464E+02 -9.11083E+01 -1.07369E+02 -8.16573E+01
  -7.64367E+01 -6.80435E+01 -5.90288E+01 -6.84720E+01 -6.28606E+01 -4.35643E+01 -2.78473E+01 -2.70028E+01  1.25344E+01  5.86379E+01
   1.23479E+02  1.23137E+02  5.27249E+00 -1.03952E+02 -1.37684E+02 -1.25608E+02 -1.37504E+02 -1.32806E+02 -1.24698E+02 -1.21798E+02
  -1.17995E+02 -1.26183E+02 -1.14897E+02 -1.36053E+02 -1.29258E+02 -1.18541E+02 -1.32369E+02 -1.05167E+02 -1.16018E+02 -1.15198E+02
  -1.12918E+02 -1.24106E+02 -1.13528E+02 -1.10872E+02 -1.05484E+02 -1.07779E+02 -9.54738E+01 -1.03212E+02 -1.02705E+02 -9.30550E+01
  -8.60305E+01 -8.65899E+01 -9.99119E+01 -8.21611E+01 -9.39560E+01 -9.20590E+01 -9.50162E+01 -9.78765E+01 -8.29005E+01 -8.09265E+01
  -7.16829E+01 -7.21439E+01 -4.26888E+01 -3.17561E+01 -6.13292E+01 -8.47913E+01 -5.23690E+01 -2.89450E+01 -4.71848E+01 -5.11137E+01
  -7.95406E+01 -9.71382E+01 -1.06650E+02 -1.05431E+02 -1.02328E+02 -1.09928E+02 -1.00004E+02 -1.00385E+02 -1.04164E+02 -9.18856E+01
  -9.31041E+01 -1.00552E+02 -9.82094E+01 -8.56338E+01 -6.26922E+01 -8.25457E+01 -8.32882E+01 -8.25770E+01 -8.63326E+01 -5.94160E+01
  -7.52449E+01 -7.41504E+01 -5.92591E+01 -5.15167E+01 -4.92892E+01 -5.92302E+01 -6.42958E+01 -7.13568E+01 -9.05698E+01 -9.68311E+01
  -1.00034E+02 -1.32443E+02 -1.22009E+02 -1.08066E+02 -9.18858E+01 -4.27092E+01 -1.49469E+01 -1.20689E+01 -5.36026E+00 -1.23640E+01
  -5.43895E+01 -6.18197E+01 -6.15636E+01 -6.95676E+01 -6.90917E+01 -6.92666E+01 -6.18933E+01 -6.73103E+01 -7.18579E+01 -5.80240E+01
  -6.48607E+01 -7.50648E+01 -6.68594E+01 -9.28969E+01 -9.69845E+01 -1.01275E+02 -1.22969E+02 -1.18407E+02 -1.22676E+02 -1.31923E+02
  -1.28745E+02 -1.19456E+02 -1.26056E+02 -1.05859E+02 -1.01186E+02 -9.52775E+01 -6.68478E+01 -7.75630E+01 -9.01942E+01 -1.00065E+02
  -1.06421E+02 -1.15410E+02 -1.06623E+02 -1.09416E+02 -1.21593E+02 -1.85480E+02 -2.72729E+02 -1.34082E+02  5.70745E+01  9.41794E+01
   1.06722E+02  9.66205E+01  7.30706E+01  6.32093E+01  4.55855E+01  4.39512E+01  3.81368E+01  4.08409E+01  2.96626E+01  9.61253E+00
   1.71647E+01  1.73105E+01  1.74980E+01  1.73045E+01  4.08822E+01  3.67937E+01  2.07424E+01  2.67253E+01  2.18846E+01  3.52352E+01
   2.67215E+01  2.43279E+01  2.91870E+01  3.41853E+01  2.46974E+01  1.99297E+01  4.21735E+01  1.53784E+01  1.48645E+01  2.16532E+01
   3.26168E+00  1.59333E+01  6.51653E+00 -5.69635E+00 -5.32357E-01 -1.61593E+01 -2.67564E+01 -3.19226E+01 -4.02147E+01 -4.70076E+01
  -4.96045E+01 -3.76154E+01 -3.35177E+01 -3.84502E+01 -4.84325E+01 -4.15014E+01 -3.46672E+01 -3.37190E+01 -3.16564E+01 -2.79377E+01
  -1.64314E+01 -3.10432E+01 -3.37778E+01 -3.82473E+01 -3.99546E+01 -3.24416E+01 -3.15978E+01 -4.51817E+01 -7.87498E+01 -7.53797E+01
  -8.29829E+01 -9.69401E+01 -9.83038E+01 -1.02224E+02 -1.14762E+02 -1.26816E+02 -1.15941E+02 -1.17177E+02 -9.35465E+01 -6.56395E+01
  -6.72933E+01 -5.31920E+01 -3.99538E+01 -5.70450E+01 -6.39439E+01 -6.35156E+01 -7.03163E+01 -7.10730E+01 -6.75869E+01 -4.51575E+01
  -3.71713E+01 -1.53576E+01 -5.07296E+00 -1.86670E+01  7.23209E+00  1.46615E+01  5.97838E+00  4.76067E+00  1.14140E+01  1.67458E+01
   2.85521E+00  9.19405E+00  7.38965E+00 -5.23035E+00  3.79447E+00 -4.85145E+00 -1.31960E+01 -2.30801E+01 -4.48516E+01 -3.93728E+01
  -3.01349E+01 -3.66911E+01 -4.28617E+01 -3.27262E+01 -4.14404E+01 -4.99651E+01 -3.13702E+01 -2.96195E+01 -2.25310E+01 -2.14466E+01
  -2.24670E+01 -1.16579E+01 -2.14501E+01 -1.27686E+01 -8.21258E+00 -9.54335E+00  1.60818E+01  2.35421E+01  4.18044E+01  4.15121E+01
   3.33545E+01  4.56866E+01  4.78546E+01  7.76021E+01  7.48518E+01  7.90510E+01  9.93018E+01  1.09348E+02  1.29063E+02  1.20213E+02
   1.29784E+02  1.12391E+02  8.85030E+01  8.15063E+01  6.08609E+01  6.34673E+01  5.87907E+01  4.81530E+01  3.77387E+01  2.58853E+01
   1.83875E+01  6.12187E+00 -4.66161E+00 -1.19781E+01 -2.58184E+01 -2.42597E+01 -3.57766E+01 -4.58019E+01 -3.33500E+01 -4.80171E+01
  -3.62132E+01 -3.05518E+01 -3.90169E+01 -3.00695E+01 -4.40633E+01 -4.72998E+01 -3.22811E+01 -3.78079E+01 -5.68820E+01 -4.00688E+01
  -3.02906E+01 -4.72344E+01 -4.34810E+01 -3.33995E+01 -3.48120E+01 -4.09151E+01 -4.16764E+01 -3.97091E+01 -3.72097E+01 -3.61946E+01
  -4.86707E+01 -5.30867E+01 -3.92640E+01 -4.11962E+01 -3.58945E+01 -4.32607E+01 -4.83782E+01 -3.36415E+01 -4.59506E+01 -4.18544E+01
  -3.83189E+01 -3.73042E+01 -4.00618E+01 -4.53877E+01 -4.44423E+01 -4.33835E+01 -2.63969E+01 -4.26973E+01 -4.41881E+01 -4.12465E+01
  -4.46845E+01 -3.70362E+01 -5.06792E+01 -2.85894E+01 -1.85947E+01 -3.86983E+01 -4.50658E+01 -4.28176E+01 -3.89324E+01 -3.60527E+01
  -3.35499E+01 -3.97054E+01 -3.56879E+01 -4.42834E+01 -4.27686E+01 -3.49950E+01 -3.72937E+01 -2.21755E+01 -3.56268E+01 -3.54861E+01
  -2.87440E+01 -3.56626E+01 -3.82064E+01 -5.55661E+01 -3.67601E+01 -2.87525E+01 -4.43182E+01 -3.44389E+01 -2.14750E+01 -2.86364E+01
 NY points of the fit to the data follow
  -1.15436E+02 -1.24816E+02 -1.36753E+02 -1.49012E+02 -1.50427E+02 -1.27437E+02 -1.01795E+02 -9.53851E+01 -1.02470E+02 -1.09666E+02
  -1.15188E+02 -1.19706E+02 -1.19900E+02 -1.19872E+02 -1.21582E+02 -1.23077E+02 -1.23100E+02 -1.37634E+02 -1.43444E+02 -1.73353E+02
  -1.99895E+02 -1.66446E+02 -1.52300E+02 -1.40851E+02 -9.42463E+01 -6.89713E+01 -6.53718E+01 -5.81400E+01 -5.29485E+01 -5.08686E+01
  -5.14799E+01 -5.22281E+01 -5.33191E+01 -5.56439E+01 -6.31124E+01 -6.64440E+01 -7.02200E+01 -7.75740E+01 -8.75302E+01 -1.11892E+02
  -1.39843E+02 -1.48329E+02 -1.38846E+02 -1.23909E+02 -1.06867E+02 -8.25753E+01 -6.26457E+01 -5.13496E+01 -4.31981E+01 -3.87386E+01
  -3.73433E+01 -3.73540E+01 -4.30183E+01 -5.50060E+01 -6.20938E+01 -7.21311E+01 -8.00102E+01 -7.41932E+01 -9.59510E+01 -1.12662E+02
  -8.84173E+01 -8.53563E+01 -8.79397E+01 -6.37381E+01 -4.11153E+01 -2.68872E+01 -2.34418E+01 -2.92912E+01 -5.82997E+01 -9.83577E+01
  -9.87786E+01 -8.56296E+01 -9.07676E+01 -8.14207E+01 -5.77272E+01 -4.13984E+01 -3.25841E+01 -2.43709E+01 -1.90566E+01 -1.02478E+01
  -1.12061E+01 -2.25320E+01 -3.75335E+01 -6.78934E+01 -8.76074E+01 -9.36745E+01 -9.02222E+01 -7.26593E+01 -5.52795E+01 -4.41279E+01
  -3.47257E+01 -2.75760E+01 -2.15270E+01 -1.58177E+01 -1.09195E+01 -3.91666E+00 -1.52907E+00  4.40389E+00  6.13408E+00  2.01774E+00
   9.96879E+00  2.12739E+01  1.08581E+00 -1.12855E+01 -3.05894E+01 -5.47220E+01 -6.21767E+01 -5.06101E+01 -5.59027E+01 -1.24011E+02
  -1.97044E+02 -2.05321E+02 -1.80537E+02 -1.58212E+02 -1.39088E+02 -1.23112E+02 -1.10764E+02 -1.00287E+02 -9.16963E+01 -8.41191E+01
  -7.69792E+01 -7.00518E+01 -6.24473E+01 -5.44868E+01 -4.41129E+01 -3.23448E+01 -2.25467E+01 -1.76181E+01  2.03262E+01  4.88225E+01
   1.07943E+02  1.28338E+02  4.04309E+00 -1.19260E+02 -1.45048E+02 -1.47048E+02 -1.47348E+02 -1.41062E+02 -1.36364E+02 -1.33334E+02
  -1.30130E+02 -1.28635E+02 -1.28597E+02 -1.28027E+02 -1.27676E+02 -1.26668E+02 -1.24406E+02 -1.20986E+02 -1.17385E+02 -1.14551E+02
  -1.11990E+02 -1.10095E+02 -1.08341E+02 -1.05815E+02 -1.02243E+02 -9.83673E+01 -9.62066E+01 -9.64439E+01 -9.66587E+01 -9.48664E+01
  -9.14863E+01 -8.75763E+01 -8.79744E+01 -9.11951E+01 -9.23429E+01 -8.99459E+01 -8.76062E+01 -9.04687E+01 -9.59783E+01 -9.47145E+01
  -8.41844E+01 -6.38537E+01 -4.62410E+01 -5.31957E+01 -6.91449E+01 -6.69669E+01 -5.29281E+01 -3.64021E+01 -4.07792E+01 -6.24594E+01
  -7.63631E+01 -8.42760E+01 -9.21575E+01 -9.62906E+01 -9.87472E+01 -9.95042E+01 -9.96800E+01 -1.00676E+02 -9.86671E+01 -9.88358E+01
  -9.90348E+01 -9.51383E+01 -9.82036E+01 -9.33375E+01 -7.34874E+01 -7.25470E+01 -7.69052E+01 -6.93958E+01 -6.15983E+01 -5.88007E+01
  -6.54653E+01 -6.70347E+01 -5.67617E+01 -5.15213E+01 -5.55569E+01 -6.14525E+01 -6.52187E+01 -7.17817E+01 -8.23237E+01 -9.44020E+01
  -9.87647E+01 -1.15576E+02 -1.15257E+02 -1.02266E+02 -9.39819E+01 -5.15663E+01 -2.57942E+01 -1.84239E+01 -3.77531E+00 -1.29066E+01
  -2.99714E+01 -3.58460E+01 -3.97680E+01 -3.80388E+01 -3.63881E+01 -3.73863E+01 -3.98009E+01 -4.61874E+01 -5.49741E+01 -6.58760E+01
  -7.64425E+01 -8.93201E+01 -1.01026E+02 -1.09253E+02 -1.21176E+02 -1.28093E+02 -1.30058E+02 -1.34875E+02 -1.36063E+02 -1.29025E+02
  -1.34070E+02 -1.27644E+02 -1.18564E+02 -1.11805E+02 -9.80370E+01 -9.24279E+01 -8.92702E+01 -8.57156E+01 -9.31509E+01 -9.76605E+01
  -1.08346E+02 -1.17878E+02 -1.09817E+02 -1.23503E+02 -1.23035E+02 -1.95810E+02 -2.67713E+02 -1.40283E+02  2.77037E+01  7.53925E+01
   7.77633E+01  7.52228E+01  6.44753E+01  5.48133E+01  4.74775E+01  4.11209E+01  3.37979E+01  2.83855E+01  2.23747E+01  1.73382E+01
   1.52245E+01  1.26518E+01  1.24472E+01  1.31216E+01  1.29761E+01  1.34639E+01  1.33978E+01  1.32188E+01  1.28002E+01  1.15925E+01
   9.78756E+00  7.57592E+00  5.70611E+00  4.07477E+00  1.57433E+00 -5.83916E-01 -2.46616E+00 -4.93166E+00 -7.16083E+00 -1.04255E+01
  -1.41281E+01 -1.78399E+01 -2.20938E+01 -2.64565E+01 -2.95866E+01 -3.12212E+01 -3.11290E+01 -2.96190E+01 -2.75924E+01 -2.56526E+01
  -2.31367E+01 -2.01653E+01 -1.73363E+01 -1.48451E+01 -1.25802E+01 -1.03875E+01 -8.43473E+00 -5.66013E+00 -2.43198E+00  4.36722E-01
   2.99686E+00  5.20043E+00  7.44413E+00  1.01586E+01  1.24215E+01  1.41866E+01  1.65860E+01  2.60953E+01  2.53155E+01  3.34218E+01
   1.95977E+01 -1.52863E+01 -3.45939E+01 -5.61093E+01 -7.01117E+01 -6.11776E+01 -5.40887E+01 -5.51553E+01 -5.83688E+01 -6.29729E+01
  -6.87580E+01 -7.37909E+01 -7.70043E+01 -7.76637E+01 -7.51604E+01 -7.04552E+01 -6.49661E+01 -6.03799E+01 -5.68496E+01 -5.43671E+01
  -5.25914E+01 -4.88618E+01 -4.44359E+01 -3.95600E+01 -3.42680E+01 -3.06012E+01 -2.82942E+01 -2.66444E+01 -2.50420E+01 -2.40584E+01
  -2.44629E+01 -2.59052E+01 -2.85337E+01 -3.31933E+01 -3.77724E+01 -4.07756E+01 -4.27407E+01 -4.32221E+01 -4.21293E+01 -4.03546E+01
  -3.72316E+01 -3.39013E+01 -2.98905E+01 -2.55280E+01 -2.19239E+01 -1.83244E+01 -1.49953E+01 -1.19415E+01 -8.40231E+00 -5.02082E+00
  -1.83662E+00  1.00797E+00  4.44438E+00  7.70042E+00  1.17145E+01  1.62212E+01  2.05829E+01  2.56345E+01  3.19717E+01  3.83271E+01
   4.45145E+01  5.17953E+01  6.04567E+01  6.90843E+01  7.79330E+01  8.48360E+01  8.88720E+01  8.79402E+01  8.16392E+01  7.16808E+01
   6.08935E+01  5.16076E+01  4.35826E+01  3.70745E+01  3.20410E+01  2.68934E+01  1.94727E+01  1.11551E+01  2.33539E+00 -6.56486E+00
  -1.48467E+01 -2.07259E+01 -2.54359E+01 -2.92718E+01 -3.19746E+01 -3.34875E+01 -3.45015E+01 -3.55551E+01 -3.66384E+01 -3.76046E+01
  -3.82605E+01 -3.84492E+01 -3.82795E+01 -3.84027E+01 -3.85306E+01 -3.82184E+01 -3.78231E+01 -3.80306E+01 -3.85704E+01 -3.79027E+01
  -3.72184E+01 -3.73784E+01 -3.75261E+01 -3.71742E+01 -3.69236E+01 -3.70654E+01 -3.72875E+01 -3.71346E+01 -3.64893E+01 -3.60058E+01
  -3.56896E+01 -3.59986E+01 -3.60398E+01 -3.63167E+01 -3.64146E+01 -3.59777E+01 -3.56965E+01 -3.54445E+01 -3.51772E+01 -3.50075E+01
  -3.50160E+01 -3.45999E+01 -3.45563E+01 -3.48221E+01 -3.49329E+01 -3.52821E+01 -3.50797E+01 -3.46234E+01 -3.46836E+01 -3.43627E+01
  -3.43653E+01 -3.46892E+01 -3.46996E+01 -3.42158E+01 -3.41166E+01 -3.37867E+01 -3.37492E+01 -3.35692E+01 -3.35160E+01 -3.32310E+01
  -3.29552E+01 -3.31555E+01 -3.34455E+01 -3.34650E+01 -3.36982E+01 -3.36569E+01 -3.34070E+01 -3.25431E+01 -3.18651E+01 -3.16559E+01
  -3.19748E+01 -3.24344E+01 -3.26838E+01 -3.24804E+01 -3.22419E+01 -3.21117E+01 -3.18940E+01 -3.14955E+01 -3.20416E+01 -3.21446E+01
 NY background values follow
    -9.213E+01   -9.177E+01   -9.141E+01   -9.106E+01   -9.070E+01   -9.034E+01   -8.998E+01   -8.962E+01   -8.926E+01   -8.890E+01
    -8.853E+01   -8.817E+01   -8.780E+01   -8.744E+01   -8.707E+01   -8.670E+01   -8.634E+01   -8.597E+01   -8.560E+01   -8.522E+01
    -8.485E+01   -8.448E+01   -8.410E+01   -8.372E+01   -8.334E+01   -8.296E+01   -8.258E+01   -8.220E+01   -8.181E+01   -8.143E+01
    -8.104E+01   -8.065E+01   -8.026E+01   -7.986E+01   -7.947E+01   -7.907E+01   -7.868E+01   -7.828E+01   -7.788E+01   -7.749E+01
    -7.709E+01   -7.669E+01   -7.629E+01   -7.589E+01   -7.549E+01   -7.509E+01   -7.470E+01   -7.430E+01   -7.390E+01   -7.351E+01
    -7.312E+01   -7.272E+01   -7.233E+01   -7.194E+01   -7.155E+01   -7.117E+01   -7.078E+01   -7.040E+01   -7.002E+01   -6.965E+01
    -6.927E+01   -6.890E+01   -6.853E+01   -6.817E+01   -6.780E+01   -6.744E+01   -6.709E+01   -6.673E+01   -6.638E+01   -6.604E+01
    -6.569E+01   -6.536E+01   -6.502E+01   -6.469E+01   -6.436E+01   -6.404E+01   -6.372E+01   -6.341E+01   -6.310E+01   -6.279E+01
    -6.249E+01   -6.219E+01   -6.190E+01   -6.161E+01   -6.133E+01   -6.105E+01   -6.078E+01   -6.051E+01   -6.025E+01   -5.999E+01
    -5.974E+01   -5.950E+01   -5.926E+01   -5.902E+01   -5.879E+01   -5.857E+01   -5.835E+01   -5.814E+01   -5.793E+01   -5.773E+01
    -5.753E+01   -5.733E+01   -5.715E+01   -5.696E+01   -5.678E+01   -5.661E+01   -5.644E+01   -5.628E+01   -5.612E+01   -5.597E+01
    -5.582E+01   -5.567E+01   -5.553E+01   -5.539E+01   -5.526E+01   -5.513E+01   -5.501E+01   -5.489E+01   -5.478E+01   -5.467E+01
    -5.456E+01   -5.446E+01   -5.436E+01   -5.426E+01   -5.417E+01   -5.409E+01   -5.400E+01   -5.392E+01   -5.385E+01   -5.378E+01
    -5.371E+01   -5.365E+01   -5.359E+01   -5.353E+01   -5.348E+01   -5.343E+01   -5.338E+01   -5.334E+01   -5.330E+01   -5.326E+01
    -5.323E+01   -5.320E+01   -5.318E+01   -5.316E+01   -5.314E+01   -5.312E+01   -5.311E+01   -5.310E+01   -5.309E+01   -5.309E+01
    -5.309E+01   -5.309E+01   -5.309E+01   -5.310E+01   -5.311E+01   -5.312E+01   -5.314E+01   -5.316E+01   -5.318E+01   -5.320E+01
    -5.322E+01   -5.325E+01   -5.328E+01   -5.331E+01   -5.334E+01   -5.338E+01   -5.341E+01   -5.345E+01   -5.349E+01   -5.353E+01
    -5.357E+01   -5.361E+01   -5.365E+01   -5.370E+01   -5.374E+01   -5.379E+01   -5.383E+01   -5.388E+01   -5.393E+01   -5.398E+01
    -5.402E+01   -5.407E+01   -5.412E+01   -5.417E+01   -5.422E+01   -5.427E+01   -5.432E+01   -5.437E+01   -5.441E+01   -5.446E+01
    -5.451E+01   -5.456E+01   -5.461E+01   -5.465E+01   -5.470E+01   -5.475E+01   -5.479E+01   -5.484E+01   -5.488E+01   -5.493E+01
    -5.497E+01   -5.501E+01   -5.505E+01   -5.509E+01   -5.513E+01   -5.517E+01   -5.521E+01   -5.525E+01   -5.528E+01   -5.532E+01
    -5.535E+01   -5.538E+01   -5.541E+01   -5.544E+01   -5.547E+01   -5.549E+01   -5.552E+01   -5.555E+01   -5.557E+01   -5.559E+01
    -5.562E+01   -5.564E+01   -5.567E+01   -5.569E+01   -5.571E+01   -5.574E+01   -5.576E+01   -5.579E+01   -5.581E+01   -5.584E+01
    -5.586E+01   -5.589E+01   -5.592E+01   -5.595E+01   -5.598E+01   -5.601E+01   -5.604E+01   -5.607E+01   -5.611E+01   -5.614E+01
    -5.618E+01   -5.622E+01   -5.626E+01   -5.631E+01   -5.635E+01   -5.640E+01   -5.645E+01   -5.650E+01   -5.655E+01   -5.661E+01
    -5.667E+01   -5.673E+01   -5.679E+01   -5.686E+01   -5.692E+01   -5.699E+01   -5.706E+01   -5.714E+01   -5.722E+01   -5.730E+01
    -5.738E+01   -5.747E+01   -5.756E+01   -5.765E+01   -5.774E+01   -5.784E+01   -5.794E+01   -5.805E+01   -5.815E+01   -5.826E+01
    -5.838E+01   -5.850E+01   -5.862E+01   -5.874E+01   -5.886E+01   -5.898E+01   -5.911E+01   -5.923E+01   -5.936E+01   -5.948E+01
    -5.960E+01   -5.972E+01   -5.984E+01   -5.995E+01   -6.006E+01   -6.017E+01   -6.027E+01   -6.037E+01   -6.046E+01   -6.054E+01
    -6.062E+01   -6.069E+01   -6.076E+01   -6.081E+01   -6.086E+01   -6.089E+01   -6.092E+01   -6.094E+01   -6.094E+01   -6.094E+01
    -6.092E+01   -6.089E+01   -6.085E+01   -6.080E+01   -6.073E+01   -6.066E+01   -6.057E+01   -6.047E+01   -6.035E+01   -6.023E+01
    -6.009E+01   -5.994E+01   -5.977E+01   -5.960E+01   -5.941E+01   -5.921E+01   -5.900E+01   -5.877E+01   -5.853E+01   -5.828E+01
    -5.802E+01   -5.774E+01   -5.746E+01   -5.715E+01   -5.684E+01   -5.651E+01   -5.618E+01   -5.582E+01   -5.546E+01   -5.508E+01
    -5.469E+01   -5.428E+01   -5.387E+01   -5.344E+01   -5.301E+01   -5.256E+01   -5.210E+01   -5.163E+01   -5.116E+01   -5.068E+01
    -5.019E+01   -4.969E+01   -4.919E+01   -4.868E+01   -4.816E+01   -4.765E+01   -4.713E+01   -4.660E+01   -4.607E+01   -4.554E+01
    -4.501E+01   -4.448E+01   -4.395E+01   -4.342E+01   -4.289E+01   -4.236E+01   -4.183E+01   -4.131E+01   -4.079E+01   -4.027E+01
    -3.975E+01   -3.925E+01   -3.874E+01   -3.824E+01   -3.775E+01   -3.726E+01   -3.678E+01   -3.631E+01   -3.584E+01   -3.538E+01
    -3.492E+01   -3.447E+01   -3.403E+01   -3.360E+01   -3.317E+01   -3.276E+01   -3.235E+01   -3.195E+01   -3.156E+01   -3.117E+01
    -3.080E+01   -3.044E+01   -3.008E+01   -2.974E+01   -2.941E+01   -2.908E+01   -2.877E+01   -2.847E+01   -2.818E+01   -2.790E+01
    -2.763E+01   -2.738E+01   -2.713E+01   -2.690E+01   -2.668E+01   -2.647E+01   -2.627E+01   -2.608E+01   -2.590E+01   -2.573E+01
    -2.558E+01   -2.543E+01   -2.529E+01   -2.516E+01   -2.505E+01   -2.494E+01   -2.484E+01   -2.475E+01   -2.467E+01   -2.460E+01
    -2.454E+01   -2.449E+01   -2.445E+01   -2.441E+01   -2.439E+01   -2.437E+01   -2.436E+01   -2.436E+01   -2.436E+01   -2.438E+01
    -2.440E+01   -2.443E+01   -2.446E+01   -2.451E+01   -2.456E+01   -2.461E+01   -2.467E+01   -2.474E+01   -2.482E+01   -2.490E+01
    -2.498E+01   -2.507E+01   -2.517E+01   -2.527E+01   -2.537E+01   -2.548E+01   -2.559E+01   -2.571E+01   -2.583E+01   -2.595E+01
    -2.608E+01   -2.621E+01   -2.634E+01   -2.647E+01   -2.661E+01   -2.675E+01   -2.688E+01   -2.703E+01   -2.717E+01   -2.731E+01
    -2.745E+01   -2.760E+01   -2.774E+01   -2.789E+01   -2.804E+01   -2.818E+01   -2.833E+01   -2.848E+01   -2.863E+01   -2.878E+01
    -2.893E+01   -2.908E+01   -2.923E+01   -2.938E+01   -2.953E+01   -2.968E+01   -2.983E+01   -2.999E+01   -3.014E+01   -3.029E+01
    -3.044E+01   -3.060E+01   -3.075E+01   -3.090E+01   -3.106E+01   -3.121E+01   -3.136E+01   -3.152E+01   -3.167E+01   -3.182E+01
 Mac      Conc. = 2.65E-04
  -1.11158E+02 -1.10936E+02 -1.10613E+02 -1.10358E+02 -1.10250E+02 -1.10781E+02 -1.12168E+02 -1.13776E+02 -1.15405E+02 -1.16279E+02
  -1.16244E+02 -1.15771E+02 -1.15028E+02 -1.15191E+02 -1.17073E+02 -1.19541E+02 -1.21589E+02 -1.19112E+02 -1.13390E+02 -1.09503E+02
  -1.05630E+02 -1.00994E+02 -9.75908E+01 -9.60632E+01 -9.49399E+01 -9.33704E+01 -9.16842E+01 -8.96012E+01 -8.69588E+01 -8.46140E+01
  -8.30320E+01 -8.13037E+01 -7.98564E+01 -7.94954E+01 -8.00489E+01 -8.05019E+01 -7.93310E+01 -7.63739E+01 -7.28811E+01 -7.10853E+01
  -7.13983E+01 -7.13482E+01 -7.06307E+01 -6.88452E+01 -6.66438E+01 -6.51249E+01 -6.44459E+01 -6.44205E+01 -6.47714E+01 -6.59265E+01
  -6.69337E+01 -6.74170E+01 -6.81407E+01 -6.86135E+01 -6.87221E+01 -6.87506E+01 -6.81341E+01 -6.63934E+01 -6.47291E+01 -6.36369E+01
  -6.13002E+01 -5.91762E+01 -5.84794E+01 -5.84478E+01 -5.90403E+01 -5.96456E+01 -5.98763E+01 -6.02055E+01 -6.08676E+01 -6.12503E+01
  -5.96148E+01 -5.59544E+01 -5.33527E+01 -5.11063E+01 -4.95520E+01 -4.90893E+01 -4.89264E+01 -4.95048E+01 -5.02098E+01 -5.04780E+01
  -5.07354E+01 -5.11451E+01 -5.10976E+01 -5.03220E+01 -4.91537E+01 -4.83182E+01 -4.73554E+01 -4.60968E+01 -4.53536E+01 -4.46651E+01
  -4.37950E+01 -4.30161E+01 -4.24813E+01 -4.17489E+01 -4.19602E+01 -4.33446E+01 -4.53953E+01 -4.76117E+01 -4.99175E+01 -5.14255E+01
  -5.23085E+01 -5.38763E+01 -5.55075E+01 -5.77868E+01 -6.14158E+01 -6.72339E+01 -7.50596E+01 -8.17919E+01 -8.57288E+01 -8.66735E+01
