 LCModel (Version 6.3-1N) Copyright: S.W. Provencher.          Ref.: Magn. Reson. Med. 30:672-679 (1993).                
 Slice_N1@22_23  28-Feb-2025 11:44:02
 27 lines in following concentration table = NCONC+1
    Conc.  %SD /Cr+PCr  Metabolite                                         
 2.07E-04  14% 1.0E-04 Mac                                                 
   16.228  13%   8.000 Cr                                                  
    0.000 999%   0.000 PCr                                                 
    0.000 999%   0.000 Ins                                                 
    0.000 999%   0.000 NAA                                                 
    0.000 999%   0.000 Tau                                                 
    0.000 999%   0.000 PCho                                                
    4.044  16%   1.994 GPC                                                 
    9.995  26%   4.927 Glu                                                 
    7.002  33%   3.452 Gln                                                 
    0.462 488%   0.228 Ala                                                 
    0.000 999%   0.000 Asc                                                 
   20.847  15%  10.277+Asp                                                 
    0.000 999%   0.000 GABA                                                
    2.158  88%   1.064 Glc                                                 
    5.242  31%   2.584 GSH                                                 
    4.878  47%   2.405 Lac                                                 
    4.087  40%   2.015 NAAG                                                
    0.000 999%   0.000 PE                                                  
    4.044  16%   1.994 GPC+PCho                                            
    4.087  40%   2.015 NAA+NAAG                                            
   16.997  21%   8.379 Glu+Gln                                             
   16.228  13%   8.000 Cr+PCr                                              
    4.087  40%   2.015 NAA+NAAG                                            
   16.228  13%   8.000 Cr+PCr                                              
   16.997  21%   8.379 Glu+Gln                                             
   6 lines in following misc. output table
  FWHM = 0.098 ppm    S/N =   2                                            
  Data shift = 0.057 ppm                                                   
  Ph: -99 deg       0.0 deg/ppm                                            
  alphaB,S = 9.7E-02,   2.5E+02                                            
   19 spline knots.   Ns =10(1)                                            
  (11) 2 infls.   ( 7) 1 extrs.                                            
  480 points on ppm-axis = NY
      4.100000     4.091866     4.083733     4.075600     4.067466     4.059333     4.051199     4.043066     4.034933     4.026799
      4.018666     4.010532     4.002399     3.994265     3.986132     3.977998     3.969864     3.961731     3.953597     3.945463
      3.937330     3.929196     3.921062     3.912929     3.904795     3.896662     3.888528     3.880394     3.872261     3.864127
      3.855993     3.847860     3.839726     3.831592     3.823459     3.815325     3.807191     3.799058     3.790924     3.782790
      3.774657     3.766523     3.758389     3.750256     3.742122     3.733989     3.725855     3.717721     3.709588     3.701454
      3.693320     3.685187     3.677053     3.668919     3.660786     3.652652     3.644518     3.636385     3.628251     3.620117
      3.611984     3.603850     3.595716     3.587583     3.579449     3.571316     3.563182     3.555048     3.546915     3.538781
      3.530647     3.522514     3.514380     3.506246     3.498113     3.489979     3.481845     3.473712     3.465578     3.457444
      3.449311     3.441177     3.433043     3.424910     3.416776     3.408643     3.400509     3.392375     3.384242     3.376108
      3.367974     3.359841     3.351707     3.343573     3.335440     3.327306     3.319172     3.311039     3.302905     3.294771
      3.286638     3.278504     3.270370     3.262237     3.254103     3.245970     3.237836     3.229702     3.221569     3.213435
      3.205301     3.197168     3.189034     3.180900     3.172767     3.164633     3.156499     3.148366     3.140232     3.132098
      3.123965     3.115831     3.107697     3.099564     3.091430     3.083297     3.075163     3.067029     3.058896     3.050762
      3.042628     3.034495     3.026361     3.018227     3.010094     3.001960     2.993826     2.985693     2.977559     2.969425
      2.961292     2.953158     2.945024     2.936891     2.928757     2.920624     2.912490     2.904356     2.896223     2.888089
      2.879955     2.871822     2.863688     2.855554     2.847421     2.839287     2.831153     2.823020     2.814886     2.806752
      2.798619     2.790485     2.782351     2.774218     2.766084     2.757951     2.749817     2.741683     2.733550     2.725416
      2.717282     2.709149     2.701015     2.692881     2.684748     2.676614     2.668480     2.660347     2.652213     2.644079
      2.635946     2.627812     2.619678     2.611545     2.603411     2.595278     2.587144     2.579010     2.570877     2.562743
      2.554609     2.546476     2.538342     2.530208     2.522075     2.513941     2.505807     2.497674     2.489540     2.481406
      2.473273     2.465139     2.457006     2.448872     2.440738     2.432605     2.424471     2.416337     2.408204     2.400070
      2.391936     2.383803     2.375669     2.367535     2.359402     2.351268     2.343134     2.335001     2.326867     2.318733
      2.310600     2.302466     2.294333     2.286199     2.278065     2.269932     2.261798     2.253664     2.245531     2.237397
      2.229263     2.221130     2.212996     2.204862     2.196729     2.188595     2.180461     2.172328     2.164194     2.156060
      2.147927     2.139793     2.131660     2.123526     2.115392     2.107259     2.099125     2.090991     2.082858     2.074724
      2.066590     2.058457     2.050323     2.042189     2.034056     2.025922     2.017788     2.009655     2.001521     1.993387
      1.985254     1.977120     1.968987     1.960853     1.952719     1.944586     1.936452     1.928318     1.920185     1.912051
      1.903917     1.895784     1.887650     1.879516     1.871383     1.863249     1.855115     1.846982     1.838848     1.830714
      1.822581     1.814447     1.806314     1.798180     1.790046     1.781913     1.773779     1.765645     1.757512     1.749378
      1.741244     1.733111     1.724977     1.716843     1.708710     1.700576     1.692442     1.684309     1.676175     1.668041
      1.659908     1.651774     1.643641     1.635507     1.627373     1.619240     1.611106     1.602972     1.594839     1.586705
      1.578571     1.570438     1.562304     1.554170     1.546037     1.537903     1.529769     1.521636     1.513502     1.505368
      1.497235     1.489101     1.480968     1.472834     1.464700     1.456567     1.448433     1.440299     1.432166     1.424032
      1.415898     1.407765     1.399631     1.391497     1.383364     1.375230     1.367096     1.358963     1.350829     1.342695
      1.334562     1.326428     1.318295     1.310161     1.302027     1.293894     1.285760     1.277626     1.269493     1.261359
      1.253225     1.245092     1.236958     1.228824     1.220691     1.212557     1.204423     1.196290     1.188156     1.180022
      1.171889     1.163755     1.155622     1.147488     1.139354     1.131221     1.123087     1.114953     1.106820     1.098686
      1.090552     1.082419     1.074285     1.066151     1.058018     1.049884     1.041750     1.033617     1.025483     1.017349
      1.009216     1.001082     0.992949     0.984815     0.976681     0.968548     0.960414     0.952280     0.944147     0.936013
      0.927879     0.919746     0.911612     0.903478     0.895345     0.887211     0.879077     0.870944     0.862810     0.854676
      0.846543     0.838409     0.830276     0.822142     0.814008     0.805875     0.797741     0.789607     0.781474     0.773340
      0.765206     0.757073     0.748939     0.740805     0.732672     0.724538     0.716404     0.708271     0.700137     0.692003
      0.683870     0.675736     0.667603     0.659469     0.651335     0.643202     0.635068     0.626934     0.618801     0.610667
      0.602533     0.594400     0.586266     0.578132     0.569999     0.561865     0.553731     0.545598     0.537464     0.529330
      0.521197     0.513063     0.504930     0.496796     0.488662     0.480529     0.472395     0.464261     0.456128     0.447994
      0.439861     0.431727     0.423593     0.415460     0.407326     0.399192     0.391059     0.382925     0.374792     0.366658
      0.358524     0.350391     0.342257     0.334124     0.325990     0.317856     0.309723     0.301589     0.293455     0.285322
      0.277188     0.269055     0.260921     0.252787     0.244654     0.236520     0.228386     0.220253     0.212119     0.203986
 NY phased data points follow
   1.15123E+02  9.91554E+01  7.55644E+01  5.90264E+01  2.30423E+01 -1.63797E+01 -5.29491E+01 -8.08870E+01 -1.24220E+02 -1.51744E+02
  -1.78535E+02 -2.41181E+02 -2.65922E+02 -3.03933E+02 -3.22929E+02 -3.27770E+02 -3.16603E+02 -3.05130E+02 -3.14243E+02 -2.79054E+02
  -2.60778E+02 -2.52167E+02 -2.35349E+02 -2.00415E+02 -1.89174E+02 -1.74311E+02 -1.44266E+02 -1.49529E+02 -1.48528E+02 -1.53921E+02
  -1.47863E+02 -1.64486E+02 -1.75838E+02 -1.72542E+02 -1.74536E+02 -1.83750E+02 -1.88297E+02 -1.68718E+02 -2.16849E+02 -2.19698E+02
  -2.01215E+02 -2.25646E+02 -2.16811E+02 -2.22061E+02 -2.02532E+02 -1.81158E+02 -1.71097E+02 -1.64089E+02 -1.69892E+02 -1.61466E+02
  -1.71811E+02 -1.73146E+02 -1.68241E+02 -1.75248E+02 -1.70394E+02 -1.67849E+02 -1.80231E+02 -1.91543E+02 -1.81821E+02 -1.79807E+02
  -1.74684E+02 -1.76443E+02 -1.82005E+02 -1.53937E+02 -1.54816E+02 -1.44571E+02 -1.34265E+02 -1.52477E+02 -1.44350E+02 -1.58565E+02
  -1.57371E+02 -1.54919E+02 -1.59667E+02 -1.38406E+02 -1.38279E+02 -1.22914E+02 -1.17895E+02 -1.25396E+02 -1.20815E+02 -1.21630E+02
  -1.28957E+02 -1.46593E+02 -1.38529E+02 -1.46783E+02 -1.33984E+02 -1.11665E+02 -1.31519E+02 -1.19021E+02 -1.29361E+02 -1.23497E+02
  -1.06763E+02 -1.22438E+02 -1.13727E+02 -1.12579E+02 -1.09592E+02 -1.20244E+02 -1.22575E+02 -1.18215E+02 -1.22795E+02 -1.30883E+02
  -1.41421E+02 -1.27081E+02 -1.38533E+02 -1.61740E+02 -1.71679E+02 -1.54794E+02 -1.46785E+02 -1.70041E+02 -1.94681E+02 -1.93273E+02
  -1.68343E+02 -1.83188E+02 -1.76779E+02 -1.60726E+02 -1.54834E+02 -1.43087E+02 -1.40547E+02 -1.31567E+02 -1.31681E+02 -1.17695E+02
  -1.05714E+02 -1.06490E+02 -1.10800E+02 -1.04946E+02 -1.02144E+02 -1.08324E+02 -1.23708E+02 -1.21415E+02 -8.73933E+01 -8.84392E+01
  -9.38170E+01 -1.22090E+02 -1.50241E+02 -1.61180E+02 -1.66362E+02 -1.64208E+02 -1.82055E+02 -1.62353E+02 -1.67731E+02 -1.72056E+02
  -1.61123E+02 -1.63337E+02 -1.47045E+02 -1.55293E+02 -1.43070E+02 -1.37972E+02 -1.38711E+02 -1.17444E+02 -1.14795E+02 -1.24286E+02
  -1.21026E+02 -9.67050E+01 -9.75209E+01 -9.00408E+01 -8.44557E+01 -1.00237E+02 -9.04880E+01 -8.72557E+01 -9.10227E+01 -9.40168E+01
  -9.02103E+01 -8.65650E+01 -9.09047E+01 -8.85615E+01 -7.38317E+01 -6.28863E+01 -9.15771E+01 -9.30929E+01 -8.25539E+01 -8.31427E+01
  -6.33833E+01 -6.44103E+01 -6.90227E+01 -7.60629E+01 -6.06124E+01 -4.73877E+01 -7.26603E+01 -7.86919E+01 -7.17767E+01 -7.51887E+01
  -6.72600E+01 -8.18568E+01 -1.18317E+02 -1.00247E+02 -9.57838E+01 -1.02313E+02 -9.77199E+01 -9.51924E+01 -7.77539E+01 -9.28603E+01
  -9.12757E+01 -8.48481E+01 -7.66243E+01 -7.19373E+01 -8.06196E+01 -7.62350E+01 -8.14172E+01 -7.45541E+01 -7.72769E+01 -6.77684E+01
  -5.92175E+01 -6.17163E+01 -6.04211E+01 -6.13864E+01 -4.00259E+01 -4.86447E+01 -5.95025E+01 -6.10446E+01 -8.32440E+01 -7.61254E+01
  -5.98229E+01 -6.83726E+01 -6.32868E+01 -4.49460E+01 -4.19455E+01 -2.12592E+01 -8.38511E+00 -2.80595E+01 -2.89610E+01 -4.53964E+01
  -4.97789E+01 -4.27605E+01 -6.70180E+01 -5.24912E+01 -6.28259E+01 -8.26306E+01 -7.23686E+01 -6.73239E+01 -6.31024E+01 -7.35135E+01
  -6.78242E+01 -9.17609E+01 -9.97471E+01 -7.90505E+01 -7.81509E+01 -7.56118E+01 -8.60847E+01 -8.74790E+01 -8.82476E+01 -8.82495E+01
  -8.10043E+01 -6.78499E+01 -6.30559E+01 -4.65712E+01 -4.46145E+01 -5.18496E+01 -2.68124E+01 -3.74897E+01 -4.14193E+01 -3.09299E+01
  -2.62407E+01 -3.97852E+00  1.34171E+01 -2.54630E+01 -5.07266E+01 -9.74235E+00  6.54630E+00  2.97959E+01  5.01946E+01  6.18432E+01
   7.23730E+01  6.95639E+01  6.09929E+01  5.08169E+01  4.46589E+01  2.58815E+01  2.06038E+01  3.85017E+00  3.24290E+00 -6.36835E+00
  -1.45934E+01 -1.31528E+00 -1.44970E+01 -4.19518E+00 -1.60238E+01 -3.02096E+01 -1.96804E+01 -1.54929E+01 -2.36622E+01 -4.20310E+01
  -3.96310E+01 -3.69629E+01 -3.17879E+01 -2.85966E+01 -4.71718E+01 -6.29084E+01 -5.59901E+01 -5.91515E+01 -7.28969E+01 -7.85832E+01
  -7.03512E+01 -7.46974E+01 -9.52422E+01 -8.47191E+01 -8.45029E+01 -8.68627E+01 -7.75681E+01 -7.56403E+01 -6.91612E+01 -7.34418E+01
  -8.81126E+01 -8.78032E+01 -6.47597E+01 -5.04174E+01 -3.44312E+01 -1.44895E+01 -7.29763E+00  1.51249E+00  1.51152E+01  1.86197E+01
   1.65760E+01  2.74408E+01  3.48513E+01  2.82796E+01  1.29729E+01  1.44464E+01  1.65504E+01  2.09627E-02 -8.32684E+00 -1.36370E+01
  -2.17668E+01 -3.84233E+01 -3.04148E+01 -1.67067E+01 -3.03818E+01 -1.89424E+01 -1.85668E+01 -2.56229E+01 -1.85463E+01 -2.81198E+01
  -3.28230E+01 -4.35277E+01 -6.43086E+01 -9.29869E+01 -9.10289E+01 -8.73226E+01 -1.14100E+02 -9.68483E+01 -7.57675E+01 -8.03342E+01
  -8.72242E+01 -7.26292E+01 -6.57678E+01 -8.40544E+01 -6.81370E+01 -4.96231E+01 -5.29551E+01 -6.48285E+01 -6.59565E+01 -6.67588E+01
  -6.77010E+01 -6.11519E+01 -6.99196E+01 -6.46702E+01 -6.79072E+01 -8.81870E+01 -7.64668E+01 -7.30938E+01 -8.59885E+01 -7.52570E+01
  -8.58890E+01 -8.79485E+01 -7.26377E+01 -7.80537E+01 -6.30690E+01 -6.00118E+01 -6.79692E+01 -5.02562E+01 -4.55342E+01 -5.18492E+01
  -3.33453E+01 -3.19861E+01 -2.89753E+01 -1.98607E+01 -3.65500E+01 -1.89235E+01 -1.75605E+01 -2.28770E+01 -1.15468E+01 -2.71228E+01
  -3.03838E+01 -2.19034E+01 -2.44251E+01 -2.95193E+01 -1.84770E+01 -1.03328E+01 -6.01374E+00 -1.42214E+01 -1.80170E+01 -1.70549E+01
  -2.78494E+01 -1.48756E+01 -2.44618E+01 -4.28818E+01 -5.03899E+01 -4.83630E+01 -3.80501E+01 -6.73511E+01 -8.31341E+01 -7.39724E+01
  -8.00620E+01 -8.40618E+01 -8.17625E+01 -7.46648E+01 -8.01108E+01 -9.25219E+01 -9.02823E+01 -8.78334E+01 -7.97984E+01 -9.49805E+01
  -1.04938E+02 -8.19691E+01 -7.90380E+01 -9.05407E+01 -9.49692E+01 -8.15845E+01 -9.26472E+01 -8.98429E+01 -6.78514E+01 -6.51812E+01
  -6.93661E+01 -8.88505E+01 -7.42565E+01 -6.79063E+01 -6.76707E+01 -8.02280E+01 -7.87688E+01 -6.09932E+01 -8.25534E+01 -5.70549E+01
  -5.32678E+01 -5.84243E+01 -5.98176E+01 -6.10355E+01 -3.70970E+01 -4.32657E+01 -3.51881E+01 -5.28641E+01 -5.79036E+01 -4.12371E+01
  -3.68388E+01 -2.95062E+01 -4.12498E+01 -3.83515E+01 -2.49387E+01 -1.72703E+01 -2.32991E+01 -3.41050E+01 -2.67157E+01 -5.01003E+00
  -2.35074E+01 -2.60136E+01 -1.46070E+01 -2.82966E+01 -2.50510E+01 -2.98992E+01 -7.46425E+00 -1.74553E+01 -1.87196E+01 -7.15085E+00
  -2.25445E+01 -1.67745E+01 -3.33600E+01 -2.25395E+01 -1.04866E+01 -4.80973E+00 -3.39505E+01 -3.17799E+01  3.05729E+00 -2.97686E+01
  -1.83638E+01 -8.66685E+00 -1.14943E+01 -1.02093E+01 -1.31745E+01 -2.02749E+01 -2.42204E+01 -1.36706E+01 -2.24331E+01 -1.69888E+01
 NY points of the fit to the data follow
  -6.69988E+01 -7.19752E+01 -7.75537E+01 -8.37925E+01 -9.07081E+01 -9.82281E+01 -1.06263E+02 -1.14717E+02 -1.23687E+02 -1.33596E+02
  -1.45239E+02 -1.60449E+02 -1.80348E+02 -2.00327E+02 -2.16973E+02 -2.29190E+02 -2.36884E+02 -2.40040E+02 -2.39281E+02 -2.35202E+02
  -2.28100E+02 -2.18246E+02 -2.06086E+02 -1.92411E+02 -1.78232E+02 -1.64611E+02 -1.52534E+02 -1.42832E+02 -1.36213E+02 -1.33190E+02
  -1.34319E+02 -1.40355E+02 -1.49424E+02 -1.59982E+02 -1.70351E+02 -1.79196E+02 -1.86122E+02 -1.91201E+02 -1.94534E+02 -1.96192E+02
  -1.96182E+02 -1.94580E+02 -1.91879E+02 -1.88883E+02 -1.86305E+02 -1.84331E+02 -1.82710E+02 -1.81240E+02 -1.79967E+02 -1.78969E+02
  -1.78287E+02 -1.77787E+02 -1.77365E+02 -1.76880E+02 -1.76027E+02 -1.74741E+02 -1.73040E+02 -1.71034E+02 -1.68814E+02 -1.66512E+02
  -1.64258E+02 -1.62119E+02 -1.60106E+02 -1.58240E+02 -1.56589E+02 -1.55166E+02 -1.53969E+02 -1.53007E+02 -1.52222E+02 -1.51623E+02
  -1.51264E+02 -1.51079E+02 -1.50998E+02 -1.50901E+02 -1.50724E+02 -1.50467E+02 -1.50142E+02 -1.49744E+02 -1.49290E+02 -1.48729E+02
  -1.48005E+02 -1.47087E+02 -1.45972E+02 -1.44680E+02 -1.43250E+02 -1.41726E+02 -1.40136E+02 -1.38464E+02 -1.36686E+02 -1.34789E+02
  -1.32751E+02 -1.30554E+02 -1.28179E+02 -1.25590E+02 -1.22738E+02 -1.19455E+02 -1.15301E+02 -1.09582E+02 -1.01645E+02 -9.66279E+01
  -9.75144E+01 -1.03880E+02 -1.13810E+02 -1.25183E+02 -1.36465E+02 -1.47091E+02 -1.57192E+02 -1.66914E+02 -1.75956E+02 -1.83580E+02
  -1.88946E+02 -1.91413E+02 -1.90666E+02 -1.86783E+02 -1.80162E+02 -1.71453E+02 -1.61369E+02 -1.50279E+02 -1.37968E+02 -1.23416E+02
  -1.04288E+02 -8.25746E+01 -6.53205E+01 -5.55962E+01 -5.33378E+01 -5.67793E+01 -6.37282E+01 -7.26106E+01 -8.28142E+01 -9.42726E+01
  -1.07105E+02 -1.20869E+02 -1.34673E+02 -1.47552E+02 -1.58419E+02 -1.66720E+02 -1.72255E+02 -1.75306E+02 -1.76427E+02 -1.76229E+02
  -1.75075E+02 -1.73030E+02 -1.69981E+02 -1.66186E+02 -1.61755E+02 -1.56499E+02 -1.50905E+02 -1.45490E+02 -1.40319E+02 -1.34604E+02
  -1.27651E+02 -1.19786E+02 -1.12335E+02 -1.06262E+02 -1.01972E+02 -9.93565E+01 -9.79212E+01 -9.72660E+01 -9.71896E+01 -9.76208E+01
  -9.80349E+01 -9.74993E+01 -9.62443E+01 -9.41493E+01 -9.12534E+01 -8.80976E+01 -8.46203E+01 -8.11324E+01 -7.79018E+01 -7.47593E+01
  -7.20518E+01 -7.01421E+01 -6.92900E+01 -6.96308E+01 -7.10925E+01 -7.34011E+01 -7.62045E+01 -7.92487E+01 -8.23370E+01 -8.52573E+01
  -8.79172E+01 -8.98899E+01 -9.09660E+01 -9.11614E+01 -9.03605E+01 -8.87465E+01 -8.65529E+01 -8.41110E+01 -8.16852E+01 -7.94468E+01
  -7.74856E+01 -7.57761E+01 -7.43168E+01 -7.28754E+01 -7.11958E+01 -6.93130E+01 -6.72126E+01 -6.50587E+01 -6.31124E+01 -6.15619E+01
  -6.05330E+01 -6.00454E+01 -6.02029E+01 -6.10288E+01 -6.22385E+01 -6.38142E+01 -6.49828E+01 -6.51031E+01 -6.41159E+01 -6.16673E+01
  -5.80270E+01 -5.36483E+01 -4.89027E+01 -4.40615E+01 -3.93288E+01 -3.49326E+01 -3.11584E+01 -2.83720E+01 -2.68840E+01 -2.69448E+01
  -2.86796E+01 -3.20939E+01 -3.71239E+01 -4.34350E+01 -5.07871E+01 -5.89323E+01 -6.73253E+01 -7.57370E+01 -8.39693E+01 -9.14507E+01
  -9.80462E+01 -1.03416E+02 -1.07099E+02 -1.09022E+02 -1.08973E+02 -1.07012E+02 -1.03466E+02 -9.86150E+01 -9.28461E+01 -8.66394E+01
  -8.04018E+01 -7.44940E+01 -6.97385E+01 -6.61428E+01 -6.21680E+01 -5.69731E+01 -5.05415E+01 -4.32638E+01 -3.56574E+01 -2.81725E+01
  -2.09531E+01 -1.39112E+01 -7.04658E+00 -4.55134E-01  5.62264E+00  1.08560E+01  1.49875E+01  1.78213E+01  1.93185E+01  1.95893E+01
   1.88546E+01  1.73527E+01  1.52807E+01  1.28083E+01  1.00152E+01  7.13894E+00  4.44060E+00  1.98807E+00 -2.11332E-01 -2.16528E+00
  -3.88439E+00 -5.39996E+00 -6.76236E+00 -8.01525E+00 -9.21467E+00 -1.04075E+01 -1.16414E+01 -1.29764E+01 -1.44564E+01 -1.61160E+01
  -1.79836E+01 -2.00701E+01 -2.23471E+01 -2.47558E+01 -2.72065E+01 -2.96035E+01 -3.18660E+01 -3.39289E+01 -3.57319E+01 -3.72265E+01
  -3.83763E+01 -3.91583E+01 -3.95651E+01 -3.96148E+01 -3.93389E+01 -3.87601E+01 -3.79073E+01 -3.68211E+01 -3.55471E+01 -3.41379E+01
  -3.26314E+01 -3.10579E+01 -2.94521E+01 -2.78503E+01 -2.62748E+01 -2.47687E+01 -2.33805E+01 -2.21445E+01 -2.10817E+01 -2.02292E+01
  -1.96074E+01 -1.92366E+01 -1.91437E+01 -1.94532E+01 -2.02382E+01 -2.16305E+01 -2.36636E+01 -2.62842E+01 -2.94063E+01 -3.29258E+01
  -3.67231E+01 -4.06472E+01 -4.45170E+01 -4.81203E+01 -5.12664E+01 -5.37898E+01 -5.55593E+01 -5.64687E+01 -5.63604E+01 -5.50238E+01
  -5.31675E+01 -5.13541E+01 -5.02055E+01 -5.03484E+01 -5.16495E+01 -5.36940E+01 -5.60928E+01 -5.86596E+01 -6.13605E+01 -6.42291E+01
  -6.72729E+01 -7.04028E+01 -7.34447E+01 -7.61875E+01 -7.84731E+01 -8.02295E+01 -8.14753E+01 -8.22945E+01 -8.27723E+01 -8.29695E+01
  -8.28847E+01 -8.25094E+01 -8.19036E+01 -8.10640E+01 -8.00281E+01 -7.88278E+01 -7.74297E+01 -7.58299E+01 -7.40503E+01 -7.21188E+01
  -7.00608E+01 -6.79110E+01 -6.56784E+01 -6.33646E+01 -6.09657E+01 -5.84613E+01 -5.58072E+01 -5.29761E+01 -4.99409E+01 -4.66633E+01
  -4.30969E+01 -3.92198E+01 -3.50301E+01 -3.05769E+01 -2.59630E+01 -2.13804E+01 -1.70712E+01 -1.32877E+01 -1.02181E+01 -7.97392E+00
  -6.61590E+00 -6.13765E+00 -6.51046E+00 -7.70811E+00 -9.72346E+00 -1.25142E+01 -1.60149E+01 -2.01330E+01 -2.47241E+01 -2.96189E+01
  -3.46633E+01 -3.97211E+01 -4.46800E+01 -4.94389E+01 -5.39218E+01 -5.80658E+01 -6.18259E+01 -6.51780E+01 -6.81047E+01 -7.05999E+01
  -7.26636E+01 -7.43234E+01 -7.56068E+01 -7.65422E+01 -7.71653E+01 -7.75328E+01 -7.76946E+01 -7.76666E+01 -7.74801E+01 -7.71646E+01
  -7.67439E+01 -7.62316E+01 -7.56428E+01 -7.49917E+01 -7.42910E+01 -7.35446E+01 -7.27436E+01 -7.18904E+01 -7.09906E+01 -7.00545E+01
  -6.90892E+01 -6.81079E+01 -6.71057E+01 -6.60776E+01 -6.50240E+01 -6.39393E+01 -6.28277E+01 -6.16937E+01 -6.05409E+01 -5.93643E+01
  -5.81685E+01 -5.69591E+01 -5.57491E+01 -5.45397E+01 -5.33243E+01 -5.21053E+01 -5.08822E+01 -4.96503E+01 -4.84210E+01 -4.72032E+01
  -4.59933E+01 -4.47844E+01 -4.35766E+01 -4.23620E+01 -4.11462E+01 -3.99290E+01 -3.87168E+01 -3.75042E+01 -3.63013E+01 -3.51107E+01
  -3.39401E+01 -3.27940E+01 -3.16730E+01 -3.05785E+01 -2.95010E+01 -2.84276E+01 -2.73527E+01 -2.62841E+01 -2.52350E+01 -2.42162E+01
  -2.32311E+01 -2.22686E+01 -2.13262E+01 -2.04056E+01 -1.95030E+01 -1.86257E+01 -1.77901E+01 -1.69932E+01 -1.62313E+01 -1.54986E+01
  -1.47784E+01 -1.40588E+01 -1.33326E+01 -1.25989E+01 -1.18608E+01 -1.11187E+01 -1.03773E+01 -9.64885E+00 -8.93105E+00 -8.21302E+00
 NY background values follow
    -4.689E+01   -5.092E+01   -5.492E+01   -5.891E+01   -6.288E+01   -6.682E+01   -7.074E+01   -7.462E+01   -7.848E+01   -8.230E+01
    -8.608E+01   -8.983E+01   -9.353E+01   -9.719E+01   -1.008E+02   -1.044E+02   -1.079E+02   -1.113E+02   -1.147E+02   -1.180E+02
    -1.213E+02   -1.245E+02   -1.277E+02   -1.307E+02   -1.337E+02   -1.366E+02   -1.395E+02   -1.422E+02   -1.449E+02   -1.475E+02
    -1.500E+02   -1.524E+02   -1.547E+02   -1.569E+02   -1.590E+02   -1.611E+02   -1.630E+02   -1.649E+02   -1.667E+02   -1.685E+02
    -1.701E+02   -1.717E+02   -1.732E+02   -1.746E+02   -1.759E+02   -1.772E+02   -1.784E+02   -1.796E+02   -1.807E+02   -1.817E+02
    -1.826E+02   -1.835E+02   -1.843E+02   -1.851E+02   -1.858E+02   -1.865E+02   -1.871E+02   -1.877E+02   -1.882E+02   -1.886E+02
    -1.890E+02   -1.894E+02   -1.897E+02   -1.900E+02   -1.902E+02   -1.904E+02   -1.906E+02   -1.907E+02   -1.908E+02   -1.908E+02
    -1.908E+02   -1.907E+02   -1.906E+02   -1.905E+02   -1.904E+02   -1.902E+02   -1.899E+02   -1.897E+02   -1.894E+02   -1.890E+02
    -1.887E+02   -1.883E+02   -1.879E+02   -1.874E+02   -1.869E+02   -1.864E+02   -1.859E+02   -1.853E+02   -1.847E+02   -1.841E+02
    -1.835E+02   -1.828E+02   -1.821E+02   -1.814E+02   -1.807E+02   -1.799E+02   -1.791E+02   -1.783E+02   -1.775E+02   -1.766E+02
    -1.757E+02   -1.748E+02   -1.738E+02   -1.729E+02   -1.719E+02   -1.709E+02   -1.698E+02   -1.687E+02   -1.676E+02   -1.665E+02
    -1.653E+02   -1.641E+02   -1.629E+02   -1.617E+02   -1.604E+02   -1.591E+02   -1.578E+02   -1.564E+02   -1.550E+02   -1.536E+02
    -1.522E+02   -1.507E+02   -1.492E+02   -1.477E+02   -1.461E+02   -1.445E+02   -1.429E+02   -1.413E+02   -1.397E+02   -1.380E+02
    -1.364E+02   -1.347E+02   -1.330E+02   -1.313E+02   -1.296E+02   -1.279E+02   -1.262E+02   -1.245E+02   -1.228E+02   -1.211E+02
    -1.193E+02   -1.176E+02   -1.159E+02   -1.143E+02   -1.126E+02   -1.109E+02   -1.093E+02   -1.076E+02   -1.060E+02   -1.044E+02
    -1.028E+02   -1.013E+02   -9.973E+01   -9.822E+01   -9.672E+01   -9.525E+01   -9.380E+01   -9.237E+01   -9.096E+01   -8.958E+01
    -8.821E+01   -8.686E+01   -8.554E+01   -8.423E+01   -8.294E+01   -8.168E+01   -8.043E+01   -7.921E+01   -7.800E+01   -7.682E+01
    -7.565E+01   -7.450E+01   -7.338E+01   -7.227E+01   -7.118E+01   -7.011E+01   -6.906E+01   -6.802E+01   -6.701E+01   -6.602E+01
    -6.504E+01   -6.408E+01   -6.314E+01   -6.222E+01   -6.131E+01   -6.042E+01   -5.955E+01   -5.870E+01   -5.787E+01   -5.705E+01
    -5.625E+01   -5.546E+01   -5.470E+01   -5.394E+01   -5.321E+01   -5.249E+01   -5.179E+01   -5.110E+01   -5.043E+01   -4.978E+01
    -4.914E+01   -4.851E+01   -4.790E+01   -4.731E+01   -4.673E+01   -4.617E+01   -4.562E+01   -4.508E+01   -4.456E+01   -4.405E+01
    -4.356E+01   -4.308E+01   -4.262E+01   -4.217E+01   -4.174E+01   -4.133E+01   -4.093E+01   -4.056E+01   -4.020E+01   -3.986E+01
    -3.955E+01   -3.926E+01   -3.899E+01   -3.874E+01   -3.852E+01   -3.833E+01   -3.816E+01   -3.802E+01   -3.790E+01   -3.782E+01
    -3.776E+01   -3.773E+01   -3.774E+01   -3.778E+01   -3.785E+01   -3.795E+01   -3.808E+01   -3.826E+01   -3.846E+01   -3.871E+01
    -3.899E+01   -3.931E+01   -3.966E+01   -4.005E+01   -4.047E+01   -4.092E+01   -4.140E+01   -4.191E+01   -4.244E+01   -4.300E+01
    -4.359E+01   -4.419E+01   -4.482E+01   -4.547E+01   -4.613E+01   -4.681E+01   -4.751E+01   -4.821E+01   -4.894E+01   -4.967E+01
    -5.041E+01   -5.115E+01   -5.191E+01   -5.267E+01   -5.343E+01   -5.419E+01   -5.495E+01   -5.571E+01   -5.647E+01   -5.723E+01
    -5.798E+01   -5.872E+01   -5.945E+01   -6.018E+01   -6.089E+01   -6.160E+01   -6.229E+01   -6.298E+01   -6.365E+01   -6.430E+01
    -6.495E+01   -6.557E+01   -6.618E+01   -6.678E+01   -6.736E+01   -6.791E+01   -6.845E+01   -6.897E+01   -6.947E+01   -6.995E+01
    -7.040E+01   -7.083E+01   -7.124E+01   -7.162E+01   -7.197E+01   -7.230E+01   -7.260E+01   -7.288E+01   -7.312E+01   -7.333E+01
    -7.351E+01   -7.367E+01   -7.379E+01   -7.389E+01   -7.396E+01   -7.401E+01   -7.404E+01   -7.405E+01   -7.404E+01   -7.401E+01
    -7.397E+01   -7.392E+01   -7.385E+01   -7.378E+01   -7.369E+01   -7.361E+01   -7.351E+01   -7.342E+01   -7.332E+01   -7.323E+01
    -7.314E+01   -7.305E+01   -7.297E+01   -7.289E+01   -7.283E+01   -7.278E+01   -7.274E+01   -7.271E+01   -7.270E+01   -7.271E+01
    -7.274E+01   -7.279E+01   -7.285E+01   -7.294E+01   -7.304E+01   -7.316E+01   -7.329E+01   -7.343E+01   -7.359E+01   -7.376E+01
    -7.394E+01   -7.413E+01   -7.433E+01   -7.453E+01   -7.474E+01   -7.496E+01   -7.518E+01   -7.541E+01   -7.564E+01   -7.587E+01
    -7.610E+01   -7.633E+01   -7.655E+01   -7.678E+01   -7.700E+01   -7.722E+01   -7.743E+01   -7.764E+01   -7.783E+01   -7.802E+01
    -7.820E+01   -7.837E+01   -7.853E+01   -7.868E+01   -7.882E+01   -7.894E+01   -7.905E+01   -7.915E+01   -7.924E+01   -7.932E+01
    -7.938E+01   -7.943E+01   -7.946E+01   -7.948E+01   -7.948E+01   -7.947E+01   -7.944E+01   -7.940E+01   -7.934E+01   -7.926E+01
    -7.917E+01   -7.906E+01   -7.893E+01   -7.878E+01   -7.861E+01   -7.843E+01   -7.822E+01   -7.800E+01   -7.775E+01   -7.749E+01
    -7.720E+01   -7.689E+01   -7.656E+01   -7.621E+01   -7.584E+01   -7.545E+01   -7.503E+01   -7.460E+01   -7.414E+01   -7.365E+01
    -7.315E+01   -7.262E+01   -7.207E+01   -7.150E+01   -7.091E+01   -7.029E+01   -6.965E+01   -6.898E+01   -6.829E+01   -6.758E+01
    -6.685E+01   -6.609E+01   -6.530E+01   -6.450E+01   -6.366E+01   -6.281E+01   -6.193E+01   -6.102E+01   -6.009E+01   -5.913E+01
    -5.815E+01   -5.715E+01   -5.612E+01   -5.507E+01   -5.400E+01   -5.291E+01   -5.180E+01   -5.067E+01   -4.953E+01   -4.837E+01
    -4.720E+01   -4.601E+01   -4.482E+01   -4.361E+01   -4.240E+01   -4.117E+01   -3.994E+01   -3.870E+01   -3.746E+01   -3.621E+01
    -3.496E+01   -3.371E+01   -3.246E+01   -3.121E+01   -2.996E+01   -2.872E+01   -2.748E+01   -2.624E+01   -2.501E+01   -2.379E+01
    -2.258E+01   -2.137E+01   -2.018E+01   -1.899E+01   -1.781E+01   -1.663E+01   -1.547E+01   -1.431E+01   -1.315E+01   -1.201E+01
    -1.087E+01   -9.729E+00   -8.598E+00   -7.472E+00   -6.350E+00   -5.232E+00   -4.118E+00   -3.008E+00   -1.901E+00   -7.966E-01
     3.050E-01    1.404E+00    2.501E+00    3.597E+00    4.691E+00    5.784E+00    6.877E+00    7.969E+00    9.060E+00    1.015E+01
 Mac      Conc. = 2.07E-04
  -6.35299E+01 -6.82441E+01 -7.29665E+01 -7.77317E+01 -8.25406E+01 -8.72834E+01 -9.18516E+01 -9.61835E+01 -1.00227E+02 -1.03955E+02
  -1.07386E+02 -1.10559E+02 -1.13503E+02 -1.16233E+02 -1.18763E+02 -1.21101E+02 -1.23262E+02 -1.25288E+02 -1.27222E+02 -1.29109E+02
  -1.30979E+02 -1.32866E+02 -1.34798E+02 -1.36792E+02 -1.38828E+02 -1.40856E+02 -1.42826E+02 -1.44724E+02 -1.46579E+02 -1.48409E+02
  -1.50210E+02 -1.51948E+02 -1.53591E+02 -1.55129E+02 -1.56575E+02 -1.57961E+02 -1.59322E+02 -1.60696E+02 -1.62105E+02 -1.63557E+02
  -1.65047E+02 -1.66566E+02 -1.68107E+02 -1.69669E+02 -1.71228E+02 -1.72737E+02 -1.74169E+02 -1.75489E+02 -1.76654E+02 -1.77652E+02
  -1.78497E+02 -1.79207E+02 -1.79821E+02 -1.80360E+02 -1.80842E+02 -1.81280E+02 -1.81705E+02 -1.82126E+02 -1.82510E+02 -1.82816E+02
  -1.83019E+02 -1.83109E+02 -1.83092E+02 -1.82983E+02 -1.82804E+02 -1.82575E+02 -1.82306E+02 -1.82005E+02 -1.81689E+02 -1.81378E+02
  -1.81082E+02 -1.80795E+02 -1.80518E+02 -1.80236E+02 -1.79934E+02 -1.79591E+02 -1.79198E+02 -1.78742E+02 -1.78221E+02 -1.77626E+02
  -1.76961E+02 -1.76225E+02 -1.75455E+02 -1.74691E+02 -1.73978E+02 -1.73360E+02 -1.72869E+02 -1.72506E+02 -1.72264E+02 -1.72151E+02
  -1.72179E+02 -1.72362E+02 -1.72730E+02 -1.73338E+02 -1.74243E+02 -1.75451E+02 -1.76898E+02 -1.78484E+02 -1.80093E+02 -1.81610E+02
  -1.82938E+02 -1.84016E+02 -1.84792E+02 -1.85226E+02 -1.85272E+02 -1.84896E+02 -1.84087E+02 -1.82858E+02 -1.81237E+02 -1.79261E+02
