 LCModel (Version 6.3-1N) Copyright: S.W. Provencher.          Ref.: Magn. Reson. Med. 30:672-679 (1993).                
 Slice_N1@15_14  28-Feb-2025 11:40:30
 27 lines in following concentration table = NCONC+1
    Conc.  %SD /Cr+PCr  Metabolite                                         
 2.61E-04   7% 1.9E-04 Mac                                                 
    2.865  86%   2.041 Cr                                                  
    8.366  30%   5.959 PCr                                                 
   11.157  13%   7.948 Ins                                                 
   14.050   9%  10.009 NAA                                                 
    7.584  19%   5.403 Tau                                                 
    0.000 999%   0.000 PCho                                                
    2.974  12%   2.119 GPC                                                 
    8.937  17%   6.367 Glu                                                 
    4.909  26%   3.497 Gln                                                 
   12.486  10%   8.894 Ala                                                 
    3.532  54%   2.516 Asc                                                 
    3.282  54%   2.338 Asp                                                 
    1.398  65%   0.996 GABA                                                
    2.309  54%   1.645 Glc                                                 
    2.027  38%   1.444 GSH                                                 
    0.000 999%   0.000 Lac                                                 
    2.852  36%   2.031 NAAG                                                
    0.000 999%   0.000 PE                                                  
    2.974  12%   2.119 GPC+PCho                                            
   16.902   7%  12.040 NAA+NAAG                                            
   13.847  14%   9.864 Glu+Gln                                             
   11.230   9%   8.000 Cr+PCr                                              
   16.902   7%  12.040 NAA+NAAG                                            
   11.230   9%   8.000 Cr+PCr                                              
   13.847  14%   9.864 Glu+Gln                                             
   6 lines in following misc. output table
  FWHM = 0.024 ppm    S/N =   3                                            
  Data shift = 0.024 ppm                                                   
  Ph:-134 deg       0.0 deg/ppm                                            
  alphaB,S = 9.4E-02,   2.1E+01                                            
   19 spline knots.   Ns = 5(1)                                            
  ( 5) 4 infls.   ( 5) 3 extrs.                                            
  480 points on ppm-axis = NY
      4.100000     4.091866     4.083733     4.075600     4.067466     4.059333     4.051199     4.043066     4.034933     4.026799
      4.018666     4.010532     4.002399     3.994265     3.986132     3.977998     3.969864     3.961731     3.953597     3.945463
      3.937330     3.929196     3.921062     3.912929     3.904795     3.896662     3.888528     3.880394     3.872261     3.864127
      3.855993     3.847860     3.839726     3.831592     3.823459     3.815325     3.807191     3.799058     3.790924     3.782790
      3.774657     3.766523     3.758389     3.750256     3.742122     3.733989     3.725855     3.717721     3.709588     3.701454
      3.693320     3.685187     3.677053     3.668919     3.660786     3.652652     3.644518     3.636385     3.628251     3.620117
      3.611984     3.603850     3.595716     3.587583     3.579449     3.571316     3.563182     3.555048     3.546915     3.538781
      3.530647     3.522514     3.514380     3.506246     3.498113     3.489979     3.481845     3.473712     3.465578     3.457444
      3.449311     3.441177     3.433043     3.424910     3.416776     3.408643     3.400509     3.392375     3.384242     3.376108
      3.367974     3.359841     3.351707     3.343573     3.335440     3.327306     3.319172     3.311039     3.302905     3.294771
      3.286638     3.278504     3.270370     3.262237     3.254103     3.245970     3.237836     3.229702     3.221569     3.213435
      3.205301     3.197168     3.189034     3.180900     3.172767     3.164633     3.156499     3.148366     3.140232     3.132098
      3.123965     3.115831     3.107697     3.099564     3.091430     3.083297     3.075163     3.067029     3.058896     3.050762
      3.042628     3.034495     3.026361     3.018227     3.010094     3.001960     2.993826     2.985693     2.977559     2.969425
      2.961292     2.953158     2.945024     2.936891     2.928757     2.920624     2.912490     2.904356     2.896223     2.888089
      2.879955     2.871822     2.863688     2.855554     2.847421     2.839287     2.831153     2.823020     2.814886     2.806752
      2.798619     2.790485     2.782351     2.774218     2.766084     2.757951     2.749817     2.741683     2.733550     2.725416
      2.717282     2.709149     2.701015     2.692881     2.684748     2.676614     2.668480     2.660347     2.652213     2.644079
      2.635946     2.627812     2.619678     2.611545     2.603411     2.595278     2.587144     2.579010     2.570877     2.562743
      2.554609     2.546476     2.538342     2.530208     2.522075     2.513941     2.505807     2.497674     2.489540     2.481406
      2.473273     2.465139     2.457006     2.448872     2.440738     2.432605     2.424471     2.416337     2.408204     2.400070
      2.391936     2.383803     2.375669     2.367535     2.359402     2.351268     2.343134     2.335001     2.326867     2.318733
      2.310600     2.302466     2.294333     2.286199     2.278065     2.269932     2.261798     2.253664     2.245531     2.237397
      2.229263     2.221130     2.212996     2.204862     2.196729     2.188595     2.180461     2.172328     2.164194     2.156060
      2.147927     2.139793     2.131660     2.123526     2.115392     2.107259     2.099125     2.090991     2.082858     2.074724
      2.066590     2.058457     2.050323     2.042189     2.034056     2.025922     2.017788     2.009655     2.001521     1.993387
      1.985254     1.977120     1.968987     1.960853     1.952719     1.944586     1.936452     1.928318     1.920185     1.912051
      1.903917     1.895784     1.887650     1.879516     1.871383     1.863249     1.855115     1.846982     1.838848     1.830714
      1.822581     1.814447     1.806314     1.798180     1.790046     1.781913     1.773779     1.765645     1.757512     1.749378
      1.741244     1.733111     1.724977     1.716843     1.708710     1.700576     1.692442     1.684309     1.676175     1.668041
      1.659908     1.651774     1.643641     1.635507     1.627373     1.619240     1.611106     1.602972     1.594839     1.586705
      1.578571     1.570438     1.562304     1.554170     1.546037     1.537903     1.529769     1.521636     1.513502     1.505368
      1.497235     1.489101     1.480968     1.472834     1.464700     1.456567     1.448433     1.440299     1.432166     1.424032
      1.415898     1.407765     1.399631     1.391497     1.383364     1.375230     1.367096     1.358963     1.350829     1.342695
      1.334562     1.326428     1.318295     1.310161     1.302027     1.293894     1.285760     1.277626     1.269493     1.261359
      1.253225     1.245092     1.236958     1.228824     1.220691     1.212557     1.204423     1.196290     1.188156     1.180022
      1.171889     1.163755     1.155622     1.147488     1.139354     1.131221     1.123087     1.114953     1.106820     1.098686
      1.090552     1.082419     1.074285     1.066151     1.058018     1.049884     1.041750     1.033617     1.025483     1.017349
      1.009216     1.001082     0.992949     0.984815     0.976681     0.968548     0.960414     0.952280     0.944147     0.936013
      0.927879     0.919746     0.911612     0.903478     0.895345     0.887211     0.879077     0.870944     0.862810     0.854676
      0.846543     0.838409     0.830276     0.822142     0.814008     0.805875     0.797741     0.789607     0.781474     0.773340
      0.765206     0.757073     0.748939     0.740805     0.732672     0.724538     0.716404     0.708271     0.700137     0.692003
      0.683870     0.675736     0.667603     0.659469     0.651335     0.643202     0.635068     0.626934     0.618801     0.610667
      0.602533     0.594400     0.586266     0.578132     0.569999     0.561865     0.553731     0.545598     0.537464     0.529330
      0.521197     0.513063     0.504930     0.496796     0.488662     0.480529     0.472395     0.464261     0.456128     0.447994
      0.439861     0.431727     0.423593     0.415460     0.407326     0.399192     0.391059     0.382925     0.374792     0.366658
      0.358524     0.350391     0.342257     0.334124     0.325990     0.317856     0.309723     0.301589     0.293455     0.285322
      0.277188     0.269055     0.260921     0.252787     0.244654     0.236520     0.228386     0.220253     0.212119     0.203986
 NY phased data points follow
  -1.02256E+02 -9.31606E+01 -1.17437E+02 -1.15103E+02 -1.12504E+02 -9.91268E+01 -9.69076E+01 -9.86309E+01 -9.11344E+01 -1.02268E+02
  -1.11366E+02 -1.20096E+02 -1.07949E+02 -1.17908E+02 -1.24917E+02 -1.29455E+02 -1.30045E+02 -1.33028E+02 -1.54322E+02 -1.75758E+02
  -2.13007E+02 -1.78059E+02 -1.58233E+02 -1.51364E+02 -1.12521E+02 -9.60663E+01 -7.63354E+01 -8.94834E+01 -7.59603E+01 -7.27352E+01
  -8.65455E+01 -7.09990E+01 -7.11992E+01 -6.56287E+01 -7.19248E+01 -7.05598E+01 -6.27729E+01 -5.63605E+01 -5.44398E+01 -9.05695E+01
  -1.06673E+02 -1.16286E+02 -1.37773E+02 -1.26661E+02 -1.22624E+02 -1.18275E+02 -8.74655E+01 -7.02246E+01 -6.31965E+01 -4.77019E+01
  -4.95786E+01 -5.15117E+01 -3.44297E+01 -4.41763E+01 -6.21974E+01 -7.48744E+01 -8.85578E+01 -7.16016E+01 -8.55151E+01 -1.09869E+02
  -8.18328E+01 -8.97504E+01 -9.74366E+01 -7.28920E+01 -5.27381E+01 -2.73316E+01 -3.21289E+01 -3.32182E+01 -6.30627E+01 -1.04315E+02
  -1.08378E+02 -1.05678E+02 -1.02173E+02 -1.15767E+02 -7.71538E+01 -4.35090E+01 -4.96097E+01 -3.83208E+01 -4.58980E+01 -4.91035E+01
  -2.61970E+01 -1.59778E+01 -3.33549E+01 -5.32598E+01 -8.58000E+01 -8.69483E+01 -7.38004E+01 -6.93122E+01 -5.02333E+01 -5.29184E+01
  -3.59655E+01 -2.60691E+01 -1.95519E+01 -2.51446E+00 -5.89765E+00  7.76822E+00  1.37404E+01  1.79000E+01  1.70917E+01  1.38176E+01
   2.87951E+01  1.87853E+01  1.00033E+01 -4.19845E+00 -2.15333E+01 -3.62475E+01 -5.95687E+01 -3.54917E+01 -4.63883E+01 -9.24266E+01
  -1.48145E+02 -1.97880E+02 -1.67875E+02 -1.58388E+02 -1.52318E+02 -1.19529E+02 -1.03496E+02 -1.03759E+02 -1.03681E+02 -8.21501E+01
  -7.52942E+01 -7.37789E+01 -7.20969E+01 -6.63073E+01 -5.59741E+01 -3.65586E+01 -2.89107E+01 -2.57065E+01 -4.30450E+00  1.61687E+01
   8.84520E+01  1.35169E+02  6.32259E+01 -4.34947E+01 -9.80004E+01 -9.96780E+01 -1.02631E+02 -1.16025E+02 -1.15234E+02 -1.07999E+02
  -1.04317E+02 -1.02264E+02 -1.04624E+02 -1.22207E+02 -1.20340E+02 -1.05092E+02 -1.17610E+02 -1.01779E+02 -1.01949E+02 -1.06595E+02
  -9.83643E+01 -1.15174E+02 -9.51071E+01 -9.28397E+01 -1.00312E+02 -9.66287E+01 -8.97997E+01 -8.46077E+01 -9.53925E+01 -9.19064E+01
  -9.58534E+01 -8.24613E+01 -7.12933E+01 -8.12323E+01 -7.64171E+01 -7.60397E+01 -9.18312E+01 -8.75733E+01 -8.27615E+01 -7.91452E+01
  -7.73456E+01 -7.30642E+01 -3.67152E+01 -4.25650E+01 -5.87753E+01 -6.67602E+01 -5.58686E+01 -3.69033E+01 -4.29727E+01 -5.04794E+01
  -7.36308E+01 -6.98249E+01 -8.98960E+01 -9.31788E+01 -8.31134E+01 -1.04447E+02 -9.32885E+01 -9.03015E+01 -8.92544E+01 -8.01403E+01
  -8.42448E+01 -1.06453E+02 -1.06490E+02 -8.90130E+01 -6.64625E+01 -5.74023E+01 -6.90805E+01 -6.53111E+01 -6.52938E+01 -5.49479E+01
  -5.88430E+01 -5.50406E+01 -4.82509E+01 -5.14792E+01 -3.97435E+01 -4.78954E+01 -5.31450E+01 -4.98350E+01 -5.60627E+01 -6.95697E+01
  -8.32170E+01 -1.03807E+02 -1.03287E+02 -9.12379E+01 -8.49084E+01 -5.89691E+01 -3.15920E+01 -1.43252E+01 -1.83037E+01 -2.14870E+01
  -3.48941E+01 -5.87767E+01 -6.01760E+01 -6.28417E+01 -6.37849E+01 -6.29052E+01 -7.88577E+01 -7.19970E+01 -5.60680E+01 -6.33774E+01
  -6.04083E+01 -6.25558E+01 -7.16595E+01 -8.71324E+01 -9.11534E+01 -9.82141E+01 -1.17119E+02 -1.04818E+02 -1.14005E+02 -1.25530E+02
  -1.18786E+02 -1.11177E+02 -9.34657E+01 -9.83387E+01 -1.03466E+02 -8.63131E+01 -7.30147E+01 -6.90094E+01 -7.51169E+01 -8.19017E+01
  -8.48750E+01 -1.00297E+02 -1.09946E+02 -1.00322E+02 -8.06771E+01 -1.31911E+02 -2.33401E+02 -1.75398E+02 -2.59827E+00  6.39805E+01
   5.29997E+01  6.86786E+01  8.15016E+01  6.30446E+01  5.67196E+01  6.29639E+01  4.52557E+01  5.18092E+01  5.06465E+01  2.98602E+01
   4.03826E+01  4.11334E+01  3.61750E+01  2.44010E+01  2.78967E+01  3.59892E+01  4.23205E+01  4.45828E+01  2.89684E+01  4.19756E+01
   3.44612E+01  3.33866E+01  5.61553E+01  4.43064E+01  3.10071E+01  4.57949E+01  3.92088E+01  2.40743E+01  4.26272E+01  3.96078E+01
   4.24075E+01  5.47040E+01  3.90998E+01  3.74689E+01  4.33868E+01  2.15526E+01  9.37961E+00  5.60788E+00  2.51523E+00  5.24097E+00
  -6.15547E+00  1.42330E+00  5.29724E-02 -3.60903E+00 -1.59221E+01 -1.75460E+01 -3.41901E-01 -1.97148E+01 -1.55078E+01 -5.30220E+00
  -6.07486E+00 -7.26512E+00 -8.47023E+00 -1.02707E+01 -2.43383E+01 -4.52202E+01 -5.76646E+01 -6.80363E+01 -8.63883E+01 -7.42428E+01
  -9.05342E+01 -1.03047E+02 -9.90181E+01 -1.18956E+02 -1.48150E+02 -1.79906E+02 -1.77831E+02 -2.02458E+02 -2.01031E+02 -1.72585E+02
  -1.72487E+02 -1.51983E+02 -1.44496E+02 -1.49100E+02 -1.46704E+02 -1.43296E+02 -1.38409E+02 -1.29965E+02 -1.19190E+02 -9.62211E+01
  -8.27722E+01 -6.19485E+01 -2.67142E+01 -3.82295E+01 -4.51939E+01 -3.66251E+01 -3.89549E+01 -3.74308E+01 -4.09269E+01 -4.24580E+01
  -4.87802E+01 -4.16217E+01 -3.80671E+01 -5.40513E+01 -4.08312E+01 -4.37442E+01 -6.32285E+01 -5.84224E+01 -6.13736E+01 -6.33524E+01
  -6.45404E+01 -6.44948E+01 -7.08863E+01 -6.81987E+01 -6.33016E+01 -7.26180E+01 -5.44466E+01 -5.10106E+01 -4.67508E+01 -3.99817E+01
  -5.00121E+01 -3.91502E+01 -4.86968E+01 -5.18556E+01 -3.72056E+01 -2.71949E+01 -1.48220E+01 -3.23566E+00  1.96595E+01  1.88754E+01
   1.99130E+01  2.54159E+01  2.94952E+01  5.14077E+01  5.17232E+01  6.98246E+01  8.31509E+01  8.37082E+01  1.01727E+02  1.07579E+02
   1.11339E+02  1.01865E+02  8.98083E+01  7.14088E+01  6.03504E+01  5.86297E+01  4.33295E+01  4.33510E+01  4.31199E+01  3.68037E+01
   2.66559E+01  1.12191E+01  1.43099E+00 -1.89817E+01 -2.99709E+01 -1.59031E+01 -2.30136E+01 -3.09464E+01 -3.49943E+01 -4.11064E+01
  -3.08336E+01 -4.04636E+01 -2.79552E+01 -2.18344E+01 -4.61934E+01 -3.66649E+01 -2.37751E+01 -3.24561E+01 -4.35710E+01 -3.68283E+01
  -2.77511E+01 -2.92139E+01 -3.74341E+01 -4.26868E+01 -4.00176E+01 -4.55664E+01 -3.88320E+01 -2.55287E+01 -3.49832E+01 -3.94642E+01
  -5.01302E+01 -5.34330E+01 -3.61146E+01 -3.81400E+01 -2.84724E+01 -4.20517E+01 -4.58571E+01 -2.42357E+01 -4.08308E+01 -4.20953E+01
  -2.71244E+01 -2.46743E+01 -4.48648E+01 -4.33342E+01 -3.36515E+01 -3.49188E+01 -3.82525E+01 -4.44716E+01 -3.27780E+01 -4.06686E+01
  -2.66990E+01 -2.72453E+01 -3.86722E+01 -3.40186E+01 -3.96114E+01 -3.43121E+01 -4.01785E+01 -3.04446E+01 -4.32547E+01 -3.81688E+01
  -2.65232E+01 -4.05372E+01 -2.20500E+01 -3.05088E+01 -3.43922E+01 -4.25657E+01 -4.30182E+01 -2.27212E+01 -2.92621E+01 -2.98948E+01
  -3.46667E+01 -2.88783E+01 -3.43904E+01 -3.81924E+01 -2.97546E+01 -3.50019E+01 -3.04401E+01 -3.90238E+01 -2.15976E+01 -2.01673E+01
 NY points of the fit to the data follow
  -1.10980E+02 -1.13538E+02 -1.22148E+02 -1.33542E+02 -1.37429E+02 -1.27573E+02 -1.11081E+02 -1.00296E+02 -9.81541E+01 -9.95364E+01
  -1.01788E+02 -1.06164E+02 -1.10846E+02 -1.14879E+02 -1.20227E+02 -1.27822E+02 -1.29774E+02 -1.29813E+02 -1.40732E+02 -1.64024E+02
  -1.83031E+02 -1.78798E+02 -1.55082E+02 -1.30768E+02 -1.11699E+02 -9.31467E+01 -7.52911E+01 -6.47275E+01 -5.70738E+01 -5.15938E+01
  -5.03873E+01 -5.04289E+01 -5.22808E+01 -5.62694E+01 -6.44404E+01 -7.47849E+01 -8.52251E+01 -9.27207E+01 -1.01042E+02 -1.14166E+02
  -1.30480E+02 -1.40328E+02 -1.37198E+02 -1.24456E+02 -1.11079E+02 -9.63882E+01 -8.01370E+01 -6.44332E+01 -5.46383E+01 -4.85205E+01
  -4.47798E+01 -4.28365E+01 -4.53292E+01 -5.66183E+01 -7.12296E+01 -7.81871E+01 -7.94721E+01 -8.37543E+01 -9.38746E+01 -1.01235E+02
  -9.90803E+01 -9.35011E+01 -8.89844E+01 -8.06512E+01 -6.54622E+01 -4.89186E+01 -3.81200E+01 -3.92734E+01 -5.63763E+01 -7.80092E+01
  -8.84387E+01 -9.02736E+01 -9.21952E+01 -8.98599E+01 -7.58336E+01 -5.72469E+01 -4.58206E+01 -3.76549E+01 -3.02777E+01 -2.49149E+01
  -2.40330E+01 -2.79372E+01 -3.64007E+01 -4.90660E+01 -6.22608E+01 -7.07271E+01 -7.17012E+01 -6.59039E+01 -5.68587E+01 -4.60643E+01
  -3.63241E+01 -2.64992E+01 -1.76137E+01 -1.04059E+01 -4.78807E+00  1.55046E+00  8.33043E+00  1.25233E+01  1.33076E+01  1.41669E+01
   1.43940E+01  1.39723E+01  9.06249E+00  5.89384E-01 -1.94879E+01 -4.42780E+01 -5.33736E+01 -4.49199E+01 -5.01322E+01 -9.40081E+01
  -1.51131E+02 -1.77626E+02 -1.74131E+02 -1.64463E+02 -1.57869E+02 -1.41505E+02 -1.21334E+02 -1.06113E+02 -9.39239E+01 -8.33498E+01
  -7.35868E+01 -6.40338E+01 -5.45789E+01 -4.47790E+01 -3.32731E+01 -1.84554E+01 -1.10500E+00  3.65681E-01  9.37262E-02  2.39743E+01
   6.85912E+01  8.67939E+01  4.22175E+01 -3.39458E+01 -8.51672E+01 -1.05293E+02 -1.22613E+02 -1.41556E+02 -1.41709E+02 -1.35276E+02
  -1.30196E+02 -1.26702E+02 -1.24502E+02 -1.23070E+02 -1.21658E+02 -1.20537E+02 -1.19120E+02 -1.16969E+02 -1.14011E+02 -1.11088E+02
  -1.08641E+02 -1.06151E+02 -1.03858E+02 -1.01622E+02 -9.88401E+01 -9.51562E+01 -9.13218E+01 -8.92199E+01 -8.93421E+01 -8.92183E+01
  -8.65912E+01 -8.25915E+01 -8.06572E+01 -8.18793E+01 -8.34733E+01 -8.28973E+01 -8.06145E+01 -7.95474E+01 -8.12267E+01 -8.27451E+01
  -7.75441E+01 -6.36808E+01 -4.93729E+01 -4.50810E+01 -5.03166E+01 -5.22271E+01 -4.50950E+01 -3.73976E+01 -3.88514E+01 -4.82624E+01
  -5.86552E+01 -6.73025E+01 -7.54938E+01 -8.34339E+01 -8.89136E+01 -9.11861E+01 -9.24118E+01 -9.34492E+01 -9.38539E+01 -9.14906E+01
  -8.94564E+01 -8.96289E+01 -8.83389E+01 -8.18977E+01 -7.12332E+01 -6.46568E+01 -6.27379E+01 -5.77346E+01 -4.93223E+01 -4.55074E+01
  -4.89092E+01 -5.01288E+01 -4.65031E+01 -4.34975E+01 -4.39282E+01 -4.68929E+01 -4.91510E+01 -5.27597E+01 -5.84162E+01 -6.49789E+01
  -7.14348E+01 -7.64631E+01 -8.11104E+01 -8.10765E+01 -7.59728E+01 -6.58310E+01 -5.19136E+01 -3.82727E+01 -2.80461E+01 -2.32487E+01
  -2.34552E+01 -2.69247E+01 -3.01304E+01 -3.06501E+01 -3.22699E+01 -3.38875E+01 -3.67314E+01 -4.18510E+01 -4.87447E+01 -5.79106E+01
  -6.82844E+01 -7.87831E+01 -8.95976E+01 -9.94200E+01 -1.07649E+02 -1.13855E+02 -1.18160E+02 -1.19492E+02 -1.19544E+02 -1.17924E+02
  -1.15648E+02 -1.12734E+02 -1.07603E+02 -1.00661E+02 -9.37886E+01 -8.73761E+01 -8.32479E+01 -8.25833E+01 -8.40402E+01 -8.51764E+01
  -9.49527E+01 -1.16666E+02 -1.19699E+02 -1.05582E+02 -1.09710E+02 -1.51373E+02 -1.83930E+02 -1.44540E+02 -5.30193E+01  1.67893E+01
   4.30462E+01  6.09208E+01  8.21721E+01  8.19694E+01  7.24128E+01  6.36079E+01  5.57483E+01  4.86267E+01  4.21855E+01  3.63578E+01
   3.17517E+01  2.82463E+01  2.60138E+01  2.48672E+01  2.43826E+01  2.43732E+01  2.45254E+01  2.48094E+01  2.44654E+01  2.34361E+01
   2.20529E+01  2.01418E+01  1.80889E+01  1.56519E+01  1.29349E+01  1.01721E+01  7.41081E+00  4.46320E+00  1.18338E+00 -2.31779E+00
  -5.91434E+00 -9.62037E+00 -1.34227E+01 -1.70699E+01 -1.99412E+01 -2.15707E+01 -2.20780E+01 -2.17262E+01 -2.08021E+01 -1.93836E+01
  -1.75361E+01 -1.54278E+01 -1.32443E+01 -1.10769E+01 -8.99265E+00 -6.95898E+00 -4.80128E+00 -2.27496E+00  4.65955E-01  3.13587E+00
   5.73053E+00  8.50706E+00  1.15023E+01  1.46646E+01  1.80684E+01  2.12165E+01  1.93111E+01  1.98770E+01  2.53397E+01  2.78689E+01
   1.69222E+01 -1.54597E+01 -6.12311E+01 -1.07510E+02 -1.44073E+02 -1.62120E+02 -1.61084E+02 -1.50632E+02 -1.44195E+02 -1.36939E+02
  -1.28503E+02 -1.24687E+02 -1.22214E+02 -1.19307E+02 -1.15355E+02 -1.10400E+02 -1.05002E+02 -9.98855E+01 -9.53266E+01 -9.13152E+01
  -8.74299E+01 -8.33427E+01 -7.89081E+01 -7.43186E+01 -7.00308E+01 -6.64253E+01 -6.36287E+01 -6.14645E+01 -5.98764E+01 -5.90664E+01
  -5.90202E+01 -5.98301E+01 -6.15407E+01 -6.38729E+01 -6.61753E+01 -6.78067E+01 -6.85910E+01 -6.83643E+01 -6.71026E+01 -6.48747E+01
  -6.18388E+01 -5.81760E+01 -5.41088E+01 -4.99235E+01 -4.57860E+01 -4.17490E+01 -3.77899E+01 -3.38318E+01 -2.99242E+01 -2.59932E+01
  -2.21229E+01 -1.81796E+01 -1.40452E+01 -9.62911E+00 -4.95804E+00  2.33358E-02  5.47704E+00  1.15359E+01  1.80459E+01  2.47667E+01
   3.16347E+01  3.89530E+01  4.64240E+01  5.35610E+01  5.98964E+01  6.49848E+01  6.77160E+01  6.70469E+01  6.30496E+01  5.67498E+01
   4.93410E+01  4.16593E+01  3.43969E+01  2.79898E+01  2.21581E+01  1.62891E+01  9.91942E+00  3.08538E+00 -3.98585E+00 -1.10275E+01
  -1.73471E+01 -2.26434E+01 -2.69838E+01 -3.04919E+01 -3.29560E+01 -3.44935E+01 -3.55427E+01 -3.63745E+01 -3.70556E+01 -3.75251E+01
  -3.77003E+01 -3.77060E+01 -3.77041E+01 -3.76616E+01 -3.73222E+01 -3.68662E+01 -3.66251E+01 -3.65904E+01 -3.63628E+01 -3.58544E+01
  -3.54748E+01 -3.53329E+01 -3.51376E+01 -3.47302E+01 -3.44429E+01 -3.43893E+01 -3.42961E+01 -3.40003E+01 -3.35860E+01 -3.32319E+01
  -3.30429E+01 -3.29892E+01 -3.29645E+01 -3.29397E+01 -3.28413E+01 -3.26524E+01 -3.24409E+01 -3.22469E+01 -3.20629E+01 -3.18998E+01
  -3.17321E+01 -3.15133E+01 -3.14320E+01 -3.15478E+01 -3.16831E+01 -3.17385E+01 -3.16691E+01 -3.15549E+01 -3.14144E+01 -3.13514E+01
  -3.13550E+01 -3.14227E+01 -3.13423E+01 -3.11538E+01 -3.09862E+01 -3.09040E+01 -3.07949E+01 -3.06906E+01 -3.05561E+01 -3.04310E+01
  -3.04046E+01 -3.04709E+01 -3.05108E+01 -3.05946E+01 -3.06815E+01 -3.06855E+01 -3.04050E+01 -2.99817E+01 -2.96332E+01 -2.95886E+01
  -2.97479E+01 -2.98687E+01 -2.99028E+01 -2.99086E+01 -2.98647E+01 -2.97672E+01 -2.96242E+01 -2.95427E+01 -2.95306E+01 -2.94227E+01
 NY background values follow
    -8.178E+01   -8.167E+01   -8.155E+01   -8.144E+01   -8.132E+01   -8.120E+01   -8.108E+01   -8.096E+01   -8.083E+01   -8.071E+01
    -8.058E+01   -8.045E+01   -8.031E+01   -8.018E+01   -8.004E+01   -7.990E+01   -7.976E+01   -7.961E+01   -7.946E+01   -7.931E+01
    -7.915E+01   -7.899E+01   -7.883E+01   -7.866E+01   -7.849E+01   -7.832E+01   -7.814E+01   -7.795E+01   -7.777E+01   -7.757E+01
    -7.738E+01   -7.718E+01   -7.697E+01   -7.676E+01   -7.654E+01   -7.632E+01   -7.610E+01   -7.587E+01   -7.564E+01   -7.540E+01
    -7.516E+01   -7.491E+01   -7.466E+01   -7.441E+01   -7.415E+01   -7.389E+01   -7.363E+01   -7.336E+01   -7.309E+01   -7.282E+01
    -7.254E+01   -7.226E+01   -7.198E+01   -7.169E+01   -7.141E+01   -7.111E+01   -7.082E+01   -7.052E+01   -7.023E+01   -6.992E+01
    -6.962E+01   -6.931E+01   -6.901E+01   -6.870E+01   -6.838E+01   -6.807E+01   -6.775E+01   -6.744E+01   -6.712E+01   -6.680E+01
    -6.647E+01   -6.615E+01   -6.582E+01   -6.549E+01   -6.516E+01   -6.483E+01   -6.450E+01   -6.416E+01   -6.383E+01   -6.349E+01
    -6.315E+01   -6.281E+01   -6.247E+01   -6.213E+01   -6.178E+01   -6.144E+01   -6.109E+01   -6.075E+01   -6.040E+01   -6.005E+01
    -5.970E+01   -5.935E+01   -5.900E+01   -5.865E+01   -5.830E+01   -5.795E+01   -5.760E+01   -5.725E+01   -5.690E+01   -5.655E+01
    -5.621E+01   -5.586E+01   -5.552E+01   -5.518E+01   -5.484E+01   -5.451E+01   -5.418E+01   -5.385E+01   -5.353E+01   -5.321E+01
    -5.289E+01   -5.258E+01   -5.227E+01   -5.197E+01   -5.167E+01   -5.137E+01   -5.109E+01   -5.081E+01   -5.053E+01   -5.026E+01
    -5.000E+01   -4.974E+01   -4.950E+01   -4.925E+01   -4.902E+01   -4.879E+01   -4.857E+01   -4.836E+01   -4.815E+01   -4.796E+01
    -4.776E+01   -4.758E+01   -4.741E+01   -4.724E+01   -4.708E+01   -4.693E+01   -4.679E+01   -4.665E+01   -4.653E+01   -4.641E+01
    -4.630E+01   -4.620E+01   -4.611E+01   -4.602E+01   -4.595E+01   -4.588E+01   -4.583E+01   -4.578E+01   -4.574E+01   -4.571E+01
    -4.570E+01   -4.569E+01   -4.569E+01   -4.569E+01   -4.571E+01   -4.573E+01   -4.576E+01   -4.580E+01   -4.585E+01   -4.590E+01
    -4.595E+01   -4.601E+01   -4.608E+01   -4.615E+01   -4.622E+01   -4.629E+01   -4.637E+01   -4.646E+01   -4.654E+01   -4.662E+01
    -4.671E+01   -4.680E+01   -4.689E+01   -4.697E+01   -4.706E+01   -4.715E+01   -4.723E+01   -4.731E+01   -4.739E+01   -4.747E+01
    -4.755E+01   -4.762E+01   -4.768E+01   -4.775E+01   -4.781E+01   -4.786E+01   -4.791E+01   -4.796E+01   -4.801E+01   -4.805E+01
    -4.808E+01   -4.811E+01   -4.814E+01   -4.816E+01   -4.817E+01   -4.819E+01   -4.819E+01   -4.819E+01   -4.819E+01   -4.818E+01
    -4.816E+01   -4.814E+01   -4.812E+01   -4.808E+01   -4.805E+01   -4.800E+01   -4.795E+01   -4.789E+01   -4.783E+01   -4.776E+01
    -4.769E+01   -4.760E+01   -4.752E+01   -4.742E+01   -4.732E+01   -4.722E+01   -4.711E+01   -4.700E+01   -4.689E+01   -4.677E+01
    -4.665E+01   -4.653E+01   -4.641E+01   -4.628E+01   -4.616E+01   -4.603E+01   -4.591E+01   -4.579E+01   -4.567E+01   -4.555E+01
    -4.543E+01   -4.532E+01   -4.521E+01   -4.510E+01   -4.499E+01   -4.490E+01   -4.480E+01   -4.471E+01   -4.463E+01   -4.456E+01
    -4.449E+01   -4.443E+01   -4.437E+01   -4.433E+01   -4.429E+01   -4.426E+01   -4.425E+01   -4.424E+01   -4.425E+01   -4.426E+01
    -4.429E+01   -4.434E+01   -4.439E+01   -4.446E+01   -4.455E+01   -4.465E+01   -4.476E+01   -4.489E+01   -4.504E+01   -4.521E+01
    -4.539E+01   -4.559E+01   -4.581E+01   -4.605E+01   -4.631E+01   -4.660E+01   -4.690E+01   -4.722E+01   -4.757E+01   -4.794E+01
    -4.833E+01   -4.875E+01   -4.919E+01   -4.964E+01   -5.012E+01   -5.062E+01   -5.114E+01   -5.168E+01   -5.223E+01   -5.280E+01
    -5.338E+01   -5.398E+01   -5.459E+01   -5.521E+01   -5.585E+01   -5.649E+01   -5.714E+01   -5.781E+01   -5.848E+01   -5.915E+01
    -5.984E+01   -6.053E+01   -6.122E+01   -6.191E+01   -6.261E+01   -6.331E+01   -6.401E+01   -6.471E+01   -6.540E+01   -6.610E+01
    -6.679E+01   -6.748E+01   -6.816E+01   -6.884E+01   -6.950E+01   -7.016E+01   -7.080E+01   -7.143E+01   -7.205E+01   -7.265E+01
    -7.324E+01   -7.381E+01   -7.435E+01   -7.488E+01   -7.538E+01   -7.586E+01   -7.631E+01   -7.674E+01   -7.714E+01   -7.751E+01
    -7.785E+01   -7.815E+01   -7.843E+01   -7.866E+01   -7.886E+01   -7.902E+01   -7.915E+01   -7.923E+01   -7.927E+01   -7.927E+01
    -7.922E+01   -7.912E+01   -7.899E+01   -7.881E+01   -7.859E+01   -7.833E+01   -7.803E+01   -7.769E+01   -7.732E+01   -7.691E+01
    -7.646E+01   -7.599E+01   -7.548E+01   -7.494E+01   -7.437E+01   -7.377E+01   -7.314E+01   -7.248E+01   -7.180E+01   -7.110E+01
    -7.037E+01   -6.962E+01   -6.885E+01   -6.806E+01   -6.725E+01   -6.642E+01   -6.558E+01   -6.472E+01   -6.384E+01   -6.295E+01
    -6.205E+01   -6.114E+01   -6.022E+01   -5.929E+01   -5.836E+01   -5.741E+01   -5.646E+01   -5.551E+01   -5.455E+01   -5.359E+01
    -5.263E+01   -5.167E+01   -5.072E+01   -4.976E+01   -4.881E+01   -4.786E+01   -4.691E+01   -4.598E+01   -4.505E+01   -4.413E+01
    -4.322E+01   -4.232E+01   -4.143E+01   -4.056E+01   -3.970E+01   -3.886E+01   -3.803E+01   -3.722E+01   -3.643E+01   -3.566E+01
    -3.491E+01   -3.418E+01   -3.348E+01   -3.279E+01   -3.213E+01   -3.148E+01   -3.086E+01   -3.026E+01   -2.968E+01   -2.911E+01
    -2.857E+01   -2.805E+01   -2.755E+01   -2.707E+01   -2.661E+01   -2.617E+01   -2.575E+01   -2.535E+01   -2.498E+01   -2.462E+01
    -2.428E+01   -2.396E+01   -2.365E+01   -2.337E+01   -2.311E+01   -2.287E+01   -2.265E+01   -2.244E+01   -2.226E+01   -2.209E+01
    -2.195E+01   -2.182E+01   -2.171E+01   -2.161E+01   -2.154E+01   -2.148E+01   -2.143E+01   -2.140E+01   -2.138E+01   -2.138E+01
    -2.139E+01   -2.142E+01   -2.145E+01   -2.149E+01   -2.155E+01   -2.162E+01   -2.169E+01   -2.178E+01   -2.187E+01   -2.197E+01
    -2.207E+01   -2.218E+01   -2.230E+01   -2.242E+01   -2.255E+01   -2.268E+01   -2.282E+01   -2.295E+01   -2.309E+01   -2.323E+01
    -2.337E+01   -2.351E+01   -2.366E+01   -2.380E+01   -2.394E+01   -2.408E+01   -2.423E+01   -2.437E+01   -2.452E+01   -2.466E+01
    -2.481E+01   -2.496E+01   -2.510E+01   -2.525E+01   -2.540E+01   -2.554E+01   -2.569E+01   -2.584E+01   -2.599E+01   -2.614E+01
    -2.629E+01   -2.643E+01   -2.658E+01   -2.673E+01   -2.688E+01   -2.703E+01   -2.718E+01   -2.733E+01   -2.748E+01   -2.763E+01
 Mac      Conc. = 2.61E-04
  -1.00243E+02 -1.00559E+02 -1.00833E+02 -1.01102E+02 -1.01531E+02 -1.02320E+02 -1.03475E+02 -1.04758E+02 -1.05965E+02 -1.06982E+02
  -1.07706E+02 -1.07994E+02 -1.07819E+02 -1.07982E+02 -1.09040E+02 -1.10204E+02 -1.10067E+02 -1.08201E+02 -1.05548E+02 -1.02707E+02
  -9.94701E+01 -9.59853E+01 -9.31026E+01 -9.12179E+01 -8.96609E+01 -8.80759E+01 -8.64495E+01 -8.47057E+01 -8.29556E+01 -8.13804E+01
  -7.99202E+01 -7.84557E+01 -7.72255E+01 -7.66473E+01 -7.66252E+01 -7.64188E+01 -7.53284E+01 -7.34630E+01 -7.16051E+01 -7.04332E+01
  -6.98269E+01 -6.92214E+01 -6.83130E+01 -6.71999E+01 -6.61530E+01 -6.53259E+01 -6.48404E+01 -6.47310E+01 -6.50020E+01 -6.56515E+01
  -6.64053E+01 -6.70025E+01 -6.73793E+01 -6.77054E+01 -6.79120E+01 -6.76829E+01 -6.69739E+01 -6.59750E+01 -6.49053E+01 -6.36743E+01
  -6.21547E+01 -6.08164E+01 -6.01148E+01 -6.00381E+01 -6.01022E+01 -6.00631E+01 -6.00448E+01 -6.02499E+01 -6.04831E+01 -6.00532E+01
  -5.85440E+01 -5.65539E+01 -5.47075E+01 -5.31529E+01 -5.18258E+01 -5.09776E+01 -5.07370E+01 -5.07950E+01 -5.08470E+01 -5.09378E+01
  -5.10486E+01 -5.10918E+01 -5.07670E+01 -5.01351E+01 -4.93454E+01 -4.84516E+01 -4.74293E+01 -4.64073E+01 -4.54981E+01 -4.47550E+01
  -4.40628E+01 -4.34825E+01 -4.30311E+01 -4.28876E+01 -4.32035E+01 -4.41282E+01 -4.55648E+01 -4.72920E+01 -4.90189E+01 -5.06469E+01
  -5.23415E+01 -5.43240E+01 -5.64263E+01 -5.87609E+01 -6.20000E+01 -6.64867E+01 -7.14276E+01 -7.55743E+01 -7.82801E+01 -7.94753E+01
