 
 $NMID
 ID=''
 FMTDAT='(2E13.5)'
 TRAMP=   1.00000E+0
 VOLUME=   1.00000E+0
 $END
   7.32844E+5   9.75614E+4
   1.78785E+6   9.44476E+5
   1.83852E+6   7.15690E+5
   1.67300E+6   7.74113E+5
   1.74514E+6   8.62597E+5
   1.76108E+6   7.66238E+5
   1.68479E+6   7.65714E+5
   1.71342E+6   8.21605E+5
   1.70797E+6   7.91309E+5
   1.64596E+6   8.19431E+5
   1.64991E+6   8.59998E+5
   1.63456E+6   8.42514E+5
   1.58982E+6   8.65872E+5
   1.58352E+6   9.01350E+5
   1.55620E+6   8.98782E+5
   1.51713E+6   9.15649E+5
   1.51533E+6   9.41425E+5
   1.49527E+6   9.42643E+5
   1.46453E+6   9.51934E+5
   1.46015E+6   9.55176E+5
   1.44014E+6   9.57446E+5
   1.41566E+6   9.71547E+5
   1.40392E+6   9.77175E+5
   1.37969E+6   9.80182E+5
   1.35368E+6   9.95737E+5
   1.34197E+6   9.96769E+5
   1.31629E+6   1.00437E+6
   1.28886E+6   1.02416E+6
   1.26801E+6   1.02975E+6
   1.24403E+6   1.03010E+6
   1.22317E+6   1.04420E+6
   1.20671E+6   1.04559E+6
   1.18329E+6   1.04458E+6
   1.16497E+6   1.05142E+6
   1.15061E+6   1.04802E+6
   1.13422E+6   1.04287E+6
   1.12128E+6   1.04790E+6
   1.10583E+6   1.04933E+6
   1.08164E+6   1.04714E+6
   1.06333E+6   1.05060E+6
   1.04564E+6   1.05226E+6
   1.02289E+6   1.05129E+6
   1.00181E+6   1.05224E+6
   9.84503E+5   1.05366E+6
   9.62460E+5   1.05439E+6
   9.42231E+5   1.05757E+6
   9.22382E+5   1.05955E+6
   8.99617E+5   1.05926E+6
   8.78966E+5   1.05593E+6
   8.62206E+5   1.05383E+6
   8.44797E+5   1.05260E+6
   8.26162E+5   1.05114E+6
   8.08751E+5   1.04864E+6
   7.91032E+5   1.04706E+6
   7.72086E+5   1.04525E+6
   7.51905E+5   1.04308E+6
   7.30780E+5   1.04099E+6
   7.11337E+5   1.03742E+6
   6.93164E+5   1.03373E+6
   6.74572E+5   1.03127E+6
   6.55511E+5   1.02944E+6
   6.36883E+5   1.02581E+6
   6.18431E+5   1.02336E+6
   5.98769E+5   1.01952E+6
   5.79702E+5   1.01372E+6
   5.62046E+5   1.00716E+6
   5.44814E+5   1.00189E+6
   5.27472E+5   9.96336E+5
   5.10410E+5   9.92295E+5
   4.92117E+5   9.88714E+5
   4.73096E+5   9.83376E+5
   4.54897E+5   9.76618E+5
   4.38782E+5   9.71500E+5
   4.21487E+5   9.67096E+5
   4.02387E+5   9.61500E+5
   3.85045E+5   9.54635E+5
   3.69267E+5   9.49165E+5
   3.52202E+5   9.43231E+5
   3.35129E+5   9.36640E+5
   3.18397E+5   9.29614E+5
   3.02410E+5   9.22081E+5
   2.86344E+5   9.15409E+5
   2.70226E+5   9.09035E+5
   2.53496E+5   9.01992E+5
   2.36779E+5   8.94836E+5
   2.21089E+5   8.87605E+5
   2.05886E+5   8.80929E+5
   1.89610E+5   8.73782E+5
   1.74267E+5   8.66161E+5
   1.60117E+5   8.58021E+5
   1.46694E+5   8.50451E+5
   1.33207E+5   8.43252E+5
   1.19362E+5   8.35351E+5
   1.06239E+5   8.26693E+5
   9.37564E+4   8.17286E+5
   8.28292E+4   8.08806E+5
   7.11448E+4   8.01382E+5
   5.93608E+4   7.93701E+5
   4.76752E+4   7.84791E+5
   3.67848E+4   7.76267E+5
   2.61516E+4   7.68761E+5
   1.39433E+4   7.60940E+5
   2.16351E+3   7.51449E+5
  -8.17974E+3   7.41514E+5
  -1.71314E+4   7.33144E+5
  -2.65460E+4   7.25589E+5
  -3.67422E+4   7.17418E+5
  -4.66839E+4   7.07611E+5
  -5.51237E+4   6.97770E+5
  -6.22543E+4   6.88902E+5
  -7.02721E+4   6.80851E+5
  -7.92532E+4   6.72526E+5
  -8.82020E+4   6.63439E+5
  -9.65327E+4   6.54030E+5
  -1.04459E+5   6.45079E+5
  -1.12860E+5   6.36128E+5
  -1.20965E+5   6.27046E+5
  -1.28423E+5   6.16897E+5
  -1.34633E+5   6.06996E+5
  -1.40651E+5   5.98310E+5
  -1.47244E+5   5.90098E+5
  -1.54012E+5   5.81240E+5
  -1.60245E+5   5.72663E+5
  -1.66365E+5   5.63374E+5
  -1.72816E+5   5.54064E+5
  -1.78331E+5   5.44134E+5
  -1.83576E+5   5.34659E+5
  -1.88846E+5   5.25743E+5
  -1.94666E+5   5.16970E+5
  -2.00370E+5   5.07826E+5
  -2.06709E+5   4.98063E+5
  -2.12199E+5   4.88000E+5
  -2.16769E+5   4.78420E+5
  -2.21627E+5   4.69260E+5
  -2.26721E+5   4.59836E+5
  -2.31277E+5   4.49864E+5
  -2.34958E+5   4.40510E+5
  -2.38869E+5   4.31783E+5
  -2.43194E+5   4.23115E+5
  -2.47105E+5   4.13314E+5
  -2.50247E+5   4.03388E+5
  -2.53079E+5   3.94380E+5
  -2.55525E+5   3.86074E+5
  -2.58934E+5   3.77354E+5
  -2.62518E+5   3.68522E+5
  -2.65129E+5   3.58878E+5
  -2.67663E+5   3.49661E+5
  -2.70195E+5   3.40380E+5
  -2.72100E+5   3.31995E+5
  -2.73871E+5   3.23173E+5
  -2.75738E+5   3.14824E+5
  -2.76906E+5   3.06178E+5
  -2.78149E+5   2.98473E+5
  -2.80033E+5   2.90552E+5
  -2.81199E+5   2.82273E+5
  -2.81743E+5   2.74098E+5
  -2.82200E+5   2.66782E+5
  -2.82909E+5   2.59379E+5
  -2.83466E+5   2.51863E+5
  -2.83559E+5   2.44275E+5
  -2.83528E+5   2.37080E+5
  -2.83646E+5   2.29702E+5
  -2.83472E+5   2.22360E+5
  -2.82942E+5   2.14987E+5
  -2.82270E+5   2.08285E+5
  -2.81692E+5   2.02111E+5
  -2.81506E+5   1.95806E+5
  -2.81131E+5   1.89080E+5
  -2.80044E+5   1.82510E+5
  -2.79133E+5   1.76576E+5
  -2.77987E+5   1.70723E+5
  -2.76778E+5   1.65048E+5
  -2.75717E+5   1.58772E+5
  -2.74217E+5   1.52887E+5
  -2.72744E+5   1.47411E+5
  -2.71629E+5   1.41990E+5
  -2.70203E+5   1.36346E+5
  -2.68545E+5   1.30312E+5
  -2.66528E+5   1.24959E+5
  -2.65019E+5   1.20187E+5
  -2.63300E+5   1.15040E+5
  -2.61806E+5   1.09667E+5
  -2.60097E+5   1.04229E+5
  -2.57724E+5   9.96241E+4
  -2.55608E+5   9.46969E+4
  -2.53422E+5   8.98313E+4
  -2.51140E+5   8.56665E+4
  -2.49032E+5   8.12249E+4
  -2.46584E+5   7.69397E+4
  -2.44755E+5   7.29480E+4
  -2.42864E+5   6.85983E+4
  -2.40653E+5   6.37542E+4
  -2.38234E+5   5.92283E+4
  -2.35348E+5   5.48901E+4
  -2.32915E+5   5.12390E+4
  -2.30620E+5   4.70861E+4
  -2.28249E+5   4.29749E+4
  -2.25922E+5   3.91670E+4
  -2.23385E+5   3.52128E+4
  -2.21083E+5   3.12088E+4
  -2.18353E+5   2.72392E+4
  -2.15433E+5   2.34085E+4
  -2.12573E+5   2.02731E+4
  -2.10062E+5   1.70484E+4
  -2.07793E+5   1.32824E+4
  -2.05270E+5   9.61239E+3
  -2.02340E+5   6.39221E+3
  -1.99606E+5   3.46610E+3
  -1.96695E+5   3.10284E+2
  -1.94364E+5  -2.87376E+3
  -1.91298E+5  -5.81031E+3
  -1.88561E+5  -8.42431E+3
  -1.86018E+5  -1.15620E+4
  -1.83664E+5  -1.43928E+4
  -1.80912E+5  -1.74683E+4
  -1.77680E+5  -1.99042E+4
  -1.74661E+5  -2.20497E+4
  -1.72086E+5  -2.43513E+4
  -1.69385E+5  -2.66040E+4
  -1.66645E+5  -2.85205E+4
  -1.63860E+5  -3.06958E+4
  -1.61299E+5  -3.29018E+4
  -1.58722E+5  -3.47720E+4
  -1.55920E+5  -3.69766E+4
  -1.53179E+5  -3.85953E+4
  -1.50539E+5  -3.99293E+4
  -1.47832E+5  -4.14824E+4
  -1.45285E+5  -4.32583E+4
  -1.43064E+5  -4.49349E+4
  -1.40475E+5  -4.62750E+4
  -1.37543E+5  -4.76411E+4
  -1.35211E+5  -4.87820E+4
  -1.32759E+5  -5.00980E+4
  -1.30396E+5  -5.13763E+4
  -1.27801E+5  -5.21361E+4
  -1.25422E+5  -5.30396E+4
  -1.23515E+5  -5.39935E+4
  -1.21062E+5  -5.50584E+4
  -1.18359E+5  -5.56279E+4
  -1.16202E+5  -5.62827E+4
  -1.14221E+5  -5.67241E+4
  -1.12247E+5  -5.78008E+4
  -1.09928E+5  -5.83826E+4
  -1.07475E+5  -5.92468E+4
  -1.05586E+5  -5.97434E+4
  -1.03347E+5  -5.99840E+4
  -1.01492E+5  -6.04859E+4
  -9.91549E+4  -6.08637E+4
  -9.68906E+4  -6.11395E+4
  -9.51871E+4  -6.15433E+4
  -9.30916E+4  -6.21074E+4
  -9.13736E+4  -6.23643E+4
  -8.92391E+4  -6.24098E+4
  -8.69322E+4  -6.27928E+4
  -8.52143E+4  -6.27846E+4
  -8.34754E+4  -6.33062E+4
  -8.19009E+4  -6.37012E+4
  -7.95982E+4  -6.37236E+4
  -7.79693E+4  -6.39295E+4
  -7.62136E+4  -6.40981E+4
  -7.44098E+4  -6.44215E+4
  -7.23918E+4  -6.44363E+4
  -7.06808E+4  -6.40503E+4
  -6.90787E+4  -6.42206E+4
  -6.74436E+4  -6.42867E+4
  -6.58737E+4  -6.43194E+4
  -6.39837E+4  -6.45526E+4
  -6.23361E+4  -6.45498E+4
  -6.07470E+4  -6.44000E+4
  -5.93174E+4  -6.41971E+4
  -5.76209E+4  -6.39076E+4
  -5.63284E+4  -6.37235E+4
  -5.45092E+4  -6.38742E+4
  -5.31832E+4  -6.35769E+4
  -5.16522E+4  -6.36593E+4
  -5.03056E+4  -6.35732E+4
  -4.84666E+4  -6.33056E+4
  -4.70369E+4  -6.26647E+4
  -4.56666E+4  -6.27290E+4
  -4.43998E+4  -6.27188E+4
  -4.32366E+4  -6.23218E+4
  -4.17638E+4  -6.21260E+4
  -4.03869E+4  -6.16478E+4
  -3.92305E+4  -6.15830E+4
  -3.77565E+4  -6.13900E+4
  -3.65360E+4  -6.10076E+4
  -3.52461E+4  -6.03261E+4
  -3.45032E+4  -6.01896E+4
  -3.32739E+4  -6.02602E+4
  -3.19727E+4  -5.97911E+4
  -3.10016E+4  -5.95210E+4
  -2.96941E+4  -5.89874E+4
  -2.88385E+4  -5.87705E+4
  -2.77101E+4  -5.83942E+4
  -2.66744E+4  -5.79589E+4
  -2.56869E+4  -5.76535E+4
  -2.47134E+4  -5.75535E+4
  -2.37260E+4  -5.69194E+4
  -2.28246E+4  -5.68393E+4
  -2.17751E+4  -5.63186E+4
  -2.09943E+4  -5.59772E+4
  -2.01036E+4  -5.53433E+4
  -1.91864E+4  -5.51113E+4
  -1.83979E+4  -5.49382E+4
  -1.72212E+4  -5.46601E+4
  -1.66517E+4  -5.38762E+4
  -1.56863E+4  -5.36650E+4
  -1.51583E+4  -5.32146E+4
  -1.41378E+4  -5.29053E+4
  -1.36752E+4  -5.23718E+4
  -1.26538E+4  -5.21617E+4
  -1.19014E+4  -5.17878E+4
  -1.13015E+4  -5.12939E+4
  -1.05015E+4  -5.11545E+4
  -9.97818E+3  -5.05056E+4
  -9.31238E+3  -5.03390E+4
  -8.56480E+3  -5.00083E+4
  -8.06459E+3  -4.94996E+4
  -7.72345E+3  -4.90529E+4
  -6.91155E+3  -4.86229E+4
  -6.47397E+3  -4.83813E+4
  -5.74840E+3  -4.81276E+4
  -5.21900E+3  -4.75684E+4
  -4.58642E+3  -4.73087E+4
  -4.11135E+3  -4.67028E+4
  -3.48221E+3  -4.62819E+4
  -3.22080E+3  -4.60220E+4
  -2.38079E+3  -4.58799E+4
  -1.76072E+3  -4.49847E+4
  -1.46371E+3  -4.48828E+4
  -1.33632E+3  -4.41927E+4
  -8.70503E+2  -4.39841E+4
  -3.21105E+2  -4.33240E+4
   8.73053E+1  -4.31024E+4
   6.19019E+2  -4.28454E+4
   9.67165E+2  -4.23791E+4
   1.56196E+3  -4.21734E+4
   1.87585E+3  -4.16248E+4
   2.22435E+3  -4.12310E+4
   2.26475E+3  -4.09406E+4
   2.93244E+3  -4.04419E+4
   3.22436E+3  -4.00521E+4
   3.66288E+3  -3.97077E+4
   4.10590E+3  -3.92688E+4
   4.50294E+3  -3.90151E+4
   4.60503E+3  -3.86139E+4
   5.07910E+3  -3.79676E+4
   5.12705E+3  -3.76701E+4
   5.47928E+3  -3.72546E+4
   5.73823E+3  -3.71258E+4
   6.28681E+3  -3.64712E+4
   6.42539E+3  -3.62375E+4
   6.72578E+3  -3.58191E+4
   6.89117E+3  -3.53353E+4
   7.01045E+3  -3.51887E+4
   7.30143E+3  -3.46436E+4
   7.56927E+3  -3.41266E+4
   7.74678E+3  -3.38157E+4
   8.25610E+3  -3.35545E+4
   8.35534E+3  -3.34208E+4
   8.55227E+3  -3.26686E+4
   8.73929E+3  -3.24121E+4
   8.56548E+3  -3.20514E+4
   8.95789E+3  -3.19781E+4
   9.30881E+3  -3.13552E+4
   9.51546E+3  -3.09574E+4
   9.47573E+3  -3.07134E+4
