 
 $NMID
 ID=''
 FMTDAT='(2E13.5)'
 TRAMP=   1.00000E+0
 VOLUME=   1.00000E+0
 $END
   6.88821E+5  -3.07287E+4
   1.74398E+6   6.20725E+5
   1.76271E+6   4.15556E+5
   1.64420E+6   4.43425E+5
   1.71643E+6   4.43597E+5
   1.71636E+6   3.09708E+5
   1.66399E+6   2.79762E+5
   1.69572E+6   2.80779E+5
   1.67868E+6   2.27639E+5
   1.63661E+6   2.32887E+5
   1.64889E+6   2.30364E+5
   1.62607E+6   1.90921E+5
   1.59317E+6   1.92458E+5
   1.59605E+6   1.94546E+5
   1.56661E+6   1.78497E+5
   1.53532E+6   1.82347E+5
   1.53896E+6   1.71235E+5
   1.51778E+6   1.41348E+5
   1.48875E+6   1.27999E+5
   1.48332E+6   9.90434E+4
   1.46039E+6   7.10388E+4
   1.43501E+6   6.29834E+4
   1.42335E+6   4.52837E+4
   1.39875E+6   2.27229E+4
   1.37234E+6   1.96297E+4
   1.35533E+6   5.28510E+3
   1.33146E+6  -3.86608E+3
   1.30893E+6   1.95904E+3
   1.28854E+6  -7.32514E+2
   1.26112E+6  -1.33870E+4
   1.24034E+6  -1.93078E+4
   1.22116E+6  -3.21145E+4
   1.19428E+6  -4.57473E+4
   1.17059E+6  -5.58416E+4
   1.14820E+6  -7.32208E+4
   1.12246E+6  -9.35195E+4
   1.10077E+6  -1.07316E+5
   1.07970E+6  -1.19749E+5
   1.05177E+6  -1.28887E+5
   1.02821E+6  -1.34653E+5
   1.00602E+6  -1.40095E+5
   9.80695E+5  -1.44533E+5
   9.56656E+5  -1.47851E+5
   9.34233E+5  -1.52128E+5
   9.10066E+5  -1.53812E+5
   8.88939E+5  -1.55086E+5
   8.67456E+5  -1.58873E+5
   8.43866E+5  -1.61611E+5
   8.19269E+5  -1.66109E+5
   7.96241E+5  -1.72060E+5
   7.73453E+5  -1.77012E+5
   7.51268E+5  -1.80492E+5
   7.28754E+5  -1.85203E+5
   7.06917E+5  -1.88942E+5
   6.85057E+5  -1.90652E+5
   6.63199E+5  -1.91656E+5
   6.41894E+5  -1.91803E+5
   6.20895E+5  -1.91807E+5
   5.99528E+5  -1.91985E+5
   5.79112E+5  -1.92499E+5
   5.59915E+5  -1.92754E+5
   5.40485E+5  -1.92077E+5
   5.21114E+5  -1.92154E+5
   5.01687E+5  -1.91365E+5
   4.82039E+5  -1.91296E+5
   4.62342E+5  -1.91068E+5
   4.43180E+5  -1.90798E+5
   4.24751E+5  -1.90533E+5
   4.06601E+5  -1.89680E+5
   3.89915E+5  -1.88259E+5
   3.72753E+5  -1.86328E+5
   3.54930E+5  -1.84644E+5
   3.38699E+5  -1.82819E+5
   3.22723E+5  -1.80799E+5
   3.06609E+5  -1.78348E+5
   2.90293E+5  -1.76176E+5
   2.75192E+5  -1.74105E+5
   2.59810E+5  -1.71926E+5
   2.44875E+5  -1.69833E+5
   2.30158E+5  -1.67848E+5
   2.16120E+5  -1.65231E+5
   2.01794E+5  -1.62808E+5
   1.88062E+5  -1.60285E+5
   1.75351E+5  -1.57270E+5
   1.62865E+5  -1.54005E+5
   1.50252E+5  -1.50635E+5
   1.38031E+5  -1.47629E+5
   1.26502E+5  -1.44347E+5
   1.14879E+5  -1.41141E+5
   1.04235E+5  -1.37885E+5
   9.31546E+4  -1.34860E+5
   8.26491E+4  -1.31792E+5
   7.26400E+4  -1.28839E+5
   6.28209E+4  -1.25871E+5
   5.28866E+4  -1.22898E+5
   4.34811E+4  -1.19612E+5
   3.42849E+4  -1.16771E+5
   2.56525E+4  -1.13791E+5
   1.72710E+4  -1.10672E+5
   9.56887E+3  -1.07314E+5
   1.76177E+3  -1.04180E+5
  -5.62790E+3  -1.00800E+5
  -1.28131E+4  -9.79814E+4
  -1.95372E+4  -9.49279E+4
  -2.61807E+4  -9.16958E+4
  -3.21675E+4  -8.85853E+4
  -3.80968E+4  -8.54615E+4
  -4.35071E+4  -8.24591E+4
  -4.87612E+4  -7.93070E+4
  -5.41918E+4  -7.63052E+4
  -5.88882E+4  -7.35057E+4
  -6.35247E+4  -7.05970E+4
  -6.77453E+4  -6.76997E+4
  -7.18654E+4  -6.49556E+4
  -7.56947E+4  -6.22681E+4
  -7.92097E+4  -5.94561E+4
  -8.27062E+4  -5.68494E+4
  -8.57288E+4  -5.45184E+4
  -8.84702E+4  -5.18135E+4
  -9.12485E+4  -4.94107E+4
  -9.38223E+4  -4.67498E+4
  -9.60849E+4  -4.46590E+4
  -9.80400E+4  -4.24659E+4
  -1.00418E+5  -3.97942E+4
  -1.02382E+5  -3.76753E+4
  -1.03986E+5  -3.55125E+4
  -1.05294E+5  -3.37564E+4
  -1.06823E+5  -3.16324E+4
  -1.08267E+5  -2.96813E+4
  -1.09431E+5  -2.80490E+4
  -1.10252E+5  -2.64395E+4
  -1.11140E+5  -2.52306E+4
  -1.11906E+5  -2.37345E+4
  -1.12651E+5  -2.23340E+4
  -1.13192E+5  -2.07939E+4
  -1.13815E+5  -1.96076E+4
  -1.14180E+5  -1.83450E+4
  -1.14596E+5  -1.68853E+4
  -1.14972E+5  -1.58862E+4
  -1.15628E+5  -1.47310E+4
  -1.15232E+5  -1.36562E+4
  -1.15249E+5  -1.27257E+4
  -1.15255E+5  -1.15197E+4
  -1.14930E+5  -1.07316E+4
  -1.15068E+5  -9.53410E+3
  -1.14941E+5  -8.79279E+3
  -1.14499E+5  -8.02248E+3
  -1.14135E+5  -7.45079E+3
  -1.13612E+5  -6.58044E+3
  -1.13036E+5  -5.88393E+3
  -1.12685E+5  -5.42807E+3
  -1.12157E+5  -4.65986E+3
  -1.11745E+5  -4.07178E+3
  -1.11257E+5  -3.12699E+3
  -1.10501E+5  -2.87624E+3
  -1.09871E+5  -2.38557E+3
  -1.09342E+5  -1.68337E+3
  -1.08229E+5  -1.21754E+3
  -1.07243E+5  -7.03189E+2
  -1.06756E+5  -3.07230E+2
  -1.06006E+5   2.04341E+2
  -1.04879E+5   4.74244E+2
  -1.03785E+5   9.38570E+2
  -1.02860E+5   1.32583E+3
  -1.01939E+5   1.46320E+3
  -1.00757E+5   2.04664E+3
  -9.99157E+4   2.55235E+3
  -9.89295E+4   2.69906E+3
  -9.77860E+4   2.88598E+3
  -9.65113E+4   3.08201E+3
  -9.53747E+4   3.45238E+3
  -9.40485E+4   3.70779E+3
  -9.31323E+4   3.52351E+3
  -9.16620E+4   3.87127E+3
  -9.00934E+4   3.77731E+3
  -8.91115E+4   4.02950E+3
  -8.78252E+4   3.95909E+3
  -8.68370E+4   3.75352E+3
  -8.54007E+4   3.67306E+3
  -8.41179E+4   3.45240E+3
  -8.28160E+4   3.58795E+3
  -8.15818E+4   3.46076E+3
  -8.04646E+4   3.13732E+3
  -7.90130E+4   2.78503E+3
  -7.76668E+4   2.76315E+3
  -7.67446E+4   2.46872E+3
  -7.52315E+4   2.19537E+3
  -7.39712E+4   1.88437E+3
  -7.29111E+4   1.73386E+3
  -7.15251E+4   1.56074E+3
  -7.04362E+4   1.00099E+3
  -6.93537E+4   5.22256E+2
  -6.80974E+4   1.13290E+2
  -6.69662E+4  -1.77841E+2
  -6.58538E+4  -7.83116E+2
  -6.46408E+4  -1.18135E+3
  -6.33804E+4  -1.60334E+3
  -6.25082E+4  -2.08910E+3
  -6.13428E+4  -2.70269E+3
  -6.04056E+4  -3.09028E+3
  -5.91573E+4  -3.81159E+3
  -5.78777E+4  -4.02422E+3
  -5.70766E+4  -4.87941E+3
  -5.60527E+4  -5.09342E+3
  -5.54958E+4  -5.40031E+3
  -5.41190E+4  -6.16174E+3
  -5.31931E+4  -6.74581E+3
  -5.23644E+4  -7.30113E+3
  -5.15482E+4  -7.63480E+3
  -5.05893E+4  -7.93018E+3
  -4.96669E+4  -8.64403E+3
  -4.89766E+4  -9.12162E+3
  -4.82257E+4  -9.49764E+3
  -4.73496E+4  -9.93361E+3
  -4.65285E+4  -1.02826E+4
  -4.55154E+4  -1.08110E+4
  -4.47480E+4  -1.11010E+4
  -4.39804E+4  -1.14466E+4
  -4.31108E+4  -1.18216E+4
  -4.24734E+4  -1.21514E+4
  -4.18623E+4  -1.23284E+4
  -4.12122E+4  -1.25955E+4
  -4.04470E+4  -1.30961E+4
  -3.99243E+4  -1.31779E+4
  -3.93755E+4  -1.35012E+4
  -3.80991E+4  -1.36026E+4
  -3.78034E+4  -1.40215E+4
  -3.71041E+4  -1.40643E+4
  -3.67146E+4  -1.43949E+4
  -3.60961E+4  -1.47399E+4
  -3.55414E+4  -1.48816E+4
  -3.49901E+4  -1.47691E+4
  -3.43254E+4  -1.48332E+4
  -3.38428E+4  -1.50683E+4
  -3.32888E+4  -1.49360E+4
  -3.27913E+4  -1.50086E+4
  -3.21579E+4  -1.52276E+4
  -3.17075E+4  -1.51780E+4
  -3.11891E+4  -1.53680E+4
  -3.04490E+4  -1.53149E+4
  -3.02721E+4  -1.52961E+4
  -2.99492E+4  -1.51958E+4
  -2.95148E+4  -1.50494E+4
  -2.86619E+4  -1.52771E+4
  -2.84220E+4  -1.53356E+4
  -2.76236E+4  -1.51489E+4
  -2.73276E+4  -1.50381E+4
  -2.69246E+4  -1.49680E+4
  -2.62651E+4  -1.51429E+4
  -2.60261E+4  -1.46916E+4
  -2.55026E+4  -1.48151E+4
  -2.52869E+4  -1.47905E+4
  -2.48311E+4  -1.46386E+4
  -2.43184E+4  -1.45043E+4
  -2.37750E+4  -1.44016E+4
  -2.31922E+4  -1.43653E+4
  -2.29856E+4  -1.42708E+4
  -2.23165E+4  -1.43521E+4
  -2.19922E+4  -1.40912E+4
  -2.17775E+4  -1.39603E+4
  -2.11588E+4  -1.42335E+4
  -2.09335E+4  -1.37917E+4
  -2.04815E+4  -1.40121E+4
  -1.99269E+4  -1.38975E+4
  -1.93978E+4  -1.33035E+4
  -1.91663E+4  -1.31787E+4
  -1.87626E+4  -1.33499E+4
  -1.82885E+4  -1.32398E+4
  -1.79126E+4  -1.29856E+4
  -1.72049E+4  -1.31260E+4
  -1.68999E+4  -1.26677E+4
  -1.66042E+4  -1.27131E+4
  -1.60134E+4  -1.24863E+4
  -1.55203E+4  -1.24246E+4
  -1.51387E+4  -1.22677E+4
  -1.48209E+4  -1.20328E+4
  -1.43344E+4  -1.21734E+4
  -1.39509E+4  -1.21096E+4
  -1.35217E+4  -1.19176E+4
  -1.32369E+4  -1.18237E+4
  -1.28735E+4  -1.18236E+4
  -1.22905E+4  -1.15382E+4
  -1.18611E+4  -1.13524E+4
  -1.16877E+4  -1.15926E+4
  -1.13223E+4  -1.15392E+4
  -1.10081E+4  -1.11888E+4
  -1.05421E+4  -1.12610E+4
  -1.00537E+4  -1.10522E+4
  -9.96639E+3  -1.05441E+4
  -9.69282E+3  -1.05458E+4
  -8.97886E+3  -1.04176E+4
  -8.79795E+3  -1.05975E+4
  -8.40682E+3  -1.03476E+4
  -8.30368E+3  -1.03114E+4
  -7.90102E+3  -9.88964E+3
  -7.66161E+3  -9.69429E+3
  -7.52063E+3  -9.85250E+3
  -7.22732E+3  -9.64819E+3
  -6.88784E+3  -9.60004E+3
  -6.56747E+3  -9.60761E+3
  -6.29864E+3  -9.42128E+3
  -5.96556E+3  -9.18681E+3
  -5.76936E+3  -8.89242E+3
  -5.61080E+3  -9.04044E+3
  -5.39576E+3  -8.84853E+3
  -4.99787E+3  -8.77613E+3
  -4.77672E+3  -8.31682E+3
  -4.83744E+3  -8.17787E+3
  -4.55367E+3  -8.06895E+3
  -4.31281E+3  -8.00274E+3
  -4.06577E+3  -8.08239E+3
  -3.94737E+3  -7.60430E+3
  -3.81057E+3  -7.60463E+3
  -3.74405E+3  -7.35453E+3
  -3.48343E+3  -7.38805E+3
  -3.24716E+3  -7.19939E+3
  -3.33274E+3  -7.03329E+3
  -2.97717E+3  -6.81967E+3
  -3.15478E+3  -6.77279E+3
  -2.64372E+3  -6.47753E+3
  -3.05400E+3  -6.31257E+3
  -2.69644E+3  -5.90712E+3
  -2.65930E+3  -5.92530E+3
  -2.51090E+3  -5.80575E+3
  -2.50976E+3  -5.59979E+3
  -2.49029E+3  -5.54686E+3
  -2.31888E+3  -5.44330E+3
  -2.32315E+3  -4.93002E+3
  -2.19261E+3  -4.68923E+3
  -1.62264E+3  -4.95872E+3
  -1.89640E+3  -4.84463E+3
  -1.77713E+3  -4.39429E+3
  -1.60392E+3  -4.45603E+3
  -1.53419E+3  -4.43383E+3
  -2.02963E+3  -4.16170E+3
  -1.87675E+3  -3.94793E+3
  -1.43992E+3  -3.97305E+3
  -1.64665E+3  -3.83584E+3
  -1.55582E+3  -3.71349E+3
  -1.44001E+3  -3.67173E+3
  -1.47784E+3  -3.65376E+3
  -1.45878E+3  -3.28745E+3
  -1.29231E+3  -3.30035E+3
  -1.42231E+3  -3.03245E+3
  -1.49515E+3  -3.04485E+3
  -1.51878E+3  -3.10208E+3
  -1.30967E+3  -3.06082E+3
  -1.42061E+3  -2.49698E+3
  -1.37693E+3  -2.70963E+3
  -1.50085E+3  -2.52496E+3
  -1.41181E+3  -2.39559E+3
  -1.45211E+3  -2.06655E+3
  -1.48258E+3  -1.97528E+3
  -1.31030E+3  -2.27033E+3
  -1.28096E+3  -2.29348E+3
  -1.56642E+3  -1.94980E+3
  -1.54458E+3  -1.97921E+3
  -1.72695E+3  -1.83899E+3
  -1.71207E+3  -1.70463E+3
  -1.79696E+3  -1.64954E+3
  -1.60832E+3  -1.52309E+3
  -1.99317E+3  -1.62895E+3
  -1.85863E+3  -1.57248E+3
  -1.98830E+3  -1.41848E+3
  -2.00047E+3  -1.54552E+3
  -2.30256E+3  -1.74029E+3
  -2.01859E+3  -1.35417E+3
