 
 $NMID
 ID=''
 FMTDAT='(2E13.5)'
 TRAMP=   1.00000E+0
 VOLUME=   1.00000E+0
 $END
   2.38514E+3  -7.41524E+2
  -7.57693E+2   4.56135E+3
   4.76614E+3   2.80141E+3
   4.30283E+3   1.53886E+2
  -2.05025E+3  -4.23761E+2
  -2.26938E+3   3.29645E+0
   1.29000E+3   8.12713E+2
   2.52152E+3   1.64368E+3
   1.16857E+3   1.32284E+3
  -1.51590E+3   1.26799E+3
  -3.29569E+3   1.28071E+3
   3.60759E+1   2.57850E+2
   1.78607E+3   2.58760E+2
  -1.57925E+3   5.96017E+2
  -2.08292E+3  -1.84880E+3
   1.71136E+3  -2.24519E+3
   1.71014E+3   5.42327E+2
  -1.10706E+3   1.36776E+3
  -1.00588E+3  -1.19571E+3
   2.50718E+2  -7.31976E+2
   2.82250E+2   3.41951E+2
   2.45688E+2   1.69544E+2
   8.66522E+0   5.33215E+2
  -8.25755E+2   2.11926E+2
  -2.64319E+2  -5.42013E+2
   9.27379E+2  -1.25821E+2
   6.16248E+2   1.59154E+3
  -1.34439E+3  -1.10259E+2
  -3.80348E+2  -1.94921E+3
   6.85347E+2  -4.63195E+2
  -3.53691E+2   1.03448E+3
  -7.35338E+2   4.69410E+2
  -3.61801E+2  -7.83076E+2
  -7.54126E+0  -9.07165E+2
   1.16494E+3  -9.97361E+2
   1.40548E+3   1.71020E+2
   3.65947E+1   8.27826E+2
  -1.08415E+3  -4.45812E+1
  -1.61733E+2  -6.05773E+2
  -3.63377E+1  -6.38184E+1
  -5.37738E+2  -7.31377E+1
   2.44362E+2  -5.34025E+2
   1.28364E+3   6.03298E+1
   3.80887E+2   6.60708E+2
   3.71841E+2  -2.57857E+2
  -3.86537E+1   2.46684E+0
  -1.27300E+3   9.72204E+2
  -1.44180E+3  -2.67399E+2
   2.87867E+1  -1.26932E+3
   1.06159E+3  -3.51378E+2
   8.63859E+2   1.76147E+2
   1.86674E+2  -2.44947E+2
   2.61845E+2  -2.18073E+2
   2.85717E+2   2.43198E+2
  -3.36052E+2   7.28957E+1
  -5.51238E+2   1.11373E+2
  -8.01855E+1  -4.22754E+2
   6.73838E+2  -4.71312E+2
   7.14392E+2  -3.93881E+1
   4.16761E+2   4.29702E+2
  -1.56232E+2   1.91867E+2
  -1.54327E+2  -1.16986E+2
  -4.88885E+2   2.53283E+2
  -8.61028E+2  -2.12810E+2
  -3.26117E+2  -8.90754E+2
   3.25858E+2  -6.97180E+2
   6.93123E+2  -3.90466E+2
   7.21046E+2   1.53367E+2
   2.87927E+2   3.58927E+2
  -3.90475E+2   8.54117E+1
   2.25747E+1  -1.97944E+2
   6.43329E+2  -2.68216E+2
  -1.91408E+2   7.55895E+2
  -5.96655E+2   3.68058E+2
  -4.14305E+2  -2.38165E+2
   7.16142E+1  -1.75994E+2
   4.11928E+1   1.53253E+2
  -4.02156E+2  -3.58598E+1
  -4.36260E+2  -3.47702E+2
   3.54040E+1  -4.76711E+2
  -9.96166E+1  -2.69053E+2
  -8.58101E+0  -3.27232E+2
   1.56956E+2   1.34639E+2
   9.60288E+1   2.44981E+1
  -8.34039E+1  -1.65620E+2
  -2.47624E+1  -2.28170E+2
  -1.85945E+2   3.05786E+2
  -1.54498E+2   2.84443E+2
  -3.27617E+2   2.37704E+2
   2.70423E+1   1.72162E+1
  -1.16786E+2   2.42025E+2
  -2.80010E+2   1.12668E+2
  -2.68539E+2  -3.70135E+2
  -2.20956E+2  -4.19538E+2
   3.69657E+2  -4.46996E+2
   4.82792E+2   2.63536E+2
  -4.20247E+1   9.83275E+1
  -5.81671E+2   2.13194E+1
  -1.00719E+2  -1.42335E+2
   1.10294E+2   3.17888E+2
  -3.13913E+2   8.24235E+1
  -4.91873E+2  -1.03864E+2
   8.52145E+0  -4.38509E+2
   7.93884E+1  -1.25252E+2
   1.95746E+2   2.57005E+2
  -2.62838E+2   2.69862E+2
  -4.71987E+2   8.09165E+1
   1.03736E+1  -4.48180E+2
   1.74591E+2  -2.39956E+2
   1.81779E+2   2.25734E+2
  -2.47145E+2   7.08736E+2
  -5.29809E+2   3.99089E+2
  -2.82962E+2   1.38991E+2
  -3.36920E+2   1.07488E+2
  -4.62197E+1   1.28696E+2
  -1.39434E+2  -1.45827E+0
   2.20889E+0  -2.78208E+2
   3.30503E+2  -3.21493E+2
   1.92448E+2   1.13990E+1
   2.54234E+2   3.12548E+2
  -3.70562E+1   4.03579E+2
  -2.00097E+2   1.08141E+2
  -2.26579E+2   5.92264E+1
  -1.90992E+2  -3.82851E+1
  -1.53244E+2  -2.87536E+2
  -2.18541E+2  -1.72061E+2
  -9.69195E+1   2.32990E+2
  -2.04302E+1   4.53016E+1
  -7.54083E+1   8.97155E+1
  -2.49026E+2   6.50088E+1
  -4.33142E+2  -1.84371E+2
  -4.90623E+1  -2.42978E+2
   1.93830E+2   3.72919E+1
  -9.50314E+1   2.57158E+2
  -1.14844E+2   1.34394E+2
   1.31722E+2  -2.07524E+2
   2.94139E+2   5.57577E+1
  -2.25330E+2   3.70172E+2
  -4.47234E+2   2.63081E+1
  -1.58687E+2  -1.10140E+2
   3.71260E+1  -1.14462E+2
   1.10471E+2  -2.45381E+1
  -3.68574E+2   2.41328E+2
  -1.86455E+2   1.70374E+2
  -3.43457E+2  -3.28166E+2
  -2.88120E+1   9.70153E+1
  -1.55898E+1  -3.80397E+2
   1.35513E+2  -2.38983E+2
   1.10665E+2  -2.07140E+0
   1.57911E+1  -4.09624E-1
  -1.21836E+1  -8.03479E+0
  -7.76474E+1   3.61736E+1
  -1.65918E+2   1.06257E+2
  -2.32230E+2  -1.71177E+2
  -3.44570E+1  -8.12986E+1
   1.03953E+2  -1.98827E+2
   8.69201E+1  -6.91411E+1
  -1.27309E+2  -3.70427E+2
   1.53778E+2  -1.75971E+2
  -1.88487E+1   2.35499E+1
   7.45890E+1  -1.22032E+2
  -2.78498E+1  -1.08821E+2
   2.12758E+1   2.68406E+1
   2.66550E+1  -1.16557E+2
   3.54755E+1   7.90825E+1
  -1.00304E+1   1.33601E+2
  -2.73077E+2  -5.21557E+1
  -3.28999E+1  -1.57908E+2
  -1.35357E+2   1.84493E+1
   8.06208E+1  -1.55102E+2
   1.13729E+1  -1.00325E+2
  -1.02919E+2  -7.19024E+1
   4.87569E+1  -2.51044E+2
   3.73838E+2   4.45225E+1
   6.29672E+1  -1.87131E+2
  -7.36276E+0  -1.41480E+2
  -5.19116E+1   2.18775E+0
  -7.36495E+1   1.37989E+1
   3.04052E+1  -3.07127E+1
  -5.33440E+1   1.36103E+2
  -2.87346E+2  -3.37346E+2
  -1.41514E+2  -5.01419E+1
   1.20281E+2  -2.27817E+2
   1.09187E+2  -7.82176E+1
   1.43307E+2  -1.84797E+1
   5.18881E+1  -7.39060E+1
   2.55255E+2  -6.74848E+1
  -8.94177E+1  -1.63333E+2
   3.62445E+1   6.05865E+1
  -9.27375E+1   1.30212E+2
  -1.91451E+2  -3.22756E+2
   6.74625E+1  -2.89922E+2
   1.89411E+2   1.03743E+2
  -6.21277E+1   3.64396E+1
   2.09945E+1   1.83859E+2
   2.90855E+2   4.02497E+1
  -3.85656E+1   2.12991E+1
   6.20834E+1   2.51674E+2
  -3.25756E+1  -1.08044E+2
   1.35545E+2  -2.57380E+2
   4.93497E+1  -6.08480E+1
   7.21525E+0   1.46295E+2
   1.43793E+2  -1.22010E+2
  -7.04488E+1   5.87421E+1
   6.21899E+0  -2.99513E+2
   9.31938E+1  -1.99789E+2
  -1.19724E+2  -2.55792E+1
  -1.48820E+2   9.17393E+1
  -8.74947E+1   9.04001E+1
   5.46570E+1  -2.11224E+1
   1.85803E+2  -1.66787E+2
   2.02254E+2  -1.92585E+1
   1.50468E+1   6.30040E+1
  -1.35826E+2  -4.41236E+1
  -1.21339E+2  -2.56256E+2
   6.92794E+1  -1.01102E+2
  -1.28608E+2   1.16089E+2
   3.32456E+1  -1.62059E+2
   2.36577E+1   1.04863E+2
   1.40931E+2   3.50792E+1
  -3.86455E+1  -3.94415E+1
  -9.19071E+1  -5.12289E+1
   9.39545E+1   8.27659E+1
   1.81027E+2  -9.61002E+0
   1.89280E+2  -6.41537E+1
  -1.77101E+2   1.47999E+2
  -3.54374E+1   7.73856E+1
  -3.60498E+1  -2.00382E+2
  -2.34047E+0  -8.57561E+0
  -1.06285E+2   9.50288E+1
   6.54147E+1   5.63607E+1
  -8.13748E+1   4.21874E+1
   9.82540E+1   1.75672E+2
   1.04613E+2  -1.02157E+2
   7.87834E+1   1.07119E+1
   5.17882E+1  -1.90738E+2
   1.00183E+2  -4.80695E+1
  -7.27663E+1   1.16408E+2
   4.52594E+1   1.25786E+2
  -6.06565E+1  -3.52480E+1
  -8.61797E+1  -1.18843E+2
   2.24921E+2  -1.43591E+2
  -2.34929E+1  -4.66007E+1
   3.06301E+2  -8.22637E+0
   2.87941E+1  -1.59335E+1
  -2.34758E+2   9.04291E+0
   1.02463E+2  -6.21935E+1
   1.98501E+0   1.53920E+2
   2.19208E+1   4.42162E+1
  -3.10428E+2   2.14996E+2
  -5.56676E+1   3.12803E+1
  -2.35722E+2  -4.96976E+1
  -2.16256E+1  -1.55340E+1
   1.48322E+2   4.88075E+1
   1.56064E+1   2.45842E+2
  -2.43237E+1   3.30700E+1
  -6.43773E+1   1.04684E+2
   8.01612E+1  -6.18678E+1
   1.27044E+2   1.42622E+2
   3.83156E+2   1.45449E+2
  -1.13306E+2   6.21635E+1
  -2.63489E+0  -8.31267E-1
   1.93020E+2  -8.18395E+1
   1.77956E+2  -9.60269E+1
   1.20043E+2   7.02635E+0
  -3.16179E+1   1.40005E+1
  -2.63014E+2   1.43413E+2
  -1.24642E+2  -1.12188E+2
  -2.15405E+1   2.22037E+1
   1.74383E+2   8.25221E+1
  -1.60710E+1  -1.04019E+1
  -9.71532E+1   1.34846E+1
   2.03182E+2  -3.02243E+0
   2.75103E+2  -8.07045E+1
   6.72400E+1   7.30903E+1
  -5.90241E+1  -2.82203E+1
   2.47366E+1  -4.51664E+1
   1.45504E+2  -1.09103E+2
   7.52530E+1  -1.47703E+2
   3.61196E+1   3.32416E+1
  -2.88647E+2  -1.23550E+2
  -9.26391E+0   1.86174E+2
  -1.64090E+2   1.54891E+1
   3.22336E+2   6.61580E+1
   1.65519E+1  -6.60938E+1
  -1.93253E+1  -1.60663E+2
   1.24808E+1   6.00637E+1
  -1.10563E+2   4.71238E+1
   2.00981E+2   2.08034E+2
   2.18325E+2   2.21692E+2
   4.63511E+0   1.18470E+2
  -8.04380E+1  -8.15199E+1
   1.27995E+2   9.85940E+0
   1.95010E+2   1.37519E+2
   5.37545E+1   2.09250E+2
  -1.98949E+2   6.86617E+1
   6.32680E+1  -5.42379E+1
   1.31426E+2   2.52834E+1
   5.00732E+1   1.09313E+2
  -3.40618E+1   3.40304E+1
   9.95975E+1   3.32799E+1
   1.51280E+2  -4.52303E+1
  -1.88130E+1   4.72565E+1
   2.52280E+2   1.75753E+2
   8.97590E+1  -1.39422E+2
  -4.96598E+1   1.60917E+2
   1.74809E+2   9.85794E+1
   5.87568E+1   7.68615E+1
   5.30077E+1   5.01093E+1
  -1.11603E+2  -3.58465E+0
   1.31668E+2  -8.79109E+1
   1.36379E+2  -1.12340E+2
   1.55864E+2   1.32388E+2
   1.52998E+2  -1.65985E+1
   1.00594E+2  -1.65749E+2
  -1.36435E+2  -1.82690E+2
   5.89371E+1  -1.23793E+2
  -1.67075E+2   5.09588E+1
  -8.33758E+1   1.46138E+1
   2.24156E+2  -6.12786E+1
   3.42838E+1   8.53672E+1
   3.75421E+0   6.46558E+1
   1.19829E+2   1.76102E+2
   1.53562E+2   5.33265E+1
   2.56799E+1  -1.44597E+1
   1.84861E+2   1.09342E+2
   1.09073E+2   8.99839E+1
  -4.90200E+1   5.22839E+1
   6.61619E+1  -1.27036E+2
  -1.42712E+2  -6.09078E+1
   1.27399E+2   2.80486E+2
   1.16196E+2   2.25265E+2
   1.61073E+2   6.30708E+1
   1.05717E+2  -1.90973E+2
   1.26072E+2  -1.59128E+2
   2.04609E+2  -2.99077E+1
   1.26658E+2   6.89516E+1
  -1.16232E+2  -7.27940E+1
   3.15575E+1  -5.14376E+1
   6.50782E+1  -2.07294E+2
  -1.27485E+0  -2.24416E+1
   5.04413E+1  -1.51381E+2
   1.37638E+2  -1.04395E+2
   5.32776E+1   6.24196E+1
   5.74472E+1  -4.17557E+1
  -2.10008E+2  -4.68849E+1
   9.04515E-1   8.53372E+1
  -1.51911E+2  -2.78225E+2
  -1.37028E+1  -2.05251E+2
   1.38133E+2   8.02494E+1
  -6.12097E+1   2.71137E+1
  -2.24920E+1  -5.15409E+1
  -2.40576E+2  -6.87880E+0
  -1.86400E+2  -4.08299E+1
   2.00259E+1   2.32028E+0
  -1.99204E+2  -2.48656E+2
   2.72379E+1   7.50323E+1
  -1.36207E+1  -3.08924E+1
   1.38500E+2   5.48166E+1
   1.33503E+2   1.39824E+2
  -1.59135E+2   1.35499E+2
  -7.45543E+1   1.44927E+2
  -2.51601E+2  -4.29535E+1
   1.64683E+2  -2.33315E+0
   3.05626E+2   1.08758E+2
   6.95245E+1   2.98888E+1
   1.05172E+1   6.58534E+1
