 LCModel (Version 6.3-1N) Copyright: S.W. Provencher.          Ref.: Magn. Reson. Med. 30:672-679 (1993).                
 Slice_N1@9_12  28-Feb-2025 11:44:24
 27 lines in following concentration table = NCONC+1
    Conc.  %SD /Cr+PCr  Metabolite                                         
 3.68E-04   4% 4.1E-04 Mac                                                 
    2.235  83%   2.496 Cr                                                  
    4.929  38%   5.504 PCr                                                 
    6.029  18%   6.733 Ins                                                 
   11.505   9%  12.848 NAA                                                 
    5.550  20%   6.198 Tau                                                 
    0.000 999%   0.000 PCho                                                
    0.876  41%   0.978 GPC                                                 
   11.782  11%  13.158 Glu                                                 
    5.314  19%   5.934 Gln                                                 
    5.222  17%   5.832 Ala                                                 
    0.905 168%   1.011 Asc                                                 
    2.171  46%   2.424 Asp                                                 
    0.000 999%   0.000 GABA                                                
    0.721  92%   0.806 Glc                                                 
    0.562 109%   0.628 GSH                                                 
    1.133  75%   1.265 Lac                                                 
    2.391  33%   2.670 NAAG                                                
    3.222  43%   3.598 PE                                                  
    0.876  41%   0.978 GPC+PCho                                            
   13.896   7%  15.518 NAA+NAAG                                            
   17.096   9%  19.092 Glu+Gln                                             
    7.164  11%   8.000 Cr+PCr                                              
   13.896   7%  15.518 NAA+NAAG                                            
    7.164  11%   8.000 Cr+PCr                                              
   17.096   9%  19.092 Glu+Gln                                             
   6 lines in following misc. output table
  FWHM = 0.033 ppm    S/N =   3                                            
  Data shift = 0.041 ppm                                                   
  Ph: 152 deg       0.0 deg/ppm                                            
  alphaB,S = 3.8E-01,   6.2E+00                                            
   19 spline knots.   Ns = 5(1)                                            
  ( 4) 2 infls.   ( 4) 2 extrs.                                            
  480 points on ppm-axis = NY
      4.100000     4.091866     4.083733     4.075600     4.067466     4.059333     4.051199     4.043066     4.034933     4.026799
      4.018666     4.010532     4.002399     3.994265     3.986132     3.977998     3.969864     3.961731     3.953597     3.945463
      3.937330     3.929196     3.921062     3.912929     3.904795     3.896662     3.888528     3.880394     3.872261     3.864127
      3.855993     3.847860     3.839726     3.831592     3.823459     3.815325     3.807191     3.799058     3.790924     3.782790
      3.774657     3.766523     3.758389     3.750256     3.742122     3.733989     3.725855     3.717721     3.709588     3.701454
      3.693320     3.685187     3.677053     3.668919     3.660786     3.652652     3.644518     3.636385     3.628251     3.620117
      3.611984     3.603850     3.595716     3.587583     3.579449     3.571316     3.563182     3.555048     3.546915     3.538781
      3.530647     3.522514     3.514380     3.506246     3.498113     3.489979     3.481845     3.473712     3.465578     3.457444
      3.449311     3.441177     3.433043     3.424910     3.416776     3.408643     3.400509     3.392375     3.384242     3.376108
      3.367974     3.359841     3.351707     3.343573     3.335440     3.327306     3.319172     3.311039     3.302905     3.294771
      3.286638     3.278504     3.270370     3.262237     3.254103     3.245970     3.237836     3.229702     3.221569     3.213435
      3.205301     3.197168     3.189034     3.180900     3.172767     3.164633     3.156499     3.148366     3.140232     3.132098
      3.123965     3.115831     3.107697     3.099564     3.091430     3.083297     3.075163     3.067029     3.058896     3.050762
      3.042628     3.034495     3.026361     3.018227     3.010094     3.001960     2.993826     2.985693     2.977559     2.969425
      2.961292     2.953158     2.945024     2.936891     2.928757     2.920624     2.912490     2.904356     2.896223     2.888089
      2.879955     2.871822     2.863688     2.855554     2.847421     2.839287     2.831153     2.823020     2.814886     2.806752
      2.798619     2.790485     2.782351     2.774218     2.766084     2.757951     2.749817     2.741683     2.733550     2.725416
      2.717282     2.709149     2.701015     2.692881     2.684748     2.676614     2.668480     2.660347     2.652213     2.644079
      2.635946     2.627812     2.619678     2.611545     2.603411     2.595278     2.587144     2.579010     2.570877     2.562743
      2.554609     2.546476     2.538342     2.530208     2.522075     2.513941     2.505807     2.497674     2.489540     2.481406
      2.473273     2.465139     2.457006     2.448872     2.440738     2.432605     2.424471     2.416337     2.408204     2.400070
      2.391936     2.383803     2.375669     2.367535     2.359402     2.351268     2.343134     2.335001     2.326867     2.318733
      2.310600     2.302466     2.294333     2.286199     2.278065     2.269932     2.261798     2.253664     2.245531     2.237397
      2.229263     2.221130     2.212996     2.204862     2.196729     2.188595     2.180461     2.172328     2.164194     2.156060
      2.147927     2.139793     2.131660     2.123526     2.115392     2.107259     2.099125     2.090991     2.082858     2.074724
      2.066590     2.058457     2.050323     2.042189     2.034056     2.025922     2.017788     2.009655     2.001521     1.993387
      1.985254     1.977120     1.968987     1.960853     1.952719     1.944586     1.936452     1.928318     1.920185     1.912051
      1.903917     1.895784     1.887650     1.879516     1.871383     1.863249     1.855115     1.846982     1.838848     1.830714
      1.822581     1.814447     1.806314     1.798180     1.790046     1.781913     1.773779     1.765645     1.757512     1.749378
      1.741244     1.733111     1.724977     1.716843     1.708710     1.700576     1.692442     1.684309     1.676175     1.668041
      1.659908     1.651774     1.643641     1.635507     1.627373     1.619240     1.611106     1.602972     1.594839     1.586705
      1.578571     1.570438     1.562304     1.554170     1.546037     1.537903     1.529769     1.521636     1.513502     1.505368
      1.497235     1.489101     1.480968     1.472834     1.464700     1.456567     1.448433     1.440299     1.432166     1.424032
      1.415898     1.407765     1.399631     1.391497     1.383364     1.375230     1.367096     1.358963     1.350829     1.342695
      1.334562     1.326428     1.318295     1.310161     1.302027     1.293894     1.285760     1.277626     1.269493     1.261359
      1.253225     1.245092     1.236958     1.228824     1.220691     1.212557     1.204423     1.196290     1.188156     1.180022
      1.171889     1.163755     1.155622     1.147488     1.139354     1.131221     1.123087     1.114953     1.106820     1.098686
      1.090552     1.082419     1.074285     1.066151     1.058018     1.049884     1.041750     1.033617     1.025483     1.017349
      1.009216     1.001082     0.992949     0.984815     0.976681     0.968548     0.960414     0.952280     0.944147     0.936013
      0.927879     0.919746     0.911612     0.903478     0.895345     0.887211     0.879077     0.870944     0.862810     0.854676
      0.846543     0.838409     0.830276     0.822142     0.814008     0.805875     0.797741     0.789607     0.781474     0.773340
      0.765206     0.757073     0.748939     0.740805     0.732672     0.724538     0.716404     0.708271     0.700137     0.692003
      0.683870     0.675736     0.667603     0.659469     0.651335     0.643202     0.635068     0.626934     0.618801     0.610667
      0.602533     0.594400     0.586266     0.578132     0.569999     0.561865     0.553731     0.545598     0.537464     0.529330
      0.521197     0.513063     0.504930     0.496796     0.488662     0.480529     0.472395     0.464261     0.456128     0.447994
      0.439861     0.431727     0.423593     0.415460     0.407326     0.399192     0.391059     0.382925     0.374792     0.366658
      0.358524     0.350391     0.342257     0.334124     0.325990     0.317856     0.309723     0.301589     0.293455     0.285322
      0.277188     0.269055     0.260921     0.252787     0.244654     0.236520     0.228386     0.220253     0.212119     0.203986
 NY phased data points follow
  -5.10598E+01 -2.86023E+01 -3.87894E+01 -6.21518E+01 -5.78613E+01 -4.31635E+01 -2.96203E+01 -5.00718E+01 -4.65256E+01 -4.96471E+01
  -5.76671E+01 -6.23742E+01 -8.12359E+01 -6.34191E+01 -7.16992E+01 -7.71984E+01 -6.87276E+01 -8.64580E+01 -1.09200E+02 -1.11161E+02
  -9.77138E+01 -8.09816E+01 -7.79535E+01 -6.49856E+01 -3.11683E+01 -7.62362E+00  6.88273E+00 -1.29424E+01  1.27770E+00  1.39560E+01
   2.49127E+01  1.46471E+01 -1.24275E+01  1.10190E+01 -3.37559E+00  6.82611E+00 -1.66371E+01 -5.13057E+01 -4.57261E+01 -3.84935E+01
  -5.33548E+01 -1.02331E+02 -8.37652E+01 -5.77951E+01 -4.16673E+01 -2.05820E+01  1.51172E+01  1.67124E+01  2.19813E+01  4.77156E+01
   2.95300E+01  4.54013E+01  3.84634E+01  1.64716E+01  1.22880E+01  1.42722E+01 -1.32373E+01 -1.43240E+01 -1.79123E+00 -3.16428E+01
  -1.50585E+01 -1.70697E+01 -8.68264E+00  6.08881E+00  1.82008E+01  4.35701E+01  2.44588E+01  8.04100E+00  3.06160E+00 -1.86024E+01
  -4.39453E+01 -2.85676E+01 -9.02192E+00 -1.52660E+01 -2.74305E+00  1.94510E+01  2.17168E+01  3.47519E+01  3.75569E+01  4.11617E+01
   2.24152E+01 -9.56228E+00  9.28394E+00 -1.59473E+01 -1.14193E+01  1.38755E+00 -1.07393E+01  5.33063E+00 -9.96116E+00  4.65541E-01
   1.87253E+01  3.19102E+01  3.00617E+01  2.98234E+01  5.60126E+01  5.08790E+01  4.63579E+01  6.17867E+01  5.75169E+01  3.30040E+01
   2.27604E+01  3.18118E+01  2.52464E+01 -4.11906E+00 -2.19706E+00 -1.29029E+01 -4.16178E+01 -3.42685E+01 -6.21797E+01 -1.24540E+02
  -1.30350E+02 -1.21953E+02 -1.46162E+02 -1.07421E+02 -7.77925E+01 -8.31852E+01 -6.04069E+01 -7.18524E+01 -6.52145E+01 -5.01731E+01
  -5.19659E+01 -2.87596E+01 -2.72800E+01 -3.11171E+01 -1.94158E+01 -1.91143E+00  2.81073E+01  2.47151E+01  4.39727E+01  9.07743E+01
   6.78214E+01  4.26052E+01  2.30165E+01 -3.09729E+01 -9.28392E+01 -1.33298E+02 -1.08320E+02 -1.07260E+02 -1.31696E+02 -1.04782E+02
  -1.12566E+02 -1.04950E+02 -7.47958E+01 -1.02056E+02 -9.51831E+01 -8.62442E+01 -9.56700E+01 -7.77519E+01 -1.00641E+02 -1.01993E+02
  -8.02359E+01 -1.00351E+02 -7.35165E+01 -6.43795E+01 -7.03913E+01 -4.93947E+01 -6.79648E+01 -6.54467E+01 -6.90618E+01 -6.23017E+01
  -5.83879E+01 -6.36713E+01 -4.53528E+01 -6.58248E+01 -5.64068E+01 -5.53629E+01 -6.97427E+01 -5.23883E+01 -4.93738E+01 -4.73631E+01
  -4.49646E+01 -3.53300E+01 -2.14301E+01 -4.07541E+00  8.46990E-01 -1.09116E+01 -1.08534E+01 -1.86376E+01 -2.16854E+01 -1.98133E+01
  -4.07961E+01 -4.87942E+01 -6.00574E+01 -8.06935E+01 -8.98431E+01 -7.02646E+01 -6.13866E+01 -7.79457E+01 -6.24422E+01 -7.31509E+01
  -5.71800E+01 -4.15685E+01 -5.39182E+01 -6.86859E+01 -8.90074E+01 -4.88780E+01 -5.48025E+01 -5.87205E+01 -4.94043E+01 -4.25164E+01
  -3.41291E+01 -5.27018E+01 -2.77061E+01 -1.87157E+01 -1.70342E+01 -2.94057E+01 -3.18489E+01 -4.10402E+01 -6.56222E+01 -6.57281E+01
  -7.24335E+01 -7.68774E+01 -8.07966E+01 -3.66194E+01 -1.70503E+01  2.35409E+00  3.84763E+01  3.31091E+01  3.90277E+01  3.71476E+01
   1.23241E+01 -2.27347E+01 -2.82980E+01 -3.96480E+01 -3.94633E+01 -3.19332E+01 -4.26516E+01 -1.79373E+01 -2.50224E+01 -4.08233E+01
  -3.92770E+01 -4.97200E+01 -5.35198E+01 -7.01632E+01 -7.16313E+01 -7.26715E+01 -9.87019E+01 -1.23957E+02 -1.39345E+02 -1.31453E+02
  -1.28591E+02 -1.23539E+02 -1.16442E+02 -9.46357E+01 -7.97737E+01 -7.29355E+01 -5.03452E+01 -7.55836E+01 -7.04542E+01 -8.07551E+01
  -1.04016E+02 -8.33802E+01 -9.83159E+01 -1.09491E+02 -1.20126E+02 -1.29334E+02 -1.24332E+02 -8.64136E+01 -1.74072E+01  9.38996E+01
   1.61661E+02  1.23462E+02  1.03091E+02  1.12223E+02  1.03319E+02  7.77788E+01  6.98738E+01  4.75333E+01  6.02518E+01  6.86517E+01
   3.72679E+01  4.45542E+01  3.90336E+01  3.99717E+01  4.48699E+01  3.47380E+01  2.84693E+01  3.30882E+01  1.56120E+01  2.98964E+01
   3.05786E+01  8.83200E+00  2.94119E+01  2.09425E+01  3.97157E+01  1.37173E+01  1.11867E+01  2.12642E+01 -1.06495E+01  1.44341E+01
   5.77022E-01 -1.27962E+01 -1.87126E+00  1.45469E+00 -6.06892E+00 -1.37738E+00 -2.46737E+00  1.21400E+01  5.71018E+00 -1.73059E+01
   1.34368E+01 -5.35888E+00 -3.27862E-01  1.07484E+01  9.82332E-02 -2.66174E+00  5.15219E+00  4.90730E+00  4.15773E+00  5.17027E+01
   4.16618E+01  6.26263E+01  8.80377E+01  7.95566E+01  9.76646E+01  7.12704E+01  5.94875E+01  6.98684E+01  5.77595E+01  5.64506E+01
   5.03721E+01  2.84403E+01  1.63318E+01  6.37514E+00  1.41147E+01  4.49809E+00 -4.32503E+00 -2.97662E+01 -5.19378E+01 -3.85022E+01
  -8.40638E+01 -1.00922E+02 -1.19760E+02 -1.50487E+02 -1.46828E+02 -1.70289E+02 -1.74204E+02 -1.61884E+02 -1.52630E+02 -1.42055E+02
  -1.25536E+02 -1.01871E+02 -9.54539E+01 -9.43858E+01 -9.33234E+01 -1.06135E+02 -9.38722E+01 -1.00189E+02 -1.04731E+02 -6.96674E+01
  -8.86862E+01 -9.34258E+01 -6.35441E+01 -6.94399E+01 -6.90214E+01 -6.94031E+01 -7.98199E+01 -6.76531E+01 -7.86402E+01 -6.97388E+01
  -6.53434E+01 -8.87501E+01 -7.86635E+01 -6.83442E+01 -5.00602E+01 -7.00683E+01 -6.33226E+01 -6.05337E+01 -6.67379E+01 -4.53089E+01
  -5.39099E+01 -3.48219E+01 -5.15404E+01 -3.82469E+01 -2.25773E+01 -3.54843E+01 -3.25499E+01 -2.93807E+01 -1.91145E+01 -3.10075E+01
  -1.32512E+01  6.89745E-02  9.75363E+00  8.62655E+00  3.30933E+01  4.48997E+01  5.05315E+01  7.80941E+01  6.07935E+01  5.48048E+01
   4.67658E+01  7.75678E+01  4.60691E+01  1.22531E+01  2.63844E+01  9.92897E-01 -1.27951E+01 -3.46795E+01 -1.24413E+01 -1.74177E+01
  -3.78774E+01 -4.99925E+01 -5.80304E+01 -6.17218E+01 -8.50319E+01 -8.57669E+01 -9.44293E+01 -8.88800E+01 -9.32106E+01 -8.01564E+01
  -7.86900E+01 -1.15987E+02 -1.01696E+02 -7.63508E+01 -1.05157E+02 -1.00599E+02 -7.84183E+01 -9.72206E+01 -7.87144E+01 -8.11130E+01
  -7.84353E+01 -8.88577E+01 -9.64123E+01 -7.50741E+01 -1.10007E+02 -1.10514E+02 -1.03115E+02 -9.91645E+01 -9.73429E+01 -1.02283E+02
  -8.33733E+01 -9.39593E+01 -9.20164E+01 -7.12239E+01 -8.41543E+01 -8.80475E+01 -8.85562E+01 -9.33249E+01 -8.56863E+01 -1.09300E+02
  -1.02857E+02 -9.40520E+01 -9.34760E+01 -7.86591E+01 -1.01297E+02 -9.81852E+01 -9.20002E+01 -8.43046E+01 -7.34254E+01 -7.84245E+01
  -7.93911E+01 -9.37958E+01 -9.31113E+01 -8.86509E+01 -7.72308E+01 -7.88110E+01 -1.01870E+02 -8.06965E+01 -8.04955E+01 -8.31230E+01
  -7.48746E+01 -9.81896E+01 -7.23144E+01 -7.15608E+01 -6.89465E+01 -6.15381E+01 -9.81714E+01 -7.79394E+01 -6.77093E+01 -7.94336E+01
  -9.15857E+01 -7.63187E+01 -5.91962E+01 -7.59236E+01 -7.70859E+01 -7.80733E+01 -7.33253E+01 -9.02464E+01 -8.14844E+01 -7.23853E+01
 NY points of the fit to the data follow
  -4.40191E+01 -4.99861E+01 -5.58470E+01 -5.90503E+01 -5.83614E+01 -5.36100E+01 -4.51998E+01 -3.72928E+01 -3.66252E+01 -4.29975E+01
  -5.12893E+01 -5.88350E+01 -6.56887E+01 -7.11468E+01 -7.32215E+01 -7.08856E+01 -7.18607E+01 -7.66877E+01 -8.35442E+01 -8.92778E+01
  -9.23000E+01 -8.75772E+01 -6.96321E+01 -4.31482E+01 -2.22496E+01 -1.13280E+01 -2.10930E+00  2.10855E+00  5.10568E+00  8.58090E+00
   1.07505E+01  1.12393E+01  1.05869E+01  9.16969E+00  7.73698E+00  4.86560E+00 -1.27135E+00 -1.32814E+01 -3.11877E+01 -5.25286E+01
  -7.30325E+01 -8.51743E+01 -8.24166E+01 -6.40492E+01 -3.80155E+01 -1.23629E+01  6.98293E+00  1.91367E+01  2.47586E+01  2.60571E+01
   2.58106E+01  2.31688E+01  1.80671E+01  1.30474E+01  8.61631E+00  1.95327E+00 -5.04711E+00 -1.01350E+01 -1.46900E+01 -2.03469E+01
  -2.38865E+01 -1.97084E+01 -1.02777E+01 -1.70053E+00  9.41907E+00  2.05222E+01  2.11288E+01  1.39243E+01  3.41031E+00 -1.16366E+01
  -2.54081E+01 -2.88651E+01 -2.17619E+01 -1.28440E+01 -5.09408E+00  6.60927E+00  1.89066E+01  2.56798E+01  3.10206E+01  3.19912E+01
   2.92352E+01  1.97919E+01  6.12431E+00 -8.89454E+00 -2.01630E+01 -2.46786E+01 -2.16034E+01 -1.26365E+01 -3.32517E+00  7.12504E+00
   1.32583E+01  1.90177E+01  2.37691E+01  2.78980E+01  3.23256E+01  3.53867E+01  3.68511E+01  3.88668E+01  4.12892E+01  4.15440E+01
   4.16534E+01  3.90932E+01  3.36180E+01  2.00779E+01  6.74183E+00 -4.94512E+00 -2.03227E+01 -4.22445E+01 -6.44040E+01 -8.78620E+01
  -1.14432E+02 -1.28406E+02 -1.25175E+02 -1.07634E+02 -9.30809E+01 -8.08338E+01 -7.01138E+01 -6.11096E+01 -5.32579E+01 -4.63342E+01
  -4.00018E+01 -3.39590E+01 -2.75041E+01 -1.99288E+01 -1.04482E+01 -4.64956E-01  8.15038E+00  3.12834E+01  5.92865E+01  7.93839E+01
   8.06091E+01  6.66087E+01  3.20417E+01 -2.60595E+01 -8.35381E+01 -1.06932E+02 -1.01544E+02 -1.03210E+02 -1.01661E+02 -9.96479E+01
  -9.87417E+01 -9.83897E+01 -9.80387E+01 -9.77320E+01 -9.73714E+01 -9.64665E+01 -9.46440E+01 -9.18828E+01 -8.85002E+01 -8.49927E+01
  -8.18300E+01 -7.89763E+01 -7.62999E+01 -7.36425E+01 -7.10792E+01 -6.85052E+01 -6.62626E+01 -6.46079E+01 -6.30839E+01 -6.14685E+01
  -5.98423E+01 -5.86656E+01 -5.80063E+01 -5.77774E+01 -5.79888E+01 -5.81774E+01 -5.88008E+01 -6.00444E+01 -5.98773E+01 -5.62200E+01
  -4.96027E+01 -4.15123E+01 -3.35928E+01 -2.81485E+01 -2.67735E+01 -2.85156E+01 -2.72979E+01 -2.24433E+01 -2.09766E+01 -2.83466E+01
  -4.14863E+01 -5.33782E+01 -6.06709E+01 -6.55094E+01 -6.99560E+01 -7.21496E+01 -7.33458E+01 -7.32605E+01 -7.24254E+01 -7.30887E+01
  -7.33342E+01 -7.14136E+01 -6.88088E+01 -6.64082E+01 -6.31750E+01 -5.66794E+01 -5.07891E+01 -5.01111E+01 -4.94264E+01 -4.45010E+01
  -4.02190E+01 -3.81408E+01 -3.45148E+01 -2.93612E+01 -2.52191E+01 -2.77695E+01 -3.55157E+01 -4.55280E+01 -5.69091E+01 -6.93827E+01
  -8.23662E+01 -8.64798E+01 -8.28557E+01 -6.83560E+01 -4.58219E+01 -1.86272E+01  5.95347E+00  2.08236E+01  2.16282E+01  1.51355E+01
   5.95460E+00 -6.61756E+00 -1.07693E+01 -1.24371E+01 -1.29602E+01 -1.32409E+01 -1.52053E+01 -1.94145E+01 -2.69206E+01 -3.68666E+01
  -4.88899E+01 -6.26940E+01 -7.67497E+01 -9.02874E+01 -1.02605E+02 -1.12806E+02 -1.20658E+02 -1.25734E+02 -1.28234E+02 -1.29204E+02
  -1.26524E+02 -1.20810E+02 -1.12573E+02 -1.00051E+02 -8.76227E+01 -7.74848E+01 -7.11729E+01 -6.80572E+01 -7.13761E+01 -7.94378E+01
  -8.51943E+01 -7.99816E+01 -8.96638E+01 -1.14554E+02 -1.33440E+02 -1.33643E+02 -1.21241E+02 -9.27329E+01 -2.30750E+01  6.58074E+01
   1.13166E+02  1.08051E+02  1.02063E+02  9.55266E+01  8.61630E+01  7.84955E+01  7.20245E+01  6.61869E+01  6.10101E+01  5.68515E+01
   5.35680E+01  5.14059E+01  4.99135E+01  4.87587E+01  4.74725E+01  4.62568E+01  4.49054E+01  4.33734E+01  4.18139E+01  4.00969E+01
   3.82589E+01  3.58932E+01  3.32741E+01  3.05480E+01  2.79126E+01  2.52830E+01  2.24003E+01  1.93166E+01  1.60917E+01  1.24078E+01
   7.89869E+00  2.66861E+00 -3.12396E+00 -8.75176E+00 -1.38150E+01 -1.76368E+01 -1.95314E+01 -1.94752E+01 -1.79914E+01 -1.55752E+01
  -1.27279E+01 -9.58669E+00 -6.13352E+00 -2.72566E+00  4.08160E-01  3.32833E+00  6.27802E+00  9.24455E+00  1.23441E+01  1.56076E+01
   1.88802E+01  2.18620E+01  2.44200E+01  2.69447E+01  2.94236E+01  3.15937E+01  3.30832E+01  3.42711E+01  3.82714E+01  4.28671E+01
   4.43793E+01  4.25205E+01  3.23991E+01  1.17687E+01 -1.80293E+01 -4.72609E+01 -6.88084E+01 -8.20320E+01 -8.95001E+01 -9.00676E+01
  -9.06589E+01 -9.65730E+01 -1.00062E+02 -1.02210E+02 -1.01673E+02 -9.82695E+01 -9.25207E+01 -8.50419E+01 -7.80731E+01 -7.19295E+01
  -6.78239E+01 -6.54914E+01 -6.51823E+01 -6.55391E+01 -6.54066E+01 -6.37025E+01 -6.05445E+01 -5.67983E+01 -5.28264E+01 -5.09622E+01
  -5.00714E+01 -5.11426E+01 -5.42935E+01 -5.90227E+01 -6.46851E+01 -7.05157E+01 -7.52934E+01 -7.82224E+01 -7.93128E+01 -7.86372E+01
  -7.65001E+01 -7.31073E+01 -6.89807E+01 -6.43711E+01 -5.96837E+01 -5.52435E+01 -5.09506E+01 -4.69037E+01 -4.30098E+01 -3.91925E+01
  -3.54215E+01 -3.17399E+01 -2.80334E+01 -2.41156E+01 -1.99820E+01 -1.53567E+01 -1.00196E+01 -3.89749E+00  2.67499E+00  9.99929E+00
   1.84149E+01  2.76833E+01  3.76934E+01  4.89096E+01  6.06289E+01  7.09314E+01  7.79206E+01  8.01359E+01  7.67830E+01  6.78242E+01
   5.50573E+01  4.09914E+01  2.82299E+01  1.72098E+01  7.65260E+00 -1.22917E+00 -1.03062E+01 -2.07417E+01 -3.26669E+01 -4.48776E+01
  -5.65996E+01 -6.72789E+01 -7.62091E+01 -8.28600E+01 -8.78877E+01 -9.16927E+01 -9.42284E+01 -9.59623E+01 -9.74270E+01 -9.86530E+01
  -9.97529E+01 -1.00554E+02 -1.01108E+02 -1.01118E+02 -1.00947E+02 -1.00962E+02 -1.00889E+02 -1.00636E+02 -1.00358E+02 -1.00415E+02
  -1.00236E+02 -9.96812E+01 -9.90867E+01 -9.89488E+01 -9.89259E+01 -9.85856E+01 -9.82956E+01 -9.79738E+01 -9.76270E+01 -9.70106E+01
  -9.63822E+01 -9.60124E+01 -9.59389E+01 -9.59613E+01 -9.58152E+01 -9.56139E+01 -9.51337E+01 -9.46062E+01 -9.40653E+01 -9.35308E+01
  -9.28636E+01 -9.23671E+01 -9.20923E+01 -9.18165E+01 -9.17247E+01 -9.17590E+01 -9.16749E+01 -9.12425E+01 -9.07124E+01 -9.03205E+01
  -9.00433E+01 -8.97841E+01 -8.95182E+01 -8.92932E+01 -8.87420E+01 -8.81257E+01 -8.76177E+01 -8.71588E+01 -8.66235E+01 -8.61898E+01
  -8.58163E+01 -8.54601E+01 -8.53970E+01 -8.53976E+01 -8.53719E+01 -8.49943E+01 -8.44051E+01 -8.35239E+01 -8.26468E+01 -8.19111E+01
  -8.15004E+01 -8.14420E+01 -8.14897E+01 -8.13891E+01 -8.09464E+01 -8.04270E+01 -8.00262E+01 -7.97410E+01 -7.94707E+01 -7.91781E+01
 NY background values follow
    -1.028E+01   -1.031E+01   -1.033E+01   -1.036E+01   -1.039E+01   -1.042E+01   -1.045E+01   -1.048E+01   -1.050E+01   -1.053E+01
    -1.056E+01   -1.059E+01   -1.062E+01   -1.064E+01   -1.067E+01   -1.070E+01   -1.073E+01   -1.076E+01   -1.078E+01   -1.081E+01
    -1.084E+01   -1.087E+01   -1.090E+01   -1.092E+01   -1.095E+01   -1.098E+01   -1.101E+01   -1.104E+01   -1.107E+01   -1.109E+01
    -1.112E+01   -1.115E+01   -1.118E+01   -1.121E+01   -1.124E+01   -1.126E+01   -1.129E+01   -1.132E+01   -1.135E+01   -1.138E+01
    -1.141E+01   -1.144E+01   -1.147E+01   -1.150E+01   -1.153E+01   -1.156E+01   -1.159E+01   -1.162E+01   -1.166E+01   -1.169E+01
    -1.172E+01   -1.176E+01   -1.179E+01   -1.182E+01   -1.186E+01   -1.189E+01   -1.193E+01   -1.197E+01   -1.200E+01   -1.204E+01
    -1.208E+01   -1.212E+01   -1.216E+01   -1.220E+01   -1.224E+01   -1.228E+01   -1.233E+01   -1.237E+01   -1.241E+01   -1.246E+01
    -1.250E+01   -1.255E+01   -1.260E+01   -1.265E+01   -1.269E+01   -1.274E+01   -1.279E+01   -1.284E+01   -1.290E+01   -1.295E+01
    -1.300E+01   -1.305E+01   -1.311E+01   -1.316E+01   -1.322E+01   -1.328E+01   -1.333E+01   -1.339E+01   -1.345E+01   -1.351E+01
    -1.357E+01   -1.363E+01   -1.369E+01   -1.376E+01   -1.382E+01   -1.389E+01   -1.395E+01   -1.402E+01   -1.408E+01   -1.415E+01
    -1.422E+01   -1.429E+01   -1.436E+01   -1.443E+01   -1.450E+01   -1.457E+01   -1.464E+01   -1.471E+01   -1.479E+01   -1.486E+01
    -1.494E+01   -1.501E+01   -1.509E+01   -1.516E+01   -1.524E+01   -1.532E+01   -1.540E+01   -1.548E+01   -1.556E+01   -1.564E+01
    -1.572E+01   -1.580E+01   -1.588E+01   -1.596E+01   -1.605E+01   -1.613E+01   -1.622E+01   -1.630E+01   -1.639E+01   -1.648E+01
    -1.656E+01   -1.665E+01   -1.674E+01   -1.683E+01   -1.692E+01   -1.701E+01   -1.711E+01   -1.720E+01   -1.729E+01   -1.739E+01
    -1.749E+01   -1.758E+01   -1.768E+01   -1.778E+01   -1.788E+01   -1.799E+01   -1.809E+01   -1.819E+01   -1.830E+01   -1.841E+01
    -1.851E+01   -1.862E+01   -1.873E+01   -1.885E+01   -1.896E+01   -1.907E+01   -1.919E+01   -1.931E+01   -1.943E+01   -1.955E+01
    -1.967E+01   -1.979E+01   -1.992E+01   -2.005E+01   -2.017E+01   -2.030E+01   -2.044E+01   -2.057E+01   -2.071E+01   -2.084E+01
    -2.098E+01   -2.112E+01   -2.127E+01   -2.141E+01   -2.156E+01   -2.171E+01   -2.186E+01   -2.201E+01   -2.216E+01   -2.232E+01
    -2.248E+01   -2.264E+01   -2.280E+01   -2.297E+01   -2.314E+01   -2.330E+01   -2.348E+01   -2.365E+01   -2.383E+01   -2.400E+01
    -2.418E+01   -2.437E+01   -2.455E+01   -2.474E+01   -2.493E+01   -2.512E+01   -2.531E+01   -2.551E+01   -2.571E+01   -2.591E+01
    -2.611E+01   -2.631E+01   -2.652E+01   -2.673E+01   -2.694E+01   -2.715E+01   -2.737E+01   -2.759E+01   -2.781E+01   -2.803E+01
    -2.826E+01   -2.848E+01   -2.871E+01   -2.894E+01   -2.918E+01   -2.941E+01   -2.965E+01   -2.989E+01   -3.013E+01   -3.038E+01
    -3.063E+01   -3.088E+01   -3.113E+01   -3.138E+01   -3.163E+01   -3.189E+01   -3.215E+01   -3.241E+01   -3.268E+01   -3.294E+01
    -3.321E+01   -3.348E+01   -3.375E+01   -3.403E+01   -3.430E+01   -3.458E+01   -3.486E+01   -3.514E+01   -3.542E+01   -3.571E+01
    -3.600E+01   -3.628E+01   -3.658E+01   -3.687E+01   -3.716E+01   -3.746E+01   -3.776E+01   -3.806E+01   -3.836E+01   -3.866E+01
    -3.896E+01   -3.927E+01   -3.958E+01   -3.988E+01   -4.019E+01   -4.050E+01   -4.082E+01   -4.113E+01   -4.144E+01   -4.176E+01
    -4.207E+01   -4.239E+01   -4.271E+01   -4.303E+01   -4.335E+01   -4.367E+01   -4.399E+01   -4.431E+01   -4.464E+01   -4.496E+01
    -4.529E+01   -4.561E+01   -4.594E+01   -4.626E+01   -4.659E+01   -4.692E+01   -4.725E+01   -4.757E+01   -4.790E+01   -4.823E+01
    -4.856E+01   -4.889E+01   -4.922E+01   -4.955E+01   -4.988E+01   -5.021E+01   -5.055E+01   -5.088E+01   -5.121E+01   -5.154E+01
    -5.187E+01   -5.221E+01   -5.254E+01   -5.287E+01   -5.320E+01   -5.354E+01   -5.387E+01   -5.420E+01   -5.454E+01   -5.487E+01
    -5.520E+01   -5.554E+01   -5.587E+01   -5.620E+01   -5.653E+01   -5.687E+01   -5.720E+01   -5.753E+01   -5.786E+01   -5.819E+01
    -5.852E+01   -5.884E+01   -5.917E+01   -5.950E+01   -5.982E+01   -6.014E+01   -6.046E+01   -6.079E+01   -6.110E+01   -6.142E+01
    -6.174E+01   -6.205E+01   -6.236E+01   -6.267E+01   -6.298E+01   -6.329E+01   -6.359E+01   -6.389E+01   -6.419E+01   -6.449E+01
    -6.478E+01   -6.507E+01   -6.536E+01   -6.564E+01   -6.593E+01   -6.621E+01   -6.648E+01   -6.676E+01   -6.703E+01   -6.730E+01
    -6.756E+01   -6.782E+01   -6.808E+01   -6.834E+01   -6.859E+01   -6.884E+01   -6.908E+01   -6.932E+01   -6.956E+01   -6.979E+01
    -7.002E+01   -7.025E+01   -7.047E+01   -7.069E+01   -7.090E+01   -7.111E+01   -7.132E+01   -7.152E+01   -7.171E+01   -7.191E+01
    -7.209E+01   -7.228E+01   -7.245E+01   -7.263E+01   -7.280E+01   -7.296E+01   -7.313E+01   -7.328E+01   -7.344E+01   -7.359E+01
    -7.373E+01   -7.387E+01   -7.401E+01   -7.415E+01   -7.428E+01   -7.440E+01   -7.452E+01   -7.464E+01   -7.476E+01   -7.487E+01
    -7.498E+01   -7.508E+01   -7.518E+01   -7.528E+01   -7.538E+01   -7.547E+01   -7.556E+01   -7.564E+01   -7.572E+01   -7.580E+01
    -7.588E+01   -7.595E+01   -7.602E+01   -7.609E+01   -7.615E+01   -7.621E+01   -7.627E+01   -7.633E+01   -7.638E+01   -7.644E+01
    -7.648E+01   -7.653E+01   -7.658E+01   -7.662E+01   -7.666E+01   -7.670E+01   -7.673E+01   -7.677E+01   -7.680E+01   -7.683E+01
    -7.686E+01   -7.689E+01   -7.692E+01   -7.694E+01   -7.696E+01   -7.699E+01   -7.701E+01   -7.703E+01   -7.704E+01   -7.706E+01
    -7.708E+01   -7.709E+01   -7.710E+01   -7.712E+01   -7.713E+01   -7.714E+01   -7.715E+01   -7.716E+01   -7.717E+01   -7.717E+01
    -7.718E+01   -7.719E+01   -7.719E+01   -7.720E+01   -7.720E+01   -7.720E+01   -7.721E+01   -7.721E+01   -7.721E+01   -7.721E+01
    -7.721E+01   -7.721E+01   -7.721E+01   -7.721E+01   -7.720E+01   -7.720E+01   -7.720E+01   -7.720E+01   -7.719E+01   -7.719E+01
    -7.718E+01   -7.718E+01   -7.717E+01   -7.717E+01   -7.716E+01   -7.716E+01   -7.715E+01   -7.715E+01   -7.714E+01   -7.714E+01
    -7.713E+01   -7.712E+01   -7.712E+01   -7.711E+01   -7.710E+01   -7.709E+01   -7.709E+01   -7.708E+01   -7.707E+01   -7.707E+01
    -7.706E+01   -7.705E+01   -7.704E+01   -7.704E+01   -7.703E+01   -7.702E+01   -7.701E+01   -7.701E+01   -7.700E+01   -7.699E+01
 Mac      Conc. = 3.68E-04
  -3.60968E+01 -3.68263E+01 -3.71419E+01 -3.72915E+01 -3.76753E+01 -3.85207E+01 -4.01120E+01 -4.22508E+01 -4.46480E+01 -4.66965E+01
  -4.80385E+01 -4.85293E+01 -4.87388E+01 -4.98424E+01 -5.17198E+01 -5.38139E+01 -5.55744E+01 -5.63161E+01 -5.43057E+01 -4.93617E+01
  -4.32875E+01 -3.81877E+01 -3.40385E+01 -3.02680E+01 -2.78164E+01 -2.63767E+01 -2.47082E+01 -2.25458E+01 -2.01604E+01 -1.75540E+01
  -1.49990E+01 -1.28940E+01 -1.16675E+01 -1.12188E+01 -1.13857E+01 -1.16205E+01 -1.12706E+01 -9.99111E+00 -7.75261E+00 -5.36705E+00
  -3.70564E+00 -3.13011E+00 -2.98027E+00 -2.23552E+00 -7.66874E-01  9.64239E-01  2.22179E+00  2.55600E+00  1.84446E+00  5.28758E-01
  -1.10492E+00 -2.90864E+00 -4.64233E+00 -6.20559E+00 -7.21641E+00 -7.87743E+00 -8.13801E+00 -7.74399E+00 -6.40394E+00 -4.39003E+00
  -2.36793E+00 -7.20427E-01  6.63430E-01  1.28792E+00  8.82858E-01 -1.82666E-01 -1.62434E+00 -3.23892E+00 -4.31504E+00 -4.63687E+00
  -4.22558E+00 -2.50285E+00  4.39045E-01  3.66595E+00  5.81108E+00  6.85658E+00  7.17536E+00  6.86756E+00  5.98015E+00  4.77070E+00
   3.70290E+00  2.84532E+00  2.25022E+00  1.91876E+00  2.26286E+00  3.08393E+00  4.08423E+00  4.98408E+00  5.96315E+00  6.80060E+00
   7.49406E+00  8.26766E+00  8.87702E+00  9.20829E+00  8.87182E+00  7.66423E+00  5.40793E+00  2.51360E+00 -5.71091E-01 -3.44560E+00
  -6.07318E+00 -8.10167E+00 -1.01493E+01 -1.34240E+01 -1.85253E+01 -2.52550E+01 -3.35089E+01 -4.24633E+01 -5.04280E+01 -5.55126E+01
