 
 $NMID
 ID=''
 FMTDAT='(2E13.5)'
 TRAMP=   1.00000E+0
 VOLUME=   1.00000E+0
 $END
  -2.17922E+5   6.79460E+5
  -1.20324E+6   1.44194E+6
  -1.04915E+6   1.48602E+6
  -1.09084E+6   1.34382E+6
  -1.14699E+6   1.39337E+6
  -1.05562E+6   1.39650E+6
  -1.05891E+6   1.33332E+6
  -1.09458E+6   1.35283E+6
  -1.05366E+6   1.32592E+6
  -1.07542E+6   1.26264E+6
  -1.09676E+6   1.26614E+6
  -1.06897E+6   1.23833E+6
  -1.09044E+6   1.19141E+6
  -1.11366E+6   1.18601E+6
  -1.10020E+6   1.14638E+6
  -1.11985E+6   1.10008E+6
  -1.13487E+6   1.09732E+6
  -1.12146E+6   1.06910E+6
  -1.12852E+6   1.03264E+6
  -1.12423E+6   1.03100E+6
  -1.10745E+6   1.00474E+6
  -1.11418E+6   9.70647E+5
  -1.11182E+6   9.59225E+5
  -1.09716E+6   9.32761E+5
  -1.10212E+6   8.99407E+5
  -1.09620E+6   8.85570E+5
  -1.09071E+6   8.56245E+5
  -1.10168E+6   8.21404E+5
  -1.10098E+6   7.96085E+5
  -1.09159E+6   7.68589E+5
  -1.09639E+6   7.43187E+5
  -1.09058E+6   7.25862E+5
  -1.08030E+6   6.99398E+5
  -1.07729E+6   6.76654E+5
  -1.06445E+6   6.62460E+5
  -1.04960E+6   6.45810E+5
  -1.04498E+6   6.30774E+5
  -1.03486E+6   6.14905E+5
  -1.02142E+6   5.91440E+5
  -1.01636E+6   5.72130E+5
  -1.00778E+6   5.52879E+5
  -9.97716E+5   5.28346E+5
  -9.91013E+5   5.07967E+5
  -9.83727E+5   4.88238E+5
  -9.75889E+5   4.62774E+5
  -9.70658E+5   4.39935E+5
  -9.61915E+5   4.20820E+5
  -9.52482E+5   3.97971E+5
  -9.41549E+5   3.78641E+5
  -9.28592E+5   3.62550E+5
  -9.17595E+5   3.45455E+5
  -9.08096E+5   3.29258E+5
  -8.95699E+5   3.13960E+5
  -8.85066E+5   2.97451E+5
  -8.75175E+5   2.81170E+5
  -8.63925E+5   2.64881E+5
  -8.52909E+5   2.45560E+5
  -8.42529E+5   2.28736E+5
  -8.30586E+5   2.12868E+5
  -8.20747E+5   1.96189E+5
  -8.11606E+5   1.79470E+5
  -7.99872E+5   1.64017E+5
  -7.89323E+5   1.48055E+5
  -7.78698E+5   1.32945E+5
  -7.65271E+5   1.18439E+5
  -7.52062E+5   1.04582E+5
  -7.40704E+5   9.27130E+4
  -7.28945E+5   8.07287E+4
  -7.17654E+5   6.78507E+4
  -7.07515E+5   5.51147E+4
  -6.95844E+5   4.27071E+4
  -6.83990E+5   3.02703E+4
  -6.73489E+5   1.88459E+4
  -6.63151E+5   7.48579E+3
  -6.52294E+5  -4.86709E+3
  -6.40988E+5  -1.53416E+4
  -6.30022E+5  -2.54127E+4
  -6.19084E+5  -3.59785E+4
  -6.08610E+5  -4.58732E+4
  -5.96850E+5  -5.49620E+4
  -5.85688E+5  -6.43678E+4
  -5.74910E+5  -7.25127E+4
  -5.64419E+5  -8.08307E+4
  -5.53287E+5  -9.00135E+4
  -5.42383E+5  -9.89026E+4
  -5.31418E+5  -1.06435E+5
  -5.21296E+5  -1.14540E+5
  -5.11187E+5  -1.22545E+5
  -5.00188E+5  -1.30119E+5
  -4.89787E+5  -1.36993E+5
  -4.80140E+5  -1.43088E+5
  -4.70335E+5  -1.48941E+5
  -4.60566E+5  -1.55005E+5
  -4.50751E+5  -1.59770E+5
  -4.41131E+5  -1.63880E+5
  -4.31767E+5  -1.68189E+5
  -4.23145E+5  -1.72091E+5
  -4.14417E+5  -1.75721E+5
  -4.05810E+5  -1.79518E+5
  -3.97227E+5  -1.83042E+5
  -3.88549E+5  -1.86244E+5
  -3.80290E+5  -1.90273E+5
  -3.71728E+5  -1.93827E+5
  -3.62534E+5  -1.96533E+5
  -3.54384E+5  -1.98782E+5
  -3.47321E+5  -2.01132E+5
  -3.39590E+5  -2.03849E+5
  -3.31256E+5  -2.06264E+5
  -3.23017E+5  -2.07288E+5
  -3.15897E+5  -2.08084E+5
  -3.09593E+5  -2.09815E+5
  -3.02525E+5  -2.11549E+5
  -2.95362E+5  -2.12361E+5
  -2.88615E+5  -2.13561E+5
  -2.81153E+5  -2.14404E+5
  -2.74365E+5  -2.15508E+5
  -2.67526E+5  -2.15882E+5
  -2.60749E+5  -2.16341E+5
  -2.54061E+5  -2.16143E+5
  -2.48478E+5  -2.15618E+5
  -2.42919E+5  -2.15993E+5
  -2.36667E+5  -2.15770E+5
  -2.30890E+5  -2.15651E+5
  -2.24950E+5  -2.15589E+5
  -2.19126E+5  -2.14924E+5
  -2.13189E+5  -2.14240E+5
  -2.07694E+5  -2.13230E+5
  -2.02050E+5  -2.12561E+5
  -1.96425E+5  -2.11988E+5
  -1.91072E+5  -2.10904E+5
  -1.85361E+5  -2.10761E+5
  -1.79508E+5  -2.09553E+5
  -1.74111E+5  -2.07962E+5
  -1.69291E+5  -2.06923E+5
  -1.64071E+5  -2.05883E+5
  -1.59150E+5  -2.04467E+5
  -1.54412E+5  -2.02630E+5
  -1.50311E+5  -2.01729E+5
  -1.45564E+5  -2.00552E+5
  -1.40970E+5  -1.98934E+5
  -1.36604E+5  -1.97122E+5
  -1.32458E+5  -1.95479E+5
  -1.28386E+5  -1.93599E+5
  -1.24439E+5  -1.92005E+5
  -1.20245E+5  -1.90538E+5
  -1.15866E+5  -1.88819E+5
  -1.11612E+5  -1.86604E+5
  -1.08100E+5  -1.84828E+5
  -1.04410E+5  -1.82906E+5
  -1.00984E+5  -1.81134E+5
  -9.74592E+4  -1.79181E+5
  -9.41219E+4  -1.76997E+5
  -9.10441E+4  -1.75247E+5
  -8.81363E+4  -1.73466E+5
  -8.48876E+4  -1.71450E+5
  -8.23089E+4  -1.69395E+5
  -7.95505E+4  -1.67200E+5
  -7.68101E+4  -1.65418E+5
  -7.43564E+4  -1.62991E+5
  -7.19174E+4  -1.61122E+5
  -6.95481E+4  -1.58900E+5
  -6.70669E+4  -1.57134E+5
  -6.46962E+4  -1.54699E+5
  -6.24442E+4  -1.52670E+5
  -6.03247E+4  -1.50518E+5
  -5.83938E+4  -1.48407E+5
  -5.62325E+4  -1.46460E+5
  -5.45005E+4  -1.44315E+5
  -5.24053E+4  -1.42485E+5
  -5.04803E+4  -1.40465E+5
  -4.89838E+4  -1.38463E+5
  -4.73484E+4  -1.36342E+5
  -4.56511E+4  -1.34351E+5
  -4.41432E+4  -1.32406E+5
  -4.25619E+4  -1.30336E+5
  -4.09098E+4  -1.28533E+5
  -3.94526E+4  -1.26833E+5
  -3.78856E+4  -1.24870E+5
  -3.64873E+4  -1.22830E+5
  -3.52033E+4  -1.20831E+5
  -3.40973E+4  -1.19401E+5
  -3.24347E+4  -1.17553E+5
  -3.11961E+4  -1.15838E+5
  -2.99923E+4  -1.14071E+5
  -2.87861E+4  -1.12425E+5
  -2.74205E+4  -1.10278E+5
  -2.66769E+4  -1.08580E+5
  -2.57866E+4  -1.06883E+5
  -2.44133E+4  -1.04872E+5
  -2.35705E+4  -1.03519E+5
  -2.22684E+4  -1.02083E+5
  -2.12310E+4  -1.00541E+5
  -2.00782E+4  -9.85995E+4
  -1.90578E+4  -9.70383E+4
  -1.81727E+4  -9.55707E+4
  -1.71971E+4  -9.41658E+4
  -1.62994E+4  -9.24922E+4
  -1.54922E+4  -9.10728E+4
  -1.45459E+4  -8.95839E+4
  -1.39213E+4  -8.82030E+4
  -1.29348E+4  -8.68312E+4
  -1.24678E+4  -8.51296E+4
  -1.17289E+4  -8.37761E+4
  -1.10540E+4  -8.26001E+4
  -1.04780E+4  -8.13728E+4
  -9.70270E+3  -7.99181E+4
  -8.85805E+3  -7.85860E+4
  -8.59952E+3  -7.73106E+4
  -8.17223E+3  -7.59023E+4
  -7.59189E+3  -7.45995E+4
  -7.02024E+3  -7.32648E+4
  -6.87085E+3  -7.21893E+4
  -6.48202E+3  -7.09119E+4
  -5.88415E+3  -6.99077E+4
  -5.36985E+3  -6.85246E+4
  -5.30392E+3  -6.71447E+4
  -4.91764E+3  -6.60770E+4
  -4.63209E+3  -6.47084E+4
  -4.75314E+3  -6.36253E+4
  -4.18910E+3  -6.26416E+4
  -4.45407E+3  -6.11486E+4
  -4.05552E+3  -6.01851E+4
  -3.65314E+3  -5.92447E+4
  -3.58313E+3  -5.79871E+4
  -3.58516E+3  -5.67798E+4
  -3.51391E+3  -5.53958E+4
  -3.65987E+3  -5.47479E+4
  -3.67855E+3  -5.35803E+4
  -3.28709E+3  -5.24129E+4
  -3.35299E+3  -5.15553E+4
  -3.44289E+3  -5.04660E+4
  -3.56605E+3  -4.95334E+4
  -3.72910E+3  -4.82365E+4
  -3.91186E+3  -4.72746E+4
  -3.95729E+3  -4.66268E+4
  -3.86235E+3  -4.56799E+4
  -4.16391E+3  -4.46337E+4
  -4.41751E+3  -4.37360E+4
  -4.47035E+3  -4.29499E+4
  -4.44546E+3  -4.20073E+4
  -4.69736E+3  -4.10637E+4
  -5.01049E+3  -4.02689E+4
  -4.86874E+3  -3.95621E+4
  -5.21884E+3  -3.87016E+4
  -5.54421E+3  -3.76979E+4
  -5.58272E+3  -3.70651E+4
  -5.60253E+3  -3.63219E+4
  -5.44185E+3  -3.56645E+4
  -5.78570E+3  -3.48370E+4
  -5.74849E+3  -3.41770E+4
  -6.06964E+3  -3.35025E+4
  -6.22366E+3  -3.28128E+4
  -6.46322E+3  -3.23317E+4
  -6.42181E+3  -3.14227E+4
  -6.46988E+3  -3.10065E+4
  -6.49099E+3  -3.03503E+4
  -6.62758E+3  -2.98500E+4
  -6.79433E+3  -2.93260E+4
  -6.88847E+3  -2.87362E+4
  -7.22473E+3  -2.81576E+4
  -7.30078E+3  -2.78594E+4
  -7.39254E+3  -2.74292E+4
  -7.32048E+3  -2.68402E+4
  -7.36652E+3  -2.64318E+4
  -7.32934E+3  -2.60867E+4
  -7.50602E+3  -2.54936E+4
  -7.85261E+3  -2.51033E+4
  -7.61819E+3  -2.51891E+4
  -7.91360E+3  -2.44389E+4
  -7.96084E+3  -2.39269E+4
  -7.87922E+3  -2.36930E+4
  -7.99208E+3  -2.35039E+4
  -8.04290E+3  -2.32257E+4
  -8.05508E+3  -2.27705E+4
  -8.39876E+3  -2.26791E+4
  -8.34330E+3  -2.24040E+4
  -8.30306E+3  -2.21905E+4
  -8.46576E+3  -2.18255E+4
  -8.63829E+3  -2.18111E+4
  -8.78161E+3  -2.14086E+4
  -8.58917E+3  -2.11503E+4
  -8.78603E+3  -2.09950E+4
  -8.98501E+3  -2.07311E+4
  -8.99849E+3  -2.08158E+4
  -9.17723E+3  -2.04321E+4
  -9.01281E+3  -2.01712E+4
  -9.02562E+3  -2.00311E+4
  -9.21876E+3  -1.96190E+4
  -9.39134E+3  -1.93574E+4
  -9.54335E+3  -1.95067E+4
  -9.71765E+3  -1.93690E+4
  -9.43777E+3  -1.89456E+4
  -9.63945E+3  -1.88874E+4
  -9.87540E+3  -1.86338E+4
  -9.85271E+3  -1.88577E+4
  -9.95007E+3  -1.86842E+4
  -1.02354E+4  -1.82768E+4
  -1.02330E+4  -1.84099E+4
  -1.02077E+4  -1.81771E+4
  -1.01625E+4  -1.79615E+4
  -1.05183E+4  -1.83129E+4
  -1.00953E+4  -1.78441E+4
  -1.04067E+4  -1.75506E+4
  -1.05401E+4  -1.79044E+4
  -1.04370E+4  -1.80666E+4
  -1.05856E+4  -1.76095E+4
  -1.05874E+4  -1.74254E+4
  -1.06497E+4  -1.73708E+4
  -1.08795E+4  -1.73320E+4
  -1.10061E+4  -1.73834E+4
  -1.10160E+4  -1.73775E+4
  -1.11138E+4  -1.74364E+4
  -1.12017E+4  -1.74263E+4
  -1.10659E+4  -1.72785E+4
  -1.11384E+4  -1.72061E+4
  -1.12005E+4  -1.72901E+4
  -1.12530E+4  -1.73693E+4
  -1.14235E+4  -1.75300E+4
  -1.14156E+4  -1.73537E+4
  -1.13182E+4  -1.74324E+4
  -1.16439E+4  -1.73688E+4
  -1.18007E+4  -1.72719E+4
  -1.17687E+4  -1.75196E+4
  -1.15497E+4  -1.75310E+4
  -1.16450E+4  -1.76676E+4
  -1.17835E+4  -1.75512E+4
  -1.16306E+4  -1.76219E+4
  -1.17783E+4  -1.80669E+4
  -1.18778E+4  -1.79394E+4
  -1.16693E+4  -1.79504E+4
  -1.18114E+4  -1.78511E+4
  -1.19191E+4  -1.78654E+4
  -1.17475E+4  -1.80427E+4
  -1.18795E+4  -1.81049E+4
  -1.18936E+4  -1.79814E+4
  -1.22055E+4  -1.83442E+4
  -1.20555E+4  -1.83167E+4
  -1.19197E+4  -1.84832E+4
  -1.21439E+4  -1.87529E+4
  -1.18705E+4  -1.82880E+4
  -1.19420E+4  -1.87876E+4
  -1.16458E+4  -1.87976E+4
  -1.18213E+4  -1.89031E+4
  -1.18456E+4  -1.89461E+4
  -1.16997E+4  -1.89533E+4
  -1.18043E+4  -1.90693E+4
  -1.18184E+4  -1.91612E+4
  -1.16404E+4  -1.92688E+4
  -1.17579E+4  -1.92397E+4
  -1.18083E+4  -1.94683E+4
  -1.16042E+4  -1.95738E+4
  -1.14522E+4  -1.96999E+4
  -1.16280E+4  -1.97837E+4
  -1.16605E+4  -1.97202E+4
  -1.12496E+4  -1.97743E+4
  -1.09916E+4  -1.98654E+4
  -1.12950E+4  -1.97874E+4
  -1.13147E+4  -2.00700E+4
  -1.13341E+4  -2.03568E+4
  -1.08208E+4  -2.00860E+4
  -1.09241E+4  -2.01349E+4
  -1.06036E+4  -2.01442E+4
  -1.06796E+4  -2.02446E+4
  -1.07644E+4  -2.03462E+4
  -1.07215E+4  -2.04601E+4
  -1.02881E+4  -2.04286E+4
  -1.00879E+4  -2.04266E+4
