 
 $NMID
 ID=''
 FMTDAT='(2E13.5)'
 TRAMP=   1.00000E+0
 VOLUME=   1.00000E+0
 $END
   2.24300E+4  -2.43651E+4
   7.96618E+3  -4.05623E+4
  -2.92827E+4  -1.41876E+4
  -7.62950E+2   2.70307E+4
   2.96476E+4   7.40720E+2
  -2.12598E+3  -2.80187E+4
  -1.99098E+4   2.45080E+3
   1.06379E+4   1.78556E+4
   1.82844E+4  -6.35056E+3
  -6.14681E+3  -9.72548E+3
  -1.17144E+4   5.73045E+3
   2.64202E+3   4.78817E+3
   6.81000E+3  -2.02649E+3
  -2.96055E+3  -1.53462E+3
  -7.36461E+3  -8.53365E+2
   1.83093E+3  -3.44946E+2
   6.37769E+3   2.42240E+2
  -1.77946E+3  -1.01649E+2
  -4.10416E+3   1.29547E+2
   2.44456E+3   1.08066E+2
   1.95236E+3  -5.49762E+2
  -1.46158E+3  -7.48576E+2
   2.25864E+2   6.88898E+2
   2.15031E+2   1.31868E+3
  -7.83187E+2   9.60415E+1
   1.20716E+3  -1.05176E+3
   1.01096E+3   1.42510E+3
  -1.42896E+3   2.42899E+3
  -1.61077E+3  -8.25237E+2
   2.30346E+2  -8.97088E+2
   1.39129E+2   1.50931E+3
  -1.11438E+3   7.67739E+2
  -1.36396E+3  -6.91384E+2
  -1.13085E+3  -9.65754E+2
  -2.41660E+2  -1.67230E+3
   1.96717E+3  -1.35915E+3
   1.32389E+3   1.20038E+3
  -1.36727E+3   1.80702E+3
  -1.33671E+3   1.77777E+2
   5.59722E+2   1.25263E+2
  -6.20537E+2   1.99762E+2
  -1.57167E+3  -5.21208E+2
   5.20104E+2  -1.25185E+3
   1.48152E+3  -3.36252E+2
   7.00961E+2   1.10683E+3
   3.61669E+2   1.71588E+3
  -3.48850E+2   1.36996E+3
  -2.09240E+3  -5.78984E+1
  -1.98922E+3  -1.01520E+3
  -3.16518E+2  -8.50301E+2
   5.78962E+2  -3.12519E+2
   1.49657E+2  -5.94794E+2
   2.35043E+2  -1.58259E+2
   2.82635E+2   8.42856E+2
   5.15993E+2   6.85744E+2
  -2.30005E+2   5.34534E+2
  -1.07338E+3   4.08883E+2
  -5.22679E+2  -9.22708E+2
   1.17094E+3  -1.29037E+3
   1.42388E+3  -9.28116E+1
   5.04419E+2   1.05856E+3
   3.74890E+2   9.05452E+2
   6.26712E+2   9.59911E+2
  -8.79484E+2   1.23535E+3
  -2.10165E+3   1.77174E+2
  -9.94946E+2  -1.18012E+3
   8.24717E+2  -1.34009E+3
   1.24020E+3  -1.16143E+3
   8.97250E+2  -3.66245E+1
   4.39361E+2   5.41473E+2
   5.20323E+1   1.42307E+2
   2.07249E+2  -5.05902E+2
   1.12517E+3   2.22356E+2
   7.20486E+2   5.49449E+2
  -9.41535E+1   3.38319E+2
  -1.49205E+2  -1.42348E+2
   1.86210E+2   9.28235E+1
   4.58493E+2   5.60027E+2
   2.18583E+1   2.81619E+2
  -5.94678E+2  -6.72802E+1
  -5.31193E+2  -4.75827E+2
   2.08182E+2  -5.49813E+2
   2.93881E+2  -1.27984E+2
  -3.55285E+1  -3.53162E+1
   3.80577E+2  -6.65486E+2
   5.95085E+2  -5.24778E+2
   9.84404E+2   1.25807E+1
   1.86191E+2   3.56625E+2
   1.61902E+1   1.78267E+2
   2.94241E+2  -1.88465E+2
   4.64503E+2   2.10656E+2
   6.23934E+1   5.47686E+2
  -1.93731E+2   9.17417E+2
  -1.02381E+3   2.95585E+2
  -9.76323E+2  -6.33587E+2
   3.47054E+2  -8.57394E+2
   7.16044E+2   8.64650E+1
   2.40045E+2   3.70931E+2
  -1.58525E+2  -1.67340E+2
   3.36403E+2  -4.48922E+2
   7.56314E+2   4.83861E+2
   3.68730E+1   1.05939E+3
  -6.97081E+2   2.05681E+1
  -4.67500E+2  -8.59205E+2
   2.28290E+2  -4.00488E+2
   8.49775E+2   7.04624E+2
   1.26707E+2   5.21907E+2
  -7.86253E+2  -4.48175E+1
  -4.60830E+2  -8.41915E+2
   5.67611E+2  -7.13777E+2
   1.09337E+3   1.76929E+2
   5.26634E+2   6.71186E+2
  -2.53769E+2   5.68180E+2
  -5.60718E+1   4.36523E+2
  -1.14319E+0   9.92632E+1
  -2.14533E+2   4.04840E+2
  -8.90165E+2   1.60671E+2
  -5.25472E+2  -4.84961E+2
   2.64945E+2  -1.02470E+3
   9.58319E+2  -6.85717E+2
   6.38309E+2  -8.57432E+1
   4.17465E+2   6.30009E+2
   6.34144E+1   3.11462E+2
   3.07397E+1   5.38967E+2
  -2.36236E+2   2.38769E+2
  -4.55249E+2  -2.81391E+2
  -2.95736E+1  -3.32069E+2
   2.11091E+2  -2.21797E+2
   2.79470E+2   1.60160E+2
   2.47902E+2   4.38037E+2
  -2.85640E+2   5.08832E+2
  -5.26704E+2  -1.67463E+2
   3.63333E+1  -5.33962E+2
   3.00610E+2   8.43888E+1
   6.56920E+1   6.01118E+1
  -5.81694E+1  -3.63948E+2
   1.78718E+2  -2.95750E+2
   3.49062E+2   3.45685E+2
  -6.32856E+1   6.36862E+2
  -4.70057E+2   3.97182E+1
  -3.06188E+2  -2.93458E+2
   2.59518E+2  -3.83455E+2
   5.92480E+2  -1.02315E+1
   4.87291E+2   3.01933E+2
  -3.74704E+2   6.06442E+2
  -3.85254E+2   2.77916E+2
  -2.56339E+2  -7.21404E+1
  -3.30522E+0  -1.12495E+2
  -1.25400E+2  -2.95203E+2
  -6.47885E+1  -2.18783E+2
   2.00679E+2  -4.18011E+2
   4.55452E+2  -2.84921E+2
   3.66695E+2   3.64145E+2
   2.98826E+2   6.51812E+2
  -1.38829E+1   1.05760E+1
  -1.08324E+2  -1.36091E+2
   2.48836E+2   2.72520E+1
   2.24599E+2   1.84862E+2
  -1.80798E+2   1.72905E+2
   1.23529E+2  -2.04572E+2
  -1.60436E+2   1.17363E+2
  -9.46305E+1   1.69550E+2
   6.22884E+1   1.55115E+2
  -6.04055E+1  -1.17061E+2
   2.74653E+2  -6.44205E+2
   3.17577E+2  -1.27489E+2
   3.23517E+2   6.63883E+1
  -5.55263E+1   1.43881E+2
  -1.81380E+2  -6.86818E+0
   4.22528E+2  -1.57726E+2
   2.28814E+2   1.65548E+2
   2.03351E+2   1.12007E+2
  -2.27567E+2   1.20635E+2
  -4.32617E+1  -9.11579E+1
   3.16748E+2  -2.29706E+2
   2.09673E+1  -1.84919E+1
  -2.57464E+2   1.61015E+2
  -3.96793E+2  -3.16737E+1
  -4.66284E+1  -4.54385E+2
   5.18129E+2  -1.22196E+2
   5.89186E+2   2.69490E+2
  -1.07612E+2   2.58636E+2
  -3.07945E+2  -2.78632E+2
   6.59283E+1  -2.30404E+2
   5.64178E+1  -4.27749E+2
   1.58070E+2  -1.80523E+2
  -1.39539E+2   5.08511E+1
   2.06426E+1  -2.85372E+2
   4.17130E+2  -7.41868E+1
   3.43024E+2   2.81605E+2
   2.24748E+1   6.30007E+2
  -4.64231E+2   2.22317E+2
  -3.51383E+2  -3.59621E+2
   4.30218E+0  -2.91423E+2
   2.70546E+2   2.93179E+1
   2.95699E+2   6.07232E+0
  -2.28563E+2   1.37572E+2
   1.36589E+2  -1.79008E+2
   4.96716E-1   1.04490E+2
  -2.84186E+1  -2.06942E+1
  -3.26812E+2  -2.44459E+2
   1.32390E+2  -4.37265E+2
   3.02645E+2  -3.85288E+2
   1.86354E+2  -1.66775E+2
   2.37738E+1   1.08298E+2
  -1.84088E+2  -2.67578E-1
  -1.49383E+2  -2.32033E+2
  -2.77060E+1  -1.80227E+2
   3.66752E+2  -9.56257E+1
  -4.33323E+1   1.10240E+2
  -1.69596E+2  -2.47395E+2
   2.61841E+2  -1.03540E+2
   2.20111E+2   2.18730E+2
  -2.30449E+2   5.29903E+2
  -5.09255E+2   7.83927E+1
  -3.65322E+2  -4.27756E+2
   2.65189E+2  -3.93715E+2
   2.40001E+2  -3.60374E+2
   8.35457E+1  -2.08977E+2
  -7.78595E+0  -2.40128E+2
   1.16103E+2   1.16016E+1
   1.11482E+2   1.30329E+2
  -2.34857E+2   1.46206E+2
  -4.57110E+2   1.49947E+2
  -5.12880E+2  -1.94220E+2
   1.28828E-1  -5.67451E+2
   4.10416E+2  -1.09733E+2
   1.93930E+2   2.12868E+2
  -1.24317E+1   2.06287E+2
  -1.00938E+2   8.26177E+0
  -6.35432E+1  -3.11416E+2
   1.03767E+2   5.39593E+1
   7.94977E+1  -1.53221E+2
  -1.91444E+2   2.46123E+2
  -5.86861E+1  -3.76517E+2
  -1.75595E+2  -2.04787E+2
   1.46699E+2  -8.03881E+1
  -1.52185E+2  -8.67924E+1
  -2.28607E+2  -1.74625E+2
   1.61251E+2  -1.76440E+2
  -4.10184E+1   5.99651E+0
   4.99450E+1   1.53205E+2
  -2.56493E+2   1.66225E+2
  -2.43022E+2  -2.30791E+2
   6.15670E+0   1.13674E+2
   1.28137E+2  -3.64105E+1
  -3.02786E+1   1.49308E+1
  -3.22107E+2  -1.86609E+2
  -2.59468E+1  -3.09479E+2
   2.66648E+2  -1.79162E+1
   5.25477E+1   2.02799E+2
  -3.23757E+2  -1.71045E+1
  -1.88480E+2  -3.83673E+2
   2.08679E+2  -2.76332E+2
   2.30665E+2   1.64235E-1
   3.24573E+2   1.45806E+2
   3.86268E+1   4.74547E+1
  -2.27668E+2  -8.43283E+1
  -1.81198E+2  -1.43292E+2
  -1.99737E+2   1.61254E+2
  -1.55480E+2   1.14240E+2
   2.66466E+1  -1.29372E+2
  -5.98931E+1  -1.98191E+2
   2.32707E+2  -2.06428E+2
   2.52994E+2   2.16613E+2
  -2.00349E+2   1.76119E+2
  -2.54979E+2  -1.36254E+2
  -1.10998E+2  -2.85779E+2
   1.03832E+2  -2.43316E+2
   1.14322E+2   9.19761E+1
   1.97799E+2  -5.62347E+1
   2.12548E+2  -1.63649E+2
   2.87905E+1  -1.09877E+2
   1.02336E+2   2.97752E+1
  -4.14935E+1  -7.17665E+0
  -2.41463E+2  -1.57206E+2
  -2.32807E+2  -2.23705E+2
   7.81542E+1  -1.59999E+2
   2.72950E+2  -1.31809E+2
  -8.34853E-1   3.61684E+1
  -2.33516E+2  -2.07074E+1
   2.33031E+1  -1.89259E+2
   4.60339E+1  -1.02460E+2
   8.67329E+1   9.99077E+1
  -2.22511E+2  -4.36063E+1
   5.94043E+1  -2.70551E+2
   2.92615E+2  -1.93365E+2
   1.37517E+2   2.22290E+1
  -1.33512E+0   3.23010E+2
  -2.42196E+2   3.75238E+2
  -3.52754E+2  -1.89314E+2
   1.32216E+2  -2.33795E+0
   5.02056E+1  -2.86326E+1
   6.53549E+1  -1.88852E+2
  -1.41239E+2  -1.57001E+2
  -1.16722E+2  -1.59062E+2
   7.77032E+1   1.21365E+2
   1.97411E+1   1.87676E+2
  -8.34919E+1   1.88862E+2
  -1.08192E+2  -1.18653E+2
   6.45921E+1  -2.98021E+2
   6.14233E+1  -1.08165E+2
  -4.42733E+1   2.69635E+2
  -3.27811E+2  -1.85629E+2
   8.49185E+0  -1.50062E+2
  -9.71921E+1  -3.29520E+2
   8.09842E+1   1.55847E+2
   2.29078E+2  -6.62087E+1
  -1.04194E+2   2.51708E+2
   1.74249E+2   6.28422E+1
  -3.90887E+1   5.69803E+1
   3.16505E+2  -1.72383E+1
  -1.70807E+2   1.33619E+2
  -3.33658E+2   6.40691E+0
  -5.82904E+1  -2.79862E+2
  -1.00836E+2   3.67765E+1
  -4.75130E-1   2.49225E+2
  -3.61833E+2   2.66637E+2
  -2.31245E+1  -4.13834E+2
  -7.10819E+1  -2.92135E+2
   1.07179E+2   3.15316E+1
  -1.20798E+2   2.14054E+2
  -9.67753E+1  -1.20268E+2
   4.62348E+1  -1.14891E+2
   3.14768E+2   3.59353E+1
  -6.16823E+1   2.15634E+2
  -1.99846E+1  -3.04752E+1
  -2.49476E+2  -1.67869E+2
  -2.81890E+1  -1.51531E+2
   8.22895E+1  -2.19128E+2
   6.04062E+1   1.12410E+2
  -7.34598E+1  -1.33712E+2
  -1.06937E+2  -1.68878E+1
  -5.51033E+1  -5.83446E+1
  -1.63762E+2   7.84783E+1
  -2.87314E+2   4.45928E+1
  -2.02941E+2  -1.21766E+1
   5.92127E+1  -2.90514E+2
   2.11413E+1  -1.66512E+2
   2.59715E+2   1.54322E+2
  -1.24929E+2   1.36755E+2
   2.19834E+1  -5.03768E+0
   1.16906E+1   3.20572E+1
  -4.81628E+1  -7.85532E+1
   6.74563E+1   2.83607E+1
  -4.94502E+1  -1.64994E+2
   1.21726E+2  -9.80519E+1
   2.09015E+2  -1.16984E+2
   1.24945E+2   3.28657E+1
  -1.48881E+2   3.68999E+2
  -1.77882E+1  -1.22008E+2
  -8.01326E+1   8.79739E+0
   3.04232E+1  -1.25383E+2
   1.75535E+2   2.23129E+1
  -1.47435E+2   1.36638E+1
  -2.00369E+0  -1.74424E+2
  -6.44979E+1  -3.31089E+1
   2.89629E+2  -1.63808E+1
  -1.87772E+2   2.41024E+0
  -1.62786E+2  -3.11024E+0
  -1.24619E+2  -3.09168E+2
   5.14382E+1  -2.76760E+2
  -1.22804E+2  -1.07653E+1
   1.47986E+2   4.23346E+2
  -4.40937E+1   3.15624E+2
  -2.79880E+2  -8.55577E+1
   5.53432E+0  -1.55463E+2
