 
 $NMID
 ID=''
 FMTDAT='(2E13.5)'
 TRAMP=   1.00000E+0
 VOLUME=   1.00000E+0
 $END
  -2.35678E+5   5.64664E+5
  -1.06856E+6   1.21301E+6
  -8.70585E+5   1.31398E+6
  -8.80245E+5   1.15795E+6
  -9.91292E+5   1.14643E+6
  -9.84586E+5   1.12933E+6
  -1.01214E+6   1.06803E+6
  -1.04875E+6   1.09729E+6
  -9.95359E+5   1.09606E+6
  -1.00048E+6   1.03134E+6
  -1.03925E+6   1.01675E+6
  -1.03050E+6   1.00805E+6
  -1.03686E+6   9.89389E+5
  -1.03799E+6   9.99982E+5
  -1.01038E+6   9.80887E+5
  -1.01185E+6   9.47458E+5
  -1.03108E+6   9.47070E+5
  -1.03372E+6   9.26893E+5
  -1.04874E+6   8.93091E+5
  -1.05679E+6   8.83471E+5
  -1.05257E+6   8.58338E+5
  -1.06536E+6   8.27032E+5
  -1.07341E+6   8.16345E+5
  -1.07128E+6   7.97898E+5
  -1.07626E+6   7.74234E+5
  -1.07207E+6   7.70052E+5
  -1.06423E+6   7.57769E+5
  -1.06540E+6   7.45318E+5
  -1.06169E+6   7.38899E+5
  -1.05459E+6   7.27436E+5
  -1.05953E+6   7.09330E+5
  -1.05891E+6   6.95724E+5
  -1.05812E+6   6.76070E+5
  -1.06411E+6   6.56409E+5
  -1.06412E+6   6.40441E+5
  -1.06369E+6   6.21893E+5
  -1.07127E+6   6.02957E+5
  -1.07368E+6   5.83172E+5
  -1.06910E+6   5.65369E+5
  -1.06860E+6   5.53898E+5
  -1.06590E+6   5.42874E+5
  -1.06031E+6   5.29218E+5
  -1.05467E+6   5.19906E+5
  -1.05148E+6   5.12478E+5
  -1.04742E+6   5.00669E+5
  -1.04469E+6   4.90536E+5
  -1.04247E+6   4.79542E+5
  -1.04120E+6   4.62316E+5
  -1.03832E+6   4.44287E+5
  -1.03543E+6   4.29446E+5
  -1.03428E+6   4.14866E+5
  -1.03432E+6   3.98958E+5
  -1.03240E+6   3.83553E+5
  -1.03089E+6   3.68421E+5
  -1.02829E+6   3.54060E+5
  -1.02562E+6   3.40344E+5
  -1.02141E+6   3.27150E+5
  -1.01656E+6   3.15379E+5
  -1.01175E+6   3.05521E+5
  -1.00896E+6   2.94252E+5
  -1.00558E+6   2.82278E+5
  -1.00163E+6   2.70710E+5
  -9.98926E+5   2.58418E+5
  -9.95626E+5   2.44365E+5
  -9.90214E+5   2.29754E+5
  -9.84348E+5   2.16767E+5
  -9.79760E+5   2.04476E+5
  -9.75262E+5   1.91513E+5
  -9.70952E+5   1.79495E+5
  -9.67129E+5   1.68007E+5
  -9.62050E+5   1.55744E+5
  -9.55775E+5   1.44700E+5
  -9.50660E+5   1.35561E+5
  -9.46241E+5   1.25481E+5
  -9.40577E+5   1.13782E+5
  -9.34071E+5   1.03035E+5
  -9.28444E+5   9.26976E+4
  -9.23324E+5   8.17704E+4
  -9.17081E+5   6.98361E+4
  -9.10214E+5   5.77400E+4
  -9.02959E+5   4.62784E+4
  -8.96260E+5   3.60172E+4
  -8.89488E+5   2.50799E+4
  -8.82385E+5   1.45135E+4
  -8.74545E+5   4.95557E+3
  -8.66917E+5  -3.39654E+3
  -8.59532E+5  -1.18256E+4
  -8.52061E+5  -2.01816E+4
  -8.44473E+5  -2.77398E+4
  -8.36166E+5  -3.40397E+4
  -8.28169E+5  -4.08441E+4
  -8.20450E+5  -4.87583E+4
  -8.12179E+5  -5.70320E+4
  -8.03368E+5  -6.58164E+4
  -7.93712E+5  -7.35457E+4
  -7.85122E+5  -8.07827E+4
  -7.76970E+5  -8.82335E+4
  -7.68575E+5  -9.67885E+4
  -7.58920E+5  -1.04458E+5
  -7.49898E+5  -1.11245E+5
  -7.41648E+5  -1.17006E+5
  -7.33013E+5  -1.24651E+5
  -7.22824E+5  -1.31260E+5
  -7.12686E+5  -1.36508E+5
  -7.03977E+5  -1.41360E+5
  -6.95533E+5  -1.46449E+5
  -6.86891E+5  -1.51769E+5
  -6.77227E+5  -1.57677E+5
  -6.67033E+5  -1.63070E+5
  -6.56995E+5  -1.67560E+5
  -6.48560E+5  -1.72220E+5
  -6.40001E+5  -1.77989E+5
  -6.30914E+5  -1.83825E+5
  -6.21037E+5  -1.89533E+5
  -6.11411E+5  -1.94859E+5
  -6.02577E+5  -2.00494E+5
  -5.93187E+5  -2.06030E+5
  -5.83638E+5  -2.10827E+5
  -5.73432E+5  -2.14662E+5
  -5.64478E+5  -2.18121E+5
  -5.56441E+5  -2.22696E+5
  -5.47794E+5  -2.27004E+5
  -5.38845E+5  -2.31275E+5
  -5.30513E+5  -2.35250E+5
  -5.20995E+5  -2.39594E+5
  -5.11512E+5  -2.43500E+5
  -5.02474E+5  -2.46810E+5
  -4.94100E+5  -2.50784E+5
  -4.85608E+5  -2.54189E+5
  -4.77086E+5  -2.57867E+5
  -4.68208E+5  -2.61871E+5
  -4.58935E+5  -2.65941E+5
  -4.49596E+5  -2.68952E+5
  -4.41937E+5  -2.72112E+5
  -4.33392E+5  -2.75127E+5
  -4.24075E+5  -2.77961E+5
  -4.15687E+5  -2.80261E+5
  -4.08018E+5  -2.82997E+5
  -3.99960E+5  -2.85893E+5
  -3.91568E+5  -2.88574E+5
  -3.82531E+5  -2.90636E+5
  -3.74630E+5  -2.92432E+5
  -3.66596E+5  -2.93617E+5
  -3.58842E+5  -2.95544E+5
  -3.51514E+5  -2.97667E+5
  -3.43435E+5  -2.98932E+5
  -3.35316E+5  -2.99761E+5
  -3.27491E+5  -3.00587E+5
  -3.19945E+5  -3.01402E+5
  -3.12746E+5  -3.01920E+5
  -3.05341E+5  -3.02390E+5
  -2.98145E+5  -3.02599E+5
  -2.91266E+5  -3.02715E+5
  -2.84804E+5  -3.02881E+5
  -2.77390E+5  -3.03229E+5
  -2.70024E+5  -3.02825E+5
  -2.63541E+5  -3.02388E+5
  -2.57058E+5  -3.02339E+5
  -2.50266E+5  -3.01691E+5
  -2.43714E+5  -3.01077E+5
  -2.37263E+5  -3.00336E+5
  -2.30765E+5  -2.99878E+5
  -2.24221E+5  -2.98964E+5
  -2.17805E+5  -2.97746E+5
  -2.11518E+5  -2.96452E+5
  -2.05800E+5  -2.95333E+5
  -1.99974E+5  -2.94283E+5
  -1.94088E+5  -2.93241E+5
  -1.88285E+5  -2.92090E+5
  -1.82490E+5  -2.90322E+5
  -1.77015E+5  -2.88822E+5
  -1.71638E+5  -2.87446E+5
  -1.66123E+5  -2.85895E+5
  -1.60553E+5  -2.84155E+5
  -1.55313E+5  -2.82520E+5
  -1.49945E+5  -2.80985E+5
  -1.44696E+5  -2.79563E+5
  -1.39126E+5  -2.77862E+5
  -1.33632E+5  -2.75708E+5
  -1.28815E+5  -2.73901E+5
  -1.24190E+5  -2.72217E+5
  -1.18854E+5  -2.70745E+5
  -1.13619E+5  -2.69120E+5
  -1.08911E+5  -2.67198E+5
  -1.04157E+5  -2.65445E+5
  -9.96367E+4  -2.63307E+5
  -9.50005E+4  -2.61378E+5
  -9.06260E+4  -2.59438E+5
  -8.64507E+4  -2.57258E+5
  -8.24502E+4  -2.55488E+5
  -7.82275E+4  -2.54067E+5
  -7.35926E+4  -2.52164E+5
  -6.89832E+4  -2.50209E+5
  -6.46658E+4  -2.47872E+5
  -6.06485E+4  -2.45671E+5
  -5.66394E+4  -2.43978E+5
  -5.27706E+4  -2.42138E+5
  -4.84659E+4  -2.39847E+5
  -4.46175E+4  -2.38227E+5
  -4.03785E+4  -2.36130E+5
  -3.64319E+4  -2.34127E+5
  -3.26943E+4  -2.31667E+5
  -2.90771E+4  -2.29421E+5
  -2.54720E+4  -2.27114E+5
  -2.20208E+4  -2.25126E+5
  -1.85463E+4  -2.23054E+5
  -1.48269E+4  -2.20865E+5
  -1.19270E+4  -2.18355E+5
  -8.40990E+3  -2.16208E+5
  -4.88619E+3  -2.14037E+5
  -1.89427E+3  -2.11473E+5
   1.17710E+3  -2.09137E+5
   4.05049E+3  -2.06957E+5
   7.10228E+3  -2.04891E+5
   1.02105E+4  -2.02636E+5
   1.33017E+4  -1.99928E+5
   1.58522E+4  -1.97339E+5
   1.82207E+4  -1.95298E+5
   2.07698E+4  -1.92673E+5
   2.33138E+4  -1.90349E+5
   2.55406E+4  -1.87770E+5
   2.78117E+4  -1.85325E+5
   3.00894E+4  -1.83371E+5
   3.23151E+4  -1.80929E+5
   3.45993E+4  -1.78385E+5
   3.63644E+4  -1.75679E+5
   3.83036E+4  -1.73173E+5
   3.97492E+4  -1.70929E+5
   4.17767E+4  -1.68608E+5
   4.35630E+4  -1.66568E+5
   4.51179E+4  -1.63692E+5
   4.66813E+4  -1.61227E+5
   4.82399E+4  -1.58869E+5
   4.95999E+4  -1.56600E+5
   5.06629E+4  -1.54028E+5
   5.19339E+4  -1.51945E+5
   5.32775E+4  -1.49612E+5
   5.45258E+4  -1.47383E+5
   5.56255E+4  -1.45124E+5
   5.67899E+4  -1.42756E+5
   5.76760E+4  -1.40688E+5
   5.87217E+4  -1.38453E+5
   5.98462E+4  -1.36031E+5
   6.07199E+4  -1.33930E+5
   6.16051E+4  -1.31804E+5
   6.24050E+4  -1.29638E+5
   6.33247E+4  -1.27608E+5
   6.39604E+4  -1.25216E+5
   6.48162E+4  -1.23191E+5
   6.54616E+4  -1.21003E+5
   6.60485E+4  -1.18864E+5
   6.68887E+4  -1.16733E+5
   6.76981E+4  -1.14857E+5
   6.83766E+4  -1.12840E+5
   6.87310E+4  -1.10460E+5
   6.91114E+4  -1.08763E+5
   6.99618E+4  -1.06915E+5
   7.05315E+4  -1.04787E+5
   7.09729E+4  -1.02823E+5
   7.15782E+4  -1.01073E+5
   7.23491E+4  -9.91240E+4
   7.29247E+4  -9.69631E+4
   7.31379E+4  -9.48610E+4
   7.34531E+4  -9.29710E+4
   7.34949E+4  -9.12771E+4
   7.41139E+4  -8.93296E+4
   7.46554E+4  -8.74555E+4
   7.50488E+4  -8.56524E+4
   7.52921E+4  -8.38340E+4
   7.55612E+4  -8.20537E+4
   7.55855E+4  -8.01619E+4
   7.58114E+4  -7.84391E+4
   7.59398E+4  -7.68364E+4
   7.60115E+4  -7.47791E+4
   7.61388E+4  -7.36012E+4
   7.66045E+4  -7.18742E+4
   7.66624E+4  -6.98321E+4
   7.64777E+4  -6.80783E+4
   7.65487E+4  -6.66058E+4
   7.65987E+4  -6.50242E+4
   7.67306E+4  -6.32484E+4
   7.62438E+4  -6.19370E+4
   7.64264E+4  -6.02437E+4
   7.60535E+4  -5.86652E+4
   7.62746E+4  -5.73804E+4
   7.62001E+4  -5.57120E+4
   7.58057E+4  -5.40375E+4
   7.55979E+4  -5.28103E+4
   7.51276E+4  -5.15049E+4
   7.52930E+4  -5.00024E+4
   7.49229E+4  -4.85959E+4
   7.47741E+4  -4.71244E+4
   7.43109E+4  -4.58164E+4
   7.38046E+4  -4.43506E+4
   7.37443E+4  -4.29468E+4
   7.30461E+4  -4.15577E+4
   7.29400E+4  -4.03099E+4
   7.26795E+4  -3.90920E+4
   7.24062E+4  -3.81204E+4
   7.18889E+4  -3.66234E+4
   7.14152E+4  -3.53466E+4
   7.10007E+4  -3.43711E+4
   7.04346E+4  -3.29550E+4
   7.00981E+4  -3.17832E+4
   6.96157E+4  -3.05614E+4
   6.93005E+4  -2.93985E+4
   6.88217E+4  -2.83678E+4
   6.81644E+4  -2.71584E+4
   6.77596E+4  -2.63164E+4
   6.71255E+4  -2.52580E+4
   6.70052E+4  -2.37796E+4
   6.62211E+4  -2.29799E+4
   6.59693E+4  -2.19822E+4
   6.53273E+4  -2.10086E+4
   6.47554E+4  -1.99187E+4
   6.42963E+4  -1.90688E+4
   6.36702E+4  -1.79731E+4
   6.33336E+4  -1.70413E+4
   6.27327E+4  -1.61808E+4
   6.19973E+4  -1.51428E+4
   6.14312E+4  -1.42841E+4
   6.08289E+4  -1.33979E+4
   6.02999E+4  -1.24291E+4
   5.98521E+4  -1.17261E+4
   5.92163E+4  -1.07493E+4
   5.85161E+4  -9.82775E+3
   5.84986E+4  -9.19721E+3
   5.76950E+4  -8.61097E+3
   5.69639E+4  -7.61055E+3
   5.66365E+4  -7.01472E+3
   5.59805E+4  -6.28976E+3
   5.51423E+4  -5.50422E+3
   5.45715E+4  -4.86668E+3
   5.40798E+4  -4.09821E+3
   5.37408E+4  -3.57413E+3
   5.29464E+4  -2.64545E+3
   5.26865E+4  -2.03488E+3
   5.17022E+4  -1.46085E+3
   5.10760E+4  -6.82646E+2
   5.04932E+4  -4.86202E+2
   5.02722E+4   4.40868E+2
   4.96050E+4   1.13067E+3
   4.88256E+4   1.58833E+3
   4.82193E+4   1.82336E+3
   4.77222E+4   2.81173E+3
   4.71288E+4   3.01365E+3
   4.64619E+4   3.61045E+3
   4.57728E+4   3.98396E+3
   4.54415E+4   4.54764E+3
   4.50202E+4   4.81390E+3
   4.41450E+4   5.35264E+3
   4.37658E+4   5.96157E+3
   4.30450E+4   6.32178E+3
   4.24960E+4   6.62524E+3
   4.19226E+4   6.99400E+3
   4.13978E+4   7.21086E+3
   4.06836E+4   7.41598E+3
   4.02349E+4   7.99899E+3
   3.95740E+4   8.30888E+3
   3.92095E+4   8.65362E+3
   3.86749E+4   9.37193E+3
   3.80564E+4   9.38263E+3
   3.74171E+4   9.50763E+3
   3.70251E+4   9.94763E+3
   3.65762E+4   1.00276E+4
   3.59778E+4   1.04283E+4
   3.55048E+4   1.03937E+4
