 LCModel (Version 6.3-1N) Copyright: S.W. Provencher.          Ref.: Magn. Reson. Med. 30:672-679 (1993).                
 Slice_N1@11_19  28-Feb-2025 11:39:48
 27 lines in following concentration table = NCONC+1
    Conc.  %SD /Cr+PCr  Metabolite                                         
 2.17E-04   7% 2.7E-04 Mac                                                 
    3.370  30%   4.165 Cr                                                  
    3.103  30%   3.835 PCr                                                 
    4.699  21%   5.808 Ins                                                 
    6.906  12%   8.536 NAA                                                 
    6.731  15%   8.319 Tau                                                 
 3.18E-03 999% 3.9E-03 PCho                                                
    1.442  61%   1.782 GPC                                                 
    8.475  15%  10.474 Glu                                                 
    3.621  26%   4.476 Gln                                                 
    0.000 999%   0.000 Ala                                                 
    2.645  50%   3.269 Asc                                                 
    1.624  61%   2.007 Asp                                                 
    0.366 148%   0.452 GABA                                                
    0.569 118%   0.703 Glc                                                 
    1.044  51%   1.290 GSH                                                 
    1.480  50%   1.829 Lac                                                 
    0.775  72%   0.957 NAAG                                                
    1.925  64%   2.379 PE                                                  
    1.445  23%   1.786 GPC+PCho                                            
    7.681  12%   9.493 NAA+NAAG                                            
   12.096  13%  14.950 Glu+Gln                                             
    6.473  13%   8.000 Cr+PCr                                              
    7.681  12%   9.493 NAA+NAAG                                            
    6.473  13%   8.000 Cr+PCr                                              
   12.096  13%  14.950 Glu+Gln                                             
   6 lines in following misc. output table
  FWHM = 0.024 ppm    S/N =   3                                            
  Data shift = 0.033 ppm                                                   
  Ph:-121 deg       0.0 deg/ppm                                            
  alphaB,S = 1.3E-01,   3.2E+00                                            
   19 spline knots.   Ns = 5(1)                                            
  ( 4) 1 infls.   ( 5) 2 extrs.                                            
  480 points on ppm-axis = NY
      4.100000     4.091866     4.083733     4.075600     4.067466     4.059333     4.051199     4.043066     4.034933     4.026799
      4.018666     4.010532     4.002399     3.994265     3.986132     3.977998     3.969864     3.961731     3.953597     3.945463
      3.937330     3.929196     3.921062     3.912929     3.904795     3.896662     3.888528     3.880394     3.872261     3.864127
      3.855993     3.847860     3.839726     3.831592     3.823459     3.815325     3.807191     3.799058     3.790924     3.782790
      3.774657     3.766523     3.758389     3.750256     3.742122     3.733989     3.725855     3.717721     3.709588     3.701454
      3.693320     3.685187     3.677053     3.668919     3.660786     3.652652     3.644518     3.636385     3.628251     3.620117
      3.611984     3.603850     3.595716     3.587583     3.579449     3.571316     3.563182     3.555048     3.546915     3.538781
      3.530647     3.522514     3.514380     3.506246     3.498113     3.489979     3.481845     3.473712     3.465578     3.457444
      3.449311     3.441177     3.433043     3.424910     3.416776     3.408643     3.400509     3.392375     3.384242     3.376108
      3.367974     3.359841     3.351707     3.343573     3.335440     3.327306     3.319172     3.311039     3.302905     3.294771
      3.286638     3.278504     3.270370     3.262237     3.254103     3.245970     3.237836     3.229702     3.221569     3.213435
      3.205301     3.197168     3.189034     3.180900     3.172767     3.164633     3.156499     3.148366     3.140232     3.132098
      3.123965     3.115831     3.107697     3.099564     3.091430     3.083297     3.075163     3.067029     3.058896     3.050762
      3.042628     3.034495     3.026361     3.018227     3.010094     3.001960     2.993826     2.985693     2.977559     2.969425
      2.961292     2.953158     2.945024     2.936891     2.928757     2.920624     2.912490     2.904356     2.896223     2.888089
      2.879955     2.871822     2.863688     2.855554     2.847421     2.839287     2.831153     2.823020     2.814886     2.806752
      2.798619     2.790485     2.782351     2.774218     2.766084     2.757951     2.749817     2.741683     2.733550     2.725416
      2.717282     2.709149     2.701015     2.692881     2.684748     2.676614     2.668480     2.660347     2.652213     2.644079
      2.635946     2.627812     2.619678     2.611545     2.603411     2.595278     2.587144     2.579010     2.570877     2.562743
      2.554609     2.546476     2.538342     2.530208     2.522075     2.513941     2.505807     2.497674     2.489540     2.481406
      2.473273     2.465139     2.457006     2.448872     2.440738     2.432605     2.424471     2.416337     2.408204     2.400070
      2.391936     2.383803     2.375669     2.367535     2.359402     2.351268     2.343134     2.335001     2.326867     2.318733
      2.310600     2.302466     2.294333     2.286199     2.278065     2.269932     2.261798     2.253664     2.245531     2.237397
      2.229263     2.221130     2.212996     2.204862     2.196729     2.188595     2.180461     2.172328     2.164194     2.156060
      2.147927     2.139793     2.131660     2.123526     2.115392     2.107259     2.099125     2.090991     2.082858     2.074724
      2.066590     2.058457     2.050323     2.042189     2.034056     2.025922     2.017788     2.009655     2.001521     1.993387
      1.985254     1.977120     1.968987     1.960853     1.952719     1.944586     1.936452     1.928318     1.920185     1.912051
      1.903917     1.895784     1.887650     1.879516     1.871383     1.863249     1.855115     1.846982     1.838848     1.830714
      1.822581     1.814447     1.806314     1.798180     1.790046     1.781913     1.773779     1.765645     1.757512     1.749378
      1.741244     1.733111     1.724977     1.716843     1.708710     1.700576     1.692442     1.684309     1.676175     1.668041
      1.659908     1.651774     1.643641     1.635507     1.627373     1.619240     1.611106     1.602972     1.594839     1.586705
      1.578571     1.570438     1.562304     1.554170     1.546037     1.537903     1.529769     1.521636     1.513502     1.505368
      1.497235     1.489101     1.480968     1.472834     1.464700     1.456567     1.448433     1.440299     1.432166     1.424032
      1.415898     1.407765     1.399631     1.391497     1.383364     1.375230     1.367096     1.358963     1.350829     1.342695
      1.334562     1.326428     1.318295     1.310161     1.302027     1.293894     1.285760     1.277626     1.269493     1.261359
      1.253225     1.245092     1.236958     1.228824     1.220691     1.212557     1.204423     1.196290     1.188156     1.180022
      1.171889     1.163755     1.155622     1.147488     1.139354     1.131221     1.123087     1.114953     1.106820     1.098686
      1.090552     1.082419     1.074285     1.066151     1.058018     1.049884     1.041750     1.033617     1.025483     1.017349
      1.009216     1.001082     0.992949     0.984815     0.976681     0.968548     0.960414     0.952280     0.944147     0.936013
      0.927879     0.919746     0.911612     0.903478     0.895345     0.887211     0.879077     0.870944     0.862810     0.854676
      0.846543     0.838409     0.830276     0.822142     0.814008     0.805875     0.797741     0.789607     0.781474     0.773340
      0.765206     0.757073     0.748939     0.740805     0.732672     0.724538     0.716404     0.708271     0.700137     0.692003
      0.683870     0.675736     0.667603     0.659469     0.651335     0.643202     0.635068     0.626934     0.618801     0.610667
      0.602533     0.594400     0.586266     0.578132     0.569999     0.561865     0.553731     0.545598     0.537464     0.529330
      0.521197     0.513063     0.504930     0.496796     0.488662     0.480529     0.472395     0.464261     0.456128     0.447994
      0.439861     0.431727     0.423593     0.415460     0.407326     0.399192     0.391059     0.382925     0.374792     0.366658
      0.358524     0.350391     0.342257     0.334124     0.325990     0.317856     0.309723     0.301589     0.293455     0.285322
      0.277188     0.269055     0.260921     0.252787     0.244654     0.236520     0.228386     0.220253     0.212119     0.203986
 NY phased data points follow
   2.69226E+01  2.86124E+01  2.67504E+01  1.54292E+01  2.16537E+01  3.57023E+01  2.81757E+01  2.73149E+01  1.26935E+01  3.58196E+01
   1.75270E+01 -1.01825E+01  3.76937E+00  2.19111E+00  2.36046E+01  1.21750E+01 -1.05692E+01  7.55333E+00  5.91481E+00 -3.17066E+01
  -3.47064E+01 -1.56536E+01 -1.34923E+01  1.27134E+00  2.04193E+01  5.04251E+01  6.64179E+01  6.45203E+01  6.21989E+01  6.32622E+01
   6.84810E+01  5.00313E+01  5.09358E+01  6.41232E+01  5.67777E+01  6.07763E+01  6.10316E+01  5.43611E+01  2.88609E+01 -9.26760E-01
   1.27801E-01 -8.13752E+00 -9.10929E+00  9.21747E+00  1.73938E+01  2.67314E+01  5.32227E+01  9.05305E+01  1.02709E+02  9.35685E+01
   7.77735E+01  6.69959E+01  7.26313E+01  6.86190E+01  4.52921E+01  4.93540E+01  6.17101E+01  4.02659E+01  3.89700E+01  4.00007E+01
   4.40769E+01  4.94944E+01  3.83290E+01  6.67840E+01  9.32944E+01  1.00975E+02  1.03129E+02  8.70519E+01  4.45811E+01  1.39415E+01
   2.47908E+01  4.00747E+01  5.52267E+01  5.39555E+01  7.41527E+01  8.91096E+01  9.08324E+01  1.06007E+02  8.47110E+01  8.57419E+01
   9.67052E+01  8.49016E+01  5.74639E+01  2.68500E+01  2.30922E+01  2.38863E+01  2.71754E+01  3.67236E+01  5.92882E+01  7.94504E+01
   9.37588E+01  9.48420E+01  9.27242E+01  1.01691E+02  1.01502E+02  9.45968E+01  1.03633E+02  1.30377E+02  1.14731E+02  1.15088E+02
   1.21047E+02  8.89889E+01  8.77753E+01  7.79253E+01  5.94206E+01  3.95318E+01  3.33532E+01  3.68516E+01  1.32572E+01 -4.15422E+01
  -1.22887E+02 -1.23646E+02 -7.68139E+01 -4.85874E+01 -2.30839E+01 -1.60861E+01  1.68113E+00  9.56352E+00  2.13622E+01  2.41986E+01
   2.24508E+01  4.81020E+01  3.15946E+01  3.48125E+01  5.47940E+01  6.17148E+01  7.70582E+01  6.92945E+01  9.49105E+01  1.36061E+02
   1.86762E+02  1.74121E+02  6.29557E+01 -1.66269E+01 -5.25285E+01 -4.23134E+01 -2.90443E+01 -3.64497E+01 -3.45109E+01 -2.47971E+01
  -2.17318E+01 -2.84423E+01 -2.75709E+01 -2.89853E+01 -2.60544E+01 -3.38647E+01 -2.80124E+01 -1.57308E+01 -1.28303E+01 -1.73097E+01
  -1.87189E+01 -5.80073E+00 -1.79897E+01 -6.37958E+00  1.01670E+00 -3.30994E-01  9.65513E+00  1.69616E+00  6.30171E-01  2.37353E+00
   9.78830E+00  8.28867E+00  3.38274E+00  1.70199E-01  9.37040E+00  8.74146E+00  1.38284E+00  3.16069E+00  6.55479E+00  1.45318E+01
   2.33395E+00  3.48272E+01  6.11349E+01  5.95145E+01  4.68283E+01  1.60686E+01  3.69104E+01  5.58728E+01  4.70944E+01  2.93353E+01
   2.32554E+01  4.52921E+00 -4.20763E+00  1.05601E+01 -1.67402E+01 -2.42987E+01 -6.79571E-01 -2.58333E+00 -2.30084E+00  1.12857E+01
  -2.89599E+00  5.29889E+00  1.04953E+01  8.61758E+00  3.45900E+01  1.50294E+01 -6.28748E+00  2.49880E+00  1.29682E+01  5.23080E+00
   9.87928E+00  1.64006E+01  2.34175E+01  4.95501E+01  3.87597E+01  2.26477E+01  1.89184E+01  1.57909E+01 -8.51967E+00 -1.52563E+01
  -1.39860E+01 -2.44414E+01  5.39947E+00  1.25236E+01  1.27010E+01  5.77364E+01  8.39717E+01  7.28259E+01  8.20126E+01  6.75303E+01
   5.25252E+01  4.02216E+01  1.84805E+01  4.29982E+01  2.68016E+01  3.25037E+01  5.18015E+01  3.20147E+01  4.07943E+01  5.70394E+01
   5.02794E+01  2.06119E+01  2.29948E+01  2.00736E+01 -8.35612E+00 -1.75779E+01 -2.03038E+01 -4.39265E+01 -3.90355E+01 -2.42754E+01
  -4.76041E+01 -3.92175E+01 -2.00183E+01 -8.01016E+00  1.08259E+00  2.66969E+01  2.54343E+01  1.42500E+01  2.87267E+01 -3.14166E+00
   3.92864E+00  7.61582E+00  6.39533E+00  2.65367E+01 -1.55956E+01 -5.58583E+01 -7.66378E+01 -1.43901E+01  1.22368E+02  1.76785E+02
   1.68878E+02  1.71147E+02  1.54467E+02  1.39686E+02  1.23063E+02  8.51641E+01  9.47644E+01  1.06489E+02  9.22057E+01  9.12759E+01
   9.47566E+01  9.19926E+01  7.69010E+01  9.36557E+01  8.97193E+01  7.86679E+01  1.08410E+02  8.73159E+01  7.22225E+01  8.02127E+01
   7.21762E+01  8.06794E+01  7.79994E+01  5.70627E+01  4.93258E+01  4.53664E+01  4.25557E+01  6.17340E+01  5.36179E+01  4.97332E+01
   5.02343E+01  2.88689E+01  2.00167E+01  1.79199E+01  3.09312E+01  2.27973E+01  2.88500E+01  1.64261E+01 -5.47212E+00  2.29872E+00
  -5.71557E+00  1.45743E+01  2.01050E+01  2.62960E+01  2.47816E+01  2.47374E+01  4.14834E+01  2.57679E+01  2.98547E+01  2.49764E+01
   1.58451E+01  1.62538E+01  3.34601E+01  4.63212E+01  3.63606E+01  5.82612E+01  6.29201E+01  8.17854E+01  1.22044E+02  1.19587E+02
   1.43125E+02  1.72489E+02  1.71943E+02  1.83449E+02  1.72612E+02  1.60475E+02  1.58549E+02  1.40416E+02  1.32785E+02  1.38974E+02
   1.37223E+02  1.08613E+02  8.81288E+01  8.49013E+01  8.86418E+01  9.01532E+01  7.13554E+01  7.04568E+01  9.04214E+01  8.36860E+01
   6.74852E+01  7.32452E+01  6.80076E+01  6.31050E+01  7.35870E+01  7.35393E+01  8.00497E+01  9.60930E+01  9.64086E+01  1.03579E+02
   1.14565E+02  1.04467E+02  9.06023E+01  7.90250E+01  7.60199E+01  7.51432E+01  6.46949E+01  3.42148E+01  1.92803E+01  2.38211E+01
   2.09495E+01  3.23980E+01  3.35162E+01  4.11844E+01  5.49705E+01  5.45491E+01  6.29740E+01  5.93285E+01  5.16978E+01  6.84938E+01
   6.78804E+01  6.19652E+01  8.11185E+01  7.60139E+01  6.36527E+01  6.07206E+01  6.49569E+01  7.09757E+01  7.16390E+01  7.68348E+01
   9.29876E+01  9.84635E+01  8.95918E+01  1.07748E+02  1.13314E+02  1.20461E+02  1.28657E+02  1.32293E+02  1.33767E+02  1.23757E+02
   1.31542E+02  1.20966E+02  1.09470E+02  9.09794E+01  8.48308E+01  8.40601E+01  6.37680E+01  5.46398E+01  6.14051E+01  6.83795E+01
   4.32743E+01  2.88180E+01  9.77781E+00  6.56447E+00  2.25683E+01  1.41636E+01  4.29216E+00  8.63324E+00 -5.68532E-01 -1.45656E+01
   4.94391E+00  1.58754E+00  7.99713E+00  2.26153E+00  7.84220E+00  1.76684E+01 -3.69407E+00  1.57368E+01  2.33094E+00  2.53070E+00
   8.19374E+00 -8.78807E+00 -7.19879E+00 -3.91054E-01 -6.91120E+00 -1.69541E+01  3.32392E+00 -7.23490E+00 -8.88807E+00 -7.29752E+00
  -4.15331E+00  2.02005E-01 -2.08406E+00  1.18994E+01 -4.33882E+00 -2.48331E-01 -7.59251E+00 -7.09155E+00  3.24991E-01 -1.17058E+01
   1.03578E+01  9.72502E+00  1.70090E+00 -4.28082E+00  1.57184E+00  7.85064E+00 -5.53482E+00  7.65731E+00  3.42949E+00 -1.92899E+00
   9.54458E+00  5.11524E+00 -4.25328E+00  2.38072E+00  1.90545E+01  5.87462E-02 -9.65355E+00 -9.41974E+00 -2.94035E+00  1.04140E+01
   2.78476E+00  9.28571E+00 -1.35644E+01 -4.01178E+00  1.77484E+01 -8.19290E+00  1.76000E+00  1.35480E+01  1.49775E+01  1.33337E+01
   1.92262E+00  3.23494E+00  1.13680E+01 -4.01479E+00  3.73758E-01  4.51733E+00 -1.33232E+01 -5.59907E+00 -1.45822E+00  8.03049E+00
 NY points of the fit to the data follow
   2.26438E+01  1.73474E+01  9.28264E+00  2.29211E+00  5.73345E+00  2.21956E+01  3.81381E+01  4.03519E+01  3.17610E+01  2.11831E+01
   1.15984E+01  5.30097E+00  3.60247E+00  5.17750E+00  9.27636E+00  1.41610E+01  1.24793E+01  1.08381E+01 -1.60772E+00 -2.45634E+01
  -3.18214E+01 -2.20591E+01 -9.59973E+00  5.64018E+00  3.53590E+01  6.22402E+01  6.63850E+01  6.93861E+01  7.36582E+01  7.24017E+01
   7.18459E+01  7.13300E+01  7.09975E+01  7.05268E+01  6.92561E+01  6.94864E+01  6.61525E+01  6.09238E+01  4.48474E+01  1.79837E+01
  -8.52293E+00 -1.75055E+01 -9.30234E+00  3.21040E+00  2.01076E+01  4.20901E+01  5.93586E+01  7.08598E+01  7.70250E+01  8.10327E+01
   8.08780E+01  7.68947E+01  6.85473E+01  5.78922E+01  4.76200E+01  4.40806E+01  4.92983E+01  4.77769E+01  3.60992E+01  3.03267E+01
   3.62806E+01  4.24201E+01  4.80784E+01  6.39583E+01  8.08672E+01  8.77285E+01  9.02176E+01  8.03852E+01  5.43389E+01  3.24485E+01
   2.93437E+01  3.58982E+01  4.05195E+01  4.98363E+01  6.62783E+01  7.86555E+01  8.68835E+01  9.29244E+01  1.02107E+02  1.02531E+02
   9.78988E+01  7.82400E+01  4.89741E+01  1.98418E+01  2.86053E+00  4.77796E+00  1.97297E+01  3.98462E+01  5.81421E+01  6.51323E+01
   7.20166E+01  7.53299E+01  7.86369E+01  8.24958E+01  8.71104E+01  9.03964E+01  9.42940E+01  9.82014E+01  9.96860E+01  1.03311E+02
   1.16069E+02  1.17462E+02  1.07252E+02  8.45753E+01  6.76642E+01  5.10645E+01  5.02883E+01  6.01781E+01  3.07654E+01 -4.27937E+01
  -1.00261E+02 -1.01995E+02 -6.79157E+01 -4.17672E+01 -1.92259E+01 -5.59030E+00  8.75228E-01  6.81086E+00  1.23202E+01  1.72223E+01
   2.16496E+01  2.59255E+01  3.02634E+01  3.51462E+01  4.13535E+01  4.76905E+01  5.60399E+01  7.80244E+01  1.05545E+02  1.43786E+02
   1.82765E+02  1.68808E+02  8.12613E+01 -1.61579E+01 -5.42107E+01 -4.90030E+01 -3.92329E+01 -2.54353E+01 -1.68765E+01 -1.57167E+01
  -1.59341E+01 -1.65303E+01 -1.72923E+01 -1.81938E+01 -1.87567E+01 -1.89831E+01 -1.75756E+01 -1.49083E+01 -1.23509E+01 -9.67969E+00
  -7.41388E+00 -5.57822E+00 -4.20548E+00 -2.69150E+00 -2.11186E-02  2.75751E+00  4.11256E+00  4.12166E+00  4.10448E+00  5.68331E+00
   8.92299E+00  1.13152E+01  1.04380E+01  7.47650E+00  5.66288E+00  6.14697E+00  6.68092E+00  5.09071E+00  2.51473E+00  2.03122E+00
   8.42400E+00  2.21780E+01  3.28475E+01  3.07729E+01  2.19421E+01  2.04928E+01  3.14327E+01  4.15162E+01  3.90479E+01  2.61671E+01
   1.37990E+01  7.42754E+00  3.35318E+00  3.42542E-01 -4.14360E-01 -1.21322E+00 -1.41156E+00 -3.03742E-01  7.39598E-01  8.59846E-01
   2.11476E+00  2.83599E+00  2.36536E+00  6.33621E+00  1.35193E+01  1.58914E+01  1.30335E+01  1.32516E+01  1.76789E+01  1.83494E+01
   1.72835E+01  1.99688E+01  2.90414E+01  3.79263E+01  3.86956E+01  3.42084E+01  2.86150E+01  1.94839E+01  7.37341E+00 -2.72192E+00
  -1.55140E+01 -2.12405E+01 -2.07331E+01 -1.20000E+01  1.27633E+01  4.56270E+01  7.24849E+01  8.31047E+01  8.21636E+01  7.21806E+01
   5.28946E+01  4.36035E+01  4.19721E+01  4.30078E+01  4.68005E+01  4.88809E+01  4.86050E+01  4.54945E+01  3.92469E+01  3.20249E+01
   2.34056E+01  1.40938E+01  5.36142E+00 -3.78493E+00 -1.41387E+01 -2.28562E+01 -3.12116E+01 -3.75576E+01 -3.96230E+01 -3.96940E+01
  -3.57394E+01 -2.92515E+01 -1.80981E+01 -4.37722E+00  7.24981E+00  1.71728E+01  1.99128E+01  1.80611E+01  1.51429E+01  9.70937E+00
   1.00033E+01  1.34167E+01  7.55580E+00  4.05202E+00 -1.56872E+01 -6.62650E+01 -8.83010E+01 -1.91518E+01  9.35497E+01  1.49764E+02
   1.48453E+02  1.37663E+02  1.20217E+02  1.06172E+02  1.01832E+02  9.89256E+01  9.59805E+01  9.26782E+01  8.96141E+01  8.71917E+01
   8.58046E+01  8.55833E+01  8.58460E+01  8.63727E+01  8.68218E+01  8.67113E+01  8.61540E+01  8.53861E+01  8.48968E+01  8.42288E+01
   8.30586E+01  8.15127E+01  8.00012E+01  7.88890E+01  7.77207E+01  7.64080E+01  7.50922E+01  7.39307E+01  7.26304E+01  7.07270E+01
   6.82711E+01  6.52894E+01  6.19062E+01  5.80796E+01  5.45779E+01  5.25934E+01  5.22825E+01  5.34803E+01  5.56820E+01  5.80529E+01
   6.04753E+01  6.32019E+01  6.62013E+01  6.89813E+01  7.14178E+01  7.35552E+01  7.53078E+01  7.73938E+01  8.00187E+01  8.29163E+01
   8.55579E+01  8.77017E+01  8.95450E+01  9.16377E+01  9.37823E+01  9.54595E+01  9.65453E+01  9.74909E+01  9.74697E+01  9.66396E+01
   9.57565E+01  9.46150E+01  9.29134E+01  9.11400E+01  8.96112E+01  8.76629E+01  8.41299E+01  7.83166E+01  7.03293E+01  6.19254E+01
   5.39718E+01  4.67961E+01  4.12927E+01  3.81921E+01  3.82489E+01  4.13258E+01  4.79347E+01  5.49988E+01  6.32196E+01  7.06290E+01
   7.09488E+01  6.45844E+01  5.54562E+01  4.80034E+01  4.48942E+01  4.82775E+01  5.61045E+01  6.11129E+01  6.41912E+01  6.66462E+01
   6.70159E+01  6.60969E+01  6.40140E+01  6.02477E+01  5.51390E+01  5.03414E+01  4.69469E+01  4.51377E+01  4.46877E+01  4.54409E+01
   4.72295E+01  4.94640E+01  5.22169E+01  5.50945E+01  5.78459E+01  6.04240E+01  6.25411E+01  6.43192E+01  6.60924E+01  6.79643E+01
   6.98832E+01  7.15355E+01  7.32204E+01  7.47476E+01  7.64811E+01  7.90586E+01  8.19970E+01  8.48923E+01  8.84834E+01  9.30477E+01
   9.75869E+01  1.02397E+02  1.08658E+02  1.16027E+02  1.23844E+02  1.31225E+02  1.36731E+02  1.38189E+02  1.34376E+02  1.25543E+02
   1.14088E+02  1.03155E+02  9.43087E+01  8.74750E+01  8.26122E+01  7.86627E+01  7.34448E+01  6.63445E+01  5.79800E+01  4.90708E+01
   4.03125E+01  3.30415E+01  2.77809E+01  2.36820E+01  2.05582E+01  1.85814E+01  1.72848E+01  1.62476E+01  1.49555E+01  1.35970E+01
   1.21407E+01  1.10632E+01  1.04875E+01  1.01593E+01  9.70339E+00  9.25219E+00  9.12797E+00  8.71770E+00  7.79559E+00  7.26129E+00
   7.43120E+00  7.52317E+00  6.96464E+00  6.47375E+00  6.32022E+00  6.10263E+00  5.51891E+00  4.94659E+00  4.88353E+00  5.13841E+00
   5.23942E+00  4.91108E+00  4.46071E+00  3.81274E+00  3.29922E+00  3.07540E+00  3.01973E+00  3.04018E+00  3.11069E+00  3.15616E+00
   3.02095E+00  2.89106E+00  2.84914E+00  2.49324E+00  1.87291E+00  1.25556E+00  1.09854E+00  1.11540E+00  1.10003E+00  1.11808E+00
   9.44893E-01  5.25103E-01  1.36370E-01  9.23753E-02  2.01656E-01  1.99235E-01  1.95234E-01  1.42836E-01  1.50536E-02 -5.41476E-02
  -5.36214E-02 -1.63801E-01 -5.57655E-01 -1.01023E+00 -1.40493E+00 -1.57261E+00 -1.63684E+00 -1.27806E+00 -7.34096E-01 -4.79798E-01
  -6.61674E-01 -1.21823E+00 -1.86160E+00 -2.09181E+00 -2.11875E+00 -2.18595E+00 -2.27014E+00 -2.09909E+00 -2.37462E+00 -2.87533E+00
 NY background values follow
     4.563E+01    4.566E+01    4.570E+01    4.574E+01    4.578E+01    4.581E+01    4.585E+01    4.589E+01    4.593E+01    4.597E+01
     4.601E+01    4.605E+01    4.609E+01    4.613E+01    4.618E+01    4.622E+01    4.626E+01    4.631E+01    4.636E+01    4.640E+01
     4.645E+01    4.650E+01    4.655E+01    4.661E+01    4.666E+01    4.671E+01    4.677E+01    4.683E+01    4.689E+01    4.695E+01
     4.701E+01    4.708E+01    4.714E+01    4.721E+01    4.728E+01    4.735E+01    4.742E+01    4.749E+01    4.756E+01    4.763E+01
     4.770E+01    4.777E+01    4.784E+01    4.790E+01    4.797E+01    4.804E+01    4.810E+01    4.817E+01    4.823E+01    4.829E+01
     4.835E+01    4.840E+01    4.845E+01    4.850E+01    4.855E+01    4.859E+01    4.863E+01    4.867E+01    4.870E+01    4.873E+01
     4.875E+01    4.877E+01    4.879E+01    4.880E+01    4.881E+01    4.881E+01    4.881E+01    4.880E+01    4.879E+01    4.877E+01
     4.875E+01    4.873E+01    4.870E+01    4.866E+01    4.863E+01    4.858E+01    4.853E+01    4.848E+01    4.842E+01    4.836E+01
     4.829E+01    4.822E+01    4.814E+01    4.806E+01    4.798E+01    4.788E+01    4.779E+01    4.769E+01    4.758E+01    4.747E+01
     4.735E+01    4.723E+01    4.711E+01    4.698E+01    4.684E+01    4.670E+01    4.656E+01    4.641E+01    4.626E+01    4.611E+01
     4.595E+01    4.579E+01    4.563E+01    4.547E+01    4.530E+01    4.513E+01    4.496E+01    4.479E+01    4.461E+01    4.444E+01
     4.426E+01    4.408E+01    4.390E+01    4.372E+01    4.354E+01    4.336E+01    4.318E+01    4.300E+01    4.282E+01    4.265E+01
     4.247E+01    4.229E+01    4.212E+01    4.194E+01    4.177E+01    4.160E+01    4.143E+01    4.126E+01    4.109E+01    4.092E+01
     4.076E+01    4.059E+01    4.043E+01    4.027E+01    4.011E+01    3.996E+01    3.980E+01    3.965E+01    3.950E+01    3.935E+01
     3.920E+01    3.906E+01    3.891E+01    3.877E+01    3.863E+01    3.850E+01    3.836E+01    3.823E+01    3.810E+01    3.798E+01
     3.785E+01    3.773E+01    3.761E+01    3.750E+01    3.738E+01    3.727E+01    3.716E+01    3.706E+01    3.695E+01    3.685E+01
     3.675E+01    3.665E+01    3.655E+01    3.645E+01    3.636E+01    3.626E+01    3.617E+01    3.608E+01    3.599E+01    3.590E+01
     3.581E+01    3.573E+01    3.564E+01    3.555E+01    3.547E+01    3.539E+01    3.530E+01    3.522E+01    3.514E+01    3.506E+01
     3.497E+01    3.489E+01    3.481E+01    3.473E+01    3.465E+01    3.457E+01    3.449E+01    3.441E+01    3.433E+01    3.425E+01
     3.417E+01    3.409E+01    3.402E+01    3.394E+01    3.387E+01    3.379E+01    3.372E+01    3.364E+01    3.357E+01    3.350E+01
     3.343E+01    3.336E+01    3.330E+01    3.323E+01    3.317E+01    3.310E+01    3.304E+01    3.298E+01    3.292E+01    3.286E+01
     3.281E+01    3.275E+01    3.270E+01    3.265E+01    3.260E+01    3.255E+01    3.250E+01    3.245E+01    3.241E+01    3.236E+01
     3.232E+01    3.228E+01    3.223E+01    3.219E+01    3.215E+01    3.211E+01    3.208E+01    3.204E+01    3.200E+01    3.196E+01
     3.192E+01    3.189E+01    3.185E+01    3.181E+01    3.178E+01    3.174E+01    3.171E+01    3.167E+01    3.163E+01    3.160E+01
     3.156E+01    3.152E+01    3.149E+01    3.145E+01    3.141E+01    3.138E+01    3.134E+01    3.131E+01    3.128E+01    3.124E+01
     3.121E+01    3.119E+01    3.116E+01    3.114E+01    3.112E+01    3.110E+01    3.108E+01    3.107E+01    3.106E+01    3.106E+01
     3.105E+01    3.106E+01    3.106E+01    3.107E+01    3.109E+01    3.111E+01    3.113E+01    3.116E+01    3.120E+01    3.124E+01
     3.128E+01    3.133E+01    3.139E+01    3.146E+01    3.153E+01    3.161E+01    3.170E+01    3.180E+01    3.190E+01    3.202E+01
     3.214E+01    3.228E+01    3.242E+01    3.258E+01    3.275E+01    3.293E+01    3.312E+01    3.333E+01    3.354E+01    3.378E+01
     3.402E+01    3.428E+01    3.455E+01    3.484E+01    3.515E+01    3.547E+01    3.581E+01    3.616E+01    3.653E+01    3.692E+01
     3.733E+01    3.775E+01    3.819E+01    3.864E+01    3.911E+01    3.959E+01    4.008E+01    4.057E+01    4.108E+01    4.159E+01
     4.210E+01    4.262E+01    4.314E+01    4.366E+01    4.417E+01    4.469E+01    4.520E+01    4.570E+01    4.620E+01    4.669E+01
     4.717E+01    4.763E+01    4.809E+01    4.853E+01    4.895E+01    4.936E+01    4.975E+01    5.012E+01    5.046E+01    5.079E+01
     5.108E+01    5.136E+01    5.161E+01    5.184E+01    5.204E+01    5.222E+01    5.237E+01    5.251E+01    5.262E+01    5.271E+01
     5.277E+01    5.282E+01    5.284E+01    5.284E+01    5.282E+01    5.278E+01    5.272E+01    5.264E+01    5.254E+01    5.242E+01
     5.229E+01    5.213E+01    5.196E+01    5.176E+01    5.155E+01    5.132E+01    5.108E+01    5.081E+01    5.053E+01    5.024E+01
     4.992E+01    4.960E+01    4.925E+01    4.890E+01    4.852E+01    4.814E+01    4.774E+01    4.733E+01    4.690E+01    4.647E+01
     4.602E+01    4.557E+01    4.510E+01    4.463E+01    4.414E+01    4.365E+01    4.315E+01    4.264E+01    4.213E+01    4.160E+01
     4.108E+01    4.055E+01    4.001E+01    3.947E+01    3.892E+01    3.837E+01    3.782E+01    3.727E+01    3.672E+01    3.616E+01
     3.560E+01    3.505E+01    3.449E+01    3.394E+01    3.338E+01    3.282E+01    3.227E+01    3.172E+01    3.116E+01    3.061E+01
     3.006E+01    2.952E+01    2.897E+01    2.843E+01    2.789E+01    2.735E+01    2.681E+01    2.628E+01    2.575E+01    2.523E+01
     2.471E+01    2.419E+01    2.368E+01    2.317E+01    2.266E+01    2.217E+01    2.167E+01    2.118E+01    2.070E+01    2.022E+01
     1.975E+01    1.929E+01    1.883E+01    1.837E+01    1.792E+01    1.748E+01    1.704E+01    1.661E+01    1.618E+01    1.576E+01
     1.534E+01    1.493E+01    1.452E+01    1.412E+01    1.372E+01    1.333E+01    1.294E+01    1.255E+01    1.217E+01    1.180E+01
     1.142E+01    1.105E+01    1.069E+01    1.032E+01    9.966E+00    9.611E+00    9.259E+00    8.910E+00    8.564E+00    8.222E+00
     7.882E+00    7.545E+00    7.210E+00    6.879E+00    6.549E+00    6.222E+00    5.897E+00    5.574E+00    5.253E+00    4.934E+00
     4.617E+00    4.301E+00    3.986E+00    3.673E+00    3.361E+00    3.050E+00    2.740E+00    2.430E+00    2.122E+00    1.814E+00
     1.506E+00    1.199E+00    8.917E-01    5.847E-01    2.776E-01   -2.959E-02   -3.371E-01   -6.450E-01   -9.535E-01   -1.263E+00
 Mac      Conc. = 2.17E-04
   3.02327E+01  2.98402E+01  2.99294E+01  3.02753E+01  3.04100E+01  3.00667E+01  2.89078E+01  2.73028E+01  2.52880E+01  2.36772E+01
   2.28791E+01  2.29914E+01  2.36681E+01  2.38635E+01  2.29340E+01  2.02484E+01  1.65878E+01  1.55189E+01  1.86271E+01  2.35901E+01
   2.78309E+01  3.15029E+01  3.50766E+01  3.68387E+01  3.71716E+01  3.75963E+01  3.84167E+01  3.97109E+01  4.14960E+01  4.35894E+01
   4.53658E+01  4.66145E+01  4.76034E+01  4.79512E+01  4.73270E+01  4.60832E+01  4.56032E+01  4.69466E+01  4.99634E+01  5.27841E+01
   5.35353E+01  5.28067E+01  5.21124E+01  5.27075E+01  5.43270E+01  5.62475E+01  5.73808E+01  5.74080E+01  5.69266E+01  5.57646E+01
   5.41833E+01  5.28993E+01  5.20351E+01  5.13171E+01  5.05701E+01  4.99612E+01  4.97622E+01  5.05878E+01  5.21183E+01  5.33183E+01
   5.47241E+01  5.64430E+01  5.77398E+01  5.77521E+01  5.70427E+01  5.58708E+01  5.46696E+01  5.38655E+01  5.29994E+01  5.19365E+01
   5.20353E+01  5.41181E+01  5.70549E+01  5.94153E+01  6.09342E+01  6.16575E+01  6.15882E+01  6.08160E+01  5.98097E+01  5.87854E+01
   5.79978E+01  5.71890E+01  5.65409E+01  5.63955E+01  5.70188E+01  5.77535E+01  5.84611E+01  5.91651E+01  5.97041E+01  5.99711E+01
   6.03790E+01  6.07878E+01  6.12456E+01  6.16011E+01  6.17160E+01  6.08894E+01  5.90765E+01  5.67281E+01  5.41556E+01  5.20490E+01
   5.10406E+01  5.02666E+01  4.91652E+01  4.74766E+01  4.49233E+01  4.04954E+01  3.35505E+01  2.58000E+01  1.95154E+01  1.64948E+01
