 
 $NMID
 ID=''
 FMTDAT='(2E13.5)'
 TRAMP=   1.00000E+0
 VOLUME=   1.00000E+0
 $END
  -1.96603E+4   7.02379E+3
  -2.91112E+4   3.00191E+4
   2.14902E+4   4.27292E+4
   4.50009E+4  -1.09276E+3
   7.77909E+3  -4.22618E+4
  -3.02329E+4  -2.61050E+4
  -2.72833E+4   1.71353E+4
   2.82463E+3   3.39452E+4
   2.70055E+4   1.09820E+4
   1.68947E+4  -2.18763E+4
  -1.33987E+4  -2.51459E+4
  -2.31195E+4   1.32984E+3
  -6.84120E+3   2.05121E+4
   1.17601E+4   1.06177E+4
   1.57495E+4  -1.00453E+4
   2.86516E+3  -1.47054E+4
  -1.36108E+4  -2.62037E+3
  -1.00615E+4   8.26768E+3
   5.11889E+3   7.98616E+3
   1.01652E+4   6.67713E+2
   2.77299E+3  -6.39700E+3
  -4.50168E+3  -5.76069E+3
  -5.69273E+3   2.82973E+3
  -1.17747E+3   6.26673E+3
   3.97593E+3   1.25196E+3
   4.44076E+3  -1.74746E+3
  -8.16855E+2  -1.37738E+3
  -4.09699E+3  -1.17682E+3
  -1.74463E+3   4.61499E+2
   2.00301E+3   2.45764E+3
   2.20255E+3   8.54524E+2
   7.53067E+1  -1.96256E+3
  -1.29748E+3  -2.30602E+3
  -6.32959E+2  -9.56144E+2
   1.66429E+3   1.01617E+3
   2.44263E+3   2.48649E+3
   3.08911E+2   4.07197E+2
  -1.21564E+3  -1.41383E+3
  -4.66704E+2  -8.50617E+2
  -3.73874E+2   7.05629E+2
   2.36468E+2   1.17900E+2
   1.82682E+3  -9.29696E+2
   1.42921E+3  -1.80542E+2
  -1.98552E+2   5.34969E+2
  -8.70295E+2   9.23588E+2
  -5.63577E+2   1.17598E+3
  -9.58058E+2   6.72554E+2
  -4.87552E+2  -1.96736E+3
   3.85517E+2  -2.26521E+3
   4.09667E+2  -3.36062E+2
   2.87512E+2   7.87105E+2
   6.41611E+2   4.60117E+2
   9.69807E+2  -8.82308E+1
  -1.10101E+2  -7.27418E+0
  -1.46047E+3  -1.98608E+2
  -1.20898E+3   1.05300E+2
   3.50647E+2   1.24160E+2
   1.30174E+3  -4.01131E+2
   1.02879E+3  -2.47323E+2
  -8.49423E+1   4.35387E+2
  -1.13153E+3   1.03641E+3
  -6.04132E+2   1.51366E+3
  -9.64232E+2   6.38529E+2
  -1.03153E+3  -1.22405E+3
  -4.93019E+2  -2.01396E+3
   2.40542E+2  -6.67031E+2
   7.59181E+2   4.70352E+2
   1.27971E+3   7.59329E+2
   8.26489E+2   7.09170E+2
  -2.57080E+2   1.39926E+2
  -2.50598E+2  -1.46495E+2
   5.06581E+2   5.01963E+2
   4.78994E+2   9.10010E+2
  -4.22142E+2   2.72723E+2
  -4.95779E+2  -6.38360E+2
   4.51144E+1  -3.63708E+2
   6.81036E+1   5.05517E+2
  -6.76621E+2   4.14646E+2
  -2.40206E+2  -1.77969E+2
   3.69045E+2  -4.15424E+2
   3.22431E+2  -3.62605E+2
   2.89085E+2  -8.75411E+1
   3.10821E+2  -3.76925E+1
   1.70413E+2  -1.87255E+2
   5.03169E+2  -1.54260E+2
   4.92240E+2   4.39876E+2
   2.87499E+2   6.38472E+2
  -1.39499E+2   1.82358E+2
   1.75932E+2  -2.47970E+2
   1.39495E+2   1.20824E+2
  -8.24462E+1   4.26005E+2
  -6.29821E+2   1.71171E+2
  -7.62838E+2  -5.53980E+2
  -1.43734E+2  -5.71142E+2
   5.03680E+2  -5.54132E+2
   6.68748E+2   5.57443E+1
  -1.36148E+2   1.31903E+2
   9.67657E+0   6.60834E+1
   1.63623E+2  -1.40364E+2
   9.21979E+1   3.16361E+2
  -5.18127E+2   5.02828E+2
  -8.35136E+2  -1.97179E+1
  -2.15143E+2  -4.16993E+2
   4.54864E+2  -1.36124E+2
   5.37497E+2   5.12472E+2
  -1.66911E+2   5.55629E+2
  -8.40849E+2  -3.05264E+2
  -4.05321E+2  -9.42781E+2
   6.97227E+2  -6.11496E+2
   6.03058E+2   7.36843E+2
  -1.01453E+2   1.01452E+3
  -5.45293E+2   3.99822E+2
  -3.94380E+2  -1.95164E+2
  -2.97154E+2   1.70614E+2
  -4.76630E+2   3.23194E+2
  -2.57328E+2  -3.22083E+1
  -1.08771E+2  -8.65077E+2
   2.48997E+2  -7.07519E+2
   5.65442E+2   1.96510E+1
   4.86228E+2   3.57829E+2
   4.35101E+1   7.19112E+2
  -3.46178E+2   3.70287E+2
  -5.13436E+2   1.44608E+2
  -6.55233E+2  -4.57436E+1
  -3.01600E+2  -3.97399E+1
   1.51602E+2  -2.78070E+2
   3.14532E+2  -5.53379E+0
   2.30529E+2   1.20478E+2
   8.49872E+1   3.65425E+2
  -3.68979E+2   3.25239E+2
  -5.10593E+2  -4.50859E+2
   1.55192E+2  -6.50485E+2
   1.90716E+2  -1.79982E+2
  -2.25692E+2   1.89799E+2
  -1.19002E+2  -5.36113E+1
   3.52264E+2  -4.10411E+1
   1.90436E+2   1.55908E+2
  -9.46521E+1   4.17968E+2
  -5.40338E+2   7.99795E+1
  -2.68355E+2  -3.95547E+2
   5.70937E+1  -6.99155E+2
   3.66067E+2   7.75124E+1
  -3.94172E+1   3.84291E+2
  -4.18052E+2   3.16628E+2
  -6.78047E+2  -1.97114E+2
  -1.02271E+1  -5.66293E+2
   4.59483E+2  -5.35455E+2
  -1.48753E+2  -2.84006E+2
   1.29057E+2  -1.67761E+2
   7.94435E+1  -1.52841E+2
   4.42917E+2  -8.98457E+1
   2.11172E+2   3.59852E+2
  -2.09435E+2   3.97594E+2
  -4.28371E+2   9.85024E+1
  -1.16831E+2  -1.62245E+2
   5.50951E+1  -2.93761E+2
  -1.33805E+2   2.37766E+2
  -2.75959E+2   8.18825E+1
  -1.51576E+2  -3.18310E+1
   1.37668E+1  -1.67054E+2
  -2.75976E+2  -1.32469E+2
  -3.02830E+2  -6.92537E+1
  -1.08987E+2  -4.37119E+2
   1.85362E+2  -1.75920E+2
   1.79348E+2   7.34097E+1
   2.77390E+2   3.80305E+2
  -2.51177E+2   2.68668E+2
  -2.79028E+2  -3.46415E+2
  -1.50428E+0  -5.69598E+0
   2.95638E+1   1.75283E+2
  -8.18877E+1   1.32141E+2
  -2.57123E+2   6.29878E+1
  -3.40283E+2  -2.33673E+2
   2.06906E+2  -3.15126E+1
   1.28471E+2   7.99114E+1
  -1.49570E+2   2.71219E+1
  -2.08519E+2  -3.07125E+2
   6.54738E+1  -4.82741E+2
   3.14798E+2  -9.52330E+1
  -7.05765E+1   1.92124E+2
  -2.64992E+2   2.27257E+2
  -2.25830E+2  -9.44124E+1
  -7.66335E+1  -2.55576E+2
   2.14641E+1  -8.77857E+1
   4.87028E+1  -1.72338E+2
   3.09121E+2  -1.63893E+2
   3.34646E+2  -3.39271E+2
   1.50649E+2   4.56042E+1
   4.83493E+1   3.12209E+2
  -4.43556E+2   4.56309E+2
  -5.93003E+2  -2.69687E+1
  -2.75158E+2  -6.31833E+2
   2.27474E+2  -6.51240E+2
   3.65641E+2  -2.91207E+1
   5.01814E+1   1.15289E+2
   6.55128E+1   1.09435E+1
   3.72086E+1  -1.65301E+2
   4.40967E+1   3.76726E+1
  -6.96075E+1  -1.35271E+2
  -3.21704E+2  -3.03364E+2
   4.84585E+1  -3.81973E+2
   3.84200E+2  -2.48709E+2
   2.07126E+2   2.48782E+2
   1.26333E+2   2.38819E+2
  -2.74718E+2   1.25380E+1
  -4.75888E+1  -1.68217E+2
  -1.55105E+2  -2.89617E+2
   2.32910E+2  -2.29300E+1
  -1.68897E+2   2.22877E+1
  -1.50343E+2   2.80865E+1
   1.15214E+2  -4.17930E+1
   2.11604E+2   9.10717E+1
  -2.07998E+2   3.21360E+2
  -6.58139E+2  -1.59713E+2
  -3.57040E+2  -4.08770E+2
   1.94876E+2  -3.72398E+2
   3.72466E+2  -1.70495E+2
   1.48536E+2   3.23970E+2
   1.53038E+2  -2.69132E+2
  -8.53755E+1   9.99578E+1
  -2.02172E+1   1.99381E+2
  -3.02395E+1   2.76187E+2
  -3.31805E+2   7.04607E+0
  -1.96653E+2  -2.24274E+2
   1.20236E+2  -4.94846E+2
   3.32516E+2  -3.88688E+1
   3.06107E+1   3.67728E+1
  -4.90273E+2   9.34459E+1
  -2.37416E+2  -3.91580E+1
   3.17656E+1  -8.36206E+1
  -5.30731E+1   9.12336E+1
   4.14419E+1   1.31729E+1
  -5.71199E+1   1.37133E+2
   5.29260E+1   9.43952E+1
   1.23502E+2   1.35406E+2
  -9.81025E+1   3.14434E+1
  -3.48981E+1   1.17229E+2
   2.72737E+1   2.33774E+2
   5.93737E+1  -3.27994E+2
   1.69141E+2  -1.92293E+1
   1.85267E+1   1.03736E+2
  -1.20487E+2   1.71904E+1
  -8.69557E+1  -3.64489E+2
  -1.24713E+2  -1.17760E+2
   1.12528E+2  -1.31274E+2
   1.17667E+1   4.99940E+1
  -5.89744E+1  -2.29781E+2
   8.54425E+1  -7.21940E+1
  -7.58369E+1  -5.36405E+1
  -7.62431E+1   2.77752E+2
  -1.34455E+2   5.13566E+1
  -6.61292E+1  -2.21463E+2
  -2.22498E+0  -2.04096E+2
   2.01068E+2   9.83690E+0
  -1.16366E+2   1.91546E+2
  -6.86474E+1   2.11547E+2
  -7.93038E+1  -8.21071E+0
  -7.49473E+1   7.46399E+0
  -1.73055E+2  -1.15752E+2
  -6.66414E+1   7.70666E+1
  -1.26892E+2  -2.54282E+2
   8.69445E+1  -1.20532E+2
   2.67422E+2  -9.97570E+1
  -7.67888E+1   7.11619E+1
   5.95817E+1   5.30994E+1
  -2.29892E+2   3.56413E+1
  -1.56157E+2  -1.27970E+2
  -2.56189E+0  -2.13768E+2
   2.00107E+2   2.78021E+1
   3.60008E+1   9.29406E+1
   5.46850E+1   2.97433E+2
   7.39818E+1   2.93969E+2
   1.40923E+2   2.70565E+2
  -8.57430E+1   1.83762E+2
  -3.65307E+2   2.45173E+1
  -1.99351E+2  -3.15387E+2
   1.78832E+2  -3.69319E+2
   1.22458E+2   1.23433E+2
   2.14329E+1   1.54004E+2
  -3.05624E+2   2.60481E+2
   5.23273E+1   1.93328E+2
  -4.76090E+1   6.69682E+0
   8.95216E+1   7.08852E+1
  -4.28110E+2  -2.48404E+2
  -7.36333E+1   5.67194E+1
   1.78153E+2  -3.28139E+2
   1.34685E+2   1.62470E+2
   7.44462E+0   1.69972E+2
  -3.05744E+2   3.33331E+2
  -1.29813E+2   1.66367E+2
  -2.82253E+1  -1.42506E+2
   1.86524E+2  -9.36149E+1
   1.89520E+2   6.78269E+0
   5.44811E+1  -1.32045E+2
   5.06093E+0   9.02300E+1
  -2.27280E+1   1.57265E+2
   6.89188E+1   1.66845E+2
  -3.09467E+2   5.19842E+1
  -1.54139E+2   6.50826E+1
  -5.71707E+1  -8.24667E+1
   1.17123E+2   9.76752E+1
  -8.46553E+1   1.98127E+2
  -4.20579E+1   1.32450E+2
   1.60946E+1  -9.65714E+1
   1.44842E+2  -4.78267E+0
   1.39023E+2   7.13627E+1
   1.84125E+1   1.19609E+2
  -1.20845E+1   1.58432E+2
   4.40214E+0   1.74768E+2
  -5.04705E+1   1.75690E+2
   4.00744E+1   2.30801E+2
  -2.63922E+2  -9.09149E+0
  -6.13155E+1  -7.01648E+1
   1.22009E+2  -1.09924E+2
   7.84538E+1   1.09944E+2
  -8.56069E+0   1.92960E+2
  -1.29063E+2   1.01807E+2
  -1.34063E+2  -8.72347E+1
  -1.41467E+2  -1.98957E+1
   1.52466E+2   9.56830E+1
  -5.15734E+1  -5.86854E-2
   1.49194E+2  -6.47460E+0
   1.15831E+2  -3.64848E+1
   7.25729E+1   6.45867E+1
  -1.25362E+2   1.92828E+2
  -2.92103E+2   1.17667E+2
  -8.56010E+1   1.31737E+2
  -6.57234E+1  -1.25480E+2
   1.61443E+2  -7.35565E+1
   2.61584E+1   4.56082E+1
   1.04684E+2   1.38202E+1
  -9.01375E+0   4.29486E+1
  -2.91731E+1   1.93825E+2
  -8.12845E+1   7.63732E+1
  -7.55145E+1   1.17316E+2
  -2.47501E+2  -6.39661E+1
   2.12396E+2  -2.04432E+2
   2.70816E+2   2.32934E+1
   1.12558E+2   3.02258E+2
   1.24536E+2   2.71370E+2
   2.33444E+1  -4.86753E+1
  -8.65412E+1   1.72179E+2
  -2.48333E+2   3.79297E+1
   1.45828E+2   1.16690E+2
   8.83429E+0  -1.05470E+2
   1.00101E+2   7.11466E+1
   3.44221E+2   1.85230E+2
   1.60233E+2   1.03115E+2
  -5.44261E+1   2.77659E+2
  -1.84659E+2   1.32744E+2
  -8.75828E+1  -1.20643E+2
   3.77830E+1  -2.50076E+1
  -2.98357E+0  -9.61580E+1
  -4.92549E+1   1.18587E+2
   5.32181E+1   2.52752E+2
   3.04006E+2   1.51743E+2
   4.31124E+1   1.80046E+2
  -1.57721E+2   3.51414E+1
  -9.76815E+1   7.27085E+1
  -4.61252E+1  -2.59092E+2
   2.18254E+1  -1.33050E+2
   2.04744E+2  -6.01225E+1
   2.13319E+2   8.79314E+1
  -3.87966E+2   7.58975E+1
  -3.09775E+2  -6.83582E+1
  -7.98682E+1   8.09016E+1
  -1.32313E+2   7.54322E+1
