 
 $NMID
 ID=''
 FMTDAT='(2E13.5)'
 TRAMP=   1.00000E+0
 VOLUME=   1.00000E+0
 $END
   7.43806E+5   1.83101E+5
   1.69576E+6   1.11719E+6
   1.72434E+6   9.15983E+5
   1.56392E+6   9.94878E+5
   1.64977E+6   1.06649E+6
   1.65188E+6   9.57464E+5
   1.57520E+6   9.79931E+5
   1.61683E+6   1.03671E+6
   1.59714E+6   9.94779E+5
   1.52707E+6   1.03550E+6
   1.54267E+6   1.07562E+6
   1.51379E+6   1.04880E+6
   1.45779E+6   1.08306E+6
   1.45908E+6   1.11802E+6
   1.41977E+6   1.10897E+6
   1.36895E+6   1.14061E+6
   1.37293E+6   1.16606E+6
   1.34683E+6   1.15427E+6
   1.30956E+6   1.17214E+6
   1.31339E+6   1.17899E+6
   1.28652E+6   1.17011E+6
   1.25258E+6   1.18887E+6
   1.24737E+6   1.19917E+6
   1.21996E+6   1.19519E+6
   1.18279E+6   1.21238E+6
   1.17197E+6   1.21644E+6
   1.14175E+6   1.22068E+6
   1.10331E+6   1.24352E+6
   1.07844E+6   1.25083E+6
   1.05087E+6   1.24756E+6
   1.02501E+6   1.26233E+6
   1.00649E+6   1.26526E+6
   9.78993E+5   1.26090E+6
   9.57254E+5   1.26651E+6
   9.43821E+5   1.26352E+6
   9.26236E+5   1.25724E+6
   9.09852E+5   1.26149E+6
   8.93193E+5   1.26190E+6
   8.67163E+5   1.25842E+6
   8.44678E+5   1.26223E+6
   8.23023E+5   1.26290E+6
   7.96297E+5   1.26073E+6
   7.72077E+5   1.26108E+6
   7.50258E+5   1.26175E+6
   7.22692E+5   1.26153E+6
   6.98282E+5   1.26344E+6
   6.75590E+5   1.26263E+6
   6.49578E+5   1.26052E+6
   6.26530E+5   1.25598E+6
   6.07824E+5   1.25152E+6
   5.88058E+5   1.24768E+6
   5.67361E+5   1.24513E+6
   5.48051E+5   1.24057E+6
   5.27364E+5   1.23686E+6
   5.05978E+5   1.23325E+6
   4.83897E+5   1.22923E+6
   4.59863E+5   1.22442E+6
   4.37127E+5   1.21880E+6
   4.16773E+5   1.21248E+6
   3.95498E+5   1.20811E+6
   3.73808E+5   1.20386E+6
   3.52827E+5   1.19757E+6
   3.32444E+5   1.19201E+6
   3.11144E+5   1.18573E+6
   2.90640E+5   1.17762E+6
   2.71966E+5   1.16797E+6
   2.53965E+5   1.16006E+6
   2.35574E+5   1.15215E+6
   2.16856E+5   1.14515E+6
   1.96837E+5   1.13847E+6
   1.77041E+5   1.12971E+6
   1.58128E+5   1.12044E+6
   1.40546E+5   1.11245E+6
   1.21782E+5   1.10464E+6
   1.02463E+5   1.09525E+6
   8.48438E+4   1.08540E+6
   6.81667E+4   1.07675E+6
   5.09249E+4   1.06751E+6
   3.38938E+4   1.05742E+6
   1.74369E+4   1.04688E+6
   1.15402E+3   1.03642E+6
  -1.45994E+4   1.02602E+6
  -3.02976E+4   1.01630E+6
  -4.69347E+4   1.00561E+6
  -6.37937E+4   9.94831E+5
  -7.94306E+4   9.83869E+5
  -9.48219E+4   9.73477E+5
  -1.10843E+5   9.62674E+5
  -1.25682E+5   9.51465E+5
  -1.39547E+5   9.40170E+5
  -1.52196E+5   9.28925E+5
  -1.64960E+5   9.18651E+5
  -1.77719E+5   9.07895E+5
  -1.89867E+5   8.96338E+5
  -2.00162E+5   8.84015E+5
  -2.09509E+5   8.72643E+5
  -2.19926E+5   8.62913E+5
  -2.30579E+5   8.52510E+5
  -2.40448E+5   8.41205E+5
  -2.49289E+5   8.29848E+5
  -2.58917E+5   8.19728E+5
  -2.69494E+5   8.08985E+5
  -2.79446E+5   7.96481E+5
  -2.87676E+5   7.83976E+5
  -2.95025E+5   7.73206E+5
  -3.02715E+5   7.63039E+5
  -3.10499E+5   7.52344E+5
  -3.18197E+5   7.40125E+5
  -3.24783E+5   7.28291E+5
  -3.29773E+5   7.17143E+5
  -3.35084E+5   7.06968E+5
  -3.41679E+5   6.95995E+5
  -3.48221E+5   6.84865E+5
  -3.53946E+5   6.73125E+5
  -3.59361E+5   6.61724E+5
  -3.65098E+5   6.50696E+5
  -3.70549E+5   6.39152E+5
  -3.75098E+5   6.26631E+5
  -3.78436E+5   6.14694E+5
  -3.81602E+5   6.04334E+5
  -3.85417E+5   5.93818E+5
  -3.89610E+5   5.82797E+5
  -3.93030E+5   5.72088E+5
  -3.96244E+5   5.60682E+5
  -3.99731E+5   5.49475E+5
  -4.02322E+5   5.37569E+5
  -4.04632E+5   5.26030E+5
  -4.06958E+5   5.14843E+5
  -4.09959E+5   5.03981E+5
  -4.12883E+5   4.92236E+5
  -4.16310E+5   4.80273E+5
  -4.18735E+5   4.67379E+5
  -4.20833E+5   4.55871E+5
  -4.22575E+5   4.44441E+5
  -4.24552E+5   4.32687E+5
  -4.26430E+5   4.21041E+5
  -4.27646E+5   4.09903E+5
  -4.28732E+5   3.99689E+5
  -4.30542E+5   3.88836E+5
  -4.31433E+5   3.77163E+5
  -4.32190E+5   3.65816E+5
  -4.32112E+5   3.55050E+5
  -4.31831E+5   3.45456E+5
  -4.32726E+5   3.35163E+5
  -4.33807E+5   3.24514E+5
  -4.33941E+5   3.13792E+5
  -4.33925E+5   3.02927E+5
  -4.33889E+5   2.92365E+5
  -4.33185E+5   2.82384E+5
  -4.32806E+5   2.72459E+5
  -4.31804E+5   2.62824E+5
  -4.31111E+5   2.53234E+5
  -4.30047E+5   2.44562E+5
  -4.29572E+5   2.35458E+5
  -4.28367E+5   2.26247E+5
  -4.26700E+5   2.17673E+5
  -4.24843E+5   2.09641E+5
  -4.23908E+5   2.01536E+5
  -4.22216E+5   1.93477E+5
  -4.20158E+5   1.85229E+5
  -4.18431E+5   1.77866E+5
  -4.16255E+5   1.69853E+5
  -4.13879E+5   1.61837E+5
  -4.11516E+5   1.54334E+5
  -4.09104E+5   1.47481E+5
  -4.06610E+5   1.41018E+5
  -4.04106E+5   1.34247E+5
  -4.02181E+5   1.27497E+5
  -3.99481E+5   1.20867E+5
  -3.96644E+5   1.14815E+5
  -3.93595E+5   1.08834E+5
  -3.90623E+5   1.02938E+5
  -3.87643E+5   9.68774E+4
  -3.84546E+5   9.09437E+4
  -3.81279E+5   8.53423E+4
  -3.78555E+5   7.97870E+4
  -3.75536E+5   7.41476E+4
  -3.71900E+5   6.82729E+4
  -3.68386E+5   6.31441E+4
  -3.64615E+5   5.80854E+4
  -3.61816E+5   5.29186E+4
  -3.58614E+5   4.76319E+4
  -3.55217E+5   4.22981E+4
  -3.50909E+5   3.76978E+4
  -3.47290E+5   3.30117E+4
  -3.43485E+5   2.84498E+4
  -3.39532E+5   2.41647E+4
  -3.35766E+5   1.99425E+4
  -3.32007E+5   1.61410E+4
  -3.28923E+5   1.21122E+4
  -3.25240E+5   7.63865E+3
  -3.21621E+5   2.89937E+3
  -3.17445E+5  -1.48624E+3
  -3.12963E+5  -5.51503E+3
  -3.09425E+5  -9.25749E+3
  -3.05631E+5  -1.33349E+4
  -3.01557E+5  -1.73219E+4
  -2.97776E+5  -2.10164E+4
  -2.93811E+5  -2.47606E+4
  -2.89992E+5  -2.89582E+4
  -2.85925E+5  -3.28499E+4
  -2.81261E+5  -3.64036E+4
  -2.77084E+5  -3.90405E+4
  -2.73167E+5  -4.22452E+4
  -2.69703E+5  -4.56886E+4
  -2.65566E+5  -4.94371E+4
  -2.61047E+5  -5.25419E+4
  -2.57096E+5  -5.51659E+4
  -2.52934E+5  -5.81561E+4
  -2.49091E+5  -6.12343E+4
  -2.44928E+5  -6.40471E+4
  -2.40890E+5  -6.64697E+4
  -2.36962E+5  -6.92541E+4
  -2.33184E+5  -7.19733E+4
  -2.29243E+5  -7.47637E+4
  -2.24475E+5  -7.70481E+4
  -2.20450E+5  -7.87894E+4
  -2.16599E+5  -8.08361E+4
  -2.12921E+5  -8.26580E+4
  -2.09123E+5  -8.45275E+4
  -2.05086E+5  -8.63603E+4
  -2.01242E+5  -8.82465E+4
  -1.97710E+5  -8.97517E+4
  -1.93768E+5  -9.16947E+4
  -1.89897E+5  -9.30447E+4
  -1.86108E+5  -9.41108E+4
  -1.82477E+5  -9.50060E+4
  -1.79149E+5  -9.64501E+4
  -1.75464E+5  -9.79945E+4
  -1.72194E+5  -9.88447E+4
  -1.68130E+5  -9.97291E+4
  -1.64937E+5  -1.00451E+5
  -1.61472E+5  -1.01119E+5
  -1.58386E+5  -1.01922E+5
  -1.54835E+5  -1.02493E+5
  -1.51983E+5  -1.02978E+5
  -1.48815E+5  -1.03538E+5
  -1.45819E+5  -1.04155E+5
  -1.42347E+5  -1.04346E+5
  -1.39150E+5  -1.04513E+5
  -1.36497E+5  -1.04140E+5
  -1.33834E+5  -1.04800E+5
  -1.30683E+5  -1.05221E+5
  -1.27457E+5  -1.05461E+5
  -1.24571E+5  -1.05268E+5
  -1.21885E+5  -1.04926E+5
  -1.19106E+5  -1.05291E+5
  -1.16190E+5  -1.05179E+5
  -1.13309E+5  -1.04893E+5
  -1.10710E+5  -1.04575E+5
  -1.08291E+5  -1.04663E+5
  -1.05784E+5  -1.04430E+5
  -1.02886E+5  -1.03961E+5
  -1.00101E+5  -1.03815E+5
  -9.75211E+4  -1.03235E+5
  -9.53737E+4  -1.02941E+5
  -9.28483E+4  -1.02923E+5
  -9.02026E+4  -1.02563E+5
  -8.75882E+4  -1.02198E+5
  -8.54017E+4  -1.02016E+5
  -8.29209E+4  -1.01732E+5
  -8.01784E+4  -1.01061E+5
  -7.76796E+4  -1.00383E+5
  -7.55116E+4  -9.98007E+4
  -7.32753E+4  -9.94993E+4
  -7.11141E+4  -9.89174E+4
  -6.85623E+4  -9.88140E+4
  -6.63518E+4  -9.81822E+4
  -6.40431E+4  -9.73435E+4
  -6.22546E+4  -9.66079E+4
  -5.97276E+4  -9.60810E+4
  -5.80367E+4  -9.51065E+4
  -5.56835E+4  -9.46353E+4
  -5.38165E+4  -9.41384E+4
  -5.16862E+4  -9.36582E+4
  -4.96252E+4  -9.32884E+4
  -4.75730E+4  -9.21778E+4
  -4.55994E+4  -9.13725E+4
  -4.38877E+4  -9.05517E+4
  -4.21984E+4  -9.02546E+4
  -4.02734E+4  -8.91545E+4
  -3.84763E+4  -8.84020E+4
  -3.68305E+4  -8.75682E+4
  -3.51634E+4  -8.69167E+4
  -3.33623E+4  -8.62925E+4
  -3.18364E+4  -8.53333E+4
  -3.02359E+4  -8.42278E+4
  -2.90859E+4  -8.34341E+4
  -2.75401E+4  -8.28537E+4
  -2.59227E+4  -8.20697E+4
  -2.46272E+4  -8.09884E+4
  -2.31029E+4  -8.03638E+4
  -2.19762E+4  -7.94485E+4
  -2.08250E+4  -7.83937E+4
  -1.93268E+4  -7.76863E+4
  -1.83155E+4  -7.66474E+4
  -1.71017E+4  -7.59133E+4
  -1.59784E+4  -7.51300E+4
  -1.49778E+4  -7.42080E+4
  -1.36192E+4  -7.30565E+4
  -1.25387E+4  -7.25081E+4
  -1.18200E+4  -7.14632E+4
  -1.08333E+4  -7.05958E+4
  -9.73730E+3  -6.97726E+4
  -8.64055E+3  -6.89544E+4
  -7.84787E+3  -6.77593E+4
  -6.86991E+3  -6.69367E+4
  -6.18824E+3  -6.58382E+4
  -5.30156E+3  -6.50134E+4
  -4.51441E+3  -6.40642E+4
  -3.53973E+3  -6.34941E+4
  -3.04166E+3  -6.25137E+4
  -1.98737E+3  -6.15680E+4
  -1.18889E+3  -6.09036E+4
  -6.88337E+2  -5.97039E+4
   2.89381E+2  -5.88766E+4
   7.09865E+2  -5.78742E+4
   1.41258E+3  -5.68543E+4
   2.04663E+3  -5.58322E+4
   2.56182E+3  -5.52271E+4
   3.02927E+3  -5.43958E+4
   3.91271E+3  -5.32969E+4
   4.27476E+3  -5.24175E+4
   4.81587E+3  -5.14150E+4
   5.23764E+3  -5.04956E+4
   5.67419E+3  -4.96813E+4
   6.36710E+3  -4.89505E+4
   7.06053E+3  -4.82940E+4
   7.69831E+3  -4.69304E+4
   7.66079E+3  -4.62904E+4
   7.99403E+3  -4.53101E+4
   8.45405E+3  -4.49621E+4
   8.76298E+3  -4.37609E+4
   9.04046E+3  -4.27343E+4
   9.41892E+3  -4.22086E+4
   9.91461E+3  -4.14555E+4
   1.05413E+4  -4.07198E+4
   1.09326E+4  -3.97813E+4
   1.12958E+4  -3.89268E+4
   1.11449E+4  -3.82236E+4
   1.14688E+4  -3.77196E+4
   1.20419E+4  -3.67615E+4
   1.22147E+4  -3.58507E+4
   1.27606E+4  -3.52718E+4
   1.27678E+4  -3.47628E+4
   1.28647E+4  -3.39996E+4
   1.31439E+4  -3.30349E+4
   1.32672E+4  -3.24044E+4
   1.34848E+4  -3.17655E+4
   1.39016E+4  -3.13403E+4
   1.42233E+4  -3.05709E+4
   1.40877E+4  -2.97805E+4
   1.44062E+4  -2.91759E+4
   1.45177E+4  -2.83210E+4
   1.42856E+4  -2.79799E+4
   1.44236E+4  -2.71696E+4
   1.46191E+4  -2.65218E+4
   1.49799E+4  -2.59073E+4
   1.48668E+4  -2.55494E+4
   1.53952E+4  -2.48917E+4
   1.52838E+4  -2.39734E+4
   1.51879E+4  -2.34028E+4
   1.48132E+4  -2.31705E+4
   1.50527E+4  -2.24949E+4
   1.51992E+4  -2.21558E+4
   1.55790E+4  -2.14189E+4
   1.50747E+4  -2.08022E+4
