 
 $NMID
 ID=''
 FMTDAT='(2E13.5)'
 TRAMP=   1.00000E+0
 VOLUME=   1.00000E+0
 $END
  -2.19208E+5   7.04895E+5
  -1.23348E+6   1.50021E+6
  -1.08326E+6   1.57585E+6
  -1.13368E+6   1.46123E+6
  -1.19300E+6   1.49656E+6
  -1.13978E+6   1.43174E+6
  -1.20233E+6   1.33382E+6
  -1.25801E+6   1.38464E+6
  -1.19201E+6   1.36947E+6
  -1.21742E+6   1.27178E+6
  -1.27294E+6   1.26097E+6
  -1.25066E+6   1.25170E+6
  -1.25418E+6   1.20472E+6
  -1.27058E+6   1.18441E+6
  -1.25859E+6   1.14654E+6
  -1.26998E+6   1.11062E+6
  -1.28578E+6   1.10456E+6
  -1.28159E+6   1.06054E+6
  -1.29681E+6   1.00858E+6
  -1.30528E+6   9.93402E+5
  -1.30320E+6   9.56773E+5
  -1.31658E+6   9.13002E+5
  -1.31819E+6   8.91341E+5
  -1.31287E+6   8.56171E+5
  -1.32347E+6   8.15199E+5
  -1.32005E+6   7.97503E+5
  -1.31176E+6   7.69876E+5
  -1.31621E+6   7.41216E+5
  -1.31354E+6   7.16263E+5
  -1.30505E+6   6.86071E+5
  -1.30899E+6   6.55127E+5
  -1.30575E+6   6.32015E+5
  -1.30250E+6   5.98309E+5
  -1.30342E+6   5.65357E+5
  -1.29582E+6   5.39449E+5
  -1.29102E+6   5.11431E+5
  -1.29592E+6   4.81879E+5
  -1.29205E+6   4.51517E+5
  -1.28158E+6   4.22522E+5
  -1.27901E+6   3.99186E+5
  -1.27317E+6   3.74443E+5
  -1.26334E+6   3.47242E+5
  -1.25501E+6   3.27816E+5
  -1.24953E+6   3.08195E+5
  -1.24147E+6   2.82646E+5
  -1.23427E+6   2.60249E+5
  -1.22730E+6   2.38448E+5
  -1.22138E+6   2.11059E+5
  -1.21196E+6   1.84249E+5
  -1.20177E+6   1.61300E+5
  -1.19459E+6   1.38224E+5
  -1.18862E+6   1.13774E+5
  -1.17956E+6   8.98546E+4
  -1.17098E+6   6.70117E+4
  -1.16246E+6   4.51915E+4
  -1.15319E+6   2.29084E+4
  -1.14240E+6   1.06990E+3
  -1.13112E+6  -1.85164E+4
  -1.12058E+6  -3.57359E+4
  -1.11174E+6  -5.46919E+4
  -1.10088E+6  -7.46173E+4
  -1.09025E+6  -9.31122E+4
  -1.08101E+6  -1.11569E+5
  -1.07037E+6  -1.31570E+5
  -1.05662E+6  -1.50838E+5
  -1.04349E+6  -1.67676E+5
  -1.03222E+6  -1.84577E+5
  -1.02042E+6  -2.01473E+5
  -1.00831E+6  -2.18012E+5
  -9.97408E+5  -2.34212E+5
  -9.85428E+5  -2.50872E+5
  -9.71676E+5  -2.65079E+5
  -9.59441E+5  -2.78057E+5
  -9.48021E+5  -2.92158E+5
  -9.35639E+5  -3.07025E+5
  -9.21812E+5  -3.20330E+5
  -9.08607E+5  -3.32519E+5
  -8.96105E+5  -3.45984E+5
  -8.82956E+5  -3.59851E+5
  -8.68884E+5  -3.72936E+5
  -8.54421E+5  -3.84721E+5
  -8.40713E+5  -3.96402E+5
  -8.27294E+5  -4.07966E+5
  -8.12756E+5  -4.19098E+5
  -7.98245E+5  -4.29491E+5
  -7.84014E+5  -4.39227E+5
  -7.70770E+5  -4.48115E+5
  -7.57339E+5  -4.56392E+5
  -7.43327E+5  -4.64308E+5
  -7.29368E+5  -4.71593E+5
  -7.16429E+5  -4.78584E+5
  -7.03179E+5  -4.85671E+5
  -6.89383E+5  -4.93235E+5
  -6.74505E+5  -5.00191E+5
  -6.59847E+5  -5.06015E+5
  -6.45902E+5  -5.11376E+5
  -6.32754E+5  -5.16885E+5
  -6.19332E+5  -5.23086E+5
  -6.05088E+5  -5.28710E+5
  -5.91167E+5  -5.32770E+5
  -5.78392E+5  -5.37286E+5
  -5.65045E+5  -5.42288E+5
  -5.50402E+5  -5.46286E+5
  -5.36777E+5  -5.48691E+5
  -5.24155E+5  -5.50813E+5
  -5.12371E+5  -5.53852E+5
  -4.99649E+5  -5.56730E+5
  -4.86354E+5  -5.59426E+5
  -4.73088E+5  -5.60954E+5
  -4.60931E+5  -5.61864E+5
  -4.49022E+5  -5.63220E+5
  -4.36949E+5  -5.65793E+5
  -4.24100E+5  -5.68121E+5
  -4.11377E+5  -5.69591E+5
  -3.98484E+5  -5.70498E+5
  -3.86410E+5  -5.71779E+5
  -3.73721E+5  -5.72980E+5
  -3.61153E+5  -5.73322E+5
  -3.48997E+5  -5.72390E+5
  -3.38517E+5  -5.71851E+5
  -3.27836E+5  -5.72294E+5
  -3.16732E+5  -5.72566E+5
  -3.05686E+5  -5.71932E+5
  -2.94890E+5  -5.71580E+5
  -2.83745E+5  -5.71318E+5
  -2.72532E+5  -5.70182E+5
  -2.61468E+5  -5.68471E+5
  -2.51287E+5  -5.66988E+5
  -2.41240E+5  -5.66044E+5
  -2.30545E+5  -5.64859E+5
  -2.19404E+5  -5.63593E+5
  -2.08226E+5  -5.61636E+5
  -1.97948E+5  -5.59401E+5
  -1.88005E+5  -5.57091E+5
  -1.78027E+5  -5.55118E+5
  -1.67811E+5  -5.52422E+5
  -1.58602E+5  -5.50020E+5
  -1.49308E+5  -5.47189E+5
  -1.40203E+5  -5.44622E+5
  -1.30415E+5  -5.41943E+5
  -1.20886E+5  -5.38647E+5
  -1.12270E+5  -5.34186E+5
  -1.04555E+5  -5.30222E+5
  -9.62888E+4  -5.27106E+5
  -8.75400E+4  -5.24064E+5
  -7.87590E+4  -5.19968E+5
  -7.07374E+4  -5.15224E+5
  -6.26393E+4  -5.11012E+5
  -5.47662E+4  -5.06339E+5
  -4.73371E+4  -5.01497E+5
  -4.03129E+4  -4.96775E+5
  -3.36522E+4  -4.91901E+5
  -2.65903E+4  -4.87562E+5
  -2.01784E+4  -4.83164E+5
  -1.33023E+4  -4.78091E+5
  -7.14738E+3  -4.72850E+5
  -8.16950E+2  -4.67832E+5
   5.03709E+3  -4.63061E+5
   1.08361E+4  -4.57924E+5
   1.66295E+4  -4.52646E+5
   2.24437E+4  -4.47237E+5
   2.79702E+4  -4.42063E+5
   3.34663E+4  -4.36361E+5
   3.90358E+4  -4.30778E+5
   4.42979E+4  -4.25272E+5
   4.84348E+4  -4.19844E+5
   5.31697E+4  -4.15002E+5
   5.80068E+4  -4.09641E+5
   6.30649E+4  -4.04323E+5
   6.70913E+4  -3.98739E+5
   7.10079E+4  -3.93190E+5
   7.50572E+4  -3.88515E+5
   7.93101E+4  -3.82612E+5
   8.30765E+4  -3.77338E+5
   8.68580E+4  -3.72071E+5
   9.07989E+4  -3.66878E+5
   9.47449E+4  -3.61935E+5
   9.89124E+4  -3.56326E+5
   1.02599E+5  -3.50407E+5
   1.05706E+5  -3.44684E+5
   1.09132E+5  -3.39783E+5
   1.12715E+5  -3.34916E+5
   1.15975E+5  -3.29435E+5
   1.19576E+5  -3.23948E+5
   1.22421E+5  -3.18895E+5
   1.25239E+5  -3.13449E+5
   1.27811E+5  -3.08517E+5
   1.30443E+5  -3.02897E+5
   1.32706E+5  -2.98063E+5
   1.34778E+5  -2.93367E+5
   1.37645E+5  -2.88999E+5
   1.40623E+5  -2.83861E+5
   1.43136E+5  -2.78294E+5
   1.45181E+5  -2.72822E+5
   1.47479E+5  -2.67857E+5
   1.49322E+5  -2.62815E+5
   1.51738E+5  -2.57858E+5
   1.53897E+5  -2.52552E+5
   1.55840E+5  -2.47697E+5
   1.57903E+5  -2.42810E+5
   1.59891E+5  -2.37519E+5
   1.61416E+5  -2.32290E+5
   1.62576E+5  -2.27043E+5
   1.63777E+5  -2.22518E+5
   1.65249E+5  -2.17963E+5
   1.66703E+5  -2.13001E+5
   1.68030E+5  -2.07804E+5
   1.69200E+5  -2.02762E+5
   1.69992E+5  -1.98055E+5
   1.70975E+5  -1.93384E+5
   1.72218E+5  -1.88174E+5
   1.72764E+5  -1.83602E+5
   1.73188E+5  -1.79136E+5
   1.73840E+5  -1.74630E+5
   1.74997E+5  -1.70087E+5
   1.75595E+5  -1.65042E+5
   1.75567E+5  -1.60368E+5
   1.75365E+5  -1.56208E+5
   1.75454E+5  -1.52127E+5
   1.75830E+5  -1.47826E+5
   1.75548E+5  -1.43502E+5
   1.75491E+5  -1.39015E+5
   1.75460E+5  -1.35319E+5
   1.75299E+5  -1.30881E+5
   1.75051E+5  -1.26612E+5
   1.74401E+5  -1.22516E+5
   1.73798E+5  -1.18891E+5
   1.73064E+5  -1.15063E+5
   1.72982E+5  -1.11549E+5
   1.72530E+5  -1.07466E+5
   1.71748E+5  -1.03690E+5
   1.70877E+5  -9.99474E+4
   1.69879E+5  -9.67927E+4
   1.69506E+5  -9.34010E+4
   1.68500E+5  -8.97678E+4
   1.67137E+5  -8.68064E+4
   1.66516E+5  -8.36737E+4
   1.65405E+5  -8.05447E+4
   1.64510E+5  -7.71187E+4
   1.63144E+5  -7.41352E+4
   1.62137E+5  -7.16025E+4
   1.61201E+5  -6.86834E+4
   1.59847E+5  -6.59828E+4
   1.58829E+5  -6.32436E+4
   1.57804E+5  -6.01225E+4
   1.56773E+5  -5.74771E+4
   1.55343E+5  -5.50919E+4
   1.54196E+5  -5.25292E+4
   1.52876E+5  -4.99521E+4
   1.51490E+5  -4.74791E+4
   1.50171E+5  -4.54634E+4
   1.49252E+5  -4.33334E+4
   1.48117E+5  -4.08133E+4
   1.46851E+5  -3.83240E+4
   1.45172E+5  -3.64257E+4
   1.44057E+5  -3.44863E+4
   1.42907E+5  -3.25741E+4
   1.41686E+5  -2.99785E+4
   1.40215E+5  -2.81200E+4
   1.38949E+5  -2.62552E+4
   1.37923E+5  -2.40082E+4
   1.36516E+5  -2.21011E+4
   1.35039E+5  -1.98777E+4
   1.33581E+5  -1.81118E+4
   1.32133E+5  -1.66929E+4
   1.30936E+5  -1.52622E+4
   1.29514E+5  -1.32441E+4
   1.28419E+5  -1.13716E+4
   1.26683E+5  -9.46343E+3
   1.25348E+5  -8.15954E+3
   1.24058E+5  -6.89249E+3
   1.22570E+5  -5.38564E+3
   1.21222E+5  -3.41752E+3
   1.19630E+5  -2.32142E+3
   1.18463E+5  -7.90787E+2
   1.17204E+5   6.37652E+2
   1.15629E+5   2.27686E+3
   1.13899E+5   3.59302E+3
   1.12644E+5   5.00730E+3
   1.11171E+5   6.08486E+3
   1.09541E+5   7.30206E+3
   1.08410E+5   8.64760E+3
   1.06918E+5   9.91176E+3
   1.05548E+5   1.11586E+4
   1.03904E+5   1.20595E+4
   1.02645E+5   1.33745E+4
   1.00899E+5   1.45865E+4
   9.94687E+4   1.51761E+4
   9.81843E+4   1.60224E+4
   9.69043E+4   1.72238E+4
   9.56128E+4   1.82932E+4
   9.41832E+4   1.90986E+4
   9.24497E+4   2.00605E+4
   9.11775E+4   2.08843E+4
   9.00762E+4   2.16637E+4
   8.84461E+4   2.24201E+4
   8.71774E+4   2.30763E+4
   8.60056E+4   2.39928E+4
   8.47706E+4   2.47133E+4
   8.31042E+4   2.53779E+4
   8.20334E+4   2.60149E+4
   8.06775E+4   2.67758E+4
   7.94369E+4   2.71544E+4
   7.84400E+4   2.79364E+4
   7.69345E+4   2.88597E+4
   7.54127E+4   2.91441E+4
   7.43356E+4   2.97884E+4
   7.33947E+4   3.01830E+4
   7.19325E+4   3.07664E+4
   7.05132E+4   3.12974E+4
   6.95186E+4   3.19431E+4
   6.85591E+4   3.22321E+4
   6.74703E+4   3.27360E+4
   6.63242E+4   3.34511E+4
   6.50841E+4   3.39215E+4
   6.38977E+4   3.39658E+4
   6.31131E+4   3.44333E+4
   6.17580E+4   3.47297E+4
   6.09106E+4   3.50990E+4
   5.96640E+4   3.54166E+4
   5.85168E+4   3.54076E+4
   5.77914E+4   3.59398E+4
   5.67242E+4   3.61746E+4
   5.54592E+4   3.66325E+4
   5.47197E+4   3.66917E+4
   5.36583E+4   3.67805E+4
   5.28999E+4   3.70644E+4
   5.18910E+4   3.75030E+4
   5.08221E+4   3.78184E+4
   4.96993E+4   3.79725E+4
   4.88978E+4   3.78483E+4
   4.80753E+4   3.81658E+4
   4.71811E+4   3.83244E+4
   4.63453E+4   3.82583E+4
   4.55774E+4   3.85618E+4
   4.45775E+4   3.87276E+4
   4.38654E+4   3.89985E+4
   4.29241E+4   3.92372E+4
   4.18838E+4   3.90759E+4
   4.10435E+4   3.88310E+4
   4.05345E+4   3.91098E+4
   3.94237E+4   3.92966E+4
   3.87033E+4   3.93940E+4
   3.79811E+4   3.94062E+4
   3.71555E+4   3.95478E+4
   3.64367E+4   3.93899E+4
   3.54557E+4   3.96722E+4
   3.46110E+4   3.95404E+4
   3.43284E+4   3.92525E+4
   3.39231E+4   3.95725E+4
   3.32120E+4   3.95572E+4
   3.20471E+4   3.97100E+4
   3.13550E+4   3.93684E+4
   3.06900E+4   3.94368E+4
   3.01111E+4   3.95360E+4
   2.97298E+4   3.90640E+4
   2.88594E+4   3.91074E+4
   2.82763E+4   3.91468E+4
   2.79192E+4   3.92836E+4
   2.71067E+4   3.93027E+4
   2.64496E+4   3.91699E+4
   2.59287E+4   3.90880E+4
   2.53319E+4   3.89109E+4
   2.49672E+4   3.87369E+4
   2.44596E+4   3.88253E+4
   2.37853E+4   3.86094E+4
   2.32457E+4   3.86255E+4
