 LCModel (Version 6.3-1N) Copyright: S.W. Provencher.          Ref.: Magn. Reson. Med. 30:672-679 (1993).                
 Slice_N1@14_24  28-Feb-2025 11:38:51
 27 lines in following concentration table = NCONC+1
    Conc.  %SD /Cr+PCr  Metabolite                                         
 3.82E-04   3% 4.2E-04 Mac                                                 
    3.380  67%   3.729 Cr                                                  
    3.872  59%   4.271 PCr                                                 
    6.767  15%   7.466 Ins                                                 
   14.406   7%  15.893 NAA                                                 
    5.139  21%   5.670 Tau                                                 
    1.063  35%   1.172 PCho                                                
    0.000 999%   0.000 GPC                                                 
   10.502  11%  11.587 Glu                                                 
    3.339  26%   3.683 Gln                                                 
    1.140  73%   1.257 Ala                                                 
    3.002  48%   3.311 Asc                                                 
    2.629  41%   2.900 Asp                                                 
    0.334 173%   0.368 GABA                                                
    0.721  99%   0.795 Glc                                                 
    0.468 107%   0.516 GSH                                                 
    3.807  22%   4.200 Lac                                                 
    2.208  39%   2.436 NAAG                                                
    1.608  89%   1.774 PE                                                  
    1.063  35%   1.172 GPC+PCho                                            
   16.613   5%  18.329 NAA+NAAG                                            
   13.841  10%  15.270 Glu+Gln                                             
    7.251  10%   8.000 Cr+PCr                                              
   16.613   5%  18.329 NAA+NAAG                                            
    7.251  10%   8.000 Cr+PCr                                              
   13.841  10%  15.270 Glu+Gln                                             
   6 lines in following misc. output table
  FWHM = 0.041 ppm    S/N =   4                                            
  Data shift =-0.016 ppm                                                   
  Ph: -42 deg       0.0 deg/ppm                                            
  alphaB,S = 2.3E-01,   3.9E+01                                            
   19 spline knots.   Ns = 5(1)                                            
  ( 6) 2 infls.   ( 4) 1 extrs.                                            
  480 points on ppm-axis = NY
      4.100000     4.091866     4.083733     4.075600     4.067466     4.059333     4.051199     4.043066     4.034933     4.026799
      4.018666     4.010532     4.002399     3.994265     3.986132     3.977998     3.969864     3.961731     3.953597     3.945463
      3.937330     3.929196     3.921062     3.912929     3.904795     3.896662     3.888528     3.880394     3.872261     3.864127
      3.855993     3.847860     3.839726     3.831592     3.823459     3.815325     3.807191     3.799058     3.790924     3.782790
      3.774657     3.766523     3.758389     3.750256     3.742122     3.733989     3.725855     3.717721     3.709588     3.701454
      3.693320     3.685187     3.677053     3.668919     3.660786     3.652652     3.644518     3.636385     3.628251     3.620117
      3.611984     3.603850     3.595716     3.587583     3.579449     3.571316     3.563182     3.555048     3.546915     3.538781
      3.530647     3.522514     3.514380     3.506246     3.498113     3.489979     3.481845     3.473712     3.465578     3.457444
      3.449311     3.441177     3.433043     3.424910     3.416776     3.408643     3.400509     3.392375     3.384242     3.376108
      3.367974     3.359841     3.351707     3.343573     3.335440     3.327306     3.319172     3.311039     3.302905     3.294771
      3.286638     3.278504     3.270370     3.262237     3.254103     3.245970     3.237836     3.229702     3.221569     3.213435
      3.205301     3.197168     3.189034     3.180900     3.172767     3.164633     3.156499     3.148366     3.140232     3.132098
      3.123965     3.115831     3.107697     3.099564     3.091430     3.083297     3.075163     3.067029     3.058896     3.050762
      3.042628     3.034495     3.026361     3.018227     3.010094     3.001960     2.993826     2.985693     2.977559     2.969425
      2.961292     2.953158     2.945024     2.936891     2.928757     2.920624     2.912490     2.904356     2.896223     2.888089
      2.879955     2.871822     2.863688     2.855554     2.847421     2.839287     2.831153     2.823020     2.814886     2.806752
      2.798619     2.790485     2.782351     2.774218     2.766084     2.757951     2.749817     2.741683     2.733550     2.725416
      2.717282     2.709149     2.701015     2.692881     2.684748     2.676614     2.668480     2.660347     2.652213     2.644079
      2.635946     2.627812     2.619678     2.611545     2.603411     2.595278     2.587144     2.579010     2.570877     2.562743
      2.554609     2.546476     2.538342     2.530208     2.522075     2.513941     2.505807     2.497674     2.489540     2.481406
      2.473273     2.465139     2.457006     2.448872     2.440738     2.432605     2.424471     2.416337     2.408204     2.400070
      2.391936     2.383803     2.375669     2.367535     2.359402     2.351268     2.343134     2.335001     2.326867     2.318733
      2.310600     2.302466     2.294333     2.286199     2.278065     2.269932     2.261798     2.253664     2.245531     2.237397
      2.229263     2.221130     2.212996     2.204862     2.196729     2.188595     2.180461     2.172328     2.164194     2.156060
      2.147927     2.139793     2.131660     2.123526     2.115392     2.107259     2.099125     2.090991     2.082858     2.074724
      2.066590     2.058457     2.050323     2.042189     2.034056     2.025922     2.017788     2.009655     2.001521     1.993387
      1.985254     1.977120     1.968987     1.960853     1.952719     1.944586     1.936452     1.928318     1.920185     1.912051
      1.903917     1.895784     1.887650     1.879516     1.871383     1.863249     1.855115     1.846982     1.838848     1.830714
      1.822581     1.814447     1.806314     1.798180     1.790046     1.781913     1.773779     1.765645     1.757512     1.749378
      1.741244     1.733111     1.724977     1.716843     1.708710     1.700576     1.692442     1.684309     1.676175     1.668041
      1.659908     1.651774     1.643641     1.635507     1.627373     1.619240     1.611106     1.602972     1.594839     1.586705
      1.578571     1.570438     1.562304     1.554170     1.546037     1.537903     1.529769     1.521636     1.513502     1.505368
      1.497235     1.489101     1.480968     1.472834     1.464700     1.456567     1.448433     1.440299     1.432166     1.424032
      1.415898     1.407765     1.399631     1.391497     1.383364     1.375230     1.367096     1.358963     1.350829     1.342695
      1.334562     1.326428     1.318295     1.310161     1.302027     1.293894     1.285760     1.277626     1.269493     1.261359
      1.253225     1.245092     1.236958     1.228824     1.220691     1.212557     1.204423     1.196290     1.188156     1.180022
      1.171889     1.163755     1.155622     1.147488     1.139354     1.131221     1.123087     1.114953     1.106820     1.098686
      1.090552     1.082419     1.074285     1.066151     1.058018     1.049884     1.041750     1.033617     1.025483     1.017349
      1.009216     1.001082     0.992949     0.984815     0.976681     0.968548     0.960414     0.952280     0.944147     0.936013
      0.927879     0.919746     0.911612     0.903478     0.895345     0.887211     0.879077     0.870944     0.862810     0.854676
      0.846543     0.838409     0.830276     0.822142     0.814008     0.805875     0.797741     0.789607     0.781474     0.773340
      0.765206     0.757073     0.748939     0.740805     0.732672     0.724538     0.716404     0.708271     0.700137     0.692003
      0.683870     0.675736     0.667603     0.659469     0.651335     0.643202     0.635068     0.626934     0.618801     0.610667
      0.602533     0.594400     0.586266     0.578132     0.569999     0.561865     0.553731     0.545598     0.537464     0.529330
      0.521197     0.513063     0.504930     0.496796     0.488662     0.480529     0.472395     0.464261     0.456128     0.447994
      0.439861     0.431727     0.423593     0.415460     0.407326     0.399192     0.391059     0.382925     0.374792     0.366658
      0.358524     0.350391     0.342257     0.334124     0.325990     0.317856     0.309723     0.301589     0.293455     0.285322
      0.277188     0.269055     0.260921     0.252787     0.244654     0.236520     0.228386     0.220253     0.212119     0.203986
 NY phased data points follow
   5.14956E+01  5.13447E+01  6.28408E+01  4.82771E+01  3.97045E+01  5.32786E+01  5.08941E+01  5.51889E+01  6.64601E+01  5.83791E+01
   5.94993E+01  3.35194E+01  6.32585E+01  5.27595E+01  2.69781E+01  3.93267E+01  2.70517E+01  3.64843E+01  3.70909E+01  4.80980E+01
   2.47814E+01  4.32483E+01  5.50004E+01  5.49304E+01  1.06155E+02  9.16944E+01  1.06133E+02  1.22893E+02  1.10408E+02  1.13443E+02
   1.17884E+02  1.14137E+02  8.13412E+01  9.22916E+01  1.10470E+02  9.88683E+01  8.61004E+01  6.78530E+01  8.94368E+01  7.01170E+01
   4.58389E+01  5.97074E+01  3.34525E+01  5.39110E+01  7.50074E+01  9.09602E+01  1.07970E+02  1.03268E+02  1.17599E+02  1.20505E+02
   1.31371E+02  1.32872E+02  1.19621E+02  1.00676E+02  1.07589E+02  8.40049E+01  6.59826E+01  9.85468E+01  8.10703E+01  8.18354E+01
   7.91090E+01  7.79073E+01  1.15541E+02  1.13172E+02  9.14804E+01  8.90454E+01  9.70692E+01  1.07087E+02  9.95819E+01  7.57480E+01
   6.17876E+01  9.11146E+01  1.04512E+02  7.44712E+01  9.80597E+01  1.14094E+02  1.14839E+02  1.03781E+02  9.48843E+01  1.18368E+02
   1.04698E+02  9.55227E+01  9.70534E+01  9.86986E+01  8.80466E+01  7.85508E+01  7.78278E+01  9.57046E+01  9.15252E+01  1.04670E+02
   1.35629E+02  1.09710E+02  1.38834E+02  1.32255E+02  1.36941E+02  1.57907E+02  1.44112E+02  1.52195E+02  1.43953E+02  1.47145E+02
   1.24763E+02  1.39127E+02  1.14827E+02  7.85376E+01  9.25111E+01  6.92927E+01  5.24463E+01  3.96138E+01  2.14473E+01  3.70040E+00
  -6.83411E+00 -1.27000E+01  2.37628E+00 -3.90537E+00  3.05761E+01  5.83314E+01  4.88597E+01  5.98785E+01  5.72843E+01  8.22030E+01
   6.86993E+01  8.72870E+01  9.36056E+01  8.64467E+01  9.67216E+01  9.52546E+01  1.20339E+02  1.21950E+02  1.53963E+02  1.33700E+02
   1.30189E+02  1.27204E+02  8.01880E+01  3.11050E+01 -3.53122E+01 -2.39378E+01 -2.63946E+01 -1.96904E+01 -7.92316E+00 -1.26467E+01
  -9.39055E+00  3.87489E+00  1.52937E+01 -1.14648E+01  4.20954E+00 -1.61930E+00  6.70102E-01  2.88921E+01  1.69636E+01  2.21144E+01
   9.57772E+00 -1.69589E+00  2.23552E+01  2.74082E+01  3.33989E+01  3.56685E+01  3.37697E+01  3.64800E+01  2.85299E+01  3.43883E+01
   3.70137E+01  4.58543E+01  7.31169E+01  8.14055E+01  3.19322E+01  2.03216E+01  4.70615E+01  3.01511E+01  3.14830E+01  4.58642E+01
   6.44497E+01  6.10059E+01  8.17549E+01  9.29716E+01  7.16442E+01  7.94730E+01  6.53633E+01  7.48986E+01  6.32183E+01  2.90766E+01
   1.75171E+01  1.61350E+01  1.08474E+01 -1.94075E+01 -2.10502E+01 -5.91408E+00  1.31401E+01  1.64592E+01  2.34359E+01  3.89471E+01
   8.04883E+00  4.58671E+00  1.56903E+01  8.18920E+00  4.55283E+01  3.69641E+01  2.95023E+01  5.26841E+01  2.41576E+01  4.57237E+01
   4.55653E+01  1.79289E+01  4.51981E+01  4.21041E+01  3.23777E+01  4.51094E+01  2.07504E+01  1.41163E+01  2.92017E+01  9.64922E+00
   6.88775E+00  1.44153E+01  3.65917E+01  2.22735E+01  3.04197E+01  7.76396E+01  6.30884E+01  7.08143E+01  8.02601E+01  8.07813E+01
   7.03142E+01  5.59179E+01  4.21524E+01  2.62081E+01  3.15359E+01  2.35791E+01  3.26149E+01  3.69300E+01  4.55425E+01  4.67682E+01
   3.60999E+01  4.04685E+01  2.86662E+01  1.33853E+01 -2.41331E+00 -8.77385E+00 -8.83706E+00 -2.93676E+01 -4.02703E+01 -4.79248E+01
  -6.15589E+01 -2.03653E+01 -1.92043E+01 -3.06485E+01  3.05810E+00 -1.16167E+01 -1.97321E+01 -1.48378E+01 -2.64248E+01 -3.25383E+01
  -1.72385E+01 -3.25635E+01 -5.36365E+01 -4.39538E+01 -3.08012E+01 -2.83494E+01 -4.14387E+01  2.77950E+01  1.11680E+02  1.84529E+02
   2.53234E+02  2.29969E+02  1.82697E+02  1.86082E+02  1.94360E+02  1.60769E+02  1.32865E+02  1.31757E+02  1.49072E+02  1.29891E+02
   1.19302E+02  1.19590E+02  1.06247E+02  1.30638E+02  1.12355E+02  1.09732E+02  1.18692E+02  1.18398E+02  1.40241E+02  1.28282E+02
   1.34888E+02  1.31437E+02  1.06991E+02  1.03340E+02  1.02476E+02  1.07853E+02  9.46666E+01  9.45245E+01  1.11553E+02  7.96509E+01
   8.03285E+01  9.53796E+01  5.82761E+01  6.60551E+01  8.48000E+01  7.66404E+01  7.86257E+01  7.33896E+01  4.98512E+01  4.81460E+01
   6.58154E+01  5.84728E+01  8.26186E+01  9.90068E+01  9.26699E+01  1.14394E+02  1.07939E+02  1.07571E+02  1.08721E+02  1.07445E+02
   1.18400E+02  1.04123E+02  1.03634E+02  1.05960E+02  9.46744E+01  7.62056E+01  7.05242E+01  7.59908E+01  7.76656E+01  7.86784E+01
   6.94041E+01  5.63301E+01  5.78508E+01  7.90497E+01  5.87554E+01  6.90568E+01  6.92375E+01  3.72728E+01  5.71994E+01  2.00800E+01
   1.55315E+01  2.19737E+01 -1.38389E+01 -9.57319E+00 -1.30122E+01 -1.29535E+01 -1.32290E+01 -1.77355E+00  1.28394E+01  1.73647E+00
  -9.34054E-01 -6.64037E+00 -4.65682E+00  1.58650E+01 -2.05901E+01 -2.78551E+01 -7.10332E+00 -2.48411E+01 -7.93874E+00 -1.07494E+01
   1.12779E+01  1.62358E+01  6.96911E+00  3.00064E+01  1.60628E+01  2.40297E+01  2.83038E+01  1.85803E+01 -2.33025E+00  3.27895E-01
   1.46535E+01  2.05276E+01  2.86183E+01  2.39274E+01  3.78039E+01  2.91287E+01  4.06272E+01  5.30620E+01  4.85583E+01  4.75558E+01
   4.77210E+01  8.01804E+01  8.11166E+01  8.05012E+01  1.08880E+02  1.01123E+02  9.27883E+01  9.55851E+01  1.00188E+02  1.33323E+02
   1.14730E+02  1.23665E+02  1.46641E+02  1.30648E+02  1.53090E+02  1.47008E+02  1.73311E+02  1.75830E+02  1.65271E+02  1.67211E+02
   1.47654E+02  1.64017E+02  1.27781E+02  1.18789E+02  1.18973E+02  8.85339E+01  8.21754E+01  8.21447E+01  8.33376E+01  7.50072E+01
   5.89947E+01  2.59209E+01  3.60922E+01  3.85916E+01  2.28296E+01  1.88178E+01  1.90987E+01  2.90506E+01  1.04822E+01  8.07113E+00
   9.13710E+00 -1.02726E+00 -7.17448E+00 -8.32569E-01 -1.57492E+01 -2.34833E+01  1.12034E+01  1.36577E+01  1.08147E+01  5.84753E+00
   8.84566E+00  8.92266E+00  7.18734E+00  1.52712E+01  7.08756E-01  7.40720E-01 -2.20528E+00  6.07102E-02 -1.01275E+00 -5.88703E+00
  -1.37832E+01 -1.39287E+01  1.17734E+01  1.04328E+01  7.86470E+00  1.16160E+01  1.43407E+01 -2.17126E+00  1.95867E+01  1.12188E+01
  -2.97413E+01  1.67538E+01 -2.05417E+00  3.35240E+00  2.00223E+01 -3.31609E-01  1.68450E+01  1.17146E+00  1.26938E+01  1.05983E+01
   1.89405E+01  2.44912E+01  1.11751E+01  4.12237E+00  6.65805E+00  1.95017E+01 -3.73070E+00  1.90288E+01  2.13132E+01  1.90559E+01
   1.94974E+01  4.17320E+00  1.83850E+00 -2.27897E+00  9.88182E+00  8.69611E-01  2.18684E+01  2.68974E+00  1.25629E+01  4.17005E+01
   4.23448E+00  1.61879E+01  3.35843E+01  1.19667E+01 -1.43584E+01  1.05039E+01 -9.89480E-01  2.35425E+00  3.04201E+01  6.47958E+00
 NY points of the fit to the data follow
   5.53045E+01  5.43372E+01  5.30499E+01  5.14502E+01  5.03841E+01  5.15196E+01  5.50630E+01  5.91966E+01  6.09144E+01  5.86301E+01
   5.34542E+01  4.81702E+01  4.47991E+01  4.31968E+01  4.20634E+01  3.99579E+01  3.72653E+01  3.42604E+01  3.18127E+01  3.05387E+01
   3.21134E+01  3.90279E+01  5.21888E+01  7.00053E+01  8.78514E+01  1.00675E+02  1.07216E+02  1.09838E+02  1.10650E+02  1.11555E+02
   1.12129E+02  1.11619E+02  1.09948E+02  1.07341E+02  1.03890E+02  9.92646E+01  9.33955E+01  8.65306E+01  7.86066E+01  6.95083E+01
   6.03987E+01  5.39479E+01  5.28270E+01  5.83456E+01  6.95798E+01  8.37596E+01  9.75076E+01  1.08569E+02  1.15908E+02  1.19366E+02
   1.19773E+02  1.18043E+02  1.14946E+02  1.10854E+02  1.05110E+02  9.81956E+01  9.16480E+01  8.61990E+01  8.23027E+01  8.04993E+01
   8.15746E+01  8.52014E+01  9.07244E+01  9.78681E+01  1.04097E+02  1.07526E+02  1.08752E+02  1.05907E+02  9.76180E+01  8.68333E+01
   7.81555E+01  7.53271E+01  7.89326E+01  8.70883E+01  9.68650E+01  1.05839E+02  1.13435E+02  1.19116E+02  1.20937E+02  1.19256E+02
   1.15042E+02  1.08637E+02  1.00752E+02  9.28677E+01  8.72727E+01  8.57881E+01  8.89870E+01  9.58966E+01  1.04358E+02  1.12103E+02
   1.18355E+02  1.22887E+02  1.26397E+02  1.29427E+02  1.31798E+02  1.33384E+02  1.34522E+02  1.34917E+02  1.33705E+02  1.31111E+02
   1.26568E+02  1.19778E+02  1.09930E+02  9.73041E+01  8.20498E+01  6.43812E+01  4.75610E+01  3.34465E+01  2.06035E+01  7.44863E+00
  -4.38845E+00 -1.09266E+01 -8.01489E+00  3.34789E+00  1.82192E+01  3.08218E+01  3.99222E+01  4.77581E+01  5.50350E+01  6.20855E+01
   6.91951E+01  7.67025E+01  8.49732E+01  9.42139E+01  1.04357E+02  1.15762E+02  1.29151E+02  1.39318E+02  1.44021E+02  1.43407E+02
   1.36166E+02  1.16644E+02  8.18788E+01  4.01507E+01  5.01096E+00 -1.35492E+01 -1.50393E+01 -9.52913E+00 -7.25002E+00 -6.62885E+00
  -6.32560E+00 -5.91664E+00 -5.23246E+00 -4.24670E+00 -2.97130E+00 -1.27260E+00  1.00255E+00  3.80367E+00  6.91504E+00  1.00701E+01
   1.30833E+01  1.58074E+01  1.82019E+01  2.04165E+01  2.26354E+01  2.48532E+01  2.69050E+01  2.84861E+01  2.94874E+01  3.02632E+01
   3.12221E+01  3.23070E+01  3.29068E+01  3.26067E+01  3.18184E+01  3.15054E+01  3.26778E+01  3.53503E+01  3.86640E+01  4.25264E+01
   4.82579E+01  5.64800E+01  6.47158E+01  6.91417E+01  6.86461E+01  6.63626E+01  6.54533E+01  6.51438E+01  6.14112E+01  5.19986E+01
   3.94476E+01  2.83920E+01  2.12936E+01  1.74135E+01  1.50830E+01  1.35863E+01  1.31278E+01  1.31894E+01  1.35007E+01  1.48305E+01
   1.68212E+01  1.90107E+01  2.22538E+01  2.72638E+01  3.38493E+01  3.97795E+01  4.41023E+01  4.74799E+01  5.00169E+01  5.18553E+01
   5.22602E+01  5.06797E+01  4.86223E+01  4.62396E+01  4.22845E+01  3.65470E+01  2.92657E+01  2.21086E+01  1.63147E+01  1.14990E+01
   9.14886E+00  1.04804E+01  1.59008E+01  2.61070E+01  4.02324E+01  5.65593E+01  7.14856E+01  8.16169E+01  8.55573E+01  8.33961E+01
   7.74791E+01  7.15880E+01  6.70332E+01  6.44139E+01  6.31808E+01  6.07684E+01  5.61973E+01  4.90971E+01  3.97576E+01  2.86883E+01
   1.66118E+01  4.52975E+00 -6.84145E+00 -1.68111E+01 -2.48857E+01 -3.06824E+01 -3.43648E+01 -3.58246E+01 -3.54224E+01 -3.35087E+01
  -3.08150E+01 -2.73679E+01 -2.31868E+01 -1.87994E+01 -1.44956E+01 -1.13265E+01 -1.05792E+01 -1.28364E+01 -1.74266E+01 -2.31212E+01
  -3.08478E+01 -4.41122E+01 -5.35156E+01 -5.50156E+01 -5.15263E+01 -4.38197E+01 -2.08633E+01  2.91202E+01  9.77696E+01  1.61533E+02
   1.97350E+02  1.98049E+02  1.80864E+02  1.68105E+02  1.59262E+02  1.52318E+02  1.46531E+02  1.41498E+02  1.37150E+02  1.33599E+02
   1.30954E+02  1.29079E+02  1.27776E+02  1.26758E+02  1.25731E+02  1.24483E+02  1.22969E+02  1.21196E+02  1.19257E+02  1.17133E+02
   1.14718E+02  1.12027E+02  1.09120E+02  1.06131E+02  1.03066E+02  9.98324E+01  9.63796E+01  9.26645E+01  8.86461E+01  8.42568E+01
   7.95243E+01  7.46670E+01  7.00202E+01  6.59139E+01  6.27601E+01  6.08996E+01  6.05856E+01  6.17823E+01  6.40746E+01  6.69562E+01
   7.00917E+01  7.33250E+01  7.65795E+01  7.98246E+01  8.29746E+01  8.59642E+01  8.88352E+01  9.17026E+01  9.46259E+01  9.75569E+01
   1.00311E+02  1.02710E+02  1.04718E+02  1.06364E+02  1.07628E+02  1.08399E+02  1.08568E+02  1.07803E+02  1.05845E+02  1.02758E+02
   9.83169E+01  9.23462E+01  8.47055E+01  7.57034E+01  6.60113E+01  5.64812E+01  4.76582E+01  3.92762E+01  3.08600E+01  2.26167E+01
   1.51172E+01  9.17172E+00  5.78116E+00  5.31001E+00  7.87574E+00  1.32387E+01  1.98508E+01  2.64974E+01  3.18767E+01  3.45395E+01
   3.34501E+01  2.82944E+01  2.04297E+01  1.24082E+01  7.49280E+00  7.68757E+00  1.20167E+01  1.77807E+01  2.29063E+01  2.55352E+01
   2.56534E+01  2.41977E+01  2.14479E+01  1.78155E+01  1.39800E+01  1.07020E+01  8.64525E+00  8.21592E+00  9.44158E+00  1.20378E+01
   1.56793E+01  2.00642E+01  2.49033E+01  2.99114E+01  3.48796E+01  3.96759E+01  4.42450E+01  4.86592E+01  5.30188E+01  5.73841E+01
   6.18146E+01  6.63854E+01  7.11613E+01  7.62547E+01  8.18510E+01  8.80442E+01  9.48577E+01  1.02343E+02  1.10567E+02  1.19423E+02
   1.28734E+02  1.38305E+02  1.47791E+02  1.56598E+02  1.63911E+02  1.68707E+02  1.70021E+02  1.67269E+02  1.60344E+02  1.49932E+02
   1.37435E+02  1.24540E+02  1.12432E+02  1.01603E+02  9.17670E+01  8.22318E+01  7.23589E+01  6.19106E+01  5.10228E+01  4.02330E+01
   3.03154E+01  2.18855E+01  1.51619E+01  1.00659E+01  6.37210E+00  3.71134E+00  1.82883E+00  5.18997E-01 -4.59086E-01 -1.30212E+00
  -1.98196E+00 -2.40355E+00 -2.52949E+00 -2.48837E+00 -2.35571E+00 -2.12076E+00 -1.83354E+00 -1.56469E+00 -1.35267E+00 -1.10989E+00
  -7.72262E-01 -3.51134E-01  4.56415E-02  3.55336E-01  6.29426E-01  9.54607E-01  1.32744E+00  1.68529E+00  2.09474E+00  2.56042E+00
   3.02513E+00  3.37893E+00  3.57566E+00  3.70922E+00  3.91833E+00  4.28319E+00  4.75087E+00  5.28562E+00  5.81553E+00  6.28638E+00
   6.67520E+00  7.02318E+00  7.32131E+00  7.53305E+00  7.67041E+00  7.78865E+00  7.97614E+00  8.27904E+00  8.68138E+00  9.09773E+00
   9.43207E+00  9.68877E+00  9.95579E+00  1.03107E+01  1.07433E+01  1.12517E+01  1.17264E+01  1.21066E+01  1.24348E+01  1.27436E+01
   1.30114E+01  1.32067E+01  1.33640E+01  1.35177E+01  1.37577E+01  1.41168E+01  1.46150E+01  1.52062E+01  1.58177E+01  1.63068E+01
   1.65634E+01  1.65988E+01  1.65906E+01  1.67119E+01  1.69762E+01  1.73257E+01  1.76863E+01  1.80192E+01  1.83550E+01  1.87766E+01
 NY background values follow
     9.203E+01    9.196E+01    9.189E+01    9.182E+01    9.175E+01    9.168E+01    9.161E+01    9.154E+01    9.147E+01    9.140E+01
     9.133E+01    9.126E+01    9.118E+01    9.111E+01    9.104E+01    9.097E+01    9.090E+01    9.083E+01    9.076E+01    9.069E+01
     9.062E+01    9.054E+01    9.047E+01    9.040E+01    9.033E+01    9.026E+01    9.019E+01    9.011E+01    9.004E+01    8.997E+01
     8.990E+01    8.983E+01    8.975E+01    8.968E+01    8.961E+01    8.954E+01    8.946E+01    8.939E+01    8.932E+01    8.924E+01
     8.917E+01    8.910E+01    8.902E+01    8.895E+01    8.888E+01    8.880E+01    8.873E+01    8.865E+01    8.857E+01    8.850E+01
     8.842E+01    8.835E+01    8.827E+01    8.819E+01    8.811E+01    8.804E+01    8.796E+01    8.788E+01    8.780E+01    8.772E+01
     8.764E+01    8.756E+01    8.748E+01    8.739E+01    8.731E+01    8.723E+01    8.714E+01    8.706E+01    8.697E+01    8.689E+01
     8.680E+01    8.671E+01    8.662E+01    8.653E+01    8.644E+01    8.634E+01    8.625E+01    8.615E+01    8.605E+01    8.595E+01
     8.585E+01    8.575E+01    8.565E+01    8.554E+01    8.543E+01    8.532E+01    8.521E+01    8.510E+01    8.498E+01    8.486E+01
     8.474E+01    8.462E+01    8.449E+01    8.437E+01    8.424E+01    8.411E+01    8.397E+01    8.384E+01    8.370E+01    8.356E+01
     8.341E+01    8.327E+01    8.312E+01    8.297E+01    8.282E+01    8.266E+01    8.250E+01    8.234E+01    8.218E+01    8.202E+01
     8.185E+01    8.168E+01    8.150E+01    8.133E+01    8.115E+01    8.097E+01    8.079E+01    8.060E+01    8.041E+01    8.022E+01
     8.002E+01    7.983E+01    7.963E+01    7.943E+01    7.922E+01    7.901E+01    7.880E+01    7.859E+01    7.837E+01    7.815E+01
     7.793E+01    7.771E+01    7.748E+01    7.725E+01    7.701E+01    7.678E+01    7.654E+01    7.630E+01    7.605E+01    7.581E+01
     7.556E+01    7.530E+01    7.505E+01    7.479E+01    7.453E+01    7.426E+01    7.400E+01    7.373E+01    7.345E+01    7.318E+01
     7.290E+01    7.262E+01    7.233E+01    7.204E+01    7.175E+01    7.146E+01    7.117E+01    7.087E+01    7.057E+01    7.027E+01
     6.996E+01    6.966E+01    6.935E+01    6.904E+01    6.873E+01    6.841E+01    6.810E+01    6.778E+01    6.746E+01    6.714E+01
     6.682E+01    6.649E+01    6.617E+01    6.584E+01    6.551E+01    6.518E+01    6.485E+01    6.452E+01    6.419E+01    6.386E+01
     6.353E+01    6.319E+01    6.286E+01    6.252E+01    6.219E+01    6.185E+01    6.152E+01    6.118E+01    6.084E+01    6.050E+01
     6.017E+01    5.983E+01    5.949E+01    5.915E+01    5.882E+01    5.848E+01    5.814E+01    5.781E+01    5.747E+01    5.713E+01
     5.680E+01    5.646E+01    5.613E+01    5.579E+01    5.546E+01    5.513E+01    5.479E+01    5.446E+01    5.413E+01    5.380E+01
     5.348E+01    5.315E+01    5.282E+01    5.250E+01    5.217E+01    5.185E+01    5.153E+01    5.120E+01    5.088E+01    5.056E+01
     5.024E+01    4.992E+01    4.960E+01    4.928E+01    4.896E+01    4.864E+01    4.832E+01    4.800E+01    4.768E+01    4.736E+01
     4.703E+01    4.671E+01    4.639E+01    4.607E+01    4.575E+01    4.542E+01    4.510E+01    4.478E+01    4.445E+01    4.412E+01
     4.380E+01    4.347E+01    4.314E+01    4.281E+01    4.248E+01    4.215E+01    4.182E+01    4.148E+01    4.115E+01    4.081E+01
     4.048E+01    4.014E+01    3.980E+01    3.946E+01    3.912E+01    3.878E+01    3.844E+01    3.810E+01    3.776E+01    3.742E+01
     3.708E+01    3.673E+01    3.639E+01    3.604E+01    3.570E+01    3.535E+01    3.500E+01    3.466E+01    3.431E+01    3.396E+01
     3.361E+01    3.326E+01    3.291E+01    3.257E+01    3.222E+01    3.187E+01    3.152E+01    3.117E+01    3.082E+01    3.047E+01
     3.013E+01    2.978E+01    2.943E+01    2.909E+01    2.875E+01    2.840E+01    2.806E+01    2.772E+01    2.739E+01    2.705E+01
     2.672E+01    2.638E+01    2.606E+01    2.573E+01    2.540E+01    2.508E+01    2.476E+01    2.444E+01    2.413E+01    2.381E+01
     2.350E+01    2.320E+01    2.290E+01    2.260E+01    2.230E+01    2.201E+01    2.172E+01    2.144E+01    2.116E+01    2.089E+01
     2.062E+01    2.035E+01    2.009E+01    1.984E+01    1.959E+01    1.935E+01    1.911E+01    1.888E+01    1.866E+01    1.844E+01
     1.823E+01    1.803E+01    1.783E+01    1.764E+01    1.746E+01    1.728E+01    1.712E+01    1.696E+01    1.680E+01    1.666E+01
     1.653E+01    1.640E+01    1.628E+01    1.617E+01    1.607E+01    1.598E+01    1.589E+01    1.582E+01    1.575E+01    1.568E+01
     1.563E+01    1.558E+01    1.554E+01    1.551E+01    1.549E+01    1.547E+01    1.546E+01    1.546E+01    1.546E+01    1.547E+01
     1.549E+01    1.551E+01    1.554E+01    1.557E+01    1.562E+01    1.567E+01    1.572E+01    1.578E+01    1.585E+01    1.592E+01
     1.600E+01    1.608E+01    1.617E+01    1.626E+01    1.636E+01    1.647E+01    1.657E+01    1.669E+01    1.680E+01    1.692E+01
     1.704E+01    1.717E+01    1.729E+01    1.742E+01    1.756E+01    1.769E+01    1.783E+01    1.797E+01    1.811E+01    1.825E+01
     1.839E+01    1.853E+01    1.867E+01    1.881E+01    1.895E+01    1.909E+01    1.923E+01    1.937E+01    1.951E+01    1.965E+01
     1.978E+01    1.991E+01    2.004E+01    2.017E+01    2.030E+01    2.042E+01    2.055E+01    2.067E+01    2.079E+01    2.090E+01
     2.102E+01    2.113E+01    2.124E+01    2.134E+01    2.145E+01    2.155E+01    2.165E+01    2.175E+01    2.184E+01    2.193E+01
     2.202E+01    2.211E+01    2.219E+01    2.227E+01    2.234E+01    2.242E+01    2.249E+01    2.256E+01    2.262E+01    2.268E+01
     2.274E+01    2.280E+01    2.285E+01    2.290E+01    2.294E+01    2.299E+01    2.303E+01    2.306E+01    2.310E+01    2.313E+01
     2.316E+01    2.319E+01    2.321E+01    2.323E+01    2.325E+01    2.327E+01    2.329E+01    2.330E+01    2.331E+01    2.332E+01
     2.333E+01    2.334E+01    2.334E+01    2.334E+01    2.334E+01    2.334E+01    2.334E+01    2.334E+01    2.333E+01    2.333E+01
     2.332E+01    2.331E+01    2.330E+01    2.329E+01    2.328E+01    2.327E+01    2.325E+01    2.324E+01    2.323E+01    2.321E+01
     2.319E+01    2.318E+01    2.316E+01    2.314E+01    2.312E+01    2.310E+01    2.308E+01    2.306E+01    2.304E+01    2.302E+01
     2.300E+01    2.297E+01    2.295E+01    2.293E+01    2.291E+01    2.289E+01    2.286E+01    2.284E+01    2.282E+01    2.280E+01
 Mac      Conc. = 3.82E-04
   6.46511E+01  6.38494E+01  6.30734E+01  6.22804E+01  6.13008E+01  5.99652E+01  5.82668E+01  5.63138E+01  5.43780E+01  5.27277E+01
   5.14787E+01  5.05411E+01  4.97692E+01  4.91625E+01  4.86069E+01  4.81141E+01  4.81836E+01  4.96242E+01  5.28302E+01  5.73919E+01
   6.23715E+01  6.69239E+01  7.05878E+01  7.34266E+01  7.56812E+01  7.74841E+01  7.92050E+01  8.11881E+01  8.33983E+01  8.55335E+01
   8.73262E+01  8.86651E+01  8.95885E+01  9.02163E+01  9.06764E+01  9.10957E+01  9.17611E+01  9.30051E+01  9.48103E+01  9.67223E+01
   9.81519E+01  9.88995E+01  9.92892E+01  9.98091E+01  1.00649E+02  1.01478E+02  1.01824E+02  1.01456E+02  1.00429E+02  9.89716E+01
   9.73570E+01  9.58113E+01  9.45438E+01  9.37107E+01  9.32915E+01  9.32641E+01  9.36998E+01  9.46516E+01  9.59820E+01  9.74485E+01
   9.87947E+01  9.98192E+01  1.00355E+02  1.00326E+02  9.96799E+01  9.86282E+01  9.76849E+01  9.71625E+01  9.70893E+01  9.75367E+01
   9.86457E+01  1.00453E+02  1.02675E+02  1.04725E+02  1.06077E+02  1.06524E+02  1.06259E+02  1.05547E+02  1.04618E+02  1.03726E+02
   1.03014E+02  1.02566E+02  1.02417E+02  1.02609E+02  1.03129E+02  1.03907E+02  1.04797E+02  1.05642E+02  1.06336E+02  1.06881E+02
   1.07203E+02  1.07231E+02  1.06933E+02  1.06181E+02  1.04840E+02  1.02827E+02  1.00209E+02  9.71096E+01  9.37786E+01  9.04683E+01
   8.72164E+01  8.37196E+01  7.96250E+01  7.46916E+01  6.88862E+01  6.23584E+01  5.55372E+01  4.91905E+01  4.43786E+01  4.19064E+01
