 
 $NMID
 ID=''
 FMTDAT='(2E13.5)'
 TRAMP=   1.00000E+0
 VOLUME=   1.00000E+0
 $END
  -4.27527E+4  -3.31171E+4
  -4.84905E+4   2.17657E+4
   1.18152E+4   5.97589E+4
   5.93351E+4   8.63930E+3
   2.60289E+4  -5.47408E+4
  -3.41115E+4  -3.84929E+4
  -4.42664E+4   2.14893E+4
  -1.99398E+3   4.83846E+4
   4.02543E+4   1.85728E+4
   2.95020E+4  -3.03276E+4
  -1.87315E+4  -3.79400E+4
  -3.81383E+4   2.14217E+3
  -1.02246E+4   3.27884E+4
   2.38671E+4   1.81605E+4
   2.63360E+4  -1.53895E+4
  -1.07695E+3  -2.57734E+4
  -2.46427E+4  -4.82771E+3
  -1.40190E+4   1.94225E+4
   1.21264E+4   1.77940E+4
   1.84367E+4  -3.15816E+3
   3.19472E+3  -1.69269E+4
  -1.30823E+4  -8.68288E+3
  -1.35930E+4   8.45139E+3
   1.67978E+3   1.25044E+4
   1.32760E+4   1.68526E+3
   6.60238E+3  -8.03558E+3
  -7.10141E+3  -7.35202E+3
  -9.30052E+3   1.43576E+2
  -2.62609E+2   7.46795E+3
   6.31327E+3   5.93620E+3
   4.36801E+3  -3.11476E+3
  -1.45998E+3  -7.44234E+3
  -4.40234E+3  -2.52593E+3
  -2.34959E+3   4.14380E+3
   2.14715E+3   5.48303E+3
   4.48209E+3   7.00353E+2
   1.37398E+3  -4.27155E+3
  -3.14715E+3  -3.39345E+3
  -3.75066E+3   1.43645E+3
  -2.96067E+2   3.64065E+3
   3.52120E+3   1.32392E+3
   3.24741E+3  -2.09673E+3
  -4.48531E+2  -2.77444E+3
  -3.16838E+3  -1.40487E+2
  -1.53941E+3   2.78674E+3
   7.74746E+2   2.50798E+3
   2.03033E+3  -1.62871E+3
   1.30387E+3  -4.33450E+3
  -1.02314E+3  -1.77124E+3
  -1.89957E+3   2.12349E+3
   3.70730E+2   2.52411E+3
   2.69640E+3  -7.24288E+1
   1.49974E+3  -1.68616E+3
  -1.92093E+3  -1.71494E+3
  -2.62442E+3   2.07001E+2
  -2.58947E+2   1.43277E+3
   2.37386E+3   6.24859E+2
   1.75626E+3  -8.07161E+2
  -7.41813E+2  -1.66258E+3
  -1.81002E+3  -2.74781E+2
  -7.67778E+2   1.52840E+3
   7.93525E+2   1.27816E+3
   9.88952E+2  -9.84320E+2
   2.00306E+2  -2.50043E+3
  -1.02321E+3  -9.42730E+2
  -7.28981E+2   1.11954E+3
   7.27815E+2   1.67709E+3
   1.36644E+3   2.78770E+2
   9.68420E+1  -1.02807E+3
  -1.44529E+3  -7.88226E+2
  -7.51265E+2   5.90915E+2
   5.20712E+2   1.17422E+3
   8.70067E+2   5.98793E+2
  -2.17010E+2  -1.00074E+3
  -6.37629E+2  -1.08208E+3
  -4.87126E+2  -1.97946E+2
   1.63844E+2   8.62964E+2
   5.48270E+2   2.16335E+2
   4.94062E+2  -8.91326E+2
   4.89943E+1  -8.92509E+2
  -4.76859E+2   1.86604E+2
   1.32335E+2   7.89176E+2
   1.03234E+2   1.09947E+2
   6.77390E+2  -6.85473E+2
   1.06749E+1  -1.14809E+2
  -5.43751E+2   2.91415E+2
  -3.97999E+2   1.52069E+2
   4.94468E+2  -2.22423E+2
   4.41909E+2  -3.59028E+2
  -2.31566E+2  -2.23879E+2
  -6.17147E+2  -7.43576E+1
  -2.47249E+2   1.03266E+2
   2.46850E+2  -2.16087E+2
   3.38418E+2  -1.66684E+2
   8.56053E+0  -1.85384E+2
  -1.02686E+2   1.52752E+2
  -2.58744E+2   5.21548E+2
  -1.70288E+2   2.66527E+1
  -2.82158E+2  -5.84346E+2
  -1.53023E+1  -6.44490E+1
  -5.47671E+2   1.92016E+2
  -1.54190E+1  -2.55119E+2
   2.58449E+2  -2.33801E+2
   2.58044E+2   7.49584E+1
  -3.62039E+2   4.01789E+2
  -4.36155E+2   1.04979E+2
  -1.06548E+2  -3.45068E+2
   4.95460E+2  -4.17823E+2
   4.17550E+1   3.59316E+2
  -2.82782E+2   2.20327E+2
  -2.55256E+2  -4.91061E+1
  -4.61932E+1  -2.17030E+2
  -8.47432E+1  -2.40265E+1
  -2.52288E+2   1.21784E+2
  -2.86941E+2  -1.81985E+2
   8.27020E+1  -2.17234E+1
   1.78823E+2   1.15386E+2
   4.15464E+2   1.45080E+2
  -1.02192E+2   1.26741E+2
  -1.06152E+2   1.61250E+2
   6.96023E+1   1.94732E+2
  -3.12370E+0   1.14270E+2
   1.36308E+2   6.31385E+0
   2.92618E+1  -8.60001E+1
  -3.77604E+1   1.56179E+2
   2.69923E+1   4.29973E+2
   3.17775E+2  -1.99365E+1
   1.13010E+2  -1.52500E+2
   5.46605E+1  -8.37726E+1
  -2.74861E+2  -1.85974E+2
   1.01174E+2   9.67430E+1
   3.36705E+2   3.17864E+1
  -9.93649E+1   9.00075E+1
  -5.73897E+1  -1.84416E+2
   1.05967E+2  -1.83634E+2
   3.41853E+1   2.28738E+2
   3.57690E+0   9.68862E+1
  -2.11652E+2   2.91437E+1
   3.15386E+2  -3.52692E+2
  -1.78977E+1  -3.96319E+2
   9.13733E+1   1.69190E+2
  -1.24152E+2   1.74293E+2
   1.68624E+2  -4.05968E+2
   2.32527E+1  -3.76533E+2
   8.74563E+1  -2.11530E+2
  -4.25219E+1  -3.12678E+1
  -2.27765E+1   4.91183E+2
   3.46839E+2  -9.14098E+1
  -3.13266E+1  -4.23992E+2
  -1.56722E+2  -2.55889E+2
  -2.48286E+2   1.20288E+2
   1.52331E+2  -4.60565E+1
   3.36958E+1  -2.66363E+2
   2.74920E+2  -3.90991E+2
  -7.01397E+1  -2.54603E+2
  -2.35927E+2   1.30442E+2
   1.03538E+2   9.98113E+1
   3.04545E+2  -2.16862E+1
   6.86493E+1  -1.12557E+2
   3.19613E+1  -1.78858E+2
   8.14908E+1  -2.48091E+2
  -1.09845E+2   1.16689E+2
   1.71689E+2   9.34465E+1
   2.08345E+2  -1.19800E+2
  -3.41224E+0  -8.67356E+1
  -2.23370E+2   3.04330E+0
  -4.49658E+1   2.98405E+1
   1.23303E+2  -3.48390E+1
  -7.65493E+1  -1.63312E+1
  -6.15087E+1  -1.67572E+2
  -3.23277E+2  -8.30391E+0
  -5.04097E+1   7.78743E-2
   2.08219E+2   9.28823E+1
   1.41072E+2  -1.29527E+2
   8.20358E+1  -1.20919E+2
  -7.76428E+1  -2.68940E+1
   1.55721E+2   7.03443E+1
   7.36514E+1   2.55261E+2
   2.17086E+2   2.74882E+2
  -1.78013E+2  -6.74383E+1
   1.01087E+2   2.54877E+1
   7.55655E+1   8.11475E+1
   1.16507E+2   4.93711E+1
   1.62184E+2   1.97386E+2
   1.17783E+2   6.44810E+1
   1.10792E+2  -5.39628E+1
  -9.35139E+1   5.70808E+1
   8.13314E+1  -4.67238E+1
   1.97499E+2  -2.72804E+1
  -2.44835E+1  -1.79254E+2
   9.06741E+0  -2.85196E+1
   2.16998E+2  -2.48819E+2
   1.47692E+2   1.87375E+2
  -1.23887E+2   3.60817E+1
  -1.91598E+2  -2.39217E+2
   7.69868E+1   4.33078E+1
  -6.75356E+1  -1.42533E+2
  -1.40838E+1   6.05202E+0
   1.40040E+2   9.24726E+1
   2.37954E+2  -1.39666E+2
   3.37590E+1   5.45914E+1
   1.50987E+2   7.37631E+1
  -3.90380E+2   1.82492E+2
   9.22309E+0   4.96168E+1
   1.32332E+2   9.03837E+1
   2.15559E+2   8.23097E+0
  -7.98960E+1  -2.08963E+2
   3.72234E+1   6.07348E+1
  -2.76272E+0  -6.10893E+1
   1.18597E+2  -2.08789E+2
   1.20105E+2   1.14189E+2
   1.12522E+2  -1.82867E+2
  -6.25035E+1  -2.10688E+2
   1.81201E+2  -5.26301E+1
   9.39606E+1  -5.15779E+1
   2.06875E+2   1.43868E+2
  -7.78318E+1   1.24613E+2
  -8.33625E+1   1.54221E+2
  -1.01905E+2  -2.15958E+1
  -3.43069E+1   5.70288E+1
  -6.18531E+1   1.20716E+2
  -1.58955E+2  -1.74693E+2
   2.66886E+2   1.49845E+1
   3.06337E+1  -8.21408E+1
  -1.01533E+2   9.87545E+1
   8.69569E+1  -1.33372E+2
  -1.62205E+1   1.22699E+2
  -5.62278E+1  -9.85047E+1
   8.44949E+1  -1.55604E+2
   3.80489E+1   1.24034E+2
  -1.03589E+2   1.59726E+2
  -1.51596E+0   1.82132E+2
  -2.97872E+0  -9.50274E+1
   1.66557E+2   4.94124E+1
   6.44817E+1   2.15576E+2
   1.82364E+1   7.40687E+1
   2.17186E+1  -7.36156E-1
   7.56844E+1  -1.80869E+2
  -1.14461E+2  -1.06199E+2
   8.23793E+1   9.60918E+0
  -6.79261E+1   9.45491E+1
   2.27505E+0  -6.63277E+1
   1.45685E+2   1.68312E+2
   2.31271E+1  -9.18007E+0
   4.11290E+1  -2.38655E+2
  -1.19344E+2   7.43276E+1
  -9.97148E+1   1.27463E+2
   1.25024E+2   1.61598E+2
   2.77368E+2   4.01879E+1
   1.00234E+2  -5.67185E+1
  -3.39973E+1  -4.27179E+1
   1.76555E+2  -4.73482E+1
   1.41557E+2   6.30570E+1
  -1.49928E+2  -8.39736E+1
  -1.80818E+2   1.58199E+2
  -1.80719E+1  -2.11013E+2
  -1.86206E+2   6.03211E-1
   1.37689E+2  -9.31650E+1
  -1.76611E+2   8.54161E+1
   1.33420E+2   1.23354E+2
   1.61915E+2  -1.28592E+2
   7.20595E+1  -1.63890E+2
   1.02814E+1  -1.17812E+2
  -2.25659E+2  -9.41780E+1
   1.75926E+0   1.47122E+2
   3.03880E+2  -3.27289E+1
   1.69077E+2  -2.68745E+2
  -6.94955E+1  -1.56493E+2
  -1.94643E+2   2.35718E+1
  -1.21972E+2  -8.89778E+1
   2.21100E+1   1.99458E+2
   1.10171E+2  -2.29780E+1
   5.50678E+1  -1.25382E+2
  -1.10919E+2  -1.48481E+2
  -3.32950E+1   7.85578E+1
   6.80802E+1   2.38923E+2
   5.86360E+1   4.09547E+1
  -9.77874E+1   1.11256E+2
   8.35414E+1   4.72588E+1
  -1.42502E+2   1.25992E+1
   1.83832E+2   5.03567E+1
  -1.99701E+1   1.45487E+2
  -4.26662E+1  -8.88472E+0
  -3.94506E+1   3.70161E+1
  -8.08215E+0  -6.83709E+1
   5.39137E+1   4.39781E-1
  -5.92181E+1   9.58908E+1
   1.21301E+2  -1.25049E+2
  -3.88942E+1  -1.79878E+2
   1.80011E+2   1.26017E+2
   9.59367E+0   1.92483E+2
   7.73947E+1   5.47137E+1
   1.69956E+1  -1.38235E+2
  -6.18928E+1   2.96467E+2
  -1.11684E+2   1.74659E+2
  -4.57994E+1   1.42300E+1
  -9.01438E+1  -1.64979E+2
  -1.99697E-1   7.29515E+1
   4.10351E+0   2.20183E+2
  -3.99211E+1  -1.59429E+1
  -2.46518E+2   1.51464E+2
   1.03956E+2  -3.67682E+2
  -9.36407E+1  -3.68272E+1
   5.02916E+1  -2.41140E+2
  -4.04561E+1  -7.34788E+1
  -4.20763E+1   5.87728E+1
   9.68772E+1  -3.75791E+1
  -1.57310E+1  -2.12311E+2
   1.97895E+2  -2.04552E+2
   1.57535E+2  -9.57765E+1
  -1.32592E+1  -1.04734E+2
   1.09662E+0   1.97663E+1
   3.76242E+2   1.87485E+2
   1.18915E+2   3.41756E+1
  -1.36073E+2   1.64105E+2
   1.01224E+2  -6.28542E+0
  -8.76336E+1   7.07495E+1
   1.86010E+2  -8.25423E+1
   1.50322E+2   8.67649E+1
  -5.62773E+1   1.47593E+2
  -4.83135E+1  -1.03405E+2
  -3.64947E+1  -6.96057E+0
   1.97352E+2  -6.39296E+1
   6.40583E+1   1.90968E+2
   7.89217E+1  -2.14077E+2
   1.75816E+2   6.52290E+0
  -3.88343E+0  -2.33218E+2
   1.41084E+2  -5.39342E+1
   2.08796E+2  -4.32652E+1
   2.35033E+2  -5.65259E+1
  -3.83559E+0  -4.20946E+1
  -7.24760E+1  -1.40553E+2
   1.11243E+2  -1.28832E+1
  -1.74885E+2  -1.31752E+2
   4.20217E+0   5.03726E+1
  -2.32996E+2  -3.37712E+2
   1.06574E+2  -9.99672E+0
   2.14063E+2   2.07586E+2
  -4.09258E+1   7.11218E+1
  -3.44739E+1  -3.04584E+1
  -1.81577E+2  -2.03251E+1
   5.04131E+1   7.82679E+1
   2.41702E+0   8.52833E+1
   5.44756E+1  -7.86404E+1
   9.03687E+1  -5.47632E+1
   6.64535E+1   5.70670E+1
  -2.06691E+2  -9.03218E+1
  -9.29498E+1  -5.04408E+1
  -3.83175E+1   1.01781E+2
   8.25032E+1  -1.25669E+2
   6.13046E+1  -4.75755E+1
   4.07028E+1   2.11982E+1
   2.43885E+2  -1.44197E+1
   7.12498E+1  -7.65530E+1
  -9.44752E+1  -2.35225E+2
  -7.12559E+1   7.79746E+1
   2.43893E+2  -1.09769E+2
  -1.33287E+2  -1.58577E+2
  -9.44956E+1  -1.18162E+2
   7.61953E+1  -3.20674E+1
   4.77990E+1   2.64678E+1
  -6.56928E+1  -6.69157E+1
  -5.42006E+1   3.04190E+1
  -9.28413E+1  -1.34161E+2
  -1.63080E+2   4.04906E+1
   1.43663E+2  -4.19753E+1
   2.39979E+1  -2.00694E+1
