 LCModel (Version 6.3-1N) Copyright: S.W. Provencher.          Ref.: Magn. Reson. Med. 30:672-679 (1993).                
 Slice_N1@18_15  28-Feb-2025 11:39:47
 27 lines in following concentration table = NCONC+1
    Conc.  %SD /Cr+PCr  Metabolite                                         
 2.16E-04  10% 1.7E-04 Mac                                                 
    4.960  46%   3.919 Cr                                                  
    5.164  43%   4.081 PCr                                                 
    7.657  20%   6.051 Ins                                                 
   10.395  13%   8.215 NAA                                                 
    7.524  21%   5.945 Tau                                                 
    1.924  29%   1.520 PCho                                                
    0.000 999%   0.000 GPC                                                 
   11.535  15%   9.115 Glu                                                 
    1.331  89%   1.052 Gln                                                 
    0.000 999%   0.000 Ala                                                 
    1.275 169%   1.007 Asc                                                 
    1.953  75%   1.543 Asp                                                 
    0.574 141%   0.453 GABA                                                
    0.398 243%   0.315 Glc                                                 
    0.865  67%   0.684 GSH                                                 
    7.501  17%   5.927 Lac                                                 
    0.583 185%   0.461 NAAG                                                
    2.741  75%   2.166 PE                                                  
    1.924  29%   1.520 GPC+PCho                                            
   10.979  12%   8.676 NAA+NAAG                                            
   12.866  16%  10.167 Glu+Gln                                             
   10.124  12%   8.000 Cr+PCr                                              
   10.979  12%   8.676 NAA+NAAG                                            
   10.124  12%   8.000 Cr+PCr                                              
   12.866  16%  10.167 Glu+Gln                                             
   6 lines in following misc. output table
  FWHM = 0.024 ppm    S/N =   2                                            
  Data shift = 0.016 ppm                                                   
  Ph:-134 deg       0.0 deg/ppm                                            
  alphaB,S = 1.2E-01,   7.7E-01                                            
   19 spline knots.   Ns = 5(1)                                            
  ( 3) 2 infls.   ( 1) 1 extrs.                                            
  480 points on ppm-axis = NY
      4.100000     4.091866     4.083733     4.075600     4.067466     4.059333     4.051199     4.043066     4.034933     4.026799
      4.018666     4.010532     4.002399     3.994265     3.986132     3.977998     3.969864     3.961731     3.953597     3.945463
      3.937330     3.929196     3.921062     3.912929     3.904795     3.896662     3.888528     3.880394     3.872261     3.864127
      3.855993     3.847860     3.839726     3.831592     3.823459     3.815325     3.807191     3.799058     3.790924     3.782790
      3.774657     3.766523     3.758389     3.750256     3.742122     3.733989     3.725855     3.717721     3.709588     3.701454
      3.693320     3.685187     3.677053     3.668919     3.660786     3.652652     3.644518     3.636385     3.628251     3.620117
      3.611984     3.603850     3.595716     3.587583     3.579449     3.571316     3.563182     3.555048     3.546915     3.538781
      3.530647     3.522514     3.514380     3.506246     3.498113     3.489979     3.481845     3.473712     3.465578     3.457444
      3.449311     3.441177     3.433043     3.424910     3.416776     3.408643     3.400509     3.392375     3.384242     3.376108
      3.367974     3.359841     3.351707     3.343573     3.335440     3.327306     3.319172     3.311039     3.302905     3.294771
      3.286638     3.278504     3.270370     3.262237     3.254103     3.245970     3.237836     3.229702     3.221569     3.213435
      3.205301     3.197168     3.189034     3.180900     3.172767     3.164633     3.156499     3.148366     3.140232     3.132098
      3.123965     3.115831     3.107697     3.099564     3.091430     3.083297     3.075163     3.067029     3.058896     3.050762
      3.042628     3.034495     3.026361     3.018227     3.010094     3.001960     2.993826     2.985693     2.977559     2.969425
      2.961292     2.953158     2.945024     2.936891     2.928757     2.920624     2.912490     2.904356     2.896223     2.888089
      2.879955     2.871822     2.863688     2.855554     2.847421     2.839287     2.831153     2.823020     2.814886     2.806752
      2.798619     2.790485     2.782351     2.774218     2.766084     2.757951     2.749817     2.741683     2.733550     2.725416
      2.717282     2.709149     2.701015     2.692881     2.684748     2.676614     2.668480     2.660347     2.652213     2.644079
      2.635946     2.627812     2.619678     2.611545     2.603411     2.595278     2.587144     2.579010     2.570877     2.562743
      2.554609     2.546476     2.538342     2.530208     2.522075     2.513941     2.505807     2.497674     2.489540     2.481406
      2.473273     2.465139     2.457006     2.448872     2.440738     2.432605     2.424471     2.416337     2.408204     2.400070
      2.391936     2.383803     2.375669     2.367535     2.359402     2.351268     2.343134     2.335001     2.326867     2.318733
      2.310600     2.302466     2.294333     2.286199     2.278065     2.269932     2.261798     2.253664     2.245531     2.237397
      2.229263     2.221130     2.212996     2.204862     2.196729     2.188595     2.180461     2.172328     2.164194     2.156060
      2.147927     2.139793     2.131660     2.123526     2.115392     2.107259     2.099125     2.090991     2.082858     2.074724
      2.066590     2.058457     2.050323     2.042189     2.034056     2.025922     2.017788     2.009655     2.001521     1.993387
      1.985254     1.977120     1.968987     1.960853     1.952719     1.944586     1.936452     1.928318     1.920185     1.912051
      1.903917     1.895784     1.887650     1.879516     1.871383     1.863249     1.855115     1.846982     1.838848     1.830714
      1.822581     1.814447     1.806314     1.798180     1.790046     1.781913     1.773779     1.765645     1.757512     1.749378
      1.741244     1.733111     1.724977     1.716843     1.708710     1.700576     1.692442     1.684309     1.676175     1.668041
      1.659908     1.651774     1.643641     1.635507     1.627373     1.619240     1.611106     1.602972     1.594839     1.586705
      1.578571     1.570438     1.562304     1.554170     1.546037     1.537903     1.529769     1.521636     1.513502     1.505368
      1.497235     1.489101     1.480968     1.472834     1.464700     1.456567     1.448433     1.440299     1.432166     1.424032
      1.415898     1.407765     1.399631     1.391497     1.383364     1.375230     1.367096     1.358963     1.350829     1.342695
      1.334562     1.326428     1.318295     1.310161     1.302027     1.293894     1.285760     1.277626     1.269493     1.261359
      1.253225     1.245092     1.236958     1.228824     1.220691     1.212557     1.204423     1.196290     1.188156     1.180022
      1.171889     1.163755     1.155622     1.147488     1.139354     1.131221     1.123087     1.114953     1.106820     1.098686
      1.090552     1.082419     1.074285     1.066151     1.058018     1.049884     1.041750     1.033617     1.025483     1.017349
      1.009216     1.001082     0.992949     0.984815     0.976681     0.968548     0.960414     0.952280     0.944147     0.936013
      0.927879     0.919746     0.911612     0.903478     0.895345     0.887211     0.879077     0.870944     0.862810     0.854676
      0.846543     0.838409     0.830276     0.822142     0.814008     0.805875     0.797741     0.789607     0.781474     0.773340
      0.765206     0.757073     0.748939     0.740805     0.732672     0.724538     0.716404     0.708271     0.700137     0.692003
      0.683870     0.675736     0.667603     0.659469     0.651335     0.643202     0.635068     0.626934     0.618801     0.610667
      0.602533     0.594400     0.586266     0.578132     0.569999     0.561865     0.553731     0.545598     0.537464     0.529330
      0.521197     0.513063     0.504930     0.496796     0.488662     0.480529     0.472395     0.464261     0.456128     0.447994
      0.439861     0.431727     0.423593     0.415460     0.407326     0.399192     0.391059     0.382925     0.374792     0.366658
      0.358524     0.350391     0.342257     0.334124     0.325990     0.317856     0.309723     0.301589     0.293455     0.285322
      0.277188     0.269055     0.260921     0.252787     0.244654     0.236520     0.228386     0.220253     0.212119     0.203986
 NY phased data points follow
  -4.15532E+01 -4.75039E+01 -5.58651E+01 -4.38857E+01 -5.49145E+01 -4.88318E+01 -5.49970E+01 -5.95641E+01 -4.30812E+01 -4.94827E+01
  -4.96983E+01 -6.01222E+01 -6.89677E+01 -6.10950E+01 -6.89977E+01 -6.59895E+01 -8.36909E+01 -8.21945E+01 -6.88670E+01 -9.58465E+01
  -9.52041E+01 -1.02339E+02 -9.16304E+01 -5.93365E+01 -5.75216E+01 -3.46102E+01  7.95969E+00  3.58061E+00 -1.33275E+01  4.64384E+00
  -1.44151E+00 -1.47890E+00 -1.01147E+00 -5.35186E+00 -5.16753E+00 -1.73610E+01 -5.38426E+00 -1.28481E+01 -2.28125E+01 -2.84957E+01
  -4.50822E+01 -5.47998E+01 -7.22964E+01 -5.83021E+01 -4.13870E+01 -3.81648E+01 -8.01314E+00  6.56476E+00  1.68666E+01  2.77127E+01
   1.92514E+01  1.81521E+01  1.42561E+01  2.06963E+01  1.22156E+01 -9.28632E+00 -1.60561E+01 -2.62707E+01 -3.95621E+01 -3.77253E+01
  -2.45852E+01 -2.21939E+01 -1.03588E+01 -1.96623E+01 -6.25322E-01  2.38330E+01  1.89195E+01  2.33389E+01 -1.10067E+00 -9.18685E+00
  -4.61803E+01 -5.04591E+01 -3.05455E+01 -4.11224E+01 -1.55498E+01 -9.83173E+00  1.58477E+01  2.84423E+01  2.13014E+01  2.26806E+01
   2.30682E+01  2.04028E+01  1.00594E+01  1.68850E+01 -6.43481E+00 -2.24143E+01 -2.97297E+01 -1.81896E+01  1.26327E+01  1.96674E+01
   2.31826E+01  3.23439E+01  4.92282E+01  4.91153E+01  4.99050E+01  4.71941E+01  5.12896E+01  6.00902E+01  5.31265E+01  4.83382E+01
   5.98720E+01  5.84250E+01  2.88148E+01  3.28457E+01  2.00280E+01 -9.02689E+00 -1.88698E+01 -3.67247E+01 -4.81465E+01 -4.91812E+01
  -7.58631E+01 -1.33717E+02 -1.46605E+02 -1.39106E+02 -1.19328E+02 -8.16366E+01 -6.36765E+01 -5.05510E+01 -4.61740E+01 -3.15890E+01
  -2.01102E+01 -1.81854E+01 -2.63084E+00  1.54492E-01 -4.26309E+00  1.10736E+01  2.08051E+01  2.48690E+01  4.04455E+01  5.65111E+01
   8.30452E+01  1.08614E+02  8.99677E+01  2.51322E+01 -4.87384E+01 -9.11989E+01 -9.02548E+01 -9.75355E+01 -1.07749E+02 -9.89258E+01
  -8.80944E+01 -8.11803E+01 -8.29345E+01 -8.36290E+01 -8.72577E+01 -7.91212E+01 -8.49388E+01 -8.32999E+01 -6.59767E+01 -6.76008E+01
  -5.95824E+01 -6.05556E+01 -6.72684E+01 -6.82710E+01 -5.48071E+01 -5.29962E+01 -4.97280E+01 -3.90992E+01 -5.22976E+01 -4.88224E+01
  -4.35377E+01 -3.56332E+01 -3.66415E+01 -3.56573E+01 -3.16516E+01 -4.32301E+01 -4.26067E+01 -3.61939E+01 -3.02796E+01 -2.85253E+01
  -1.87724E+01 -1.46201E+01 -5.48263E+00 -1.07608E-01  2.77270E+00 -1.03888E+01 -2.00597E+01  6.45437E+00 -3.65028E+00 -9.52961E+00
  -2.82782E+01 -3.85421E+01 -4.07042E+01 -7.18107E+01 -6.97462E+01 -6.69294E+01 -5.06151E+01 -6.11324E+01 -5.23869E+01 -3.22421E+01
  -5.56160E+01 -3.94110E+01 -3.67356E+01 -3.53392E+01 -2.38043E+01 -2.26454E+01 -2.90434E+01 -3.12399E+01 -1.91381E+01 -2.29021E+01
  -1.44234E+01 -2.83083E+01 -3.86626E+01 -2.26035E+01 -2.58573E+01 -3.23515E+01 -4.14166E+01 -4.09063E+01 -5.30894E+01 -7.51450E+01
  -8.76525E+01 -9.29425E+01 -7.27391E+01 -6.09648E+01 -5.03857E+01 -3.73179E+01 -1.96320E+01  1.48961E+01  7.41503E+00  1.28524E+01
   3.19941E+01 -1.51457E+00 -1.51702E+01 -5.48008E+00 -5.04948E+00 -1.07094E+01 -2.41352E+00  4.14662E+00 -1.61819E+01 -3.50744E+00
   5.70538E+00 -6.35767E+00 -2.36311E+00 -1.13056E+01 -1.75317E+01 -2.45706E+01 -4.38833E+01 -5.99887E+01 -6.79219E+01 -6.24688E+01
  -6.73919E+01 -7.07543E+01 -5.49691E+01 -5.30885E+01 -5.19529E+01 -4.73446E+01 -4.90017E+01 -4.16945E+01 -4.36049E+01 -4.51403E+01
  -4.98452E+01 -6.56724E+01 -6.43436E+01 -6.25956E+01 -7.36779E+01 -7.52901E+01 -9.30747E+01 -1.08732E+02 -1.62054E+01  1.08355E+02
   1.31509E+02  1.16157E+02  1.35510E+02  1.31017E+02  1.07781E+02  1.02227E+02  6.34056E+01  6.12634E+01  6.80559E+01  5.24316E+01
   6.67812E+01  5.94244E+01  5.94527E+01  5.98318E+01  6.05385E+01  5.22803E+01  5.39875E+01  6.33801E+01  4.14564E+01  4.92671E+01
   3.64995E+01  4.83604E+01  5.84148E+01  3.61647E+01  4.32900E+01  2.11363E+01  1.61580E+01  1.07466E+01  1.06700E+01  1.16079E+01
  -2.16012E+00 -4.38919E-01 -1.70136E+01 -1.29265E+01 -2.53726E+01 -3.90949E+01 -3.70661E+01 -3.89405E+01 -3.96069E+01 -6.49167E+01
  -5.27417E+01 -4.91353E+01 -5.29233E+01 -2.82089E+01 -4.00389E+01 -4.17392E+01 -2.93567E+01 -3.25100E+01 -3.30176E+01 -3.19399E+01
  -1.19821E+01  8.96851E-01  1.96294E+00  2.28577E+01  3.25850E+01  4.02146E+01  4.25801E+01  4.00933E+01  4.65415E+01  4.64746E+01
   5.93245E+01  6.47013E+01  8.80827E+01  1.11309E+02  1.21055E+02  1.52125E+02  1.65076E+02  1.81133E+02  1.83495E+02  1.74926E+02
   1.73388E+02  1.70062E+02  1.46046E+02  9.63651E+01  9.19350E+01  8.29802E+01  5.57105E+01  5.13440E+01  5.94436E+01  5.43473E+01
   3.44886E+01  4.46470E+01  3.80448E+01  2.04389E+01  2.05202E+01  1.99074E+01  2.08336E+01  1.91695E+01  2.35445E+01  2.02992E+01
   2.28139E+01  2.92910E+01  2.34453E+01  1.72967E+01  8.74522E+00  6.30853E+00  5.81891E+00  1.24151E+01  4.78041E+00 -1.52145E+01
  -9.02941E+00 -2.59780E+00  1.13150E+01  9.90714E+00 -4.15689E+00  1.17283E+00  3.77244E+00  1.80400E+01  2.49239E+01  4.09325E+01
   4.84320E+01  3.86989E+01  4.22040E+01  3.61464E+01  4.61298E+01  4.93093E+01  5.06848E+01  5.62617E+01  4.78707E+01  4.50479E+01
   4.25695E+01  5.58945E+01  6.89065E+01  6.04360E+01  6.25497E+01  8.08035E+01  8.87727E+01  9.51426E+01  1.00279E+02  1.02262E+02
   9.64498E+01  9.82072E+01  8.81532E+01  4.85816E+01  4.13561E+01  4.41999E+01  3.86702E+01  1.68213E+01  1.34929E+01  2.16744E+01
   4.26199E+00 -2.47064E+00 -3.08404E+01 -3.69686E+01 -3.00662E+01 -3.52024E+01 -3.73142E+01 -4.90037E+01 -4.48252E+01 -4.59248E+01
  -3.93340E+01 -3.89776E+01 -5.77878E+01 -5.55100E+01 -4.14444E+01 -4.22352E+01 -3.79747E+01 -2.70465E+01 -4.18223E+01 -4.37809E+01
  -1.75550E+01 -2.74602E+01 -3.89788E+01 -2.66801E+01 -2.89575E+01 -1.38310E+01 -3.14338E+01 -3.72713E+01 -1.95165E+01 -3.93430E+01
  -3.48066E+01 -3.85570E+01 -3.43925E+01 -3.51916E+01 -3.95181E+01 -3.13510E+01 -4.05662E+01 -3.09826E+01 -3.18277E+01 -3.64338E+01
  -3.75789E+01 -4.11591E+01 -3.35839E+01 -2.65051E+01 -3.95740E+01 -3.02765E+01 -1.50168E+01 -3.59890E+01 -3.11010E+01 -3.57293E+01
  -3.85212E+01 -2.98593E+01 -3.82457E+01 -3.05937E+01 -2.05123E+01 -2.75817E+01 -3.83543E+01 -2.83898E+01 -2.11955E+01 -3.01444E+01
  -4.08494E+01 -2.70591E+01 -2.73914E+01 -4.11243E+01 -2.70152E+01 -2.91451E+01 -3.09938E+01 -3.11154E+01 -2.52028E+01 -2.48763E+01
  -3.49895E+01 -2.38394E+01 -1.85721E+01 -1.81043E+01 -2.49794E+01 -2.17267E+01 -2.38597E+01 -2.26786E+01 -1.55821E+01 -2.92761E+01
 NY points of the fit to the data follow
  -6.41568E+01 -6.14080E+01 -5.83903E+01 -5.90811E+01 -6.34379E+01 -6.43174E+01 -5.73401E+01 -4.33937E+01 -3.67526E+01 -4.11857E+01
  -4.82519E+01 -5.46646E+01 -6.07097E+01 -6.58445E+01 -6.87241E+01 -7.05257E+01 -7.20076E+01 -7.24199E+01 -7.48258E+01 -8.25673E+01
  -9.01086E+01 -9.68981E+01 -8.54071E+01 -6.20525E+01 -5.21043E+01 -2.52783E+01  2.04727E+00  4.91187E+00  5.68936E+00  7.52611E+00
   7.91188E+00  7.04598E+00  5.37293E+00  3.57840E+00  1.63609E+00 -1.21364E+00 -5.14135E+00 -9.61356E+00 -1.44073E+01 -2.12964E+01
  -3.11147E+01 -4.36806E+01 -5.29854E+01 -5.15986E+01 -4.42250E+01 -3.18281E+01 -1.58649E+01 -1.35851E+00  8.17006E+00  1.24180E+01
   1.43173E+01  1.36753E+01  1.14159E+01  8.49909E+00  3.29973E+00 -6.80554E+00 -1.78410E+01 -2.71599E+01 -3.16822E+01 -3.28198E+01
  -3.94854E+01 -3.33702E+01 -1.97157E+01 -1.98565E+01 -1.07213E+01  4.77931E+00  9.54399E+00  1.05405E+01  5.27084E+00 -9.23885E+00
  -2.97315E+01 -3.94711E+01 -3.02337E+01 -2.39223E+01 -2.02642E+01 -5.33016E+00  9.81640E+00  1.75225E+01  2.21120E+01  2.47380E+01
   2.37453E+01  1.96363E+01  6.92102E+00 -6.26862E+00 -2.30333E+01 -3.33286E+01 -3.07841E+01 -2.42904E+01 -9.95767E+00  2.97429E+00
   1.17865E+01  1.91063E+01  2.53398E+01  3.07780E+01  3.57510E+01  4.03863E+01  4.50395E+01  4.98830E+01  5.30799E+01  5.43913E+01
   5.30867E+01  5.23529E+01  5.25255E+01  4.31255E+01  2.35572E+01  1.16171E+01 -1.00181E+01 -2.50641E+01 -2.50413E+01 -3.95009E+01
  -7.22217E+01 -1.25593E+02 -1.41679E+02 -1.16418E+02 -9.79096E+01 -8.29360E+01 -6.88222E+01 -5.75945E+01 -4.81680E+01 -3.97990E+01
  -3.21063E+01 -2.47982E+01 -1.72589E+01 -9.16797E+00 -1.57689E-01  1.04754E+01  2.34749E+01  3.85834E+01  5.18426E+01  6.36942E+01
   8.25007E+01  9.90670E+01  9.66282E+01  3.44489E+01 -5.98121E+01 -9.75997E+01 -9.63278E+01 -9.61590E+01 -9.27633E+01 -8.77028E+01
  -8.41571E+01 -8.17223E+01 -7.98319E+01 -7.83012E+01 -7.68859E+01 -7.54145E+01 -7.41046E+01 -7.20041E+01 -6.94173E+01 -6.67565E+01
  -6.40635E+01 -6.15624E+01 -5.91305E+01 -5.71319E+01 -5.52199E+01 -5.28896E+01 -5.02822E+01 -4.83728E+01 -4.76751E+01 -4.72554E+01
  -4.59580E+01 -4.38719E+01 -4.20893E+01 -4.22119E+01 -4.40546E+01 -4.50596E+01 -4.44359E+01 -4.29306E+01 -4.12189E+01 -4.02170E+01
  -3.81806E+01 -3.22071E+01 -2.18051E+01 -1.31790E+01 -1.37581E+01 -1.91652E+01 -1.82488E+01 -9.80430E+00 -6.11462E+00 -1.32494E+01
  -2.58632E+01 -3.49274E+01 -3.93492E+01 -4.33782E+01 -4.63782E+01 -4.80408E+01 -4.89803E+01 -4.92307E+01 -4.90522E+01 -4.85398E+01
  -4.73223E+01 -4.63910E+01 -4.53612E+01 -4.23156E+01 -3.80502E+01 -2.94224E+01 -2.54904E+01 -2.85567E+01 -2.29126E+01 -1.85827E+01
  -1.96972E+01 -2.14557E+01 -2.46858E+01 -2.28673E+01 -2.43987E+01 -3.20456E+01 -3.88852E+01 -4.46372E+01 -5.00588E+01 -5.50964E+01
  -5.91203E+01 -6.18500E+01 -6.15120E+01 -5.86988E+01 -4.76642E+01 -2.98014E+01 -1.08834E+01  1.70081E+01  2.95715E+01  3.31599E+01
   3.51401E+01  2.27463E+01  1.41006E+01  1.00513E+01  7.64690E+00  6.43873E+00  4.16821E+00  1.24425E+00 -3.36942E+00 -9.75218E+00
  -1.68231E+01 -2.45226E+01 -3.25722E+01 -4.04947E+01 -4.78789E+01 -5.50747E+01 -6.17492E+01 -6.68981E+01 -7.03982E+01 -7.17786E+01
  -7.02875E+01 -6.77755E+01 -6.59923E+01 -6.17075E+01 -5.87648E+01 -5.54521E+01 -5.14863E+01 -5.01355E+01 -4.97684E+01 -5.17545E+01
  -5.67821E+01 -6.00808E+01 -6.67035E+01 -6.95797E+01 -6.91959E+01 -8.60698E+01 -1.02322E+02 -1.09882E+02 -3.29205E+01  6.92141E+01
   9.04478E+01  9.00067E+01  8.89501E+01  8.23086E+01  7.52466E+01  6.98820E+01  6.55326E+01  6.16493E+01  5.80602E+01  5.51436E+01
   5.27231E+01  5.12381E+01  5.03414E+01  4.99321E+01  4.99700E+01  4.96784E+01  4.95264E+01  4.87675E+01  4.77891E+01  4.69769E+01
   4.59599E+01  4.47031E+01  4.32183E+01  4.17221E+01  4.03656E+01  3.91158E+01  3.75693E+01  3.59356E+01  3.44287E+01  3.26859E+01
   3.07051E+01  2.85279E+01  2.60850E+01  2.38475E+01  2.16647E+01  1.97973E+01  1.88724E+01  1.89694E+01  2.00565E+01  2.19046E+01
   2.41482E+01  2.64578E+01  2.90015E+01  3.17792E+01  3.44925E+01  3.70730E+01  3.95276E+01  4.18865E+01  4.42597E+01  4.68287E+01
   4.96577E+01  5.22331E+01  5.45174E+01  5.66091E+01  5.85423E+01  6.04636E+01  6.20016E+01  6.29945E+01  6.37862E+01  6.41009E+01
   6.36969E+01  6.29794E+01  6.21618E+01  6.07712E+01  5.88601E+01  5.68905E+01  5.44120E+01  5.13385E+01  4.73357E+01  4.24201E+01
   3.76926E+01  3.38992E+01  3.13955E+01  3.05050E+01  3.20652E+01  3.61068E+01  4.16586E+01  4.83101E+01  5.66642E+01  6.34272E+01
   6.31544E+01  4.79594E+01  1.46370E+01 -9.74161E+00 -3.05406E+01 -3.82978E+01 -2.26709E+01 -1.12297E+01 -3.65349E+00  2.97004E+00
   7.41551E+00  1.00168E+01  1.10355E+01  1.09082E+01  9.81994E+00  7.93241E+00  5.93450E+00  4.85182E+00  4.65936E+00  5.10929E+00
   6.51856E+00  8.45512E+00  1.07789E+01  1.34840E+01  1.61618E+01  1.89760E+01  2.16121E+01  2.39126E+01  2.61737E+01  2.82387E+01
   3.03979E+01  3.26747E+01  3.47985E+01  3.69683E+01  3.92431E+01  4.17989E+01  4.47480E+01  4.81649E+01  5.16522E+01  5.54976E+01
   6.01562E+01  6.48970E+01  6.95579E+01  7.45059E+01  7.96144E+01  8.40741E+01  8.74056E+01  8.91829E+01  8.84194E+01  8.48553E+01
   7.84828E+01  7.04102E+01  6.22132E+01  5.47115E+01  4.79832E+01  4.18707E+01  3.63054E+01  3.04844E+01  2.38425E+01  1.67165E+01
   9.76822E+00  2.96765E+00 -2.93110E+00 -7.58354E+00 -1.12773E+01 -1.43062E+01 -1.66621E+01 -1.83153E+01 -1.96937E+01 -2.09518E+01
  -2.21871E+01 -2.33212E+01 -2.42209E+01 -2.48241E+01 -2.52511E+01 -2.57471E+01 -2.62388E+01 -2.65058E+01 -2.67656E+01 -2.72655E+01
  -2.77875E+01 -2.78583E+01 -2.78300E+01 -2.82377E+01 -2.86470E+01 -2.87907E+01 -2.89093E+01 -2.92164E+01 -2.95762E+01 -2.97315E+01
  -2.96607E+01 -2.96648E+01 -2.98611E+01 -3.00926E+01 -3.04232E+01 -3.06343E+01 -3.08118E+01 -3.08155E+01 -3.07651E+01 -3.07625E+01
  -3.07316E+01 -3.08365E+01 -3.09299E+01 -3.10019E+01 -3.10817E+01 -3.13758E+01 -3.16238E+01 -3.17127E+01 -3.17706E+01 -3.16993E+01
  -3.17149E+01 -3.17441E+01 -3.17805E+01 -3.19636E+01 -3.19527E+01 -3.18205E+01 -3.17556E+01 -3.16921E+01 -3.16331E+01 -3.16676E+01
  -3.16521E+01 -3.16163E+01 -3.16119E+01 -3.16855E+01 -3.18710E+01 -3.19125E+01 -3.18687E+01 -3.18673E+01 -3.16706E+01 -3.13748E+01
  -3.10979E+01 -3.10703E+01 -3.12430E+01 -3.14376E+01 -3.15418E+01 -3.14448E+01 -3.13696E+01 -3.13081E+01 -3.11094E+01 -3.09208E+01
 NY background values follow
    -3.854E+01   -3.825E+01   -3.796E+01   -3.767E+01   -3.738E+01   -3.709E+01   -3.680E+01   -3.651E+01   -3.621E+01   -3.592E+01
    -3.563E+01   -3.533E+01   -3.504E+01   -3.474E+01   -3.444E+01   -3.414E+01   -3.385E+01   -3.354E+01   -3.324E+01   -3.294E+01
    -3.264E+01   -3.233E+01   -3.202E+01   -3.171E+01   -3.140E+01   -3.109E+01   -3.078E+01   -3.046E+01   -3.014E+01   -2.983E+01
    -2.950E+01   -2.918E+01   -2.886E+01   -2.853E+01   -2.820E+01   -2.787E+01   -2.754E+01   -2.721E+01   -2.688E+01   -2.655E+01
    -2.622E+01   -2.589E+01   -2.556E+01   -2.523E+01   -2.490E+01   -2.457E+01   -2.425E+01   -2.392E+01   -2.360E+01   -2.328E+01
    -2.296E+01   -2.264E+01   -2.233E+01   -2.201E+01   -2.171E+01   -2.140E+01   -2.110E+01   -2.080E+01   -2.050E+01   -2.021E+01
    -1.993E+01   -1.964E+01   -1.937E+01   -1.909E+01   -1.883E+01   -1.856E+01   -1.830E+01   -1.805E+01   -1.780E+01   -1.756E+01
    -1.732E+01   -1.708E+01   -1.685E+01   -1.663E+01   -1.641E+01   -1.619E+01   -1.599E+01   -1.578E+01   -1.558E+01   -1.539E+01
    -1.521E+01   -1.502E+01   -1.485E+01   -1.468E+01   -1.451E+01   -1.435E+01   -1.420E+01   -1.405E+01   -1.391E+01   -1.378E+01
    -1.365E+01   -1.353E+01   -1.341E+01   -1.330E+01   -1.319E+01   -1.309E+01   -1.300E+01   -1.291E+01   -1.282E+01   -1.274E+01
    -1.266E+01   -1.259E+01   -1.252E+01   -1.246E+01   -1.240E+01   -1.234E+01   -1.229E+01   -1.224E+01   -1.219E+01   -1.215E+01
    -1.211E+01   -1.207E+01   -1.203E+01   -1.200E+01   -1.197E+01   -1.194E+01   -1.191E+01   -1.188E+01   -1.186E+01   -1.183E+01
    -1.181E+01   -1.179E+01   -1.177E+01   -1.175E+01   -1.173E+01   -1.171E+01   -1.169E+01   -1.167E+01   -1.166E+01   -1.164E+01
    -1.163E+01   -1.162E+01   -1.161E+01   -1.159E+01   -1.159E+01   -1.158E+01   -1.157E+01   -1.156E+01   -1.156E+01   -1.156E+01
    -1.155E+01   -1.155E+01   -1.155E+01   -1.155E+01   -1.155E+01   -1.156E+01   -1.156E+01   -1.157E+01   -1.158E+01   -1.159E+01
    -1.160E+01   -1.161E+01   -1.162E+01   -1.163E+01   -1.165E+01   -1.167E+01   -1.169E+01   -1.170E+01   -1.173E+01   -1.175E+01
    -1.177E+01   -1.180E+01   -1.182E+01   -1.185E+01   -1.188E+01   -1.191E+01   -1.194E+01   -1.197E+01   -1.201E+01   -1.204E+01
    -1.208E+01   -1.212E+01   -1.216E+01   -1.220E+01   -1.224E+01   -1.228E+01   -1.233E+01   -1.237E+01   -1.242E+01   -1.247E+01
    -1.252E+01   -1.257E+01   -1.262E+01   -1.268E+01   -1.273E+01   -1.278E+01   -1.284E+01   -1.289E+01   -1.295E+01   -1.300E+01
    -1.305E+01   -1.311E+01   -1.316E+01   -1.321E+01   -1.326E+01   -1.331E+01   -1.335E+01   -1.340E+01   -1.344E+01   -1.348E+01
    -1.352E+01   -1.355E+01   -1.359E+01   -1.362E+01   -1.364E+01   -1.367E+01   -1.369E+01   -1.371E+01   -1.372E+01   -1.373E+01
    -1.373E+01   -1.373E+01   -1.373E+01   -1.372E+01   -1.371E+01   -1.369E+01   -1.368E+01   -1.366E+01   -1.363E+01   -1.361E+01
    -1.358E+01   -1.355E+01   -1.352E+01   -1.349E+01   -1.346E+01   -1.342E+01   -1.339E+01   -1.335E+01   -1.332E+01   -1.328E+01
    -1.325E+01   -1.321E+01   -1.318E+01   -1.315E+01   -1.312E+01   -1.309E+01   -1.306E+01   -1.303E+01   -1.301E+01   -1.299E+01
    -1.297E+01   -1.295E+01   -1.294E+01   -1.293E+01   -1.292E+01   -1.291E+01   -1.290E+01   -1.290E+01   -1.290E+01   -1.289E+01
    -1.289E+01   -1.289E+01   -1.289E+01   -1.289E+01   -1.289E+01   -1.289E+01   -1.289E+01   -1.289E+01   -1.289E+01   -1.288E+01
    -1.288E+01   -1.287E+01   -1.286E+01   -1.285E+01   -1.284E+01   -1.283E+01   -1.281E+01   -1.279E+01   -1.277E+01   -1.274E+01
    -1.271E+01   -1.268E+01   -1.264E+01   -1.260E+01   -1.255E+01   -1.249E+01   -1.243E+01   -1.236E+01   -1.228E+01   -1.218E+01
    -1.208E+01   -1.196E+01   -1.184E+01   -1.170E+01   -1.154E+01   -1.137E+01   -1.118E+01   -1.098E+01   -1.076E+01   -1.052E+01
    -1.027E+01   -9.988E+00   -9.691E+00   -9.372E+00   -9.031E+00   -8.668E+00   -8.280E+00   -7.868E+00   -7.431E+00   -6.968E+00
    -6.478E+00   -5.963E+00   -5.423E+00   -4.860E+00   -4.277E+00   -3.676E+00   -3.058E+00   -2.424E+00   -1.778E+00   -1.120E+00
    -4.527E-01    2.223E-01    9.031E-01    1.588E+00    2.275E+00    2.962E+00    3.648E+00    4.331E+00    5.008E+00    5.679E+00
     6.340E+00    6.991E+00    7.630E+00    8.254E+00    8.862E+00    9.452E+00    1.002E+01    1.057E+01    1.110E+01    1.160E+01
     1.207E+01    1.251E+01    1.293E+01    1.332E+01    1.369E+01    1.403E+01    1.434E+01    1.462E+01    1.488E+01    1.511E+01
     1.532E+01    1.551E+01    1.566E+01    1.580E+01    1.591E+01    1.599E+01    1.605E+01    1.609E+01    1.610E+01    1.609E+01
     1.606E+01    1.601E+01    1.593E+01    1.583E+01    1.571E+01    1.556E+01    1.540E+01    1.521E+01    1.500E+01    1.478E+01
     1.453E+01    1.426E+01    1.397E+01    1.366E+01    1.334E+01    1.299E+01    1.263E+01    1.226E+01    1.187E+01    1.146E+01
     1.104E+01    1.060E+01    1.016E+01    9.697E+00    9.226E+00    8.743E+00    8.250E+00    7.748E+00    7.236E+00    6.716E+00
     6.187E+00    5.652E+00    5.110E+00    4.562E+00    4.009E+00    3.451E+00    2.889E+00    2.324E+00    1.756E+00    1.186E+00
     6.149E-01    4.245E-02   -5.306E-01   -1.104E+00   -1.677E+00   -2.250E+00   -2.822E+00   -3.393E+00   -3.962E+00   -4.529E+00
    -5.094E+00   -5.656E+00   -6.216E+00   -6.772E+00   -7.324E+00   -7.872E+00   -8.415E+00   -8.954E+00   -9.487E+00   -1.002E+01
    -1.054E+01   -1.105E+01   -1.156E+01   -1.206E+01   -1.256E+01   -1.304E+01   -1.352E+01   -1.399E+01   -1.445E+01   -1.490E+01
    -1.535E+01   -1.578E+01   -1.620E+01   -1.662E+01   -1.702E+01   -1.742E+01   -1.780E+01   -1.818E+01   -1.855E+01   -1.892E+01
    -1.927E+01   -1.962E+01   -1.996E+01   -2.029E+01   -2.062E+01   -2.094E+01   -2.125E+01   -2.155E+01   -2.185E+01   -2.214E+01
    -2.243E+01   -2.271E+01   -2.299E+01   -2.326E+01   -2.352E+01   -2.378E+01   -2.403E+01   -2.428E+01   -2.453E+01   -2.477E+01
    -2.500E+01   -2.524E+01   -2.546E+01   -2.569E+01   -2.591E+01   -2.613E+01   -2.634E+01   -2.655E+01   -2.676E+01   -2.697E+01
    -2.717E+01   -2.737E+01   -2.757E+01   -2.777E+01   -2.796E+01   -2.815E+01   -2.835E+01   -2.853E+01   -2.872E+01   -2.891E+01
    -2.910E+01   -2.928E+01   -2.947E+01   -2.965E+01   -2.983E+01   -3.002E+01   -3.020E+01   -3.038E+01   -3.057E+01   -3.075E+01
 Mac      Conc. = 2.16E-04
  -5.31491E+01 -5.34736E+01 -5.36460E+01 -5.36088E+01 -5.35877E+01 -5.36891E+01 -5.40376E+01 -5.46170E+01 -5.54798E+01 -5.64634E+01
  -5.72644E+01 -5.78072E+01 -5.79154E+01 -5.78569E+01 -5.76998E+01 -5.75968E+01 -5.81212E+01 -5.87614E+01 -5.84644E+01 -5.61913E+01
  -5.24412E+01 -4.93228E+01 -4.67122E+01 -4.37415E+01 -4.15294E+01 -4.01317E+01 -3.89213E+01 -3.75149E+01 -3.59772E+01 -3.43880E+01
  -3.26192E+01 -3.10960E+01 -2.99362E+01 -2.89794E+01 -2.80318E+01 -2.74603E+01 -2.72521E+01 -2.68626E+01 -2.58070E+01 -2.39021E+01
  -2.19223E+01 -2.07147E+01 -2.04062E+01 -2.01273E+01 -1.92934E+01 -1.82163E+01 -1.70223E+01 -1.63157E+01 -1.61412E+01 -1.62663E+01
  -1.66963E+01 -1.73329E+01 -1.80232E+01 -1.82861E+01 -1.84407E+01 -1.85603E+01 -1.83864E+01 -1.79856E+01 -1.71575E+01 -1.58817E+01
  -1.47083E+01 -1.37866E+01 -1.26617E+01 -1.15865E+01 -1.12936E+01 -1.14041E+01 -1.17441E+01 -1.20752E+01 -1.20279E+01 -1.18644E+01
  -1.17259E+01 -1.12400E+01 -9.84964E+00 -7.86394E+00 -6.16466E+00 -5.13901E+00 -4.33782E+00 -4.07812E+00 -4.25072E+00 -4.52580E+00
  -4.95802E+00 -5.13821E+00 -5.21514E+00 -5.26556E+00 -5.05863E+00 -4.40749E+00 -3.68477E+00 -2.95643E+00 -2.30163E+00 -1.65027E+00
  -1.08031E+00 -7.34205E-01 -3.57964E-01 -1.69709E-01 -2.41632E-01 -4.81964E-01 -1.15098E+00 -2.46893E+00 -4.08438E+00 -5.89462E+00
  -7.67649E+00 -9.18496E+00 -1.06653E+01 -1.26320E+01 -1.50895E+01 -1.77528E+01 -2.11397E+01 -2.52394E+01 -2.96643E+01 -3.32780E+01
