 
 $NMID
 ID=''
 FMTDAT='(2E13.5)'
 TRAMP=   1.00000E+0
 VOLUME=   1.00000E+0
 $END
  -8.97057E+3   2.22317E+4
   7.23131E+3   4.22199E+4
   4.90176E+4   6.22296E+3
   1.44286E+4  -4.08649E+4
  -4.18993E+4  -2.16127E+4
  -2.58719E+4   2.78964E+4
   2.39087E+4   3.03342E+4
   3.05722E+4  -7.06027E+3
  -3.49176E+3  -2.72927E+4
  -2.82649E+4  -6.60831E+3
  -1.30245E+4   2.03147E+4
   1.62037E+4   1.49826E+4
   1.46101E+4  -9.78744E+3
  -8.01853E+3  -1.74421E+4
  -1.26092E+4  -2.27857E+3
   1.16198E+2   1.19430E+4
   7.33130E+3   9.12852E+3
   5.56105E+3  -4.99256E+3
  -5.77707E+2  -9.16974E+3
  -5.25196E+3   1.26499E+3
  -3.23420E+3   5.89722E+3
   2.77664E+3   2.49159E+3
   4.71303E+3   1.31416E+2
  -1.53242E+2  -2.13775E+3
  -3.70682E+3  -3.37329E+3
  -1.62263E+3   1.59701E+3
   1.48667E+3   4.94977E+3
   1.12935E+3   5.06279E+2
  -1.22614E+0  -4.34707E+3
  -6.51881E+2  -2.53270E+3
  -1.70760E+3   1.83384E+3
  -9.34478E+2   3.40539E+3
   5.15756E+2  -2.38447E+2
   1.09227E+3  -3.95392E+3
   1.09877E+3  -3.07090E+3
   1.99755E+2   2.26000E+3
  -1.49141E+3   3.63913E+3
  -2.24750E+2   3.81199E+2
   1.75345E+3  -1.99594E+3
  -6.69329E+2  -1.12985E+3
  -2.85253E+3  -2.68594E+2
  -2.14295E+2  -3.00848E+2
   2.99655E+3   7.05389E+2
   1.60691E+3   6.63003E+2
  -9.57931E+2  -8.36447E+2
  -1.12143E+3   2.42685E+2
  -1.22671E+3   2.17440E+3
  -1.36726E+3   5.09015E+2
   1.63311E+2  -2.56090E+3
   9.99073E+2  -2.04220E+3
  -2.67542E+1   1.90386E+2
  -3.62523E+2   7.13564E+2
   7.89322E+2   4.69491E+2
   9.08975E+2   3.83138E+2
  -3.66818E+2   2.90550E+2
  -1.41971E+3  -1.94918E+1
  -9.22176E+2  -3.94734E+2
   6.93434E+2  -2.91039E+2
   1.78287E+3  -2.81114E+2
   4.60957E+2   3.08622E+2
  -7.53367E+2   4.35171E+2
  -1.95095E+2   1.21448E+3
  -1.25482E+2   1.31548E+3
  -1.17396E+3  -2.60649E+2
  -1.53200E+3  -1.82837E+3
  -2.48326E+2  -1.43498E+3
   9.23004E+2  -1.57498E+2
   1.57096E+3   1.08931E+2
   1.08010E+3   3.12493E+2
  -5.00545E+2   2.85103E+2
  -5.44401E+2  -7.92642E+1
   4.73797E+2  -7.11844E+1
   1.36085E+3   9.27758E+2
   1.79196E+2   8.68387E+2
  -4.55375E+2  -2.26029E+2
  -3.54796E+2  -4.68711E+2
   4.54081E+2   2.59404E+2
  -6.65861E+1   7.05883E+2
  -2.68966E+2   4.78015E+1
  -1.43112E+2  -6.38778E+2
  -3.06830E+2  -4.20268E+2
   1.20698E+2  -1.16820E+2
   3.85514E+2  -1.79619E+1
   2.02203E+2   7.27446E+0
   2.38846E+2  -6.02783E+2
   6.16226E+2  -3.31898E+2
   3.79636E+2   3.76988E+1
   7.07569E+1   7.82216E+2
   6.29618E+0   2.15908E+2
   6.11521E+2  -8.51723E+1
   4.05917E+2   4.87696E+2
  -4.04756E+2   7.74109E+2
  -8.66574E+2   4.32092E+2
  -4.99654E+2  -3.46446E+2
   4.32761E+2  -8.97373E+2
   7.22336E+2  -6.76048E+2
   1.99563E+2   1.15393E+2
  -2.11881E+2   1.54622E+2
   3.08105E+2  -4.39926E+1
   1.05369E+3  -5.79203E+1
   3.73368E+2   6.48179E+2
  -7.09448E+2   4.89326E+2
  -2.28016E+2  -2.64655E+2
   3.75049E+1  -7.41664E+2
   5.87084E+2  -2.10118E+2
   5.86663E+2   5.69548E+2
  -4.07794E+2   5.49056E+2
  -1.08355E+3  -1.99628E+2
  -1.23333E+2  -1.21895E+3
   1.09617E+3  -4.99873E+2
   9.81189E+2   2.67423E+2
  -3.41136E+0   4.87578E+2
  -3.05044E+2  -1.37687E+2
   1.78525E+2   2.10332E+2
   9.33225E+1   2.62010E+2
  -4.28935E+2   1.90937E+2
  -6.59357E+2  -2.07700E+2
  -5.97462E+2  -8.49306E+2
   3.31487E+2  -9.94991E+2
   6.79217E+2  -3.12100E+2
   5.28414E+2   5.06016E+2
   3.33588E+2   5.04042E+2
  -1.13679E+2   3.34240E+2
  -3.01991E+1   2.75829E+2
  -3.34726E+2   4.63791E+0
  -2.45324E+2  -2.41641E+2
   2.93832E+1  -3.83317E+2
   2.89210E+2  -3.82829E+1
   5.08706E+2   1.08972E+2
  -2.27087E+2   5.08813E+2
  -2.15088E+2   2.99049E+2
  -5.73278E+2  -5.17723E+2
   1.75354E+1  -3.08823E+2
   2.29069E+0   5.48352E+1
   9.29244E+1  -2.72589E+1
   7.78454E+1  -2.03593E+2
   3.49896E+2   1.37089E+2
   4.68727E+2   2.77583E+2
  -9.12846E+1   4.43909E+2
  -2.46855E+2   1.30997E+2
  -2.23024E+2  -5.73270E+2
   9.82580E+1  -4.86826E+2
   6.97062E+2   1.00282E+2
   3.60118E+2   7.88866E+2
  -2.21525E+2   4.69948E+2
  -3.71595E+2   4.58661E+1
   6.36539E+1  -1.60336E+2
   1.26718E+2  -1.28913E+2
  -1.89496E+2   3.53591E+1
  -1.10093E+2  -1.69831E+2
   3.67412E+2  -2.30473E+2
   5.68365E+2  -2.64138E+2
   3.98008E+2   2.04880E+2
   1.59669E+2   4.39334E+2
  -3.86472E+1   4.62385E+2
   1.29166E+2  -2.17238E+2
   1.86684E+2   1.15661E+2
  -1.45468E+0   1.72356E+2
  -2.25049E+2   4.58218E-2
   7.52967E+1   3.00509E+2
  -1.10591E+2  -1.70313E+2
  -3.27746E+2   2.12352E+2
  -3.36871E+2  -1.28806E+2
  -2.67228E+2  -2.38182E+2
  -1.71739E+2  -2.95659E+2
   4.32536E+2  -3.12618E+0
   1.52733E+2   2.39412E+2
  -3.61577E+1   4.81757E+1
   1.18414E+2  -1.26029E+2
   1.65445E+2  -1.78930E+2
   1.60204E+2   2.08699E+2
  -7.73357E+1   1.89538E+2
  -2.31459E+2  -5.42392E+1
   5.56404E+1  -1.35527E+2
   3.55633E+2  -8.24371E+0
   1.28260E+2   6.60482E+1
   6.44608E+1   1.17032E+2
  -4.91566E+2  -4.74747E-1
  -2.89542E+2  -5.70551E+2
   3.97695E+2  -2.70603E+2
   1.66331E+2   4.70820E+2
  -6.87235E+1   5.41911E+2
  -2.46188E+2   1.45295E+2
  -1.98837E+2   2.33320E+1
  -3.18648E+1  -2.33722E+2
  -1.41709E+2   1.07819E+2
  -3.48062E+2  -2.52789E+2
   2.49319E+2  -3.38907E+1
   5.79491E+2   1.58951E+2
   2.96786E+2   8.63557E+1
  -1.45897E+2   4.90017E+2
  -4.19762E+2   9.53210E+1
  -3.77223E+1  -3.12510E+2
  -9.07630E+1  -2.60573E+2
   1.42958E+1  -3.20595E+2
   1.93280E+2  -2.88740E+1
  -4.36832E+1   1.28197E+2
  -1.13843E+2   6.01032E+1
   4.50214E+1   1.47188E+2
  -6.75334E+1   2.86196E+2
  -4.60691E+2   8.21400E+1
  -2.77834E+1  -4.56838E+2
   1.14971E+2  -4.27558E+2
   3.61049E+2   6.19765E+1
  -6.41122E+0  -6.93797E+0
  -1.21930E+2  -6.51805E+1
  -1.24420E+2  -1.92625E+2
  -2.44710E+2   1.99259E+1
   1.55607E+2  -1.27036E+2
   1.56472E+2  -1.17356E+2
  -5.83126E+1  -3.77206E+2
   3.07369E+2  -1.13958E+2
   1.48476E+2   6.90764E+0
   2.27103E+0   3.50847E+2
  -4.36010E+2   6.47861E+0
  -2.40454E+2  -1.08799E+2
  -1.42153E+2  -1.66056E+2
   5.21483E+1  -1.18272E+2
   1.85394E+2  -2.43851E+2
  -6.89565E+0  -1.94463E+2
  -1.47421E+2   4.52956E+1
   7.19373E+1  -3.84975E+0
  -1.42216E+2   3.82918E+2
  -2.02312E+2   1.74862E+2
  -4.14213E+2  -2.26802E+2
  -6.29063E+1  -4.10441E+2
   8.00409E+1  -1.21996E+2
   8.88654E+1   1.21009E+2
   2.42797E+1   3.12976E+2
  -2.28607E+2  -2.88720E+1
  -1.36045E+2  -5.43603E+1
  -2.52305E+2   3.61376E+1
  -2.66762E+0  -2.28206E+1
  -2.36777E+1  -6.00377E+1
   9.67521E+1   1.06567E+2
  -2.82353E+2   8.47875E+1
  -3.05035E+1   1.31835E+2
  -1.85486E+2  -7.66769E+0
  -2.99777E+2  -2.00367E+2
  -1.95405E+2   9.61587E+1
   1.58163E+2  -3.83751E+1
  -5.94017E+1   3.34584E+2
  -3.17961E+2   2.10067E+2
  -1.47451E+2   5.53089E+1
  -6.93159E+1  -1.31034E+2
   6.22623E+1  -2.80694E+1
  -7.60353E+1   1.18152E+1
  -8.30242E+1  -1.28671E+2
   3.82785E+1   3.15202E+1
   4.66948E+0  -7.12323E+1
   2.24644E+1  -2.08634E+2
  -1.23815E+2   3.27882E+2
  -1.46291E+2   6.15219E+1
   1.24531E+2  -9.68638E+1
   2.55407E+1  -9.45845E+0
   2.95010E+2  -3.04001E+1
  -1.21545E+2   2.52276E+2
  -1.29105E+2   1.20855E+2
  -6.79897E+1   2.24424E+2
  -1.07584E+2  -6.87287E+1
  -1.53744E+2  -1.17071E+2
  -1.84297E+2  -2.12086E+2
  -1.95991E+2  -1.55435E+2
   1.36834E+2  -2.68964E+1
   3.75063E+2   1.45795E+2
   8.37275E+1   1.55121E+2
  -4.94373E+0   3.53680E+2
  -2.80378E+2  -2.61174E+2
   6.86938E+1   3.63307E+0
   7.79573E+1  -1.56659E+2
   1.31956E+2   8.13101E+0
   1.37197E+2   6.98515E+1
   1.40003E+2  -1.40960E+2
  -1.52720E+1  -8.56895E+1
   8.19270E+1   1.14291E+2
  -1.03402E+2   1.76482E+2
  -2.91929E+2  -1.43288E+2
  -2.44057E+2  -1.83390E+2
   1.73967E+2  -1.13047E+2
  -1.12909E+2  -1.28741E+0
  -1.54724E+2   7.99448E+1
   3.80596E+1  -8.60178E-1
   6.48471E+1  -4.37715E+1
  -2.13859E+2  -3.44465E+1
  -3.28059E+2   1.53517E+2
  -3.36388E+2  -2.07047E+1
   1.55408E+2  -2.15577E+2
   2.33316E+2   2.99141E+1
   6.21573E+1   1.31391E+2
   5.34879E-1   2.68367E+2
  -7.99611E+1  -2.47724E+1
  -1.71668E+2   2.82454E+1
  -2.92815E+1  -4.98981E+1
  -2.01896E+2   4.27932E-1
  -2.40500E+2   2.53182E+1
  -8.62998E+1   6.88820E+1
   1.21630E+2  -3.14123E+2
  -1.65945E+2   1.64967E+2
   1.46088E+2   1.35589E+1
  -9.17653E+1  -1.68690E+1
   1.50828E+1  -6.02438E+1
   1.18317E+2  -4.56961E+1
  -1.04848E+1   9.33562E+1
  -8.29853E+1   2.34614E+2
  -1.57432E+2   1.28863E+2
  -1.51473E+1  -1.33336E+2
  -2.60714E+1   2.97498E+2
  -9.46212E+1  -2.01432E+1
  -1.61131E+2   2.02259E+1
  -1.73711E+2   9.48100E+1
   3.27516E+0  -9.21649E+1
   1.68419E+2   6.05754E+1
   3.72862E+1   2.22322E+1
  -3.24179E+1  -1.38903E+2
  -1.56236E+2   9.06388E+1
   9.18639E+1  -6.57051E+1
  -5.61335E+1   3.47172E+1
   1.47135E+1   5.29628E+1
  -1.18893E+2   2.21604E+1
   4.57392E+1   7.78004E+1
   2.56944E+2  -5.71974E+1
   1.16900E+2  -1.09417E+2
  -9.36184E+1  -1.43996E+2
  -3.10855E+1  -4.10692E+1
   1.29582E+2  -3.33933E+1
   1.79699E+2   1.19132E+2
  -5.36573E+1   7.81750E+1
  -2.77942E+2  -3.27655E+0
  -1.43332E+2  -5.69567E+1
   3.59498E+1  -6.73974E+1
   2.15566E+2  -1.92191E+2
   4.27486E+1   6.15650E+1
  -3.07297E+1   3.26250E+1
   9.07496E+1   1.23287E+2
   4.88939E+1  -8.78363E+1
  -5.51696E+1   1.54190E+2
  -1.46771E+2  -6.67451E+1
  -1.77270E+2  -2.12949E+2
  -4.58127E+1  -5.78267E+1
   2.06645E+1  -5.03852E+1
   9.55748E+1  -3.94743E+1
  -1.59582E+1   3.35013E+1
  -1.13725E+2  -1.50558E+2
   3.07522E+1   7.28099E+1
   2.27982E+2  -1.81692E+2
   2.81383E+1  -8.35682E+1
   2.69476E+2  -1.99496E+2
  -1.29688E+2  -2.58081E+2
   2.20050E+2   7.46494E+1
   8.67169E+1  -2.69328E+2
   1.64776E+1   1.26766E+2
   1.25881E+2  -5.98757E+0
  -1.00759E+2  -2.15096E+2
   2.42622E+1  -1.53983E+2
  -3.90505E+1   5.11257E+1
  -8.69238E+1   1.18474E+2
   1.31516E+1  -5.86558E+1
   1.81803E+2  -9.37493E+1
   2.32278E+2   1.42369E+2
  -8.70739E+1  -1.61831E+2
  -3.07702E+2   2.03581E+1
   1.17461E+2  -1.83396E+2
  -5.56079E+1  -3.96511E+1
   5.81458E+1   3.11412E+1
   1.26244E+2   1.39648E+2
  -1.57735E+2  -2.76407E+0
  -5.52636E+1  -1.76019E+2
