 
 $NMID
 ID=''
 FMTDAT='(2E13.5)'
 TRAMP=   1.00000E+0
 VOLUME=   1.00000E+0
 $END
  -4.17067E+4  -4.86337E+4
  -5.12669E+4   1.25728E+4
  -8.04462E+3   4.97629E+4
   3.19548E+4   2.87856E+4
   3.00360E+4  -1.61661E+4
   2.77994E+3  -3.18898E+4
  -2.13225E+4  -1.38228E+4
  -2.15497E+4   1.27372E+4
   1.38327E+3   2.22163E+4
   1.71755E+4   8.30802E+3
   9.22326E+3  -1.12911E+4
  -4.46321E+3  -1.49196E+4
  -1.04663E+4  -2.15967E+3
  -7.86512E+3   8.97526E+3
   2.54175E+3   7.39611E+3
   1.07665E+4  -5.70423E+2
   5.21140E+3  -4.23650E+3
  -4.47096E+3  -3.43960E+3
  -5.72945E+3  -2.81118E+2
  -8.76336E+2   3.71889E+3
   3.18225E+3   3.67316E+3
   3.59865E+3  -8.13742E+2
   7.08116E+2  -2.30393E+3
  -2.08171E+3  -1.09343E+3
  -1.29854E+3  -4.56039E+2
   1.16432E+3   1.83058E+3
   1.01715E+3   2.80398E+3
  -1.54149E+2  -6.83465E+2
  -1.68127E+2  -2.21586E+3
  -2.58596E+1   8.23710E+1
  -4.86001E+2   8.49287E+2
  -4.89817E+2   1.63735E+1
  -6.61849E+1  -5.51079E+2
   3.97347E+2  -1.57103E+3
   1.34588E+3  -1.71434E+3
   1.46979E+3   3.76563E+2
  -4.35468E+2   1.66087E+3
  -1.03554E+3   3.19905E+2
   3.30348E+2  -8.38388E+2
   3.83987E+2  -3.98624E+1
  -8.22145E+2  -7.75735E+2
  -1.64024E+1  -1.34733E+3
   1.14652E+3   2.74703E+2
   6.10607E+2   1.13479E+3
  -8.44867E+1   4.98451E+2
   2.40447E+2   3.05767E+2
  -9.28330E+2   6.03827E+2
  -1.85444E+3  -6.78892E+2
  -5.55052E+2  -1.54249E+3
   1.17017E+3  -8.43931E+2
   1.06584E+3  -9.59778E+1
   1.23707E+2  -4.52038E+2
   2.14920E+2  -1.21776E+2
  -1.66757E+2   6.09745E+2
  -3.52199E+2   7.01625E+2
  -5.27081E+2   1.97393E+1
  -3.84331E+2  -8.33994E+2
   3.51201E+2  -1.25519E+3
   7.99787E+2  -5.68927E+1
   3.67704E+2   7.99122E+2
  -2.83311E+1   8.69355E+2
  -8.15887E+1   5.23042E+2
  -6.25351E+2   6.03330E+2
  -1.69472E+3  -1.88745E+2
  -1.28647E+3  -1.10796E+3
  -1.78609E+0  -9.08637E+2
   1.05515E+3  -4.11419E+2
   1.30702E+3  -5.59380E+1
   6.32701E+2   3.89227E+2
  -3.50940E+2   3.46729E+2
  -2.95175E+2  -2.15885E+2
   2.80151E+2   1.45151E+2
   6.00132E+2   8.76558E+2
  -1.54828E+2   7.37743E+2
  -3.73658E+2  -3.89616E+2
   1.65148E+2  -3.55992E+2
  -2.08215E+2   4.08298E+2
  -3.17677E+2   6.08071E+2
  -1.64838E+2   2.04315E+2
   3.93686E+1  -2.46311E+2
   7.41862E+1  -6.56028E+2
   2.10934E+2  -5.76351E+2
   2.79663E+2   4.89227E+1
  -3.05654E+2  -1.04999E+2
   2.81103E+2  -8.95293E+1
   7.50240E+2  -1.23485E+2
   7.00504E+2   1.36818E+2
  -1.56133E+2   3.72772E+2
  -1.52113E+2  -1.84055E+2
   1.11978E+2  -9.02082E+0
   4.54194E+2   5.39061E+2
  -3.08692E+2   3.90296E+2
  -4.85934E+2  -1.22139E+2
  -5.66446E+2  -6.37264E+2
   8.42865E+1  -9.85567E+2
   1.69388E+2  -2.34753E+2
   2.63351E+2  -4.93092E+1
   1.15587E+2  -3.75102E+2
   4.50212E+2  -4.54402E+2
   3.89320E+2   2.63217E+2
  -4.89121E+2   3.75368E+2
  -6.91309E+2   1.08109E+2
  -4.71430E+2  -2.26090E+2
  -9.35407E+0  -5.02992E+2
   5.73407E+2  -3.69097E+2
   1.45851E+2   2.16608E+2
  -8.27961E+2   3.99558E+2
  -7.70535E+2  -3.64304E+2
   3.71427E+1  -1.14650E+3
   1.30573E+3  -1.94932E+2
   5.20669E+2   6.67992E+2
  -2.74831E+2   4.35912E+2
  -5.72096E+2  -2.54711E+1
  -2.49760E+2   2.52014E+2
  -4.37932E+2   4.46269E+2
  -3.86694E+2   3.64748E+0
  -8.26874E+2  -5.93287E+2
  -3.88873E+2  -9.39548E+2
   4.55151E+2  -4.83329E+2
   6.30901E+2  -9.44531E+1
   2.38599E+2   4.90308E+2
  -1.03198E+2   5.54651E+2
  -4.42454E+1   4.26249E+2
  -3.64291E+2   2.29876E+2
  -2.43639E+2  -9.65436E+1
  -1.73097E+1  -1.00400E+2
   1.17415E+2  -1.72170E+2
   2.65747E+2   3.43235E+1
   2.00445E+2   3.25264E+2
  -1.42310E+2   4.58161E+2
  -6.05197E+2   1.67135E+2
  -2.87084E+2  -5.21335E+2
   3.89405E+1  -5.55646E+2
   5.65344E+1   5.85010E+0
  -3.86513E+1   5.78456E+1
   1.62282E+2  -3.03978E+2
   3.95479E+2  -1.56150E+2
   1.27104E+2   6.79469E+2
  -2.83804E+2   5.99659E+2
  -6.05462E+2  -3.88345E+0
  -2.74157E+2  -4.13691E+2
   4.31630E+2  -2.06476E+2
   5.44908E+2   3.63709E+2
  -6.72326E+1   5.03591E+2
  -7.28420E+2   2.73385E+2
  -3.46325E+2  -6.13034E+1
  -2.32440E+2  -1.14273E+2
  -1.12345E+2  -3.27076E+2
  -6.17367E+1  -3.64356E+2
   4.15644E+1  -1.70946E+2
   1.36996E+2  -5.09194E+1
   4.27778E+2  -1.77868E+2
   3.57125E+2   3.04944E+2
  -1.01602E+2   5.96369E+2
  -3.76981E+2   3.83575E+2
   7.18524E+1  -9.25668E+1
   4.10562E+1   1.16264E+2
  -5.01138E+2   1.45943E+2
  -2.42766E+2  -1.63473E+2
  -2.33904E+2  -2.67670E+1
  -4.14454E+2   1.21823E+2
  -2.13254E+2   7.05430E+1
  -4.43745E+2  -1.91046E+2
   2.76048E+2  -4.05480E+2
   4.39567E+2  -1.50139E+2
   2.63064E+2   1.84388E+2
  -3.43634E+2   2.59960E+2
  -4.65566E+2   1.28684E+2
   4.92396E+1   8.68723E+1
   9.25289E+1  -1.00755E+2
  -7.14683E+1   2.67001E+2
  -2.60766E+2   3.07526E+1
  -4.01216E+2   8.17458E+1
  -1.87676E+2   1.56758E+1
   5.49781E+1   7.74248E+1
  -1.09782E+2   1.87101E+2
  -6.12140E+2   1.88190E+2
  -2.68266E+2  -2.45588E+2
   3.31989E+2  -2.60884E+2
   1.87818E+2   1.69521E+2
   9.97908E+1   4.60409E+2
  -2.56671E+2  -4.34455E+1
  -3.24343E+2   3.43282E+1
  -3.53036E+1  -3.13150E+1
  -7.78002E+1  -1.49243E+2
  -1.70295E+2  -3.61764E+2
  -6.27721E+1  -3.02352E+2
   2.93355E+2  -9.89854E+1
   2.92512E+2   2.61898E+2
   3.19415E+2   7.17580E+2
  -3.89589E+2   4.33441E+2
  -4.46086E+2  -9.88960E+1
  -2.40036E+2  -4.41414E+2
  -5.31474E+1   8.57269E+1
   2.63534E+1   2.11764E+2
   9.56986E+1   1.94824E+2
   4.77027E+1   9.80539E+1
  -2.14456E+2   1.81247E+2
  -3.30797E+2   2.33199E+2
  -2.70856E+2   1.27695E+0
  -1.23841E+2  -1.97734E+2
   7.96261E+1  -3.11950E+2
   3.97293E+2  -1.92867E+1
  -5.88976E+1   2.52006E+2
  -1.97354E+2   1.71401E+2
   1.29431E+0   2.15627E+1
  -2.58596E+2  -1.46493E+1
   4.27221E+1  -1.45922E+2
  -7.46784E+1   1.29600E+2
  -2.55941E+2   6.56274E+1
  -2.43078E+1  -7.85211E+1
   2.55823E+2   2.55613E+2
   1.96148E+2   4.40630E+2
  -4.16079E+2   3.68074E+2
  -4.83056E+2  -1.08242E+2
  -1.78820E+2  -2.89097E+2
  -4.44646E+0  -2.04580E+2
   7.16689E+1   6.64828E+1
   1.51873E+2  -2.99157E+1
  -1.29678E+2   2.44473E+2
  -1.56920E+2   4.54850E+1
  -6.57195E+1   1.24286E+2
  -4.43360E+2   1.03850E+2
  -4.91509E+2   1.98921E+2
  -2.09735E+2  -1.90886E+2
   3.54834E+2  -7.39588E+1
   2.16755E+2  -9.89440E+1
  -4.00913E+1   2.01970E+2
  -4.07418E+2  -8.05984E+0
  -7.55855E+1  -1.78687E+2
  -8.83337E+1  -2.62584E+1
  -7.97481E+0   4.81087E+1
  -2.41359E+2   7.18487E+1
  -2.11125E+2  -1.76009E+2
  -1.03413E+1  -9.98276E+1
  -2.91037E+1   3.92194E+2
   1.21294E+2   6.38734E+1
  -1.83974E+1  -7.84313E+1
   1.82590E+1  -1.63350E+0
   8.87763E+1   3.83892E+1
   1.77963E+2   2.52378E+2
  -1.48814E+2   2.67557E+2
  -3.53298E+1   6.69496E+1
   3.78967E+1  -1.27653E+2
  -6.34353E+1   2.00452E+1
  -4.60979E+1  -1.99493E+1
   1.41721E+2  -4.31727E+1
  -4.14746E+1  -2.41384E+2
   3.68220E+2   5.79346E+0
   2.21147E+2   2.77837E+2
  -5.59622E+1   2.17292E+2
  -3.24777E+2   6.76674E+1
  -1.50422E+2  -8.78816E+1
  -1.08246E+2  -9.39128E+1
   4.71653E+2  -1.72904E+2
   1.51145E+2   7.64461E+1
   2.10981E+1   2.95148E+2
  -1.38957E+2   6.21341E+1
   1.56783E+2   3.72749E+1
  -1.47206E+2  -3.00988E+1
  -3.81147E+2  -1.76645E+1
  -3.03397E+2  -5.31147E+1
   4.78321E+2  -1.66619E+2
   5.14898E+2  -1.95356E+1
   1.71231E+2   1.95751E+2
  -7.15214E+1   2.02641E+2
  -3.29932E+2   2.12068E+2
  -9.19837E+1   9.06201E+1
   1.95319E+2  -1.31604E+2
   3.47108E+1  -4.81546E+1
   1.26052E+2  -1.16195E+2
  -1.65844E+2  -1.14448E+2
   2.82023E+1   1.50702E+2
  -1.33848E+2  -1.20475E+1
  -2.88648E+2   2.05822E+2
  -8.40346E+1  -2.56034E+1
  -9.79750E+1  -2.25290E+2
  -2.81100E+1  -1.23269E+2
   8.66690E+0   1.34752E+2
   1.66152E+2   1.61859E+2
   7.82687E+1   7.12888E+1
  -5.28408E+1  -7.72005E+1
   1.24389E+2  -6.19403E+1
  -7.23662E+1   2.31183E+1
  -1.91217E+2   1.35115E+2
  -6.16411E+1  -2.25876E+2
  -2.64355E+1   9.55596E+1
   1.74920E+2   1.00822E+2
  -1.34666E+2   1.30438E+2
  -4.66258E+1   1.84083E+2
  -2.94369E+2  -1.87494E+2
  -2.18442E+1  -3.77391E+1
  -1.72172E+2  -1.57782E+2
  -1.06565E+1  -1.41510E+2
   6.02279E+1  -1.65577E+2
  -3.91143E+1  -4.25043E+1
   1.26375E+2   1.34907E+2
   6.18655E+1   4.87974E+1
  -1.79225E+2   3.84325E+2
  -6.98322E+1  -6.08978E+1
   3.58399E+2  -5.10032E+1
   2.43788E+2   2.19488E+1
  -1.54786E+2   2.17712E+2
  -1.15456E+2  -7.80831E+1
  -3.16578E+1  -1.74484E+2
   1.99375E+2  -1.53044E+2
   2.22560E+2  -5.18249E+1
  -1.22331E+2   1.33141E+2
   3.83963E+1   4.91496E+1
   1.97479E+2  -4.94079E+1
   1.15305E+2   1.75245E+2
  -1.22745E+2   9.17457E+1
   8.89027E+1   7.34674E+1
  -7.82878E+1  -4.90171E+1
   1.13569E+2  -1.65993E+2
   2.39616E+2  -6.50259E+1
   1.75169E+1   9.65359E+1
   1.08268E+2   1.66292E+2
  -1.55654E+2   2.66429E+1
   3.17678E+1  -9.06611E+1
  -3.66865E+1  -9.78186E+0
   1.52290E+2  -1.79341E+2
  -4.09052E+1   1.52390E+1
   1.62749E+2  -4.37899E+1
   1.40043E+2  -2.90636E+0
  -3.44044E+0   2.75171E+0
  -2.74962E+2   2.11167E+2
  -3.06572E+1  -7.24320E+0
  -2.01817E+2  -1.75853E+2
  -1.10613E+2  -1.63329E+2
   5.36065E+1   7.68876E+0
   1.39005E+2   9.12995E+1
   4.39162E+1   1.56619E+2
   1.73006E+2  -1.15337E+2
  -4.61941E+1   2.09514E+2
  -8.52872E+1   6.42741E+1
  -1.35792E+1  -9.37640E+1
   6.00520E+1  -1.91458E+2
   1.56696E+2  -2.39663E+2
   9.82267E+0  -1.01115E+2
  -6.27268E+1   9.97030E+0
  -1.99448E+1   1.72926E+2
  -3.85624E+1   3.55486E+1
   1.26276E+2   5.32307E+1
   8.45370E+0  -1.43595E+1
  -1.67471E+1  -1.39350E+2
   5.15032E+1  -1.24390E+2
   4.16303E+1   5.90702E+1
   3.76582E+2   2.73348E-1
  -6.12075E+1   1.68330E+2
  -8.81557E+1   1.75237E+1
  -1.13950E+2  -1.67938E+2
   6.48499E+1  -4.57981E+1
   1.41032E+2   2.56395E+2
  -1.48993E+2   1.40160E+1
  -4.53267E+0  -2.01947E+2
  -6.08705E+1  -2.01244E+2
   1.77641E+2   1.49887E+2
  -1.29813E+2   9.43217E+1
  -1.18075E+2   1.45135E+2
  -2.75558E+2  -4.08987E+1
  -2.74726E+1  -2.45094E+2
   6.61128E+1  -1.08204E+2
   1.41676E+2   3.88590E+2
  -3.39781E+1  -1.73867E+2
   7.56014E+1  -7.57959E+1
   6.19319E+1  -2.01190E+1
