 
 $NMID
 ID=''
 FMTDAT='(2E13.5)'
 TRAMP=   1.00000E+0
 VOLUME=   1.00000E+0
 $END
  -3.16726E+5   6.14182E+5
  -1.37816E+6   1.18068E+6
  -1.24414E+6   1.24035E+6
  -1.26355E+6   1.09277E+6
  -1.32513E+6   1.12507E+6
  -1.23757E+6   1.13733E+6
  -1.22806E+6   1.07476E+6
  -1.26292E+6   1.08646E+6
  -1.21775E+6   1.06758E+6
  -1.22663E+6   1.00791E+6
  -1.24820E+6   1.01123E+6
  -1.21876E+6   9.91370E+5
  -1.23281E+6   9.45305E+5
  -1.25607E+6   9.38169E+5
  -1.23999E+6   9.04590E+5
  -1.25329E+6   8.58273E+5
  -1.26886E+6   8.51605E+5
  -1.25390E+6   8.26957E+5
  -1.25558E+6   7.91030E+5
  -1.25207E+6   7.87406E+5
  -1.23286E+6   7.65654E+5
  -1.23279E+6   7.34373E+5
  -1.22852E+6   7.24580E+5
  -1.21220E+6   7.03013E+5
  -1.21177E+6   6.72666E+5
  -1.20450E+6   6.63614E+5
  -1.19858E+6   6.40146E+5
  -1.20575E+6   6.06623E+5
  -1.20175E+6   5.83231E+5
  -1.19185E+6   5.60924E+5
  -1.19533E+6   5.36770E+5
  -1.18847E+6   5.19983E+5
  -1.17562E+6   4.97125E+5
  -1.16965E+6   4.77453E+5
  -1.15609E+6   4.66673E+5
  -1.14110E+6   4.54987E+5
  -1.13513E+6   4.43238E+5
  -1.12399E+6   4.31239E+5
  -1.10977E+6   4.13542E+5
  -1.10371E+6   3.98367E+5
  -1.09437E+6   3.83111E+5
  -1.08316E+6   3.63309E+5
  -1.07583E+6   3.46881E+5
  -1.06825E+6   3.30185E+5
  -1.05855E+6   3.08448E+5
  -1.05094E+6   2.89429E+5
  -1.04141E+6   2.73432E+5
  -1.03031E+6   2.53946E+5
  -1.01760E+6   2.38690E+5
  -1.00418E+6   2.27055E+5
  -9.92640E+5   2.14373E+5
  -9.82605E+5   2.01891E+5
  -9.70304E+5   1.90381E+5
  -9.59248E+5   1.78022E+5
  -9.49071E+5   1.65497E+5
  -9.37940E+5   1.52317E+5
  -9.26102E+5   1.36673E+5
  -9.15204E+5   1.23210E+5
  -9.03611E+5   1.10964E+5
  -8.93469E+5   9.74069E+4
  -8.83201E+5   8.33446E+4
  -8.71570E+5   7.06448E+4
  -8.60584E+5   5.81926E+4
  -8.49168E+5   4.55076E+4
  -8.36022E+5   3.40155E+4
  -8.22649E+5   2.42062E+4
  -8.11263E+5   1.51848E+4
  -8.00714E+5   5.53682E+3
  -7.89925E+5  -4.40599E+3
  -7.79694E+5  -1.47892E+4
  -7.68644E+5  -2.50778E+4
  -7.57337E+5  -3.49435E+4
  -7.47594E+5  -4.42119E+4
  -7.37900E+5  -5.37307E+4
  -7.27298E+5  -6.38768E+4
  -7.16132E+5  -7.21104E+4
  -7.06210E+5  -8.05740E+4
  -6.96288E+5  -8.89050E+4
  -6.86092E+5  -9.67377E+4
  -6.75218E+5  -1.04100E+5
  -6.64862E+5  -1.11344E+5
  -6.55171E+5  -1.17527E+5
  -6.45696E+5  -1.24533E+5
  -6.35884E+5  -1.31889E+5
  -6.25573E+5  -1.39170E+5
  -6.15923E+5  -1.45240E+5
  -6.07128E+5  -1.51583E+5
  -5.98148E+5  -1.58444E+5
  -5.88481E+5  -1.64614E+5
  -5.79153E+5  -1.69564E+5
  -5.70800E+5  -1.74381E+5
  -5.62115E+5  -1.79113E+5
  -5.53443E+5  -1.83740E+5
  -5.44506E+5  -1.87178E+5
  -5.36183E+5  -1.89911E+5
  -5.28151E+5  -1.92421E+5
  -5.20689E+5  -1.95057E+5
  -5.13416E+5  -1.97760E+5
  -5.05603E+5  -2.00611E+5
  -4.98422E+5  -2.02728E+5
  -4.91133E+5  -2.04892E+5
  -4.83677E+5  -2.07823E+5
  -4.75545E+5  -2.10818E+5
  -4.67408E+5  -2.12410E+5
  -4.60665E+5  -2.13527E+5
  -4.54691E+5  -2.15114E+5
  -4.47953E+5  -2.17066E+5
  -4.40087E+5  -2.18639E+5
  -4.32556E+5  -2.18812E+5
  -4.26650E+5  -2.18981E+5
  -4.21325E+5  -2.19777E+5
  -4.15019E+5  -2.21215E+5
  -4.08288E+5  -2.21585E+5
  -4.02257E+5  -2.22382E+5
  -3.95748E+5  -2.23083E+5
  -3.89618E+5  -2.23872E+5
  -3.83223E+5  -2.24042E+5
  -3.77156E+5  -2.24172E+5
  -3.70865E+5  -2.23730E+5
  -3.65822E+5  -2.23001E+5
  -3.61101E+5  -2.23383E+5
  -3.55563E+5  -2.23206E+5
  -3.50095E+5  -2.22995E+5
  -3.44533E+5  -2.23045E+5
  -3.39316E+5  -2.22565E+5
  -3.33707E+5  -2.22049E+5
  -3.28443E+5  -2.21269E+5
  -3.23338E+5  -2.20612E+5
  -3.18278E+5  -2.20347E+5
  -3.13153E+5  -2.20354E+5
  -3.07592E+5  -2.20840E+5
  -3.02017E+5  -2.20018E+5
  -2.96876E+5  -2.19157E+5
  -2.92402E+5  -2.18576E+5
  -2.87172E+5  -2.18410E+5
  -2.82269E+5  -2.17753E+5
  -2.78148E+5  -2.16588E+5
  -2.74290E+5  -2.16203E+5
  -2.69658E+5  -2.15900E+5
  -2.65090E+5  -2.15176E+5
  -2.60788E+5  -2.14045E+5
  -2.56437E+5  -2.13092E+5
  -2.52597E+5  -2.12060E+5
  -2.48818E+5  -2.11593E+5
  -2.44453E+5  -2.11011E+5
  -2.39910E+5  -2.10046E+5
  -2.35418E+5  -2.08436E+5
  -2.31674E+5  -2.07595E+5
  -2.27986E+5  -2.06563E+5
  -2.24206E+5  -2.05825E+5
  -2.20592E+5  -2.04439E+5
  -2.16936E+5  -2.03162E+5
  -2.13885E+5  -2.02043E+5
  -2.10677E+5  -2.01158E+5
  -2.07300E+5  -1.99973E+5
  -2.04200E+5  -1.98667E+5
  -2.01165E+5  -1.97255E+5
  -1.97936E+5  -1.96348E+5
  -1.94943E+5  -1.94714E+5
  -1.92060E+5  -1.93449E+5
  -1.89412E+5  -1.92044E+5
  -1.86380E+5  -1.90726E+5
  -1.83571E+5  -1.89057E+5
  -1.80944E+5  -1.87570E+5
  -1.78436E+5  -1.86201E+5
  -1.75950E+5  -1.84551E+5
  -1.73626E+5  -1.83207E+5
  -1.71268E+5  -1.82204E+5
  -1.68397E+5  -1.80666E+5
  -1.65987E+5  -1.79268E+5
  -1.63985E+5  -1.77651E+5
  -1.61708E+5  -1.76357E+5
  -1.59351E+5  -1.74943E+5
  -1.57196E+5  -1.73416E+5
  -1.54932E+5  -1.72008E+5
  -1.52788E+5  -1.71030E+5
  -1.50579E+5  -1.69766E+5
  -1.48236E+5  -1.68254E+5
  -1.46069E+5  -1.66772E+5
  -1.44197E+5  -1.65339E+5
  -1.42437E+5  -1.64534E+5
  -1.39974E+5  -1.63307E+5
  -1.37907E+5  -1.62087E+5
  -1.35969E+5  -1.60925E+5
  -1.33897E+5  -1.59792E+5
  -1.31699E+5  -1.58180E+5
  -1.30263E+5  -1.57037E+5
  -1.28438E+5  -1.55770E+5
  -1.26431E+5  -1.54142E+5
  -1.25048E+5  -1.53235E+5
  -1.23007E+5  -1.52347E+5
  -1.20888E+5  -1.51424E+5
  -1.18731E+5  -1.49954E+5
  -1.16946E+5  -1.48902E+5
  -1.15235E+5  -1.48026E+5
  -1.13301E+5  -1.47076E+5
  -1.11423E+5  -1.46059E+5
  -1.09519E+5  -1.45181E+5
  -1.07569E+5  -1.44159E+5
  -1.05818E+5  -1.43466E+5
  -1.03769E+5  -1.42528E+5
  -1.02248E+5  -1.41310E+5
  -1.00529E+5  -1.40138E+5
  -9.88994E+4  -1.39607E+5
  -9.72380E+4  -1.38873E+5
  -9.51267E+4  -1.37997E+5
  -9.33096E+4  -1.37117E+5
  -9.16773E+4  -1.36174E+5
  -9.03919E+4  -1.35492E+5
  -8.86446E+4  -1.34563E+5
  -8.65609E+4  -1.33718E+5
  -8.50948E+4  -1.32949E+5
  -8.36086E+4  -1.32295E+5
  -8.21060E+4  -1.31651E+5
  -8.00794E+4  -1.30658E+5
  -7.85129E+4  -1.29776E+5
  -7.71542E+4  -1.28680E+5
  -7.58325E+4  -1.27890E+5
  -7.47755E+4  -1.26974E+5
  -7.29557E+4  -1.26547E+5
  -7.17761E+4  -1.25389E+5
  -7.02858E+4  -1.24706E+5
  -6.91380E+4  -1.24147E+5
  -6.76821E+4  -1.23331E+5
  -6.62504E+4  -1.22280E+5
  -6.50186E+4  -1.20987E+5
  -6.41623E+4  -1.20646E+5
  -6.28070E+4  -1.19724E+5
  -6.13669E+4  -1.19270E+5
  -6.01807E+4  -1.18323E+5
  -5.91182E+4  -1.17400E+5
  -5.80621E+4  -1.16517E+5
  -5.72063E+4  -1.15546E+5
  -5.59924E+4  -1.14710E+5
  -5.51036E+4  -1.13958E+5
  -5.41102E+4  -1.13181E+5
  -5.33272E+4  -1.12294E+5
  -5.22021E+4  -1.11659E+5
  -5.14380E+4  -1.10840E+5
  -5.01852E+4  -1.09787E+5
  -4.94713E+4  -1.09096E+5
  -4.87176E+4  -1.08407E+5
  -4.74074E+4  -1.07556E+5
  -4.64902E+4  -1.06701E+5
  -4.58772E+4  -1.05706E+5
  -4.49927E+4  -1.05156E+5
  -4.38871E+4  -1.04515E+5
  -4.27614E+4  -1.03509E+5
  -4.19929E+4  -1.02567E+5
  -4.12783E+4  -1.01941E+5
  -4.05761E+4  -1.01453E+5
  -3.95693E+4  -1.00866E+5
  -3.86875E+4  -1.00172E+5
  -3.75447E+4  -9.90436E+4
  -3.69930E+4  -9.84892E+4
  -3.60176E+4  -9.78183E+4
  -3.53583E+4  -9.73082E+4
  -3.42935E+4  -9.67825E+4
  -3.32349E+4  -9.59122E+4
  -3.26877E+4  -9.54884E+4
  -3.15932E+4  -9.49821E+4
  -3.05043E+4  -9.42437E+4
  -2.96740E+4  -9.35253E+4
  -2.89220E+4  -9.27822E+4
  -2.81818E+4  -9.22555E+4
  -2.70595E+4  -9.18059E+4
  -2.65009E+4  -9.13830E+4
  -2.50927E+4  -9.08108E+4
  -2.46130E+4  -8.98996E+4
  -2.38952E+4  -8.93121E+4
  -2.27870E+4  -8.87988E+4
  -2.21637E+4  -8.83058E+4
  -2.13110E+4  -8.77040E+4
  -2.04595E+4  -8.71071E+4
  -1.95363E+4  -8.67341E+4
  -1.86469E+4  -8.61904E+4
  -1.77750E+4  -8.56978E+4
  -1.71505E+4  -8.49397E+4
  -1.63593E+4  -8.46127E+4
  -1.56593E+4  -8.39554E+4
  -1.47225E+4  -8.33765E+4
  -1.41461E+4  -8.28762E+4
  -1.34873E+4  -8.23844E+4
  -1.26058E+4  -8.20417E+4
  -1.21015E+4  -8.13143E+4
  -1.11931E+4  -8.04412E+4
  -1.05721E+4  -7.99614E+4
  -1.01332E+4  -7.93137E+4
  -9.67775E+3  -7.89637E+4
  -8.94367E+3  -7.84241E+4
  -8.34034E+3  -7.79609E+4
  -7.67542E+3  -7.71848E+4
  -7.11516E+3  -7.65646E+4
  -6.54342E+3  -7.58729E+4
  -5.99836E+3  -7.54756E+4
  -5.48275E+3  -7.49950E+4
  -5.43352E+3  -7.43532E+4
  -4.53362E+3  -7.39281E+4
  -3.87430E+3  -7.32604E+4
  -3.38130E+3  -7.24282E+4
  -3.15187E+3  -7.20517E+4
  -2.31818E+3  -7.12569E+4
  -2.08490E+3  -7.07048E+4
  -1.61882E+3  -7.04425E+4
  -9.42840E+2  -6.98919E+4
  -4.93281E+2  -6.90423E+4
  -2.82046E+2  -6.83631E+4
   1.63221E+2  -6.78925E+4
   3.69972E+2  -6.72294E+4
   8.87573E+2  -6.67912E+4
   1.23032E+3  -6.61550E+4
   1.59936E+3  -6.57679E+4
   1.98396E+3  -6.51501E+4
   2.36177E+3  -6.43494E+4
   2.87854E+3  -6.37178E+4
   3.15661E+3  -6.31347E+4
   3.47941E+3  -6.26784E+4
   3.93004E+3  -6.21262E+4
   3.93571E+3  -6.16241E+4
   4.47071E+3  -6.10441E+4
   4.48728E+3  -6.03040E+4
   4.94269E+3  -5.98174E+4
   5.27519E+3  -5.93895E+4
   5.81412E+3  -5.86585E+4
   5.85252E+3  -5.81664E+4
   6.18819E+3  -5.75831E+4
   6.53615E+3  -5.68825E+4
   6.87844E+3  -5.66692E+4
   7.16954E+3  -5.57810E+4
   7.45417E+3  -5.53562E+4
   7.63882E+3  -5.48382E+4
   8.07136E+3  -5.41172E+4
   8.29421E+3  -5.36623E+4
   8.45395E+3  -5.30509E+4
   8.81752E+3  -5.26147E+4
   8.86889E+3  -5.24495E+4
   9.31922E+3  -5.17225E+4
   9.55752E+3  -5.09216E+4
   9.70232E+3  -5.05231E+4
   9.96578E+3  -4.97318E+4
   1.00801E+4  -4.93150E+4
   1.08866E+4  -4.87783E+4
   1.08923E+4  -4.82965E+4
   1.09356E+4  -4.75476E+4
   1.12483E+4  -4.73379E+4
   1.12990E+4  -4.66434E+4
   1.15577E+4  -4.60294E+4
   1.18094E+4  -4.54936E+4
   1.20817E+4  -4.49442E+4
   1.21667E+4  -4.47670E+4
   1.24810E+4  -4.40486E+4
   1.27715E+4  -4.33910E+4
   1.29158E+4  -4.28262E+4
   1.28358E+4  -4.23605E+4
   1.32754E+4  -4.18181E+4
   1.35024E+4  -4.12422E+4
   1.35945E+4  -4.05424E+4
   1.38581E+4  -4.05888E+4
   1.39876E+4  -4.00999E+4
   1.45764E+4  -3.92666E+4
   1.42334E+4  -3.88754E+4
   1.45172E+4  -3.81762E+4
   1.46151E+4  -3.76283E+4
   1.46660E+4  -3.73929E+4
   1.47578E+4  -3.70771E+4
   1.50998E+4  -3.64781E+4
   1.53408E+4  -3.59005E+4
