 
 $NMID
 ID=''
 FMTDAT='(2E13.5)'
 TRAMP=   1.00000E+0
 VOLUME=   1.00000E+0
 $END
   1.77268E+5   6.58208E+5
  -1.19002E+5   1.80100E+6
   1.17941E+5   1.73950E+6
  -2.67374E+4   1.59064E+6
  -1.64281E+5   1.66705E+6
  -1.63870E+5   1.67053E+6
  -2.06305E+5   1.62628E+6
  -2.32138E+5   1.63642E+6
  -2.34489E+5   1.58024E+6
  -3.15136E+5   1.54716E+6
  -3.54576E+5   1.58234E+6
  -3.39988E+5   1.55447E+6
  -3.69485E+5   1.50782E+6
  -3.96141E+5   1.50069E+6
  -4.14008E+5   1.47266E+6
  -4.49101E+5   1.45137E+6
  -4.64909E+5   1.45465E+6
  -4.81638E+5   1.41816E+6
  -5.32937E+5   1.37932E+6
  -5.66140E+5   1.36566E+6
  -5.88958E+5   1.33635E+6
  -6.22069E+5   1.31099E+6
  -6.40954E+5   1.29245E+6
  -6.61365E+5   1.25666E+6
  -6.93152E+5   1.22669E+6
  -7.03596E+5   1.21372E+6
  -7.13884E+5   1.18929E+6
  -7.30187E+5   1.16677E+6
  -7.38691E+5   1.14584E+6
  -7.50800E+5   1.11919E+6
  -7.76103E+5   1.09471E+6
  -7.89064E+5   1.07001E+6
  -8.03079E+5   1.03862E+6
  -8.23568E+5   1.01277E+6
  -8.39404E+5   9.84486E+5
  -8.54961E+5   9.52337E+5
  -8.74918E+5   9.26071E+5
  -8.90093E+5   8.98048E+5
  -9.00389E+5   8.66352E+5
  -9.10642E+5   8.42173E+5
  -9.17802E+5   8.18571E+5
  -9.25383E+5   7.91657E+5
  -9.29648E+5   7.68588E+5
  -9.33714E+5   7.47619E+5
  -9.39609E+5   7.24007E+5
  -9.47021E+5   7.01390E+5
  -9.52086E+5   6.75475E+5
  -9.58839E+5   6.46788E+5
  -9.64726E+5   6.18068E+5
  -9.70010E+5   5.91029E+5
  -9.75496E+5   5.63330E+5
  -9.80610E+5   5.35662E+5
  -9.84804E+5   5.08786E+5
  -9.89302E+5   4.81533E+5
  -9.91431E+5   4.54680E+5
  -9.92805E+5   4.29284E+5
  -9.93423E+5   4.04093E+5
  -9.92275E+5   3.79949E+5
  -9.89944E+5   3.56898E+5
  -9.89508E+5   3.34444E+5
  -9.88993E+5   3.11158E+5
  -9.87128E+5   2.87466E+5
  -9.85050E+5   2.63137E+5
  -9.82345E+5   2.38261E+5
  -9.79005E+5   2.12334E+5
  -9.74157E+5   1.87829E+5
  -9.68807E+5   1.64706E+5
  -9.63693E+5   1.41776E+5
  -9.58946E+5   1.18505E+5
  -9.53930E+5   9.56609E+4
  -9.47431E+5   7.31718E+4
  -9.40165E+5   5.26983E+4
  -9.33600E+5   3.34215E+4
  -9.26498E+5   1.22328E+4
  -9.17870E+5  -9.13012E+3
  -9.09509E+5  -2.87851E+4
  -9.01563E+5  -4.80911E+4
  -8.92634E+5  -6.87392E+4
  -8.82271E+5  -8.95447E+4
  -8.72178E+5  -1.10194E+5
  -8.61823E+5  -1.30075E+5
  -8.51316E+5  -1.49205E+5
  -8.40194E+5  -1.66909E+5
  -8.28265E+5  -1.85222E+5
  -8.16491E+5  -2.03469E+5
  -8.04488E+5  -2.20059E+5
  -7.92880E+5  -2.35009E+5
  -7.80765E+5  -2.49440E+5
  -7.68407E+5  -2.64106E+5
  -7.55551E+5  -2.77702E+5
  -7.43054E+5  -2.91153E+5
  -7.30827E+5  -3.04349E+5
  -7.17655E+5  -3.18208E+5
  -7.03395E+5  -3.31229E+5
  -6.88988E+5  -3.43265E+5
  -6.74877E+5  -3.55465E+5
  -6.61509E+5  -3.67612E+5
  -6.47501E+5  -3.79346E+5
  -6.32664E+5  -3.89935E+5
  -6.18248E+5  -3.99541E+5
  -6.04377E+5  -4.09676E+5
  -5.90170E+5  -4.19525E+5
  -5.75125E+5  -4.27929E+5
  -5.60267E+5  -4.35162E+5
  -5.46342E+5  -4.41963E+5
  -5.33031E+5  -4.49068E+5
  -5.18745E+5  -4.56042E+5
  -5.03711E+5  -4.62943E+5
  -4.88482E+5  -4.68769E+5
  -4.74375E+5  -4.73519E+5
  -4.60378E+5  -4.78640E+5
  -4.45787E+5  -4.84525E+5
  -4.30817E+5  -4.90214E+5
  -4.15542E+5  -4.94989E+5
  -4.01180E+5  -4.99288E+5
  -3.86109E+5  -5.03419E+5
  -3.71338E+5  -5.07190E+5
  -3.56282E+5  -5.10417E+5
  -3.41992E+5  -5.12470E+5
  -3.28349E+5  -5.14494E+5
  -3.14942E+5  -5.16434E+5
  -3.01213E+5  -5.19157E+5
  -2.87380E+5  -5.20738E+5
  -2.73384E+5  -5.22310E+5
  -2.59366E+5  -5.23500E+5
  -2.45401E+5  -5.23797E+5
  -2.31836E+5  -5.23565E+5
  -2.18624E+5  -5.23904E+5
  -2.05415E+5  -5.24016E+5
  -1.92120E+5  -5.23913E+5
  -1.78383E+5  -5.23626E+5
  -1.64519E+5  -5.22582E+5
  -1.51369E+5  -5.21333E+5
  -1.38717E+5  -5.19935E+5
  -1.25922E+5  -5.18368E+5
  -1.12951E+5  -5.16422E+5
  -1.00811E+5  -5.13672E+5
  -8.88778E+4  -5.11662E+5
  -7.67144E+4  -5.09329E+5
  -6.42030E+4  -5.05999E+5
  -5.24814E+4  -5.02693E+5
  -4.13221E+4  -4.99001E+5
  -3.04591E+4  -4.95310E+5
  -1.95542E+4  -4.91645E+5
  -8.81050E+3  -4.87896E+5
   1.72885E+3  -4.83506E+5
   1.21080E+4  -4.78667E+5
   2.21536E+4  -4.73539E+5
   3.19754E+4  -4.68433E+5
   4.07674E+4  -4.63510E+5
   4.97712E+4  -4.57959E+5
   5.83818E+4  -4.52606E+5
   6.68080E+4  -4.47009E+5
   7.49906E+4  -4.41747E+5
   8.36612E+4  -4.36355E+5
   9.13325E+4  -4.30158E+5
   9.87006E+4  -4.24130E+5
   1.06151E+5  -4.18348E+5
   1.13472E+5  -4.11965E+5
   1.20009E+5  -4.05854E+5
   1.26903E+5  -3.99622E+5
   1.33257E+5  -3.93284E+5
   1.39989E+5  -3.86696E+5
   1.45842E+5  -3.79858E+5
   1.51683E+5  -3.73287E+5
   1.56841E+5  -3.67010E+5
   1.62190E+5  -3.60386E+5
   1.67842E+5  -3.54007E+5
   1.72803E+5  -3.47200E+5
   1.77266E+5  -3.40951E+5
   1.81643E+5  -3.34496E+5
   1.86000E+5  -3.27843E+5
   1.90239E+5  -3.21480E+5
   1.94083E+5  -3.14803E+5
   1.98059E+5  -3.08068E+5
   2.01881E+5  -3.01721E+5
   2.05835E+5  -2.95432E+5
   2.09431E+5  -2.87969E+5
   2.12322E+5  -2.81156E+5
   2.15321E+5  -2.74475E+5
   2.18586E+5  -2.68486E+5
   2.21694E+5  -2.61770E+5
   2.24422E+5  -2.55036E+5
   2.26783E+5  -2.48354E+5
   2.29067E+5  -2.41643E+5
   2.31157E+5  -2.35247E+5
   2.33086E+5  -2.28505E+5
   2.34665E+5  -2.22320E+5
   2.36415E+5  -2.16196E+5
   2.37974E+5  -2.10388E+5
   2.39795E+5  -2.04271E+5
   2.41501E+5  -1.97517E+5
   2.42574E+5  -1.90611E+5
   2.43365E+5  -1.84151E+5
   2.44444E+5  -1.78066E+5
   2.45131E+5  -1.71704E+5
   2.46103E+5  -1.65379E+5
   2.46740E+5  -1.59163E+5
   2.47300E+5  -1.52778E+5
   2.48037E+5  -1.46422E+5
   2.47975E+5  -1.39711E+5
   2.48149E+5  -1.33619E+5
   2.47614E+5  -1.27527E+5
   2.47462E+5  -1.21768E+5
   2.47525E+5  -1.15958E+5
   2.47518E+5  -1.09695E+5
   2.46655E+5  -1.03633E+5
   2.46123E+5  -9.77288E+4
   2.45322E+5  -9.22258E+4
   2.44375E+5  -8.61607E+4
   2.43609E+5  -8.05474E+4
   2.42269E+5  -7.51397E+4
   2.41409E+5  -6.97017E+4
   2.40220E+5  -6.42375E+4
   2.39026E+5  -5.86744E+4
   2.37375E+5  -5.30161E+4
   2.35681E+5  -4.78766E+4
   2.33514E+5  -4.28380E+4
   2.32160E+5  -3.83229E+4
   2.30180E+5  -3.33316E+4
   2.28460E+5  -2.84545E+4
   2.25981E+5  -2.40666E+4
   2.24309E+5  -1.94732E+4
   2.22309E+5  -1.49024E+4
   2.20064E+5  -1.04407E+4
   2.17437E+5  -6.14486E+3
   2.15178E+5  -2.39882E+3
   2.13003E+5   1.77095E+3
   2.10803E+5   6.05700E+3
   2.08217E+5   9.71898E+3
   2.05649E+5   1.35859E+4
   2.03244E+5   1.71242E+4
   2.00717E+5   2.07180E+4
   1.98086E+5   2.39856E+4
   1.95265E+5   2.70896E+4
   1.92757E+5   3.04467E+4
   1.90238E+5   3.34369E+4
   1.87547E+5   3.64504E+4
   1.84770E+5   3.91976E+4
   1.81937E+5   4.24563E+4
   1.79422E+5   4.46171E+4
   1.77019E+5   4.73851E+4
   1.74296E+5   4.99603E+4
   1.71326E+5   5.29101E+4
   1.68609E+5   5.51245E+4
   1.66219E+5   5.71688E+4
   1.63232E+5   5.97296E+4
   1.60563E+5   6.20584E+4
   1.57635E+5   6.40570E+4
   1.54986E+5   6.59833E+4
   1.52279E+5   6.78349E+4
   1.49741E+5   6.98324E+4
   1.47060E+5   7.15892E+4
   1.44587E+5   7.36081E+4
   1.41656E+5   7.49428E+4
   1.39113E+5   7.68204E+4
   1.36348E+5   7.82454E+4
   1.33909E+5   8.01478E+4
   1.30989E+5   8.14232E+4
   1.28392E+5   8.33709E+4
   1.25824E+5   8.48407E+4
   1.22943E+5   8.62714E+4
   1.19881E+5   8.75592E+4
   1.17194E+5   8.84033E+4
   1.15009E+5   8.96418E+4
   1.12272E+5   9.06546E+4
   1.09711E+5   9.19574E+4
   1.07176E+5   9.28900E+4
   1.04385E+5   9.36831E+4
   1.01700E+5   9.46297E+4
   9.90283E+4   9.54529E+4
   9.66753E+4   9.60818E+4
   9.40651E+4   9.65263E+4
   9.15987E+4   9.73035E+4
   8.89267E+4   9.80518E+4
   8.63377E+4   9.88477E+4
   8.34586E+4   9.93574E+4
   8.09981E+4   9.96845E+4
   7.86223E+4   9.98714E+4
   7.61630E+4   1.00115E+5
   7.39695E+4   1.00449E+5
   7.11069E+4   1.00862E+5
   6.88803E+4   1.00678E+5
   6.64654E+4   1.01057E+5
   6.42363E+4   1.01392E+5
   6.14974E+4   1.01275E+5
   5.92020E+4   1.01098E+5
   5.68486E+4   1.01044E+5
   5.48408E+4   1.01117E+5
   5.24971E+4   1.01094E+5
   5.01376E+4   1.00901E+5
   4.80044E+4   1.00969E+5
   4.57397E+4   1.00532E+5
   4.34557E+4   1.00291E+5
   4.15449E+4   1.00159E+5
   3.91751E+4   9.97522E+4
   3.73482E+4   9.96066E+4
   3.54375E+4   9.90938E+4
   3.31740E+4   9.87744E+4
   3.12337E+4   9.86771E+4
   2.91534E+4   9.80941E+4
   2.73769E+4   9.76165E+4
   2.55385E+4   9.71637E+4
   2.36968E+4   9.69563E+4
   2.16049E+4   9.63067E+4
   1.98019E+4   9.54990E+4
   1.79739E+4   9.52304E+4
   1.63003E+4   9.46755E+4
   1.47769E+4   9.41285E+4
   1.31400E+4   9.34526E+4
   1.13072E+4   9.28454E+4
   1.00341E+4   9.23035E+4
   8.21608E+3   9.16428E+4
   6.63586E+3   9.09760E+4
   5.36365E+3   9.03304E+4
   4.04292E+3   8.93251E+4
   2.44836E+3   8.89342E+4
   9.13028E+2   8.79769E+4
  -3.16670E+2   8.72638E+4
  -1.58613E+3   8.65796E+4
  -2.81681E+3   8.56218E+4
  -4.41358E+3   8.49957E+4
  -5.60117E+3   8.40133E+4
  -6.60942E+3   8.31111E+4
  -7.86099E+3   8.20629E+4
  -8.65696E+3   8.12138E+4
  -9.95406E+3   8.06347E+4
  -1.10648E+4   7.98801E+4
  -1.22763E+4   7.87956E+4
  -1.33061E+4   7.78681E+4
  -1.42678E+4   7.66020E+4
  -1.50813E+4   7.58043E+4
  -1.60875E+4   7.48182E+4
  -1.69604E+4   7.35550E+4
  -1.77842E+4   7.26093E+4
  -1.87112E+4   7.20838E+4
  -1.96515E+4   7.08930E+4
  -2.07360E+4   6.97453E+4
  -2.13597E+4   6.88646E+4
  -2.22006E+4   6.74304E+4
  -2.25674E+4   6.67131E+4
  -2.35509E+4   6.57898E+4
  -2.44130E+4   6.47993E+4
  -2.50598E+4   6.35976E+4
  -2.56090E+4   6.25689E+4
  -2.62498E+4   6.13217E+4
  -2.69861E+4   6.05185E+4
  -2.75719E+4   5.93007E+4
  -2.78031E+4   5.82771E+4
  -2.82618E+4   5.72804E+4
  -2.88476E+4   5.63962E+4
  -2.95421E+4   5.51597E+4
  -3.00268E+4   5.40839E+4
  -3.04794E+4   5.30513E+4
  -3.06132E+4   5.23823E+4
  -3.13574E+4   5.11652E+4
  -3.15546E+4   4.99322E+4
  -3.20667E+4   4.90224E+4
  -3.23129E+4   4.81682E+4
  -3.28831E+4   4.73435E+4
  -3.32450E+4   4.62770E+4
  -3.34779E+4   4.50227E+4
  -3.35980E+4   4.39776E+4
  -3.41270E+4   4.31892E+4
  -3.40616E+4   4.22888E+4
  -3.43768E+4   4.13090E+4
  -3.45476E+4   4.01858E+4
