 LCModel (Version 6.3-1N) Copyright: S.W. Provencher.          Ref.: Magn. Reson. Med. 30:672-679 (1993).                
 Slice_N1@17_19  28-Feb-2025 11:40:11
 27 lines in following concentration table = NCONC+1
    Conc.  %SD /Cr+PCr  Metabolite                                         
 3.29E-04   3% 3.2E-04 Mac                                                 
    3.731  16%   3.579 Cr                                                  
    4.610  13%   4.421 PCr                                                 
    8.168   9%   7.834 Ins                                                 
   10.974   6%  10.525 NAA                                                 
    7.789   9%   7.470 Tau                                                 
    0.677  87%   0.649 PCho                                                
    0.941  60%   0.902 GPC                                                 
   11.474   8%  11.005 Glu                                                 
    3.552  19%   3.407 Gln                                                 
    0.000 999%   0.000 Ala                                                 
    2.950  32%   2.829 Asc                                                 
    2.111  41%   2.025 Asp                                                 
    0.556  81%   0.534 GABA                                                
    0.478 134%   0.458 Glc                                                 
    1.727  23%   1.656 GSH                                                 
    0.000 999%   0.000 Lac                                                 
    1.244  35%   1.194 NAAG                                                
    0.984  89%   0.943 PE                                                  
    1.618  13%   1.552 GPC+PCho                                            
   12.219   6%  11.719 NAA+NAAG                                            
   15.026   7%  14.412 Glu+Gln                                             
    8.341   7%   8.000 Cr+PCr                                              
   12.219   6%  11.719 NAA+NAAG                                            
    8.341   7%   8.000 Cr+PCr                                              
   15.026   7%  14.412 Glu+Gln                                             
   6 lines in following misc. output table
  FWHM = 0.024 ppm    S/N =   7                                            
  Data shift = 0.033 ppm                                                   
  Ph: -87 deg       0.0 deg/ppm                                            
  alphaB,S = 1.7E-01,   3.2E+00                                            
   19 spline knots.   Ns = 5(1)                                            
  ( 3) 2 infls.   ( 2) 1 extrs.                                            
  480 points on ppm-axis = NY
      4.100000     4.091866     4.083733     4.075600     4.067466     4.059333     4.051199     4.043066     4.034933     4.026799
      4.018666     4.010532     4.002399     3.994265     3.986132     3.977998     3.969864     3.961731     3.953597     3.945463
      3.937330     3.929196     3.921062     3.912929     3.904795     3.896662     3.888528     3.880394     3.872261     3.864127
      3.855993     3.847860     3.839726     3.831592     3.823459     3.815325     3.807191     3.799058     3.790924     3.782790
      3.774657     3.766523     3.758389     3.750256     3.742122     3.733989     3.725855     3.717721     3.709588     3.701454
      3.693320     3.685187     3.677053     3.668919     3.660786     3.652652     3.644518     3.636385     3.628251     3.620117
      3.611984     3.603850     3.595716     3.587583     3.579449     3.571316     3.563182     3.555048     3.546915     3.538781
      3.530647     3.522514     3.514380     3.506246     3.498113     3.489979     3.481845     3.473712     3.465578     3.457444
      3.449311     3.441177     3.433043     3.424910     3.416776     3.408643     3.400509     3.392375     3.384242     3.376108
      3.367974     3.359841     3.351707     3.343573     3.335440     3.327306     3.319172     3.311039     3.302905     3.294771
      3.286638     3.278504     3.270370     3.262237     3.254103     3.245970     3.237836     3.229702     3.221569     3.213435
      3.205301     3.197168     3.189034     3.180900     3.172767     3.164633     3.156499     3.148366     3.140232     3.132098
      3.123965     3.115831     3.107697     3.099564     3.091430     3.083297     3.075163     3.067029     3.058896     3.050762
      3.042628     3.034495     3.026361     3.018227     3.010094     3.001960     2.993826     2.985693     2.977559     2.969425
      2.961292     2.953158     2.945024     2.936891     2.928757     2.920624     2.912490     2.904356     2.896223     2.888089
      2.879955     2.871822     2.863688     2.855554     2.847421     2.839287     2.831153     2.823020     2.814886     2.806752
      2.798619     2.790485     2.782351     2.774218     2.766084     2.757951     2.749817     2.741683     2.733550     2.725416
      2.717282     2.709149     2.701015     2.692881     2.684748     2.676614     2.668480     2.660347     2.652213     2.644079
      2.635946     2.627812     2.619678     2.611545     2.603411     2.595278     2.587144     2.579010     2.570877     2.562743
      2.554609     2.546476     2.538342     2.530208     2.522075     2.513941     2.505807     2.497674     2.489540     2.481406
      2.473273     2.465139     2.457006     2.448872     2.440738     2.432605     2.424471     2.416337     2.408204     2.400070
      2.391936     2.383803     2.375669     2.367535     2.359402     2.351268     2.343134     2.335001     2.326867     2.318733
      2.310600     2.302466     2.294333     2.286199     2.278065     2.269932     2.261798     2.253664     2.245531     2.237397
      2.229263     2.221130     2.212996     2.204862     2.196729     2.188595     2.180461     2.172328     2.164194     2.156060
      2.147927     2.139793     2.131660     2.123526     2.115392     2.107259     2.099125     2.090991     2.082858     2.074724
      2.066590     2.058457     2.050323     2.042189     2.034056     2.025922     2.017788     2.009655     2.001521     1.993387
      1.985254     1.977120     1.968987     1.960853     1.952719     1.944586     1.936452     1.928318     1.920185     1.912051
      1.903917     1.895784     1.887650     1.879516     1.871383     1.863249     1.855115     1.846982     1.838848     1.830714
      1.822581     1.814447     1.806314     1.798180     1.790046     1.781913     1.773779     1.765645     1.757512     1.749378
      1.741244     1.733111     1.724977     1.716843     1.708710     1.700576     1.692442     1.684309     1.676175     1.668041
      1.659908     1.651774     1.643641     1.635507     1.627373     1.619240     1.611106     1.602972     1.594839     1.586705
      1.578571     1.570438     1.562304     1.554170     1.546037     1.537903     1.529769     1.521636     1.513502     1.505368
      1.497235     1.489101     1.480968     1.472834     1.464700     1.456567     1.448433     1.440299     1.432166     1.424032
      1.415898     1.407765     1.399631     1.391497     1.383364     1.375230     1.367096     1.358963     1.350829     1.342695
      1.334562     1.326428     1.318295     1.310161     1.302027     1.293894     1.285760     1.277626     1.269493     1.261359
      1.253225     1.245092     1.236958     1.228824     1.220691     1.212557     1.204423     1.196290     1.188156     1.180022
      1.171889     1.163755     1.155622     1.147488     1.139354     1.131221     1.123087     1.114953     1.106820     1.098686
      1.090552     1.082419     1.074285     1.066151     1.058018     1.049884     1.041750     1.033617     1.025483     1.017349
      1.009216     1.001082     0.992949     0.984815     0.976681     0.968548     0.960414     0.952280     0.944147     0.936013
      0.927879     0.919746     0.911612     0.903478     0.895345     0.887211     0.879077     0.870944     0.862810     0.854676
      0.846543     0.838409     0.830276     0.822142     0.814008     0.805875     0.797741     0.789607     0.781474     0.773340
      0.765206     0.757073     0.748939     0.740805     0.732672     0.724538     0.716404     0.708271     0.700137     0.692003
      0.683870     0.675736     0.667603     0.659469     0.651335     0.643202     0.635068     0.626934     0.618801     0.610667
      0.602533     0.594400     0.586266     0.578132     0.569999     0.561865     0.553731     0.545598     0.537464     0.529330
      0.521197     0.513063     0.504930     0.496796     0.488662     0.480529     0.472395     0.464261     0.456128     0.447994
      0.439861     0.431727     0.423593     0.415460     0.407326     0.399192     0.391059     0.382925     0.374792     0.366658
      0.358524     0.350391     0.342257     0.334124     0.325990     0.317856     0.309723     0.301589     0.293455     0.285322
      0.277188     0.269055     0.260921     0.252787     0.244654     0.236520     0.228386     0.220253     0.212119     0.203986
 NY phased data points follow
  -1.01417E+02 -1.13994E+02 -1.24568E+02 -1.10280E+02 -1.15489E+02 -1.12800E+02 -9.10727E+01 -1.01029E+02 -1.14490E+02 -1.21384E+02
  -1.23709E+02 -1.24963E+02 -1.35804E+02 -1.42120E+02 -1.47320E+02 -1.40202E+02 -1.33366E+02 -1.63653E+02 -1.74109E+02 -1.94496E+02
  -2.07383E+02 -1.31624E+02 -1.30741E+02 -1.16358E+02 -4.08627E+01 -6.89722E+01 -7.16003E+01 -6.87059E+01 -7.47761E+01 -5.67977E+01
  -7.10037E+01 -6.86622E+01 -6.54490E+01 -6.95499E+01 -8.14284E+01 -8.06943E+01 -7.36917E+01 -9.33859E+01 -1.12266E+02 -1.42305E+02
  -1.62281E+02 -1.46917E+02 -1.34994E+02 -1.26521E+02 -9.54892E+01 -6.00268E+01 -4.60192E+01 -2.87459E+01 -1.20437E+01 -2.41848E+01
  -2.48303E+01 -3.43758E+01 -3.60666E+01 -4.73343E+01 -7.01350E+01 -6.15973E+01 -7.63320E+01 -6.86955E+01 -1.21289E+02 -1.20808E+02
  -4.67045E+01 -9.40583E+01 -7.54035E+01 -3.35486E+01 -2.57531E+01 -1.99702E+01 -3.92726E+01 -3.62605E+01 -9.89126E+01 -1.49009E+02
  -9.82437E+01 -7.92671E+01 -1.02586E+02 -6.38040E+01 -2.33794E+01 -2.11083E+01 -1.68062E+01 -9.98077E+00 -8.28633E+00 -5.53949E+00
  -9.06412E+00 -3.08876E+01 -3.52665E+01 -6.56293E+01 -1.00846E+02 -9.03324E+01 -7.18216E+01 -5.31711E+01 -1.87954E+01 -6.86888E+00
  -1.08313E+01  3.00514E+00 -8.39592E+00  7.17161E-01  1.70774E+01  2.91367E+01  3.56151E+01  3.41928E+01  3.67090E+01  8.12379E+00
   1.54099E+01  4.69404E+00 -2.30441E+01 -2.48675E+01 -5.38759E+01 -8.39106E+01 -8.93231E+01 -8.56967E+01 -9.81554E+01 -1.61772E+02
  -2.38730E+02 -1.97112E+02 -1.44414E+02 -1.45479E+02 -1.21186E+02 -1.03733E+02 -9.50110E+01 -9.57427E+01 -8.54271E+01 -7.36072E+01
  -6.17875E+01 -6.09710E+01 -5.95990E+01 -4.49231E+01 -4.02178E+01 -2.93544E+01 -2.12690E+01  1.14871E+01  3.66262E+01  7.64450E+01
   1.34930E+02  6.51288E+01 -9.39074E+01 -1.70885E+02 -1.60111E+02 -1.46357E+02 -1.41226E+02 -1.36447E+02 -1.18807E+02 -1.23898E+02
  -1.37302E+02 -1.27925E+02 -1.27630E+02 -1.18752E+02 -1.19998E+02 -1.21154E+02 -1.26121E+02 -1.26892E+02 -1.08946E+02 -1.19901E+02
  -1.14066E+02 -1.05044E+02 -1.05034E+02 -9.62751E+01 -9.59389E+01 -9.00049E+01 -1.00706E+02 -1.01078E+02 -9.74553E+01 -9.60498E+01
  -7.61209E+01 -7.53720E+01 -8.62595E+01 -8.04081E+01 -8.20229E+01 -9.41560E+01 -7.25364E+01 -7.74503E+01 -8.21973E+01 -6.90199E+01
  -7.50085E+01 -4.99304E+01 -3.50708E+01 -3.88130E+01 -6.48780E+01 -6.15520E+01 -4.15425E+01 -2.55733E+01 -2.60002E+01 -8.43347E+01
  -8.62560E+01 -1.03114E+02 -1.02788E+02 -8.78401E+01 -1.11573E+02 -1.04477E+02 -1.16646E+02 -1.03407E+02 -1.02468E+02 -9.85711E+01
  -9.38979E+01 -8.67845E+01 -7.59182E+01 -7.77123E+01 -4.67577E+01 -8.81633E+01 -8.16659E+01 -5.71885E+01 -7.39944E+01 -7.06259E+01
  -8.89501E+01 -5.47336E+01 -5.32946E+01 -6.26143E+01 -6.43216E+01 -7.58646E+01 -6.90262E+01 -9.81006E+01 -1.02032E+02 -1.10257E+02
  -1.03599E+02 -9.53367E+01 -1.03961E+02 -6.86583E+01 -5.68326E+01 -1.28586E+01  2.24174E+01 -2.86563E+00 -2.38080E-01 -2.60547E+01
  -4.96359E+01 -4.38222E+01 -4.47550E+01 -5.13085E+01 -5.81570E+01 -3.72266E+01 -3.79616E+01 -4.29653E+01 -4.87842E+01 -5.32374E+01
  -4.37034E+01 -6.10312E+01 -7.15507E+01 -8.35328E+01 -1.00406E+02 -1.20677E+02 -1.24377E+02 -1.37795E+02 -1.45348E+02 -1.24675E+02
  -1.32053E+02 -1.09675E+02 -1.00534E+02 -9.65790E+01 -7.69319E+01 -6.79791E+01 -8.26233E+01 -1.00554E+02 -8.67638E+01 -1.08146E+02
  -9.66482E+01 -1.10886E+02 -1.16495E+02 -1.09216E+02 -1.40745E+02 -1.92300E+02 -2.53537E+02  8.20176E+00  2.13142E+02  1.27668E+02
   1.26108E+02  1.00471E+02  8.37781E+01  7.31501E+01  5.53344E+01  5.07875E+01  1.84939E+01  2.53646E+01  2.47724E+01  2.74266E+01
   2.93944E+01  3.15292E+01  3.39688E+01  2.80831E+01  2.97826E+01  2.73087E+01  2.38350E+01  1.38734E+01  1.82710E+01  1.92529E+01
   1.67291E+01  1.15598E+01  7.22400E+00  1.00829E+01 -2.22325E+00 -8.09347E+00 -6.48393E+00 -7.41874E+00 -1.87112E+01 -1.35446E+01
  -8.02125E+00 -2.39397E+01 -2.77111E+01 -2.80949E+01 -3.37547E+01 -4.43628E+01 -4.22399E+01 -5.37366E+01 -6.03249E+01 -5.35581E+01
  -5.58557E+01 -3.82198E+01 -3.56031E+01 -3.33736E+01 -3.40526E+01 -3.16530E+01 -3.42034E+01 -3.55930E+01 -1.20500E+01 -2.23487E+01
  -1.19383E+01 -2.48946E+00 -9.23130E+00 -1.58063E+01 -2.57849E+01 -8.36234E+00 -6.63792E+00  1.30358E-01  1.68821E+01  2.86361E+01
   2.33979E+01  2.08824E+01  2.09475E+01  1.18831E+01  3.38255E+00 -1.50850E+01 -1.55857E+01 -2.76115E+01 -3.39629E+01 -3.77589E+01
  -5.39053E+01 -7.01303E+01 -7.30689E+01 -7.16572E+01 -7.52295E+01 -4.94248E+01 -5.17369E+01 -4.51981E+01 -3.49477E+01 -2.65178E+01
  -1.66478E+01 -4.41671E+01 -4.38829E+01 -3.69233E+01 -3.38616E+01 -2.52025E+01 -1.54597E+00 -1.08188E+00 -4.45169E+00  7.14589E+00
  -8.34291E+00 -8.44400E+00 -9.37399E+00  3.45916E+00 -1.39562E+00 -2.13853E+01 -2.08698E+01 -2.19517E+01 -2.20410E+01 -2.94542E+01
  -2.31728E+01 -2.89057E+01 -3.55403E+01 -2.00145E+01 -7.90186E+00 -2.69240E+00  2.71748E+00  1.09947E+00 -4.94078E-01  3.90879E+00
   7.80959E+00  1.00479E+01  5.74658E+00  2.45154E+01  2.73079E+01  2.69255E+01  3.71641E+01  3.22099E+01  4.22288E+01  3.60725E+01
   5.02351E+01  7.43132E+01  7.12042E+01  8.21755E+01  8.49505E+01  8.67804E+01  1.04521E+02  1.14450E+02  1.21358E+02  1.20514E+02
   1.04521E+02  1.05089E+02  1.06343E+02  7.34675E+01  4.97372E+01  5.00092E+01  4.50202E+01  4.61023E+01  3.58699E+01  1.05792E+01
   1.21381E+00 -8.68329E+00 -2.62453E+01 -2.83449E+01 -3.13145E+01 -4.41541E+01 -4.52386E+01 -4.59777E+01 -3.56355E+01 -3.44625E+01
  -4.30218E+01 -4.31205E+01 -4.63717E+01 -4.16401E+01 -5.05870E+01 -4.16136E+01 -3.89333E+01 -4.91774E+01 -4.09498E+01 -4.71751E+01
  -3.49018E+01 -3.12433E+01 -3.36795E+01 -3.35201E+01 -5.71421E+01 -4.43258E+01 -3.44836E+01 -4.80204E+01 -3.77936E+01 -4.20207E+01
  -4.20282E+01 -3.75179E+01 -4.17138E+01 -4.25596E+01 -4.97704E+01 -3.26439E+01 -4.08591E+01 -4.45178E+01 -3.13896E+01 -5.55051E+01
  -4.24704E+01 -3.34140E+01 -5.23978E+01 -4.84609E+01 -3.87871E+01 -2.74661E+01 -3.60081E+01 -4.33272E+01 -3.11008E+01 -3.60472E+01
  -2.94991E+01 -2.42480E+01 -3.11318E+01 -3.79417E+01 -4.98927E+01 -4.10423E+01 -4.30968E+01 -3.14169E+01 -2.37885E+01 -3.26652E+01
  -2.70234E+01 -3.70882E+01 -4.35004E+01 -4.64063E+01 -3.65439E+01 -3.00575E+01 -3.11037E+01 -4.31624E+01 -4.71596E+01 -2.77715E+01
  -3.36256E+01 -3.78439E+01 -3.89004E+01 -3.82637E+01 -3.11624E+01 -2.84581E+01 -3.27768E+01 -3.13826E+01 -3.64791E+01 -3.13422E+01
 NY points of the fit to the data follow
  -1.26220E+02 -1.35525E+02 -1.47398E+02 -1.57890E+02 -1.47219E+02 -1.08826E+02 -8.43187E+01 -9.42165E+01 -1.09582E+02 -1.19451E+02
  -1.27193E+02 -1.32243E+02 -1.30696E+02 -1.28552E+02 -1.28359E+02 -1.28678E+02 -1.35446E+02 -1.47939E+02 -1.67626E+02 -1.88854E+02
  -1.89398E+02 -1.37423E+02 -1.16676E+02 -1.10494E+02 -6.07213E+01 -5.10957E+01 -6.31475E+01 -5.78679E+01 -5.48658E+01 -5.54289E+01
  -5.54137E+01 -5.62959E+01 -5.69690E+01 -5.85658E+01 -6.14208E+01 -6.59700E+01 -7.23421E+01 -8.19398E+01 -1.00260E+02 -1.28443E+02
  -1.59915E+02 -1.49229E+02 -1.26077E+02 -1.15041E+02 -9.12635E+01 -6.22945E+01 -3.94762E+01 -3.56501E+01 -3.19654E+01 -2.94443E+01
  -3.39892E+01 -3.82612E+01 -4.53428E+01 -5.62519E+01 -7.01775E+01 -8.34836E+01 -8.12073E+01 -8.26074E+01 -1.13637E+02 -1.06793E+02
  -7.14641E+01 -8.24664E+01 -7.35070E+01 -3.40161E+01 -2.37247E+01 -2.24733E+01 -2.30378E+01 -4.32246E+01 -9.00918E+01 -1.21329E+02
  -9.66315E+01 -8.14575E+01 -8.92803E+01 -6.23704E+01 -3.07516E+01 -2.16971E+01 -1.56560E+01 -1.12114E+01 -8.66149E+00 -7.30924E+00
  -1.19873E+01 -3.02481E+01 -5.04446E+01 -8.17429E+01 -1.00952E+02 -9.20640E+01 -8.17783E+01 -5.60945E+01 -3.38177E+01 -2.61855E+01
  -1.87465E+01 -1.35232E+01 -8.83408E+00 -4.06279E+00  8.25240E-01  6.96341E+00  1.21493E+01  1.42252E+01  9.12334E+00  1.79066E+00
   9.94340E+00  8.16238E+00 -9.67459E+00 -2.68166E+01 -4.48254E+01 -8.13554E+01 -8.95140E+01 -7.24623E+01 -8.99257E+01 -1.64101E+02
  -2.31366E+02 -2.02173E+02 -1.55525E+02 -1.37485E+02 -1.16954E+02 -1.02266E+02 -9.47666E+01 -8.78995E+01 -8.05917E+01 -7.31661E+01
  -6.66512E+01 -5.98582E+01 -5.20180E+01 -4.34171E+01 -3.34943E+01 -2.06418E+01 -4.98207E+00  1.48809E+01  4.47463E+01  8.61526E+01
   1.18594E+02  6.99783E+01 -9.56336E+01 -1.86060E+02 -1.55422E+02 -1.44793E+02 -1.39644E+02 -1.23935E+02 -1.17171E+02 -1.18306E+02
  -1.20958E+02 -1.23245E+02 -1.25877E+02 -1.24710E+02 -1.25831E+02 -1.27339E+02 -1.23904E+02 -1.20486E+02 -1.17491E+02 -1.13872E+02
  -1.09972E+02 -1.06415E+02 -1.03429E+02 -1.01705E+02 -9.89577E+01 -9.44980E+01 -9.28282E+01 -9.39171E+01 -9.36626E+01 -9.00729E+01
  -8.53839E+01 -8.25929E+01 -8.50428E+01 -9.10502E+01 -9.13885E+01 -8.83064E+01 -8.58317E+01 -8.42650E+01 -8.50682E+01 -8.52566E+01
  -7.62655E+01 -5.30853E+01 -3.94341E+01 -5.34891E+01 -7.18328E+01 -6.48480E+01 -3.88920E+01 -3.18087E+01 -5.39472E+01 -7.95749E+01
  -8.86281E+01 -9.08027E+01 -9.42275E+01 -9.54650E+01 -9.69041E+01 -9.77074E+01 -9.73996E+01 -9.67639E+01 -9.41869E+01 -9.17824E+01
  -8.88913E+01 -8.53242E+01 -8.48865E+01 -7.49056E+01 -5.42498E+01 -6.34269E+01 -7.60945E+01 -5.77083E+01 -5.70605E+01 -6.19172E+01
  -6.52345E+01 -6.65884E+01 -4.83984E+01 -4.73525E+01 -5.92719E+01 -6.73585E+01 -7.55710E+01 -8.39832E+01 -9.63367E+01 -1.06378E+02
  -1.12041E+02 -1.14499E+02 -1.03540E+02 -8.14431E+01 -6.50305E+01 -1.33080E+01  1.50013E+01  5.16835E+00  1.45274E+01 -8.61890E+00
  -3.74573E+01 -4.08034E+01 -4.35939E+01 -4.09799E+01 -3.60520E+01 -3.52948E+01 -3.47919E+01 -3.87527E+01 -4.70382E+01 -5.76793E+01
  -6.93758E+01 -8.27025E+01 -9.61839E+01 -1.06712E+02 -1.19594E+02 -1.32302E+02 -1.37050E+02 -1.42926E+02 -1.44055E+02 -1.35816E+02
  -1.32255E+02 -1.22804E+02 -1.06501E+02 -9.95782E+01 -8.54881E+01 -7.85489E+01 -8.28236E+01 -8.27213E+01 -9.35901E+01 -9.70182E+01
  -1.01815E+02 -1.13874E+02 -1.14973E+02 -1.21069E+02 -1.40182E+02 -2.10142E+02 -2.55076E+02 -7.77160E+00  1.78023E+02  1.14592E+02
   1.02142E+02  9.19984E+01  6.26086E+01  4.87133E+01  4.23109E+01  3.91272E+01  3.53388E+01  3.11139E+01  2.73441E+01  2.39486E+01
   2.23259E+01  2.13504E+01  2.24107E+01  2.33897E+01  2.28945E+01  2.35853E+01  2.23649E+01  1.98555E+01  1.85425E+01  1.71694E+01
   1.54638E+01  1.29768E+01  1.00773E+01  7.55265E+00  5.69941E+00  3.60882E+00  3.80556E-01 -2.00333E+00 -4.37969E+00 -7.57573E+00
  -1.10335E+01 -1.58195E+01 -2.03648E+01 -2.44777E+01 -2.98167E+01 -3.39315E+01 -3.50891E+01 -3.42047E+01 -3.15336E+01 -2.81217E+01
  -2.49878E+01 -2.21238E+01 -1.83598E+01 -1.45314E+01 -1.13655E+01 -8.24861E+00 -5.63027E+00 -3.44832E+00 -9.77708E-01  2.71472E+00
   6.50170E+00  8.94015E+00  1.11982E+01  1.30118E+01  1.49228E+01  1.73765E+01  1.82205E+01  1.80711E+01  1.84920E+01  1.68502E+01
   1.36645E+01  1.17158E+01  9.45937E+00  4.73070E+00  2.62139E-01 -3.40585E+00 -8.45636E+00 -1.54141E+01 -2.60270E+01 -3.83130E+01
  -4.91205E+01 -5.82502E+01 -6.58135E+01 -7.08565E+01 -7.20667E+01 -6.95095E+01 -6.37369E+01 -5.60147E+01 -5.00496E+01 -4.58159E+01
  -4.29294E+01 -4.14778E+01 -3.84576E+01 -3.32745E+01 -2.78619E+01 -2.21560E+01 -1.68145E+01 -1.44785E+01 -1.41941E+01 -1.35961E+01
  -1.29989E+01 -1.43608E+01 -1.72119E+01 -2.06986E+01 -2.61385E+01 -3.24716E+01 -3.74328E+01 -3.92039E+01 -3.92406E+01 -3.80430E+01
  -3.45562E+01 -3.07891E+01 -2.61423E+01 -2.09009E+01 -1.62026E+01 -1.14463E+01 -7.13923E+00 -3.24000E+00  4.46031E-01  3.92961E+00
   7.93493E+00  1.19654E+01  1.54601E+01  1.95937E+01  2.38158E+01  2.78156E+01  3.36352E+01  4.03550E+01  4.59790E+01  5.32001E+01
   6.26245E+01  7.04221E+01  7.82246E+01  8.85131E+01  9.91223E+01  1.07783E+02  1.15007E+02  1.19057E+02  1.16884E+02  1.07923E+02
   9.33731E+01  7.74543E+01  6.42297E+01  5.42283E+01  4.55154E+01  3.92943E+01  3.39164E+01  2.56936E+01  1.46532E+01  3.77636E+00
  -6.85979E+00 -1.80511E+01 -2.52714E+01 -2.97715E+01 -3.40324E+01 -3.68771E+01 -3.82470E+01 -3.85921E+01 -3.93315E+01 -4.03047E+01
  -4.12395E+01 -4.23786E+01 -4.27373E+01 -4.25111E+01 -4.21982E+01 -4.25100E+01 -4.22945E+01 -4.13657E+01 -4.13511E+01 -4.24295E+01
  -4.26759E+01 -4.07347E+01 -4.03162E+01 -4.12416E+01 -4.10559E+01 -4.04184E+01 -4.00798E+01 -4.04456E+01 -4.07533E+01 -4.01708E+01
  -3.88670E+01 -3.86909E+01 -3.90066E+01 -3.90042E+01 -3.93906E+01 -3.94777E+01 -3.90616E+01 -3.84459E+01 -3.83609E+01 -3.77201E+01
  -3.72264E+01 -3.72998E+01 -3.70070E+01 -3.65992E+01 -3.66169E+01 -3.74141E+01 -3.78203E+01 -3.73863E+01 -3.67432E+01 -3.65908E+01
  -3.64012E+01 -3.59317E+01 -3.64863E+01 -3.68701E+01 -3.59233E+01 -3.54250E+01 -3.54693E+01 -3.49117E+01 -3.48107E+01 -3.48109E+01
  -3.44379E+01 -3.41963E+01 -3.42744E+01 -3.44489E+01 -3.47385E+01 -3.48013E+01 -3.44380E+01 -3.43275E+01 -3.33069E+01 -3.22377E+01
  -3.19476E+01 -3.23631E+01 -3.29899E+01 -3.33538E+01 -3.32059E+01 -3.24761E+01 -3.25849E+01 -3.26934E+01 -3.17910E+01 -3.18145E+01
 NY background values follow
    -8.918E+01   -8.889E+01   -8.859E+01   -8.830E+01   -8.801E+01   -8.771E+01   -8.742E+01   -8.712E+01   -8.682E+01   -8.652E+01
    -8.622E+01   -8.591E+01   -8.561E+01   -8.530E+01   -8.499E+01   -8.468E+01   -8.436E+01   -8.404E+01   -8.372E+01   -8.339E+01
    -8.306E+01   -8.273E+01   -8.240E+01   -8.206E+01   -8.171E+01   -8.136E+01   -8.101E+01   -8.065E+01   -8.029E+01   -7.993E+01
    -7.955E+01   -7.918E+01   -7.880E+01   -7.841E+01   -7.802E+01   -7.763E+01   -7.723E+01   -7.682E+01   -7.642E+01   -7.601E+01
    -7.560E+01   -7.518E+01   -7.476E+01   -7.434E+01   -7.392E+01   -7.350E+01   -7.307E+01   -7.264E+01   -7.222E+01   -7.179E+01
    -7.135E+01   -7.092E+01   -7.049E+01   -7.006E+01   -6.963E+01   -6.920E+01   -6.876E+01   -6.833E+01   -6.791E+01   -6.748E+01
    -6.705E+01   -6.662E+01   -6.620E+01   -6.578E+01   -6.536E+01   -6.494E+01   -6.453E+01   -6.412E+01   -6.371E+01   -6.330E+01
    -6.290E+01   -6.250E+01   -6.211E+01   -6.172E+01   -6.133E+01   -6.095E+01   -6.057E+01   -6.020E+01   -5.983E+01   -5.947E+01
    -5.911E+01   -5.876E+01   -5.841E+01   -5.807E+01   -5.774E+01   -5.741E+01   -5.709E+01   -5.678E+01   -5.647E+01   -5.617E+01
    -5.587E+01   -5.559E+01   -5.531E+01   -5.504E+01   -5.477E+01   -5.451E+01   -5.426E+01   -5.402E+01   -5.378E+01   -5.355E+01
    -5.332E+01   -5.310E+01   -5.288E+01   -5.267E+01   -5.247E+01   -5.227E+01   -5.208E+01   -5.189E+01   -5.171E+01   -5.153E+01
    -5.135E+01   -5.118E+01   -5.101E+01   -5.085E+01   -5.069E+01   -5.054E+01   -5.039E+01   -5.024E+01   -5.009E+01   -4.995E+01
    -4.981E+01   -4.968E+01   -4.954E+01   -4.941E+01   -4.928E+01   -4.916E+01   -4.904E+01   -4.892E+01   -4.880E+01   -4.869E+01
    -4.858E+01   -4.847E+01   -4.836E+01   -4.826E+01   -4.816E+01   -4.806E+01   -4.797E+01   -4.788E+01   -4.779E+01   -4.770E+01
    -4.762E+01   -4.754E+01   -4.746E+01   -4.739E+01   -4.732E+01   -4.725E+01   -4.718E+01   -4.712E+01   -4.706E+01   -4.700E+01
    -4.695E+01   -4.690E+01   -4.685E+01   -4.680E+01   -4.676E+01   -4.672E+01   -4.668E+01   -4.664E+01   -4.661E+01   -4.658E+01
    -4.655E+01   -4.652E+01   -4.650E+01   -4.648E+01   -4.646E+01   -4.644E+01   -4.643E+01   -4.642E+01   -4.641E+01   -4.640E+01
    -4.639E+01   -4.639E+01   -4.639E+01   -4.639E+01   -4.639E+01   -4.639E+01   -4.639E+01   -4.640E+01   -4.641E+01   -4.642E+01
    -4.643E+01   -4.644E+01   -4.646E+01   -4.647E+01   -4.649E+01   -4.651E+01   -4.653E+01   -4.655E+01   -4.657E+01   -4.660E+01
    -4.662E+01   -4.665E+01   -4.668E+01   -4.670E+01   -4.673E+01   -4.676E+01   -4.679E+01   -4.683E+01   -4.686E+01   -4.689E+01
    -4.693E+01   -4.696E+01   -4.700E+01   -4.703E+01   -4.707E+01   -4.710E+01   -4.714E+01   -4.718E+01   -4.722E+01   -4.726E+01
    -4.730E+01   -4.734E+01   -4.738E+01   -4.742E+01   -4.746E+01   -4.750E+01   -4.754E+01   -4.759E+01   -4.764E+01   -4.768E+01
    -4.774E+01   -4.779E+01   -4.784E+01   -4.790E+01   -4.796E+01   -4.803E+01   -4.809E+01   -4.816E+01   -4.824E+01   -4.832E+01
    -4.840E+01   -4.848E+01   -4.857E+01   -4.867E+01   -4.877E+01   -4.887E+01   -4.898E+01   -4.909E+01   -4.921E+01   -4.934E+01
    -4.947E+01   -4.961E+01   -4.975E+01   -4.990E+01   -5.005E+01   -5.021E+01   -5.037E+01   -5.053E+01   -5.070E+01   -5.088E+01
    -5.106E+01   -5.124E+01   -5.142E+01   -5.161E+01   -5.180E+01   -5.199E+01   -5.219E+01   -5.239E+01   -5.259E+01   -5.279E+01
    -5.299E+01   -5.319E+01   -5.340E+01   -5.360E+01   -5.381E+01   -5.401E+01   -5.422E+01   -5.442E+01   -5.462E+01   -5.483E+01
    -5.503E+01   -5.523E+01   -5.543E+01   -5.563E+01   -5.582E+01   -5.601E+01   -5.620E+01   -5.638E+01   -5.655E+01   -5.672E+01
    -5.688E+01   -5.704E+01   -5.719E+01   -5.733E+01   -5.746E+01   -5.758E+01   -5.769E+01   -5.779E+01   -5.788E+01   -5.795E+01
    -5.802E+01   -5.807E+01   -5.811E+01   -5.813E+01   -5.814E+01   -5.814E+01   -5.812E+01   -5.808E+01   -5.802E+01   -5.795E+01
    -5.786E+01   -5.775E+01   -5.762E+01   -5.748E+01   -5.732E+01   -5.714E+01   -5.695E+01   -5.674E+01   -5.652E+01   -5.628E+01
    -5.602E+01   -5.576E+01   -5.548E+01   -5.518E+01   -5.487E+01   -5.456E+01   -5.422E+01   -5.388E+01   -5.353E+01   -5.316E+01
    -5.279E+01   -5.240E+01   -5.201E+01   -5.160E+01   -5.119E+01   -5.077E+01   -5.034E+01   -4.990E+01   -4.946E+01   -4.901E+01
    -4.855E+01   -4.809E+01   -4.762E+01   -4.715E+01   -4.667E+01   -4.619E+01   -4.570E+01   -4.521E+01   -4.472E+01   -4.423E+01
    -4.373E+01   -4.324E+01   -4.274E+01   -4.224E+01   -4.174E+01   -4.125E+01   -4.075E+01   -4.025E+01   -3.976E+01   -3.927E+01
    -3.878E+01   -3.830E+01   -3.782E+01   -3.734E+01   -3.687E+01   -3.640E+01   -3.594E+01   -3.548E+01   -3.503E+01   -3.459E+01
    -3.415E+01   -3.372E+01   -3.330E+01   -3.289E+01   -3.248E+01   -3.209E+01   -3.169E+01   -3.131E+01   -3.094E+01   -3.057E+01
    -3.021E+01   -2.986E+01   -2.951E+01   -2.918E+01   -2.885E+01   -2.853E+01   -2.822E+01   -2.792E+01   -2.762E+01   -2.733E+01
    -2.706E+01   -2.678E+01   -2.652E+01   -2.627E+01   -2.602E+01   -2.579E+01   -2.556E+01   -2.534E+01   -2.513E+01   -2.492E+01
    -2.473E+01   -2.454E+01   -2.437E+01   -2.420E+01   -2.404E+01   -2.389E+01   -2.374E+01   -2.361E+01   -2.348E+01   -2.336E+01
    -2.324E+01   -2.314E+01   -2.304E+01   -2.295E+01   -2.287E+01   -2.279E+01   -2.272E+01   -2.266E+01   -2.260E+01   -2.255E+01
    -2.251E+01   -2.248E+01   -2.245E+01   -2.242E+01   -2.241E+01   -2.240E+01   -2.239E+01   -2.239E+01   -2.240E+01   -2.241E+01
    -2.243E+01   -2.245E+01   -2.248E+01   -2.251E+01   -2.255E+01   -2.259E+01   -2.264E+01   -2.269E+01   -2.275E+01   -2.281E+01
    -2.287E+01   -2.294E+01   -2.301E+01   -2.309E+01   -2.317E+01   -2.325E+01   -2.333E+01   -2.342E+01   -2.351E+01   -2.361E+01
    -2.370E+01   -2.380E+01   -2.390E+01   -2.401E+01   -2.411E+01   -2.422E+01   -2.433E+01   -2.444E+01   -2.455E+01   -2.466E+01
    -2.477E+01   -2.489E+01   -2.500E+01   -2.512E+01   -2.524E+01   -2.535E+01   -2.547E+01   -2.559E+01   -2.571E+01   -2.583E+01
    -2.596E+01   -2.608E+01   -2.620E+01   -2.633E+01   -2.645E+01   -2.657E+01   -2.670E+01   -2.682E+01   -2.695E+01   -2.707E+01
    -2.720E+01   -2.733E+01   -2.745E+01   -2.758E+01   -2.770E+01   -2.783E+01   -2.796E+01   -2.808E+01   -2.821E+01   -2.834E+01
 Mac      Conc. = 3.29E-04
  -1.12130E+02 -1.13028E+02 -1.13130E+02 -1.12909E+02 -1.12574E+02 -1.12494E+02 -1.13474E+02 -1.15255E+02 -1.17399E+02 -1.19563E+02
  -1.20975E+02 -1.21577E+02 -1.20976E+02 -1.20499E+02 -1.19838E+02 -1.20156E+02 -1.23462E+02 -1.26793E+02 -1.26195E+02 -1.18068E+02
  -1.09846E+02 -1.06601E+02 -1.01336E+02 -9.55942E+01 -9.43477E+01 -9.41365E+01 -9.28267E+01 -9.06970E+01 -8.83627E+01 -8.54608E+01
  -8.22852E+01 -8.03656E+01 -7.88100E+01 -7.74086E+01 -7.63729E+01 -7.69088E+01 -7.81611E+01 -7.78039E+01 -7.48457E+01 -6.97685E+01
  -6.60096E+01 -6.58135E+01 -6.72895E+01 -6.70637E+01 -6.52550E+01 -6.26975E+01 -6.00305E+01 -5.94620E+01 -5.98741E+01 -6.06406E+01
  -6.18921E+01 -6.38330E+01 -6.54016E+01 -6.53170E+01 -6.55760E+01 -6.58068E+01 -6.57430E+01 -6.53617E+01 -6.30917E+01 -5.98091E+01
  -5.84246E+01 -5.69429E+01 -5.35611E+01 -5.22276E+01 -5.31517E+01 -5.36977E+01 -5.52099E+01 -5.59659E+01 -5.55764E+01 -5.58144E+01
  -5.65616E+01 -5.52817E+01 -5.03734E+01 -4.58354E+01 -4.36066E+01 -4.22719E+01 -4.12528E+01 -4.15658E+01 -4.25723E+01 -4.34834E+01
  -4.41206E+01 -4.42068E+01 -4.45256E+01 -4.49241E+01 -4.41053E+01 -4.20988E+01 -4.10420E+01 -3.94722E+01 -3.80152E+01 -3.70282E+01
  -3.62650E+01 -3.57351E+01 -3.47206E+01 -3.43458E+01 -3.43149E+01 -3.42458E+01 -3.60486E+01 -3.90805E+01 -4.17450E+01 -4.52765E+01
  -4.80539E+01 -4.89295E+01 -5.02710E+01 -5.35664E+01 -5.69753E+01 -6.08238E+01 -6.76004E+01 -7.66840E+01 -8.60948E+01 -9.14504E+01
