 LCModel (Version 6.3-1N) Copyright: S.W. Provencher.          Ref.: Magn. Reson. Med. 30:672-679 (1993).                
 Slice_N1@16_10  28-Feb-2025 11:40:30
 27 lines in following concentration table = NCONC+1
    Conc.  %SD /Cr+PCr  Metabolite                                         
 1.60E-04  10% 1.1E-04 Mac                                                 
    7.589  41%   5.218 Cr                                                  
    4.045  77%   2.782 PCr                                                 
    7.428  17%   5.108 Ins                                                 
   13.394   9%   9.210 NAA                                                 
    7.952  18%   5.468 Tau                                                 
    2.202  22%   1.514 PCho                                                
    0.000 999%   0.000 GPC                                                 
   10.978  13%   7.548 Glu                                                 
    3.371  33%   2.318 Gln                                                 
    0.000 999%   0.000 Ala                                                 
    2.471  74%   1.699 Asc                                                 
    3.364  44%   2.313 Asp                                                 
    0.769 103%   0.529 GABA                                                
    0.573 174%   0.394 Glc                                                 
    1.492  44%   1.026 GSH                                                 
    7.848  13%   5.396 Lac                                                 
    2.609  45%   1.794 NAAG                                                
    1.861 104%   1.280 PE                                                  
    2.202  22%   1.514 GPC+PCho                                            
   16.002   7%  11.003 NAA+NAAG                                            
   14.349  13%   9.867 Glu+Gln                                             
   11.634   8%   8.000 Cr+PCr                                              
   16.002   7%  11.003 NAA+NAAG                                            
   11.634   8%   8.000 Cr+PCr                                              
   14.349  13%   9.867 Glu+Gln                                             
   6 lines in following misc. output table
  FWHM = 0.057 ppm    S/N =   3                                            
  Data shift =-0.008 ppm                                                   
  Ph: 176 deg       0.0 deg/ppm                                            
  alphaB,S = 9.1E-02,   7.4E+01                                            
   19 spline knots.   Ns = 6(1)                                            
  ( 8) 2 infls.   ( 2) 1 extrs.                                            
  480 points on ppm-axis = NY
      4.100000     4.091866     4.083733     4.075600     4.067466     4.059333     4.051199     4.043066     4.034933     4.026799
      4.018666     4.010532     4.002399     3.994265     3.986132     3.977998     3.969864     3.961731     3.953597     3.945463
      3.937330     3.929196     3.921062     3.912929     3.904795     3.896662     3.888528     3.880394     3.872261     3.864127
      3.855993     3.847860     3.839726     3.831592     3.823459     3.815325     3.807191     3.799058     3.790924     3.782790
      3.774657     3.766523     3.758389     3.750256     3.742122     3.733989     3.725855     3.717721     3.709588     3.701454
      3.693320     3.685187     3.677053     3.668919     3.660786     3.652652     3.644518     3.636385     3.628251     3.620117
      3.611984     3.603850     3.595716     3.587583     3.579449     3.571316     3.563182     3.555048     3.546915     3.538781
      3.530647     3.522514     3.514380     3.506246     3.498113     3.489979     3.481845     3.473712     3.465578     3.457444
      3.449311     3.441177     3.433043     3.424910     3.416776     3.408643     3.400509     3.392375     3.384242     3.376108
      3.367974     3.359841     3.351707     3.343573     3.335440     3.327306     3.319172     3.311039     3.302905     3.294771
      3.286638     3.278504     3.270370     3.262237     3.254103     3.245970     3.237836     3.229702     3.221569     3.213435
      3.205301     3.197168     3.189034     3.180900     3.172767     3.164633     3.156499     3.148366     3.140232     3.132098
      3.123965     3.115831     3.107697     3.099564     3.091430     3.083297     3.075163     3.067029     3.058896     3.050762
      3.042628     3.034495     3.026361     3.018227     3.010094     3.001960     2.993826     2.985693     2.977559     2.969425
      2.961292     2.953158     2.945024     2.936891     2.928757     2.920624     2.912490     2.904356     2.896223     2.888089
      2.879955     2.871822     2.863688     2.855554     2.847421     2.839287     2.831153     2.823020     2.814886     2.806752
      2.798619     2.790485     2.782351     2.774218     2.766084     2.757951     2.749817     2.741683     2.733550     2.725416
      2.717282     2.709149     2.701015     2.692881     2.684748     2.676614     2.668480     2.660347     2.652213     2.644079
      2.635946     2.627812     2.619678     2.611545     2.603411     2.595278     2.587144     2.579010     2.570877     2.562743
      2.554609     2.546476     2.538342     2.530208     2.522075     2.513941     2.505807     2.497674     2.489540     2.481406
      2.473273     2.465139     2.457006     2.448872     2.440738     2.432605     2.424471     2.416337     2.408204     2.400070
      2.391936     2.383803     2.375669     2.367535     2.359402     2.351268     2.343134     2.335001     2.326867     2.318733
      2.310600     2.302466     2.294333     2.286199     2.278065     2.269932     2.261798     2.253664     2.245531     2.237397
      2.229263     2.221130     2.212996     2.204862     2.196729     2.188595     2.180461     2.172328     2.164194     2.156060
      2.147927     2.139793     2.131660     2.123526     2.115392     2.107259     2.099125     2.090991     2.082858     2.074724
      2.066590     2.058457     2.050323     2.042189     2.034056     2.025922     2.017788     2.009655     2.001521     1.993387
      1.985254     1.977120     1.968987     1.960853     1.952719     1.944586     1.936452     1.928318     1.920185     1.912051
      1.903917     1.895784     1.887650     1.879516     1.871383     1.863249     1.855115     1.846982     1.838848     1.830714
      1.822581     1.814447     1.806314     1.798180     1.790046     1.781913     1.773779     1.765645     1.757512     1.749378
      1.741244     1.733111     1.724977     1.716843     1.708710     1.700576     1.692442     1.684309     1.676175     1.668041
      1.659908     1.651774     1.643641     1.635507     1.627373     1.619240     1.611106     1.602972     1.594839     1.586705
      1.578571     1.570438     1.562304     1.554170     1.546037     1.537903     1.529769     1.521636     1.513502     1.505368
      1.497235     1.489101     1.480968     1.472834     1.464700     1.456567     1.448433     1.440299     1.432166     1.424032
      1.415898     1.407765     1.399631     1.391497     1.383364     1.375230     1.367096     1.358963     1.350829     1.342695
      1.334562     1.326428     1.318295     1.310161     1.302027     1.293894     1.285760     1.277626     1.269493     1.261359
      1.253225     1.245092     1.236958     1.228824     1.220691     1.212557     1.204423     1.196290     1.188156     1.180022
      1.171889     1.163755     1.155622     1.147488     1.139354     1.131221     1.123087     1.114953     1.106820     1.098686
      1.090552     1.082419     1.074285     1.066151     1.058018     1.049884     1.041750     1.033617     1.025483     1.017349
      1.009216     1.001082     0.992949     0.984815     0.976681     0.968548     0.960414     0.952280     0.944147     0.936013
      0.927879     0.919746     0.911612     0.903478     0.895345     0.887211     0.879077     0.870944     0.862810     0.854676
      0.846543     0.838409     0.830276     0.822142     0.814008     0.805875     0.797741     0.789607     0.781474     0.773340
      0.765206     0.757073     0.748939     0.740805     0.732672     0.724538     0.716404     0.708271     0.700137     0.692003
      0.683870     0.675736     0.667603     0.659469     0.651335     0.643202     0.635068     0.626934     0.618801     0.610667
      0.602533     0.594400     0.586266     0.578132     0.569999     0.561865     0.553731     0.545598     0.537464     0.529330
      0.521197     0.513063     0.504930     0.496796     0.488662     0.480529     0.472395     0.464261     0.456128     0.447994
      0.439861     0.431727     0.423593     0.415460     0.407326     0.399192     0.391059     0.382925     0.374792     0.366658
      0.358524     0.350391     0.342257     0.334124     0.325990     0.317856     0.309723     0.301589     0.293455     0.285322
      0.277188     0.269055     0.260921     0.252787     0.244654     0.236520     0.228386     0.220253     0.212119     0.203986
 NY phased data points follow
  -1.13007E+02 -1.17885E+02 -1.12528E+02 -1.17976E+02 -1.23220E+02 -1.29939E+02 -1.17612E+02 -1.23510E+02 -1.33603E+02 -1.11401E+02
  -1.23566E+02 -1.24665E+02 -1.23751E+02 -1.33647E+02 -1.45282E+02 -1.46594E+02 -1.44658E+02 -1.62178E+02 -1.57364E+02 -1.54880E+02
  -1.50287E+02 -1.51284E+02 -1.55766E+02 -1.31460E+02 -1.15126E+02 -9.76752E+01 -7.67596E+01 -7.58077E+01 -7.25922E+01 -6.89289E+01
  -7.15300E+01 -7.26449E+01 -7.44648E+01 -7.67819E+01 -7.36993E+01 -7.70235E+01 -8.86565E+01 -9.22408E+01 -1.06352E+02 -1.25971E+02
  -1.29717E+02 -1.18287E+02 -1.27191E+02 -1.14724E+02 -9.80989E+01 -1.01538E+02 -6.50959E+01 -5.26347E+01 -3.53355E+01 -4.59393E+01
  -4.94599E+01 -3.02698E+01 -4.89714E+01 -3.98996E+01 -5.79627E+01 -6.08305E+01 -7.36386E+01 -7.96684E+01 -7.97906E+01 -8.98002E+01
  -6.99037E+01 -8.25862E+01 -6.86319E+01 -5.71531E+01 -4.03601E+01 -4.77606E+01 -5.08438E+01 -4.76592E+01 -8.36165E+01 -8.24387E+01
  -8.74268E+01 -8.45159E+01 -8.82368E+01 -6.50046E+01 -4.98876E+01 -4.08473E+01 -1.87498E+01 -3.82708E+01 -3.05252E+01 -2.58630E+01
  -3.69420E+01 -4.88140E+01 -3.92104E+01 -4.81037E+01 -6.18089E+01 -6.52693E+01 -7.18667E+01 -5.62983E+01 -5.41844E+01 -3.86702E+01
  -2.96713E+01 -1.77696E+01 -1.08548E+01  1.91399E+00  6.79094E+00  1.32178E+00  4.15312E+00 -1.30419E+01 -1.37689E+00 -5.49265E+00
  -2.75251E+01 -3.37497E+01 -2.61818E+01 -4.97913E+01 -6.83515E+01 -7.41005E+01 -9.61431E+01 -8.61771E+01 -9.91622E+01 -1.27601E+02
  -1.58941E+02 -1.54922E+02 -1.54784E+02 -1.63169E+02 -1.56383E+02 -1.39495E+02 -8.87002E+01 -8.34239E+01 -7.33594E+01 -6.59050E+01
  -5.28711E+01 -5.05462E+01 -5.31104E+01 -3.49546E+01 -4.35163E+01 -2.00611E+01 -1.91075E+01 -4.00020E+00  1.41467E+01  1.16482E+01
   2.46707E+01  3.54179E+00 -2.14653E+01 -6.52761E+01 -1.03378E+02 -1.20468E+02 -1.70798E+02 -1.90229E+02 -1.46776E+02 -1.27068E+02
  -1.26056E+02 -1.36118E+02 -1.35969E+02 -1.19926E+02 -1.27715E+02 -1.24051E+02 -1.23190E+02 -1.14110E+02 -1.01775E+02 -1.10350E+02
  -1.09007E+02 -9.36291E+01 -9.74404E+01 -9.63473E+01 -9.38966E+01 -1.11670E+02 -9.93401E+01 -8.00751E+01 -7.08773E+01 -8.51165E+01
  -9.12575E+01 -8.08743E+01 -7.77261E+01 -7.08582E+01 -7.34351E+01 -7.67747E+01 -7.76603E+01 -7.20131E+01 -7.64036E+01 -5.81922E+01
  -6.01395E+01 -5.52419E+01 -2.26964E+01 -4.33345E+01 -4.75462E+01 -3.95228E+01 -3.28610E+01 -4.62285E+01 -6.71669E+01 -6.56497E+01
  -7.17554E+01 -7.78060E+01 -9.31807E+01 -1.08738E+02 -1.07544E+02 -1.06117E+02 -1.01700E+02 -8.39669E+01 -1.05036E+02 -8.73376E+01
  -6.75846E+01 -1.01757E+02 -8.72838E+01 -7.42527E+01 -7.54332E+01 -7.17251E+01 -5.92767E+01 -6.36765E+01 -6.46408E+01 -5.60325E+01
  -5.47343E+01 -5.85000E+01 -7.14504E+01 -5.80271E+01 -6.93291E+01 -6.74724E+01 -6.99533E+01 -6.81263E+01 -7.38718E+01 -1.00953E+02
  -8.05784E+01 -9.25982E+01 -9.17110E+01 -8.56082E+01 -7.22110E+01 -4.97085E+01 -4.69254E+01 -2.76159E+01 -3.04807E+01 -2.44836E+01
  -2.91648E+01 -4.96347E+01 -5.52921E+01 -6.41495E+01 -6.15947E+01 -4.70925E+01 -6.13885E+01 -5.48763E+01 -5.31156E+01 -6.42160E+01
  -3.22633E+01 -5.85883E+01 -6.89125E+01 -6.10037E+01 -8.70079E+01 -9.77977E+01 -9.83763E+01 -9.93176E+01 -1.07301E+02 -9.55577E+01
  -1.03706E+02 -8.41913E+01 -7.92292E+01 -9.82377E+01 -8.91685E+01 -8.22426E+01 -7.35971E+01 -9.28672E+01 -8.90532E+01 -1.06424E+02
  -1.16115E+02 -1.13777E+02 -1.29905E+02 -1.14788E+02 -1.27361E+02 -1.17007E+02 -8.28371E+01 -4.74878E+01  4.24329E+00  5.68859E+01
   8.57599E+01  1.17591E+02  1.36152E+02  8.85447E+01  6.79862E+01  5.33298E+01  3.22397E+01  3.35571E+01  3.10090E+01  2.07596E+01
   2.49617E+01  4.25694E+01  2.63683E+01  1.61402E+01  2.07332E+01  1.77938E+01  5.30325E+00  1.74086E+01  2.48871E+01  1.12053E+01
   1.61412E+01  4.39604E+00  1.52551E+01  1.12031E+01 -7.65106E+00  4.02305E+00 -5.83443E+00 -8.89657E+00 -1.21935E+00 -1.36726E+01
  -1.82884E+01 -7.24384E-01 -6.38023E+00 -1.91815E+01 -2.53414E+01 -4.23929E+01 -4.81878E+01 -5.21776E+01 -5.94993E+01 -5.32622E+01
  -4.84682E+01 -5.53771E+01 -4.04957E+01 -3.61197E+01 -3.73229E+01 -2.43751E+01 -2.42441E+01 -2.22656E+01 -1.81371E+01 -3.22695E+00
  -8.36495E+00 -1.14436E+00  1.36902E+01  4.95862E+00  1.80338E+01  1.70222E+01  2.74879E+01  2.28317E+01  1.38906E+01  3.53000E+01
   2.36150E+01  2.69634E+01  8.01621E+00 -1.67944E+01 -1.83744E+00 -1.06205E+01 -1.18598E+01 -5.96469E+00  1.74529E+01  3.75721E+01
   5.10115E+01  8.75465E+01  7.93226E+01  8.78241E+01  1.14461E+02  1.11872E+02  1.12390E+02  9.53369E+01  9.19555E+01  8.53507E+01
   7.28697E+01  6.23455E+01  3.67636E+01  3.93647E+01  2.84244E+01  8.62953E+00  2.15178E+01  2.25861E+01  1.47809E+01  1.34797E+01
   1.31773E+01  1.00489E+01  1.25969E+00  1.99845E+00 -2.02121E+00 -7.62606E+00 -1.30072E+01 -1.37066E+01 -3.35502E+00 -1.27751E+01
  -1.50367E+01 -1.80880E+01 -1.36457E+01 -3.00567E+00 -1.17782E+01 -5.58791E+00 -3.27011E+00  3.64773E+00  2.78190E+00  1.62232E+00
   6.26457E+00  3.63238E+00  1.60406E+01  1.12820E+01  7.39753E+00  9.01896E+00  2.59417E+01  3.35061E+01  1.81546E+01  4.09296E+01
   5.39249E+01  4.51071E+01  4.73495E+01  5.87309E+01  7.31120E+01  7.38804E+01  7.10895E+01  7.45822E+01  6.99897E+01  7.53288E+01
   7.83392E+01  6.13893E+01  5.74481E+01  3.56830E+01  1.65156E+01  1.63647E+01 -1.51877E+00 -1.37004E+01 -1.64537E+01 -2.91439E+01
  -3.17803E+01 -2.25681E+01 -3.61454E+01 -4.39558E+01 -5.14468E+01 -5.32704E+01 -5.57116E+01 -6.95631E+01 -5.64891E+01 -5.98168E+01
  -5.71303E+01 -6.01011E+01 -6.03123E+01 -4.87526E+01 -7.16515E+01 -6.59305E+01 -5.66331E+01 -5.80928E+01 -6.54876E+01 -6.54342E+01
  -4.52629E+01 -4.85656E+01 -4.89020E+01 -4.82709E+01 -3.90177E+01 -3.57256E+01 -5.18298E+01 -5.65562E+01 -5.48212E+01 -4.91626E+01
  -5.67493E+01 -6.33062E+01 -5.34543E+01 -4.94774E+01 -6.23693E+01 -6.72063E+01 -4.94404E+01 -3.66672E+01 -4.14471E+01 -5.90441E+01
  -5.76033E+01 -4.73778E+01 -5.61235E+01 -5.02887E+01 -5.03416E+01 -5.02542E+01 -4.25604E+01 -4.44813E+01 -2.62101E+01 -3.76415E+01
  -4.88402E+01 -4.78229E+01 -4.41453E+01 -3.41185E+01 -6.62489E+01 -4.60293E+01 -4.23949E+01 -4.63924E+01 -2.78325E+01 -6.37103E+01
  -4.24954E+01 -4.33779E+01 -5.31870E+01 -2.89770E+01 -3.44288E+01 -3.43730E+01 -4.03182E+01 -3.37806E+01 -3.61565E+01 -3.46480E+01
  -3.49336E+01 -4.33181E+01 -3.99094E+01 -4.66016E+01 -3.77274E+01 -3.70568E+01 -5.10186E+01 -4.09889E+01 -3.26939E+01 -4.83870E+01
 NY points of the fit to the data follow
  -1.39995E+02 -1.36983E+02 -1.33920E+02 -1.30785E+02 -1.27333E+02 -1.23657E+02 -1.20143E+02 -1.17670E+02 -1.16998E+02 -1.18382E+02
  -1.21868E+02 -1.26159E+02 -1.29671E+02 -1.31813E+02 -1.33547E+02 -1.35763E+02 -1.38921E+02 -1.44009E+02 -1.49805E+02 -1.54746E+02
  -1.57076E+02 -1.54934E+02 -1.46395E+02 -1.31121E+02 -1.11129E+02 -9.01089E+01 -7.21023E+01 -5.97838E+01 -5.38221E+01 -5.37292E+01
  -5.69246E+01 -5.92621E+01 -6.17859E+01 -6.50428E+01 -6.93698E+01 -7.50102E+01 -8.19283E+01 -9.03074E+01 -9.96424E+01 -1.08878E+02
  -1.16141E+02 -1.19731E+02 -1.18406E+02 -1.11905E+02 -1.01116E+02 -8.80075E+01 -7.50380E+01 -6.41311E+01 -5.59678E+01 -5.09202E+01
  -4.95551E+01 -5.09397E+01 -5.45900E+01 -6.01540E+01 -6.69664E+01 -7.39424E+01 -8.04979E+01 -8.55530E+01 -8.79448E+01 -8.70260E+01
  -8.30784E+01 -7.69212E+01 -6.95891E+01 -6.23683E+01 -5.65136E+01 -5.35987E+01 -5.41770E+01 -5.76164E+01 -6.38562E+01 -7.08120E+01
  -7.53650E+01 -7.62861E+01 -7.29682E+01 -6.57143E+01 -5.61564E+01 -4.70231E+01 -3.99494E+01 -3.53443E+01 -3.39206E+01 -3.68847E+01
  -4.34523E+01 -5.22130E+01 -6.18260E+01 -7.04579E+01 -7.61085E+01 -7.71901E+01 -7.32892E+01 -6.53363E+01 -5.51962E+01 -4.48512E+01
  -3.61897E+01 -2.91452E+01 -2.37243E+01 -1.92200E+01 -1.50250E+01 -1.09108E+01 -7.16725E+00 -4.43507E+00 -2.91985E+00 -3.67337E+00
  -7.14837E+00 -1.36143E+01 -2.24007E+01 -3.26952E+01 -4.54979E+01 -6.00805E+01 -7.51765E+01 -8.99376E+01 -1.05469E+02 -1.22006E+02
  -1.37088E+02 -1.47814E+02 -1.52411E+02 -1.48230E+02 -1.35760E+02 -1.18287E+02 -1.02354E+02 -9.17623E+01 -8.28583E+01 -7.45414E+01
  -6.64591E+01 -5.84406E+01 -5.03361E+01 -4.18896E+01 -3.25162E+01 -2.08072E+01 -6.88312E+00  5.94912E+00  1.58007E+01  2.06991E+01
   1.72886E+01  1.79181E+00 -2.62412E+01 -6.27727E+01 -1.00808E+02 -1.32722E+02 -1.52031E+02 -1.55456E+02 -1.46877E+02 -1.37013E+02
  -1.31793E+02 -1.28044E+02 -1.25109E+02 -1.22687E+02 -1.20462E+02 -1.18210E+02 -1.15823E+02 -1.13375E+02 -1.10981E+02 -1.08626E+02
  -1.06224E+02 -1.03820E+02 -1.01439E+02 -9.90603E+01 -9.67115E+01 -9.44376E+01 -9.24013E+01 -9.07208E+01 -8.93468E+01 -8.81688E+01
  -8.71298E+01 -8.62954E+01 -8.57868E+01 -8.57371E+01 -8.60614E+01 -8.61258E+01 -8.49794E+01 -8.20963E+01 -7.76624E+01 -7.21192E+01
  -6.57620E+01 -5.91006E+01 -5.31386E+01 -4.89150E+01 -4.68476E+01 -4.69436E+01 -4.90219E+01 -5.26503E+01 -5.73795E+01 -6.34943E+01
  -7.13341E+01 -7.98497E+01 -8.68968E+01 -9.12273E+01 -9.32321E+01 -9.40330E+01 -9.44706E+01 -9.44219E+01 -9.34928E+01 -9.16646E+01
  -8.89689E+01 -8.50976E+01 -7.99938E+01 -7.39134E+01 -6.77609E+01 -6.22413E+01 -5.76520E+01 -5.43345E+01 -5.26519E+01 -5.25277E+01
  -5.28735E+01 -5.33336E+01 -5.48245E+01 -5.70061E+01 -5.95165E+01 -6.28656E+01 -6.73811E+01 -7.31432E+01 -7.89434E+01 -8.37813E+01
  -8.65805E+01 -8.65929E+01 -8.28346E+01 -7.48871E+01 -6.32643E+01 -4.94107E+01 -3.53803E+01 -2.34615E+01 -1.55871E+01 -1.26438E+01
  -1.42774E+01 -1.94329E+01 -2.61420E+01 -3.26924E+01 -3.94013E+01 -4.56139E+01 -5.21398E+01 -5.94216E+01 -6.72389E+01 -7.52592E+01
  -8.28734E+01 -8.98053E+01 -9.56609E+01 -1.00117E+02 -1.03094E+02 -1.04701E+02 -1.04997E+02 -1.04368E+02 -1.03072E+02 -1.01257E+02
  -9.90164E+01 -9.64487E+01 -9.34563E+01 -9.03481E+01 -8.76114E+01 -8.57295E+01 -8.56986E+01 -8.79731E+01 -9.22530E+01 -9.90094E+01
  -1.10390E+02 -1.22271E+02 -1.31018E+02 -1.34622E+02 -1.31257E+02 -1.17367E+02 -9.04279E+01 -5.25434E+01 -1.02927E+01  2.93622E+01
   6.01946E+01  7.56649E+01  7.28339E+01  5.96580E+01  4.98069E+01  4.26918E+01  3.66606E+01  3.14450E+01  2.69900E+01  2.33367E+01
   2.05036E+01  1.84835E+01  1.71894E+01  1.64476E+01  1.60607E+01  1.58288E+01  1.55469E+01  1.50945E+01  1.43712E+01  1.33964E+01
   1.21579E+01  1.07069E+01  9.13249E+00  7.44139E+00  5.65820E+00  3.77639E+00  1.81043E+00 -1.92614E-01 -2.18407E+00 -4.07463E+00
  -5.73180E+00 -7.01190E+00 -7.79437E+00 -7.98708E+00 -7.58274E+00 -6.63156E+00 -5.23171E+00 -3.53115E+00 -1.65534E+00  3.02298E-01
   2.30493E+00  4.33710E+00  6.39922E+00  8.47610E+00  1.05705E+01  1.26985E+01  1.48560E+01  1.70017E+01  1.90954E+01  2.10945E+01
   2.29479E+01  2.46139E+01  2.60809E+01  2.73261E+01  2.83013E+01  2.89762E+01  2.93363E+01  2.94114E+01  2.92133E+01  2.87208E+01
   2.79104E+01  2.67644E+01  2.52350E+01  2.32911E+01  2.09949E+01  1.84930E+01  1.60199E+01  1.38985E+01  1.24894E+01  1.21152E+01
   1.30071E+01  1.52323E+01  1.87732E+01  2.36147E+01  2.97962E+01  3.68431E+01  4.34441E+01  4.88332E+01  5.10900E+01  4.89060E+01
   4.13033E+01  2.83860E+01  1.14410E+01 -6.74315E+00 -2.25202E+01 -3.25964E+01 -3.52488E+01 -3.15162E+01 -2.47387E+01 -1.79060E+01
  -1.26420E+01 -1.04437E+01 -9.18409E+00 -8.18546E+00 -7.10972E+00 -5.75313E+00 -4.03461E+00 -1.99807E+00  2.46520E-01  2.59664E+00
   4.96878E+00  7.27675E+00  9.47076E+00  1.15221E+01  1.34267E+01  1.52101E+01  1.69054E+01  1.85647E+01  2.02265E+01  2.19165E+01
   2.36895E+01  2.55910E+01  2.76598E+01  2.99399E+01  3.24561E+01  3.52150E+01  3.81978E+01  4.13603E+01  4.46212E+01  4.78442E+01
   5.07945E+01  5.31529E+01  5.46032E+01  5.48433E+01  5.36282E+01  5.08694E+01  4.67279E+01  4.15527E+01  3.57886E+01  2.98734E+01
   2.41437E+01  1.87316E+01  1.35784E+01  8.49719E+00  3.36820E+00 -1.84140E+00 -7.02811E+00 -1.20285E+01 -1.66205E+01 -2.06268E+01
  -2.39913E+01 -2.67515E+01 -2.89925E+01 -3.08263E+01 -3.23830E+01 -3.37375E+01 -3.49431E+01 -3.60285E+01 -3.70176E+01 -3.79016E+01
  -3.86961E+01 -3.94053E+01 -4.00479E+01 -4.06495E+01 -4.12340E+01 -4.17987E+01 -4.23241E+01 -4.28143E+01 -4.32868E+01 -4.37422E+01
  -4.41615E+01 -4.45528E+01 -4.49358E+01 -4.53009E+01 -4.56179E+01 -4.58896E+01 -4.61479E+01 -4.63891E+01 -4.66189E+01 -4.68440E+01
  -4.70742E+01 -4.72957E+01 -4.74833E+01 -4.76164E+01 -4.76957E+01 -4.77447E+01 -4.77830E+01 -4.78312E+01 -4.78942E+01 -4.79707E+01
  -4.80468E+01 -4.81232E+01 -4.81826E+01 -4.82217E+01 -4.82366E+01 -4.82201E+01 -4.81710E+01 -4.81038E+01 -4.80308E+01 -4.79529E+01
  -4.78650E+01 -4.77530E+01 -4.76124E+01 -4.74572E+01 -4.72913E+01 -4.71340E+01 -4.69950E+01 -4.68665E+01 -4.67468E+01 -4.66286E+01
  -4.64980E+01 -4.63422E+01 -4.61551E+01 -4.59241E+01 -4.56519E+01 -4.53512E+01 -4.50601E+01 -4.47964E+01 -4.45678E+01 -4.43649E+01
  -4.41679E+01 -4.39488E+01 -4.36777E+01 -4.33505E+01 -4.29816E+01 -4.25774E+01 -4.21291E+01 -4.16028E+01 -4.09698E+01 -4.02080E+01
 NY background values follow
    -1.167E+02   -1.162E+02   -1.156E+02   -1.151E+02   -1.145E+02   -1.139E+02   -1.133E+02   -1.128E+02   -1.122E+02   -1.116E+02
    -1.110E+02   -1.105E+02   -1.099E+02   -1.093E+02   -1.087E+02   -1.081E+02   -1.075E+02   -1.069E+02   -1.063E+02   -1.057E+02
    -1.050E+02   -1.044E+02   -1.038E+02   -1.031E+02   -1.025E+02   -1.018E+02   -1.012E+02   -1.005E+02   -9.987E+01   -9.919E+01
    -9.851E+01   -9.782E+01   -9.713E+01   -9.643E+01   -9.572E+01   -9.501E+01   -9.430E+01   -9.359E+01   -9.287E+01   -9.215E+01
    -9.143E+01   -9.071E+01   -8.999E+01   -8.927E+01   -8.855E+01   -8.784E+01   -8.713E+01   -8.642E+01   -8.572E+01   -8.502E+01
    -8.433E+01   -8.365E+01   -8.297E+01   -8.231E+01   -8.165E+01   -8.100E+01   -8.036E+01   -7.973E+01   -7.911E+01   -7.851E+01
    -7.792E+01   -7.734E+01   -7.678E+01   -7.623E+01   -7.569E+01   -7.517E+01   -7.466E+01   -7.416E+01   -7.368E+01   -7.321E+01
    -7.275E+01   -7.231E+01   -7.188E+01   -7.146E+01   -7.106E+01   -7.067E+01   -7.029E+01   -6.992E+01   -6.957E+01   -6.923E+01
    -6.890E+01   -6.859E+01   -6.829E+01   -6.800E+01   -6.772E+01   -6.746E+01   -6.721E+01   -6.697E+01   -6.674E+01   -6.653E+01
    -6.632E+01   -6.613E+01   -6.595E+01   -6.579E+01   -6.563E+01   -6.548E+01   -6.535E+01   -6.522E+01   -6.510E+01   -6.498E+01
    -6.488E+01   -6.478E+01   -6.469E+01   -6.460E+01   -6.452E+01   -6.444E+01   -6.437E+01   -6.430E+01   -6.423E+01   -6.417E+01
    -6.410E+01   -6.404E+01   -6.398E+01   -6.392E+01   -6.386E+01   -6.380E+01   -6.374E+01   -6.367E+01   -6.360E+01   -6.353E+01
    -6.346E+01   -6.338E+01   -6.330E+01   -6.321E+01   -6.313E+01   -6.304E+01   -6.294E+01   -6.284E+01   -6.275E+01   -6.264E+01
    -6.254E+01   -6.244E+01   -6.233E+01   -6.222E+01   -6.211E+01   -6.200E+01   -6.189E+01   -6.178E+01   -6.167E+01   -6.156E+01
    -6.145E+01   -6.134E+01   -6.124E+01   -6.113E+01   -6.102E+01   -6.092E+01   -6.081E+01   -6.071E+01   -6.061E+01   -6.052E+01
    -6.042E+01   -6.033E+01   -6.024E+01   -6.016E+01   -6.007E+01   -5.999E+01   -5.991E+01   -5.983E+01   -5.976E+01   -5.969E+01
    -5.961E+01   -5.954E+01   -5.948E+01   -5.941E+01   -5.934E+01   -5.928E+01   -5.921E+01   -5.915E+01   -5.909E+01   -5.903E+01
    -5.897E+01   -5.891E+01   -5.885E+01   -5.879E+01   -5.873E+01   -5.867E+01   -5.861E+01   -5.856E+01   -5.850E+01   -5.844E+01
    -5.838E+01   -5.832E+01   -5.826E+01   -5.819E+01   -5.813E+01   -5.806E+01   -5.800E+01   -5.793E+01   -5.785E+01   -5.777E+01
    -5.769E+01   -5.761E+01   -5.752E+01   -5.742E+01   -5.732E+01   -5.722E+01   -5.710E+01   -5.699E+01   -5.686E+01   -5.673E+01
    -5.659E+01   -5.645E+01   -5.629E+01   -5.613E+01   -5.596E+01   -5.578E+01   -5.559E+01   -5.539E+01   -5.518E+01   -5.496E+01
    -5.473E+01   -5.448E+01   -5.423E+01   -5.397E+01   -5.370E+01   -5.343E+01   -5.314E+01   -5.285E+01   -5.256E+01   -5.226E+01
    -5.196E+01   -5.165E+01   -5.135E+01   -5.104E+01   -5.073E+01   -5.043E+01   -5.012E+01   -4.982E+01   -4.952E+01   -4.922E+01
    -4.893E+01   -4.865E+01   -4.837E+01   -4.809E+01   -4.783E+01   -4.757E+01   -4.733E+01   -4.709E+01   -4.687E+01   -4.665E+01
    -4.645E+01   -4.627E+01   -4.609E+01   -4.593E+01   -4.578E+01   -4.564E+01   -4.551E+01   -4.540E+01   -4.529E+01   -4.520E+01
    -4.511E+01   -4.504E+01   -4.498E+01   -4.492E+01   -4.488E+01   -4.484E+01   -4.481E+01   -4.479E+01   -4.478E+01   -4.477E+01
    -4.478E+01   -4.479E+01   -4.480E+01   -4.482E+01   -4.485E+01   -4.489E+01   -4.493E+01   -4.497E+01   -4.502E+01   -4.508E+01
    -4.514E+01   -4.520E+01   -4.526E+01   -4.532E+01   -4.538E+01   -4.544E+01   -4.549E+01   -4.553E+01   -4.556E+01   -4.557E+01
    -4.558E+01   -4.557E+01   -4.553E+01   -4.548E+01   -4.541E+01   -4.532E+01   -4.519E+01   -4.504E+01   -4.486E+01   -4.465E+01
    -4.441E+01   -4.413E+01   -4.381E+01   -4.346E+01   -4.306E+01   -4.262E+01   -4.214E+01   -4.161E+01   -4.103E+01   -4.040E+01
    -3.972E+01   -3.898E+01   -3.820E+01   -3.737E+01   -3.650E+01   -3.559E+01   -3.465E+01   -3.367E+01   -3.266E+01   -3.163E+01
    -3.057E+01   -2.949E+01   -2.840E+01   -2.729E+01   -2.617E+01   -2.504E+01   -2.390E+01   -2.276E+01   -2.162E+01   -2.049E+01
    -1.937E+01   -1.825E+01   -1.715E+01   -1.606E+01   -1.499E+01   -1.395E+01   -1.293E+01   -1.193E+01   -1.097E+01   -1.005E+01
    -9.160E+00   -8.310E+00   -7.499E+00   -6.726E+00   -5.991E+00   -5.294E+00   -4.635E+00   -4.013E+00   -3.429E+00   -2.883E+00
    -2.374E+00   -1.901E+00   -1.466E+00   -1.068E+00   -7.065E-01   -3.816E-01   -9.318E-02    1.589E-01    3.749E-01    5.547E-01
     6.987E-01    8.068E-01    8.793E-01    9.163E-01    9.179E-01    8.842E-01    8.155E-01    7.117E-01    5.731E-01    3.998E-01
     1.924E-01   -4.926E-02   -3.239E-01   -6.306E-01   -9.684E-01   -1.337E+00   -1.734E+00   -2.160E+00   -2.613E+00   -3.093E+00
    -3.599E+00   -4.130E+00   -4.685E+00   -5.262E+00   -5.862E+00   -6.483E+00   -7.125E+00   -7.786E+00   -8.465E+00   -9.162E+00
    -9.876E+00   -1.061E+01   -1.135E+01   -1.211E+01   -1.288E+01   -1.366E+01   -1.446E+01   -1.527E+01   -1.608E+01   -1.690E+01
    -1.774E+01   -1.857E+01   -1.942E+01   -2.027E+01   -2.112E+01   -2.197E+01   -2.283E+01   -2.369E+01   -2.454E+01   -2.540E+01
    -2.625E+01   -2.710E+01   -2.794E+01   -2.878E+01   -2.961E+01   -3.043E+01   -3.125E+01   -3.205E+01   -3.284E+01   -3.362E+01
    -3.439E+01   -3.515E+01   -3.589E+01   -3.661E+01   -3.731E+01   -3.800E+01   -3.867E+01   -3.932E+01   -3.994E+01   -4.055E+01
    -4.113E+01   -4.169E+01   -4.222E+01   -4.274E+01   -4.323E+01   -4.370E+01   -4.415E+01   -4.458E+01   -4.499E+01   -4.538E+01
    -4.576E+01   -4.611E+01   -4.645E+01   -4.677E+01   -4.708E+01   -4.737E+01   -4.765E+01   -4.791E+01   -4.816E+01   -4.839E+01
    -4.861E+01   -4.882E+01   -4.901E+01   -4.920E+01   -4.937E+01   -4.954E+01   -4.969E+01   -4.984E+01   -4.997E+01   -5.010E+01
    -5.022E+01   -5.033E+01   -5.044E+01   -5.054E+01   -5.063E+01   -5.072E+01   -5.080E+01   -5.088E+01   -5.095E+01   -5.102E+01
    -5.108E+01   -5.114E+01   -5.119E+01   -5.124E+01   -5.129E+01   -5.134E+01   -5.139E+01   -5.143E+01   -5.147E+01   -5.151E+01
    -5.155E+01   -5.159E+01   -5.163E+01   -5.166E+01   -5.170E+01   -5.174E+01   -5.178E+01   -5.183E+01   -5.187E+01   -5.192E+01
 Mac      Conc. = 1.60E-04
  -1.29085E+02 -1.28930E+02 -1.28853E+02 -1.28873E+02 -1.28979E+02 -1.29105E+02 -1.29190E+02 -1.29191E+02 -1.29100E+02 -1.28913E+02
  -1.28618E+02 -1.28224E+02 -1.27702E+02 -1.26939E+02 -1.25794E+02 -1.24188E+02 -1.22150E+02 -1.19788E+02 -1.17301E+02 -1.14927E+02
  -1.12844E+02 -1.11062E+02 -1.09456E+02 -1.07930E+02 -1.06459E+02 -1.04979E+02 -1.03478E+02 -1.02029E+02 -1.00701E+02 -9.95118E+01
  -9.84349E+01 -9.74305E+01 -9.64311E+01 -9.53664E+01 -9.41988E+01 -9.29310E+01 -9.15916E+01 -9.02512E+01 -8.89903E+01 -8.78531E+01
  -8.68287E+01 -8.58645E+01 -8.49268E+01 -8.40473E+01 -8.33222E+01 -8.28207E+01 -8.25249E+01 -8.23644E+01 -8.22399E+01 -8.20531E+01
  -8.17499E+01 -8.12939E+01 -8.06635E+01 -7.98459E+01 -7.88661E+01 -7.77586E+01 -7.65816E+01 -7.54168E+01 -7.43364E+01 -7.34154E+01
  -7.27037E+01 -7.21952E+01 -7.18369E+01 -7.15501E+01 -7.12334E+01 -7.07739E+01 -7.01018E+01 -6.92097E+01 -6.81177E+01 -6.69165E+01
  -6.57108E+01 -6.46109E+01 -6.37313E+01 -6.31510E+01 -6.28570E+01 -6.27339E+01 -6.26655E+01 -6.25826E+01 -6.24276E+01 -6.21545E+01
  -6.17601E+01 -6.12496E+01 -6.06640E+01 -6.00309E+01 -5.93836E+01 -5.87697E+01 -5.82257E+01 -5.77791E+01 -5.74464E+01 -5.72673E+01
  -5.72838E+01 -5.75256E+01 -5.80030E+01 -5.87215E+01 -5.96484E+01 -6.07269E+01 -6.19072E+01 -6.31580E+01 -6.45147E+01 -6.60561E+01
  -6.78595E+01 -6.99485E+01 -7.22870E+01 -7.47335E+01 -7.70415E+01 -7.89322E+01 -8.01836E+01 -8.06502E+01 -8.03195E+01 -7.93287E+01
