 
 $NMID
 ID=''
 FMTDAT='(2E13.5)'
 TRAMP=   1.00000E+0
 VOLUME=   1.00000E+0
 $END
  -1.63436E+4  -1.50592E+4
  -2.42093E+4   7.08972E+3
   1.28324E+4   2.41906E+4
   1.74162E+4  -6.80385E+3
  -2.19484E+4  -1.18529E+4
  -9.83435E+3   1.36909E+4
   1.96503E+4   2.73688E+3
  -1.12836E+3  -1.08474E+4
  -1.11950E+4   6.32125E+3
   6.60867E+3   4.94276E+3
   6.61833E+2  -9.21540E+3
  -6.79383E+3  -5.67891E+2
   3.42994E+3   3.20308E+3
  -9.49729E+2  -5.38773E+3
  -5.12275E+3  -2.35481E+3
   4.77184E+3   1.99675E+3
   2.27648E+3   5.88389E+2
  -4.58176E+3   2.01750E+3
   1.05883E+3   6.11056E+2
   1.52815E+3  -1.47506E+3
  -2.39081E+3   1.47835E+3
   7.89994E+2   9.69339E+2
   1.62072E+3  -2.64571E+2
  -1.44802E+3   1.40645E+3
   3.30604E+0  -4.70056E+2
   2.18160E+3  -1.08484E+3
   6.94657E+2   2.22163E+3
  -1.47570E+3   6.12410E+2
  -1.09972E+3  -2.16049E+3
   9.59714E+2  -1.05233E+2
   3.49217E+2   6.25590E+2
  -1.45457E+3  -3.86004E+1
  -8.86320E+2  -4.22421E+2
  -3.75471E+2  -2.29601E+3
   2.35610E+2  -2.43673E+3
   3.01291E+3   7.21724E+2
   8.26947E+2   2.29217E+3
  -2.57885E+3   4.83171E+2
  -3.42049E+2  -3.36207E+2
   1.17949E+3  -3.29763E+2
  -1.93015E+3  -1.63762E+2
  -4.50664E+2  -6.74463E+2
   2.68578E+3  -1.02994E+3
   1.69350E+3   2.98902E+2
   1.54815E+2   1.18246E+3
   5.67364E+2   1.11264E+3
  -1.18816E+3   1.29244E+3
  -1.86827E+3   4.23767E+2
  -1.65231E+2  -1.96522E+3
   6.07633E+2  -1.76369E+3
   4.98055E+2   2.20459E+1
   7.27914E+2   3.92108E+1
   9.04291E+2  -1.72959E+2
   6.87915E+2   9.29895E+2
   4.21513E+2   8.63925E+2
  -5.70250E+2   1.56202E+2
  -8.43670E+2  -3.78563E+2
   2.42172E+2  -7.00833E+2
   1.76854E+3  -5.08628E+2
   1.59365E+3   3.49871E+2
   6.13822E+2   1.13267E+3
   1.69719E+2   1.02065E+3
  -6.17160E+2   1.12225E+3
  -1.38000E+3   4.36753E+2
  -1.48330E+3  -1.08057E+3
  -3.13161E+2  -1.90462E+3
   1.09687E+3  -1.85878E+3
   1.80043E+3  -8.44079E+2
   1.77197E+3   4.12446E+2
   2.47769E+1   3.96443E+2
  -7.95207E+2  -6.18451E+2
   1.03874E+3  -7.30664E+2
   1.35085E+3   4.28145E+2
  -3.62801E+2   1.13401E+3
  -4.80687E+2  -1.72978E+2
   1.18244E+2  -9.12571E+2
  -3.69661E+1   4.61593E+1
  -5.43649E+2   7.62690E+2
  -4.32381E+2  -2.22119E+2
  -3.70132E+2  -5.85801E+2
  -3.30354E+2  -7.74905E+2
   7.58653E+1  -6.57705E+2
   4.35328E+2  -4.84934E+2
   1.07521E+2  -2.06065E+2
   3.52939E+2  -4.10185E+2
   7.02843E+2  -7.76246E+2
   7.11954E+2  -1.46868E+1
   1.32874E+2   4.61225E+2
  -2.88648E+2   6.29933E+1
   1.51147E+2  -8.50602E+1
   5.70100E+2   4.68812E+2
  -1.64161E+2   6.78509E+2
  -1.24521E+3   2.04082E+2
  -1.18988E+3  -5.18813E+2
  -1.02844E+2  -1.04171E+3
   5.94068E+2  -8.70004E+2
   6.71227E+2   1.36603E+2
  -2.01296E+2   2.23461E+1
  -1.25264E+2  -4.51262E+2
   8.46970E+2  -2.30895E+1
   6.05402E+2   8.68541E+2
  -8.31038E+2   8.91026E+2
  -1.08032E+3  -7.96641E+1
  -2.24165E+2  -7.47151E+2
   6.68385E+2  -5.22220E+2
   6.25846E+2   7.82272E+2
  -4.65251E+2   8.33107E+2
  -9.19277E+2  -4.89558E+2
  -4.63545E+2  -1.38673E+3
   9.96825E+2  -6.75124E+2
   1.13478E+3   6.48213E+2
   3.45505E+2   9.92427E+2
  -8.66782E+1   7.35218E+2
  -1.60734E+2   4.36462E+2
  -7.83243E+1   2.07530E+2
  -4.64051E+2   1.86821E+2
  -1.11653E+3  -2.06456E+2
  -4.42275E+2  -1.10969E+3
   5.17719E+2  -1.57771E+3
   1.39196E+3  -4.00344E+2
   9.49559E+2   4.04796E+2
   8.21159E+1   7.89819E+2
   1.48482E+2   5.54679E+2
  -2.14233E+2   4.52716E+2
  -7.10634E+2   2.18252E+2
  -3.65882E+2  -2.32868E+2
   2.39302E+2  -6.00673E+2
   4.88035E+2  -2.70234E+2
   4.19951E+2   3.69104E+2
   9.29575E+1   7.47636E+2
  -6.07788E+2   4.73231E+2
  -6.20955E+2  -4.56445E+2
   1.38475E+2  -3.89299E+2
   1.53157E+2   6.14476E+0
   1.32195E+1   3.47402E+1
  -2.33515E+1  -5.72643E+2
   3.14729E+2  -3.38252E+2
   4.78461E+2   4.45145E+2
  -1.05313E+2   6.36136E+2
  -6.03961E+2   2.59198E+2
  -6.04402E+2  -4.58539E+2
   3.83368E+2  -8.60635E+2
   8.69087E+2  -1.28911E+2
   4.17962E+2   6.69833E+2
  -6.65978E+2   7.42572E+2
  -9.43935E+2   5.98667E+1
  -4.49322E+2  -3.56171E+2
  -6.90963E+1  -2.07663E+2
  -7.83015E+1   9.34918E+0
  -2.77377E+2  -2.62926E+2
   3.81724E+2  -4.92832E+2
   5.76195E+2  -2.69997E+2
   7.78621E+2   4.88132E+2
  -2.89097E+1   1.06253E+3
  -6.22544E+2   2.79332E+2
  -2.68627E+1  -3.02517E+2
   2.24307E+1   1.64853E+2
  -2.66190E+2   4.54564E+2
  -3.95302E+2   9.51328E+0
  -1.15448E+1  -3.77072E+0
  -4.05789E+2   1.43796E+2
  -3.75163E+2   2.98389E+2
  -5.30993E+2   9.83886E+1
  -1.87504E+2  -3.33978E+2
   5.24962E+1  -3.39554E+2
   5.28517E+2  -1.81914E+2
   1.73275E+2   2.42877E+2
  -2.23986E+2   5.11133E+2
  -3.41279E+2   1.68566E+2
   1.41030E+2   3.42796E+1
   1.59581E+2   2.19355E+2
  -1.59195E+2   4.12356E+2
  -2.34933E+2   5.47430E+2
  -1.76495E+2   8.88387E+1
   4.26255E+1   1.34724E+1
   1.51208E+2   3.67394E+2
  -2.65408E+2   7.67106E+2
  -4.85748E+2  -1.15873E+1
   1.09728E+2  -4.49612E+2
   6.41997E+2   1.57786E+2
   4.56730E+2   5.81740E+2
  -1.13753E+2   3.46412E+2
  -4.32138E+2   4.34500E+1
  -2.16007E+2  -1.88172E+2
  -1.66456E+1  -8.17109E+1
  -6.86748E+1  -6.85651E+1
   6.45197E+1  -3.40962E+2
   2.96643E+2  -4.81371E+2
   4.14662E+2   5.44324E+1
   7.26017E+2   6.57854E+2
  -2.86359E+1   8.27516E+2
  -6.64953E+2   5.01693E+2
  -4.99764E+2  -1.42742E+2
  -4.06511E+1  -4.86665E+2
   3.12914E+2  -1.93220E+2
   3.04462E+2  -1.75607E+1
   5.40002E+1   9.76770E+1
   2.86584E+2   2.41564E+1
  -4.95368E+1   2.30897E+2
  -3.66762E+2   1.08468E+2
  -3.51249E+2   5.03016E+1
  -1.28200E+2  -6.90065E+2
   3.65035E+2  -2.58714E+2
   4.13474E+2   2.99746E+2
   2.72385E+2   2.26908E+2
  -5.57339E+2   1.74460E+2
  -1.86109E+2   1.20702E+2
   4.50970E+0  -1.73066E+2
   4.83892E+1   6.69854E+1
   7.46448E+1   1.42561E+2
  -1.12452E+2  -1.13029E+2
   3.41445E+2  -1.75473E+2
   3.59964E+2   1.58593E+2
  -9.14403E+1   6.10862E+2
  -7.10234E+2   2.04513E+2
  -5.13289E+2  -8.52892E+1
  -1.03247E+1  -4.60284E+2
   5.06147E+2  -3.36180E+2
   2.35794E+2  -1.08556E+2
  -1.48576E+2   8.74021E+1
   1.05965E+1  -1.45195E+2
   3.40612E+2   7.47001E+1
   1.39098E+2   3.92960E+2
  -2.96348E+2   2.86435E+2
  -4.22452E+2  -1.61673E+1
  -1.66184E+2  -2.06135E+2
   4.67264E+2  -1.31566E+2
   2.06029E+2   3.75038E+2
  -2.62220E+2   3.11682E+2
  -5.24405E+2  -4.70697E+1
  -3.33033E+2  -2.36211E+2
   5.49506E+1  -1.85503E+2
  -5.82334E+1   1.95574E+2
  -5.16796E+0  -1.69396E+2
  -2.63120E+2  -8.97504E+1
   7.42773E+1  -5.23969E+1
   2.32987E+1   1.36413E+2
  -1.31082E+2   2.41051E+2
  -1.60312E+2  -6.41716E+1
  -6.62813E+1  -1.82481E+2
   9.37438E+1   2.33490E+1
   7.87437E+0   3.69390E+2
  -1.34579E+2   3.60701E+2
  -1.97842E+2   1.90911E+2
  -7.77182E+0   3.66335E+1
   8.10450E+1  -1.69387E+2
   1.07775E+2   1.64774E+2
  -3.05813E+2   2.60295E+1
  -9.79292E+0  -4.80662E+2
   3.29962E+2  -6.79525E+1
   1.43807E+2   2.72332E+2
   2.32655E+1   3.25463E+2
  -4.80437E+2  -2.42840E+2
  -2.50635E+2  -3.94777E+2
   1.47901E+2  -2.68793E+2
   3.90718E+2   4.25198E+0
   1.15252E+2   3.80578E+2
   1.35143E+1   1.62293E+2
  -8.01843E+1  -3.81980E+1
  -1.55241E+2   2.07679E+2
  -3.22875E+2   4.11626E+2
  -3.90046E+2  -1.28966E+2
  -2.80538E+2  -6.15254E+2
   2.54226E+2  -3.99066E+2
   3.03405E+2   3.42194E+1
   8.54405E+1   3.71445E+2
  -2.19900E+2   3.12743E+2
  -3.29995E+2  -2.39602E+2
  -3.37389E+0  -1.96403E+2
   8.68635E+1  -1.05977E+2
  -6.12398E+1   4.79056E+1
   1.07725E+1  -2.09883E+1
   7.86737E+1  -1.09372E+2
   2.83181E+2   5.24300E+1
   2.18309E+2   2.62685E+2
  -1.33041E+2   3.25183E+2
  -4.73180E+2  -1.98665E+2
   8.95889E+1  -4.47934E+2
   1.28328E+2   1.02378E+2
   2.07720E+1   1.25552E+2
  -5.58609E+1  -1.57570E+2
  -1.29814E+2  -2.27796E+2
  -9.00684E+0   5.60584E+0
  -2.04710E+2   2.93525E+2
  -2.50840E+2   3.07449E+1
  -4.09841E+2  -2.00299E+2
   2.80388E+1  -2.44166E+2
   3.00876E+2  -4.09961E+2
   3.30794E+2   1.40535E+2
   4.79105E+1   4.74748E+2
  -3.76550E+2   1.35030E+2
   1.10498E+1   1.13775E+1
  -9.91513E+1  -5.79666E+1
  -3.04798E+1  -5.47838E+1
  -2.64612E+2  -1.93099E+2
  -8.29528E+1  -1.84164E+2
   1.78633E+2  -1.03327E+2
   3.76632E+0   3.83916E+2
  -1.39364E+2   2.89063E+2
  -3.69062E+2   7.19681E+1
  -1.03508E+2  -3.07503E+2
   1.66843E+2  -1.84817E+2
   3.52249E+1   2.45371E+2
  -2.14329E+2   4.73558E+2
  -1.60165E+2  -6.62903E+1
  -7.16718E+1  -2.82665E+2
   7.94803E+1  -1.85269E+2
  -1.34706E+2   2.27151E+1
  -1.50170E+2   2.18006E+2
  -2.44442E+2  -7.15421E+1
   2.76454E+2  -1.66079E+2
   2.60531E+2   2.99041E+2
  -2.24877E+1   3.29107E+2
  -1.88070E+2  -8.71461E+1
  -3.24016E+2  -1.69177E+2
   7.53550E+1  -1.17145E+2
   5.36205E+1   1.00851E+2
   2.06254E+1   2.66172E+2
  -1.26600E+2  -2.34013E+2
  -1.43896E+2   9.60841E+0
   1.31565E+2  -3.07207E+1
  -1.83823E+1  -1.46445E+2
  -9.78044E+1   2.78225E+2
  -1.77030E+2   1.31806E+2
  -1.82213E+2  -7.55851E+1
   4.06065E+2   1.32665E+2
  -2.01943E+2   5.48124E+2
  -2.44005E+2   1.42638E+2
  -2.30732E+2  -1.82580E+2
  -2.44471E+2  -3.64760E+2
   1.22474E+2  -1.35129E+2
   1.80901E+2   3.78210E+1
  -2.28467E+2  -2.40877E+2
   8.83732E+1   3.28488E+1
   2.06335E+2   9.86628E+1
   1.19809E+2   3.45937E+2
  -4.74906E+2   4.02780E+1
  -5.29777E+2  -4.09763E+2
   2.67122E+1  -3.85430E+2
   2.27652E+2   7.72474E+1
   1.45076E+2   1.73757E+2
  -6.16829E+1   2.38450E+2
  -1.33712E+2  -2.39771E+2
  -1.47461E+1  -7.42645E+1
   8.90491E+1  -1.48707E+1
   4.83307E+1  -6.19324E+1
   9.81425E+1  -7.85131E+1
   3.71339E+2  -6.95775E+1
   2.91199E+2   1.87575E+2
   1.97503E+2   3.37562E+1
  -1.29452E+2   3.80797E+2
  -2.17638E+2  -1.15598E+2
   2.86550E+1  -1.64771E+2
   2.26645E+1  -1.76173E+2
   2.00417E+2   1.69089E+2
   4.65831E+1  -6.32999E+1
   5.58339E+1  -1.50030E+2
   1.01344E+2  -1.80801E+2
   1.30964E+2   1.77980E+2
  -2.47565E+2   3.50031E+2
  -3.40483E+2   3.00497E+2
  -1.93832E+2  -3.22794E+2
   3.91865E+2  -2.40079E+2
   1.11911E+2   1.05907E+2
   1.64657E+2   2.31798E+2
  -5.55816E+1   8.57621E+1
   9.51631E+0  -1.40386E-2
